-2657
-2883
-3185
-3504
-3747
-3864
-3890
-3894
-3904
-3890
-3810
-3663
-3503
-3389
-3328
-3295
-3285
-3323
-3427
-3563
-3668
-3715
-3736
-3780
-3859
-3934
-3942
-3846
-3680
-3557
-3626
-3980
-4565
-5201
-5718
-6061
-6270
-6374
-6323
-6047
-5535
-4871
-4191
-3647
-3372
-3430
-3757
-4185
-4560
-4840
-5074
-5291
-5426
-5381
-5144
-4814
-4515
-4311
-4210
-4216
-4342
-4578
-4842
-5021
-5053
-4977
-4886
-4833
-4788
-4693
-4541
-4381
-4259
-4162
-4038
-3854
-3631
-3417
-3243
-3119
-3052
-3036
-3031
-2984
-2881
-2771
-2716
-2715
-2703
-2624
-2486
-2340
-2214
-2086
-1920
-1708
-1481
-1291
-1170
-1116
-1086
-1034
-960
-924
-980
-1105
-1205
-1200
-1104
-993
-932
-915
-905
-877
-844
-832
-867
-971
-1151
-1371
-1555
-1630
-1584
-1475
-1374
-1298
-1195
-1017
-797
-632
-603
-690
-789
-815
-781
-762
-790
-804
-713
-506
-283
-186
-278
-489
-689
-796
-848
-944
-1121
-1275
-1255
-1006
-646
-363
-250
-237
-207
-160
-251
-627
-1243
-1857
-2239
-2355
-2324
-2201
-1850
-1083
101
1437
2584
3393
3960
4451
4919
5261
5343
5117
4680
4206
3840
3616
3429
3134
2674
2143
1696
1413
1225
991
642
229
-137
-388
-539
-653
-771
-882
-952
-955
-892
-791
-687
-606
-550
-508
-478
-490
-579
-733
-872
-904
-807
-656
-539
-481
-438
-370
-296
-266
-290
-313
-272
-168
-67
-31
-57
-93
-110
-149
-265
-448
-616
-688
-663
-613
-604
-640
-674
-665
-612
-544
-510
-541
-634
-738
-791
-782
-758
-763
-776
-734
-622
-494
-409
-345
-236
-63
108
208
261
351
516
702
844
967
1153
1420
1668
1775
1739
1690
1764
1963
2166
2274
2309
2381
2557
2793
2986
3092
3140
3180
3206
3204
3203
3267
3405
3531
3539
3428
3320
3346
3520
3734
3876
3923
3940
4003
4126
4265
4361
4384
4350
4291
4223
4155
4123
4167
4286
4412
4463
4449
4468
4612
4840
5026
5097
5126
5236
5445
5642
5724
5730
5768
5876
5973
5966
5871
5783
5766
5811
5888
5991
6099
6140
6066
5946
5925
6063
6232
6238
6049
5845
5817
5976
6148
6166
6048
5950
5977
6057
6031
5820
5509
5246
5072
4914
4728
4647
4902
5601
6594
7617
8539
9431
10413
11444
12317
12806
12811
12390
11718
11000
10364
9758
8989
7914
6673
5656
5190
5241
5425
5357
4991
4606
4479
4601
4713
4576
4191
3756
3460
3350
3356
3393
3433
3488
3574
3695
3828
3929
3959
3917
3851
3819
3827
3822
3755
3633
3525
3500
3562
3648
3680
3638
3566
3548
3631
3782
3917
3960
3893
3754
3415
3247
3112
3056
3092
3153
3109
2878
2519
2213
2115
2209
2319
2302
2208
2230
2500
2927
3278
3385
3296
3191
3183
3254
3319
3334
3313
3290
3296
3356
3471
3606
3710
3789
3912
4107
4259
4195
3894
3550
3404
3487
3598
3552
3397
3375
3662
4212
4825
5344
5737
6034
6250
6374
6402
6345
6209
5998
5749
5553
5484
5542
5652
5727
5721
5633
5498
5360
5266
5241
5266
5301
5333
5382
5465
5540
5531
5389
5142
4871
4649
4501
4409
4345
4300
4314
4450
4712
5011
5224
5307
5330
5388
5477
5510
5430
5292
5196
5152
5059
4827
4503
4244
4167
4245
4368
4472
4593
4799
5081
5343
5484
5466
5309
5062
4805
4620
4563
4629
4737
4788
4742
4617
4453
4265
4014
3645
3176
2791
2773
3326
4400
5735
7091
8417
9787
11171
12342
13019
13087
12636
11850
10875
9802
8699
7618
6603
5719
5060
4684
4541
4494
4420
4302
4172
4022
3810
3532
3244
3008
2823
2648
2468
2325
2259
2257
2269
2279
2306
2372
2462
2534
2565
2579
2611
2658
2668
2588
2424
2246
2122
2053
1996
1935
1891
1885
1889
1876
1886
1979
2088
1993
1524
809
243
148
455
802
917
884
989
1367
1850
2156
2158
1935
1613
1258
909
629
475
433
415
356
288
292
404
559
653
639
564
532
618
794
961
1041
1048
1066
1141
1213
1162
955
703
594
748
1130
1583
1958
2206
2405
2670
3027
3373
3565
3560
3448
3370
3392
3470
3544
3614
3719
3874
4044
4183
4285
4358
4388
4336
4183
3995
3872
3852
3865
3806
3658
3531
3534
3638
3691
3587
3402
3310
3398
3551
3587
3447
3244
3129
3124
3117
2990
2749
2509
2383
2404
2533
2711
2896
3069
3219
3362
3524
3724
3925
4037
3998
3844
3703
3675
3750
3836
3852
3779
3657
3546
3511
3569
3658
3698
3667
3641
3698
3800
3809
3654
3417
3226
3087
2873
2519
2165
2067
2394
3116
4084
5162
6276
7391
8491
9543
10448
11035
11138
10716
9916
8986
8101
7259
6354
5358
4404
3703
3341
3190
3045
2816
2602
2512
2489
2360
2067
1742
1541
1444
1282
967
617
428
448
540
550
461
378
390
477
561
586
557
516
502
527
575
614
618
601
581
574
586
611
633
627
582
517
466
431
373
237
32
-147
-196
-115
-25
-45
-162
-233
-156
-9
9
-216
-580
-867
-960
-939
-957
-1061
-1161
-1146
-1002
-811
-668
-608
-604
-606
-563
-456
-313
-178
-66
49
170
236
179
7
-162
-219
-166
-63
87
374
858
1458
1984
2326
2552
2807
3107
3297
3210
2875
2524
2379
2443
2516
2416
2166
1965
1964
2115
2220
2142
1930
1742
1694
1766
1872
1966
2069
2198
2334
2451
2548
2641
2711
2702
2588
2399
2198
2030
1899
1798
1738
1750
1855
2042
2276
2502
2666
2749
2778
2794
2797
2740
2599
2427
2314
2273
2217
2043
1770
1538
1470
1539
1594
1512
1315
1138
1103
1201
1291
1263
1196
1305
1752
2446
3062
3310
3180
2907
2689
2468
2006
1199
289
-270
-164
551
1544
2544
3534
4651
5934
7182
8060
8354
8124
7631
7122
6659
6114
5332
4327
3299
2433
1718
1011
302
-156
-64
562
1307
1702
1662
1473
1373
1224
668
-458
-1919
-3262
-4156
-4543
-4559
-4393
-4193
-4030
-3867
-3605
-3219
-2849
-2697
-2866
-3251
-3631
-3842
-3872
-3818
-3781
-3797
-3824
-3797
-3692
-3534
-3346
-3116
-2840
-2590
-2466
-2458
-2384
-2061
-1547
-1138
-1081
-1290
-1422
-1287
-1084
-1210
-1846
-2776
-3599
-4072
-4236
-4237
-4141
-3925
-3597
-3231
-2893
-2568
-2239
-1964
-1902
-2134
-2503
-2732
-2678
-2460
-2299
-2243
-2139
-1870
-1547
-1367
-1330
-1181
-680
123
925
1467
1722
1802
1791
1699
1508
1207
779
224
-360
-766
-802
-459
78
568
872
988
1013
1065
1185
1312
1316
1086
685
355
333
650
1085
1345
1322
1172
1133
1288
1504
1624
1680
1855
2233
2652
2850
2748
2525
2403
2380
2238
1807
1182
635
350
296
331
372
449
600
795
982
1149
1319
1449
1437
1216
867
586
506
563
577
437
229
133
229
403
454
288
34
-25
299
918
1530
1854
1860
1744
1695
1679
1476
897
-9
-949
-1556
-1585
-1035
-126
873
1831
2810
3915
5099
6101
6627
6593
6171
5624
5091
4561
3999
3438
2967
2625
2360
2103
1855
1677
1592
1519
1305
873
348
-18
-71
83
167
15
-254
-372
-224
17
65
-201
-651
-1078
-1404
-1681
-1958
-2210
-2403
-2557
-2712
-2835
-2826
-2628
-2319
-2051
-1897
-1803
-1661
-1412
-1099
-823
-681
-730
-966
-1324
-1679
-1926
-2038
-2078
-2120
-2150
-2084
-1871
-1586
-1385
-1359
-1463
-1595
-1729
-1926
-2217
-2521
-2696
-2699
-2622
-2591
-2617
-2588
-2412
-2139
-1906
-1800
-1802
-1838
-1893
-2020
-2268
-2607
-2949
-3208
-3338
-3319
-3138
-2800
-2344
-1839
-1354
-943
-641
-466
-411
-453
-563
-702
-800
-780
-603
-320
-44
139
247
360
518
655
658
490
233
16
-99
-143
-185
-244
-282
-255
-187
-133
-104
-28
185
509
763
739
391
-93
-449
-566
-563
-622
-780
-884
-760
-386
80
433
556
480
312
149
7
-158
-378
-610
-769
-805
-753
-663
-533
-326
-64
125
117
-55
-199
-143
93
329
435
489
671
1053
1487
1721
1653
1429
1287
1300
1268
934
290
-350
-646
-592
-518
-670
-868
-650
213
1427
2468
3123
3654
4415
5376
6102
6173
5579
4698
3926
3380
2913
2353
1716
1210
1045
1226
1530
1655
1425
882
197
-470
-1022
-1421
-1658
-1747
-1712
-1561
-1284
-912
-553
-342
-343
-502
-705
-861
-943
-940
-849
-707
-604
-630
-786
-979
-1121
-1227
-1409
-1738
-2143
-2445
-2523
-2411
-2235
-2094
-1988
-1886
-1808
-1836
-2022
-2321
-2606
-2779
-2826
-2799
-2740
-2647
-2502
-2320
-2153
-2052
-2016
-2011
-2014
-2039
-2110
-2219
-2326
-2396
-2440
-2498
-2593
-2690
-2732
-2698
-2637
-2628
-2700
-2779
-2743
-2569
-2423
-2540
-2996
-3564
-3874
-3736
-3317
-2952
-2782
-2627
-2197
-1412
-497
201
467
320
-33
-344
-469
-447
-422
-505
-653
-727
-664
-542
-462
-437
-410
-369
-390
-515
-645
-632
-446
-232
-164
-271
-439
-550
-588
-613
-653
-679
-661
-634
-667
-776
-888
-898
-782
-636
-562
-550
-479
-258
56
303
377
322
244
188
118
2
-117
-162
-124
-70
-70
-128
-174
-144
-53
22
4
-111
-238
-285
-236
-179
-213
-362
-540
-644
-653
-632
-641
-677
-709
-745
-842
-1020
-1219
-1376
-1499
-1623
-1690
-1515
-951
-64
904
1764
2546
3383
4277
5026
5399
5329
4929
4364
3746
3138
2575
2046
1509
954
473
198
162
231
207
-2
-333
-656
-903
-1103
-1326
-1597
-1878
-2102
-2227
-2249
-2197
-2111
-2028
-1982
-1985
-2030
-2082
-2109
-2077
-1975
-1821
-1671
-1569
-1496
-1385
-1207
-1037
-1004
-1143
-1329
-1393
-1302
-1189
-1202
-1341
-1470
-1498
-1487
-1579
-1818
-2091
-2252
-2278
-2278
-2353
-2469
-2515
-2441
-2338
-2347
-2508
-2727
-2878
-2924
-2916
-2916
-2944
-2983
-3010
-3001
-2951
-2887
-2871
-2944
-3063
-3123
-3058
-2914
-2785
-2706
-2619
-2444
-2167
-1827
-1496
-1270
-1232
-1386
-1614
-1768
-1818
-1881
-2061
-2290
-2392
-2273
-2007
-1696
-1335
-870
-360
13
138
110
113
193
211
33
-304
-631
-850
-996
-1139
-1278
-1343
-1304
-1201
-1078
-909
-635
-259
122
373
424
323
198
155
198
260
290
318
421
617
825
940
953
970
1056
1129
1044
813
665
825
1243
1607
1656
1441
1234
1189
1167
924
397
-215
-664
-851
-839
-720
-525
-266
4
184
236
221
231
278
276
127
-173
-518
-770
-869
-861
-867
-980
-1157
-1201
-883
-132
876
1869
2715
3501
4359
5226
5847
6017
5742
5195
4536
3824
3083
2353
1660
984
311
-291
-706
-891
-963
-1100
-1354
-1614
-1741
-1736
-1746
-1914
-2236
-2575
-2801
-2906
-2964
-3015
-3011
-2888
-2665
-2444
-2311
-2263
-2242
-2232
-2288
-2457
-2708
-2936
-3068
-3129
-3205
-3342
-3501
-3602
-3618
-3607
-3643
-3731
-3795
-3743
-3569
-3373
-3267
-3271
-3317
-3333
-3342
-3433
-3650
-3924
-4138
-4236
-4262
-4279
-4308
-4346
-4408
-4513
-4650
-4779
-4894
-5026
-5174
-5249
-5159
-4925
-4685
-4535
-4425
-4250
-4020
-3882
-3945
-4144
-4301
-4318
-4242
-4151
-4034
-3831
-3548
-3270
-3051
-2853
-2632
-2435
-2355
-2406
-2465
-2412
-2258
-2118
-2054
-2012
-1906
-1758
-1690
-1778
-1946
-2035
-1967
-1816
-1717
-1713
-1729
-1676
-1549
-1414
-1328
-1299
-1330
-1443
-1625
-1772
-1755
-1549
-1289
-1147
-1148
-1164
-1075
-902
-774
-781
-888
-1007
-1095
-1145
-1130
-1006
-780
-549
-404
-339
-274
-165
-65
-56
-148
-263
-310
-281
-243
-247
-260
-210
-79
55
86
-3
-115
-150
-107
-71
-91
-119
-72
70
218
274
232
164
119
60
-91
-347
-611
-773
-834
-878
-918
-779
-221
818
2124
3388
4492
5540
6638
7655
8297
8361
7917
7210
6430
5622
4769
3889
3071
2407
1946
1668
1512
1402
1258
1028
694
278
-153
-513
-751
-905
-1063
-1268
-1473
-1586
-1570
-1478
-1394
-1371
-1402
-1442
-1445
-1394
-1323
-1308
-1413
-1629
-1853
-1955
-1871
-1642
-1373
-1152
-1008
-931
-890
-864
-855
-885
-963
-1060
-1114
-1076
-965
-853
-797
-816
-901
-1047
-1276
-1597
-1950
-2231
-2372
-2386
-2355
-2336
-2321
-2255
-2118
-1948
-1808
-1719
-1655
-1586
-1500
-1390
-1232
-1023
-840
-802
-976
-1297
-1563
-1599
-1387
-1077
-833
-671
-468
-107
370
784
983
979
896
836
798
749
701
719
829
981
1094
1127
1097
1059
1070
1164
1302
1366
1259
1020
818
807
977
1174
1271
1298
1387
1607
1906
2173
2340
2391
2323
2122
1799
1407
1040
809
785
960
1243
1533
1803
2112
2508
2908
3147
3142
2972
2785
2633
2453
2212
2012
2001
2193
2419
2507
2457
2433
2555
2760
2867
2765
2516
2282
2181
2203
2266
2279
2213
2109
2043
2051
2106
2138
2113
2069
2060
2049
1903
1542
1094
818
845
1025
1103
1059
1204
1865
3020
4302
5379
6267
7216
8320
9344
9960
10065
9823
9432
8922
8207
7277
6280
5404
4736
4245
3852
3523
3265
3065
2882
2663
2363
1994
1602
1228
871
520
207
8
-45
-22
-47
-175
-323
-365
-259
-89
28
53
51
115
296
583
908
1175
1303
1304
1287
1360
1531
1687
1702
1560
1359
1216
1160
1121
997
755
467
251
158
123
25
-178
-399
-514
-512
-520
-644
-841
-965
-935
-836
-825
-966
-1180
-1334
-1386
-1400
-1440
-1486
-1456
-1306
-1085
-882
-736
-600
-402
-135
112
231
186
53
-46
-48
15
70
88
108
189
354
573
784
932
991
980
956
978
1066
1193
1330
1478
1650
1828
1972
2055
2102
2147
2181
2157
2044
1863
1677
1575
1649
1945
2392
2801
2998
2987
2951
3040
3171
3097
2678
2045
1469
1111
934
834
798
870
1035
1198
1283
1335
1439
1602
1707
1635
1402
1161
1073
1179
1385
1562
1641
1635
1589
1531
1452
1335
1189
1047
924
789
604
369
149
14
-74
-218
-448
-631
-576
-248
146
328
218
-11
-147
-176
-310
-735
-1371
-1866
-1872
-1328
-484
355
1114
1941
2950
3994
4761
5077
5052
4912
4749
4471
4012
3465
2966
2517
1994
1345
682
188
-89
-263
-455
-668
-826
-883
-882
-914
-1053
-1322
-1703
-2131
-2491
-2678
-2687
-2618
-2580
-2575
-2519
-2372
-2228
-2228
-2388
-2561
-2599
-2512
-2422
-2379
-2277
-1997
-1595
-1275
-1190
-1291
-1404
-1417
-1374
-1394
-1504
-1619
-1646
-1598
-1600
-1771
-2080
-2364
-2470
-2393
-2256
-2153
-2035
-1780
-1361
-921
-661
-673
-899
-1205
-1499
-1762
-2011
-2248
-2428
-2459
-2276
-1912
-1507
-1220
-1110
-1128
-1203
-1301
-1414
-1521
-1585
-1606
-1610
-1572
-1426
-1159
-879
-752
-824
-954
-974
-862
-728
-632
-496
-193
294
837
1281
1562
1687
1683
1590
1453
1289
1051
668
187
-209
-341
-195
58
230
292
357
522
762
970
1078
1094
1051
968
874
840
913
1050
1121
1045
890
820
911
1045
1010
738
421
372
733
1327
1811
1972
1909
1892
2073
2329
2389
2111
1598
1085
733
552
470
432
424
428
418
390
380
408
440
435
394
378
459
625
803
948
1074
1200
1260
1134
783
327
-67
-339
-539
-646
-485
117
1113
2260
3374
4501
5755
7044
8041
8454
8279
7742
7054
6259
5336
4334
3381
2586
1991
1607
1432
1416
1445
1395
1244
1069
936
831
695
508
306
129
-40
-242
-477
-677
-766
-730
-614
-464
-278
-28
271
527
616
474
154
-194
-434
-537
-580
-637
-675
-579
-278
152
528
714
721
663
620
564
415
146
-188
-489
-687
-770
-766
-721
-676
-647
-611
-538
-438
-369
-389
-496
-643
-807
-1013
-1286
-1588
-1813
-1873
-1776
-1604
-1445
-1338
-1262
-1186
-1107
-1062
-1113
-1293
-1563
-1807
-1893
-1756
-1429
-1020
-633
-297
37
442
916
1349
1592
1581
1378
1108
870
706
630
623
627
565
420
305
390
733
1201
1571
1707
1664
1624
1724
1928
2036
1844
1341
765
445
530
894
1281
1570
1860
2311
2919
3484
3775
3723
3442
3117
2868
2700
2555
2398
2271
2270
2437
2678
2809
2726
2518
2390
2448
2567
2501
2145
1659
1349
1395
1703
2030
2213
2296
2455
2811
3309
3753
3943
3813
3467
3103
2872
2775
2719
2624
2515
2491
2609
2821
2991
3007
2850
2583
2288
2003
1742
1576
1657
2123
2960
3969
4923
5755
6568
7437
8257
8785
8851
8507
7974
7435
6908
6280
5448
4461
3536
2930
2752
2859
2975
2898
2652
2411
2294
2252
2144
1880
1495
1103
805
640
595
638
737
859
977
1070
1136
1191
1248
1300
1325
1307
1265
1246
1285
1367
1430
1419
1326
1202
1103
1043
994
933
883
888
953
1014
998
907
827
842
942
1044
1090
1106
1153
1230
1262
1183
1014
836
707
620
543
472
439
462
521
586
644
700
748
758
709
626
576
606
693
758
749
697
679
728
793
806
788
848
1066
1388
1666
1795
1803
1798
1841
1897
1883
1769
1603
1473
1444
1525
1685
1873
2048
2188
2296
2387
2477
2567
2640
2685
2707
2729
2771
2827
2872
2890
2888
2879
2870
2861
2872
2930
3039
3170
3282
3358
3402
3407
3357
3270
3209
3217
3267
3285
3228
3133
3078
3119
3250
3419
3544
3556
3467
3386
3426
3579
3712
3720
3659
3671
3802
3941
3952
3843
3739
3712
3713
3645
3500
3356
3291
3312
3374
3449
3535
3633
3733
3822
3869
3806
3557
3104
2536
1988
1528
1133
802
679
983
1777
2862
3937
4889
5839
6907
7968
8702
8897
8622
8117
7557
6974
6351
5702
5066
4477
4000
3718
3636
3622
3483
3157
2766
2453
2202
1890
1451
960
522
159
-156
-387
-430
-266
-14
178
308
488
771
1062
1216
1202
1129
1103
1118
1110
1061
1014
998
1000
997
995
1013
1040
1052
1043
1042
1069
1092
1050
931
791
685
607
498
337
179
118
204
406
649
865
991
974
811
573
351
154
-112
-517
-974
-1271
-1266
-1041
-816
-725
-708
-607
-359
-62
134
179
154
157
204
249
265
298
403
574
733
817
857
936
1085
1239
1320
1333
1356
1450
1582
1674
1683
1643
1616
1633
1671
1693
1681
1648
1627
1633
1645
1631
1596
1586
1638
1708
1702
1581
1435
1413
1555
1735
1783
1676
1557
1583
1768
1986
2112
2137
2138
2185
2293
2441
2590
2696
2722
2675
2614
2595
2623
2651
2636
2580
2507
2439
2387
2367
2398
2449
2447
2346
2198
2128
2190
2293
2273
2085
1877
1836
1979
2125
2105
1947
1839
1924
2129
2251
2183
2013
1892
1858
1783
1532
1137
763
516
360
236
241
591
1386
2457
3532
4542
5656
6998
8371
9350
9658
9377
8789
8075
7219
6169
4988
3852
2934
2333
2047
1991
2034
2045
1963
1792
1535
1182
759
327
-72
-461
-865
-1220
-1399
-1353
-1209
-1155
-1264
-1422
-1468
-1360
-1193
-1082
-1039
-979
-817
-548
-258
-74
-81
-261
-502
-682
-768
-829
-947
-1118
-1241
-1232
-1120
-1028
-1057
-1187
-1310
-1354
-1346
-1378
-1490
-1637
-1753
-1829
-1920
-2062
-2226
-2352
-2433
-2522
-2648
-2770
-2827
-2811
-2781
-2780
-2773
-2701
-2565
-2448
-2420
-2461
-2500
-2492
-2456
-2420
-2379
-2306
-2196
-2052
-1846
-1541
-1162
-823
-636
-601
-582
-459
-243
-51
24
5
0
96
283
481
602
627
613
638
708
767
775
768
825
959
1084
1107
1037
970
952
927
822
669
584
629
748
843
907
1016
1205
1388
1446
1355
1207
1109
1071
1034
967
910
928
1026
1134
1176
1153
1130
1170
1263
1339
1351
1343
1405
1578
1812
2006
2100
2099
2043
1957
1852
1738
1630
1531
1435
1349
1294
1292
1331
1383
1422
1425
1380
1296
1214
1179
1208
1254
1228
1061
760
409
93
-173
-451
-755
-916
-639
248
1604
3072
4405
5646
6954
8294
9374
9890
9783
9225
8410
7435
6373
5335
4429
3671
3013
2461
2103
1994
2031
1988
1705
1214
678
248
-49
-279
-504
-720
-881
-971
-1004
-985
-894
-720
-509
-353
-309
-342
-365
-336
-288
-294
-376
-491
-583
-631
-663
-725
-832
-960
-1080
-1179
-1271
-1369
-1443
-1445
-1369
-1301
-1364
-1626
-2042
-2481
-2817
-3001
-3058
-3040
-2979
-2851
-2597
-2191
-1686
-1212
-910
-849
-998
-1257
-1517
-1715
-1854
-1988
-2163
-2374
-2570
-2696
-2706
-2588
-2369
-2114
-1920
-1870
-1932
-1957
-1790
-1422
-1017
-772
-759
-913
-1157
-1471
-1832
-2130
-2232
-2111
-1884
-1648
-1333
-759
114
1084
1860
2306
2502
2580
2559
2370
2020
1636
1349
1182
1081
1046
1175
1536
2011
2344
2372
2145
1823
1487
1099
656
319
276
522
845
1058
1193
1403
1688
1845
1702
1345
1042
948
983
981
932
1010
1375
1962
2508
2760
2670
2404
2183
2083
2022
1886
1687
1556
1596
1782
1986
2101
2097
1990
1795
1534
1258
1036
915
908
1009
1180
1357
1492
1563
1588
1603
1612
1569
1409
1111
733
382
123
-87
-317
-497
-391
211
1257
2451
3540
4553
5685
6949
8059
8665
8696
8374
7945
7442
6764
5889
4950
4103
3405
2847
2433
2192
2076
1940
1673
1319
1012
832
713
517
191
-175
-455
-613
-711
-812
-911
-965
-974
-992
-1072
-1200
-1298
-1305
-1246
-1209
-1246
-1288
-1214
-1015
-858
-953
-1313
-1685
-1783
-1586
-1359
-1358
-1562
-1696
-1537
-1165
-870
-858
-1062
-1237
-1229
-1131
-1163
-1421
-1760
-1956
-1933
-1841
-1863
-2011
-2134
-2128
-2060
-2090
-2260
-2433
-2463
-2351
-2243
-2253
-2355
-2433
-2420
-2360
-2357
-2452
-2580
-2634
-2568
-2455
-2397
-2419
-2436
-2349
-2151
-1934
-1779
-1683
-1579
-1437
-1292
-1194
-1154
-1129
-1071
-959
-823
-715
-677
-698
-712
-648
-476
-235
3
174
241
199
79
-64
-210
-380
-604
-863
-1080
-1198
-1203
-1120
-966
-762
-572
-486
-532
-631
-683
-681
-714
-846
-1017
-1070
-895
-542
-195
-15
-14
-64
-46
-3
-81
-342
-641
-760
-636
-415
-270
-201
-87
120
311
353
245
65
-182
-571
-1093
-1548
-1680
-1438
-1038
-738
-587
-422
-81
399
800
941
849
692
587
491
291
-16
-296
-441
-499
-597
-713
-609
-54
902
1950
2838
3602
4439
5399
6249
6691
6646
6271
5753
5150
4451
3717
3072
2593
2239
1941
1706
1596
1611
1635
1558
1375
1184
1074
1041
1007
908
734
504
244
-3
-180
-267
-330
-469
-681
-798
-655
-311
-54
-128
-443
-653
-535
-246
-142
-376
-748
-966
-961
-899
-916
-966
-952
-900
-921
-1029
-1100
-1029
-892
-862
-1026
-1297
-1534
-1678
-1763
-1835
-1908
-1977
-2041
-2087
-2069
-1930
-1689
-1455
-1362
-1477
-1725
-1953
-2063
-2100
-2176
-2322
-2422
-2313
-1962
-1526
-1219
-1152
-1299
-1569
-1878
-2176
-2437
-2657
-2839
-2949
-2899
-2601
-2079
-1485
-996
-683
-517
-448
-463
-551
-651
-684
-643
-577
-522
-451
-305
-101
60
87
2
-93
-113
-47
77
236
422
606
734
785
791
801
835
861
850
811
791
818
867
877
800
641
451
308
264
312
399
475
541
638
802
1012
1192
1255
1153
898
558
237
27
-33
26
141
288
494
772
1064
1254
1265
1127
953
827
747
669
596
594
706
893
1048
1080
1003
906
849
780
575
183
-290
-645
-777
-767
-737
-654
-333
319
1139
1840
2338
2858
3670
4737
5693
6191
6223
6069
5965
5890
5662
5154
4389
3466
2498
1627
1031
822
894
971
851
601
480
639
936
1047
771
191
-441
-932
-1243
-1409
-1451
-1395
-1295
-1227
-1219
-1217
-1156
-1037
-943
-952
-1059
-1171
-1203
-1144
-1048
-948
-842
-749
-732
-841
-1003
-1047
-897
-691
-650
-826
-1027
-1037
-858
-716
-814
-1134
-1494
-1750
-1900
-2016
-2150
-2295
-2423
-2504
-2507
-2412
-2250
-2093
-2005
-1991
-2008
-2018
-2023
-2038
-2065
-2085
-2098
-2129
-2195
-2268
-2296
-2248
-2143
-1996
-1787
-1511
-1252
-1136
-1197
-1308
-1298
-1144
-1011
-1066
-1284
-1471
-1461
-1171
-995
-782
-640
-537
-441
-327
-179
-13
119
174
160
134
134
156
175
186
187
156
65
-71
-179
-198
-132
-43
14
33
38
36
25
17
34
85
138
158
139
107
81
65
62
76
106
133
141
152
212
329
445
482
423
330
276
269
257
197
114
65
90
171
267
347
405
444
466
480
495
517
537
553
578
623
675
697
671
597
469
275
24
-222
-391
-467
-483
-409
-106
558
1539
2612
3559
4360
5145
5974
6707
7106
7035
6561
5885
5196
4579
4004
3389
2703
2042
1577
1394
1399
1377
1170
804
430
156
-36
-239
-511
-823
-1094
-1254
-1294
-1267
-1243
-1257
-1295
-1302
-1243
-1138
-1055
-1051
-1116
-1177
-1164
-1089
-1034
-1080
-1219
-1358
-1417
-1395
-1366
-1398
-1487
-1573
-1594
-1539
-1444
-1362
-1339
-1401
-1543
-1717
-1850
-1902
-1892
-1878
-1897
-1941
-1969
-1951
-1893
-1831
-1815
-1883
-2051
-2283
-2493
-2584
-2508
-2312
-2099
-1966
-1935
-1950
-1933
-1858
-1784
-1804
-1950
-2149
-2283
-2292
-2216
-2134
-2072
-1990
-1859
-1714
-1612
-1554
-1471
-1309
-1114
-997
-1014
-1108
-1162
-1114
-1005
-920
-922
-1001
-1092
-1125
-1064
-948
-855
-821
-792
-672
-438
-190
-47
-26
-40
-5
67
90
-3
-186
-364
-441
-385
-245
-107
-18
52
159
304
419
447
405
361
354
357
348
373
495
686
820
813
725
708
835
1013
1090
1026
928
921
992
1029
967
875
866
959
1058
1070
1010
964
970
984
945
857
763
684
635
653
754
886
955
914
814
721
629
479
255
10
-205
-351
-329
18
774
1800
2831
3726
4575
5522
6506
7260
7555
7389
6932
6338
5666
4936
4186
3452
2737
2071
1529
1175
974
800
539
193
-156
-468
-766
-1068
-1333
-1499
-1569
-1619
-1708
-1799
-1805
-1712
-1621
-1651
-1803
-1957
-2005
-1960
-1906
-1895
-1887
-1821
-1694
-1554
-1447
-1387
-1390
-1483
-1679
-1935
-2164
-2300
-2344
-2358
-2390
-2424
-2410
-2334
-2245
-2202
-2212
-2235
-2248
-2291
-2426
-2640
-2845
-2959
-3005
-3093
-3305
-3611
-3904
-4090
-4169
-4191
-4188
-4146
-4045
-3899
-3737
-3560
-3351
-3127
-2958
-2913
-2986
-3078
-3077
-2961
-2806
-2686
-2595
-2463
-2255
-2022
-1852
-1783
-1772
-1760
-1736
-1731
-1742
-1713
-1594
-1404
-1220
-1092
-994
-868
-713
-594
-579
-672
-802
-881
-862
-775
-687
-649
-654
-661
-646
-612
-579
-553
-533
-548
-634
-768
-854
-820
-709
-653
-728
-865
-924
-846
-695
-580
-522
-470
-394
-334
-345
-408
-447
-406
-317
-258
-279
-360
-444
-497
-515
-523
-540
-565
-582
-574
-545
-525
-536
-564
-562
-501
-416
-365
-360
-351
-285
-176
-92
-60
-57
-62
-90
-181
-341
-531
-724
-929
-1157
-1391
-1581
-1667
-1569
-1192
-493
443
1439
2367
3256
4217
5238
6106
6547
6455
5954
5252
4471
3623
2719
1841
1094
549
207
41
33
125
192
114
-138
-498
-879
-1268
-1707
-2181
-2569
-2749
-2717
-2607
-2558
-2576
-2539
-2363
-2130
-2037
-2203
-2534
-2817
-2925
-2922
-2952
-3043
-3079
-2961
-2748
-2580
-2517
-2493
-2434
-2378
-2413
-2542
-2671
-2727
-2748
-2822
-2964
-3093
-3136
-3126
-3145
-3228
-3320
-3341
-3293
-3260
-3331
-3519
-3743
-3899
-3937
-3900
-3864
-3863
-3882
-3892
-3886
-3871
-3863
-3887
-3977
-4132
-4278
-4310
-4186
-3986
-3841
-3810
-3828
-3786
-3646
-3472
-3349
-3294
-3255
-3165
-3002
-2784
-2533
-2246
-1935
-1636
-1402
-1262
-1186
-1109
-1003
-904
-848
-821
-772
-671
-540
-415
-301
-194
-116
-112
-176
-234
-221
-174
-200
-331
-459
-464
-377
-367
-528
-730
-743
-497
-180
-40
-120
-243
-237
-116
-29
-69
-185
-277
-323
-359
-395
-394
-327
-232
-183
-205
-262
-292
-258
-165
-47
40
55
8
-39
-38
-4
-7
-88
-234
-401
-541
-615
-591
-477
-328
-222
-179
-151
-104
-71
-121
-266
-453
-637
-828
-1045
-1240
-1337
-1329
-1278
-1178
-875
-177
914
2158
3279
4224
5155
6188
7169
7756
7700
7074
6204
5391
4714
4050
3274
2428
1698
1263
1134
1170
1168
976
566
41
-446
-777
-951
-1072
-1237
-1420
-1506
-1422
-1215
-1017
-911
-881
-878
-884
-921
-987
-1043
-1061
-1076
-1150
-1310
-1522
-1711
-1831
-1880
-1887
-1874
-1840
-1770
-1652
-1497
-1336
-1206
-1137
-1140
-1220
-1365
-1541
-1709
-1836
-1913
-1946
-1955
-1961
-1984
-2043
-2132
-2226
-2318
-2422
-2562
-2735
-2897
-3008
-3071
-3119
-3179
-3244
-3288
-3311
-3327
-3343
-3349
-3330
-3289
-3257
-3254
-3270
-3276
-3255
-3210
-3153
-3088
-3014
-2936
-2849
-2744
-2602
-2426
-2258
-2143
-2090
-2059
-2010
-1951
-1929
-1970
-2034
-2060
-2021
-1949
-1882
-1825
-1759
-1676
-1585
-1504
-1433
-1367
-1296
-1213
-1136
-1102
-1141
-1241
-1327
-1348
-1332
-1364
-1475
-1606
-1672
-1673
-1698
-1813
-1991
-2134
-2197
-2211
-2218
-2202
-2115
-1944
-1750
-1606
-1537
-1508
-1486
-1483
-1541
-1672
-1829
-1945
-1990
-1975
-1926
-1845
-1711
-1526
-1345
-1239
-1234
-1293
-1346
-1374
-1422
-1550
-1749
-1941
-2041
-2074
-2154
-2341
-2557
-2668
-2634
-2556
-2549
-2627
-2737
-2867
-3068
-3357
-3669
-3907
-4016
-3952
-3625
-2950
-1963
-827
294
1379
2469
3491
4219
4470
4268
3812
3269
2656
1927
1125
396
-146
-500
-769
-1035
-1303
-1563
-1839
-2169
-2554
-2934
-3235
-3423
-3524
-3577
-3593
-3564
-3490
-3383
-3273
-3201
-3211
-3307
-3434
-3515
-3516
-3488
-3495
-3535
-3548
-3500
-3435
-3430
-3509
-3628
-3742
-3856
-3985
-4086
-4081
-3945
-3758
-3638
-3643
-3746
-3909
-4144
-4453
-4757
-4919
-4875
-4709
-4559
-4422
-4110
-3438
-2467
-1541
-1043
-1081
-1431
-1761
-1920
-2030
-2334
-2943
-3721
-4394
-4750
-4775
-4631
-4525
-4548
-4635
-4641
-4485
-4209
-3931
-3730
-3589
-3449
-3299
-3186
-3155
-3169
-3130
-2978
-2742
-2496
-2296
-2135
-1972
-1764
-1494
-1197
-974
-939
-1092
-1254
-1175
-776
-246
119
192
114
100
186
185
-93
-627
-1187
-1547
-1651
-1615
-1558
-1474
-1278
-962
-686
-690
-1060
-1619
-2057
-2195
-2117
-2026
-1988
-1860
-1461
-790
-59
466
653
568
387
272
265
278
203
23
-153
-217
-182
-178
-294
-485
-634
-690
-700
-736
-807
-868
-891
-886
-873
-873
-914
-1030
-1207
-1346
-1337
-1145
-838
-546
-363
-301
-322
-397
-536
-753
-1016
-1259
-1431
-1524
-1511
-1302
-796
-11
882
1707
2455
3248
4139
4979
5543
5730
5625
5350
4951
4430
3836
3239
2657
2061
1475
1007
739
636
539
314
-46
-453
-811
-1057
-1166
-1162
-1107
-1052
-1000
-925
-806
-658
-521
-443
-453
-517
-537
-431
-229
-81
-125
-338
-575
-751
-948
-1296
-1782
-2229
-2471
-2522
-2515
-2526
-2497
-2340
-2072
-1791
-1591
-1481
-1432
-1435
-1491
-1568
-1598
-1535
-1421
-1347
-1360
-1422
-1461
-1459
-1479
-1589
-1802
-2090
-2425
-2754
-2933
-2786
-2307
-1737
-1384
-1303
-1257
-1009
-655
-546
-878
-1449
-1865
-1946
-1869
-1893
-2051
-2167
-2106
-1942
-1852
-1905
-2005
-2009
-1865
-1639
-1425
-1255
-1082
-826
-461
-62
230
324
268
206
239
357
484
567
582
494
283
27
-113
-43
135
232
222
296
586
900
863
332
-389
-852
-919
-841
-882
-966
-780
-183
583
1113
1225
1089
1007
1102
1215
1112
746
317
97
178
397
530
510
451
470
534
512
351
137
-17
-94
-147
-206
-250
-283
-380
-607
-904
-1104
-1091
-905
-692
-546
-421
-233
-7
124
69
-112
-290
-418
-574
-819
-1080
-1222
-1211
-1131
-1012
-740
-179
613
1400
2004
2492
3051
3709
4252
4421
4162
3654
3102
2591
2088
1542
937
312
-229
-531
-500
-228
6
-66
-478
-1012
-1402
-1566
-1637
-1786
-2036
-2243
-2251
-2044
-1748
-1526
-1465
-1542
-1676
-1798
-1876
-1927
-1994
-2104
-2233
-2325
-2337
-2279
-2201
-2146
-2132
-2153
-2172
-2147
-2075
-1993
-1942
-1914
-1856
-1763
-1723
-1835
-2071
-2257
-2238
-2048
-1884
-1897
-2039
-2133
-2084
-1976
-1964
-2115
-2362
-2589
-2737
-2810
-2833
-2819
-2778
-2731
-2688
-2643
-2595
-2554
-2538
-2544
-2551
-2545
-2530
-2516
-2485
-2404
-2260
-2088
-1940
-1844
-1785
-1737
-1683
-1625
-1572
-1534
-1517
-1509
-1475
-1381
-1242
-1109
-1024
-974
-921
-868
-865
-952
-1091
-1187
-1181
-1108
-1045
-1019
-969
-834
-642
-490
-440
-459
-475
-467
-474
-529
-602
-647
-665
-702
-760
-775
-686
-524
-392
-348
-355
-344
-311
-312
-382
-489
-578
-648
-728
-815
-854
-792
-637
-456
-306
-211
-155
-134
-137
-141
-131
-114
-96
-52
41
163
231
184
64
-18
6
83
120
102
106
193
340
466
509
472
396
346
355
375
283
-6
-420
-749
-847
-777
-678
-528
-106
742
1874
2964
3824
4547
5271
5905
6186
5990
5471
4877
4298
3666
2970
2350
1957
1787
1688
1536
1342
1157
948
610
87
-531
-1055
-1365
-1515
-1663
-1918
-2223
-2408
-2371
-2179
-2004
-1974
-2078
-2216
-2317
-2402
-2536
-2744
-2964
-3088
-3047
-2856
-2599
-2338
-2068
-1757
-1426
-1165
-1044
-1031
-1038
-1032
-1090
-1289
-1605
-1916
-2119
-2193
-2178
-2112
-2026
-1978
-2014
-2114
-2192
-2205
-2213
-2329
-2576
-2844
-3002
-3007
-2924
-2840
-2788
-2770
-2772
-2767
-2718
-2607
-2490
-2460
-2542
-2650
-2666
-2551
-2363
-2180
-2030
-1909
-1834
-1822
-1845
-1828
-1708
-1493
-1256
-1060
-911
-768
-588
-380
-192
-75
-47
-79
-126
-166
-206
-252
-286
-295
-295
-320
-369
-385
-323
-212
-132
-130
-163
-149
-69
17
61
80
121
189
238
244
240
276
355
427
439
375
254
127
64
124
288
457
533
522
511
568
667
723
690
590
452
275
71
-83
-111
-38
8
-78
-251
-362
-308
-132
49
167
253
353
470
590
708
829
922
903
739
507
327
259
238
167
-1
-246
-535
-839
-1126
-1360
-1508
-1556
-1464
-1138
-482
499
1688
2937
4160
5322
6349
7096
7424
7303
6829
6150
5376
4542
3655
2751
1920
1293
956
877
909
880
695
399
90
-188
-473
-829
-1280
-1769
-2189
-2456
-2569
-2619
-2712
-2880
-3057
-3143
-3105
-3011
-2931
-2869
-2776
-2633
-2488
-2402
-2371
-2359
-2377
-2490
-2718
-2988
-3188
-3285
-3336
-3389
-3412
-3340
-3178
-3004
-2895
-2868
-2915
-3070
-3368
-3762
-4118
-4304
-4296
-4189
-4114
-4130
-4181
-4148
-3977
-3761
-3688
-3874
-4229
-4527
-4614
-4552
-4512
-4567
-4613
-4521
-4298
-4092
-4014
-4046
-4089
-4094
-4076
-4041
-3953
-3774
-3531
-3279
-3043
-2818
-2606
-2447
-2368
-2329
-2258
-2128
-1968
-1812
-1650
-1458
-1260
-1124
-1081
-1088
-1072
-1011
-944
-924
-957
-1000
-1009
-969
-901
-833
-772
-718
-658
-592
-531
-481
-425
-351
-282
-271
-358
-513
-662
-757
-817
-895
-999
-1075
-1062
-971
-872
-815
-777
-693
-547
-393
-287
-227
-140
18
205
333
360
338
352
427
476
395
183
-45
-160
-152
-142
-265
-495
-655
-599
-376
-214
-278
-497
-636
-562
-383
-301
-390
-532
-576
-505
-437
-488
-692
-1016
-1403
-1791
-2128
-2368
-2434
-2212
-1584
-542
755
2088
3364
4633
5915
7030
7671
7646
7054
6196
5334
4548
3786
2982
2162
1454
1009
888
997
1121
1028
634
32
-591
-1091
-1438
-1701
-1945
-2164
-2296
-2280
-2109
-1842
-1579
-1400
-1342
-1385
-1477
-1581
-1697
-1832
-1963
-2036
-2031
-1990
-1968
-1958
-1882
-1688
-1439
-1279
-1306
-1474
-1617
-1614
-1516
-1509
-1725
-2109
-2459
-2633
-2678
-2750
-2936
-3163
-3296
-3288
-3206
-3132
-3082
-3030
-2985
-2982
-3027
-3067
-3059
-3039
-3106
-3322
-3632
-3894
-3987
-3899
-3724
-3567
-3464
-3369
-3230
-3051
-2883
-2784
-2768
-2798
-2823
-2796
-2679
-2482
-2266
-2106
-2021
-1943
-1797
-1592
-1423
-1372
-1404
-1398
-1296
-1167
-1118
-1152
-1156
-1036
-832
-667
-599
-548
-414
-234
-156
-282
-553
-802
-925
-958
-1006
-1111
-1181
-1081
-751
-272
174
430
457
344
204
92
-16
-144
-252
-255
-84
245
647
1026
1314
1494
1592
1641
1637
1556
1414
1284
1229
1233
1230
1181
1107
1039
956
842
738
693
664
527
240
-53
-176
-132
-119
-287
-557
-734
-767
-811
-977
-1138
-1069
-729
-327
-93
-44
-17
105
270
342
240
-20
-337
-511
-306
402
1491
2671
3719
4653
5641
6724
7695
8233
8147
7505
6564
5588
4729
3983
3245
2430
1600
962
702
791
941
804
261
-478
-1078
-1388
-1562
-1880
-2444
-3064
-3437
-3419
-3120
-2761
-2483
-2296
-2154
-2032
-1941
-1894
-1895
-1972
-2141
-2362
-2537
-2583
-2505
-2400
-2350
-2363
-2390
-2397
-2406
-2451
-2518
-2559
-2555
-2563
-2673
-2916
-3239
-3533
-3732
-3856
-3995
-4205
-4425
-4509
-4355
-4044
-3815
-3863
-4150
-4448
-4595
-4678
-4926
-5437
-6022
-6388
-6424
-6273
-6137
-6072
-5982
-5788
-5533
-5310
-5153
-5041
-4952
-4894
-4844
-4746
-4575
-4364
-4151
-3911
-3598
-3256
-3043
-3067
-3251
-3404
-3431
-3419
-3493
-3649
-3748
-3682
-3481
-3244
-3018
-2811
-2649
-2594
-2647
-2706
-2653
-2490
-2355
-2372
-2483
-2459
-2105
-1477
-863
-558
-603
-803
-956
-1090
-1396
-1955
-2585
-3009
-3122
-3047
-2931
-2756
-2409
-1904
-1445
-1249
-1323
-1495
-1642
-1829
-2189
-2699
-3129
-3245
-3041
-2732
-2498
-2293
-1926
-1315
-628
-140
21
-50
-176
-296
-472
-778
-1198
-1643
-2017
-2260
-2343
-2267
-2071
-1823
-1587
-1382
-1189
-992
-804
-661
-584
-579
-645
-757
-871
-959
-1053
-1237
-1540
-1821
-1802
-1297
-395
622
1542
2405
3390
4529
5599
6287
6442
6157
5631
4986
4242
3384
2457
1570
829
293
-46
-234
-327
-382
-432
-495
-582
-725
-973
-1331
-1705
-1927
-1910
-1753
-1632
-1585
-1452
-1080
-548
-154
-133
-430
-795
-1041
-1167
-1259
-1330
-1314
-1185
-1021
-924
-931
-1009
-1138
-1356
-1703
-2136
-2517
-2708
-2686
-2549
-2446
-2460
-2567
-2682
-2736
-2750
-2803
-2922
-3003
-2868
-2458
-1921
-1498
-1278
-1130
-899
-679
-771
-1367
-2294
-3153
-3694
-4011
-4347
-4757
-5059
-5072
-4844
-4576
-4375
-4166
-3843
-3440
-3118
-2976
-2956
-2935
-2845
-2694
-2511
-2316
-2135
-1995
-1868
-1669
-1356
-1017
-804
-779
-842
-871
-862
-894
-968
-953
-718
-302
109
354
431
448
474
466
316
-40
-551
-1059
-1389
-1466
-1358
-1200
-1061
-903
-663
-361
-103
26
37
9
-3
2
6
18
59
132
216
282
330
374
435
522
636
770
905
1024
1123
1198
1251
1272
1246
1188
1134
1109
1099
1046
907
696
482
331
269
284
361
501
715
1013
1375
1749
2056
2198
2100
1771
1301
794
307
-153
-554
-817
-866
-719
-458
-107
434
1265
2318
3344
4136
4732
5338
6072
6798
7234
7214
6799
6188
5542
4923
4316
3681
2987
2256
1592
1140
994
1101
1267
1294
1119
841
626
550
527
385
32
-455
-913
-1244
-1460
-1613
-1710
-1729
-1691
-1647
-1610
-1530
-1365
-1167
-1060
-1106
-1226
-1274
-1193
-1059
-993
-1028
-1089
-1081
-986
-882
-851
-899
-965
-993
-1008
-1095
-1286
-1503
-1621
-1606
-1552
-1574
-1680
-1798
-1890
-2021
-2278
-2639
-2969
-3148
-3170
-3090
-2952
-2767
-2553
-2347
-2180
-2069
-2030
-2097
-2275
-2506
-2703
-2827
-2880
-2848
-2673
-2358
-2045
-1929
-2059
-2247
-2234
-1961
-1640
-1522
-1608
-1630
-1335
-743
-134
203
222
87
-19
-47
-58
-121
-248
-402
-542
-639
-672
-616
-463
-253
-59
55
95
135
242
379
413
234
-122
-487
-701
-728
-647
-542
-422
-254
-55
87
83
-65
-263
-414
-496
-575
-690
-777
-720
-468
-108
199
352
383
390
426
452
410
295
159
63
38
93
212
351
421
361
205
85
109
245
352
330
230
187
253
342
349
267
185
179
248
345
409
381
221
-54
-362
-621
-804
-893
-793
-348
502
1617
2771
3864
4957
6089
7106
7728
7791
7375
6717
5994
5248
4449
3598
2760
2048
1568
1344
1297
1275
1154
936
703
512
338
139
-82
-304
-564
-951
-1474
-1979
-2243
-2185
-1963
-1817
-1827
-1838
-1653
-1268
-879
-694
-738
-874
-959
-967
-963
-985
-1017
-1038
-1069
-1161
-1319
-1470
-1512
-1424
-1298
-1253
-1325
-1446
-1519
-1527
-1529
-1573
-1641
-1687
-1717
-1783
-1906
-2043
-2142
-2213
-2310
-2454
-2613
-2743
-2837
-2907
-2932
-2877
-2748
-2605
-2500
-2414
-2303
-2168
-2055
-1995
-1949
-1853
-1691
-1512
-1346
-1160
-917
-657
-488
-477
-550
-534
-326
5
279
380
361
369
496
690
821
812
703
612
640
805
1045
1268
1413
1482
1524
1588
1678
1752
1748
1623
1404
1190
1091
1141
1257
1317
1274
1186
1142
1146
1135
1065
960
855
777
763
875
1125
1398
1505
1365
1090
857
709
553
325
129
141
405
793
1154
1448
1711
1923
1991
1857
1577
1259
969
715
519
451
548
737
884
917
890
895
944
967
918
838
824
924
1088
1246
1366
1431
1376
1123
717
340
158
133
94
27
215
984
2296
3711
4801
5571
6381
7439
8479
8985
8694
7830
6862
6082
5452
4771
3930
3044
2355
2036
2040
2113
1996
1625
1163
812
623
488
295
55
-136
-205
-164
-81
-12
31
62
84
65
-43
-254
-517
-749
-920
-1071
-1263
-1488
-1671
-1738
-1689
-1575
-1454
-1354
-1283
-1239
-1207
-1157
-1089
-1055
-1131
-1334
-1589
-1765
-1801
-1754
-1725
-1760
-1815
-1850
-1896
-2024
-2251
-2502
-2706
-2886
-3111
-3374
-3558
-3552
-3386
-3215
-3168
-3239
-3334
-3409
-3507
-3688
-3936
-4138
-4160
-3943
-3537
-3065
-2629
-2239
-1836
-1406
-1034
-847
-872
-999
-1087
-1102
-1107
-1148
-1169
-1082
-892
-705
-607
-564
-473
-300
-126
-59
-116
-206
-235
-194
-152
-159
-191
-182
-99
23
114
134
106
76
51
-28
-210
-451
-608
-554
-313
-52
71
60
55
153
271
230
-45
-424
-691
-754
-704
-676
-691
-653
-494
-274
-114
-62
-61
-35
1
-23
-127
-241
-270
-194
-81
-6
31
75
155
239
268
218
117
15
-62
-133
-243
-418
-600
-687
-632
-513
-477
-612
-868
-1121
-1291
-1402
-1531
-1713
-1887
-1907
-1611
-907
149
1368
2553
3627
4631
5590
6417
6945
7065
6779
6183
5392
4523
3688
2943
2267
1623
1047
644
476
460
413
203
-154
-552
-911
-1223
-1515
-1795
-2027
-2164
-2179
-2087
-1939
-1793
-1685
-1627
-1617
-1651
-1731
-1850
-1997
-2149
-2272
-2324
-2295
-2205
-2093
-1994
-1931
-1923
-1977
-2065
-2128
-2122
-2076
-2085
-2196
-2353
-2444
-2421
-2369
-2409
-2581
-2808
-2977
-3040
-3046
-3075
-3174
-3312
-3413
-3425
-3361
-3299
-3306
-3378
-3450
-3465
-3426
-3383
-3371
-3376
-3374
-3363
-3354
-3340
-3288
-3185
-3074
-3026
-3061
-3110
-3066
-2901
-2679
-2485
-2337
-2182
-1976
-1730
-1492
-1287
-1115
-977
-888
-839
-780
-667
-522
-431
-453
-547
-601
-543
-410
-292
-225
-149
22
294
562
707
698
621
587
636
711
728
659
557
514
586
744
897
951
890
775
671
590
497
370
242
161
126
81
-6
-106
-158
-150
-128
-125
-94
28
237
424
488
442
394
406
417
323
122
-71
-145
-109
-69
-118
-258
-439
-607
-726
-762
-728
-692
-718
-755
-659
-366
-5
211
215
147
147
150
-35
-445
-868
-1061
-998
-813
-531
28
1029
2343
3632
4690
5610
6570
7517
8142
8171
7633
6811
5974
5181
4331
3324
2216
1216
572
388
521
662
576
289
10
-115
-171
-386
-885
-1558
-2162
-2537
-2688
-2708
-2655
-2527
-2309
-2019
-1715
-1455
-1308
-1351
-1627
-2090
-2600
-2983
-3129
-3061
-2889
-2703
-2510
-2243
-1858
-1429
-1139
-1144
-1441
-1864
-2243
-2557
-2916
-3382
-3828
-4021
-3846
-3444
-3064
-2823
-2640
-2397
-2119
-1959
-2030
-2303
-2672
-3054
-3400
-3648
-3744
-3702
-3614
-3546
-3460
-3268
-2969
-2673
-2517
-2552
-2749
-3044
-3345
-3539
-3527
-3308
-2991
-2692
-2433
-2161
-1834
-1495
-1224
-1070
-1038
-1113
-1272
-1456
-1562
-1513
-1317
-1071
-881
-774
-686
-530
-290
-43
83
30
-119
-195
-91
152
380
478
473
482
574
686
695
553
355
247
287
409
513
573
658
840
1115
1386
1523
1446
1166
793
461
256
159
105
64
66
151
319
527
730
862
825
539
51
-442
-725
-744
-630
-536
-470
-308
37
500
908
1124
1133
1011
833
631
422
266
229
316
462
584
660
737
842
892
745
327
-282
-908
-1427
-1827
-2132
-2285
-2129
-1525
-499
761
2053
3298
4528
5736
6760
7354
7373
6884
6094
5173
4173
3087
1958
921
122
-364
-567
-599
-598
-694
-950
-1331
-1751
-2160
-2591
-3115
-3716
-4252
-4561
-4617
-4531
-4430
-4336
-4205
-4045
-3936
-3943
-4046
-4194
-4390
-4673
-5010
-5282
-5392
-5374
-5345
-5365
-5382
-5323
-5202
-5081
-4998
-4949
-4947
-5027
-5176
-5295
-5279
-5144
-5029
-5040
-5131
-5162
-5075
-4963
-4965
-5111
-5332
-5546
-5734
-5907
-6048
-6118
-6125
-6119
-6134
-6143
-6106
-6025
-5945
-5891
-5846
-5794
-5746
-5724
-5710
-5665
-5589
-5525
-5502
-5492
-5440
-5337
-5211
-5084
-4918
-4660
-4312
-3942
-3627
-3405
-3277
-3234
-3267
-3354
-3470
-3604
-3745
-3872
-3938
-3882
-3672
-3324
-2898
-2474
-2114
-1840
-1645
-1530
-1516
-1624
-1830
-2081
-2329
-2568
-2802
-2993
-3084
-3072
-3030
-3032
-3059
-3027
-2902
-2757
-2692
-2722
-2776
-2795
-2800
-2831
-2851
-2786
-2622
-2425
-2232
-1984
-1611
-1154
-763
-544
-453
-396
-357
-415
-608
-854
-1044
-1158
-1264
-1385
-1452
-1399
-1248
-1087
-956
-829
-695
-629
-726
-975
-1244
-1416
-1512
-1642
-1867
-2116
-2242
-2171
-1991
-1906
-2081
-2499
-2960
-3255
-3338
-3325
-3290
-3114
-2572
-1570
-264
1076
2285
3341
4248
4938
5323
5374
5127
4630
3937
3153
2411
1774
1183
554
-100
-647
-967
-1084
-1144
-1286
-1538
-1830
-2066
-2201
-2281
-2400
-2624
-2909
-3118
-3152
-3012
-2802
-2637
-2564
-2594
-2720
-2908
-3099
-3242
-3350
-3468
-3582
-3575
-3327
-2868
-2395
-2108
-2065
-2209
-2507
-2979
-3588
-4163
-4515
-4598
-4516
-4338
-3996
-3398
-2609
-1865
-1376
-1196
-1259
-1530
-2028
-2717
-3450
-4054
-4435
-4618
-4650
-4538
-4281
-3923
-3547
-3233
-3013
-2889
-2879
-2995
-3189
-3341
-3352
-3234
-3096
-3029
-2987
-2838
-2527
-2167
-1959
-1981
-2103
-2104
-1880
-1539
-1263
-1119
-991
-719
-291
106
244
63
-276
-566
-728
-818
-870
-794
-475
42
545
868
1054
1271
1545
1681
1482
1001
529
307
316
392
475
661
1000
1370
1577
1582
1527
1541
1595
1583
1484
1385
1328
1257
1114
945
851
837
808
713
676
881
1358
1911
2296
2455
2514
2590
2638
2531
2248
1930
1743
1718
1765
1813
1876
2007
2201
2397
2524
2552
2465
2250
1964
1736
1692
1846
2104
2354
2545
2684
2801
2909
2997
3031
2966
2786
2551
2362
2308
2437
2775
3324
4049
4872
5761
6776
7973
9240
10276
10791
10731
10300
9735
9105
8323
7332
6221
5178
4374
3884
3681
3664
3684
3590
3311
2887
2425
2013
1677
1392
1149
991
985
1158
1463
1809
2112
2310
2358
2241
2021
1825
1746
1769
1795
1771
1761
1861
2065
2245
2283
2188
2065
1992
1947
1847
1652
1418
1240
1174
1182
1177
1109
1030
1043
1181
1330
1306
1041
649
337
210
205
185
97
25
109
409
840
1238
1465
1491
1383
1233
1100
993
882
738
574
476
561
866
1293
1660
1850
1903
1932
1997
2050
2017
1900
1777
1734
1809
2006
2293
2604
2861
3026
3133
3253
3396
3487
3437
3251
3048
2960
3037
3227
3454
3682
3921
4161
4347
4412
4344
4207
4088
4022
3989
3953
3917
3914
3972
4085
4215
4319
4363
4337
4256
4152
4060
3992
3940
3889
3852
3861
3922
4010
4088
4156
4245
4382
4535
4635
4648
4619
4640
4742
4858
4883
4796
4685
4657
4727
4815
4840
4791
4716
4656
4616
4586
4554
4503
4433
4400
4486
4716
5001
5181
5174
5059
4979
4968
4893
4590
4057
3483
3087
2938
2951
3057
3341
3964
4964
6172
7344
8386
9386
10420
11365
11942
11967
11521
10862
10204
9577
8894
8115
7311
6611
6118
5844
5711
5597
5399
5086
4693
4258
3816
3429
3185
3126
3170
3144
2959
2724
2647
2805
3014
3016
2744
2395
2215
2258
2379
2437
2455
2549
2731
2887
2918
2845
2752
2653
2461
2143
1825
1710
1870
2161
2361
2368
2276
2229
2250
2209
1972
1555
1116
822
725
767
861
965
1062
1128
1125
1050
938
808
636
390
93
-172
-324
-318
-170
59
287
435
467
438
443
530
662
800
977
1267
1674
2086
2374
2529
2659
2853
3071
3181
3118
2963
2864
2902
3046
3225
3435
3732
4121
4509
4787
4926
4998
5080
5151
5118
4928
4630
4358
4236
4307
4520
4761
4916
4958
4978
5103
5364
5624
5687
5469
5083
4746
4602
4620
4665
4641
4576
4570
4673
4827
4912
4868
4733
4591
4482
4392
4298
4230
4239
4335
4475
4598
4689
4789
4926
5048
5056
4907
4685
4542
4529
4538
4435
4246
4150
4246
4405
4421
4270
4155
4232
4391
4410
4261
4158
4264
4454
4453
4177
3816
3578
3430
3168
2689
2132
1758
1751
2144
2876
3848
4979
6226
7564
8913
10087
10869
11138
10937
10387
9597
8652
7661
6747
5974
5330
4815
4491
4409
4484
4482
4219
3731
3219
2819
2478
2039
1467
924
626
627
775
881
895
910
1006
1122
1115
928
670
524
572
726
834
839
812
840
920
964
893
706
461
216
14
-110
-133
-89
-48
-70
-141
-204
-222
-220
-256
-369
-564
-802
-1006
-1090
-1034
-911
-845
-886
-948
-911
-773
-669
-733
-956
-1207
-1379
-1483
-1602
-1762
-1888
-1890
-1741
-1491
-1219
-977
-782
-621
-469
-313
-186
-137
-152
-133
18
282
518
590
503
395
378
432
458
393
289
259
383
648
964
1222
1364
1406
1407
1397
1347
1225
1057
920
894
994
1179
1401
1627
1834
2013
2160
2264
2284
2174
1931
1621
1334
1120
993
975
1090
1302
1509
1648
1763
1933
2137
2214
2034
1689
1435
1429
1559
1605
1511
1460
1642
1995
2253
2248
2089
1994
2015
1980
1729
1337
1042
991
1113
1245
1318
1393
1537
1721
1851
1859
1774
1673
1598
1534
1448
1335
1217
1094
941
751
561
396
226
43
-22
262
1011
2071
3151
4115
5081
6176
7269
8018
8191
7849
7242
6553
5829
5069
4314
3617
2990
2457
2089
1954
2018
2099
2002
1671
1231
876
718
690
615
364
4
-272
-313
-145
51
116
38
-64
-68
32
139
145
47
-52
-56
19
72
50
15
50
140
197
166
101
74
85
82
53
24
-18
-150
-400
-664
-763
-633
-393
-215
-150
-117
-45
12
-42
-221
-448
-646
-821
-998
-1142
-1185
-1107
-961
-792
-592
-364
-192
-174
-281
-343
-251
-101
-94
-286
-508
-550
-383
-158
-23
1
-30
-56
-14
157
454
752
889
858
834
986
1279
1513
1563
1506
1521
1677
1862
1924
1847
1774
1852
2080
2308
2389
2337
2314
2432
2605
2634
2432
2141
1991
2050
2158
2126
1951
1796
1784
1858
1876
1785
1674
1639
1681
1730
1758
1815
1941
2107
2226
2246
2184
2099
2041
2020
2007
1947
1815
1669
1623
1746
1987
2213
2352
2457
2616
2816
2930
2860
2651
2450
2356
2334
2282
2173
2072
2073
2199
2391
2551
2579
2440
2193
1955
1803
1679
1444
1052
647
441
510
760
1086
1519
2155
2978
3849
4670
5491
6397
7321
8048
8407
8402
8154
7754
7230
6601
5901
5131
4261
3339
2548
2082
1961
1986
1910
1652
1341
1171
1203
1297
1239
936
501
142
-7
8
34
-25
-131
-164
-45
195
429
516
396
135
-118
-238
-224
-189
-246
-384
-461
-333
20
463
812
961
926
778
572
339
108
-117
-375
-694
-999
-1123
-978
-691
-516
-566
-684
-637
-426
-302
-454
-758
-900
-736
-464
-398
-628
-940
-1080
-1026
-972
-1075
-1290
-1449
-1448
-1315
-1118
-896
-691
-578
-595
-666
-660
-553
-478
-561
-737
-796
-627
-347
-183
-228
-371
-453
-439
-401
-383
-326
-139
178
517
775
950
1118
1319
1485
1487
1278
957
687
559
548
603
709
865
1026
1115
1088
985
870
758
607
405
206
100
131
276
481
695
879
986
979
862
676
478
306
185
144
191
294
387
441
482
554
649
701
651
496
291
112
15
15
50
11
-150
-362
-493
-504
-486
-543
-638
-637
-478
-251
-96
-42
-17
-1
-83
-364
-829
-1348
-1792
-2129
-2380
-2520
-2451
-2053
-1305
-326
709
1688
2613
3525
4380
5009
5237
5034
4533
3907
3261
2607
1933
1266
664
176
-172
-368
-423
-407
-454
-636
-889
-1045
-1004
-878
-903
-1208
-1654
-2001
-2157
-2276
-2555
-2987
-3364
-3516
-3469
-3366
-3281
-3169
-2987
-2786
-2640
-2553
-2469
-2369
-2303
-2321
-2403
-2472
-2498
-2521
-2585
-2664
-2669
-2524
-2251
-1953
-1742
-1656
-1623
-1544
-1403
-1306
-1388
-1679
-2047
-2324
-2452
-2512
-2594
-2691
-2718
-2640
-2522
-2440
-2389
-2312
-2187
-2087
-2083
-2137
-2129
-1988
-1774
-1613
-1583
-1649
-1715
-1733
-1710
-1649
-1530
-1343
-1146
-1020
-977
-929
-801
-631
-568
-722
-1024
-1276
-1336
-1247
-1158
-1158
-1186
-1119
-907
-603
-295
-33
170
304
372
404
444
516
592
621
591
543
526
539
554
541
503
455
396
324
250
217
252
336
408
425
407
425
517
639
684
579
373
198
147
179
190
147
130
238
444
618
671
651
658
714
711
560
303
82
2
35
87
103
109
160
271
394
464
455
406
369
354
336
300
264
272
347
465
563
571
447
224
-10
-183
-309
-428
-479
-249
457
1596
2897
4076
5081
6027
6947
7674
7983
7807
7287
6618
5903
5156
4377
3599
2862
2213
1712
1401
1238
1079
790
390
40
-114
-80
-21
-88
-270
-429
-461
-404
-392
-500
-666
-757
-708
-577
-477
-453
-471
-476
-460
-470
-535
-633
-708
-713
-648
-549
-446
-344
-214
-35
161
286
257
69
-202
-459
-664
-851
-1059
-1270
-1404
-1379
-1183
-910
-727
-757
-981
-1260
-1454
-1549
-1648
-1835
-2074
-2241
-2246
-2105
-1892
-1673
-1483
-1346
-1292
-1320
-1376
-1399
-1356
-1255
-1140
-1047
-977
-877
-674
-341
55
387
584
664
680
650
563
429
287
155
15
-125
-172
-19
308
613
688
518
300
240
363
512
535
447
413
584
949
1347
1608
1670
1577
1394
1160
903
669
514
445
442
509
688
997
1372
1693
1877
1937
1945
1950
1951
1924
1846
1713
1546
1402
1329
1329
1354
1367
1373
1396
1420
1391
1276
1117
1002
972
997
1022
1033
1070
1175
1337
1480
1509
1378
1124
838
601
436
322
233
180
217
373
608
846
1024
1105
1053
841
505
165
-68
-202
-318
-396
-245
319
1244
2244
3087
3815
4623
5543
6338
6716
6612
6207
5706
5179
4601
3975
3374
2867
2476
2198
2029
1959
1925
1813
1543
1132
680
301
33
-183
-419
-658
-800
-772
-621
-468
-391
-371
-345
-300
-289
-358
-494
-637
-729
-746
-700
-608
-491
-362
-231
-109
-15
32
15
-68
-200
-348
-480
-581
-648
-676
-658
-591
-489
-381
-280
-184
-102
-85
-183
-386
-623
-824
-978
-1110
-1229
-1301
-1301
-1241
-1146
-1028
-887
-754
-678
-671
-677
-639
-569
-544
-608
-702
-728
-650
-519
-403
-308
-190
-23
163
324
443
536
628
722
797
832
827
805
787
762
691
559
417
356
432
607
796
957
1113
1306
1538
1763
1930
2023
2053
2028
1948
1823
1675
1532
1399
1274
1161
1097
1126
1259
1435
1563
1608
1618
1649
1681
1630
1462
1278
1218
1315
1460
1535
1547
1609
1778
1980
2081
2021
1856
1681
1553
1489
1503
1605
1774
1967
2146
2284
2352
2311
2159
1932
1690
1485
1344
1279
1267
1272
1280
1325
1480
1739
1963
2004
1869
1713
1643
1581
1389
1066
767
594
464
286
188
448
1163
2086
2883
3495
4150
5011
5900
6444
6454
6092
5666
5302
4882
4260
3477
2796
2492
2633
3018
3336
3404
3254
3035
2828
2554
2046
1238
247
-691
-1366
-1701
-1777
-1740
-1681
-1598
-1436
-1169
-846
-562
-389
-326
-311
-283
-230
-191
-220
-331
-498
-678
-838
-964
-1029
-1018
-955
-873
-755
-549
-263
-23
6
-215
-559
-850
-1039
-1199
-1383
-1545
-1617
-1627
-1683
-1820
-1922
-1848
-1612
-1387
-1323
-1384
-1420
-1354
-1276
-1335
-1553
-1808
-1994
-2115
-2227
-2313
-2266
-2035
-1716
-1471
-1357
-1297
-1192
-1050
-962
-980
-1058
-1115
-1137
-1159
-1187
-1160
-1012
-758
-492
-289
-146
-11
146
311
446
516
505
410
266
146
140
279
500
694
790
812
844
925
990
914
634
213
-193
-449
-511
-406
-183
104
393
652
888
1117
1283
1258
964
501
106
-66
-79
-114
-248
-346
-228
100
445
617
608
540
507
503
472
401
334
310
345
448
604
746
779
676
541
512
608
687
597
326
15
-186
-230
-182
-144
-162
-225
-283
-267
-131
83
246
209
-68
-474
-834
-1048
-1147
-1171
-1042
-599
234
1339
2509
3643
4772
5887
6806
7282
7239
6822
6248
5613
4898
4105
3294
2525
1834
1273
929
832
865
812
543
122
-277
-532
-647
-713
-844
-1096
-1414
-1644
-1664
-1509
-1367
-1404
-1604
-1796
-1839
-1755
-1680
-1709
-1816
-1913
-1938
-1903
-1850
-1804
-1749
-1667
-1606
-1641
-1788
-1956
-2004
-1894
-1761
-1782
-1978
-2184
-2239
-2176
-2166
-2308
-2522
-2671
-2727
-2775
-2865
-2940
-2942
-2919
-2978
-3114
-3188
-3093
-2899
-2787
-2843
-2963
-2978
-2847
-2683
-2590
-2561
-2524
-2461
-2403
-2348
-2247
-2086
-1954
-1952
-2049
-2080
-1921
-1630
-1369
-1225
-1136
-993
-769
-543
-410
-391
-433
-462
-424
-311
-175
-90
-83
-89
-9
166
310
289
127
-12
33
233
416
454
402
422
596
852
1055
1150
1189
1234
1273
1256
1193
1155
1185
1225
1180
1030
871
808
822
809
724
650
699
865
1017
1058
1059
1183
1457
1688
1645
1310
938
795
908
1078
1122
1073
1129
1415
1854
2243
2461
2518
2481
2383
2225
2034
1877
1780
1700
1583
1464
1433
1532
1687
1750
1656
1497
1414
1413
1326
1006
531
149
-4
-75
-281
-536
-417
402
1751
3103
4112
4924
5870
6949
7749
7875
7338
6497
5664
4883
4059
3205
2454
1919
1594
1406
1301
1262
1242
1155
959
708
490
331
144
-174
-582
-902
-1006
-996
-1124
-1503
-1942
-2134
-1992
-1747
-1683
-1819
-1933
-1852
-1670
-1618
-1772
-1964
-1989
-1835
-1662
-1577
-1526
-1396
-1184
-992
-886
-823
-758
-749
-894
-1180
-1463
-1629
-1717
-1842
-2021
-2149
-2150
-2084
-2080
-2175
-2301
-2426
-2618
-2932
-3284
-3498
-3493
-3375
-3299
-3275
-3165
-2867
-2451
-2097
-1916
-1865
-1829
-1746
-1659
-1641
-1702
-1759
-1698
-1469
-1150
-894
-810
-873
-964
-1006
-1029
-1111
-1253
-1359
-1330
-1153
-891
-608
-339
-116
15
43
7
-46
-119
-250
-438
-584
-561
-346
-41
215
396
579
822
1069
1180
1063
784
521
402
415
459
466
484
605
842
1081
1156
995
685
406
275
272
298
293
313
471
815
1253
1591
1665
1445
1032
581
214
-13
-95
-56
49
187
389
742
1257
1759
1938
1604
916
281
-6
0
20
-92
-189
-52
317
689
851
801
675
544
349
38
-311
-545
-571
-467
-395
-442
-519
-426
-37
582
1250
1863
2494
3269
4167
5006
5602
5913
5971
5760
5240
4461
3612
2862
2223
1594
959
430
108
-63
-242
-526
-855
-1123
-1298
-1421
-1525
-1599
-1621
-1597
-1553
-1504
-1443
-1379
-1341
-1357
-1425
-1519
-1599
-1647
-1669
-1690
-1702
-1646
-1459
-1168
-935
-969
-1341
-1897
-2382
-2684
-2893
-3162
-3490
-3703
-3634
-3290
-2823
-2398
-2102
-1976
-2072
-2420
-2969
-3591
-4170
-4650
-5000
-5178
-5141
-4905
-4558
-4194
-3840
-3495
-3194
-3029
-3050
-3189
-3307
-3303
-3206
-3119
-3122
-3213
-3327
-3388
-3325
-3119
-2847
-2665
-2666
-2765
-2771
-2605
-2409
-2384
-2537
-2652
-2543
-2275
-2061
-1982
-1891
-1616
-1194
-844
-724
-794
-922
-1055
-1215
-1387
-1469
-1380
-1169
-948
-754
-516
-185
151
323
253
48
-116
-184
-251
-414
-654
-860
-949
-954
-952
-978
-1008
-1021
-1034
-1073
-1154
-1310
-1596
-2039
-2562
-2997
-3185
-3097
-2828
-2494
-2120
-1632
-947
-100
734
1345
1639
1693
1647
1565
1420
1210
1035
1020
1173
1358
1427
1374
1300
1267
1210
1017
660
220
-186
-479
-632
-639
-520
-374
-357
-563
-933
-1308
-1588
-1808
-2077
-2432
-2806
-3105
-3259
-3184
-2769
-1955
-859
282
1306
2255
3255
4299
5186
5688
5742
5464
5022
4528
4031
3539
3034
2506
2007
1647
1488
1463
1401
1173
788
340
-107
-543
-964
-1340
-1643
-1863
-2005
-2057
-1997
-1855
-1734
-1731
-1853
-2017
-2129
-2177
-2223
-2304
-2360
-2305
-2131
-1929
-1785
-1676
-1516
-1288
-1106
-1107
-1289
-1503
-1605
-1584
-1518
-1446
-1344
-1208
-1109
-1130
-1270
-1445
-1592
-1735
-1942
-2240
-2573
-2871
-3071
-3123
-3020
-2816
-2603
-2439
-2299
-2133
-1959
-1879
-1967
-2176
-2393
-2557
-2705
-2874
-3025
-3062
-2934
-2692
-2439
-2239
-2085
-1925
-1720
-1488
-1299
-1234
-1311
-1453
-1549
-1551
-1494
-1432
-1374
-1295
-1174
-993
-725
-343
121
569
912
1160
1400
1673
1895
1934
1748
1444
1179
1027
955
895
814
724
659
657
733
860
971
999
931
784
572
301
18
-187
-257
-239
-211
-148
84
544
1054
1319
1215
941
823
969
1199
1271
1171
1113
1282
1668
2117
2488
2739
2868
2858
2725
2553
2428
2328
2119
1680
1063
495
197
209
384
543
639
759
971
1222
1401
1447
1387
1284
1156
977
741
504
373
437
677
944
1047
958
912
1236
2037
3078
3989
4637
5232
6047
7041
7855
8131
7799
7070
6222
5423
4707
4043
3380
2710
2079
1555
1134
726
250
-223
-526
-587
-524
-478
-428
-212
230
698
874
628
142
-269
-435
-431
-448
-602
-847
-1035
-1050
-908
-744
-702
-824
-1024
-1186
-1252
-1244
-1205
-1155
-1093
-1034
-999
-1013
-1104
-1271
-1458
-1586
-1624
-1631
-1686
-1820
-2016
-2296
-2717
-3252
-3712
-3884
-3745
-3502
-3340
-3202
-2862
-2227
-1500
-1013
-929
-1149
-1466
-1737
-1923
-2036
-2090
-2127
-2170
-2179
-2073
-1829
-1535
-1330
-1279
-1324
-1361
-1335
-1265
-1208
-1202
-1238
-1266
-1228
-1121
-993
-878
-734
-485
-127
221
406
379
220
45
-100
-232
-358
-439
-417
-266
-2
331
656
893
998
991
936
880
820
729
617
546
574
696
850
976
1063
1128
1170
1155
1066
946
865
854
866
831
735
611
502
423
389
419
516
633
708
733
768
869
1018
1127
1133
1059
991
985
1025
1063
1065
1045
1023
1000
956
871
750
622
520
462
451
468
496
551
670
869
1107
1285
1315
1165
873
515
163
-150
-431
-685
-845
-741
-212
751
1954
3149
4232
5262
6283
7174
7712
7767
7397
6757
5963
5065
4120
3210
2423
1817
1433
1290
1344
1470
1520
1433
1246
1018
754
427
32
-370
-679
-804
-721
-497
-248
-67
37
113
164
128
-57
-377
-731
-1007
-1128
-1073
-869
-597
-347
-150
41
249
401
367
121
-198
-412
-462
-405
-302
-145
80
309
446
451
362
209
-36
-397
-812
-1161
-1386
-1520
-1617
-1660
-1583
-1374
-1134
-998
-1017
-1134
-1261
-1368
-1494
-1670
-1859
-1974
-1953
-1812
-1636
-1503
-1442
-1423
-1406
-1386
-1383
-1382
-1331
-1197
-1007
-821
-686
-621
-624
-674
-724
-742
-746
-753
-719
-564
-295
-50
95
303
866
1792
2662
3017
2877
2727
2932
3292
3292
2718
1894
1270
949
713
409
132
35
109
254
473
855
1376
1821
2012
1996
1970
2016
2019
1849
1546
1287
1182
1176
1167
1160
1248
1476
1741
1903
1939
1946
1987
1989
1830
1540
1334
1422
1783
2193
2442
2493
2436
2320
2102
1739
1277
833
503
317
301
492
882
1379
1844
2146
2217
2068
1786
1478
1193
897
563
271
149
214
331
410
586
1093
1972
2958
3768
4419
5171
6143
7101
7674
7706
7324
6723
5991
5159
4312
3561
2939
2401
1941
1646
1579
1635
1587
1300
842
397
95
-62
-152
-241
-342
-428
-455
-399
-299
-252
-361
-640
-993
-1266
-1356
-1286
-1184
-1179
-1282
-1362
-1264
-966
-638
-513
-683
-1036
-1376
-1599
-1733
-1856
-1994
-2130
-2243
-2318
-2319
-2200
-1968
-1705
-1527
-1486
-1560
-1691
-1842
-2019
-2256
-2580
-2981
-3405
-3780
-4051
-4217
-4301
-4305
-4206
-3974
-3623
-3213
-2813
-2480
-2245
-2105
-2049
-2059
-2116
-2192
-2254
-2268
-2220
-2124
-2001
-1866
-1735
-1633
-1588
-1589
-1577
-1514
-1437
-1444
-1585
-1778
-1851
-1695
-1359
-999
-737
-574
-425
-216
46
277
373
292
77
-159
-312
-357
-349
-339
-320
-253
-125
22
138
214
275
326
336
277
158
31
-36
-3
116
236
244
85
-175
-413
-552
-616
-665
-699
-657
-511
-313
-137
13
186
400
606
745
829
918
1040
1148
1178
1128
1051
978
891
754
574
403
295
263
280
306
317
319
314
278
178
1
-201
-325
-325
-286
-339
-504
-622
-528
-273
-135
-322
-691
-826
-398
533
1602
2522
3320
4207
5262
6268
6883
6930
6525
5929
5302
4606
3747
2771
1888
1290
986
807
609
401
261
202
125
-68
-359
-637
-829
-950
-1058
-1169
-1254
-1283
-1265
-1252
-1298
-1424
-1580
-1661
-1607
-1467
-1349
-1301
-1258
-1120
-878
-633
-496
-491
-575
-703
-859
-1016
-1131
-1192
-1231
-1272
-1293
-1257
-1190
-1178
-1264
-1403
-1536
-1677
-1893
-2182
-2427
-2514
-2471
-2445
-2534
-2690
-2784
-2757
-2673
-2638
-2703
-2834
-2954
-3006
-2997
-2990
-3034
-3084
-3014
-2758
-2418
-2193
-2173
-2231
-2163
-1930
-1704
-1666
-1792
-1891
-1811
-1578
-1334
-1171
-1076
-994
-898
-811
-773
-817
-933
-1063
-1137
-1127
-1066
-994
-890
-699
-414
-113
104
209
238
227
177
100
45
43
45
-31
-194
-331
-330
-234
-223
-425
-760
-1005
-1017
-879
-786
-831
-900
-824
-568
-272
-83
-28
-17
27
81
89
57
55
122
208
239
207
179
223
329
427
454
406
312
199
88
2
-20
27
104
143
135
145
253
448
593
537
252
-93
-283
-271
-215
-293
-486
-621
-593
-517
-573
-784
-998
-1090
-1072
-985
-719
-83
958
2194
3373
4422
5394
6235
6708
6622
6056
5313
4638
4044
3431
2794
2280
2038
2057
2195
2288
2244
2031
1638
1094
476
-99
-540
-847
-1100
-1355
-1585
-1702
-1663
-1549
-1519
-1664
-1927
-2170
-2299
-2328
-2318
-2303
-2278
-2246
-2240
-2296
-2403
-2540
-2707
-2915
-3128
-3265
-3295
-3297
-3370
-3498
-3534
-3364
-3061
-2838
-2828
-2954
-3038
-2996
-2904
-2886
-2974
-3106
-3227
-3349
-3511
-3705
-3881
-4002
-4095
-4206
-4337
-4426
-4425
-4354
-4277
-4237
-4208
-4155
-4104
-4122
-4226
-4343
-4387
-4362
-4347
-4386
-4413
-4323
-4103
-3854
-3676
-3567
-3477
-3391
-3342
-3339
-3325
-3239
-3079
-2904
-2754
-2613
-2448
-2247
-2040
-1865
-1758
-1718
-1702
-1663
-1612
-1625
-1742
-1914
-2048
-2124
-2235
-2435
-2621
-2611
-2375
-2115
-2062
-2223
-2383
-2346
-2150
-2004
-2048
-2222
-2356
-2355
-2258
-2159
-2110
-2112
-2142
-2200
-2308
-2466
-2656
-2846
-3026
-3174
-3236
-3138
-2842
-2403
-1941
-1558
-1272
-1043
-845
-700
-640
-689
-856
-1130
-1449
-1698
-1777
-1727
-1715
-1870
-2119
-2252
-2159
-1990
-2031
-2409
-2968
-3407
-3531
-3386
-3156
-2970
-2814
-2592
-2257
-1893
-1660
-1664
-1873
-2143
-2327
-2339
-2154
-1779
-1237
-563
219
1111
2082
3023
3761
4153
4166
3876
3410
2900
2460
2148
1922
1690
1444
1302
1362
1528
1530
1159
481
-249
-859
-1406
-2035
-2755
-3405
-3830
-4032
-4120
-4176
-4188
-4130
-4031
-3934
-3826
-3656
-3419
-3181
-2992
-2829
-2635
-2399
-2180
-2042
-1998
-2006
-2033
-2054
-2047
-1991
-1877
-1712
-1493
-1223
-942
-728
-628
-595
-549
-500
-573
-879
-1377
-1883
-2255
-2507
-2733
-2972
-3166
-3242
-3203
-3105
-2979
-2833
-2706
-2678
-2800
-3038
-3317
-3585
-3823
-3993
-4012
-3813
-3445
-3040
-2695
-2391
-2048
-1652
-1298
-1094
-1038
-1015
-932
-802
-699
-660
-649
-626
-618
-688
-833
-976
-1037
-1002
-921
-854
-831
-853
-874
-832
-727
-674
-830
-1223
-1681
-1969
-1996
-1851
-1657
-1421
-1066
-577
-40
447
852
1194
1491
1753
1970
2099
2070
1854
1531
1214
904
485
-105
-681
-901
-582
79
642
815
686
564
611
661
390
-348
-1355
-2235
-2706
-2761
-2577
-2296
-1921
-1386
-702
-2
542
827
867
754
576
392
244
178
222
366
561
747
905
1020
1075
1067
1046
1074
1145
1145
955
595
217
-54
-248
-449
-593
-467
71
906
1778
2554
3348
4303
5336
6145
6460
6267
5758
5123
4443
3734
3037
2411
1899
1524
1338
1379
1594
1793
1762
1420
856
249
-256
-604
-807
-902
-937
-933
-859
-652
-305
68
299
301
143
-20
-108
-167
-285
-464
-610
-645
-609
-609
-703
-837
-927
-973
-1062
-1247
-1443
-1525
-1479
-1434
-1505
-1626
-1627
-1465
-1304
-1323
-1475
-1528
-1368
-1185
-1299
-1803
-2452
-2910
-3069
-3072
-3077
-3080
-2963
-2682
-2325
-2004
-1749
-1538
-1393
-1382
-1524
-1713
-1800
-1725
-1576
-1488
-1492
-1503
-1424
-1261
-1106
-1040
-1053
-1071
-1022
-870
-602
-240
146
458
631
679
657
588
436
172
-173
-509
-737
-798
-667
-366
25
396
690
949
1246
1559
1746
1673
1357
970
687
555
508
485
491
556
680
824
951
1048
1111
1132
1102
1026
898
704
436
138
-100
-212
-213
-179
-153
-79
139
510
908
1167
1249
1258
1310
1391
1379
1198
914
636
365
14
-418
-757
-788
-493
-96
167
285
446
786
1200
1430
1322
966
577
293
108
-39
-157
-221
-253
-305
-390
-462
-523
-679
-1017
-1418
-1556
-1157
-266
810
1820
2794
3893
5098
6117
6609
6481
5932
5238
4538
3818
3023
2164
1333
661
249
111
148
203
169
41
-124
-290
-466
-675
-918
-1166
-1379
-1516
-1559
-1535
-1502
-1508
-1535
-1525
-1458
-1386
-1382
-1462
-1578
-1673
-1739
-1795
-1828
-1811
-1737
-1639
-1548
-1459
-1358
-1264
-1222
-1246
-1313
-1387
-1464
-1550
-1622
-1639
-1597
-1545
-1527
-1528
-1494
-1408
-1338
-1377
-1550
-1794
-2015
-2162
-2240
-2274
-2284
-2290
-2320
-2389
-2476
-2546
-2585
-2608
-2620
-2591
-2489
-2332
-2178
-2071
-1993
-1909
-1831
-1805
-1844
-1887
-1846
-1691
-1460
-1200
-926
-647
-399
-222
-124
-73
-50
-70
-142
-232
-278
-254
-195
-148
-112
-54
34
108
122
87
70
128
242
332
341
297
274
305
332
288
187
139
235
437
610
658
612
573
588
613
592
525
462
430
416
409
432
502
585
620
591
548
558
625
691
714
706
708
723
714
661
605
609
685
759
755
677
615
627
652
578
384
188
128
204
306
371
495
823
1325
1795
2060
2133
2129
2049
1756
1197
555
88
-145
-292
-405
-257
449
1698
3088
4204
4980
5646
6369
7021
7313
7081
6435
5653
4971
4448
3963
3358
2624
1946
1548
1473
1530
1493
1324
1168
1118
1089
944
688
451
304
147
-143
-515
-771
-825
-850
-1107
-1635
-2168
-2397
-2297
-2114
-2053
-2043
-1841
-1340
-716
-241
-22
38
60
24
-152
-466
-787
-971
-993
-920
-834
-782
-783
-852
-991
-1165
-1327
-1448
-1551
-1662
-1766
-1794
-1684
-1448
-1206
-1124
-1278
-1579
-1834
-1919
-1899
-1963
-2221
-2576
-2812
-2799
-2608
-2430
-2393
-2473
-2548
-2525
-2386
-2169
-1919
-1672
-1446
-1234
-1008
-740
-447
-188
-28
9
-24
-47
-10
64
116
128
158
299
570
881
1093
1139
1061
959
899
891
915
951
978
968
922
887
916
1000
1062
1028
911
805
813
952
1153
1328
1425
1439
1388
1284
1139
973
811
657
493
316
171
145
303
605
923
1129
1197
1189
1163
1095
925
646
340
116
24
42
126
250
409
614
864
1116
1265
1197
895
492
174
18
-73
-211
-364
-369
-137
223
530
698
773
805
752
532
136
-354
-851
-1322
-1777
-2187
-2452
-2431
-2013
-1199
-126
1054
2289
3623
5046
6365
7296
7673
7532
6993
6130
5003
3766
2625
1682
878
145
-415
-598
-349
113
443
460
251
15
-147
-289
-521
-882
-1306
-1684
-1928
-2017
-1995
-1935
-1905
-1941
-2035
-2144
-2221
-2245
-2236
-2242
-2296
-2403
-2528
-2634
-2701
-2750
-2821
-2931
-3043
-3095
-3052
-2938
-2815
-2727
-2682
-2661
-2643
-2616
-2585
-2556
-2540
-2532
-2521
-2494
-2452
-2427
-2465
-2592
-2810
-3096
-3403
-3680
-3893
-4035
-4120
-4162
-4147
-4059
-3911
-3770
-3719
-3791
-3929
-4029
-4032
-3967
-3902
-3863
-3799
-3639
-3379
-3094
-2879
-2763
-2700
-2614
-2489
-2365
-2301
-2300
-2288
-2175
-1941
-1694
-1590
-1681
-1859
-1960
-1925
-1849
-1860
-1962
-2029
-1936
-1682
-1384
-1159
-1052
-1050
-1122
-1243
-1382
-1511
-1622
-1704
-1729
-1653
-1467
-1228
-1011
-860
-771
-732
-745
-815
-912
-970
-940
-820
-656
-516
-443
-436
-453
-460
-501
-678
-1044
-1490
-1799
-1833
-1678
-1529
-1470
-1387
-1141
-769
-460
-339
-355
-382
-399
-497
-712
-944
-1056
-1030
-966
-960
-1023
-1095
-1124
-1114
-1073
-997
-908
-860
-887
-943
-945
-876
-815
-854
-999
-1197
-1426
-1696
-1917
-1850
-1282
-271
865
1850
2737
3796
5109
6364
7104
7135
6653
5990
5304
4554
3686
2742
1831
1041
432
66
-29
55
121
24
-236
-547
-823
-1075
-1365
-1736
-2170
-2593
-2925
-3114
-3163
-3128
-3079
-3044
-3006
-2943
-2851
-2743
-2637
-2588
-2686
-2980
-3371
-3624
-3567
-3257
-2926
-2750
-2683
-2550
-2258
-1891
-1621
-1570
-1747
-2097
-2523
-2892
-3092
-3118
-3086
-3120
-3204
-3191
-2984
-2680
-2507
-2607
-2920
-3270
-3571
-3859
-4163
-4392
-4414
-4221
-3945
-3712
-3504
-3217
-2839
-2501
-2329
-2315
-2353
-2381
-2439
-2582
-2771
-2904
-2934
-2901
-2859
-2800
-2685
-2526
-2394
-2327
-2286
-2212
-2113
-2049
-2042
-2039
-1982
-1884
-1804
-1724
-1544
-1201
-782
-448
-255
-88
168
436
482
176
-330
-724
-831
-753
-713
-786
-834
-691
-362
-16
180
197
122
40
-27
-109
-225
-368
-496
-570
-572
-524
-478
-473
-509
-546
-548
-518
-493
-520
-608
-701
-723
-644
-522
-443
-407
-290
21
476
858
961
780
499
308
223
115
-122
-448
-704
-746
-557
-257
7
155
199
194
196
219
229
168
-1
-232
-426
-529
-595
-686
-722
-486
170
1127
2097
2914
3692
4623
5656
6456
6701
6368
5701
4948
4180
3364
2512
1719
1074
596
271
100
84
144
124
-92
-485
-924
-1285
-1555
-1819
-2136
-2451
-2653
-2688
-2595
-2464
-2348
-2255
-2185
-2142
-2108
-2056
-2003
-2009
-2113
-2261
-2352
-2334
-2245
-2157
-2086
-1998
-1884
-1799
-1790
-1833
-1875
-1926
-2047
-2259
-2501
-2702
-2875
-3086
-3340
-3549
-3633
-3619
-3597
-3604
-3596
-3542
-3499
-3552
-3691
-3807
-3813
-3758
-3766
-3893
-4076
-4211
-4251
-4205
-4085
-3899
-3686
-3513
-3432
-3438
-3504
-3634
-3862
-4172
-4469
-4635
-4620
-4456
-4206
-3915
-3612
-3321
-3071
-2907
-2869
-2977
-3200
-3445
-3611
-3656
-3570
-3365
-3037
-2609
-2140
-1700
-1334
-1071
-970
-1080
-1354
-1645
-1838
-1938
-1988
-1933
-1639
-1098
-532
-215
-197
-263
-182
27
106
-161
-716
-1252
-1470
-1310
-970
-726
-690
-730
-636
-372
-107
-44
-191
-385
-500
-571
-694
-848
-917
-838
-710
-684
-792
-920
-953
-887
-787
-679
-522
-279
-1
214
319
361
413
480
490
382
186
-12
-143
-199
-214
-224
-232
-221
-182
-147
-195
-383
-687
-1017
-1294
-1502
-1613
-1488
-943
50
1270
2423
3414
4374
5394
6297
6739
6544
5874
5055
4281
3518
2669
1774
1015
553
400
419
447
385
211
-40
-333
-656
-999
-1339
-1641
-1856
-1960
-1959
-1881
-1778
-1684
-1594
-1483
-1348
-1216
-1108
-1011
-898
-793
-762
-834
-954
-1039
-1106
-1271
-1622
-2071
-2411
-2526
-2501
-2521
-2672
-2857
-2913
-2783
-2561
-2396
-2369
-2432
-2464
-2374
-2194
-2056
-2065
-2206
-2367
-2462
-2528
-2657
-2878
-3124
-3304
-3390
-3395
-3327
-3178
-2931
-2581
-2136
-1645
-1215
-957
-887
-914
-954
-1032
-1259
-1677
-2151
-2463
-2501
-2347
-2165
-2020
-1826
-1478
-1020
-631
-449
-417
-346
-144
103
249
287
351
522
710
754
643
523
517
568
512
286
22
-88
33
299
556
709
787
900
1145
1513
1866
2040
1987
1812
1667
1610
1584
1516
1390
1253
1153
1115
1138
1208
1278
1288
1215
1088
947
802
655
551
556
686
875
1039
1179
1366
1627
1870
1947
1792
1466
1075
698
380
169
95
138
254
443
768
1258
1810
2245
2455
2477
2421
2356
2281
2157
1982
1796
1630
1487
1346
1194
1059
978
967
992
1035
1193
1639
2459
3499
4479
5231
5825
6409
6971
7309
7253
6859
6356
5926
5578
5229
4830
4429
4114
3927
3820
3707
3537
3302
3007
2645
2200
1720
1335
1133
1069
1003
858
687
549
379
35
-510
-1075
-1431
-1511
-1455
-1396
-1284
-956
-380
241
644
745
691
646
584
324
-223
-895
-1410
-1613
-1575
-1457
-1335
-1164
-916
-656
-469
-370
-318
-304
-374
-557
-791
-980
-1102
-1240
-1464
-1728
-1894
-1873
-1716
-1546
-1433
-1349
-1242
-1119
-1048
-1083
-1214
-1397
-1610
-1862
-2150
-2424
-2591
-2562
-2321
-1949
-1566
-1228
-877
-423
108
530
643
438
133
-30
12
130
176
128
97
208
497
899
1276
1505
1555
1518
1523
1590
1596
1395
991
557
275
185
185
183
204
343
641
1045
1452
1786
2003
2083
2025
1871
1704
1580
1494
1406
1316
1264
1277
1328
1377
1439
1561
1746
1914
1980
1958
1950
2013
2086
2067
1928
1738
1571
1449
1367
1335
1355
1380
1357
1306
1320
1451
1617
1697
1675
1662
1755
1916
2021
2039
2064
2165
2295
2339
2256
2130
2062
2040
1952
1697
1295
871
538
309
121
-35
-29
344
1173
2316
3495
4538
5485
6442
7363
8022
8201
7899
7327
6718
6157
5580
4905
4143
3399
2805
2423
2222
2114
2008
1853
1658
1456
1267
1085
888
667
447
267
145
52
-60
-203
-343
-443
-499
-545
-606
-668
-695
-657
-566
-455
-348
-249
-154
-81
-66
-118
-201
-269
-315
-370
-447
-494
-450
-322
-197
-149
-165
-180
-171
-194
-308
-487
-633
-669
-619
-587
-661
-836
-1024
-1130
-1137
-1116
-1160
-1299
-1483
-1624
-1659
-1584
-1455
-1365
-1391
-1518
-1644
-1662
-1564
-1450
-1414
-1430
-1388
-1197
-885
-536
-205
106
396
612
685
602
422
242
143
162
270
397
487
557
689
915
1155
1262
1168
968
817
783
812
822
814
845
928
987
956
850
751
718
724
729
734
782
897
1069
1281
1524
1764
1934
1969
1891
1802
1780
1796
1762
1652
1551
1558
1661
1745
1728
1656
1647
1739
1845
1852
1754
1648
1607
1614
1602
1544
1469
1421
1416
1448
1502
1552
1566
1535
1476
1409
1320
1191
1049
961
989
1105
1210
1256
1303
1427
1595
1649
1462
1098
758
559
430
271
176
413
1134
2160
3158
3993
4825
5831
6892
7643
7831
7532
7023
6478
5863
5084
4164
3245
2462
1870
1467
1239
1157
1148
1128
1061
957
838
710
549
332
71
-211
-483
-709
-849
-879
-826
-772
-796
-892
-977
-975
-900
-840
-856
-928
-995
-1025
-1031
-1041
-1076
-1153
-1286
-1455
-1597
-1657
-1639
-1595
-1570
-1572
-1595
-1635
-1674
-1673
-1616
-1555
-1580
-1711
-1855
-1899
-1834
-1766
-1791
-1896
-1988
-2016
-2022
-2069
-2171
-2289
-2373
-2422
-2469
-2548
-2662
-2762
-2780
-2691
-2558
-2476
-2476
-2485
-2417
-2271
-2134
-2093
-2154
-2270
-2384
-2435
-2353
-2099
-1736
-1391
-1127
-867
-499
-38
349
500
421
255
119
9
-134
-304
-423
-430
-337
-200
-66
44
124
180
235
292
305
219
46
-111
-152
-83
3
41
69
161
320
465
539
580
661
764
778
637
417
272
270
318
276
129
18
77
281
449
428
243
80
96
268
410
356
130
-81
-105
55
250
359
406
499
694
943
1183
1409
1616
1731
1641
1345
1013
838
843
875
788
590
393
273
208
148
64
-52
-187
-248
-58
510
1384
2343
3229
4075
4975
5850
6445
6569
6282
5816
5315
4739
4020
3231
2548
2071
1751
1492
1286
1179
1146
1067
846
522
219
24
-91
-230
-458
-740
-979
-1091
-1057
-948
-879
-935
-1105
-1290
-1380
-1338
-1229
-1162
-1184
-1254
-1292
-1261
-1186
-1123
-1093
-1095
-1132
-1200
-1267
-1271
-1190
-1088
-1073
-1183
-1349
-1470
-1517
-1538
-1565
-1561
-1477
-1337
-1218
-1157
-1117
-1064
-1039
-1120
-1309
-1519
-1666
-1738
-1777
-1780
-1694
-1503
-1287
-1148
-1109
-1102
-1075
-1063
-1132
-1270
-1369
-1347
-1238
-1126
-1033
-909
-728
-543
-423
-370
-331
-291
-282
-305
-282
-127
153
460
706
884
1038
1191
1338
1476
1579
1594
1496
1347
1269
1318
1409
1424
1346
1273
1288
1351
1362
1291
1195
1123
1040
891
692
536
508
602
753
892
999
1099
1234
1428
1650
1819
1879
1835
1755
1696
1642
1545
1394
1262
1232
1306
1403
1446
1425
1401
1423
1500
1616
1745
1855
1918
1924
1890
1845
1792
1691
1531
1357
1225
1159
1125
1088
1044
1018
1033
1069
1070
1002
878
734
580
391
160
-47
-141
-98
38
273
749
1639
2919
4307
5496
6430
7292
8209
9034
9445
9252
8556
7635
6690
5784
4891
3999
3145
2395
1832
1518
1435
1461
1417
1204
848
439
29
-369
-740
-1023
-1156
-1150
-1076
-965
-769
-443
-70
165
127
-135
-444
-667
-808
-943
-1102
-1241
-1304
-1267
-1153
-1027
-997
-1156
-1487
-1837
-2038
-2066
-2045
-2081
-2109
-1966
-1598
-1165
-890
-831
-847
-789
-692
-743
-1040
-1461
-1790
-1959
-2109
-2385
-2735
-2943
-2873
-2616
-2366
-2214
-2091
-1918
-1730
-1620
-1621
-1679
-1735
-1811
-1943
-2095
-2174
-2121
-1980
-1853
-1794
-1776
-1733
-1620
-1446
-1246
-1045
-838
-616
-381
-159
16
123
159
143
115
115
156
224
298
380
488
617
724
761
723
643
553
460
357
260
198
178
178
164
132
101
86
70
19
-79
-191
-266
-286
-292
-352
-488
-647
-744
-745
-701
-687
-717
-730
-658
-511
-362
-283
-282
-298
-268
-168
-40
44
51
-1
-60
-95
-118
-162
-238
-313
-342
-309
-244
-211
-263
-410
-618
-836
-1034
-1226
-1454
-1720
-1967
-2123
-2161
-2108
-2020
-1972
-2041
-2262
-2565
-2820
-2959
-3049
-3187
-3270
-2992
-2133
-837
468
1483
2289
3139
4046
4698
4781
4312
3602
2921
2288
1578
756
-60
-717
-1160
-1436
-1636
-1825
-2042
-2291
-2558
-2847
-3187
-3591
-4014
-4386
-4657
-4829
-4919
-4926
-4838
-4655
-4397
-4103
-3798
-3512
-3277
-3122
-3068
-3104
-3183
-3250
-3275
-3276
-3278
-3272
-3220
-3121
-3051
-3094
-3257
-3447
-3574
-3638
-3728
-3906
-4124
-4260
-4234
-4091
-3966
-3971
-4094
-4218
-4242
-4189
-4173
-4268
-4438
-4580
-4649
-4694
-4770
-4866
-4921
-4901
-4824
-4705
-4519
-4242
-3919
-3658
-3528
-3483
-3408
-3236
-3024
-2880
-2853
-2871
-2812
-2618
-2325
-2012
-1722
-1464
-1250
-1111
-1052
-1018
-945
-836
-767
-803
-914
-997
-981
-886
-775
-681
-608
-574
-612
-708
-767
-701
-547
-455
-526
-696
-797
-748
-625
-566
-610
-674
-668
-592
-508
-433
-330
-157
66
254
331
276
130
-49
-239
-470
-780
-1146
-1462
-1622
-1607
-1494
-1366
-1230
-1050
-839
-685
-661
-756
-898
-1028
-1135
-1195
-1163
-1039
-904
-834
-779
-599
-248
104
204
-15
-347
-529
-501
-424
-458
-587
-654
-553
-339
-153
-69
-56
-79
-182
-451
-877
-1324
-1644
-1836
-2013
-2192
-2193
-1777
-907
187
1226
2139
3048
4022
4918
5503
5672
5510
5159
4669
4029
3262
2459
1714
1063
509
77
-200
-333
-398
-471
-572
-683
-782
-877
-978
-1084
-1186
-1282
-1378
-1467
-1527
-1552
-1558
-1569
-1583
-1598
-1628
-1707
-1846
-2007
-2123
-2167
-2163
-2157
-2176
-2211
-2229
-2215
-2184
-2190
-2274
-2425
-2572
-2655
-2688
-2751
-2896
-3090
-3248
-3313
-3283
-3166
-2951
-2643
-2305
-2025
-1839
-1705
-1570
-1459
-1471
-1671
-2002
-2316
-2486
-2498
-2435
-2391
-2385
-2377
-2328
-2261
-2244
-2308
-2394
-2421
-2371
-2302
-2261
-2210
-2059
-1780
-1455
-1201
-1061
-978
-870
-731
-642
-711
-974
-1337
-1610
-1641
-1444
-1183
-1027
-982
-899
-644
-252
107
293
310
256
200
153
122
148
254
386
442
379
270
227
286
380
420
396
400
549
878
1293
1621
1720
1575
1288
986
729
512
339
263
333
522
746
940
1110
1285
1433
1482
1396
1234
1090
997
920
833
770
778
847
918
956
977
997
1000
960
912
928
1044
1190
1271
1244
1146
1032
915
781
646
571
606
728
856
913
886
798
659
449
190
15
141
700
1611
2650
3651
4637
5712
6828
7725
8106
7880
7230
6427
5620
4812
3964
3133
2457
2060
1945
1981
2006
1919
1715
1433
1112
785
509
338
254
175
44
-89
-142
-140
-227
-508
-902
-1184
-1193
-962
-647
-348
-50
291
653
963
1173
1271
1246
1078
779
433
153
3
-31
-20
-15
-19
-15
10
31
-14
-172
-416
-653
-793
-840
-876
-965
-1080
-1134
-1100
-1042
-1041
-1098
-1136
-1095
-996
-912
-876
-859
-838
-844
-914
-1014
-1056
-992
-876
-809
-812
-798
-681
-473
-269
-137
-63
-20
-29
-120
-249
-309
-235
-79
54
135
248
485
834
1182
1416
1505
1489
1436
1400
1409
1453
1480
1453
1400
1399
1497
1652
1778
1835
1861
1919
2012
2084
2103
2093
2091
2088
2055
1990
1936
1930
1949
1946
1912
1896
1947
2041
2096
2061
1972
1920
1947
2008
2023
1972
1937
2021
2224
2429
2506
2456
2398
2443
2565
2638
2576
2425
2308
2296
2353
2384
2333
2236
2185
2248
2396
2511
2489
2360
2264
2301
2429
2519
2486
2374
2301
2335
2437
2492
2390
2111
1744
1417
1196
1053
953
984
1339
2129
3241
4421
5522
6583
7669
8654
9235
9192
8591
7712
6792
5890
4958
4013
3209
2724
2619
2798
3082
3291
3317
3151
2851
2481
2070
1611
1098
589
198
20
68
261
489
659
724
702
659
637
587
384
-35
-590
-1126
-1536
-1784
-1826
-1580
-1036
-338
325
912
1534
2253
2906
3224
3108
2740
2394
2172
1984
1734
1454
1264
1219
1251
1247
1148
985
818
668
512
325
139
24
22
80
115
107
111
157
169
61
-105
-129
117
504
736
648
372
189
250
443
569
573
579
739
1066
1447
1787
2087
2387
2668
2839
2867
2840
2894
3060
3201
3167
2971
2787
2778
2924
3074
3121
3104
3129
3238
3371
3446
3436
3377
3319
3282
3243
3159
3023
2905
2917
3089
3316
3460
3489
3501
3580
3667
3619
3379
3058
2826
2759
2796
2826
2808
2793
2869
3068
3329
3524
3559
3462
3371
3398
3508
3546
3410
3172
2999
2979
3030
3003
2848
2670
2600
2637
2658
2570
2429
2365
2410
2436
2310
2075
1924
1964
2110
2190
2149
2105
2183
2343
2421
2299
2007
1668
1354
1055
747
504
507
916
1731
2773
3847
4904
6034
7259
8395
9143
9336
9052
8491
7796
6992
6100
5199
4380
3678
3100
2670
2428
2345
2282
2064
1630
1083
629
415
399
380
179
-177
-457
-446
-169
110
136
-106
-390
-476
-336
-141
-71
-147
-247
-256
-180
-107
-95
-121
-143
-148
-173
-242
-329
-380
-365
-308
-283
-363
-551
-747
-841
-852
-943
-1252
-1712
-2074
-2137
-1950
-1746
-1691
-1738
-1728
-1572
-1332
-1142
-1120
-1306
-1634
-1937
-2030
-1855
-1544
-1305
-1214
-1158
-978
-675
-419
-385
-587
-870
-1062
-1099
-1032
-926
-798
-618
-378
-117
102
247
322
341
311
269
295
440
661
829
857
786
738
780
871
923
913
901
954
1096
1307
1541
1739
1846
1834
1722
1560
1410
1327
1321
1354
1366
1359
1410
1593
1871
2095
2138
2023
1879
1799
1780
1778
1781
1801
1820
1807
1770
1765
1834
1957
2074
2133
2123
2070
2044
2131
2352
2609
2755
2721
2587
2496
2520
2611
2682
2700
2680
2647
2623
2624
2634
2605
2511
2373
2247
2174
2143
2124
2132
2214
2363
2474
2429
2219
1955
1759
1630
1476
1308
1310
1701
2516
3545
4544
5474
6469
7575
8565
9094
9012
8483
7807
7146
6445
5612
4681
3825
3211
2864
2677
2526
2376
2255
2169
2048
1798
1423
1060
861
838
870
839
749
687
697
733
725
647
508
316
84
-133
-276
-337
-369
-420
-475
-480
-448
-453
-546
-686
-799
-866
-940
-1064
-1210
-1307
-1313
-1255
-1166
-1058
-924
-785
-687
-663
-705
-785
-876
-976
-1086
-1195
-1283
-1330
-1329
-1275
-1167
-1033
-937
-951
-1090
-1281
-1415
-1453
-1455
-1508
-1597
-1617
-1508
-1328
-1179
-1081
-940
-688
-392
-189
-119
-83
39
239
392
403
309
233
265
410
633
901
1194
1470
1668
1768
1823
1903
2008
2051
1971
1843
1836
2011
2190
2072
1547
846
372
346
638
942
1115
1298
1736
2491
3336
3934
4109
3951
3676
3411
3127
2764
2372
2076
1935
1877
1805
1727
1737
1862
1988
1974
1830
1729
1826
2094
2350
2424
2297
2074
1863
1688
1531
1414
1417
1606
1971
2417
2833
3141
3308
3315
3163
2880
2528
2184
1920
1775
1747
1803
1905
2023
2146
2268
2360
2360
2202
1855
1359
813
314
-79
-320
-333
2
745
1815
3023
4216
5365
6489
7516
8248
8513
8296
7738
6993
6140
5219
4286
3428
2715
2181
1838
1676
1648
1647
1545
1278
890
502
222
60
-74
-262
-477
-598
-555
-429
-391
-521
-731
-878
-928
-985
-1153
-1411
-1641
-1752
-1756
-1720
-1692
-1670
-1635
-1600
-1611
-1698
-1832
-1935
-1960
-1920
-1872
-1845
-1818
-1762
-1689
-1655
-1707
-1865
-2118
-2413
-2654
-2758
-2748
-2755
-2890
-3110
-3257
-3229
-3115
-3095
-3259
-3532
-3774
-3925
-4023
-4104
-4149
-4111
-3991
-3839
-3707
-3603
-3520
-3464
-3437
-3422
-3381
-3289
-3164
-3065
-3029
-3035
-3020
-2940
-2821
-2747
-2786
-2911
-2994
-2904
-2621
-2266
-1989
-1829
-1711
-1555
-1363
-1201
-1104
-1054
-1034
-1064
-1162
-1296
-1378
-1365
-1299
-1249
-1243
-1234
-1168
-1041
-914
-880
-992
-1214
-1446
-1630
-1821
-2122
-2543
-2939
-3143
-3128
-3043
-3042
-3122
-3147
-3032
-2837
-2686
-2626
-2610
-2595
-2590
-2605
-2602
-2538
-2438
-2376
-2354
-2290
-2127
-1942
-1900
-2068
-2322
-2470
-2448
-2339
-2254
-2201
-2105
-1897
-1577
-1206
-868
-639
-560
-607
-696
-753
-781
-842
-965
-1093
-1157
-1186
-1304
-1566
-1872
-2075
-2158
-2236
-2355
-2327
-1862
-891
312
1376
2178
2878
3635
4355
4751
4654
4145
3455
2751
2078
1431
819
261
-223
-587
-777
-794
-749
-792
-980
-1242
-1478
-1659
-1838
-2061
-2287
-2432
-2460
-2414
-2383
-2417
-2491
-2544
-2548
-2520
-2506
-2534
-2599
-2664
-2676
-2590
-2405
-2174
-1982
-1890
-1889
-1933
-1998
-2105
-2265
-2443
-2589
-2674
-2712
-2720
-2690
-2624
-2560
-2546
-2581
-2625
-2657
-2712
-2826
-2973
-3088
-3109
-3036
-2906
-2763
-2627
-2508
-2409
-2334
-2299
-2319
-2389
-2475
-2535
-2568
-2603
-2635
-2611
-2498
-2341
-2237
-2220
-2206
-2093
-1889
-1727
-1725
-1857
-1987
-2002
-1894
-1725
-1529
-1286
-984
-654
-359
-115
97
296
457
525
493
419
388
438
542
636
686
712
749
810
875
906
890
849
821
830
867
917
981
1076
1208
1334
1403
1397
1358
1342
1371
1419
1458
1470
1445
1376
1276
1191
1165
1185
1210
1223
1273
1427
1693
1996
2258
2450
2602
2746
2883
2986
3028
2995
2896
2758
2621
2520
2464
2424
2359
2263
2184
2182
2267
2368
2405
2368
2330
2350
2415
2463
2436
2336
2203
2056
1882
1643
1327
988
728
613
624
712
934
1461
2419
3710
5046
6213
7240
8283
9346
10197
10568
10385
9805
9055
8264
7457
6618
5761
4959
4334
3984
3886
3889
3811
3581
3271
2983
2745
2526
2282
1994
1682
1407
1262
1304
1478
1629
1592
1325
933
598
451
493
602
646
618
652
887
1314
1762
2053
2147
2097
1935
1650
1307
1077
1077
1219
1295
1238
1214
1421
1837
2222
2379
2334
2251
2216
2179
2078
1934
1822
1772
1754
1721
1653
1548
1416
1275
1137
979
752
447
148
-18
0
132
270
391
570
864
1217
1499
1648
1728
1840
1986
2068
2012
1861
1731
1673
1650
1631
1686
1916
2323
2776
3137
3393
3638
3931
4198
4293
4139
3813
3486
3305
3304
3405
3511
3595
3717
3944
4258
4557
4748
4808
4778
4705
4616
4537
4495
4499
4514
4492
4437
4393
4389
4393
4344
4226
4082
3957
3851
3736
3614
3528
3519
3579
3649
3666
3618
3549
3521
3565
3657
3745
3800
3849
3954
4139
4347
4476
4479
4413
4375
4405
4445
4419
4323
4238
4236
4298
4339
4320
4289
4300
4329
4296
4150
3926
3712
3551
3414
3247
3059
2925
2918
3018
3125
3191
3326
3740
4539
5579
6583
7398
8124
8950
9895
10733
11180
11120
10658
9995
9289
8607
7932
7207
6421
5657
5076
4783
4733
4748
4654
4397
4039
3669
3357
3131
2963
2789
2566
2325
2160
2126
2178
2205
2144
2028
1940
1927
1974
2040
2097
2122
2079
1948
1776
1658
1660
1756
1860
1916
1967
2101
2365
2704
2987
3115
3086
2971
2841
2706
2542
2358
2228
2213
2281
2326
2273
2149
2038
1976
1902
1742
1490
1237
1089
1081
1158
1224
1212
1134
1056
1038
1067
1069
1002
918
935
1101
1344
1531
1612
1665
1789
1992
2188
2309
2372
2466
2660
2948
3257
3514
3706
3868
4050
4262
4447
4515
4432
4278
4177
4174
4195
4150
4060
4025
4064
4039
3809
3440
3172
3165
3325
3423
3381
3349
3524
3915
4346
4652
4796
4834
4822
4811
4851
4954
5056
5077
5032
5029
5141
5301
5366
5275
5083
4845
4532
4114
3675
3368
3254
3242
3211
3154
3161
3263
3356
3330
3206
3120
3162
3270
3321
3286
3265
3357
3536
3677
3702
3656
3635
3674
3721
3716
3661
3611
3603
3608
3564
3467
3383
3372
3381
3275
2976
2575
2257
2110
2061
2026
2093
2482
3283
4318
5300
6145
7009
8010
8983
9584
9632
9272
8786
8297
7715
6934
6016
5158
4513
4095
3838
3679
3567
3434
3238
3010
2833
2762
2747
2692
2562
2425
2374
2416
2470
2465
2420
2413
2474
2557
2594
2578
2563
2594
2662
2709
2697
2649
2618
2625
2641
2620
2549
2457
2378
2327
2315
2350
2427
2506
2513
2407
2226
2053
1929
1822
1683
1523
1412
1408
1503
1638
1751
1818
1843
1850
1866
1888
1873
1751
1508
1231
1061
1058
1134
1131
984
794
726
827
972
988
847
698
711
921
1202
1416
1546
1680
1887
2135
2325
2401
2393
2377
2403
2480
2593
2725
2836
2879
2847
2792
2791
2865
2947
2948
2853
2739
2722
2846
3048
3202
3223
3130
3034
3023
3073
3066
2925
2730
2642
2741
2922
2995
2875
2664
2529
2530
2574
2541
2417
2306
2302
2407
2537
2619
2646
2657
2667
2668
2650
2655
2745
2934
3150
3288
3313
3286
3308
3393
3468
3444
3315
3152
3035
2988
2980
2984
2984
2973
2939
2880
2821
2791
2797
2809
2796
2776
2784
2821
2832
2763
2613
2425
2214
1982
1758
1596
1514
1468
1462
1656
2267
3324
4579
5726
6704
7699
8825
9887
10521
10527
10024
9268
8416
7494
6532
5613
4810
4144
3628
3313
3233
3295
3286
3056
2636
2168
1757
1391
1021
653
371
233
207
212
215
261
382
545
665
692
669
673
733
801
795
666
438
199
49
17
30
-19
-148
-249
-216
-75
40
31
-64
-160
-278
-513
-868
-1189
-1299
-1190
-1023
-952
-963
-931
-798
-650
-608
-709
-906
-1137
-1354
-1523
-1619
-1659
-1707
-1799
-1887
-1881
-1748
-1554
-1388
-1270
-1148
-975
-775
-604
-494
-420
-329
-185
-5
156
257
303
348
438
559
649
678
671
674
693
705
723
812
1011
1261
1459
1575
1683
1842
1988
1997
1849
1688
1677
1829
2010
2095
2099
2113
2173
2221
2204
2141
2075
1991
1841
1659
1575
1693
1945
2148
2195
2174
2256
2480
2709
2793
2749
2718
2783
2879
2914
2918
3014
3252
3515
3645
3617
3551
3558
3604
3575
3405
3129
2825
2568
2425
2440
2585
2726
2720
2557
2369
2286
2274
2165
1855
1453
1199
1218
1406
1534
1485
1375
1425
1712
2047
2146
1919
1585
1451
1587
1775
1802
1768
2030
2836
4072
5389
6556
7634
8763
9888
10729
11029
10761
10110
9275
8328
7255
6073
4904
3939
3331
3105
3143
3254
3267
3115
2838
2514
2190
1862
1500
1096
693
378
225
229
316
405
467
522
593
670
730
753
724
641
516
389
300
243
174
67
-36
-69
-34
-9
-58
-143
-177
-141
-118
-197
-377
-586
-771
-927
-1037
-1053
-952
-801
-704
-689
-696
-686
-719
-893
-1205
-1526
-1713
-1747
-1716
-1687
-1626
-1461
-1201
-952
-808
-760
-716
-620
-512
-469
-502
-538
-498
-373
-234
-145
-100
-59
19
131
255
388
545
718
856
900
838
736
681
685
686
645
623
725
994
1355
1699
1995
2280
2556
2745
2777
2690
2594
2535
2436
2204
1877
1626
1600
1771
1970
2068
2095
2182
2390
2631
2768
2745
2623
2496
2402
2314
2206
2086
1996
1971
2013
2089
2162
2231
2320
2427
2509
2508
2431
2355
2354
2427
2519
2605
2714
2875
3051
3180
3247
3288
3327
3322
3215
3005
2761
2558
2420
2328
2274
2280
2345
2436
2501
2493
2403
2274
2153
2042
1872
1580
1209
892
721
634
510
382
481
1037
2019
3153
4192
5138
6155
7293
8340
8967
9004
8553
7876
7163
6435
5619
4702
3811
3134
2770
2654
2652
2646
2562
2343
1954
1457
1020
774
676
564
356
146
74
135
183
104
-79
-284
-474
-674
-877
-1012
-1027
-946
-841
-739
-621
-471
-326
-235
-211
-245
-328
-459
-614
-751
-846
-916
-993
-1095
-1220
-1365
-1520
-1654
-1728
-1737
-1727
-1744
-1808
-1912
-2063
-2280
-2547
-2795
-2957
-3045
-3137
-3287
-3453
-3523
-3426
-3209
-3001
-2895
-2872
-2831
-2704
-2530
-2409
-2407
-2488
-2556
-2546
-2465
-2343
-2175
-1927
-1595
-1231
-887
-574
-291
-64
50
19
-125
-315
-491
-607
-622
-533
-396
-299
-269
-235
-118
56
163
111
-63
-231
-297
-270
-222
-210
-245
-301
-348
-367
-362
-363
-392
-441
-461
-401
-253
-62
110
235
320
379
414
415
388
361
361
383
400
399
399
420
439
427
392
390
452
550
616
624
614
629
658
636
517
318
110
-33
-94
-120
-171
-261
-334
-329
-250
-166
-141
-181
-241
-266
-239
-176
-111
-71
-61
-67
-77
-94
-148
-264
-452
-668
-795
-664
-158
669
1604
2447
3179
3929
4759
5512
5918
5827
5318
4611
3890
3238
2666
2155
1670
1212
870
766
919
1161
1240
1045
683
344
114
-62
-267
-495
-669
-733
-727
-718
-728
-723
-684
-656
-692
-778
-814
-721
-545
-438
-494
-654
-768
-770
-749
-838
-1058
-1303
-1462
-1513
-1498
-1446
-1353
-1231
-1128
-1084
-1094
-1125
-1180
-1295
-1478
-1666
-1776
-1770
-1686
-1593
-1542
-1550
-1600
-1653
-1683
-1710
-1783
-1938
-2150
-2338
-2438
-2455
-2435
-2400
-2327
-2189
-2003
-1810
-1634
-1468
-1308
-1180
-1113
-1095
-1066
-974
-823
-662
-536
-450
-377
-296
-215
-158
-147
-173
-199
-183
-114
-23
46
80
115
201
346
504
581
515
332
148
87
178
330
422
434
462
614
878
1126
1248
1259
1257
1310
1370
1347
1232
1096
1012
954
856
714
624
666
789
836
706
471
299
283
354
388
359
358
481
714
956
1119
1189
1207
1197
1163
1102
1012
887
731
571
449
393
398
433
482
545
591
582
510
441
458
581
742
844
835
755
664
571
408
112
-278
-606
-735
-694
-647
-649
-513
46
1067
2238
3191
3870
4532
5377
6247
6766
6726
6275
5699
5148
4581
3930
3224
2562
2013
1614
1377
1273
1207
1052
770
434
136
-130
-456
-886
-1319
-1595
-1661
-1635
-1669
-1784
-1865
-1840
-1781
-1816
-1944
-2032
-1996
-1960
-2121
-2508
-2905
-3059
-2933
-2719
-2613
-2633
-2629
-2473
-2187
-1900
-1736
-1746
-1886
-2072
-2246
-2407
-2572
-2735
-2865
-2941
-2979
-3015
-3042
-3024
-2956
-2909
-2959
-3101
-3247
-3318
-3326
-3346
-3413
-3487
-3514
-3501
-3500
-3531
-3548
-3497
-3382
-3277
-3239
-3267
-3312
-3339
-3348
-3357
-3351
-3310
-3213
-3055
-2842
-2603
-2369
-2162
-1985
-1819
-1664
-1544
-1480
-1455
-1410
-1315
-1195
-1093
-1019
-954
-884
-820
-767
-689
-556
-395
-278
-229
-195
-110
-2
24
-85
-250
-341
-314
-256
-271
-357
-421
-395
-289
-166
-69
-14
-12
-70
-159
-219
-222
-206
-237
-317
-369
-325
-207
-92
-26
35
160
330
451
470
435
443
513
557
496
371
309
365
448
428
298
173
141
165
128
1
-135
-183
-144
-82
-49
-36
-15
11
9
-21
-45
-54
-113
-310
-662
-1068
-1404
-1638
-1825
-1963
-1890
-1388
-391
936
2351
3729
5077
6371
7442
8059
8109
7661
6877
5905
4858
3858
3005
2340
1833
1452
1208
1131
1183
1223
1099
766
313
-112
-428
-676
-953
-1292
-1625
-1851
-1948
-1981
-2015
-2048
-2029
-1930
-1782
-1649
-1560
-1493
-1411
-1330
-1316
-1422
-1621
-1801
-1866
-1835
-1824
-1917
-2077
-2182
-2158
-2064
-2026
-2104
-2248
-2364
-2437
-2544
-2749
-3002
-3173
-3183
-3100
-3055
-3077
-3061
-2906
-2669
-2542
-2633
-2854
-3031
-3116
-3236
-3501
-3846
-4072
-4057
-3864
-3641
-3480
-3358
-3209
-3016
-2817
-2674
-2618
-2642
-2701
-2743
-2732
-2659
-2539
-2396
-2253
-2120
-1997
-1877
-1750
-1610
-1453
-1298
-1167
-1083
-1036
-966
-827
-654
-558
-622
-799
-951
-972
-883
-783
-735
-704
-596
-378
-109
103
184
145
58
-10
-49
-104
-221
-393
-553
-629
-611
-556
-547
-617
-722
-795
-821
-852
-952
-1106
-1227
-1241
-1149
-1022
-903
-767
-557
-269
20
222
304
295
237
143
10
-154
-317
-448
-515
-473
-300
-48
156
183
-11
-367
-781
-1174
-1491
-1689
-1735
-1608
-1334
-988
-656
-380
-172
-73
-201
-674
-1447
-2285
-2925
-3275
-3399
-3325
-2943
-2149
-1026
192
1346
2462
3570
4509
5012
4978
4568
4027
3458
2795
1970
1031
96
-730
-1363
-1735
-1859
-1844
-1859
-1980
-2147
-2274
-2362
-2479
-2667
-2900
-3130
-3337
-3521
-3666
-3736
-3718
-3650
-3576
-3505
-3423
-3330
-3262
-3264
-3358
-3545
-3803
-4074
-4277
-4359
-4353
-4338
-4351
-4332
-4200
-3962
-3742
-3681
-3799
-3991
-4150
-4268
-4423
-4653
-4884
-4980
-4874
-4633
-4407
-4298
-4273
-4238
-4167
-4156
-4307
-4598
-4876
-5018
-5040
-5045
-5076
-5066
-4949
-4769
-4644
-4619
-4629
-4616
-4621
-4713
-4850
-4879
-4702
-4389
-4101
-3905
-3725
-3461
-3130
-2840
-2678
-2637
-2659
-2699
-2736
-2749
-2726
-2674
-2603
-2518
-2415
-2297
-2170
-2027
-1855
-1673
-1519
-1410
-1318
-1211
-1116
-1091
-1153
-1244
-1309
-1374
-1505
-1702
-1869
-1904
-1827
-1764
-1798
-1887
-1934
-1886
-1779
-1679
-1616
-1572
-1512
-1421
-1326
-1292
-1376
-1547
-1670
-1632
-1451
-1262
-1173
-1153
-1071
-857
-567
-330
-246
-336
-553
-807
-986
-1026
-966
-914
-919
-912
-804
-607
-437
-404
-507
-648
-757
-845
-940
-1021
-1026
-945
-829
-754
-746
-744
-699
-662
-751
-1034
-1413
-1686
-1738
-1678
-1713
-1875
-1900
-1432
-399
880
1982
2781
3514
4436
5468
6202
6307
5829
5102
4402
3749
3032
2238
1501
956
626
456
395
396
356
132
-284
-733
-1029
-1148
-1250
-1474
-1756
-1887
-1752
-1456
-1228
-1220
-1397
-1606
-1715
-1691
-1579
-1451
-1371
-1366
-1400
-1385
-1278
-1155
-1178
-1441
-1832
-2114
-2134
-1971
-1845
-1879
-1995
-2027
-1925
-1798
-1778
-1911
-2153
-2422
-2644
-2758
-2745
-2669
-2637
-2705
-2808
-2851
-2817
-2804
-2926
-3186
-3470
-3651
-3685
-3633
-3569
-3504
-3379
-3151
-2865
-2624
-2467
-2345
-2187
-2014
-1918
-1928
-1976
-2000
-2031
-2125
-2231
-2224
-2053
-1822
-1673
-1610
-1524
-1376
-1254
-1232
-1212
-1029
-676
-359
-265
-328
-297
-18
374
598
511
232
14
2
136
259
286
260
272
346
429
473
490
514
528
456
263
27
-91
-2
236
454
521
424
279
204
247
347
400
360
262
184
174
213
245
241
220
238
338
513
712
883
1010
1121
1257
1422
1565
1611
1520
1340
1183
1138
1180
1202
1135
1021
979
1052
1164
1197
1120
1009
909
746
437
46
-251
-374
-474
-756
-1189
-1486
-1410
-1057
-711
-438
35
1003
2387
3782
4904
5851
6875
7951
8716
8835
8337
7547
6734
5915
4984
3943
2948
2166
1668
1410
1306
1243
1094
781
338
-140
-578
-975
-1371
-1774
-2133
-2385
-2509
-2532
-2492
-2426
-2374
-2394
-2514
-2686
-2813
-2825
-2753
-2698
-2716
-2757
-2720
-2571
-2395
-2310
-2357
-2466
-2555
-2615
-2705
-2862
-3026
-3108
-3085
-3033
-3041
-3119
-3191
-3209
-3216
-3288
-3431
-3559
-3590
-3548
-3536
-3616
-3735
-3801
-3806
-3839
-3994
-4253
-4515
-4708
-4838
-4939
-5002
-4986
-4898
-4806
-4771
-4776
-4762
-4715
-4691
-4741
-4827
-4865
-4805
-4672
-4515
-4352
-4179
-4014
-3891
-3817
-3753
-3660
-3535
-3390
-3221
-3015
-2793
-2622
-2553
-2579
-2652
-2728
-2801
-2891
-3008
-3118
-3145
-3024
-2767
-2472
-2250
-2124
-2029
-1927
-1881
-1978
-2189
-2377
-2435
-2412
-2426
-2490
-2499
-2395
-2277
-2307
-2503
-2717
-2804
-2767
-2709
-2672
-2600
-2434
-2209
-2016
-1903
-1854
-1849
-1895
-1995
-2114
-2207
-2272
-2334
-2401
-2437
-2410
-2338
-2287
-2300
-2363
-2430
-2469
-2481
-2480
-2472
-2445
-2385
-2294
-2192
-2112
-2076
-2091
-2125
-2142
-2146
-2175
-2262
-2388
-2518
-2660
-2875
-3203
-3608
-3999
-4307
-4497
-4496
-4176
-3470
-2470
-1378
-314
759
1897
2994
3797
4118
3976
3531
2925
2212
1431
639
-109
-789
-1358
-1728
-1833
-1746
-1670
-1771
-2018
-2247
-2342
-2344
-2381
-2515
-2689
-2805
-2820
-2770
-2720
-2703
-2714
-2725
-2712
-2693
-2704
-2764
-2843
-2900
-2932
-2988
-3115
-3284
-3409
-3433
-3385
-3343
-3359
-3412
-3450
-3437
-3372
-3283
-3211
-3182
-3203
-3256
-3317
-3375
-3423
-3462
-3503
-3560
-3636
-3707
-3735
-3707
-3657
-3620
-3598
-3569
-3528
-3494
-3484
-3484
-3477
-3470
-3470
-3447
-3359
-3215
-3078
-3004
-2966
-2890
-2758
-2638
-2600
-2622
-2611
-2502
-2339
-2202
-2119
-2059
-1985
-1903
-1845
-1820
-1803
-1761
-1680
-1571
-1443
-1294
-1123
-950
-810
-735
-720
-730
-720
-678
-638
-638
-683
-729
-735
-700
-666
-676
-737
-813
-870
-898
-910
-914
-903
-876
-851
-843
-841
-816
-766
-722
-717
-745
-759
-735
-699
-691
-723
-768
-808
-859
-946
-1055
-1137
-1146
-1068
-918
-725
-508
-284
-56
176
394
535
507
260
-153
-579
-857
-934
-895
-863
-863
-793
-544
-126
306
567
581
424
223
32
-199
-544
-987
-1418
-1740
-1953
-2100
-2136
-1895
-1242
-259
803
1754
2630
3583
4620
5508
5961
5882
5401
4733
4008
3267
2528
1823
1190
672
321
176
199
259
209
-20
-372
-740
-1048
-1281
-1473
-1668
-1893
-2149
-2404
-2606
-2711
-2698
-2597
-2478
-2400
-2370
-2324
-2181
-1934
-1696
-1639
-1846
-2206
-2488
-2564
-2504
-2488
-2592
-2704
-2667
-2468
-2258
-2185
-2259
-2386
-2493
-2575
-2645
-2682
-2643
-2515
-2329
-2137
-1997
-1956
-2020
-2151
-2300
-2484
-2746
-3062
-3320
-3413
-3359
-3289
-3287
-3308
-3268
-3168
-3097
-3101
-3124
-3094
-3033
-3027
-3100
-3171
-3158
-3093
-3097
-3224
-3389
-3440
-3329
-3153
-3039
-2999
-2929
-2723
-2398
-2064
-1812
-1641
-1495
-1343
-1201
-1108
-1098
-1189
-1377
-1605
-1778
-1827
-1770
-1688
-1634
-1578
-1458
-1261
-1061
-945
-944
-1023
-1124
-1214
-1295
-1381
-1471
-1551
-1613
-1666
-1721
-1771
-1793
-1778
-1746
-1733
-1763
-1823
-1877
-1884
-1822
-1719
-1663
-1770
-2096
-2558
-2956
-3109
-2994
-2739
-2496
-2300
-2052
-1633
-1052
-477
-123
-93
-319
-629
-890
-1077
-1240
-1411
-1565
-1651
-1651
-1610
-1578
-1554
-1516
-1486
-1536
-1718
-1987
-2238
-2408
-2520
-2630
-2745
-2848
-2933
-2982
-2890
-2487
-1705
-704
256
1052
1789
2586
3357
3838
3841
3427
2814
2168
1516
841
173
-421
-899
-1252
-1471
-1545
-1526
-1555
-1778
-2226
-2775
-3238
-3501
-3602
-3669
-3769
-3836
-3744
-3456
-3089
-2818
-2725
-2757
-2820
-2878
-2956
-3064
-3169
-3236
-3278
-3332
-3395
-3433
-3423
-3390
-3383
-3432
-3517
-3601
-3635
-3589
-3472
-3337
-3241
-3201
-3184
-3165
-3176
-3270
-3450
-3638
-3747
-3770
-3775
-3830
-3935
-4030
-4062
-4036
-4001
-4013
-4088
-4198
-4298
-4359
-4389
-4418
-4464
-4511
-4527
-4505
-4463
-4417
-4359
-4271
-4153
-4038
-3948
-3870
-3767
-3628
-3476
-3352
-3251
-3133
-2958
-2740
-2536
-2394
-2304
-2219
-2112
-2009
-1957
-1960
-1949
-1859
-1705
-1573
-1527
-1518
-1434
-1240
-1028
-927
-963
-1032
-1020
-920
-831
-824
-885
-938
-923
-833
-703
-583
-523
-537
-592
-636
-648
-665
-741
-882
-1029
-1101
-1061
-931
-773
-633
-512
-371
-190
-7
86
32
-129
-284
-347
-320
-259
-187
-81
72
216
276
212
67
-104
-276
-462
-666
-852
-957
-963
-913
-865
-834
-766
-624
-471
-437
-572
-772
-893
-928
-1003
-1210
-1461
-1597
-1579
-1508
-1409
-1118
-441
599
1757
2810
3756
4712
5670
6427
6739
6529
5909
5092
4264
3530
2894
2297
1726
1282
1091
1134
1219
1122
801
382
9
-306
-630
-983
-1282
-1428
-1390
-1223
-1023
-869
-798
-817
-918
-1076
-1259
-1426
-1548
-1643
-1739
-1837
-1898
-1868
-1754
-1615
-1497
-1393
-1286
-1196
-1160
-1178
-1203
-1211
-1255
-1404
-1645
-1892
-2066
-2157
-2205
-2218
-2173
-2081
-1993
-1959
-1962
-1955
-1943
-1999
-2184
-2449
-2669
-2754
-2719
-2646
-2585
-2541
-2507
-2482
-2471
-2463
-2446
-2437
-2474
-2556
-2632
-2648
-2584
-2455
-2291
-2111
-1940
-1791
-1655
-1512
-1368
-1258
-1212
-1216
-1227
-1225
-1234
-1286
-1372
-1449
-1491
-1497
-1468
-1389
-1237
-1025
-794
-585
-419
-291
-187
-104
-60
-91
-216
-395
-548
-625
-653
-691
-759
-803
-778
-710
-668
-667
-649
-563
-455
-424
-499
-586
-581
-494
-443
-511
-644
-707
-634
-489
-384
-362
-372
-328
-222
-131
-144
-270
-421
-496
-476
-423
-400
-396
-347
-225
-96
-45
-87
-164
-216
-252
-315
-416
-492
-485
-398
-261
-117
6
92
125
92
-20
-241
-581
-984
-1348
-1612
-1789
-1875
-1721
-1106
41
1510
2979
4293
5537
6803
7948
8641
8649
8046
7131
6168
5241
4297
3291
2293
1479
1009
888
937
909
650
202
-291
-734
-1133
-1540
-1976
-2407
-2770
-2996
-3039
-2909
-2669
-2417
-2251
-2235
-2358
-2527
-2611
-2557
-2448
-2433
-2567
-2737
-2772
-2621
-2390
-2234
-2221
-2312
-2425
-2510
-2562
-2613
-2704
-2840
-2979
-3054
-3054
-3030
-3028
-3029
-2979
-2877
-2814
-2886
-3085
-3311
-3469
-3558
-3644
-3779
-3944
-4081
-4135
-4081
-3928
-3742
-3626
-3655
-3822
-4021
-4113
-4036
-3844
-3647
-3496
-3341
-3090
-2727
-2342
-2055
-1920
-1906
-1954
-2027
-2095
-2107
-1996
-1742
-1423
-1155
-992
-879
-702
-417
-116
60
64
1
30
204
413
514
488
448
485
554
542
423
313
356
550
735
765
666
597
675
841
932
867
721
631
652
727
783
815
844
851
804
736
734
824
907
867
714
596
644
843
1051
1162
1174
1150
1145
1178
1247
1344
1435
1478
1472
1489
1606
1828
2073
2232
2264
2219
2185
2209
2271
2319
2316
2278
2249
2260
2313
2390
2455
2451
2313
2034
1698
1416
1202
966
671
500
760
1596
2806
4000
4962
5826
6843
8030
9070
9572
9386
8680
7753
6822
5953
5114
4261
3410
2662
2145
1904
1857
1837
1701
1414
1033
641
307
66
-104
-245
-378
-473
-495
-479
-513
-633
-757
-768
-657
-555
-585
-723
-821
-765
-587
-417
-341
-364
-459
-613
-802
-965
-1054
-1073
-1070
-1072
-1062
-1023
-969
-912
-849
-787
-773
-858
-1007
-1101
-1059
-948
-917
-1026
-1174
-1245
-1256
-1338
-1559
-1828
-2002
-2052
-2062
-2094
-2121
-2065
-1910
-1713
-1519
-1336
-1179
-1101
-1142
-1269
-1413
-1555
-1721
-1907
-2022
-1962
-1727
-1420
-1118
-796
-384
92
485
675
701
705
772
830
771
600
441
395
438
485
508
561
673
790
841
845
893
1017
1134
1152
1083
1038
1095
1209
1272
1223
1100
988
935
915
861
730
560
440
423
478
526
555
640
836
1084
1248
1271
1239
1272
1364
1406
1336
1232
1230
1375
1571
1682
1663
1576
1514
1515
1552
1561
1511
1429
1389
1437
1545
1623
1605
1511
1396
1295
1192
1069
951
887
870
817
640
352
86
-38
-68
-189
-489
-764
-648
37
1085
2119
2975
3817
4849
5975
6834
7147
6953
6483
5881
5126
4201
3228
2389
1762
1282
890
617
529
579
591
418
69
-325
-649
-914
-1206
-1564
-1917
-2148
-2207
-2150
-2069
-2019
-1994
-1976
-1972
-1991
-2017
-2034
-2045
-2080
-2157
-2253
-2325
-2358
-2372
-2417
-2518
-2671
-2845
-3004
-3120
-3181
-3191
-3180
-3187
-3248
-3363
-3495
-3605
-3692
-3790
-3928
-4084
-4206
-4269
-4311
-4380
-4482
-4575
-4633
-4669
-4715
-4779
-4841
-4884
-4916
-4942
-4952
-4940
-4935
-4970
-5057
-5171
-5292
-5429
-5584
-5706
-5719
-5583
-5346
-5090
-4850
-4580
-4210
-3742
-3271
-2911
-2694
-2570
-2481
-2426
-2461
-2606
-2793
-2924
-2953
-2908
-2833
-2725
-2543
-2285
-2003
-1761
-1595
-1500
-1456
-1437
-1423
-1416
-1448
-1555
-1717
-1855
-1901
-1863
-1814
-1804
-1816
-1811
-1779
-1760
-1776
-1806
-1816
-1807
-1807
-1816
-1818
-1795
-1766
-1766
-1796
-1809
-1759
-1628
-1450
-1288
-1188
-1140
-1090
-993
-861
-752
-709
-711
-710
-692
-675
-659
-611
-521
-442
-436
-492
-521
-475
-410
-419
-497
-530
-449
-348
-365
-510
-646
-692
-750
-984
-1384
-1747
-1905
-1896
-1835
-1675
-1195
-275
913
2055
2999
3848
4715
5491
5904
5789
5240
4493
3728
2998
2292
1608
963
413
41
-93
-23
86
37
-238
-642
-1011
-1260
-1432
-1625
-1887
-2164
-2340
-2346
-2229
-2109
-2083
-2135
-2190
-2208
-2233
-2317
-2441
-2532
-2551
-2540
-2550
-2557
-2492
-2331
-2148
-2034
-2004
-2006
-1995
-1988
-2009
-2045
-2063
-2058
-2068
-2124
-2191
-2215
-2186
-2157
-2179
-2250
-2317
-2344
-2351
-2376
-2419
-2442
-2426
-2407
-2445
-2541
-2623
-2614
-2537
-2494
-2553
-2669
-2730
-2678
-2562
-2471
-2425
-2374
-2270
-2127
-1982
-1839
-1670
-1467
-1282
-1164
-1102
-1036
-926
-794
-684
-605
-522
-403
-266
-152
-67
30
170
322
424
451
447
485
590
739
882
996
1068
1098
1088
1062
1058
1092
1136
1145
1103
1043
1031
1103
1224
1324
1356
1333
1315
1341
1406
1472
1508
1517
1513
1506
1486
1446
1395
1356
1348
1365
1394
1425
1492
1632
1839
2058
2219
2294
2295
2259
2219
2196
2201
2210
2182
2102
2026
2030
2129
2246
2289
2256
2247
2341
2509
2665
2748
2754
2710
2631
2503
2305
2022
1664
1296
1005
866
881
1058
1461
2181
3212
4375
5456
6390
7303
8301
9263
9893
9975
9576
8970
8375
7794
7096
6201
5212
4338
3742
3418
3231
3036
2766
2453
2158
1892
1618
1322
1031
788
623
535
525
579
681
800
904
977
1013
1002
930
808
681
605
605
659
722
754
741
685
590
455
276
58
-169
-342
-395
-298
-92
145
358
539
690
763
676
396
5
-353
-589
-728
-851
-985
-1060
-982
-743
-453
-267
-275
-450
-687
-883
-981
-985
-937
-866
-768
-606
-347
-24
284
499
610
654
666
650
607
581
628
746
873
957
1009
1087
1218
1377
1540
1713
1900
2061
2143
2150
2158
2239
2389
2537
2633
2694
2763
2852
2928
2965
2967
2945
2892
2796
2677
2591
2580
2631
2690
2721
2743
2798
2894
2993
3065
3116
3178
3257
3311
3301
3242
3204
3236
3315
3366
3326
3206
3091
3062
3145
3287
3409
3475
3522
3601
3707
3767
3721
3594
3474
3418
3405
3375
3310
3251
3247
3300
3371
3431
3470
3489
3496
3495
3503
3524
3534
3521
3499
3489
3466
3375
3203
3019
2897
2820
2707
2576
2623
3072
3941
4994
5975
6856
7799
8873
9888
10528
10635
10310
9767
9128
8386
7521
6589
5702
4961
4425
4107
3974
3951
3935
3848
3683
3473
3254
3039
2809
2541
2253
2007
1856
1807
1815
1828
1847
1900
1991
2067
2078
2030
1977
1959
1957
1931
1882
1858
1894
1972
2044
2082
2085
2069
2041
2000
1960
1927
1893
1858
1845
1876
1935
1978
1986
1987
2013
2042
2019
1935
1851
1825
1838
1807
1691
1541
1453
1451
1478
1455
1358
1223
1115
1079
1131
1246
1367
1430
1405
1325
1261
1263
1320
1367
1368
1378
1507
1819
2253
2654
2905
3009
3053
3098
3118
3055
2916
2774
2721
2790
2965
3214
3509
3813
4083
4291
4433
4506
4486
4360
4172
4011
3937
3908
3840
3719
3636
3683
3844
3995
4050
4049
4104
4259
4435
4507
4443
4320
4221
4156
4070
3938
3807
3744
3763
3822
3878
3925
3990
4086
4193
4281
4340
4383
4416
4424
4396
4346
4295
4253
4196
4108
4009
3943
3934
3950
3943
3892
3822
3757
3692
3623
3564
3529
3506
3463
3401
3373
3428
3526
3552
3427
3187
2935
2721
2502
2252
2076
2193
2760
3733
4879
5964
6919
7839
8800
9662
10112
9921
9171
8221
7400
6759
6117
5332
4494
3838
3519
3481
3540
3527
3346
2986
2512
2046
1705
1501
1322
1049
695
409
328
437
587
643
583
484
425
429
459
456
376
226
65
-34
-42
5
56
97
143
176
149
40
-106
-218
-282
-346
-449
-577
-695
-803
-911
-1008
-1078
-1148
-1275
-1467
-1664
-1804
-1900
-2004
-2106
-2133
-2057
-1973
-1992
-2091
-2135
-2048
-1932
-1953
-2132
-2313
-2340
-2236
-2143
-2142
-2146
-2023
-1766
-1498
-1333
-1262
-1192
-1064
-912
-803
-757
-743
-705
-609
-435
-198
55
263
383
442
518
669
859
979
953
822
751
850
1043
1113
942
662
540
677
894
946
822
751
912
1209
1376
1288
1084
983
1044
1132
1120
1030
995
1102
1305
1475
1540
1547
1607
1782
1990
2074
1973
1796
1721
1807
1934
1929
1762
1571
1506
1575
1661
1665
1604
1579
1647
1748
1764
1631
1410
1229
1172
1199
1218
1206
1237
1354
1510
1615
1647
1690
1804
1916
1882
1657
1362
1158
1044
848
452
-13
-211
116
928
1961
3001
4067
5281
6616
7811
8574
8806
8610
8114
7354
6350
5226
4166
3288
2597
2089
1809
1785
1908
1949
1758
1389
1011
717
453
116
-312
-741
-1045
-1156
-1105
-992
-904
-853
-782
-632
-445
-312
-288
-332
-372
-392
-448
-571
-703
-763
-747
-739
-802
-896
-918
-824
-676
-574
-552
-577
-605
-641
-712
-821
-940
-1050
-1147
-1240
-1321
-1379
-1420
-1475
-1585
-1763
-1993
-2234
-2441
-2582
-2666
-2741
-2833
-2910
-2905
-2791
-2624
-2496
-2449
-2432
-2360
-2206
-2025
-1908
-1880
-1895
-1867
-1767
-1636
-1524
-1420
-1266
-1030
-754
-491
-249
-5
235
413
481
454
399
367
364
379
397
408
407
417
487
646
832
926
870
745
701
795
924
944
840
739
757
854
884
765
588
508
557
618
582
480
439
512
603
593
491
416
449
539
588
577
576
658
799
913
946
929
944
1043
1189
1278
1238
1107
1000
1008
1105
1182
1163
1073
1011
1049
1174
1312
1381
1357
1275
1199
1192
1256
1319
1299
1195
1078
978
826
528
116
-262
-512
-700
-902
-961
-545
523
2024
3547
4902
6248
7742
9178
10093
10207
9684
8900
8047
7052
5829
4499
3320
2462
1919
1599
1418
1307
1171
942
642
339
66
-219
-573
-980
-1339
-1530
-1525
-1413
-1328
-1321
-1334
-1290
-1214
-1223
-1402
-1696
-1947
-2041
-1992
-1879
-1746
-1560
-1278
-912
-545
-272
-147
-162
-257
-369
-471
-578
-709
-861
-994
-1068
-1081
-1070
-1074
-1100
-1118
-1094
-1047
-1035
-1102
-1229
-1351
-1428
-1487
-1582
-1723
-1852
-1908
-1876
-1789
-1661
-1478
-1230
-970
-790
-748
-822
-949
-1090
-1257
-1452
-1607
-1619
-1436
-1110
-742
-386
-29
343
694
946
1061
1071
1034
986
931
874
839
863
954
1092
1243
1378
1496
1611
1727
1827
1890
1925
1969
2061
2197
2332
2420
2456
2464
2462
2440
2376
2284
2212
2204
2258
2329
2370
2381
2390
2408
2407
2350
2233
2096
1974
1863
1738
1585
1421
1286
1210
1199
1227
1257
1278
1312
1391
1500
1585
1590
1515
1411
1316
1219
1089
930
795
730
733
756
769
768
764
759
723
642
547
479
451
448
439
383
229
-58
-455
-877
-1254
-1602
-1963
-2250
-2220
-1657
-611
611
1731
2740
3817
5009
6068
6636
6562
5995
5217
4409
3587
2699
1739
790
0
-503
-709
-743
-792
-966
-1227
-1473
-1679
-1907
-2225
-2630
-3058
-3438
-3716
-3866
-3898
-3878
-3896
-3993
-4123
-4206
-4221
-4234
-4313
-4446
-4557
-4580
-4514
-4400
-4272
-4156
-4075
-4052
-4070
-4078
-4037
-3961
-3901
-3887
-3902
-3910
-3914
-3941
-4009
-4104
-4201
-4288
-4356
-4399
-4408
-4399
-4399
-4407
-4399
-4365
-4343
-4391
-4525
-4683
-4779
-4778
-4722
-4670
-4637
-4589
-4491
-4360
-4248
-4198
-4203
-4211
-4177
-4092
-3966
-3812
-3637
-3442
-3224
-2970
-2680
-2390
-2158
-2031
-1989
-1960
-1874
-1722
-1553
-1420
-1330
-1235
-1065
-785
-443
-136
62
160
221
282
315
274
170
58
-16
-61
-117
-178
-212
-193
-133
-61
-3
30
25
-5
-27
-19
-8
-43
-136
-236
-292
-317
-361
-435
-476
-427
-304
-182
-89
23
200
403
538
555
504
462
448
422
362
300
277
290
296
279
260
262
279
284
258
209
154
103
64
37
4
-27
-51
-63
-68
-73
-95
-158
-285
-468
-649
-771
-849
-951
-1074
-1050
-671
96
1043
1910
2648
3396
4236
5028
5520
5601
5383
5046
4679
4269
3807
3319
2830
2339
1866
1464
1176
987
826
641
429
212
19
-109
-149
-137
-170
-320
-547
-732
-802
-814
-893
-1075
-1265
-1336
-1254
-1104
-993
-968
-1000
-1028
-1002
-903
-763
-650
-618
-659
-715
-748
-780
-863
-1003
-1148
-1242
-1262
-1236
-1203
-1189
-1193
-1201
-1196
-1179
-1169
-1197
-1275
-1382
-1499
-1623
-1744
-1838
-1879
-1873
-1849
-1822
-1773
-1681
-1585
-1566
-1670
-1837
-1956
-1977
-1955
-1972
-2025
-2021
-1880
-1614
-1288
-927
-509
-61
311
506
540
534
580
649
643
536
413
386
496
701
917
1071
1132
1128
1120
1161
1240
1286
1240
1140
1075
1101
1183
1241
1241
1223
1247
1314
1344
1259
1065
856
717
650
584
476
374
363
462
609
746
889
1082
1313
1497
1557
1504
1422
1371
1336
1273
1188
1140
1190
1333
1497
1599
1624
1613
1602
1586
1532
1426
1309
1238
1241
1287
1334
1373
1432
1522
1608
1630
1561
1436
1301
1185
1079
969
872
826
834
840
760
569
325
129
13
-86
-217
-294
-117
444
1307
2225
3023
3738
4512
5370
6126
6521
6459
6071
5566
5052
4507
3878
3199
2562
2048
1687
1474
1394
1375
1297
1060
684
299
22
-160
-363
-656
-971
-1173
-1201
-1105
-985
-890
-818
-764
-745
-776
-844
-920
-978
-1010
-1012
-988
-957
-947
-956
-949
-891
-801
-767
-853
-1028
-1167
-1180
-1110
-1088
-1198
-1384
-1515
-1519
-1443
-1390
-1419
-1534
-1707
-1910
-2110
-2268
-2361
-2411
-2449
-2480
-2465
-2360
-2164
-1933
-1762
-1701
-1723
-1747
-1724
-1689
-1711
-1790
-1838
-1784
-1655
-1552
-1547
-1622
-1703
-1741
-1727
-1658
-1526
-1334
-1107
-861
-581
-255
74
309
381
318
220
170
177
203
214
205
193
198
235
301
361
350
241
80
-37
-48
25
108
146
149
154
171
169
116
39
2
35
116
198
283
423
642
878
1018
1004
895
806
786
789
742
644
558
539
582
655
736
807
841
815
739
664
625
610
593
572
582
641
706
712
627
488
353
262
215
189
160
128
130
197
307
389
388
311
206
89
-66
-256
-421
-512
-556
-584
-511
-149
580
1501
2328
2940
3479
4134
4877
5444
5588
5298
4762
4192
3687
3222
2729
2177
1616
1172
948
927
974
933
755
513
301
148
20
-125
-286
-420
-490
-494
-482
-506
-576
-663
-730
-774
-822
-909
-1049
-1227
-1394
-1492
-1488
-1419
-1380
-1424
-1505
-1513
-1395
-1230
-1156
-1234
-1397
-1530
-1570
-1543
-1508
-1489
-1490
-1515
-1561
-1613
-1652
-1691
-1779
-1971
-2260
-2563
-2778
-2865
-2857
-2816
-2763
-2681
-2576
-2512
-2564
-2714
-2863
-2946
-2992
-3056
-3088
-2937
-2533
-1989
-1507
-1175
-910
-621
-345
-198
-207
-276
-316
-334
-377
-418
-378
-247
-110
-47
-26
50
226
447
627
732
798
880
1024
1232
1440
1542
1470
1283
1131
1100
1124
1065
884
693
609
631
655
626
596
636
728
798
827
882
1008
1142
1183
1133
1113
1218
1397
1501
1464
1371
1352
1438
1556
1620
1625
1616
1631
1679
1757
1847
1914
1924
1893
1881
1928
2005
2043
2008
1925
1832
1742
1637
1505
1355
1193
1028
891
825
850
950
1066
1141
1167
1172
1187
1194
1124
930
647
363
136
-44
-170
-135
220
921
1791
2610
3343
4133
5059
5951
6498
6531
6138
5523
4812
4019
3155
2291
1514
858
338
2
-87
39
202
199
-50
-464
-891
-1249
-1560
-1886
-2234
-2550
-2773
-2869
-2838
-2698
-2495
-2315
-2237
-2286
-2429
-2614
-2797
-2947
-3037
-3062
-3045
-3009
-2938
-2783
-2556
-2367
-2352
-2531
-2774
-2929
-2975
-3004
-3080
-3170
-3215
-3230
-3280
-3386
-3485
-3514
-3500
-3523
-3600
-3673
-3699
-3712
-3765
-3848
-3897
-3895
-3904
-3968
-4049
-4064
-3985
-3859
-3723
-3553
-3340
-3167
-3153
-3298
-3462
-3513
-3489
-3545
-3729
-3883
-3800
-3451
-3020
-2694
-2484
-2258
-1953
-1662
-1512
-1505
-1515
-1453
-1376
-1391
-1511
-1630
-1644
-1555
-1447
-1383
-1354
-1319
-1266
-1200
-1112
-979
-832
-742
-763
-844
-875
-802
-688
-637
-669
-696
-641
-537
-483
-512
-548
-518
-476
-545
-752
-953
-965
-781
-589
-564
-685
-771
-694
-506
-361
-335
-382
-426
-445
-458
-469
-463
-437
-400
-353
-275
-169
-71
-12
33
124
274
414
463
422
376
396
462
499
469
414
423
535
675
740
698
603
506
378
149
-183
-519
-761
-894
-954
-884
-519
254
1357
2571
3742
4867
5972
6959
7606
7731
7347
6634
5801
4962
4115
3227
2354
1663
1325
1336
1475
1490
1301
1031
826
667
397
-69
-633
-1096
-1335
-1371
-1309
-1239
-1193
-1152
-1081
-972
-867
-832
-899
-1022
-1111
-1123
-1089
-1072
-1083
-1077
-1018
-916
-828
-796
-816
-866
-929
-982
-999
-964
-912
-906
-972
-1055
-1065
-986
-927
-1021
-1269
-1517
-1606
-1561
-1558
-1715
-1928
-1988
-1835
-1644
-1631
-1807
-1972
-1965
-1851
-1830
-1977
-2155
-2175
-2026
-1894
-1935
-2097
-2167
-2027
-1798
-1735
-1937
-2219
-2284
-2035
-1668
-1460
-1493
-1595
-1544
-1307
-1027
-843
-767
-705
-586
-415
-216
15
302
622
877
973
914
830
868
1039
1189
1150
921
700
691
899
1130
1197
1106
1022
1078
1246
1385
1389
1288
1192
1164
1172
1134
1019
872
757
702
687
691
719
773
805
758
626
488
445
526
657
761
841
975
1220
1531
1799
1965
2065
2159
2231
2207
2056
1858
1729
1691
1653
1529
1340
1193
1153
1188
1216
1192
1145
1121
1128
1162
1220
1270
1223
991
593
175
-124
-303
-473
-646
-624
-137
892
2266
3722
5171
6670
8189
9486
10269
10436
10115
9466
8526
7287
5854
4466
3345
2556
2032
1688
1473
1340
1210
1014
737
407
54
-322
-727
-1134
-1478
-1681
-1724
-1670
-1610
-1585
-1559
-1473
-1334
-1231
-1252
-1393
-1561
-1668
-1715
-1766
-1854
-1934
-1920
-1760
-1488
-1198
-980
-872
-845
-843
-848
-896
-1040
-1279
-1550
-1796
-2015
-2234
-2445
-2597
-2674
-2732
-2845
-3006
-3135
-3181
-3189
-3235
-3338
-3440
-3498
-3541
-3636
-3807
-4004
-4154
-4210
-4167
-4062
-3956
-3892
-3841
-3721
-3487
-3198
-2980
-2893
-2879
-2848
-2779
-2729
-2730
-2726
-2635
-2441
-2207
-1979
-1743
-1462
-1155
-895
-753
-735
-783
-825
-821
-780
-735
-703
-649
-534
-377
-253
-226
-280
-334
-328
-284
-270
-317
-393
-448
-471
-494
-571
-729
-956
-1195
-1362
-1398
-1311
-1168
-1047
-985
-961
-936
-905
-933
-1110
-1439
-1787
-1983
-1985
-1918
-1926
-1984
-1930
-1680
-1363
-1197
-1244
-1376
-1452
-1488
-1596
-1816
-2067
-2266
-2415
-2557
-2694
-2782
-2814
-2842
-2921
-3033
-3111
-3113
-3074
-3051
-3079
-3173
-3320
-3477
-3587
-3647
-3730
-3915
-4163
-4344
-4380
-4348
-4352
-4286
-3819
-2710
-1108
513
1788
2765
3733
4779
5606
5787
5174
4017
2740
1646
811
141
-494
-1148
-1739
-2097
-2123
-1924
-1788
-1959
-2436
-3011
-3458
-3704
-3830
-3953
-4101
-4204
-4184
-4052
-3895
-3764
-3624
-3411
-3144
-2933
-2841
-2801
-2702
-2547
-2449
-2473
-2523
-2431
-2142
-1783
-1525
-1425
-1421
-1459
-1570
-1832
-2261
-2765
-3171
-3329
-3218
-2976
-2806
-2816
-2940
-3014
-2977
-2959
-3180
-3720
-4414
-4969
-5208
-5187
-5099
-5086
-5129
-5143
-5100
-5050
-5044
-5081
-5118
-5126
-5112
-5077
-4979
-4775
-4470
-4146
-3911
-3821
-3840
-3872
-3846
-3761
-3660
-3558
-3437
-3290
-3156
-3075
-3012
-2870
-2603
-2286
-2058
-1987
-2005
-1995
-1920
-1862
-1919
-2102
-2310
-2417
-2393
-2317
-2292
-2347
-2421
-2440
-2397
-2350
-2335
-2321
-2252
-2110
-1937
-1768
-1583
-1353
-1098
-901
-828
-869
-968
-1101
-1309
-1634
-2043
-2437
-2733
-2908
-2969
-2921
-2779
-2584
-2387
-2201
-1998
-1767
-1565
-1465
-1488
-1581
-1686
-1791
-1911
-2033
-2117
-2150
-2153
-2141
-2087
-1967
-1815
-1696
-1610
-1483
-1248
-965
-776
-769
-878
-952
-957
-1025
-1290
-1717
-2109
-2309
-2342
-2365
-2479
-2639
-2740
-2717
-2542
-2177
-1587
-821
-8
776
1574
2469
3405
4161
4519
4455
4124
3677
3175
2629
2074
1537
1002
443
-67
-388
-468
-457
-606
-1022
-1573
-2048
-2345
-2512
-2633
-2753
-2883
-3043
-3222
-3333
-3267
-3020
-2736
-2584
-2583
-2591
-2453
-2158
-1852
-1698
-1748
-1932
-2146
-2329
-2481
-2623
-2770
-2920
-3048
-3119
-3098
-2975
-2794
-2622
-2506
-2451
-2472
-2625
-2972
-3498
-4071
-4531
-4817
-4999
-5170
-5318
-5321
-5083
-4650
-4189
-3855
-3697
-3664
-3687
-3745
-3846
-3988
-4150
-4303
-4401
-4393
-4250
-4011
-3780
-3659
-3649
-3653
-3558
-3360
-3172
-3106
-3156
-3193
-3104
-2922
-2802
-2841
-2957
-2959
-2735
-2374
-2050
-1828
-1608
-1279
-873
-542
-392
-386
-441
-535
-717
-981
-1215
-1294
-1212
-1068
-947
-827
-632
-355
-89
54
39
-93
-294
-533
-768
-929
-961
-885
-791
-745
-732
-673
-511
-282
-82
6
-25
-102
-135
-82
15
81
75
15
-68
-158
-253
-330
-351
-326
-322
-382
-433
-349
-102
171
289
224
141
206
399
538
475
254
50
-3
82
218
331
395
409
392
364
306
130
-249
-787
-1286
-1552
-1568
-1452
-1230
-735
222
1593
3063
4318
5285
6083
6767
7212
7225
6763
5993
5162
4410
3732
3055
2353
1709
1265
1089
1096
1096
925
599
271
64
-57
-228
-538
-926
-1238
-1367
-1329
-1242
-1224
-1320
-1484
-1621
-1658
-1601
-1524
-1499
-1519
-1493
-1343
-1089
-834
-664
-586
-551
-531
-531
-561
-599
-621
-621
-613
-598
-566
-516
-481
-503
-594
-719
-832
-905
-955
-1019
-1101
-1162
-1165
-1130
-1135
-1230
-1378
-1488
-1512
-1485
-1476
-1497
-1508
-1482
-1441
-1424
-1425
-1411
-1368
-1318
-1284
-1256
-1210
-1145
-1077
-1013
-932
-815
-673
-525
-382
-240
-91
74
264
476
685
850
945
987
1006
1013
1010
1000
998
1007
1002
978
973
1047
1199
1347
1400
1344
1248
1186
1162
1140
1102
1075
1092
1131
1130
1042
891
770
761
872
1037
1173
1279
1440
1743
2165
2569
2822
2913
2947
3012
3081
3071
2974
2880
2862
2877
2808
2645
2517
2537
2652
2694
2586
2434
2395
2488
2598
2632
2616
2620
2623
2545
2371
2204
2152
2206
2255
2224
2167
2210
2398
2670
2940
3165
3340
3441
3444
3377
3304
3247
3156
3017
2979
3297
4085
5177
6272
7211
8074
8975
9835
10387
10409
9910
9099
8219
7414
6716
6086
5475
4906
4491
4332
4394
4482
4388
4034
3533
3041
2641
2335
2083
1844
1604
1393
1266
1231
1225
1166
1033
883
783
748
750
765
800
876
1002
1187
1433
1699
1898
1951
1881
1805
1823
1914
1953
1853
1663
1527
1536
1644
1721
1684
1571
1486
1471
1476
1428
1318
1211
1146
1088
976
835
784
890
1067
1145
1055
899
816
806
747
568
362
277
344
454
525
624
886
1315
1747
2011
2105
2181
2363
2616
2800
2825
2748
2691
2724
2803
2833
2782
2713
2705
2773
2861
2934
3018
3164
3343
3441
3369
3175
3002
2945
2963
2932
2790
2607
2520
2606
2808
2979
2997
2863
2692
2600
2620
2687
2721
2707
2697
2747
2870
3044
3221
3336
3331
3198
3002
2850
2809
2851
2885
2856
2792
2769
2826
2922
2969
2917
2805
2711
2675
2672
2654
2622
2616
2644
2642
2532
2322
2112
1993
1959
1944
1927
1966
2112
2338
2546
2668
2712
2705
2627
2447
2201
1984
1856
1776
1673
1541
1454
1441
1454
1469
1589
1982
2687
3543
4346
5055
5803
6684
7577
8210
8378
8097
7550
6929
6324
5726
5098
4429
3768
3206
2821
2618
2497
2303
1954
1509
1105
827
655
511
367
252
166
42
-175
-428
-582
-569
-475
-433
-453
-395
-152
204
462
484
315
119
6
-40
-87
-164
-234
-251
-192
-61
117
283
351
253
-3
-336
-651
-897
-1072
-1193
-1271
-1303
-1259
-1110
-892
-731
-765
-1008
-1319
-1522
-1574
-1581
-1645
-1731
-1721
-1559
-1313
-1083
-896
-753
-694
-783
-1007
-1237
-1335
-1292
-1202
-1127
-1010
-760
-372
67
478
851
1179
1407
1480
1462
1497
1650
1813
1811
1603
1357
1277
1394
1557
1614
1579
1593
1760
2028
2251
2335
2318
2295
2320
2368
2392
2382
2372
2397
2461
2557
2669
2777
2848
2857
2793
2684
2579
2520
2517
2554
2602
2645
2678
2692
2674
2641
2639
2701
2785
2803
2716
2620
2678
2931
3216
3304
3135
2869
2721
2734
2761
2655
2435
2240
2169
2185
2182
2110
2016
1962
1970
2039
2182
2418
2736
3098
3460
3794
4076
4273
4350
4270
4002
3539
2948
2364
1905
1578
1345
1283
1602
2454
3711
5036
6200
7247
8325
9371
10055
10071
9436
8458
7446
6482
5475
4358
3253
2415
2049
2147
2475
2718
2689
2445
2163
1911
1543
862
-134
-1166
-1872
-2073
-1871
-1512
-1161
-809
-377
153
671
1021
1102
918
549
100
-334
-680
-887
-967
-989
-1034
-1114
-1152
-1067
-884
-725
-696
-785
-878
-882
-814
-791
-919
-1218
-1611
-1996
-2318
-2589
-2835
-3049
-3173
-3141
-2954
-2689
-2436
-2245
-2110
-2007
-1942
-1939
-2009
-2126
-2239
-2306
-2343
-2401
-2500
-2581
-2552
-2394
-2197
-2067
-2031
-2027
-1988
-1906
-1797
-1660
-1509
-1403
-1405
-1486
-1521
-1413
-1193
-972
-810
-668
-487
-259
-17
200
355
393
284
97
-31
-27
44
71
42
76
273
593
896
1081
1162
1214
1283
1378
1458
1473
1394
1265
1187
1225
1321
1356
1295
1226
1236
1263
1171
941
729
674
719
696
565
508
710
1129
1536
1778
1914
2093
2329
2493
2481
2326
2153
2037
1960
1871
1748
1616
1525
1543
1690
1883
1966
1854
1644
1539
1643
1848
1930
1778
1492
1248
1100
928
579
41
-555
-1070
-1461
-1715
-1721
-1298
-388
843
2135
3387
4712
6200
7671
8724
9069
8762
8099
7325
6459
5428
4271
3193
2404
1960
1776
1728
1753
1808
1803
1639
1295
856
439
67
-331
-808
-1293
-1619
-1679
-1520
-1304
-1161
-1106
-1066
-980
-871
-821
-900
-1114
-1395
-1649
-1813
-1868
-1829
-1721
-1573
-1421
-1292
-1192
-1109
-1030
-969
-965
-1054
-1229
-1432
-1594
-1677
-1701
-1721
-1783
-1919
-2147
-2459
-2797
-3079
-3277
-3446
-3676
-3974
-4242
-4377
-4386
-4376
-4451
-4646
-4942
-5289
-5593
-5731
-5640
-5405
-5208
-5141
-5088
-4856
-4414
-3957
-3710
-3686
-3705
-3600
-3388
-3200
-3100
-3023
-2885
-2697
-2545
-2488
-2491
-2466
-2337
-2107
-1854
-1661
-1522
-1318
-951
-497
-199
-241
-527
-754
-735
-608
-672
-1028
-1453
-1627
-1479
-1239
-1171
-1316
-1508
-1590
-1564
-1527
-1540
-1572
-1561
-1505
-1447
-1416
-1405
-1397
-1395
-1413
-1441
-1433
-1347
-1197
-1050
-955
-886
-759
-510
-167
162
389
507
560
566
494
300
-20
-430
-875
-1301
-1630
-1783
-1738
-1555
-1300
-986
-608
-260
-117
-275
-606
-848
-884
-862
-975
-1177
-1187
-816
-221
237
352
224
70
-26
-97
-101
140
739
1579
2423
3184
3990
4954
5942
6624
6757
6399
5795
5130
4426
3633
2781
1999
1411
1061
912
895
948
998
984
878
705
506
286
5
-373
-808
-1199
-1471
-1631
-1743
-1841
-1887
-1829
-1678
-1515
-1409
-1365
-1361
-1401
-1498
-1612
-1648
-1580
-1528
-1658
-1985
-2310
-2426
-2351
-2312
-2476
-2748
-2867
-2695
-2346
-2047
-1903
-1845
-1744
-1559
-1374
-1298
-1378
-1566
-1766
-1919
-2053
-2212
-2384
-2500
-2522
-2514
-2576
-2735
-2930
-3100
-3251
-3394
-3488
-3471
-3346
-3170
-2960
-2658
-2226
-1747
-1355
-1096
-902
-715
-586
-602
-745
-901
-980
-1007
-1062
-1160
-1242
-1237
-1132
-953
-739
-516
-311
-129
37
177
266
289
276
259
209
78
-94
-147
51
409
644
573
315
189
370
698
869
776
611
634
902
1237
1441
1468
1405
1333
1242
1081
842
577
371
291
353
518
715
906
1099
1300
1468
1523
1441
1294
1184
1125
1033
859
672
607
700
849
936
968
1059
1269
1505
1609
1524
1341
1185
1102
1038
942
862
911
1125
1381
1493
1395
1223
1151
1167
1066
728
359
355
903
1788
2656
3409
4264
5394
6616
7504
7795
7589
7151
6616
5927
5010
3942
2911
2066
1456
1072
899
912
1028
1141
1168
1079
884
607
271
-87
-421
-703
-945
-1176
-1377
-1481
-1440
-1312
-1230
-1282
-1418
-1506
-1472
-1386
-1365
-1432
-1479
-1390
-1173
-958
-866
-895
-957
-997
-1042
-1160
-1363
-1591
-1769
-1877
-1945
-2006
-2069
-2114
-2110
-2045
-1932
-1822
-1768
-1780
-1829
-1903
-2039
-2286
-2628
-2963
-3176
-3226
-3148
-2995
-2772
-2469
-2122
-1797
-1552
-1396
-1319
-1317
-1401
-1558
-1726
-1848
-1899
-1894
-1838
-1710
-1498
-1254
-1060
-955
-881
-743
-502
-230
-34
51
98
209
395
555
582
484
380
372
440
478
437
379
407
525
618
580
440
327
322
383
414
376
325
314
315
260
127
-19
-92
-61
42
175
322
486
664
827
939
962
893
768
638
536
466
422
418
474
576
679
749
793
849
926
987
994
949
863
732
539
303
100
0
18
106
213
336
517
774
1059
1305
1460
1490
1389
1205
1009
854
719
538
311
138
127
249
359
387
487
913
1770
2899
4057
5160
6278
7430
8434
9012
9024
8573
7875
7061
6135
5080
3982
3029
2389
2076
1949
1826
1609
1327
1068
860
647
358
-25
-447
-815
-1045
-1101
-1017
-874
-752
-694
-695
-728
-778
-840
-906
-982
-1095
-1265
-1471
-1634
-1680
-1618
-1531
-1492
-1499
-1500
-1471
-1450
-1487
-1580
-1673
-1721
-1735
-1754
-1800
-1857
-1906
-1949
-2002
-2077
-2169
-2266
-2362
-2458
-2549
-2622
-2667
-2697
-2739
-2798
-2843
-2828
-2743
-2626
-2531
-2474
-2426
-2367
-2313
-2287
-2279
-2247
-2177
-2103
-2055
-2003
-1878
-1660
-1420
-1256
-1197
-1181
-1145
-1090
-1064
-1088
-1130
-1132
-1070
-962
-836
-704
-571
-443
-325
-216
-122
-64
-75
-156
-251
-272
-177
-33
36
-22
-118
-97
106
389
587
645
642
675
732
719
593
434
360
383
395
299
144
82
204
431
596
606
520
471
522
637
755
866
979
1087
1174
1254
1364
1503
1619
1672
1672
1652
1604
1505
1396
1356
1370
1291
974
494
120
50
200
336
371
453
775
1331
1909
2299
2459
2468
2378
2167
1806
1343
884
508
211
-9
-48
277
1062
2167
3306
4283
5156
6091
7093
7928
8331
8246
7846
7315
6689
5909
4974
4009
3188
2617
2291
2139
2095
2110
2143
2151
2092
1957
1770
1547
1262
880
443
87
-82
-87
-51
-53
-71
-66
-77
-188
-396
-588
-684
-719
-774
-824
-736
-443
-64
193
235
147
54
-43
-227
-509
-781
-923
-942
-954
-1036
-1146
-1200
-1187
-1195
-1311
-1531
-1756
-1900
-1953
-1961
-1969
-1956
-1870
-1724
-1631
-1721
-2008
-2358
-2624
-2799
-3003
-3304
-3593
-3696
-3584
-3429
-3400
-3481
-3502
-3359
-3127
-2946
-2844
-2732
-2543
-2294
-2019
-1697
-1313
-946
-730
-702
-748
-724
-628
-596
-733
-966
-1129
-1134
-1042
-979
-996
-1056
-1120
-1221
-1413
-1673
-1907
-2036
-2072
-2078
-2065
-1968
-1731
-1391
-1050
-781
-569
-380
-238
-225
-392
-704
-1056
-1344
-1515
-1577
-1567
-1518
-1434
-1289
-1063
-783
-519
-335
-253
-247
-266
-275
-281
-336
-498
-769
-1071
-1281
-1318
-1207
-1054
-967
-968
-988
-941
-836
-791
-923
-1217
-1500
-1590
-1479
-1336
-1289
-1276
-1123
-761
-339
-86
-111
-329
-581
-786
-987
-1275
-1659
-1987
-1992
-1478
-511
607
1584
2391
3227
4239
5295
6069
6307
5996
5310
4458
3556
2616
1607
557
-374
-968
-1124
-972
-775
-705
-724
-724
-716
-851
