4202
4112
4032
3994
3994
3997
3980
3941
3878
3785
3684
3620
3624
3655
3628
3507
3357
3280
3299
3331
3280
3151
3042
3028
3086
3124
3088
3010
2962
2974
3017
3039
3022
2987
2964
2971
3010
3070
3141
3210
3265
3301
3315
3316
3313
3322
3346
3377
3402
3422
3446
3481
3516
3529
3512
3483
3464
3453
3439
3420
3412
3423
3443
3465
3499
3560
3636
3683
3665
3595
3530
3522
3567
3617
3625
3587
3541
3533
3579
3658
3734
3780
3789
3773
3759
3760
3773
3778
3768
3756
3761
3781
3790
3775
3756
3763
3795
3812
3785
3725
3666
3622
3563
3468
3360
3288
3267
3259
3224
3163
3120
3122
3151
3166
3150
3124
3119
3137
3157
3154
3133
3122
3151
3213
3269
3279
3234
3162
3087
3007
2918
2840
2815
2876
3025
3262
3613
4102
4695
5316
5940
6606
7315
7907
8128
7875
7330
6765
6232
5515
4423
3104
1966
1296
1007
811
575
442
588
968
1355
1581
1693
1833
2034
2193
2223
2172
2156
2231
2342
2420
2468
2530
2616
2691
2732
2767
2835
2928
2996
3018
3026
3052
3085
3085
3046
3007
3007
3042
3082
3116
3146
3173
3188
3187
3186
3195
3214
3234
3249
3260
3259
3236
3204
3191
3210
3253
3297
3334
3365
3392
3416
3453
3526
3630
3728
3782
3797
3815
3876
3977
4085
4179
4256
4327
4396
4455
4502
4544
4593
4650
4690
4681
4623
4558
4535
4556
4562
4498
4383
4291
4278
4317
4329
4267
4163
4089
4090
4140
4172
4131
4017
3879
3775
3722
3696
3657
3593
3518
3448
3382
3317
3262
3228
3202
3157
3079
2993
2931
2896
2867
2833
2808
2812
2843
2869
2865
2836
2813
2825
2871
2920
2943
2939
2933
2949
2981
3001
2990
2970
2975
3011
3043
3037
2996
2962
2968
3003
3038
3055
3061
3072
3083
3081
3074
3083
3119
3155
3140
3053
2923
2810
2746
2714
2682
2647
2634
2651
2689
2730
2776
2833
2886
2910
2906
2908
2946
3004
3047
3067
3090
3141
3206
3245
3243
3218
3194
3179
3170
3176
3212
3276
3352
3424
3487
3546
3595
3618
3617
3608
3600
3576
3509
3406
3314
3274
3279
3280
3242
3181
3142
3142
3150
3130
3090
3070
3094
3136
3146
3111
3069
3071
3134
3227
3295
3315
3303
3276
3239
3183
3112
3062
3067
3120
3199
3309
3530
3955
4593
5330
6041
6724
7472
8293
8972
9204
8885
8232
7551
6899
6046
4797
3312
2025
1255
950
818
676
594
721
1070
1485
1809
2011
2149
2258
2319
2318
2291
2297
2361
2439
2483
2493
2516
2590
2700
2789
2815
2793
2773
2798
2860
2913
2921
2887
2866
2909
3016
3126
3176
3164
3143
3154
3184
3182
3135
3079
3060
3084
3129
3177
3226
3271
3293
3293
3305
3361
3446
3500
3491
3454
3458
3524
3608
3661
3682
3710
3769
3849
3929
4007
4091
4176
4249
4313
4384
4459
4502
4481
4424
4401
4450
4530
4575
4571
4566
4598
4645
4665
4651
4638
4635
4616
4557
4490
4470
4504
4534
4497
4403
4306
4242
4186
4091
3951
3799
3677
3591
3526
3466
3401
3325
3248
3196
3181
3175
3132
3031
2907
2812
2758
2707
2629
2554
2544
2615
2700
2718
2661
2606
2628
2717
2797
2822
2838
2920
3074
3223
3211
3336
3407
3549
3693
3738
3665
3545
3462
3433
3416
3382
3347
3333
3323
3287
3231
3198
3216
3248
3240
3178
3111
3097
3137
3183
3201
3206
3234
3286
3321
3310
3281
3287
3344
3415
3446
3422
3382
3367
3384
3407
3421
3431
3454
3490
3520
3530
3530
3539
3558
3572
3570
3565
3577
3610
3642
3652
3645
3646
3676
3733
3784
3793
3751
3674
3595
3532
3473
3397
3294
3183
3092
3038
3023
3034
3054
3069
3075
3086
3124
3188
3245
3252
3208
3155
3139
3155
3151
3095
3016
2962
2948
2946
2922
2888
2888
2950
3068
3220
3422
3738
4224
4859
5551
6241
6961
7759
8542
9046
9041
8558
7871
7197
6445
5357
3879
2348
1234
716
572
477
341
329
581
1022
1434
1684
1812
1925
2048
2131
2132
2093
2104
2207
2357
2465
2480
2429
2379
2374
2406
2441
2459
2467
2481
2511
2552
2593
2629
2662
2704
2763
2828
2878
2899
2898
2891
2887
2881
2869
2856
2856
2872
2898
2920
2931
2932
2940
2973
3030
3094
3138
3151
3154
3180
3247
3344
3445
3520
3554
3555
3557
3589
3654
3727
3775
3799
3826
3871
3915
3928
3906
3879
3883
3933
4011
4090
4145
4163
4149
4130
4134
4161
4184
4174
4137
4108
4117
4164
4237
4324
4406
4447
4408
4289
4150
4052
3995
3921
3789
3629
3499
3419
3354
3281
3237
3261
3317
3308
3189
3034
2958
2985
3024
2976
2851
2748
2733
2773
2796
2773
2737
2730
2753
2773
2767
2747
2735
2747
2777
2806
2830
2855
2896
2949
2984
2968
2907
2848
2837
2876
2919
2926
2899
2880
2896
2933
2953
2937
2911
2910
2943
2987
3009
3006
3003
3016
3034
3040
3030
3016
3014
3017
3013
3006
3012
3042
3080
3099
3085
3050
3016
2995
2986
2981
2989
3022
3080
3139
3173
3183
3191
3219
3250
3252
3213
3159
3128
3139
3178
3227
3284
3354
3429
3480
3495
3485
3472
3454
3410
3322
3198
3055
2911
2780
2674
2605
2573
2565
2565
2570
2578
2575
2555
2527
2509
2506
2498
2469
2433
2426
2463
2521
2565
2588
2607
2625
2620
2582
2537
2533
2608
2767
3023
3398
3887
4437
4998
5597
6302
7087
7760
8073
7941
7503
6957
6350
5557
4478
3214
2020
1116
559
275
170
192
319
548
864
1230
1569
1803
1903
1916
1926
1986
2089
2200
2287
2348
2398
2449
2495
2525
2535
2536
2552
2590
2635
2665
2674
2674
2677
2690
2719
2770
2836
2892
2915
2911
2913
2951
3028
3115
3186
3237
3287
3366
3487
3636
3778
3886
3959
4014
4050
4049
4010
3971
3977
4034
4101
4141
4158
4187
4246
4312
4355
4364
4357
4361
4383
4416
4448
4477
4521
4608
4736
4859
4923
4919
4899
4912
4951
4972
4954
4924
4914
4911
4877
4808
4740
4711
4711
4694
4637
4553
4464
4382
4310
4252
4200
4135
4045
3938
3834
3737
3635
3529
3444
3399
3378
3341
3264
3171
3099
3053
3009
2946
2867
2798
2756
2740
2738
2739
2737
2735
2739
2754
2768
2762
2730
2679
2634
2613
2613
2615
2600
2564
2521
2491
2489
2511
2535
2542
2530
2514
2504
2501
2505
2520
2563
2632
2702
2740
2737
2715
2713
2747
2793
2809
2772
2710
2687
2733
2812
2844
2781
2660
2571
2561
2589
2575
2489
2386
2349
2413
2540
2665
2755
2809
2839
2856
2858
2849
2832
2813
2795
2773
2737
2688
2648
2652
2710
2785
2826
2815
2787
2780
2796
2800
2764
2698
2630
2573
2515
2446
2380
2339
2337
2367
2413
2454
2468
2448
2411
2389
2404
2452
2504
2536
2548
2555
2568
2588
2611
2636
2649
2631
2578
2520
2508
2576
2726
2944
3224
3562
3949
4385
4895
5501
6147
6680
6932
6863
6580
6208
5737
5038
4029
2827
1697
864
386
169
97
123
267
555
975
1463
1917
2238
2387
2407
2386
2395
2449
2526
2595
2645
2678
2700
2725
2761
2807
2837
2833
2811
2811
2856
2921
2961
2964
2969
3008
3070
3110
3107
3083
3075
3089
3111
3132
3159
3196
3232
3259
3283
3316
3349
3367
3365
3365
3379
3397
3401
3398
3416
3469
3539
3596
3640
3695
3767
3827
3849
3846
3858
3907
3975
4034
4077
4121
4179
4238
4282
4314
4356
4425
4505
4559
4569
4556
4560
4604
4656
4666
4617
4543
4496
4483
4465
4402
4305
4220
4169
4120
4024
3874
3717
3604
3544
3502
3437
3348
3255
3175
3108
3045
2982
2927
2885
2850
2813
2780
2769
2786
2809
2809
2781
2748
2726
2701
2651
2582
2528
2509
2503
2479
2443
2428
2443
2447
2404
2342
2331
2401
2503
2558
2550
2529
2545
2585
2603
2582
2551
2542
2555
2563
2550
2530
2522
2542
2584
2627
2644
2619
2567
2526
2524
2549
2574
2580
2572
2566
2569
2587
2624
2668
2702
2720
2736
2763
2797
2827
2864
2930
3016
3069
3049
2979
2924
2920
2934
2912
2846
2783
2769
2804
2856
2899
2926
2933
2927
2921
2922
2909
2841
2711
2560
2441
2364
2297
2208
2117
2075
2096
2138
2150
2126
2112
2146
2221
2298
2341
2355
2366
2393
2442
2512
2614
2737
2847
2898
2873
2810
2773
2805
2896
3019
3192
3477
3912
4451
5001
5539
6132
6806
7398
7633
7380
6801
6184
5627
4952
3953
2709
1569
842
534
423
337
303
435
750
1137
1467
1690
1837
1940
2009
2052
2089
2138
2203
2272
2334
2384
2421
2445
2457
2474
2507
2558
2608
2645
2676
2717
2771
2811
2816
2797
2786
2797
2809
2806
2810
2858
2951
3033
3052
3018
2983
2983
2992
2973
2940
2943
3001
3068
3090
3075
3080
3137
3208
3237
3224
3213
3233
3259
3265
3272
3321
3411
3490
3519
3527
3575
3685
3815
3918
3995
4076
4169
4248
4291
4313
4337
4358
4351
4306
4251
4218
4203
4177
4121
4056
4018
4014
4003
3944
3844
3748
3690
3654
3601
3522
3446
3398
3358
3290
3188
3090
3027
2984
2922
2833
2742
2675
2628
2579
2539
2529
2549
2560
2535
2489
2468
2481
2493
2468
2428
2422
2463
2502
2491
2446
2427
2458
2501
2509
2492
2494
2521
2532
2486
2422
2414
2482
2564
2587
2550
2518
2537
2584
2614
2616
2615
2616
2592
2528
2469
2490
2607
2738
2781
2708
2596
2548
2582
2622
2576
2441
2310
2282
2375
2514
2610
2640
2644
2677
2747
2820
2861
2865
2859
2869
2897
2940
3001
3099
3233
3364
3437
3431
3387
3366
3384
3401
3367
3287
3209
3162
3120
3046
2937
2834
2775
2755
2739
2699
2640
2585
2562
2577
2616
2649
2651
2624
2595
2581
2578
2576
2577
2589
2607
2618
2612
2601
2597
2587
2563
2543
2566
2653
2792
2983
3282
3745
4345
4970
5551
6139
6805
7444
7787
7642
7113
6497
5945
5292
4287
2963
1696
871
536
425
300
185
252
561
976
1316
1528
1679
1824
1936
1976
1966
1979
2056
2165
2238
2254
2241
2241
2265
2274
2228
2136
2070
2110
2255
2404
2448
2387
2338
2398
2514
2526
2351
2096
1954
2000
2125
2181
2149
2142
2259
2468
2658
2760
2791
2804
2819
2819
2797
2773
2779
2826
2892
2951
2992
3026
3082
3168
3254
3302
3308
3302
3321
3372
3439
3514
3599
3691
3764
3798
3807
3822
3858
3907
3951
3989
4026
4050
4048
4022
3996
3992
4007
4018
4008
3977
3936
3894
3859
3836
3820
3795
3749
3683
3605
3523
3438
3352
3265
3177
3089
3012
2960
2928
2891
2825
2735
2657
2619
2611
2591
2538
2461
2396
2365
2370
2397
2420
2410
2355
2282
2231
2219
2215
2181
2126
2101
2141
2218
2269
2262
2233
2237
2288
2350
2382
2374
2353
2348
2382
2458
2559
2665
2758
2830
2883
2916
2929
2923
2911
2900
2896
2893
2879
2848
2814
2801
2824
2869
2898
2888
2860
2852
2876
2905
2916
2929
2982
3069
3134
3137
3104
3094
3123
3137
3083
2988
2933
2957
3011
3021
2981
2960
3013
3106
3152
3109
3018
2943
2904
2864
2796
2711
2640
2588
2536
2478
2433
2420
2428
2427
2411
2403
2416
2436
2433
2410
2401
2429
2473
2496
2491
2489
2505
2526
2521
2490
2461
2440
2407
2348
2292
2296
2389
2572
2864
3294
3844
4427
4977
5545
6213
6910
7370
7350
6886
6258
5662
4997
4028
2755
1500
626
197
0
-155
-235
-104
260
698
1049
1279
1459
1627
1744
1775
1746
1737
1800
1922
2042
2108
2107
2082
2077
2100
2121
2112
2097
2119
2187
2260
2301
2317
2345
2399
2455
2487
2499
2508
2514
2495
2456
2442
2486
2562
2614
2621
2618
2650
2715
2772
2796
2805
2824
2852
2864
2851
2842
2868
2928
2992
3041
3089
3157
3235
3287
3296
3298
3342
3436
3529
3568
3564
3576
3647
3750
3821
3833
3821
3838
3891
3940
3949
3930
3925
3953
3991
4005
3978
3917
3839
3759
3692
3647
3620
3593
3539
3445
3330
3238
3195
3186
3157
3069
2946
2865
2876
2948
2996
2975
2931
2938
3008
3063
3026
2904
2779
2719
2709
2684
2612
2529
2487
2492
2502
2487
2467
2479
2524
2562
2555
2516
2488
2490
2497
2480
2445
2422
2427
2440
2434
2413
2411
2451
2511
2544
2529
2492
2479
2504
2534
2531
2500
2483
2500
2524
2520
2492
2486
2513
2536
2515
2471
2462
2502
2538
2513
2451
2423
2462
2533
2582
2600
2617
2652
2692
2729
2776
2836
2877
2861
2795
2729
2705
2710
2708
2688
2677
2699
2738
2764
2768
2764
2757
2724
2639
2519
2411
2347
2299
2215
2086
1962
1916
1962
2047
2092
2067
2005
1969
1994
2065
2127
2137
2085
2018
1995
2045
2141
2228
2267
2268
2269
2288
2299
2266
2194
2140
2168
2292
2476
2695
2965
3338
3845
4478
5186
5887
6468
6811
6848
6603
6159
5573
4820
3851
2692
1512
540
-74
-346
-417
-405
-313
-76
322
777
1138
1324
1378
1400
1447
1513
1575
1637
1712
1799
1885
1958
2023
2075
2103
2105
2095
2106
2153
2222
2286
2326
2349
2372
2396
2410
2404
2388
2382
2393
2420
2462
2522
2589
2634
2634
2612
2615
2664
2722
2737
2702
2651
2613
2592
2591
2619
2663
2678
2640
2590
2609
2713
2832
2893
2907
2948
3044
3147
3205
3237
3304
3424
3556
3672
3795
3954
4121
4234
4274
4286
4325
4386
4419
4388
4315
4247
4220
4229
4248
4253
4230
4182
4126
4075
4019
3937
3832
3726
3639
3567
3481
3370
3258
3174
3112
3039
2937
2824
2739
2691
2657
2610
2549
2494
2464
2454
2456
2459
2451
2421
2373
2330
2316
2334
2362
2370
2343
2296
2257
2253
2286
2329
2345
2320
2279
2267
2299
2350
2386
2396
2400
2418
2441
2446
2427
2404
2402
2417
2428
2420
2403
2398
2418
2452
2474
2461
2421
2381
2367
2377
2373
2324
2242
2188
2215
2315
2415
2446
2402
2349
2350
2407
2467
2483
2462
2447
2473
2538
2618
2700
2776
2838
2867
2856
2824
2792
2765
2728
2672
2616
2598
2629
2684
2713
2684
2604
2505
2421
2358
2300
2226
2141
2071
2039
2037
2042
2046
2063
2093
2111
2088
2031
1993
2008
2054
2083
2075
2059
2073
2113
2147
2145
2107
2048
1982
1939
1953
2035
2158
2314
2541
2899
3384
3929
4477
5042
5647
6208
6537
6492
6110
5556
4929
4169
3171
1980
830
-16
-459
-608
-627
-585
-435
-125
300
710
992
1130
1183
1205
1202
1163
1108
1095
1156
1269
1376
1445
1485
1522
1561
1590
1599
1601
1619
1660
1708
1737
1745
1755
1797
1878
1982
2094
2209
2315
2391
2426
2443
2480
2541
2585
2575
2529
2506
2533
2585
2624
2652
2698
2765
2817
2836
2844
2875
2924
2960
2974
3000
3059
3125
3165
3188
3238
3333
3436
3502
3541
3603
3704
3803
3851
3859
3884
3961
4054
4105
4098
4074
4080
4120
4162
4173
4149
4105
4055
4005
3956
3905
3852
3795
3735
3675
3615
3543
3442
3322
3204
3102
3010
2911
2803
2703
2630
2574
2509
2427
2354
2316
2302
2272
2208
2140
2110
2111
2093
2027
1954
1933
1966
1980
1916
1797
1718
1745
1853
1954
1987
1965
1936
1932
1947
1961
1964
1963
1963
1966
1974
2001
2061
2149
2237
2295
2309
2288
2255
2216
2171
2122
2080
2054
2039
2034
2044
2072
2106
2120
2110
2104
2127
2171
2190
2161
2109
2086
2117
2183
2246
2285
2300
2304
2311
2337
2387
2442
2467
2439
2376
2323
2312
2336
2355
2340
2308
2300
2338
2398
2425
2398
2346
2314
2310
2298
2243
2150
2060
2006
1983
1963
1931
1896
1878
1886
1906
1915
1901
1879
1872
1890
1916
1931
1938
1957
1988
2013
2018
2012
2022
2045
2041
1990
1920
1891
1939
2068
2296
2661
3163
3718
4233
4722
5305
6014
6655
6913
6660
6089
5506
4989
4336
3356
2169
1152
582
401
339
229
154
281
633
1043
1322
1430
1470
1545
1660
1747
1767
1759
1790
1881
1991
2068
2094
2084
2052
2010
1975
1975
2011
2056
2076
2073
2080
2116
2165
2196
2204
2213
2234
2256
2260
2253
2263
2306
2370
2420
2433
2420
2415
2446
2508
2566
2589
2569
2534
2519
2545
2595
2644
2680
2710
2748
2794
2833
2856
2873
2905
2963
3033
3098
3158
3226
3307
3384
3431
3442
3445
3473
3530
3584
3592
3549
3494
3473
3488
3498
3468
3409
3359
3337
3318
3270
3206
3172
3194
3231
3215
3118
2984
2880
2834
2807
2742
2631
2519
2460
2458
2468
2450
2402
2348
2306
2272
2234
2186
2129
2058
1978
1915
1895
1909
1912
1869
1799
1754
1756
1779
1791
1788
1797
1823
1846
1847
1839
1854
1899
1945
1955
1925
1883
1855
1842
1833
1829
1840
1865
1878
1855
1808
1784
1818
1888
1932
1917
1873
1855
1884
1928
1947
1941
1942
1968
2006
2023
2011
1995
2004
2040
2074
2085
2078
2082
2116
2168
2204
2209
2198
2201
2227
2256
2265
2251
2224
2202
2192
2191
2191
2193
2197
2202
2200
2181
2142
2095
2055
2026
1993
1944
1881
1820
1768
1715
1654
1600
1582
1604
1633
1637
1619
1619
1676
1791
1929
2051
2132
2171
2187
2215
2273
2337
2355
2298
2196
2107
2059
2024
1981
1953
1985
2089
2239
2433
2734
3198
3788
4390
4952
5544
6230
6885
7225
7058
6495
5840
5255
4590
3596
2290
1029
201
-126
-211
-307
-407
-326
21
489
852
1025
1107
1224
1380
1497
1527
1517
1549
1644
1751
1808
1799
1759
1735
1748
1783
1810
1814
1816
1846
1914
1999
2058
2066
2039
2024
2047
2098
2148
2176
2186
2196
2220
2258
2294
2311
2299
2274
2264
2284
2319
2331
2299
2250
2238
2296
2402
2492
2516
2491
2484
2541
2640
2715
2730
2718
2742
2824
2924
3003
3073
3170
3289
3380
3410
3405
3416
3453
3471
3432
3361
3318
3334
3388
3431
3430
3391
3346
3328
3347
3372
3363
3304
3225
3163
3122
3077
3015
2951
2893
2827
2731
2617
2520
2463
2427
2381
2315
2243
2169
2085
1999
1937
1909
1889
1843
1778
1744
1769
1821
1837
1805
1771
1786
1838
1871
1847
1782
1724
1704
1713
1735
1761
1787
1800
1791
1771
1768
1794
1832
1844
1817
1773
1745
1750
1772
1789
1793
1788
1785
1790
1788
1762
1709
1646
1609
1616
1647
1661
1643
1622
1642
1708
1780
1809
1788
1755
1755
1796
1848
1883
1905
1948
2043
2187
2341
2459
2523
2549
2565
2578
2576
2544
2487
2417
2344
2277
2230
2225
2260
2305
2330
2331
2334
2353
2372
2359
2309
2249
2210
2180
2127
2033
1921
1827
1768
1732
1699
1668
1652
1653
1657
1655
1659
1694
1762
1826
1839
1793
1734
1718
1749
1785
1783
1746
1707
1673
1625
1570
1562
1650
1819
2023
2269
2642
3197
3862
4505
5100
5744
6458
7034
7166
6772
6102
5458
4837
3965
2693
1278
188
-344
-502
-614
-778
-826
-601
-164
271
558
712
821
910
963
985
1019
1102
1218
1317
1371
1398
1423
1457
1498
1549
1621
1708
1788
1842
1878
1926
1994
2055
2078
2058
2020
1981
1948
1924
1920
1933
1947
1953
1968
2013
2077
2117
2116
2107
2137
2199
2233
2205
2139
2097
2108
2156
2210
2262
2316
2371
2420
2465
2516
2579
2649
2719
2792
2869
2946
3014
3073
3123
3161
3183
3191
3194
3201
3216
3233
3254
3283
3325
3378
3431
3461
3447
3388
3316
3271
3263
3268
3248
3190
3111
3036
2979
2937
2894
2836
2757
2664
2569
2478
2380
2280
2198
2148
2108
2041
1938
1838
1778
1751
1706
1616
1517
1464
1460
1466
1452
1436
1449
1481
1494
1478
1470
1510
1579
1619
1602
1583
1636
1776
1938
2049
2095
2113
2138
2168
2182
2179
2163
2129
2065
1989
1952
1987
2064
2117
2111
2078
2069
2093
2108
2079
2016
1964
1956
1983
2018
2040
2052
2062
2076
2087
2092
2084
2060
2022
1981
1952
1945
1962
2006
2078
2176
2275
2342
2364
2364
2378
2416
2437
2405
2331
2264
2236
2236
2237
2234
2249
2288
2324
2330
2310
2289
2278
2257
2208
2137
2064
2000
1934
1863
1798
1756
1731
1710
1682
1656
1646
1653
1656
1635
1589
1543
1525
1537
1548
1525
1472
1424
1416
1449
1490
1516
1520
1497
1445
1385
1366
1434
1588
1811
2113
2542
3108
3760
4438
5136
5863
6514
6872
6768
6262
5580
4854
3994
2849
1487
227
-621
-1017
-1157
-1232
-1247
-1094
-728
-243
202
498
639
691
729
793
870
932
977
1037
1130
1231
1294
1312
1323
1356
1403
1433
1443
1455
1492
1549
1602
1639
1661
1675
1684
1690
1693
1692
1688
1691
1714
1753
1788
1796
1785
1787
1824
1885
1932
1943
1939
1965
2037
2120
2159
2143
2121
2158
2259
2363
2410
2407
2409
2451
2510
2556
2596
2663
2751
2813
2824
2824
2877
2986
3084
3120
3113
3123
3167
3210
3215
3203
3208
3234
3245
3226
3207
3223
3267
3309
3339
3374
3426
3464
3441
3359
3268
3202
3144
3048
2906
2758
2641
2551
2462
2369
2291
2240
2197
2133
2049
1978
1941
1925
1900
1853
1803
1773
1762
1757
1741
1720
1697
1681
1672
1667
1674
1692
1711
1711
1688
1658
1642
1650
1675
1703
1722
1726
1716
1701
1703
1727
1753
1744
1698
1651
1641
1662
1678
1667
1658
1691
1756
1796
1773
1712
1678
1707
1769
1801
1777
1729
1710
1734
1771
1786
1776
1766
1770
1775
1764
1747
1743
1749
1741
1716
1705
1737
1787
1802
1762
1714
1718
1780
1845
1860
1831
1794
1764
1737
1713
1711
1737
1768
1775
1762
1759
1785
1827
1858
1862
1838
1787
1699
1577
1452
1356
1302
1268
1221
1153
1092
1079
1119
1166
1167
1120
1080
1101
1168
1220
1225
1221
1262
1350
1436
1476
1470
1452
1443
1443
1457
1509
1622
1818
2108
2486
2929
3420
3973
4614
5301
5885
6178
6100
5724
5186
4532
3697
2627
1424
329
-441
-845
-1006
-1068
-1061
-911
-576
-133
261
497
584
608
638
692
761
851
967
1092
1203
1288
1360
1427
1469
1469
1438
1418
1436
1477
1508
1511
1501
1504
1523
1540
1536
1522
1529
1578
1649
1696
1700
1686
1700
1754
1818
1855
1868
1900
1989
2136
2305
2447
2538
2579
2597
2627
2685
2747
2770
2738
2690
2680
2730
2806
2875
2936
3020
3126
3218
3265
3287
3323
3386
3446
3476
3492
3525
3579
3620
3626
3624
3652
3711
3753
3740
3687
3646
3640
3635
3583
3486
3395
3348
3319
3250
3120
2976
2880
2833
2768
2634
2454
2305
2227
2178
2091
1961
1852
1812
1817
1795
1720
1624
1557
1521
1484
1432
1385
1368
1366
1347
1304
1265
1261
1292
1332
1353
1341
1299
1255
1245
1283
1341
1358
1309
1235
1212
1258
1318
1321
1265
1218
1242
1319
1373
1352
1285
1247
1280
1355
1409
1418
1415
1442
1503
1568
1613
1642
1659
1654
1618
1563
1517
1482
1439
1373
1314
1303
1341
1378
1378
1361
1372
1430
1503
1558
1594
1628
1659
1661
1628
1585
1570
1586
1602
1589
1551
1522
1528
1566
1607
1628
1629
1623
1617
1602
1570
1523
1472
1422
1367
1311
1262
1221
1172
1106
1044
1026
1062
1114
1132
1113
1093
1111
1160
1201
1220
1230
1252
1280
1289
1278
1265
1265
1256
1209
1136
1099
1150
1274
1428
1621
1937
2440
3071
3692
4246
4803
5429
6005
6268
6057
5485
4809
4129
3315
2225
972
-124
-825
-1165
-1333
-1424
-1366
-1086
-652
-236
74
323
597
880
1078
1142
1133
1166
1283
1425
1505
1496
1446
1413
1407
1404
1388
1380
1406
1465
1527
1573
1606
1637
1656
1648
1627
1629
1675
1737
1764
1745
1721
1742
1801
1853
1869
1867
1884
1921
1949
1943
1930
1952
2016
2088
2130
2137
2137
2153
2192
2247
2310
2365
2396
2401
2407
2442
2509
2589
2664
2738
2822
2905
2964
2991
3006
3037
3091
3146
3185
3209
3224
3228
3218
3200
3190
3191
3181
3135
3054
2974
2925
2900
2858
2769
2651
2547
2479
2414
2306
2153
2002
1906
1867
1837
1777
1691
1613
1558
1504
1425
1315
1195
1089
1004
934
877
838
834
870
936
1007
1057
1074
1063
1037
1014
1004
1009
1020
1019
997
969
975
1033
1119
1177
1177
1141
1121
1137
1163
1168
1149
1136
1151
1182
1209
1225
1239
1253
1259
1250
1234
1223
1217
1208
1201
1217
1271
1341
1384
1384
1371
1390
1436
1458
1416
1333
1276
1279
1318
1342
1338
1329
1337
1363
1402
1458
1525
1582
1600
1582
1560
1554
1552
1533
1503
1492
1511
1535
1536
1517
1511
1538
1582
1614
1614
1567
1469
1330
1185
1061
962
871
781
706
650
588
507
445
464
569
682
710
652
601
643
768
898
965
964
937
931
965
1033
1105
1127
1083
1032
1065
1224
1475
1767
2129
2631
3269
3948
4604
5292
6083
6846
7267
7125
6547
5883
5300
4595
3476
1991
584
-320
-702
-877
-1074
-1210
-1074
-646
-139
224
416
556
719
861
918
900
881
922
1019
1128
1214
1264
1287
1300
1312
1314
1303
1293
1313
1370
1444
1510
1564
1616
1661
1678
1671
1673
1711
1755
1752
1694
1637
1637
1692
1750
1779
1799
1844
1910
1959
1973
1968
1972
1993
2014
2015
2005
2010
2040
2073
2077
2051
2040
2093
2208
2320
2371
2375
2397
2479
2599
2704
2766
2793
2809
2835
2891
2987
3102
3181
3194
3164
3146
3154
3151
3098
3008
2931
2897
2886
2860
2805
2741
2698
2686
2686
2664
2592
2470
2331
2210
2128
2067
2003
1919
1820
1722
1645
1600
1574
1540
1477
1397
1329
1296
1282
1255
1203
1146
1117
1128
1163
1194
1203
1191
1171
1160
1161
1161
1146
1116
1095
1099
1117
1119
1099
1082
1103
1155
1204
1220
1209
1200
1208
1218
1211
1192
1182
1189
1196
1181
1146
1122
1137
1182
1225
1239
1227
1208
1192
1176
1156
1144
1157
1189
1207
1192
1161
1148
1168
1203
1229
1253
1299
1379
1484
1600
1721
1841
1946
2021
2073
2116
2135
2098
2006
1910
1873
1901
1935
1921
1863
1810
1796
1813
1823
1807
1767
1713
1650
1581
1504
1424
1349
1289
1248
1208
1151
1085
1043
1049
1090
1120
1118
1105
1107
1130
1147
1142
1131
1135
1157
1180
1191
1187
1167
1126
1068
1011
983
1002
1073
1207
1426
1762
2239
2835
3490
4161
4868
5646
6416
6941
6993
6568
5914
5262
4566
3570
2182
687
-461
-1046
-1254
-1391
-1538
-1534
-1244
-756
-299
-8
151
271
379
442
450
436
444
484
530
565
592
622
666
716
752
766
773
800
858
924
972
993
1007
1034
1075
1127
1192
1271
1349
1393
1393
1368
1348
1336
1315
1279
1251
1263
1313
1368
1400
1412
1432
1474
1525
1564
1584
1597
1618
1649
1684
1724
1780
1859
1948
2022
2070
2108
2166
2252
2348
2424
2472
2511
2554
2592
2608
2610
2625
2675
2737
2774
2771
2752
2744
2750
2747
2724
2693
2666
2636
2589
2527
2470
2430
2396
2350
2281
2196
2105
2017
1937
1866
1797
1722
1638
1553
1480
1425
1377
1322
1261
1204
1164
1141
1126
1100
1055
993
931
881
846
820
798
770
745
740
768
821
867
882
880
902
962
1025
1043
1022
1022
1093
1214
1315
1366
1403
1471
1559
1607
1587
1533
1501
1498
1481
1422
1345
1300
1309
1348
1384
1410
1433
1447
1442
1418
1400
1413
1455
1492
1486
1440
1392
1379
1403
1435
1443
1427
1408
1405
1423
1460
1516
1582
1638
1672
1698
1736
1773
1769
1704
1616
1574
1599
1648
1661
1635
1619
1650
1706
1733
1703
1641
1586
1546
1494
1401
1282
1184
1149
1169
1194
1178
1124
1076
1071
1100
1122
1110
1066
1022
997
995
1007
1019
1028
1036
1043
1042
1026
988
932
871
803
731
686
712
825
999
1208
1497
1953
2593
3316
4006
4669
5390
6136
6663
6706
6261
5602
4962
4263
3237
1814
315
-805
-1364
-1557
-1681
-1817
-1819
-1546
-1044
-518
-150
26
96
150
218
268
274
265
295
377
466
517
535
566
630
696
733
751
784
844
909
959
991
1006
997
965
938
959
1031
1112
1153
1149
1137
1154
1201
1252
1279
1282
1275
1273
1282
1297
1322
1361
1415
1472
1525
1580
1647
1714
1754
1760
1757
1790
1865
1942
1978
1977
1982
2033
2132
2251
2357
2429
2454
2445
2439
2469
2521
2549
2513
2435
2374
2376
2429
2492
2522
2507
2461
2410
2381
2387
2407
2404
2357
2295
2268
2303
2370
2411
2383
2294
2189
2105
2039
1961
1848
1710
1581
1481
1402
1319
1229
1158
1131
1127
1094
1003
887
806
786
794
779
735
699
706
743
776
796
834
912
1014
1091
1112
1093
1073
1079
1107
1140
1166
1180
1177
1156
1132
1131
1167
1222
1260
1260
1236
1214
1207
1205
1193
1176
1166
1160
1144
1118
1098
1106
1138
1175
1204
1229
1261
1297
1326
1344
1359
1373
1377
1361
1329
1297
1279
1273
1270
1257
1228
1191
1174
1195
1245
1285
1283
1256
1253
1304
1383
1428
1409
1346
1290
1265
1260
1261
1268
1286
1308
1316
1312
1324
1376
1444
1474
1429
1334
1247
1196
1150
1070
964
892
889
924
920
845
749
705
730
772
777
745
719
735
784
834
861
867
866
873
883
873
827
760
715
728
801
923
1119
1440
1904
2462
3047
3666
4376
5169
5877
6261
6204
5811
5270
4633
3781
2606
1224
-47
-931
-1397
-1624
-1777
-1850
-1726
-1356
-851
-404
-130
-12
43
105
184
260
323
382
449
530
614
686
730
743
745
762
801
847
875
877
876
898
949
997
1002
951
879
840
868
942
1019
1077
1136
1231
1365
1502
1605
1679
1760
1867
1975
2040
2055
2048
2053
2080
2112
2135
2148
2155
2165
2184
2217
2265
2315
2351
2380
2415
2462
2509
2546
2583
2638
2714
2787
2834
2854
2867
2890
2924
2955
2965
2945
2913
2902
2921
2944
2928
2871
2815
2799
2806
2778
2693
2585
2497
2422
2325
2210
2121
2084
2060
1990
1866
1735
1648
1599
1549
1476
1386
1289
1190
1096
1028
997
985
953
889
827
811
840
866
844
782
727
720
747
758
733
703
710
757
798
794
756
727
725
726
693
625
566
554
590
647
701
747
786
815
823
816
810
810
801
769
728
710
738
805
891
975
1041
1072
1061
1027
1006
1005
993
943
874
838
861
911
932
917
910
944
1004
1048
1060
1061
1070
1082
1088
1098
1123
1152
1149
1100
1037
1010
1033
1074
1096
1099
1106
1132
1167
1187
1179
1149
1116
1089
1056
1004
933
860
806
775
748
711
677
663
674
690
699
712
744
778
793
788
793
826
864
863
822
786
801
854
890
859
770
680
649
701
830
1019
1266
1576
1949
2391
2920
3552
4253
4895
5301
5362
5110
4671
4133
3451
2524
1355
127
-895
-1536
-1817
-1881
-1850
-1730
-1451
-990
-441
37
324
431
451
481
545
613
663
701
747
816
896
973
1030
1060
1063
1047
1028
1022
1037
1071
1111
1142
1157
1160
1165
1188
1226
1267
1296
1313
1330
1358
1389
1403
1388
1357
1343
1368
1425
1483
1520
1542
1569
1608
1649
1682
1709
1741
1778
1802
1805
1805
1830
1882
1942
1991
2042
2118
2216
2301
2347
2372
2421
2515
2620
2682
2691
2688
2713
2765
2812
2833
2835
2827
2804
2758
2700
2650
2607
2547
2452
2344
2257
2195
2126
2025
1908
1816
1760
1715
1651
1568
1480
1391
1290
1176
1072
998
948
892
821
758
736
758
801
831
828
796
751
706
663
611
545
477
433
432
459
486
491
480
474
489
528
580
624
635
608
576
581
630
674
659
589
531
537
580
590
541
489
502
579
645
650
617
609
649
704
739
757
783
818
833
812
781
776
802
825
812
765
718
712
757
832
899
937
959
991
1043
1087
1093
1058
1012
979
951
912
873
862
881
899
887
861
863
904
945
936
864
763
680
628
588
532
452
362
288
245
233
231
222
203
188
182
183
199
244
324
422
518
623
768
950
1110
1181
1164
1132
1149
1187
1166
1064
956
947
1074
1313
1652
2109
2668
3247
3784
4324
4951
5600
6011
5946
5441
4773
4142
3461
2508
1265
34
-830
-1236
-1376
-1469
-1536
-1458
-1175
-776
-404
-134
47
173
255
308
363
439
526
593
628
651
685
721
730
699
929
996
1032
1036
1028
1025
1029
1034
1033
1029
1029
1052
1107
1193
1288
1368
1427
1479
1540
1604
1654
1682
1693
1699
1710
1738
1788
1849
1896
1914
1916
1931
1969
2004
1996
1948
1908
1915
1953
1971
1940
1889
1882
1938
2012
2031
1973
1881
1817
1796
1773
1700
1585
1477
1415
1381
1332
1254
1176
1132
1114
1079
998
889
796
734
693
656
622
606
604
603
594
585
591
610
622
613
582
537
499
487
507
547
575
577
572
592
642
691
702
674
643
643
678
723
758
774
778
779
795
834
882
903
871
808
755
738
748
757
755
766
802
841
845
812
787
816
886
932
904
826
773
792
854
886
855
788
739
726
729
727
718
713
709
694
670
653
652
651
629
588
555
553
580
620
656
686
703
705
697
694
692
665
594
497
415
373
347
307
250
208
199
200
181
147
134
169
227
259
250
231
242
279
303
290
270
293
370
450
487
488
492
517
536
532
523
556
648
798
1014
1320
1728
2234
2833
3518
4209
4744
4966
4848
4500
4026
3400
2523
1389
161
-927
-1716
-2181
-2375
-2368
-2227
-2006
-1727
-1391
-1023
-699
-505
-459
-487
-482
-395
-249
-95
38
165
301
434
534
576
562
525
498
492
490
471
442
428
447
482
502
490
468
478
531
598
640
647
640
639
653
677
714
761
805
831
844
873
934
1012
1071
1097
1107
1135
1192
1259
1320
1385
1477
1598
1720
1814
1885
1967
2075
2180
2238
2248
2251
2289
2350
2388
2382
2360
2359
2379
2393
2384
2365
2351
2330
2281
2210
2156
2141
2143
2113
2026
1911
1814
1755
1709
1640
1533
1403
1283
1190
1116
1037
928
798
683
605
543
448
300
139
36
21
48
40
-31
-125
-181
-183
-171
-189
-232
-251
-209
-120
-27
55
152
285
425
510
512
475
457
465
449
380
295
260
291
344
376
389
411
449
481
490
491
499
511
511
497
480
468
455
439
434
453
484
507
519
543
594
652
685
682
664
647
626
585
539
526
-37
337
828
1376
1938
2543
3235
3948
4462
4557
4225
3677
3112
2500
1642
461
-819
-1826
-2357
-2532
-2601
-2671
-2639
-2374
-1909
-1439
-1136
-1020
-989
-957
-918
-912
-943
-959
-910
-803
-680
-579
-509
-458
-414
-362
-285
-181
-71
18
85
151
238
327
379
372
326
280
270
301
342
357
345
345
394
482
565
608
621
640
675
708
733
768
818
839
796
725
723
841
998
1068
1018
940
949
1047
1144
1176
1174
1200
1275
1381
1512
1685
1884
2037
2086
2059
2038
2069
2115
2111
2045
1951
1869
1808
1760
1729
1726
1737
1730
1693
1649
1634
1645
1646
1602
1512
1404
1300
1205
1107
992
863
745
667
642
644
628
563
451
314
168
9
-163
-332
-484
-603
-677
-694
-662
-616
-596
-610
-639
-667
-705
-769
-842
-887
-902
-908
-925
-930
-893
-824
-767
-751
-765
-784
-802
-825
-845
-843
-813
-778
-756
-739
-712
-685
-668
-665
-664
-673
-714
-792
-862
-865
-785
-676
-615
-629
-669
-664
-592
-499
-447
-458
-498
-514
-480
-419
-380
-404
-486
-577
-625
-621
-604
-622
-676
-727
-736
-715
-703
-723
-766
-825
-918
-1061
-1223
-1348
-1412
-1444
-1486
-1531
-1523
-1426
-1265
-1112
-1023
-998
-996
-967
-893
-802
-753
-786
-870
-910
-855
-758
-731
-827
-1002
-1182
-1359
-1594
-1914
-2271
-2583
-2818
-2964
-2973
-2775
-2371
-1866
-1362
-831
-179
543
1072
1140
754
190
-336
-913
-1789
-2995
-4208
-5036
-5392
-5512
-5632
-5736
-5671
-5413
-5113
-4895
-4686
-4304
-3667
-2860
-1992
-1035
128
1561
3177
4815
6340
7700
8899
9959
10888
11669
12290
12761
13120
13401
13607
13737
13827
13944
14117
14290
14386
14402
14411
14469
14535
14494
14261
13835
13264
12576
11776
10885
9946
8990
8004
6969
5896
4833
3816
2847
1892
928
-43
-992
-1898
-2752
-3552
-4298
-4987
-5621
-6203
-6718
-7138
-7450
-7665
-7803
-7873
-7878
-7839
-7791
-7758
-7721
-7640
-7514
-7397
-7345
-7339
-7294
-7143
-6897
-6621
-6348
-6061
-5742
-5423
-5146
-4898
-4621
-4281
-3921
-3616
-3376
-3132
-2804
-2386
-1943
-1546
-1241
-1042
-927
-824
-637
-336
-12
173
130
-66
-257
-360
-429
-571
-821
-1126
-1397
-1562
-1593
-1526
-1460
-1495
-1640
-1807
-1911
-1947
-1979
-2025
-2051
-2031
-1989
-1913
-1700
-1255
-677
-240
-144
-270
-285
-15
366
553
460
284
246
362
486
519
507
524
581
643
709
799
899
951
920
826
715
633
643
810
1134
1525
1867
2143
2443
2837
3280
3654
3910
4096
4254
4337
4274
4093
3933
3904
3964
3973
3859
3702
3649
3757
3919
3948
3757
3415
3038
2650
2158
1490
709
-34
-630
-1064
-1364
-1540
-1610
-1642
-1731
-1889
-2026
-2032
-1909
-1757
-1654
-1569
-1401
-1079
-620
-127
284
566
776
1032
1397
1837
2278
2706
3179
3726
4306
4906
5624
6566
7637
8515
8934
8958
8913
9010
9089
8797
7999
6945
6043
5525
5352
5372
5511
5780
6168
6606
7026
7403
7727
7937
7950
7762
7508
7383
7489
7730
7887
7799
7480
7064
6657
6244
5742
5119
4459
3884
3452
3136
2886
2673
2488
2312
2095
1794
1408
959
477
-5
-444
-804
-1083
-1316
-1538
-1753
-1941
-2084
-2180
-2243
-2325
-2505
-2833
-3255
-3610
-3769
-3748
-3690
-3708
-3763
-3702
-3404
-2887
-2304
-1823
-1515
-1316
-1091
-741
-295
113
375
499
576
669
753
762
678
545
411
296
196
115
74
85
130
182
218
220
176
82
-52
-186
-278
-314
-317
-327
-363
-413
-444
-449
-452
-484
-562
-679
-813
-938
-1037
-1119
-1202
-1280
-1315
-1298
-1283
-1335
-1437
-1487
-1423
-1322
-1335
-1501
-1685
-1728
-1639
-1565
-1606
-1694
-1700
-1605
-1516
-1517
-1554
-1508
-1350
-1174
-1096
-1130
-1196
-1196
-1087
-909
-760
-733
-843
-1000
-1070
-1018
-937
-953
-1097
-1271
-1344
-1270
-1098
-904
-753
-676
-679
-721
-740
-707
-671
-714
-850
-1001
-1065
-1009
-886
-767
-695
-671
-690
-739
-798
-862
-946
-1069
-1192
-1232
-1146
-976
-801
-679
-617
-617
-696
-851
-1053
-1288
-1569
-1896
-2199
-2373
-2385
-2315
-2240
-2136
-1937
-1670
-1474
-1452
-1530
-1555
-1511
-1558
-1804
-2140
-2334
-2271
-2065
-1903
-1815
-1698
-1452
-1094
-705
-318
93
561
1114
1758
2429
2956
3153
2970
2537
2003
1354
452
-736
-2001
-3025
-3628
-3862
-3883
-3798
-3616
-3296
-2841
-2347
-1963
-1785
-1771
-1757
-1631
-1452
-1363
-1365
-1318
-1108
-815
-628
-621
-692
-728
-736
-789
-879
-906
-836
-776
-851
-1045
-1198
-1201
-1114
-1095
-1231
-1446
-1597
-1597
-1492
-1399
-1393
-1437
-1443
-1362
-1233
-1131
-1084
-1057
-1006
-919
-815
-718
-634
-549
-439
-285
-99
77
220
340
470
613
741
858
997
1177
1383
1580
1766
1960
2147
2281
2357
2433
2562
2725
2855
2934
3024
3194
3423
3611
3677
3631
3540
3458
3377
3231
2972
2634
2342
2221
2261
2300
2154
1814
1467
1304
1306
1275
1045
658
320
166
147
110
-26
-210
-353
-451
-577
-752
-898
-917
-812
-673
-587
-550
-503
-418
-300
-158
12
177
270
261
237
327
553
782
852
756
636
601
599
518
374
329
494
742
847
758
690
875
1246
1510
1498
1340
1282
1381
1492
1506
1476
1510
1579
1595
1590
1681
1857
1920
1721
1373
1131
1057
950
642
267
104
218
384
405
394
596
1026
1410
1525
1485
1563
1803
1961
1815
1486
1275
1285
1328
1185
899
711
744
895
964
870
696
573
592
770
1051
1363
1730
2300
3219
4477
5992
7845
10283
13328
16380
18505
19225
18969
18575
18326
17714
16162
13898
11899
11018
11306
12217
13265
14304
15233
15703
15320
14083
12441
10852
9396
7861
6159
4587
3643
3572
4114
4649
4576
3660
2126
444
-1040
-2319
-3595
-4969
-6283
-7292
-7939
-8394
-8829
-9215
-9438
-9493
-9490
-9463
-9279
-8798
-8102
-7456
-7027
-6740
-6428
-6060
-5772
-5661
-5667
-5658
-5593
-5544
-5609
-5811
-6129
-6564
-7144
-7872
-8699
-9578
-10461
-11263
-11875
-12212
-12258
-12012
-11426
-10424
-9047
-7513
-6078
-4823
-3626
-2389
-1229
-403
-33
32
76
251
528
843
1236
1805
2600
3557
4548
5430
6081
6453
6587
6587
6509
6291
5823
5072
4123
3068
1898
554
-959
-2530
-4009
-5300
-6384
-7241
-7813
-8078
-8105
-8014
-7838
-7496
-6928
-6246
-5682
-5369
-5216
-5040
-4774
-4502
-4291
-4096
-3846
-3568
-3350
-3219
-3116
-3003
-2921
-2901
-2869
-2720
-2443
-2134
-1853
-1543
-1125
-620
-108
388
916
1487
2001
2331
2460
2480
2489
2492
2452
2376
2330
2361
2445
2527
2586
2641
2707
2759
2745
2641
2481
2309
2131
1908
1623
1326
1084
889
673
401
136
-33
-113
-207
-357
-468
-414
-216
-58
-75
-180
-173
-4
137
49
-242
-507
-577
-511
-485
-558
-600
-464
-173
106
242
248
211
161
50
-169
-470
-777
-1037
-1250
-1437
-1597
-1712
-1794
-1899
-2083
-2363
-2709
-3086
-3487
-3917
-4348
-4711
-4956
-5110
-5257
-5416
-5490
-5349
-4975
-4507
-4075
-3640
-3032
-2162
-1137
-136
784
1685
2549
3178
3366
3148
2774
2412
1953
1165
36
-1143
-2014
-2456
-2617
-2698
-2763
-2752
-2608
-2345
-2017
-1695
-1463
-1378
-1418
-1474
-1440
-1298
-1120
-984
-893
-795
-651
-467
-273
-104
18
108
215
391
614
791
835
765
671
598
499
319
101
-36
-40
24
63
67
111
243
424
568
629
624
594
576
593
656
766
931
1171
1484
1830
2158
2473
2831
3266
3731
4138
4453
4719
4986
5239
5423
5528
5622
5785
6025
6275
6470
6627
6835
7155
7535
7828
7935
7900
7866
7919
8005
8005
7881
7714
7601
7557
7517
7433
7322
7222
7124
6993
6813
6624
6485
6408
6355
6276
6156
6023
5893
5736
5511
5227
4957
4764
4627
4469
4253
4042
3911
3857
3790
3636
3429
3254
3138
3016
2829
2609
2456
2415
2423
2401
2355
2354
2437
2540
2561
2474
2356
2291
2272
2226
2112
1957
1809
1692
1620
1613
1669
1727
1695
1540
1314
1071
786
374
-205
-909
-1655
-2390
-3080
-3682
-4171
-4612
-5123
-5752
-6427
-7063
-7718
-8552
-9653
-10931
-12195
-13342
-14397
-15358
-16175
-16837
-17399
-17904
-18315
-18597
-18856
-19276
-19916
-20641
-21333
-22028
-22744
-23207
-22952
-21791
-20060
-18279
-16581
-14631
-12154
-9406
-7021
-5412
-4438
-3655
-2777
-1825
-932
-129
635
1393
2116
2754
3277
3696
3976
4058
3911
3577
3222
3062
3227
3655
4194
4784
5487
6359
7277
7973
8268
8253
8188
8171
7977
7302
6161
5026
4456
4578
4926
4879
4247
3410
2883
2761
2635
2036
953
-119
-596
-278
590
1632
2652
3657
4658
5537
6141
6418
6447
6307
5983
5455
4822
4321
4157
4301
4471
4361
3903
3321
2891
2663
2440
2040
1559
1321
1543
2107
2695
3119
3441
3792
4164
4403
4398
4178
3857
3526
3228
3000
2889
2899
3010
3207
3485
3825
4160
4424
4611
4777
4951
5091
5137
5112
5125
5277
5550
5819
5967
5997
6005
6068
6150
6146
6005
5795
5614
5481
5328
5113
4886
4741
4683
4623
4494
4331
4213
4120
3934
3584
3153
2798
2582
2419
2202
1934
1722
1644
1650
1639
1564
1458
1353
1231
1075
913
811
790
796
764
693
634
623
650
671
664
625
555
460
385
395
501
650
772
872
1030
1281
1537
1657
1592
1443
1373
1456
1618
1717
1692
1614
1606
1731
1926
2058
2007
1790
1527
1332
1223
1138
1033
932
869
828
759
642
530
467
404
215
-147
-553
-800
-796
-619
-430
-320
-263
-205
-135
-86
-95
-169
-285
-386
-395
-285
-118
-23
-42
-51
127
495
817
827
489
49
-225
-327
-482
-860
-1369
-1729
-1787
-1626
-1438
-1294
-1142
-962
-838
-856
-978
-1054
-1021
-977
-1045
-1178
-1129
-671
161
1051
1660
1951
2207
2707
3379
3798
3590
2834
1981
1381
933
277
-759
-1963
-2990
-3719
-4266
-4700
-4933
-4874
-4628
-4416
-4334
-4256
-4025
-3672
-3420
-3440
-3684
-3936
-4027
-3981
-3947
-4011
-4104
-4099
-3970
-3835
-3810
-3847
-3794
-3588
-3331
-3148
-3041
-2911
-2704
-2473
-2292
-2161
-2011
-1813
-1587
-1351
-1100
-850
-644
-510
-399
-253
-90
21
52
72
153
275
369
414
458
550
678
781
821
807
783
796
864
949
989
958
897
885
938
994
999
965
938
918
880
839
857
942
996
913
719
565
566
662
697
598
432
321
321
376
404
374
325
305
320
329
307
291
329
388
373
242
83
20
20
-86
-393
-768
-984
-1003
-1015
-1192
-1473
-1645
-1609
-1487
-1456
-1545
-1648
-1682
-1673
-1679
-1723
-1778
-1818
-1832
-1791
-1678
-1512
-1344
-1206
-1106
-1046
-1040
-1067
-1056
-960
-832
-770
-792
-780
-591
-221
157
362
370
307
306
376
435
424
378
379
467
620
798
991
1199
1393
1541
1652
1809
2099
2510
2901
3095
3035
2866
2839
3099
3532
3854
3868
3672
3577
3760
4062
4152
3897
3481
3162
2972
2732
2368
2065
2044
2263
2409
2273
2010
1960
2249
2622
2717
2428
1996
1720
1705
1842
1966
2004
1946
1785
1525
1225
1002
942
1036
1196
1356
1543
1835
2268
2785
3298
3801
4360
4966
5404
5383
4876
4161
3532
2957
2142
939
-391
-1390
-1859
-1971
-2029
-2185
-2445
-2779
-3127
-3360
-3355
-3211
-3225
-3563
-4004
-4105
-3689
-3078
-2759
-2879
-3077
-2889
-2263
-1618
-1394
-1617
-1917
-1940
-1690
-1435
-1325
-1282
-1127
-814
-450
-93
361
1051
1947
2850
3563
4057
4446
4858
5350
5891
6392
6739
6890
6970
7238
7911
8956
10059
10858
11213
11253
11173
11030
10729
10149
9245
8048
6670
5315
4206
3424
2834
2235
1604
1085
777
572
277
-144
-529
-762
-944
-1284
-1853
-2519
-3112
-3589
-4019
-4489
-5012
-5513
-5851
-5904
-5663
-5237
-4773
-4348
-3943
-3560
-3276
-3118
-2940
-2528
-1843
-1100
-555
-227
78
476
822
847
447
-244
-1044
-1894
-2799
-3675
-4339
-4664
-4704
-4612
-4474
-4224
-3767
-3133
-2491
-2029
-1820
-1791
-1820
-1833
-1827
-1844
-1943
-2180
-2567
-3024
-3431
-3734
-3980
-4238
-4502
-4672
-4659
-4482
-4215
-3875
-3393
-2711
-1877
-1023
-239
481
1219
2044
2967
3952
4945
5919
6915
8055
9436
11011
12573
13879
14802
15347
15523
15270
14547
13449
12190
10923
9646
8308
6968
5794
4889
4165
3421
2528
1489
340
-940
-2390
-3960
-5510
-6949
-8308
-9680
-11059
-12280
-13138
-13595
-13818
-14029
-14290
-14465
-14394
-14065
-13618
-13167
-12681
-12086
-11386
-10646
-9849
-8862
-7601
-6164
-4762
-3486
-2236
-888
543
1955
3338
4789
6294
7645
8649
9400
10174
11044
11671
11589
10733
9517
8366
7268
5869
3957
1774
-186
-1580
-2370
-2689
-2669
-2428
-2092
-1761
-1454
-1182
-1052
-1214
-1702
-2343
-2914
-3341
-3722
-4130
-4505
-4739
-4841
-4976
-5303
-5810
-6336
-6742
-7025
-7294
-7614
-7908
-8033
-7943
-7762
-7685
-7795
-7980
-8054
-7943
-7740
-7555
-7371
-7045
-6453
-5636
-4783
-4082
-3577
-3151
-2659
-2075
-1524
-1143
-923
-724
-453
-186
-78
-154
-230
-98
243
583
749
785
882
1153
1521
1830
2007
2094
2157
2204
2200
2144
2089
2104
2205
2343
2442
2461
2443
2477
2610
2789
2892
2845
2693
2566
2561
2663
2774
2814
2802
2823
2932
3097
3244
3334
3401
3488
3594
3683
3731
3764
3825
3927
4061
4208
4362
4533
4744
5007
5315
5644
5969
6284
6583
6836
7013
7112
7148
7146
7136
7160
7260
7432
7619
7769
7886
8004
8121
8202
8242
8309
8453
8600
8604
8409
8092
7740
7336
6813
6190
5566
5030
4612
4358
4368
4696
5219
5689
5968
6145
6384
6702
6927
6890
6621
6302
6092
5989
5870
5629
5267
4874
4529
4243
3979
3723
3520
3428
3470
3611
3761
3808
3681
3385
3009
2659
2381
2154
1946
1802
1812
2004
2287
2515
2613
2605
2544
2451
2326
2181
2051
1980
1990
2072
2203
2355
2517
2685
2828
2876
2782
2603
2485
2508
2569
2482
2216
1980
2008
2277
2534
2611
2643
2906
3429
3902
3976
3609
3035
2439
1730
677
-772
-2385
-3847
-4998
-5880
-6609
-7260
-7831
-8242
-8383
-8201
-7812
-7469
-7346
-7334
-7124
-6528
-5684
-4893
-4287
-3735
-3094
-2426
-1927
-1682
-1612
-1632
-1800
-2203
-2795
-3397
-3891
-4319
-4765
-5226
-5632
-5962
-6270
-6569
-6788
-6895
-7008
-7302
-7795
-8308
-8646
-8795
-8901
-9085
-9337
-9565
-9726
-9829
-9876
-9823
-9654
-9407
-9134
-8815
-8367
-7751
-7032
-6328
-5712
-5162
-4626
-4105
-3651
-3282
-2936
-2537
-2083
-1653
-1300
-987
-621
-176
261
569
706
704
614
439
190
-58
-200
-212
-195
-266
-417
-517
-478
-375
-400
-673
-1135
-1616
-2003
-2329
-2694
-3140
-3620
-4071
-4452
-4743
-4941
-5060
-5155
-5274
-5386
-5391
-5217
-4914
-4600
-4315
-3965
-3448
-2802
-2227
-1883
-1730
-1587
-1347
-1089
-980
-1070
-1244
-1348
-1324
-1255
-1258
-1387
-1604
-1845
-2076
-2326
-2652
-3096
-3654
-4307
-5063
-5898
-6691
-7277
-7621
-7900
-8344
-8956
-9436
-9449
-8983
-8380
-8002
-7876
-7715
-7246
-6491
-5729
-5199
-4889
-4601
-4173
-3625
-3097
-2685
-2364
-2040
-1679
-1347
-1134
-1034
-926
-696
-346
1
233
360
502
746
1045
1262
1322
1286
1279
1349
1430
1447
1423
1461
1617
1832
1999
2071
2090
2132
2216
2307
2370
2421
2495
2597
2702
2792
2876
2980
3097
3191
3249
3309
3427
3628
3892
4222
4674
5287
6023
6791
7546
8306
9030
9538
9593
9129
8324
7422
6495
5418
4100
2682
1481
733
425
362
365
380
444
594
801
983
1046
963
778
586
474
465
534
647
788
961
1168
1392
1585
1684
1665
1579
1524
1552
1605
1576
1433
1272
1228
1338
1514
1636
1667
1661
1675
1711
1722
1676
1589
1511
1474
1485
1520
1564
1615
1667
1706
1717
1712
1722
1759
1791
1765
1683
1619
1644
1739
1807
1789
1737
1750
1857
1973
2004
1953
1895
1877
1867
1810
1711
1638
1636
1674
1697
1694
1714
1779
1840
1821
1709
1576
1490
1433
1327
1136
933
829
844
886
865
793
749
760
748
630
430
258
180
131
11
-180
-327
-340
-251
-188
-227
-320
-383
-395
-409
-474
-569
-646
-680
-685
-681
-671
-655
-647
-658
-670
-646
-583
-531
-543
-611
-678
-698
-680
-668
-678
-683
-654
-599
-548
-505
-459
-411
-385
-392
-407
-396
-357
-338
-365
-397
-363
-246
-113
-50
-66
-80
-16
109
202
181
66
-48
-88
-64
-47
-100
-231
-387
-491
-493
-412
-318
-278
-302
-346
-370
-378
-397
-435
-485
-560
-684
-850
-990
-1034
-997
-978
-1057
-1198
-1288
-1250
-1118
-985
-905
-862
-808
-714
-582
-439
-318
-254
-254
-282
-276
-219
-150
-120
-126
-114
-25
152
381
642
961
1395
1962
2607
3256
3888
4545
5216
5748
5909
5599
4960
4243
3538
2689
1527
160
-1051
-1807
-2130
-2283
-2444
-2543
-2416
-2044
-1596
-1256
-1063
-921
-754
-577
-439
-348
-265
-154
-16
120
229
312
392
491
612
737
838
906
951
991
1024
1042
1035
1007
980
979
1018
1091
1177
1247
1292
1332
1389
1466
1542
1600
1638
1665
1679
1688
1714
1767
1817
1814
1741
1654
1625
1672
1746
1797
1828
1875
1951
2035
2106
2169
2235
2303
2353
2372
2361
2327
2293
2293
2335
2379
2363
2273
2187
2199
2318
2458
2524
2501
2463
2481
2558
2636
2659
2615
2535
2466
2422
2379
2306
2194
2074
1978
1900
1803
1665
1512
1386
1289
1185
1052
912
800
715
627
520
422
366
339
294
199
89
18
-8
-32
-100
-212
-334
-440
-522
-586
-636
-690
-777
-899
-1013
-1076
-1094
-1116
-1179
-1253
-1283
-1268
-1270
-1334
-1429
-1485
-1480
-1476
-1548
-1709
-1876
-1951
-1925
-1882
-1910
-2014
-2115
-2152
-2137
-2135
-2187
-2276
-2357
-2411
-2450
-2483
-2501
-2503
-2506
-2519
-2523
-2506
-2490
-2513
-2584
-2647
-2650
-2596
-2540
-2516
-2500
-2436
-2309
-2165
-2064
-2030
-2041
-2076
-2131
-2205
-2289
-2368
-2432
-2481
-2512
-2514
-2489
-2452
-2418
-2381
-2326
-2262
-2228
-2231
-2228
-2168
-2073
-2012
-2022
-2050
-2013
-1907
-1825
-1845
-1929
-1966
-1893
-1740
-1576
-1422
-1228
-923
-462
147
827
1467
2029
2607
3323
4094
4591
4497
3847
3018
2339
1729
828
-527
-2032
-3174
-3718
-3864
-3954
-4104
-4174
-4013
-3665
-3317
-3103
-3026
-3018
-3038
-3074
-3106
-3100
-3043
-2956
-2868
-2786
-2704
-2642
-2635
-2694
-2758
-2756
-2691
-2651
-2715
-2849
-2928
-2882
-2762
-2685
-2698
-2748
-2763
-2733
-2691
-2657
-2628
-2600
-2575
-2543
-2470
-2347
-2210
-2099
-2009
-1910
-1791
-1674
-1581
-1500
-1409
-1316
-1243
-1181
-1097
-983
-860
-753
-644
-506
-364
-256
-167
-32
190
433
608
714
860
1116
1417
1633
1733
1829
2030
2296
2496
2564
2584
2689
2896
3097
3185
3183
3206
3317
3467
3557
3563
3554
3609
3726
3845
3934
4020
4136
4263
4355
4401
4431
4472
4498
4476
4428
4425
4505
4624
4717
4786
4894
5074
5270
5404
5460
5508
5611
5744
5831
5838
5804
5789
5813
5838
5822
5765
5700
5649
5594
5505
5379
5249
5147
5070
4997
4927
4890
4899
4933
4964
4994
5043
5104
5121
5056
4942
4856
4825
4792
4698
4568
4487
4490
4519
4493
4403
4297
4199
4078
3905
3718
3595
3554
3539
3480
3373
3267
3203
3163
3111
3027
2912
2775
2639
2545
2517
2519
2469
2318
2108
1931
1818
1707
1519
1258
1003
811
660
503
339
218
161
123
36
-106
-247
-336
-382
-439
-532
-634
-707
-748
-785
-841
-905
-956
-997
-1063
-1171
-1304
-1428
-1502
-1494
-1397
-1232
-1017
-728
-299
289
937
1503
1976
2497
3144
3709
3802
3251
2327
1488
876
171
-998
-2564
-4014
-4884
-5173
-5255
-5429
-5654
-5697
-5451
-5047
-4701
-4511
-4431
-4389
-4368
-4381
-4417
-4426
-4373
-4274
-4183
-4130
-4098
-4054
-3994
-3939
-3901
-3865
-3817
-3767
-3737
-3737
-3749
-3749
-3727
-3691
-3655
-3627
-3609
-3591
-3561
-3514
-3460
-3416
-3384
-3360
-3344
-3344
-3358
-3363
-3336
-3285
-3245
-3238
-3255
-3256
-3215
-3140
-3071
-3037
-3041
-3047
-3009
-2913
-2800
-2723
-2702
-2697
-2651
-2550
-2435
-2344
-2271
-2180
-2057
-1922
-1794
-1666
-1523
-1379
-1266
-1195
-1140
-1062
-954
-843
-754
-690
-632
-564
-482
-395
-319
-271
-254
-255
-258
-251
-242
-235
-225
-211
-219
-277
-377
-461
-21762
-24322
-26370
-25858
-22018
-17922
-15362
-12546
-10498
-11778
-17154
-22274
-22786
-20994
-27394
18941
-258
510
30207
13824
9473
26883
18181
-20984
11530
28940
-19953
23058
7699
-8941
-26607
-27377
7949
1290
-24058
-17663
16891
-12040
17398
-2314
-21514
11253
-31243
-18441
17657
-29445
28412
24572
-19716
-3
27389
-17667
-16131
-25347
-24323
-1794
-30721
3327
25855
-25345
-13569
-5377
-6401
-15617
-23809
-20993
-7936
6144
14592
18944
25856
-27904
-13311
1537
14849
25089
32001
-27903
-20479
-10751
-1278
3074
1793
-3071
-8959
-11007
-6142
6914
22530
-32254
-27646
-24062
-15358
-4349
3075
4355
5635
11523
20483
26115
29699
-24828
772
-29947
1285
17925
24069
-31995
-12282
9734
18694
8709
-5883
-6138
11270
32006
-23802
-21754
-14329
1543
15879
18439
11271
4358
-250
-9978
-29946
12037
-5883
-18683
32261
13572
-3068
-15100
-27132
18435
-8189
-32765
14851
2
-20222
18433
-10239
29953
7168
-14848
28160
5631
-16897
26879
10239
1534
-2562
-10498
-25346
27134
26878
-27650
-20226
-28418
18686
7678
13310
28926
-26114
-25858
-32002
26110
20990
20990
28414
-28674
-30722
18173
-1027
-5122
9214
26366
31486
27134
26878
-27906
-13058
-3586
-2306
-6146
-11266
-14850
-14082
-9218
-5122
-5634
-7682
-5122
-514
-1794
-9474
-12546
-1
19967
26623
13310
-2305
1791
22783
-29953
23294
-2306
-17922
-16898
-14082
-23554
24318
12542
14078
23550
32254
-28674
-28674
-32514
30206
-28930
-12034
-514
-11010
25342
4094
13054
-24066
-12290
28669
-13059
29949
-27651
-13571
-21507
15868
-5124
-2563
10749
12028
-2820
-15876
-14340
-4356
-516
-7684
-17156
-19972
-15876
-8195
2301
14589
24573
28925
29949
-31491
-26115
-30467
17404
-1028
-771
25598
4863
2560
-29438
-11515
-25336
27915
7437
-239
5651
-32236
3346
30479
-12019
20234
-9465
19202
4348
19959
-3595
-6411
26357
8180
-24076
-32011
23543
504
-19719
-11270
23546
-23814
-3589
22267
-17668
5884
-32515
509
30717
-22275
-31747
21245
27389
-17155
-7939
-26371
13565
18173
-4098
-21506
-7682
-27906
16638
17918
27902
19197
-11011
31485
-26626
2046
23038
23806
21758
-29186
-2561
10494
-2050
-27138
23550
25342
-32514
-28162
-22274
-7425
12287
23295
20479
17151
28159
-12032
9984
13312
4352
4864
29953
3329
-31999
-19967
-12542
11266
-12285
29187
-11772
2308
22020
-11771
22021
-18427
-1018
14854
29446
-27130
-23290
-15353
2055
23303
-30457
-32249
27399
29191
-24057
-10233
-4345
-7673
-11769
-7928
3848
15880
18952
14344
10504
10248
6663
-6649
-26617
25095
24327
27655
24583
15367
10759
18439
30983
-29689
28167
13318
-3322
-18938
-30970
31238
-28666
-21498
-20730
-25338
-27130
-21498
-13818
-13050
-20730
-29946
31494
32262
29958
19462
1285
-17147
-30203
28421
20741
4868
-22524
10243
-16381
-29949
31235
20994
-8190
11265
29696
-6400
31743
-3073
11006
18685
-25347
17405
6396
-7172
-24836
28156
27132
31996
-29444
-21251
1277
-26114
19711
4096
1537
23555
772
-20730
6151
10247
-3064
-28152
-2295
2568
-18424
775
3078
5
772
6403
14594
27649
-14847
15360
-25857
-17922
-18435
-8451
18940
-18181
-10758
-25095
25848
30199
-12809
12790
-32011
-15116
-12
10483
16370
22769
-32272
-26129
29422
3820
-23317
29674
31977
-24600
-14104
4583
-26649
23783
21735
30695
-15896
8680
30696
-19223
1001
-23318
-20244
7405
-13585
-21007
-16908
2038
-18439
-2819
31488
32514
7938
16897
-19967
8192
13309
-6407
-6411
16881
-24081
-8465
-22288
-29198
-26635
-18952
-1029
18940
-12289
514
-13049
5897
-13302
22538
31756
31248
-24043
7447
-2536
-12008
-29416
2327
-31978
-12011
-17644
7442
15
-13810
6669
18189
1036
-15092
20235
-17653
521
-15609
-16891
15106
-3327
-28159
19713
-6398
-12285
24323
13314
-31230
5122
30211
30724
19460
20995
-27646
32513
-32768
-12032
32512
30208
28672
8447
27902
-19202
-23297
-26111
12290
-30462
-766
-18686
-26877
22532
-8698
26631
17159
23047
4870
-11770
-12537
11784
1289
6409
-3574
16906
12810
10506
20746
27146
10761
-24311
520
22535
-28666
-20219
-8443
6660
12291
6146
8193
-24831
29697
8192
26623
-21249
32767
-256
-14591
24065
-26111
-24319
-25087
-20223
-11519
-11007
31744
-10752
24576
-20479
-5373
-25851
5638
6150
-11769
-28152
28937
22282
-97
-87
-99
-143
-175
-158
-112
-96
-135
-183
-167
-66
51
105
83
43
33
52
50
4
-55
-76
-38
55
210
478
913
1494
2132
2761
3423
4199
5033
5661
5785
5374
4712
4107
3546
2719
1431
-85
-1314
-1933
-2088
-2173
-2385
-2579
-2506
-2135
-1680
-1379
-1278
-1259
-1208
-1107
-1010
-955
-923
-876
-805
-737
-710
-740
-810
-889
-950
-987
-1005
-1017
-1019
-1007
-981
-957
-961
-993
-1023
-1019
-987
-973
-1020
-1109
-1168
-1139
-1038
-933
-872
-845
-803
-721
-622
-543
-495
-463
-441
-441
-472
-506
-502
-445
-370
-315
-279
-220
-106
46
181
267
315
354
397
442
495
567
646
700
716
725
772
868
973
1037
1059
1074
1104
1131
1121
1063
975
874
773
689
637
610
580
537
518
571
679
749
711
600
512
494
492
428
303
191
142
125
91
46
53
133
225
249
196
145
175
281
389
436
433
440
494
574
631
649
661
709
792
869
908
929
983
1097
1240
1349
1393
1407
1455
1555
1666
1727
1721
1691
1690
1726
1768
1803
1850
1916
1957
1923
1837
1790
1847
1958
2010
1951
1850
1814
1877
1974
2011
1966
1886
1822
1781
1736
1665
1578
1506
1467
1439
1383
1286
1187
1135
1137
1148
1124
1065
1001
953
909
852
782
714
648
566
451
307
163
48
-27
-75
-124
-191
-268
-342
-401
-451
-499
-545
-590
-631
-664
-678
-675
-675
-703
-750
-781
-777
-774
-837
-975
-1115
-1168
-1116
-1015
-903
-737
-439
5
524
1048
1590
2210
2879
3434
3674
3522
3088
2540
1939
1206
246
-898
-2019
-2880
-3365
-3539
-3548
-3499
-3399
-3213
-2936
-2639
-2413
-2305
-2286
-2297
-2303
-2299
-2285
-2243
-2158
-2047
-1948
-1897
-1890
-1901
-1904
-1883
-1829
-1747
-1663
-1616
-1617
-1637
-1635
-1609
-1595
-1628
-1703
-1775
-1798
-1757
-1671
-1581
-1524
-1505
-1499
-1469
-1402
-1323
-1260
-1211
-1148
-1055
-944
-841
-761
-703
-666
-648
-634
-613
-583
-553
-534
-514
-473
-405
-323
-254
-212
-188
-155
-90
0
86
136
152
169
221
294
343
335
288
250
255
293
328
327
288
233
191
174
161
123
48
-46
-125
-180
-222
-260
-287
-299
-323
-396
-511
-611
-652
-657
-700
-814
-939
-995
-956
-886
-860
-885
-913
-908
-883
-879
-906
-947
-989
-1029
-1058
-1052
-992
-900
-826
-794
-779
-740
-668
-602
-586
-627
-686
-719
-711
-678
-643
-618
-593
-552
-487
-396
-295
-208
-159
-145
-133
-82
4
76
92
77
103
211
363
484
544
574
619
679
721
731
727
730
745
761
777
12
80
150
195
239
316
408
466
464
446
473
554
637
674
673
676
694
691
646
596
592
626
638
599
571
639
801
945
966
882
818
866
991
1078
1045
924
812
783
833
897
920
898
880
904
963
1018
1048
1064
1073
1057
1001
923
859
807
725
590
449
366
346
327
267
190
150
158
172
155
112
53
-19
-97
-162
-199
-225
-265
-310
-322
-293
-285
-352
-467
-545
-545
-530
-598
-781
-986
-1075
-987
-792
-615
-523
-468
-360
-176
14
123
139
103
39
-68
-220
-359
-428
-454
-517
-639
-736
-711
-583
-472
-470
-543
-583
-549
-499
-517
-616
-725
-777
-777
-783
-827
-885
-910
-886
-859
-887
-973
-1066
-1120
-1156
-1229
-1351
-1469
-1535
-1564
-1606
-1678
-1749
-1788
-1812
-1852
-1903
-1938
-1949
-1964
-1992
-2006
-1974
-1911
-1854
-1810
-1747
-1649
-1536
-1439
-1364
-1300
-1253
-1240
-1253
-1259
-1246
-1237
-1251
-1251
-1180
-1038
-906
-867
-916
-969
-957
-913
-923
-1028
-1161
-1212
-1136
-999
-904
-878
-856
-774
-654
-585
-613
-680
-687
-604
-490
-416
-380
-318
-191
-31
95
148
148
133
120
89
34
3
62
230
472
764
1159
1714
2399
3096
3738
4385
5113
5829
6282
6295
5945
5459
4942
4287
3357
2212
1094
225
-348
-690
-861
-898
-855
-790
-709
-588
-470
-493
-764
-1229
-1714
-2123
-2539
-3079
-3700
-4208
-4471
-4575
-4702
-4911
-5060
-4992
-4716
-4392
-4158
-4017
-3892
-3751
-3622
-3538
-3504
-3522
-3618
-3800
-4017
-4191
-4292
-4360
-4432
-4498
-4531
-4552
-4610
-4715
-4819
-4897
-5012
-5279
-5737
-6271
-6696
-6915
-7000
-7101
-7274
-7426
-7423
-7278
-7176
-7292
-7570
-7736
-7553
-7063
-6527
-6112
-5704
-5045
-4059
-2964
-2050
-1410
-897
-344
268
848
1331
1748
2157
2578
2997
3393
3749
4045
4286
4498
4693
4834
4882
4864
4871
4957
5069
5094
4982
4801
4666
4634
4683
4768
4866
4987
5146
5358
5615
5883
6133
6359
6577
6775
6875
6790
6502
6077
5585
5019
4318
3467
2547
1694
1008
507
165
-54
-165
-163
-40
191
482
766
995
1167
1304
1427
1549
1673
1808
1965
2145
2335
2525
2704
2863
2991
3080
3115
3064
2904
2661
2391
2141
1915
1681
1421
1150
913
747
668
663
695
741
831
1042
1427
1934
2431
2828
3164
3550
4034
4545
4984
5318
5577
5775
5869
5833
5696
5508
5267
4929
4469
3937
3425
3004
2696
2478
2288
2060
1787
1530
1301
982
399
-468
-1403
-2147
-2678
-3215
-3922
-4661
-5107
-5129
-4937
-4844
-4934
-5025
-4925
-4670
-4427
-4275
-4154
-3968
-3722
-3479
-3252
-2964
-2528
-1919
-1188
-414
359
1158
2054
3091
4215
5289
6214
6993
7668
8226
8618
8851
9010
9160
9265
9263
9200
9204
9344
9560
9787
10076
10495
10936
11145
10990
10608
10233
9875
9301
8332
7095
5918
5024
4395
3925
3582
3391
3317
3266
3192
3147
3208
3351
3464
3466
3393
3325
3314
3353
3418
3501
3612
3737
3861
3993
4173
4430
4724
4971
5108
5136
5096
5010
4862
4653
4420
4217
4062
3926
3789
3681
3638
3654
3672
3642
3560
3442
3305
3157
3009
2879
2762
2627
2453
2247
2033
1822
1605
1387
1197
1048
914
742
500
208
-82
-337
-551
-742
-923
-1082
-1188
-1224
-1203
-1173
-1175
-1214
-1270
-1325
-1373
-1398
-1383
-1339
-1314
-1350
-1423
-1446
-1371
-1263
-1245
-1374
-1566
-1695
-1720
-1721
-1784
-1903
-1988
-1989
-1958
-1979
-2062
-2125
-2097
-2009
-1947
-1942
-1929
-1830
-1667
-1556
-1578
-1693
-1789
-1810
-1806
-1856
-1974
-2097
-2177
-2229
-2281
-2333
-2362
-2381
-2438
-2549
-2658
-2701
-2702
-2771
-2963
-3202
-3338
-3310
-3209
-3158
-3180
-3177
-3059
-2856
-2677
-2593
-2570
-2531
-2457
-2388
-2363
-2359
-2330
-2271
-2220
-2186
-2135
-2056
-2010
-2059
-2176
-2276
-2312
-2326
-2359
-2354
-2224
-1998
-1821
-1780
-1785
-1695
-1526
-1454
-1589
-1817
-1940
-1921
-1897
-1955
-1988
-1865
-1642
-1509
-1531
-1564
-1463
-1288
-1231
-1357
-1506
-1497
-1344
-1199
-1144
-1117
-1026
-875
-729
-617
-516
-424
-387
-446
-588
-775
-999
-1241
-1427
-1485
-1440
-1413
-1475
-1544
-1476
-1256
-1037
-973
-1055
-1145
-1158
-1118
-1092
-1083
-1066
-1048
-1058
-1086
-1073
-987
-905
-919
-1000
-1004
-839
-572
-350
-194
40
475
1065
1656
2214
2879
3758
4679
5274
5329
4980
4528
4051
3288
1980
239
-1464
-2689
-3368
-3735
-4028
-4265
-4329
-4154
-3806
-3424
-3106
-2893
-2793
-2776
-2777
-2712
-2518
-2196
-1831
-1532
-1355
-1260
-1152
-994
-834
-751
-735
-703
-589
-436
-343
-344
-383
-381
-328
-283
-292
-342
-380
-376
-351
-347
-363
-362
-325
-298
-342
-455
-535
-474
-259
20
273
462
578
614
591
589
677
808
830
647
375
247
381
649
825
827
780
860
1094
1360
1537
1609
1638
1675
1736
1824
1949
2102
2255
2365
2428
2473
2540
2639
2730
2751
2668
2496
2289
2108
1978
1872
1740
1574
1427
1363
1379
1385
1301
1146
1003
905
780
540
209
-76
-219
-287
-435
-718
-995
-1094
-991
-843
-802
-841
-813
-682
-564
-561
-614
-567
-382
-192
-113
-83
33
233
357
300
159
90
121
144
90
35
74
175
227
200
171
180
162
53
-76
-104
-6
111
173
235
398
632
763
662
404
202
187
307
434
516
633
883
1245
1578
1743
1715
1585
1441
1308
1155
972
822
790
916
1161
1430
1611
1658
1627
1612
1633
1613
1470
1245
1099
1154
1357
1538
1603
1622
1709
1868
1972
1921
1745
1553
1409
1277
1111
927
790
729
682
569
374
144
-58
-210
-343
-494
-683
-887
-1050
-1094
-991
-813
-700
-743
-898
-1033
-1078
-1096
-1190
-1358
-1504
-1555
-1527
-1448
-1278
-943
-470
22
444
815
1215
1700
2303
3082
4014
4893
5380
5243
4580
3720
2961
2365
1826
1290
891
892
1479
2560
3747
4557
4717
4296
3574
2763
1882
875
-223
-1255
-2037
-2465
-2544
-2377
-2158
-2093
-2289
-2715
-3257
-3814
-4294
-4570
-4525
-4147
-3574
-2975
-2382
-1735
-1051
-488
-162
50
416
1048
1760
2296
2676
3185
3981
4806
5197
4967
4399
3905
3579
3168
2459
1581
883
582
588
648
584
369
51
-362
-921
-1679
-2608
-3600
-4524
-5301
-5945
-6539
-7177
-7906
-8714
-9546
-10313
-10938
-11428
-11842
-12191
-12384
-12272
-11791
-11036
-10188
-9398
-8699
-8027
-7309
-6521
-5693
-4877
-4073
-3228
-2300
-1331
-451
228
702
1080
1491
2011
2656
3421
4284
5206
6177
7244
8473
9828
11119
12137
12839
13373
13902
14416
14727
14666
14215
13493
12642
11739
10782
9707
8458
7096
5822
4862
4320
4129
4214
4638
5591
7190
9326
11717
14129
16506
18925
21448
23995
26356
28295
29692
30601
31201
31687
32166
32585
32743
32408
31475
30029
28260
26285
24042
21392
18316
15011
11806
8998
6706
4835
3173
1553
-32
-1448
-2619
-3653
-4753
-6006
-7288
-8423
-9401
-10354
-11393
-12485
-13518
-14456
-15355
-16268
-17172
-17999
-18715
-19323
-19805
-20084
-20117
-19990
-19903
-20025
-20354
-20716
-20933
-20974
-20956
-20996
-21080
-21076
-20887
-20559
-20210
-19887
-19538
-19099
-18607
-18153
-17766
-17372
-16891
-16333
-15800
-15366
-15000
-14602
-14096
-13477
-12780
-12048
-11322
-10642
-10015
-9405
-8788
-8176
-7616
-7133
-6704
-6267
-5769
-5195
-4564
-3895
-3179
-2364
-1387
-250
955
2130
3246
4312
5248
5850
5966
5682
5245
4780
4148
3165
1925
812
157
-67
-150
-282
-375
-252
76
405
579
633
689
773
811
755
660
610
608
603
565
522
503
478
394
272
203
246
360
429
392
298
248
278
330
335
298
278
293
280
185
39
-88
-174
-287
-474
-671
-767
-734
-675
-691
-767
-805
-770
-728
-747
-821
-900
-959
-1004
-1023
-990
-925
-889
-904
-925
-920
-937
-1051
-1241
-1384
-1404
-1362
-1371
-1435
-1435
-1286
-1054
-869
-781
-735
-662
-562
-465
-357
-210
-46
82
181
377
831
1587
2528
3475
4320
5061
5711
6230
6521
6513
6211
5684
5024
4332
3692
3162
2746
2401
2091
1829
1646
1536
1438
1278
1065
868
752
707
664
567
435
315
206
57
-188
-514
-839
-1089
-1237
-1287
-1256
-1165
-1053
-964
-903
-831
-717
-592
-517
-520
-560
-562
-507
-455
-482
-611
-775
-872
-839
-706
-566
-494
-473
-424
-297
-123
25
105
129
134
135
135
150
208
302
386
424
431
458
541
666
791
875
898
876
858
896
997
1103
1151
1144
1145
1205
1315
1421
1492
1542
1608
1698
1790
1862
1905
1920
1919
1917
1933
1975
2039
2114
2189
2241
2255
2243
2237
2249
2249
2193
2084
1987
1964
2009
2059
2081
2120
2238
2432
2626
2750
2820
2906
3036
3163
3242
3298
3424
3699
4110
4578
5060
5610
6317
7205
8193
9182
10157
11186
12272
13249
13857
13958
13647
13125
12469
11562
10262
8638
6974
5567
4508
3684
2952
2287
1756
1387
1131
902
637
298
-148
-704
-1321
-1944
-2583
-3311
-4171
-5095
-5968
-6762
-7531
-8313
-9019
-9488
-9644
-9579
-9467
-9408
-9371
-9289
-9178
-9169
-9386
-9795
-10183
-10307
-10110
-9761
-9476
-9282
-8995
-8452
-7723
-7082
-6750
-6707
-6765
-6759
-6661
-6524
-6378
-6188
-5896
-5480
-4957
-4372
-3760
-3153
-2603
-2165
-1879
-1732
-1673
-1662
-1711
-1839
-2006
-2124
-2152
-2144
-2194
-2324
-2455
-2496
-2442
-2382
-2399
-2490
-2570
-2550
-2403
-2168
-1898
-1609
-1274
-873
-451
-102
108
199
239
251
188
19
-191
-312
-255
-30
322
798
1413
2132
2862
3527
4122
4660
5104
5376
5442
5359
5219
5052
4846
4606
4398
4277
4232
4203
4151
4092
4056
4028
3959
3791
3468
2945
2200
1281
312
-551
-1169
-1454
-1348
-835
11
1035
2096
3151
4191
5078
5501
5161
4073
2602
1172
-69
-1257
-2502
-3629
-4318
-4442
-4203
-3908
-3681
-3450
-3168
-2948
-2921
-3014
-3000
-2736
-2300
-1862
-1441
-894
-104
861
1808
2603
3240
3774
4225
4569
4784
4882
4899
4882
4876
4904
4940
4924
4827
4698
4617
4623
4666
4664
4573
4426
4301
4255
4274
4282
4212
4086
4004
4051
4185
4260
4169
3957
3780
3745
3830
3922
3938
3892
3851
3858
3900
3932
3907
3812
3667
3513
3398
3351
3368
3421
3517
3719
4087
4611
5196
5757
6292
6857
7490
8183
8917
9673
10351
10755
10728
10316
9724
9065
8202
6925
5268
3577
2226
1313
663
123
-276
-435
-372
-233
-140
-107
-113
-183
-377
-693
-1039
-1304
-1446
-1503
-1556
-1671
-1857
-2072
-2268
-2438
-2621
-2850
-3105
-3340
-3535
-3719
-3923
-4132
-4303
-4412
-4472
-4499
-4487
-4421
-4315
-4200
-4089
-3965
-3811
-3655
-3546
-3489
-3421
-3276
-3069
-2896
-2826
-2823
-2787
-2655
-2483
-2381
-2404
-2500
-2561
-2515
-2379
-2220
-2102
-2055
-2056
-2045
-1978
-1868
-1781
-1761
-1770
-1723
-1574
-1376
-1211
-1083
-923
-707
-495
-347
-238
-78
171
440
646
792
935
1082
1191
1240
1268
1290
1238
1051
793
611
553
486
267
-71
-346
-451
-481
-602
-859
-1156
-1382
-1531
-1664
-1831
-2035
-2254
-2447
-2585
-2665
-2719
-2776
-2812
-2785
-2703
-2610
-2511
-2367
-2176
-2008
-1910
-1808
-1579
-1217
-910
-838
-944
-989
-843
-640
-614
-794
-953
-876
-601
-360
-308
-368
-338
-112
195
362
267
17
-158
-117
70
210
211
182
275
503
728
831
833
801
728
545
275
72
42
109
104
-27
-147
-95
93
216
124
-139
-384
-469
-413
-346
-371
-471
-519
-392
-115
134
180
21
-179
-291
-361
-537
-856
-1167
-1302
-1272
-1242
-1338
-1493
-1551
-1460
-1333
-1310
-1401
-1508
-1553
-1555
-1568
-1595
-1568
-1456
-1334
-1292
-1337
-1373
-1323
-1242
-1243
-1345
-1429
-1366
-1169
-961
-785
-529
-33
710
1528
2273
2995
3864
4910
5898
6479
6486
6058
5471
4845
4050
2889
1362
-258
-1602
-2471
-2933
-3210
-3464
-3687
-3749
-3560
-3187
-2809
-2583
-2526
-2522
-2437
-2246
-2049
-1953
-1952
-1955
-1880
-1762
-1705
-1746
-1807
-1774
-1618
-1408
-1223
-1086
-972
-886
-846
-811
-698
-486
-293
-255
-372
-481
-436
-245
-36
91
144
173
201
232
283
383
513
604
611
557
525
577
709
856
947
965
969
1034
1175
1315
1355
1278
1190
1222
1401
1619
1750
1773
1757
1781
1856
1949
2018
2035
1977
1880
1858
2002
2230
2318
2123
1785
1608
1729
1968
2043
1901
1744
1756
1884
1930
1798
1552
1288
1020
745
524
441
482
549
590
652
805
996
1073
954
712
515
467
522
546
471
393
479
784
1148
1328
1224
1003
928
1079
1272
1267
1039
814
804
984
1141
1143
1090
1158
1379
1617
1751
1789
1808
1821
1771
1662
1572
1550
1533
1460
1401
1486
1715
1907
1895
1722
1573
1528
1477
1288
988
727
582
474
298
84
-69
-140
-225
-380
-507
-439
-140
237
477
502
385
228
48
-191
-490
-778
-1009
-1206
-1403
-1543
-1515
-1315
-1118
-1165
-1517
-1973
-2243
-2250
-2216
-2408
-2846
-3255
-3351
-3121
-2841
-2792
-2951
-3040
-2857
-2521
-2331
-2403
-2561
-2616
-2684
-3080
-3883
-4757
-5288
-5445
-5560
-5834
-6020
-5703
-4835
-3815
-3018
-2387
-1595
-525
562
1362
1917
2540
3445
4523
5481
6164
6673
7194
7711
7977
7717
6818
5348
3345
686
-2735
-6704
-10652
-14025
-16642
-18635
-20052
-20629
-20034
-18291
-15864
-13313
-10963
-8891
-7157
-5899
-5217
-5024
-5092
-5234
-5381
-5516
-5577
-5447
-5049
-4409
-3614
-2760
-1928
-1190
-598
-148
227
591
928
1158
1244
1290
1467
1846
2349
2887
3509
4356
5460
6648
7688
8493
9162
9843
10556
11186
11594
11747
11746
11759
12256
12117
11568
11457
12609
13999
15495
15809
17391
20601
23441
23481
22263
24651
30220
-31576
28328
15112
819
-7824
-12436
-14324
-12468
-5047
3983
6786
796
-7493
-10146
-6724
-2829
-1628
-916
1499
3803
3555
1726
1139
-467
-7217
-16803
-19612
-9399
6842
14897
7279
-8585
-20372
-23404
-21865
-20768
-17994
-12288
-4164
1903
6363
10435
14764
14208
6516
-3093
-5985
-213
5960
2810
-9668
-21660
-24358
-18435
-10933
-6351
-3435
-353
1795
-1638
-10166
-19320
-23635
-21087
-12644
-3063
4919
8640
6863
759
-6767
-12327
-13838
-11192
-5964
-544
2969
3621
1833
-1050
-3534
-4640
-4134
-2416
-243
1605
2612
2709
2220
1621
1292
1385
1851
2518
3164
3610
3800
3807
3737
3643
3533
3442
3431
3491
3510
3370
3058
2663
2226
1660
872
-95
-1050
-1826
-2402
-2887
-3385
-3917
-4469
-5034
-5622
-6223
-6821
-7419
-8050
-8718
-9373
-9937
-10344
-10594
-10750
-10880
-10985
-10998
-10857
-10583
-10258
-9935
-9584
-9107
-8423
-7515
-6405
-5123
-3735
-2366
-1164
-233
400
754
862
758
482
91
-300
-512
-373
146
872
1568
2163
2800
3615
4491
5112
5250
4987
4573
4114
3480
2530
1339
167
-789
-1533
-2149
-2635
-2878
-2809
-2500
-2097
-1691
-1303
-962
-735
-668
-709
-732
-642
-450
-257
-152
-129
-115
-66
-24
-78
-245
-424
-479
-367
-191
-76
-40
-5
85
190
229
202
192
275
438
619
802
1039
1381
1804
2221
2570
2864
3175
3562
4017
4478
4886
5244
5603
5992
6363
6643
6825
6991
7224
7511
7748
7868
7926
8035
8239
8449
8521
8391
8123
7840
7625
7472
7320
7125
6899
6700
6573
6515
6493
6480
6464
6428
6345
6198
5994
5757
5501
5232
4960
4704
4483
4297
4158
4095
4125
4222
4327
4399
4434
4437
4395
4289
4124
3933
3753
3614
3545
3569
3677
3844
4050
4282
4497
4623
4625
4567
4557
4618
4657
4583
4449
4412
4555
4793
4974
5052
5100
5169
5213
5164
5046
4964
4993
5097
5203
5311
5525
5953
6593
7302
7921
8396
8805
9237
9683
10068
10345
10552
10745
10936
11121
11336
11642
12024
12348
12457
12300
11947
11497
10978
10360
9623
8793
7956
7240
6760
6530
6431
6281
5977
5563
5144
4729
4210
3474
2529
1498
497
-446
-1352
-2196
-2904
-3463
-4003
-4717
-5660
-6644
-7396
-7842
-8224
-8853
-9767
-10681
-11246
-11376
-11280
-11182
-11076
-10768
-10114
-9185
-8191
-7291
-6500
-5790
-5214
-4900
-4916
-5156
-5384
-5444
-5372
-5325
-5375
-5405
-5225
-4789
-4276
-3928
-3816
-3813
-3773
-3679
-3584
-3422
-2990
-2131
-913
454
1880
3460
5256
7057
8399
8901
8513
7452
5894
3451
1418
-1016
-3839
-7065
-9954
-11903
-14146
-16281
-18877
-20527
-20940
-21581
-24354
-29331
-31754
-28409
-17998
-3722
9339
16460
15251
6818
-3676
-9579
-7002
1989
11222
14888
11439
3738
-2545
-1932
7492
20878
28188
20794
732
-21597
-32351
-27234
-12399
1883
8592
7922
2184
-3829
-7058
-6088
-1311
4399
8505
8251
5453
2167
482
1154
3878
7263
10013
11068
10394
8512
6598
5505
5740
6880
8316
9253
9519
9132
8594
8185
8262
8721
9496
10204
10739
10914
10942
10880
10975
11133
11399
11570
11728
11779
11874
11888
11873
11648
11342
10948
10721
10596
10607
10506
10365
10141
10047
9974
9952
9779
9568
9262
9020
8728
8485
8192
8017
7879
7871
7792
7675
7398
7148
6864
6630
6260
5876
5464
5226
4987
4738
4324
3971
3686
3555
3297
2935
2460
2177
2031
2028
1911
1794
1690
1820
2003
2144
1945
1544
1056
870
968
1295
1444
1393
1162
1134
1338
1763
2032
2098
1892
1713
1578
1632
1694
1797
1756
1657
1401
1144
827
610
397
290
135
27
-137
-184
-185
-56
-13
-6
-138
-241
-394
-476
-599
-629
-669
-614
-603
-536
-558
-598
-774
-882
-928
-803
-777
-852
-1071
-1129
-1063
-890
-912
-1026
-1193
-1184
-1172
-1150
-1244
-1245
-1226
-1136
-1144
-1087
-997
-780
-681
-680
-833
-890
-904
-799
-773
-735
-762
-702
-665
-545
-459
-287
-158
27
173
467
880
1535
2217
2935
3596
4443
5387
6288
6640
6401
5692
5009
4340
3529
2188
543
-1042
-2003
-2418
-2488
-2617
-2668
-2535
-1996
-1368
-852
-697
-666
-729
-781
-1003
-1182
-1192
-808
-361
-67
-136
-227
-182
143
435
611
527
436
414
692
1092
1485
1515
1291
948
837
803
713
314
-120
-427
-409
-351
-347
-546
-724
-896
-945
-1062
-1186
-1421
-1570
-1660
-1562
-1462
-1324
-1263
-1071
-818
-515
-474
-629
-901
-899
-672
-315
-178
-149
-102
286
852
1484
1917
2314
2678
3124
3404
3541
3462
3406
3342
3357
3272
3185
3021
2959
2904
2933
2874
2831
2730
2732
2725
2806
2860
3038
3244
3540
3717
3879
3988
4215
4397
4540
4515
4550
4635
4840
4901
4861
4695
4673
4706
4809
4750
4646
4470
4413
4351
4333
4193
4060
3884
3855
3850
3891
3761
3577
3318
3185
3033
2890
2601
2334
2039
1829
1526
1245
951
829
732
677
494
333
137
21
-191
-409
-693
-852
-1017
-1167
-1483
-1776
-2016
-2014
-1957
-1886
-1989
-2097
-2230
-2237
-2270
-2258
-2327
-2349
-2429
-2440
-2476
-2392
-2292
-2088
-1953
-1816
-1796
-1714
-1619
-1382
-1183
-993
-941
-836
-719
-490
-367
-338
-518
-678
-828
-853
-967
-1124
-1375
-1462
-1428
-1239
-1156
-1104
-1104
-945
-768
-564
-491
-370
-250
-42
58
136
127
180
139
68
-132
-252
-348
-334
-390
-421
-515
-522
-547
-487
-452
-296
-125
168
461
916
1481
2262
3016
3718
4275
4987
5812
6593
6751
6212
5196
4328
3603
2733
1217
-645
-2323
-3250
-3676
-3925
-4290
-4454
-4334
-3920
-3620
-3486
-3586
-3716
-3992
-4288
-4615
-4755
-4853
-4866
-4875
-4642
-4295
-3927
-3842
-3837
-3767
-3440
-3185
-3102
-3224
-3138
-2834
-2401
-2231
-2206
-2196
-1922
-1608
-1337
-1239
-1008
-610
5
526
950
1209
1535
1808
1964
1639
833
-433
-1677
-2610
-2954
-3013
-2985
-3099
-3005
-2532
-1610
-762
-289
-311
-543
-479
236
1282
2195
2806
3734
5428
7467
8554
8144
6907
5720
3770
-561
-7172
-12782
-13890
-10592
-7086
-6936
-9149
-9163
-4405
2644
6595
4478
-2039
-8379
-10813
-8063
-1369
6623
12569
13966
10318
3531
-3137
-7104
-7367
-4564
-553
2434
2817
357
-3869
-8180
-11226
-12511
-12390
-11670
-11175
-11433
-12545
-14267
-16196
-17901
-19011
-19290
-18717
-17495
-15930
-14281
-12682
-11151
-9651
-8116
-6493
-4861
-3462
-2526
-2064
-1824
-1495
-962
-333
255
797
1425
2260
3339
4665
6235
8002
9832
11552
13078
14440
15692
16834
17825
18677
19474
20276
21066
21808
22552
23409
24733
25229
24955
24702
25350
25983
26526
26021
26107
27688
29236
28838
27300
28088
32418
-29653
31615
17792
896
-10372
-13006
-11099
-9308
-7741
-3581
3278
8995
10877
11208
14648
22095
28592
27982
18981
5982
-4768
-9515
-9350
-6881
-5969
-8738
-14198
-18060
-18810
-14852
-11204
-12067
-17211
-22604
-25628
-26010
-27451
-30044
-29988
-24051
-15411
-11511
-15924
-23018
-23242
-13251
698
9759
10714
6539
939
-4218
-7060
-4537
3239
9640
6240
-7784
-22901
-28332
-22282
-12089
-5053
-2395
-1922
-1713
-3119
-4144
-2098
3351
8541
10669
8948
7203
7016
7114
6689
7505
11342
16325
17745
13011
5319
1160
4437
13623
23274
28357
26715
19483
9789
1726
-1380
1633
9021
17001
22106
22696
19304
14027
9399
7310
8317
11564
15338
17975
18624
17438
15214
12840
10949
9844
9523
9693
9873
9632
8846
7730
6628
5767
5178
4801
4583
4493
4474
4441
4351
4235
4166
4199
4318
4454
4557
4631
4738
4931
5218
5563
5930
6304
6678
7060
7480
7974
8532
9066
9478
9754
9957
10146
10305
10389
10408
10422
10455
10452
10364
10219
10097
10020
9918
9726
9476
9257
9112
8986
8788
8485
8123
7752
7367
6912
6338
5652
4909
4166
3436
2709
1980
1272
626
60
-443
-906
-1340
-1734
-2094
-2441
-2797
-3172
-3557
-3931
-4269
-4570
-4869
-5197
-5524
-5777
-5924
-6032
-6208
-6487
-6787
-7001
-7105
-7163
-7233
-7301
-7331
-7331
-7355
-7426
-7495
-7501
-7441
-7370
-7334
-7312
-7241
-7083
-6853
-6605
-6379
-6195
-6058
-5965
-5894
-5816
-5721
-5632
-5584
-5572
-5547
-5469
-5344
-5220
-5126
-5045
-4952
-4856
-4806
-4827
-4885
-4927
-4940
-4961
-5031
-5156
-5300
-5430
-5533
-5618
-5694
-5765
-5837
-5916
-6006
-6103
-6208
-6333
-6488
-6653
-6782
-6824
-6760
-6616
-6451
-6322
-6255
-6226
-6181
-6087
-5974
-5924
-5994
-6159
-6323
-6390
-6334
-6208
-6078
-5964
-5819
-5580
-5238
-4853
-4493
-4137
-3696
-3121
-2475
-1862
-1272
-590
212
929
1246
1026
434
-299
-1166
-2370
-4025
-5939
-7753
-9251
-10468
-11510
-12376
-12986
-13339
-13551
-13737
-13922
-14103
-14330
-14684
-15179
-15726
-16215
-16606
-16923
-17188
-17423
-17657
-17929
-18221
-18449
-18519
-18405
-18159
-17831
-17426
-16912
-16283
-15575
-14852
-14158
-13505
-12876
-12240
-11584
-10917
-10263
-9641
-9043
-8438
-7806
-7143
-6471
-5824
-5205
-4561
-3797
-2851
-1739
-515
827
2361
4120
6004
7840
9545
11190
12874
14592
16247
17807
19366
21024
22741
24361
25776
26992
28055
28947
29624
30145
30682
31340
32038
32591
-32611
-32381
-32111
-31838
-31769
-32069
-32705
32040
31232
30415
29523
28545
27570
26719
26059
25566
25149
24713
24203
23617
22998
22417
21943
21621
21436
21345
21311
21337
21461
21710
22082
22556
23106
23710
24336
24945
25497
25953
26253
26322
26089
25502
24545
23254
21700
19949
18077
16215
14569
13361
12701
12548
12821
13541
14757
16305
17753
18711
18798
19683
20652
21238
20776
19724
18405
17669
15285
10854
5726
1650
-2234
-8755
-18424
-26308
-25868
-15889
-2292
7643
11783
12557
12008
9277
3991
-1196
-3334
-3623
-6737
-15063
-25166
-30842
-28957
-20789
-9468
1443
7543
5848
-3729
-13993
-18364
-16139
-12362
-10042
-8391
-3450
3034
4691
-2070
-13550
-22306
-23687
-18706
-11393
-5739
-4681
-8931
-15305
-17546
-12146
-2718
2623
-437
-8148
-13475
-13769
-12019
-11136
-9678
-4313
4244
10029
7459
-3427
-16719
-25408
-25621
-17728
-5183
7169
14791
15029
8596
-972
-8936
-11818
-8739
-1442
6800
12855
15134
14005
11108
8236
6548
6438
7733
9788
11542
11887
10338
7442
4438
2380
1511
1396
1506
1629
1786
2000
2220
2377
2425
2323
2086
1834
1741
1840
1946
1831
1469
1049
740
530
312
58
-120
-70
252
754
1256
1579
1661
1586
1503
1479
1437
1277
1029
826
744
743
762
799
876
964
990
936
873
875
917
905
805
669
575
565
626
689
682
579
432
327
305
336
353
360
433
608
825
993
1088
1176
1324
1516
1674
1733
1699
1639
1618
1664
1770
1896
1972
1958
1888
1850
1902
2000
2020
1891
1667
1484
1408
1356
1206
936
648
462
387
319
175
-26
-191
-280
-337
-428
-577
-753
-914
-1045
-1188
-1382
-1583
-1682
-1590
-1337
-1094
-1020
-1098
-1140
-1028
-876
-899
-1127
-1309
-1181
-810
-560
-675
-977
-1036
-675
-195
-68
-431
-958
-1192
-989
-583
-276
-165
-142
-66
97
313
538
704
721
554
314
217
380
670
865
892
892
1018
1213
1271
1098
836
700
748
841
837
753
692
707
768
815
843
870
892
876
804
677
515
352
251
269
416
630
821
942
1012
1093
1222
1376
1482
1484
1387
1254
1158
1101
1036
935
821
734
669
565
393
195
27
-82
-138
-150
-101
9
138
250
376
561
793
995
1115
1189
1294
1457
1640
1811
2020
2349
2815
3368
3973
4676
5563
6643
7814
8965
10090
11260
12430
13337
13653
13285
12488
11598
10668
9450
7747
5772
4053
2961
2428
2117
1830
1649
1710
1962
2211
2311
2274
2168
2011
1788
1540
1334
1194
1096
1017
946
855
683
409
100
-142
-292
-422
-598
-785
-901
-934
-964
-1073
-1237
-1370
-1434
-1489
-1611
-1796
-1970
-2086
-2176
-2310
-2502
-2700
-2849
-2938
-2989
-3007
-2980
-2924
-2887
-2896
-2895
-2794
-2588
-2388
-2305
-2319
-2311
-2189
-1979
-1770
-1592
-1416
-1238
-1105
-1048
-1008
-893
-679
-438
-250
-106
61
291
553
789
973
1123
1261
1392
1514
1636
1763
1891
2015
2135
2248
2338
2390
2398
2366
2288
2156
1977
1786
1626
1491
1351
1178
982
806
690
676
814
1056
1295
1523
1861
2391
2995
3496
3957
4671
5744
6865
7763
8816
10831
13917
16819
17820
16425
13898
11867
10572
8791
5438
938
-3150
-5635
-6562
-6768
-6905
-7063
-7099
-6986
-6774
-6456
-5979
-5344
-4645
-3888
-2978
-1911
-885
-261
-376
-1384
-3243
-5794
-8820
-12029
-15043
-17474
-19077
-19808
-19774
-19150
-18128
-16923
-15720
-14570
-13348
-11871
-10127
-8363
-6917
-5926
-5203
-4449
-3560
-2716
-2163
-1984
-2039
-2138
-2199
-2218
-2172
-2033
-1827
-1687
-1758
-2078
-2559
-3082
-3591
-4077
-4507
-4777
-4781
-4523
-4150
-3861
-3776
-3854
-3977
-4103
-4315
-4706
-5225
-5659
-5792
-5560
-5050
-4395
-3714
-3131
-2770
-2670
-2709
-2697
-2602
-2610
-2910
-3419
-3765
-3658
-3168
-2609
-2175
-1725
-1012
-37
900
1556
2036
2653
3508
4273
4487
4026
3201
2411
1743
974
-71
-1247
-2199
-2697
-2786
-2645
-2369
-1911
-1231
-408
405
1080
1580
1962
2357
2943
3883
5191
6684
8111
9377
10658
12211
14060
15900
17320
18144
18526
18739
18914
18966
18744
18200
17400
16461
15522
14737
14245
14086
14156
14271
14292
14200
14083
14011
13941
13712
13144
12186
10947
9590
8216
6841
5467
4137
2888
1707
578
-425
-1165
-1574
-1765
-1921
-2090
-2137
-1900
-1409
-873
-472
-187
149
654
1283
1901
2460
3053
3815
4772
5820
6847
7874
9073
10603
12440
14363
16131
17645
18959
20109
20975
21332
21014
20035
18533
16631
14348
11651
8563
5222
1826
-1486
-4683
-7806
-10832
-13582
-15842
-17582
-19026
-20440
-21820
-22862
-23288
-23189
-22947
-22809
-22576
-21814
-20363
-18592
-17087
-16086
-15302
-14306
-13018
-11791
-10992
-10545
-9976
-8881
-7305
-5643
-4219
-3037
-1932
-882
-74
303
267
41
-124
-116
-6
41
-106
-448
-872
-1299
-1818
-2625
-3789
-5140
-6401
-7440
-8330
-9163
-9915
-10508
-10994
-11538
-12224
-12940
-13502
-13857
-14112
-14342
-14427
-14141
-13354
-12138
-10677
-9108
-7489
-5857
-4285
-2841
-1552
-417
548
1299
1802
2078
2186
2189
2147
2113
2121
2147
2120
1995
1811
1656
1567
1489
1343
1124
898
733
643
614
652
753
869
936
967
1049
1237
1460
1596
1624
1645
1751
1910
2031
2103
2195
2326
2398
2332
2194
2133
2193
2273
2285
2309
2498
2879
3322
3733
4166
4704
5259
5600
5568
5210
4670
3998
3118
1982
676
-618
-1738
-2596
-3178
-3527
-3734
-3884
-3994
-4033
-4013
-4004
-4062
-4161
-4222
-4221
-4198
-4161
-4034
-3743
-3333
-2956
-2717
-2567
-2390
-2151
-1923
-1753
-1582
-1311
-922
-474
-11
479
1002
1488
1834
2022
2133
2247
2341
2314
2107
1770
1425
1149
911
612
184
-325
-771
-1049
-1204
-1387
-1681
-1980
-2091
-1950
-1715
-1592
-1615
-1626
-1476
-1201
-980
-931
-999
-1024
-912
-710
-529
-423
-353
-248
-98
33
86
78
96
202
357
465
471
417
399
462
559
614
621
649
755
899
968
903
765
669
650
633
535
366
201
75
-53
-211
-351
-404
-387
-400
-502
-616
-617
-486
-335
-277
-314
-369
-405
-463
-586
-754
-899
-988
-1042
-1084
-1100
-1056
-951
-826
-728
-669
-626
-577
-518
-451
-371
-264
-127
31
199
371
546
709
828
876
847
766
659
543
423
296
160
16
-131
-261
-352
-401
-437
-502
-620
-779
-945
-1088
-1194
-1273
-1357
-1482
-1659
-1860
-2047
-2210
-2371
-2549
-2730
-2887
-3023
-3170
-3352
-3538
-3676
-3748
-3800
-3889
-4018
-4127
-4157
-4102
-3998
-3856
-3644
-3326
-2906
-2422
-1910
-1365
-769
-133
501
1103
1690
2305
2962
3630
4286
4952
5677
6461
7243
7970
8657
9359
10100
10843
11536
12180
12791
13360
13843
14244
14628
15064
15566
16109
16704
17400
18200
18992
19666
20250
20886
21623
22265
22507
22230
21620
20968
20362
19639
18617
17329
16004
14873
13998
13306
12710
12178
11708
11300
10955
10672
10439
10195
9865
9424
8920
8429
7965
7457
6795
5920
4870
3751
2654
1544
271
-1291
-3097
-4955
-6731
-8493
-10399
-12476
-14566
-16533
-18415
-20276
-21910
-22859
-22795
-21845
-20409
-18686
-16484
-13563
-10081
-6591
-3595
-1208
731
2307
3400
3879
3801
3355
2672
1766
645
-559
-1658
-2568
-3351
-4121
-4891
-5554
-5996
-6213
-6320
-6443
-6619
-6814
-6985
-7163
-7417
-7795
-8264
-8730
-9106
-9385
-9660
-10062
-10668
-11478
-12440
-13497
-14600
-15699
-16735
-17637
-18311
-18639
-18534
-18037
-17348
-16713
-16255
-15912
-15551
-15124
-14708
-14379
-14092
-13692
-13046
-12129
-10996
-9718
-8365
-7063
-5953
-5109
-4479
-3953
-3495
-3174
-3060
-3108
-3185
-3191
-3124
-3052
-3027
-3074
-3212
-3455
-3802
-4213
-4617
-4959
-5189
-5295
-5312
-5265
-5104
-4726
-4113
-3399
-2765
-2257
-1794
-1370
-1122
-1105
-1039
-470
750
2226
3396
4103
4683
5458
6292
6706
6397
5531
4544
3757
3239
2923
2750
2698
2750
2919
3234
3682
4167
4532
4694
4715
4737
4867
5106
5369
5576
5724
5888
6114
6345
6463
6425
6317
6274
6340
6441
6474
6403
6244
6022
5762
5503
5282
5094
4879
4575
4186
3780
3397
3023
2627
2223
1860
1569
1334
1130
960
846
781
712
590
424
260
121
-10
-157
-314
-445
-518
-532
-510
-485
-485
-477
-363
-43
488
1094
1624
2091
2676
3530
4532
5275
5391
4874
4072
3315
2580
1566
97
-1604
-3070
-4000
-4462
-4708
-4863
-4859
-4625
-4241
-3880
-3632
-3441
-3204
-2908
-2640
-2476
-2408
-2343
-2174
-1877
-1553
-1353
-1350
-1466
-1543
-1504
-1414
-1381
-1437
-1504
-1512
-1464
-1420
-1412
-1418
-1403
-1339
-1235
-1124
-1052
-1045
-1073
-1069
-998
-894
-816
-781
-756
-716
-671
-625
-556
-453
-360
-342
-386
-398
-318
-216
-194
-230
-191
-27
138
149
52
53
256
517
639
620
656
874
1160
1312
1300
1291
1418
1633
1783
1824
1866
2026
2286
2518
2629
2656
2700
2797
2882
2860
2722
2563
2492
2524
2578
2565
2473
2370
2299
2258
2232
2209
2188
2160
2133
2137
2189
2239
2232
2180
2157
2195
2201
2060
1782
1521
1423
1471
1522
1485
1409
1401
1491
1611
1677
1669
1631
1605
1584
1531
1436
1337
1297
1334
1374
1341
1244
1171
1186
1227
1177
1018
853
785
796
779
697
626
639
711
739
674
574
521
528
525
442
276
102
10
31
112
152
105
36
50
148
219
174
68
44
156
294
326
266
263
410
634
784
798
757
790
945
1164
1366
1530
1696
1898
2096
2212
2232
2231
2311
2464
2566
2525
2399
2358
2488
2693
2787
2696
2515
2393
2369
2346
2233
2047
1892
1831
1819
1763
1623
1447
1293
1173
1066
981
966
1065
1280
1601
2028
2549
3130
3742
4415
5160
5841
6174
5939
5227
4350
3498
2531
1163
-634
-2493
-3947
-4799
-5207
-5428
-5570
-5579
-5370
-4938
-4366
-3808
-3431
-3307
-3354
-3391
-3312
-3171
-3079
-3057
-3012
-2867
-2662
-2498
-2414
-2366
-2299
-2204
-2097
-1985
-1891
-1863
-1928
-2036
-2093
-2074
-2058
-2145
-2335
-2518
-2593
-2560
-2513
-2532
-2632
-2754
-2814
-2762
-2612
-2423
-2237
-2021
-1710
-1298
-871
-541
-333
-171
18
219
356
416
486
670
976
1299
1545
1718
1903
2139
2364
2479
2461
2393
2402
2541
2762
2944
2994
2915
2792
2716
2693
2638
2482
2270
2140
2176
2301
2341
2165
1816
1461
1192
935
553
28
-494
-868
-1107
-1316
-1492
-1480
-1210
-902
-930
-1444
-2240
-2955
-3423
-3831
-4430
-5201
-5837
-6003
-5646
-4980
-4229
-3441
-2631
-2038
-2060
-2872
-4118
-5164
-5702
-6025
-6556
-7218
-7403
-6595
-4954
-3166
-1812
-993
-528
-333
-496
-1062
-1909
-2844
-3727
-4509
-5195
-5786
-6291
-6698
-6904
-6821
-6511
-6191
-6098
-6318
-6730
-7124
-7439
-7846
-8550
-9564
-10649
-11537
-12157
-12591
-12893
-13032
-13056
-13173
-13573
-14162
-14614
-14703
-14556
-14462
-14482
-14326
-13641
-12372
-10794
-9259
-7924
-6736
-5586
-4441
-3351
-2409
-1729
-1421
-1528
-1968
-2583
-3266
-4092
-5228
-6742
-8497
-10246
-11842
-13327
-14766
-16083
-17095
-17707
-17977
-17950
-17525
-16536
-14986
-13112
-11200
-9389
-7643
-5918
-4312
-2987
-2029
-1361
-783
-75
888
2065
3306
4528
5879
7666
10018
12659
15082
17010
18622
20255
21913
23165
23582
23193
22432
21657
20852
19844
18715
17834
17490
17595
17822
17990
18229
18736
19490
20233
20751
21411
21256
20678
20501
21376
22178
22856
22621
23184
25326
27344
27281
26059
27619
31816
-30690
30061
16462
287
-10551
-13310
-11206
-8449
-6080
-2663
2577
8468
13176
15481
14578
9587
241
-11649
-21803
-25226
-19423
-6777
7482
17039
19237
15938
10892
6495
-505
-9448
-19390
-26286
-27657
-24877
-21415
-18573
-15584
-11489
-5275
2766
10367
13950
10862
2629
-5332
-7778
-4394
747
3537
3268
1097
-2252
-5945
-7269
-3313
4431
9025
3978
-8755
-21162
-23483
-13897
2012
15896
20764
15663
4049
-4607
-3823
4587
11559
10938
3747
-943
1461
7624
11530
12313
13717
17480
19119
13839
3771
-2226
1850
12758
21008
20627
13458
5478
372
-1817
-2109
-163
4012
8706
10741
8453
2765
-3674
-8641
-11042
-10932
-8924
-6168
-4073
-3786
-5257
-7842
-10316
-11898
-12111
-11274
-9832
-8528
-7679
-7509
-7705
-8062
-8213
-8166
-7821
-7363
-6765
-6249
-5788
-5515
-5272
-5123
-4906
-4679
-4240
-3646
-2826
-2052
-1357
-873
-368
156
824
1444
2074
2610
3221
3811
4474
5056
5656
6148
6634
6969
7269
7457
7715
7963
8276
8449
8512
8329
8054
7621
7186
6656
6163
5596
5067
4472
3968
3486
3153
2799
2470
2020
1589
1135
854
679
720
802
983
1150
1472
1854
2338
2667
2846
2746
2551
2215
1880
1419
945
391
-27
-331
-396
-412
-336
-266
-4
342
736
852
720
304
-154
-752
-1455
-2423
-3427
-4380
-5014
-5421
-5547
-5583
-5457
-5302
-5020
-4760
-4467
-4340
-4315
-4493
-4675
-4889
-4987
-5100
-5138
-5220
-5225
-5269
-5239
-5253
-5208
-5250
-5284
-5404
-5444
-5481
-5423
-5439
-5451
-5572
-5670
-5833
-5920
-6040
-6096
-6241
-6369
-6547
-6605
-6659
-6663
-6792
-6915
-7085
-7170
-7322
-7441
-7592
-7588
-7549
-7431
-7408
-7338
-7267
-7074
-6948
-6845
-6878
-6872
-6913
-6913
-7030
-7147
-7341
-7471
-7672
-7853
-8127
-8350
-8624
-8833
-9098
-9289
-9499
-9617
-9774
-9854
-9956
-9959
-10001
-9994
-10046
-10010
-9997
-9924
-9952
-9969
-10056
-10061
-10101
-10094
-10180
-10241
-10366
-10408
-10463
-10405
-10352
-10191
-10036
-9759
-9465
-9042
-8633
-8168
-7799
-7415
-7116
-6773
-6514
-6235
-6029
-5724
-5390
-4892
-4345
-3660
-2733
-1679
-851
-211
567
1832
3175
3957
4312
5138
6707
8124
8261
7801
8616
11620
15015
14309
10227
6687
7407
11265
14563
14268
14057
17045
21538
22183
16715
10251
7239
8926
10251
7495
1428
-4673
-8165
-10255
-9428
-4710
2625
7966
7760
3923
2805
5468
8723
6587
188
-5962
-8291
-6600
-1858
3795
7103
1294
-13460
-26051
-23201
-6219
9539
8353
-5765
-14588
-8560
2000
-592
-16510
-29447
-23302
-625
21239
28884
21848
10469
1081
-4580
-6734
-4817
1512
10741
18270
21291
17724
11005
5676
5716
10726
16358
19141
19579
20738
23528
24663
19969
9249
-381
-3296
1247
7604
9269
4006
-4495
-12289
-17936
-21710
-23268
-19834
-13617
-9847
-12255
-16672
-13840
-653
13454
15474
3730
-8285
-6367
8509
20636
16679
-795
-17055
-20537
-11670
1226
10308
11530
3633
-10937
-25137
-29148
-20905
-6470
2991
2399
-3464
-5734
-1589
4930
7619
3146
-5993
-15881
-20857
-18595
-9915
1707
11427
15036
11376
2708
-6440
-11911
-11765
-6776
329
6348
9015
7793
3838
-743
-3953
-4785
-3435
-894
1692
3468
4056
3565
2503
1539
1160
1474
2304
3403
4565
5565
6173
6317
6183
6060
6082
6131
6041
5800
5556
5446
5477
5558
5610
5605
5553
5485
5421
5367
5320
5295
5308
5335
5303
5179
5034
4984
5049
5092
4955
4651
4367
4241
4208
4084
3804
3509
3366
3362
3317
3105
2782
2466
2179
1857
1504
1245
1165
1169
1071
840
653
674
838
920
800
594
471
453
419
302
170
115
121
89
-43
-251
-478
-683
-829
-877
-834
-761
-716
-675
-571
-381
-171
-34
2
-41
-136
-252
-318
-256
-73
97
132
58
15
91
207
219
80
-117
-267
-336
-336
-289
-220
-182
-224
-314
-377
-400
-449
-576
-740
-839
-819
-726
-635
-579
-554
-553
-569
-580
-556
-488
-414
-381
-406
-472
-531
-535
-483
-435
-463
-574
-682
-713
-709
-764
-905
-1042
-1095
-1098
-1157
-1300
-1431
-1456
-1399
-1369
-1416
-1469
-1429
-1304
-1205
-1220
-1320
-1400
-1375
-1267
-1160
-1093
-1030
-892
-622
-218
286
850
1452
2095
2838
3743
4775
5737
6355
6482
6206
5741
5207
4513
3488
2111
636
-573
-1285
-1531
-1528
-1475
-1420
-1305
-1079
-764
-434
-178
-50
-73
-178
-215
-71
214
468
554
527
551
703
872
914
834
794
921
1157
1311
1269
1104
985
997
1060
1029
864
693
692
890
1107
1140
998
897
1004
1229
1310
1120
815
642
676
765
744
620
505
441
377
274
189
191
259
293
253
197
197
242
272
289
358
500
624
661
668
776
1021
1288
1445
1523
1672
1952
2254
2441
2538
2688
2948
3198
3289
3255
3297
3536
3873
4091
4103
4037
4078
4259
4441
4471
4334
4146
4025
3992
3989
3961
3911
3858
3796
3682
3486
3245
3040
2915
2835
2722
2532
2298
2103
1995
1942
1859
1700
1472
1207
929
654
402
187
-5
-205
-418
-622
-788
-916
-1046
-1211
-1392
-1545
-1633
-1668
-1714
-1824
-2000
-2171
-2257
-2254
-2241
-2310
-2464
-2618
-2676
-2633
-2553
-2497
-2467
-2432
-2387
-2355
-2331
-2271
-2159
-2061
-2058
-2134
-2167
-2061
-1871
-1758
-1802
-1929
-2001
-1963
-1865
-1763
-1654
-1529
-1408
-1296
-1132
-845
-482
-217
-182
-305
-381
-289
-104
8
-4
-45
7
168
359
500
583
651
728
792
795
721
629
610
708
886
1066
1208
1328
1447
1557
1613
1592
1513
1411
1304
1189
1055
902
765
728
870
1187
1572
1917
2246
2699
3363
4145
4876
5511
6126
6703
6999
6737
5939
4930
3958
2900
1450
-406
-2229
-3513
-4171
-4541
-4948
-5356
-5520
-5359
-5084
-4926
-4877
-4754
-4478
-4189
-4053
-4054
-4017
-3828
-3570
-3433
-3509
-3737
-3995
-4216
-4387
-4504
-4560
-4598
-4707
-4926
-5172
-5310
-5311
-5296
-5399
-5601
-5734
-5669
-5460
-5271
-5182
-5108
-4929
-4658
-4417
-4290
-4224
-4095
-3851
-3551
-3275
-3037
-2816
-2618
-2462
-2324
-2122
-1808
-1453
-1194
-1094
-1070
-980
-788
-620
-638
-880
-1228
-1546
-1781
-1962
-2088
-2080
-1874
-1516
-1096
-634
-16
841
1792
2525
2837
2841
2827
2903
2831
2249
991
-808
-2880
-5003
-7013
-8727
-9982
-10748
-11098
-11047
-10464
-9199
-7348
-5311
-3580
-2445
-1885
-1711
-1765
-2015
-2507
-3249
-4134
-4953
-5501
-5692
-5566
-5235
-4792
-4279
-3735
-3206
-2686
-2100
-1358
-452
492
1317
1944
2415
2837
3276
3687
3917
3779
3132
1957
369
-1486
-3534
-5812
-8367
-11142
-13987
-16748
-19353
-21789
-24024
-25990
-27614
-28823
-29485
-29419
-28490
-26739
-24358
-21523
-18272
-14594
-10295
-6861
-4407
-2324
83
1781
2810
2559
3019
5199
7762
8653
7957
10871
18420
25623
24845
13349
-2160
-12049
-12535
-9804
-8590
-8416
-4373
4045
10290
7473
-3214
-12403
-11528
-1360
8002
6517
-6396
-20637
-24041
-14745
-1527
3632
-1622
-8055
-4406
8788
22125
25049
16674
5267
-1132
-233
3114
5909
7506
7478
5178
-633
-8629
-15683
-17100
-13881
-9585
-8120
-9937
-12359
-12899
-11879
-11699
-14015
-17926
-20945
-21662
-20626
-19378
-19117
-20299
-22682
-25707
-27931
-28276
-26612
-24170
-22163
-20932
-20485
-21201
-23059
-24990
-25261
-23504
-19964
-17133
-16442
-16201
-12647
-3628
7687
14959
15310
13254
15096
19938
18964
6116
-12146
-21143
-13812
1143
8935
5032
-1109
1507
13095
24146
26855
21439
12647
3587
-4246
-7959
-3936
7545
20421
26453
21845
8900
-5724
-16715
-20354
-16344
-7631
1297
6328
5671
215
-7342
-13845
-17018
-16265
-12641
-8136
-4660
-3262
-3902
-5734
-7630
-8691
-8553
-7396
-5726
-4074
-2793
-2007
-1657
-1558
-1472
-1224
-769
-197
361
842
1270
1693
2125
2542
2931
3330
3803
4385
5046
5709
6300
6801
7250
7680
8074
8356
8477
8469
8428
8427
8462
8476
8422
8299
8133
7954
7786
7638
7482
7254
6922
6532
6179
5903
5644
5325
4952
4619
4415
4341
4337
4348
4344
4300
4190
4014
3816
3626
3434
3203
2938
2681
2462
2260
2042
1812
1596
1394
1169
903
628
371
113
-150
-344
-347
-133
143
279
235
180
279
453
432
39
-607
-1218
-1629
-1919
-2249
-2649
-3008
-3227
-3338
-3439
-3587
-3785
-4037
-4355
-4714
-5048
-5295
-5446
-5523
-5524
-5423
-5216
-4948
-4687
-4471
-4311
-4188
-4079
-3974
-3881
-3820
-3799
-3783
-3718
-3585
-3434
-3342
-3326
-3351
-3389
-3465
-3623
-3871
-4142
-4354
-4475
-4540
-4583
-4581
-4477
-4276
-4075
-3976
-3973
-3943
-3797
-3602
-3501
-3536
-3579
-3474
-3203
-2865
-2531
-2166
-1716
-1181
-581
102
851
1502
1807
1666
1244
791
357
-259
-1236
-2464
-3597
-4361
-4753
-4945
-5059
-5082
-4964
-4734
-4487
-4303
-4199
-4159
-4175
-4244
-4342
-4415
-4420
-4363
-4280
-4206
-4146
-4086
-4022
-3969
-3937
-3919
-3891
-3837
-3758
-3671
-3599
-3566
-3597
-3706
-3882
-4098
-4335
-4602
-4921
-5295
-5694
-6086
-6470
-6872
-7303
-7740
-8147
-8528
-8933
-9401
-9924
-10444
-10928
-11393
-11863
-12323
-12723
-13034
-13291
-13534
-13733
-13796
-13652
-13322
-12899
-12442
-11911
-11220
-10340
-9357
-8400
-7533
-6732
-5970
-5294
-4787
-4453
-4163
-3741
-3112
-2341
-1519
-634
421
1718
3204
4726
6162
7498
8791
10088
11365
12566
13664
14692
15719
16775
17820
18797
19680
20511
21348
22201
23026
23777
24459
25112
25753
26325
26716
26842
26716
26435
26100
25731
25260
24629
23894
23202
22656
22215
21750
21203
20635
20114
19610
19027
18347
17644
16953
16186
15250
14182
13101
12022
10820
9471
8241
7523
7445
7763
8183
8727
9677
11156
12893
14455
15617
16431
16979
17183
16910
16171
15116
13842
12304
10435
8321
6182
4188
2329
485
-1397
-3222
-4848
-6216
-7383
-8427
-9360
-10132
-10697
-11034
-11138
-11022
-10757
-10476
-10289
-10207
-10155
-10098
-10125
-10380
-10895
-11507
-11958
-12093
-11984
-11842
-11822
-11932
-12105
-12345
-12742
-13346
-14097
-14910
-15789
-16806
-17934
-19006
-19874
-20599
-21378
-22266
-23061
-23505
-23562
-23422
-23219
-22872
-22196
-21192
-20080
-19103
-18354
-17776
-17283
-16816
-16315
-15728
-15026
-14192
-13167
-11872
-10315
-8705
-7358
-6493
-6086
-5930
-5868
-5901
-6095
-6407
-6646
-6598
-6172
-5431
-4515
-3580
-2767
-2154
-1729
-1414
-1157
-1007
-1046
-1258
-1465
-1469
-1241
-916
-632
-404
-157
150
476
762
987
1145
1219
1194
1112
1039
978
833
505
24
-431
-682
-695
-588
-517
-529
-519
-339
54
564
1024
1346
1550
1695
1804
1858
1831
1710
1494
1192
868
622
517
515
506
432
355
369
482
602
653
665
709
808
919
1014
1132
1327
1595
1877
2129
2362
2611
2882
3151
3401
3630
3837
3991
4073
4116
4185
4313
4461
4564
4595
4591
4590
4580
4522
4399
4230
4031
3798
3528
3253
3019
2830
2635
2399
2138
1903
1715
1544
1348
1129
915
726
551
362
152
-52
-200
-258
-241
-204
-190
-189
-155
-77
9
58
73
73
37
-83
-275
-444
-516
-534
-620
-828
-1064
-1207
-1253
-1310
-1460
-1665
-1836
-1944
-2037
-2154
-2276
-2357
-2400
-2461
-2588
-2765
-2933
-3033
-3050
-3010
-2971
-2981
-3030
-3033
-2887
-2598
-2300
-2158
-2208
-2300
-2257
-2045
-1817
-1746
-1846
-1962
-1934
-1768
-1613
-1590
-1681
-1761
-1760
-1727
-1748
-1822
-1856
-1788
-1660
-1572
-1557
-1550
-1488
-1399
-1369
-1424
-1485
-1452
-1310
-1145
-1050
-1052
-1103
-1143
-1137
-1081
-1004
-948
-935
-936
-891
-784
-674
-646
-732
-868
-956
-943
-855
-727
-538
-209
318
1021
1806
2607
3443
4373
5360
6190
6590
6449
5927
5302
4678
3894
2734
1240
-221
-1258
-1768
-1963
-2089
-2176
-2076
-1708
-1192
-747
-481
-336
-218
-109
-53
-51
-33
65
223
374
476
530
547
528
481
441
433
442
438
423
430
486
568
643
707
769
825
843
824
803
809
823
811
772
739
732
742
757
782
809
798
733
669
700
842
992
1026
942
861
898
1044
1190
1248
1231
1218
1277
1413
1579
1724
1818
1871
1912
1958
1995
2011
2019
2053
2120
2188
2228
2250
2301
2383
2436
2403
2296
2190
2152
2165
2134
1986
1745
1522
1409
1400
1403
1335
1188
1021
891
788
684
562
426
277
105
-75
-216
-287
-298
-296
-300
-284
-219
-120
-30
29
89
189
324
455
558
656
780
917
1016
1057
1074
1104
1141
1143
1103
1075
1107
1171
1186
1113
1016
964
947
893
764
613
504
438
355
221
54
-113
-279
-460
-650
-816
-963
-1137
-1368
-1608
-1783
-1876
-1955
-2082
-2239
-2354
-2412
-2476
-2598
-2747
-2842
-2868
-2895
-2984
-3091
-3118
-3053
-2999
-3045
-3162
-3246
-3250
-3232
-3283
-3416
-3566
-3662
-3684
-3648
-3590
-3562
-3608
-3717
-3788
-3712
-3520
-3384
-3432
-3590
-3632
-3444
-3187
-3126
-3289
-3400
-3196
-2772
-2488
-2553
-2775
-2787
-2495
-2180
-2156
-2399
-2613
-2570
-2319
-2054
-1853
-1608
-1187
-564
193
996
1780
2520
3271
4081
4847
5286
5147
4497
3703
3019
2304
1198
-394
-2081
-3312
-3881
-4033
-4121
-4230
-4196
-3880
-3339
-2780
-2369
-2132
-1996
-1894
-1816
-1810
-1910
-2055
-2127
-2062
-1933
-1878
-1951
-2054
-2076
-2017
-1958
-1936
-1907
-1840
-1784
-1797
-1846
-1833
-1729
-1616
-1572
-1575
-1550
-1479
-1400
-1328
-1232
-1105
-1008
-997
-1004
-908
-710
-559
-579
-694
-708
-543
-350
-307
-413
-492
-408
-200
-11
84
118
156
226
321
430
551
684
822
974
1159
1379
1624
1883
2152
2407
2604
2710
2758
2829
2971
3150
3276
3297
3258
3238
3253
3238
3114
2893
2677
2544
2483
2432
2365
2305
2289
2302
2303
2269
2190
2054
1849
1594
1357
1198
1102
993
813
600
435
359
333
288
193
58
-102
-269
-419
-534
-626
-754
-959
-1200
-1388
-1481
-1535
-1631
-1763
-1837
-1792
-1679
-1606
-1609
-1619
-1566
-1485
-1490
-1627
-1819
-1947
-1971
-1960
-1982
-2027
-2026
-1940
-1796
-1641
-1499
-1370
-1265
-1209
-1205
-1237
-1281
-1321
-1342
-1321
-1249
-1146
-1036
-908
-729
-515
-359
-321
-355
-341
-228
-104
-86
-158
-189
-96
48
118
111
135
249
378
410
347
300
336
398
391
314
263
301
375
390
319
228
191
209
236
224
165
96
57
60
90
121
153
195
237
263
286
342
440
517
498
414
418
625
969
1282
1504
1783
2292
3001
3719
4338
4955
5679
6379
6735
6571
6040
5431
4829
4048
2892
1460
110
-857
-1401
-1677
-1817
-1842
-1723
-1489
-1221
-989
-811
-687
-637
-688
-812
-930
-970
-919
-821
-718
-624
-550
-507
-501
-511
-499
-442
-362
-304
-305
-365
-446
-507
-536
-542
-535
-529
-543
-582
-627
-621
-521
-349
-202
-172
-255
-361
-406
-385
-358
-371
-396
-366
-250
-82
79
211
339
495
667
790
816
762
693
662
668
692
742
833
957
1103
1278
1495
1711
1822
1791
1717
1727
1803
1798
1647
1498
1544
1767
1941
1907
1780
1794
1998
2185
2137
1873
1596
1451
1410
1365
1264
1143
1044
960
863
740
597
450
308
169
24
-136
-279
-353
-346
-317
-351
-476
-622
-706
-732
-788
-955
-1200
-1410
-1501
-1508
-1520
-1550
-1532
-1415
-1265
-1188
-1185
-1146
-1018
-924
-1032
-1332
-1600
-1628
-1466
-1364
-1467
-1662
-1727
-1592
-1404
-1335
-1385
-1437
-1442
-1477
-1603
-1740
-1743
-1577
-1382
-1310
-1357
-1394
-1329
-1216
-1169
-1233
-1353
-1448
-1492
-1493
-1480
-1499
-1596
-1765
-1921
-1998
-2028
-2108
-2259
-2384
-2376
-2267
-2163
-2099
-2001
-1811
-1601
-1514
-1590
-1715
-1767
-1757
-1783
-1889
-1994
-1968
-1765
-1469
-1195
-996
-823
-580
-268
23
223
352
489
676
899
1147
1431
1744
2050
2374
2853
3615
4552
5311
5597
5470
5278
5249
5197
4720
3651
2285
1124
427
67
-211
-467
-528
-264
165
400
189
-422
-1250
-2236
-3465
-4968
-6550
-7875
-8741
-9182
-9337
-9262
-8931
-8349
-7584
-6690
-5677
-4601
-3620
-2877
-2330
-1744
-916
104
1051
1695
2058
2332
2647
2942
3078
3015
2881
2868
3075
3493
4060
4735
5499
6344
7228
8047
8663
8989
9083
9108
9215
9423
9635
9801
10003
10376
10933
11524
11958
12185
12283
12322
12253
11986
11539
11081
10791
10676
10585
10368
10023
9665
9379
9139
8865
8536
8205
7932
7723
7566
7468
7452
7509
7550
7457
7163
6698
6130
5487
4731
3806
2697
1464
194
-1079
-2375
-3742
-5205
-6746
-8338
-9948
-11547
-13126
-14701
-16286
-17847
-19311
-20623
-21818
-22979
-24117
-25095
-25728
-25963
-25930
-25801
-25589
-25104
-24117
-22547
-20490
-18114
-15576
-12984
-10416
-7920
-5526
-3308
-1414
-1
901
1458
1913
2415
2957
3478
4008
4632
5377
6173
6951
7731
8559
9379
10015
10334
10413
10477
10678
10968
11194
11262
11225
11170
11116
11015
10856
10691
10574
10492
10361
10115
9763
9373
9010
8689
8394
8111
7843
7619
7451
7319
7164
6935
6649
6384
6189
6020
5786
5465
5155
4974
4924
4880
4738
4537
4396
4350
4315
4196
3998
3802
3645
3485
3290
3088
2911
2739
2537
2330
2183
2092
1963
1726
1440
1226
1108
967
704
374
112
-31
-146
-337
-585
-777
-885
-1019
-1284
-1623
-1864
-1905
-1820
-1775
-1861
-2045
-2254
-2436
-2559
-2586
-2508
-2397
-2332
-2248
-1915
-1164
-144
704
1003
762
322
-37
-415
-1164
-2455
-4017
-5361
-6197
-6649
-7021
-7437
-7761
-7843
-7737
-7630
-7630
-7685
-7712
-7732
-7823
-7966
-8036
-7975
-7875
-7884
-8032
-8198
-8258
-8214
-8172
-8215
-8331
-8443
-8474
-8413
-8305
-8212
-8162
-8134
-8093
-8025
-7963
-7935
-7943
-8001
-8159
-8476
-8939
-9454
-9935
-10400
-10957
-11681
-12509
-13309
-14018
-14692
-15412
-16164
-16828
-17308
-17625
-17853
-17993
-17949
-17631
-17049
-16273
-15304
-14039
-12373
-10305
-7934
-5353
-2604
287
3238
6095
8680
10831
12438
13441
13805
13502
12559
11117
9411
7649
5907
4170
2487
1015
-116
-910
-1424
-1588
-1218
-255
1095
2552
4069
5864
8084
10515
12698
14331
15470
16363
17157
17797
18166
18218
18012
17676
17386
17313
17480
17692
17663
17267
16638
15994
15391
14681
13721
12569
11444
10504
9715
8970
8247
7633
7169
6752
6243
5626
5027
4545
4118
3609
2996
2410
1983
1711
1488
1243
994
764
528
258
6
-146
-196
-244
-405
-721
-1169
-1706
-2270
-2775
-3168
-3498
-3853
-4221
-4453
-4411
-4152
-3885
-3769
-3782
-3810
-3795
-3768
-3746
-3693
-3581
-3444
-3328
-3219
-3054
-2813
-2564
-2396
-2344
-2373
-2417
-2433
-2411
-2369
-2349
-2377
-2438
-2502
-2572
-2684
-2849
-3011
-3086
-3072
-3057
-3129
-3283
-3437
-3533
-3593
-3676
-3808
-3963
-4107
-4219
-4277
-4242
-4101
-3902
-3722
-3594
-3474
-3306
-3105
-2947
-2876
-2851
-2792
-2665
-2496
-2281
-1955
-1444
-776
-75
568
1212
2000
2951
3831
4308
4242
3819
3345
2912
2320
1335
-3
-1362
-2391
-2993
-3308
-3505
-3620
-3578
-3316
-2869
-2374
-1996
-1829
-1841
-1915
-1963
-1998
-2098
-2267
-2404
-2412
-2287
-2132
-2043
-2016
-1979
-1865
-1631
-1268
-828
-420
-154
-60
-61
-64
-73
-174
-450
-874
-1319
-1655
-1827
-1854
-1775
-1621
-1410
-1184
-987
-851
-784
-789
-860
-984
-1122
-1228
-1286
-1322
-1368
-1422
-1454
-1443
-1419
-1438
-1510
-1587
-1616
-1597
-1572
-1585
-1633
-1680
-1699
-1672
-1597
-1469
-1293
-1083
-839
-551
-230
94
391
633
783
796
660
430
197
4
-188
-444
-748
-991
-1065
-970
-818
-720
-695
-657
-511
-264
-50
7
-71
-138
-83
50
115
54
-33
-22
80
158
158
159
237
343
360
258
143
115
137
91
-52
-190
-214
-131
-39
-8
-20
-30
-36
-59
-108
-171
-237
-313
-388
-429
-428
-428
-482
-578
-642
-619
-525
-418
-326
-222
-70
124
307
452
575
705
838
929
937
890
866
921
1026
1116
1169
1231
1349
1479
1538
1527
1558
1730
1991
2163
2133
1971
1842
1822
1828
1737
1522
1271
1088
1002
976
976
986
989
969
929
896
887
891
884
855
804
729
632
536
491
512
555
547
469
392
400
500
607
636
580
516
496
489
417
251
52
-84
-136
-157
-196
-227
-187
-58
124
350
671
1134
1692
2257
2827
3494
4260
4886
5036
4613
3878
3166
2496
1569
176
-1455
-2812
-3569
-3847
-3981
-4144
-4213
-4007
-3533
-2973
-2504
-2173
-1944
-1807
-1769
-1786
-1758
-1619
-1413
-1266
-1243
-1274
-1221
-1023
-777
-634
-646
-713
-709
-608
-500
-467
-505
-554
-538
-356
106
868
1774
2576
3153
3588
4027
4440
4632
4461
3996
3426
2870
2346
1872
1535
1377
1306
1190
1004
849
805
814
747
538
249
-27
-254
-455
-653
-843
-995
-1096
-1170
-1254
-1363
-1460
-1466
-1328
-1085
-847
-709
-679
-712
-763
-816
-863
-894
-912
-942
-1003
-1090
-1196
-1325
-1492
-1689
-1875
-2031
-2189
-2383
-2580
-2694
-2672
-2551
-2432
-2389
-2414
-2461
-2503
-2555
-2629
-2720
-2815
-2915
-3031
-3149
-3214
-3180
-3074
-2982
-2964
-2989
-2948
-2775
-2529
-2331
-2238
-2183
-2054
-1814
-1545
-1334
-1180
-1009
-768
-497
-276
-126
6
171
337
434
450
455
514
592
595
495
385
362
392
336
120
-180
-421
-552
-646
-798
-1023
-1258
-1440
-1564
-1674
-1823
-2028
-2238
-2381
-2431
-2434
-2472
-2579
-2744
-2956
-3241
-3613
-4018
-4380
-4664
-4886
-5034
-5039
-4850
-4501
-4082
-3642
-3170
-2660
-2152
-1691
-1264
-820
-368
17
297
535
845
1261
1679
1971
2104
2158
2265
2483
2772
3063
3320
3557
3796
4041
4272
4458
4568
4589
4541
4473
4426
4406
4373
4297
4187
4091
4055
4079
4128
4166
4207
4326
4591
4988
5432
5858
6310
6877
7522
8023
8115
7734
7056
6286
5430
4337
2946
1431
95
-873
-1497
-1892
-2118
-2163
-2032
-1791
-1521
-1278
-1098
-1007
-1003
-1036
-1033
-974
-907
-880
-860
-760
-560
-364
-292
-350
-411
-353
-193
-55
-21
-45
-15
101
221
256
216
179
194
212
147
-10
-175
-252
-231
-195
-224
-325
-425
-451
-394
-316
-300
-381
-507
-586
-570
-516
-525
-639
-797
-912
-965
-1002
-1065
-1153
-1241
-1327
-1408
-1458
-1444
-1381
-1333
-1335
-1344
-1298
-1208
-1158
-1200
-1299
-1374
-1399
-1416
-1466
-1537
-1591
-1613
-1619
-1631
-1638
-1620
-1560
-1462
-1356
-1290
-1303
-1390
-1504
-1599
-1680
-1789
-1945
-2122
-2274
-2362
-2355
-2245
-2062
-1879
-1756
-1678
-1571
-1387
-1183
-1066
-1070
-1090
-993
-768
-528
-365
-238
-28
308
675
941
1083
1193
1353
1545
1685
1734
1736
1757
1817
1888
1945
1998
2067
2142
2185
2178
2153
2159
2192
2179
2054
1835
1636
1549
1540
1483
1312
1101
993
1055
1211
1334
1378
1393
1453
1579
1734
1858
1901
1855
1760
1677
1633
1588
1480
1301
1118
991
916
835
713
563
410
264
125
15
-40
-69
-135
-269
-430
-545
-594
-631
-717
-846
-974
-1059
-1099
-1124
-1168
-1253
-1379
-1532
-1695
-1856
-2012
-2156
-2281
-2386
-2467
-2505
-2478
-2397
-2325
-2323
-2386
-2441
-2442
-2442
-2526
-2673
-2768
-2745
-2679
-2689
-2766
-2750
-2520
-2136
-1724
-1270
-606
348
1395
2195
2607
2801
3018
3236
3182
2655
1785
940
404
196
163
180
231
360
602
978
1453
1910
2180
2184
2028
1937
2036
2254
2424
2478
2513
2660
2945
3270
3545
3772
4019
4332
4693
5046
5342
5564
5736
5903
6092
6278
6392
6364
6176
5872
5527
5210
4950
4723
4459
4120
3770
3567
3611
3811
3935
3828
3556
3301
3127
2928
2597
2192
1867
1665
1480
1254
1078
1068
1148
1094
809
452
215
61
-195
-593
-926
-1014
-947
-979
-1208
-1476
-1614
-1693
-1924
-2383
-2923
-3354
-3642
-3880
-4142
-4412
-4637
-4803
-4936
-5075
-5272
-5572
-5930
-6214
-6281
-6131
-5938
-5894
-6030
-6215
-6334
-6434
-6665
-7085
-7591
-8047
-8390
-8613
-8646
-8377
-7806
-7079
-6345
-5577
-4600
-3352
-2027
-909
-113
461
920
1220
1231
911
361
-282
-947
-1621
-2268
-2818
-3185
-3327
-3274
-3119
-2990
-2959
-3002
-3035
-3010
-2978
-3031
-3189
-3365
-3445
-3381
-3234
-3095
-2995
-2894
-2744
-2534
-2297
-2063
-1822
-1554
-1262
-988
-754
-536
-285
7
292
515
682
860
1089
1338
1547
1706
1867
2078
2316
2510
2626
2701
2791
2906
2995
2996
2898
2764
2657
2592
2530
2430
2295
2167
2058
1936
1777
1597
1426
1263
1074
857
663
539
474
393
253
99
-4
-54
-118
-248
-431
-600
-715
-796
-886
-1006
-1130
-1220
-1287
-1366
-1468
-1545
-1540
-1458
-1346
-1195
-913
-421
241
977
1781
2729
3797
4728
5197
5119
4716
4240
3671
2765
1409
-167
-1550
-2476
-2971
-3227
-3371
-3401
-3282
-3031
-2716
-2417
-2202
-2096
-2099
-2162
-2227
-2233
-2149
-2000
-1838
-1715
-1659
-1647
-1650
-1657
-1672
-1671
-1608
-1470
-1308
-1193
-1126
-1031
-854
-644
-519
-537
-616
-623
-517
-368
-254
-185
-138
-107
-88
-34
106
292
375
270
83
27
179
388
462
393
369
531
794
965
981
993
1147
1403
1592
1621
1583
1635
1809
2006
2139
2211
2291
2401
2513
2619
2742
2873
2960
2964
2914
2890
2924
2952
2905
2788
2666
2563
2426
2222
2020
1922
1932
1933
1828
1655
1548
1574
1662
1711
1699
1673
1648
1598
1537
1560
1720
1902
1941
1815
1689
1721
1846
1863
1709
1548
1547
1665
1696
1554
1404
1442
1658
1841
1822
1654
1507
1480
1543
1603
1592
1496
1342
1171
1023
890
715
466
164
-123
-349
-514
-627
-701
-762
-850
-952
-985
-909
-798
-790
-909
-1027
-1012
-891
-797
-786
-792
-751
-702
-716
-757
-725
-618
-561
-662
-857
-999
-1060
-1137
-1302
-1489
-1592
-1602
-1619
-1705
-1821
-1895
-1909
-1909
-1926
-1954
-1993
-2047
-2098
-2108
-2073
-2043
-2069
-2143
-2201
-2216
-2218
-2262
-2344
-2394
-2336
-2167
-1964
-1821
-1777
-1765
-1676
-1475
-1244
-1107
-1097
-1115
-1044
-876
-713
-649
-671
-686
-629
-522
-408
-266
-13
418
1002
1664
2371
3192
4215
5372
6381
6891
6766
6210
5565
4945
4110
2736
872
-979
-2248
-2777
-2905
-3066
-3364
-3559
-3400
-2908
-2359
-2021
-1960
-2053
-2124
-2087
-1971
-1857
-1784
-1718
-1608
-1449
-1293
-1183
-1117
-1054
-979
-920
-891
-875
-867
-888
-972
-1111
-1238
-1295
-1275
-1213
-1141
-1082
-1047
-1024
-970
-849
-686
-585
-624
-752
-810
-698
-489
-353
-368
-437
-416
-286
-150
-93
-89
-55
25
107
165
246
409
636
845
980
1045
1068
1086
1127
1203
1280
1291
1224
1162
1202
1345
1500
1604
1700
1850
1999
2031
1943
1905
2067
2343
2479
2356
2150
2135
2333
2472
2299
1871
1473
1299
1266
1194
1049
967
1046
1211
1319
1357
1421
1551
1638
1541
1263
948
740
646
567
441
302
226
245
337
456
557
619
640
622
565
463
328
213
164
186
233
264
285
327
399
488
583
682
746
717
595
475
472
589
719
773
788
864
1017
1149
1170
1104
1042
1035
1031
975
884
819
801
797
770
714
625
484
267
-13
-320
-637
-970
-1300
-1577
-1766
-1910
-2104
-2389
-2705
-2950
-3092
-3203
-3386
-3678
-4026
-4334
-4539
-4640
-4669
-4664
-4638
-4565
-4391
-4057
-3539
-2911
-2317
-1873
-1574
-1288
-859
-252
448
1137
1786
2443
3150
3930
4777
5604
6237
6539
6568
6603
6890
7390
7879
8331
9080
10457
12305
14050
15290
16206
17236
18381
19056
18684
17337
15655
14131
12644
10713
8123
5180
2398
75
-1796
-3301
-4467
-5338
-6023
-6587
-6894
-6752
-6212
-5650
-5437
-5563
-5662
-5481
-5195
-5153
-5379
-5494
-5190
-4644
-4308
-4346
-4405
-4053
-3334
-2746
-2695
-3055
-3378
-3411
-3328
-3464
-3906
-4422
-4782
-5005
-5295
-5758
-6302
-6816
-7354
-8106
-9144
-10332
-11489
-12626
-13903
-15364
-16810
-18003
-18930
-19789
-20690
-21437
-21687
-21314
-20553
-19755
-19005
-18041
-16584
-14688
-12764
-11220
-10103
-9102
-7886
-6416
-4918
-3625
-2579
-1643
-680
313
1231
1947
2400
2634
2801
3077
3584
4341
5287
6352
7491
8670
9848
10958
11919
12677
13189
13421
13363
13045
12561
12015
11441
10782
9964
8988
7936
6862
5738
4523
3284
2183
1348
775
382
141
103
281
587
884
1120
1367
1729
2207
2699
3115
3482
3931
4567
5363
6180
6891
7473
7966
8402
8782
9120
9446
9752
9977
10095
10186
10381
10702
11006
11110
10981
10756
10582
10467
10321
10074
9754
9438
9188
9028
8963
8961
8938
8816
8615
8446
8401
8446
8467
8398
8296
8255
8295
8345
8345
8303
8245
8163
8022
7814
7563
7283
6956
6579
6197
5848
5508
5112
4647
4182
3779
3397
2940
2372
1756
1187
691
220
-282
-821
-1368
-1895
-2396
-2861
-3280
-3658
-4014
-4364
-4696
-4962
-5117
-5175
-5225
-5355
-5564
-5744
-5822
-5845
-5927
-6099
-6255
-6270
-6131
-5908
-5634
-5251
-4702
-4008
-3221
-2376
-1528
-847
-552
-722
-1213
-1820
-2509
-3422
-4628
-5932
-6991
-7576
-7723
-7642
-7502
-7329
-7048
-6601
-6018
-5434
-5002
-4781
-4686
-4556
-4289
-3919
-3539
-3203
-2894
-2584
-2292
-2047
-1832
-1607
-1363
-1142
-972
-809
-577
-266
45
260
344
320
220
77
-79
-219
-363
-561
-816
-1033
-1105
-1019
-876
-789
-757
-713
-620
-527
-495
-535
-604
-658
-696
-754
-856
-963
-982
-848
-619
-467
-526
-733
-889
-899
-890
-1047
-1379
-1707
-1891
-1978
-2100
-2251
-2295
-2181
-2050
-2076
-2239
-2342
-2262
-2108
-2070
-2195
-2330
-2329
-2228
-2188
-2284
-2418
-2436
-2320
-2203
-2214
-2348
-2467
-2447
-2305
-2168
-2155
-2270
-2415
-2482
-2445
-2369
-2330
-2334
-2342
-2326
-2307
-2328
-2408
-2541
-2717
-2941
-3206
-3475
-3726
-3987
-4294
-4619
-4871
-4992
-5035
-5099
-5200
-5253
-5189
-5057
-4966
-4945
-4906
-4762
-4540
-4327
-4136
-3895
-3545
-3126
-2736
-2406
-2079
-1708
-1331
-1035
-852
-725
-570
-357
-126
53
141
159
173
241
372
516
614
663
703
764
817
806
737
675
669
665
560
343
142
91
165
199
84
-102
-186
-108
11
15
-105
-222
-240
-204
-228
-347
-488
-569
-593
-626
-706
-804
-870
-908
-961
-1044
-1125
-1173
-1214
-1286
-1375
-1422
-1402
-1368
-1386
-1454
-1499
-1487
-1458
-1435
-1368
-1194
-914
-566
-124
498
1296
2126
2856
3551
4403
5436
6377
6907
6975
6790
6510
6025
5114
3749
2170
690
-535
-1511
-2293
-2900
-3345
-3646
-3813
-3855
-3825
-3816
-3913
-4114
-4340
-4506
-4581
-4580
-4532
-4484
-4478
-4527
-4613
-4717
-4849
-5031
-5270
-5526
-5750
-5921
-6051
-6167
-6287
-6441
-6653
-6913
-7158
-7302
-7335
-7362
-7543
-7943
-8458
-8897
-9147
-9270
-9384
-9493
-9451
-9087
-8376
-7433
-6408
-5390
-4418
-3516
-2690
-1915
-1159
-425
251
857
1456
2124
2856
3564
4168
4669
5132
5599
6048
6431
6741
7033
7371
7764
8169
8523
8781
8938
9018
9053
9074
9102
9135
9158
9156
9129
9081
9022
8967
8932
8915
8872
8747
8535
8294
8085
7909
7699
7400
7031
6650
6287
5928
5538
5113
4674
4252
3859
3490
3125
2745
2344
1947
1589
1274
966
626
244
-144
-490
-776
-1023
-1267
-1517
-1745
-1914
-2007
-2049
-2081
-2122
-2168
-2202
-2208
-2180
-2106
-1974
-1781
-1535
-1242
-909
-546
-156
264
709
1157
1573
1928
2229
2500
2750
2972
3157
3311
3442
3548
3631
3707
3790
3863
3892
3866
3836
3869
3984
4128
4241
4311
4382
4485
4595
4655
4637
4576
4515
4454
4349
4174
3960
3770
3626
3483
3285
3025
2756
2518
2291
2021
1689
1345
1057
839
644
428
198
-7
-162
-282
-396
-514
-624
-711
-767
-799
-812
-813
-815
-825
-838
-844
-827
-776
-697
-588
-440
-225
65
413
817
1319
1968
2721
3388
3742
3688
3336
2860
2294
1523
447
-838
-2067
-2995
-3540
-3778
-3825
-3755
-3585
-3303
-2906
-2440
-2005
-1702
-1554
-1496
-1437
-1325
-1174
-1029
-922
-872
-872
-901
-945
-1016
-1134
-1270
-1344
-1316
-1237
-1194
-1189
-1139
-991
-835
-826
-1007
-1254
-1441
-1595
-1851
-2252
-2657
-2894
-2947
-2950
-3003
-3063
-3015
-2829
-2584
-2379
-2243
-2168
-2145
-2169
-2199
-2186
-2127
-2101
-2175
-2312
-2384
-2289
-2056
-1809
-1636
-1535
-1433
-1279
-1096
-911
-724
-533
-358
-240
-208
-243
-293
-323
-349
-443
-679
-1053
-1460
-1760
-1872
-1834
-1762
-1753
-1817
-1890
-1877
-1695
-1308
-747
-66
718
1648
2786
4100
5424
6554
7337
7725
7724
7353
6635
5640
4519
3487
2729
2334
2279
2468
2822
3348
4087
5001
5926
6669
7177
7601
8150
8926
9861
10798
11630
12353
13013
13618
14118
14445
14550
14425
14098
13600
12970
12275
11568
10842
10014
9006
7854
6689
5587
4479
3261
1973
784
-214
-1143
-2197
-3383
-4497
-5376
-6117
-6920
-7755
-8328
-8437
-8293
-8350
-8831
-9530
-10137
-10653
-11371
-12461
-13698
-14665
-15155
-15291
-15270
-15108
-14721
-14126
-13494
-12984
-12607
-12316
-12133
-12136
-12308
-12488
-12503
-12325
-12053
-11775
-11475
-11091
-10600
-10059
-9552
-9094
-8622
-8054
-7386
-6719
-6170
-5767
-5434
-5114
-4861
-4777
-4859
-4980
-5011
-4950
-4889
-4880
-4863
-4739
-4481
-4120
-3681
-3140
-2477
-1721
-911
-11
1059
2273
3399
4096
4191
3834
3335
2815
2067
822
-877
-2588
-3808
-4396
-4594
-4710
-4805
-4725
-4357
-3767
-3133
-2589
-2171
-1848
-1559
-1241
-859
-447
-80
218
485
750
967
1074
1095
1140
1272
1430
1531
1584
1681
1856
2033
2128
2156
2188
2224
2184
2026
1826
1710
1691
1666
1539
1321
1091
907
783
710
661
587
448
287
219
283
360
276
13
-240
-296
-200
-166
-319
-533
-579
-411
-202
-127
-156
-106
111
385
545
551
545
672
928
1168
1273
1297
1398
1660
1998
2264
2413
2543
2747
2976
3084
3025
2900
2820
2751
2545
2143
1687
1380
1277
1243
1120
902
720
687
774
851
820
689
534
414
314
184
7
-176
-309
-372
-386
-396
-413
-407
-339
-197
-26
102
146
142
176
292
435
508
475
395
349
354
376
391
406
421
426
417
421
463
530
572
575
571
602
650
671
656
648
692
770
804
761
695
683
748
834
882
897
918
945
939
881
818
813
850
855
796
740
777
904
997
963
849
780
813
867
829
697
572
541
607
713
828
950
1070
1167
1241
1326
1454
1600
1711
1758
1760
1743
1719
1674
1629
1604
1595
1561
1485
1443
1512
1668
1776
1760
1721
1860
2209
2564
2717
2751
2979
3582
4393
5105
5679
6343
7212
8014
8316
8003
7379
6751
6074
5051
3566
1899
472
-510
-1106
-1477
-1704
-1818
-1858
-1831
-1675
-1355
-993
-808
-918
-1174
-1294
-1149
-879
-711
-713
-737
-636
-443
-298
-260
-219
-74
115
214
199
227
428
718
909
944
964
1148
1482
1784
1938
1993
2065
2180
2261
2259
2233
2275
2398
2532
2594
2585
2575
2607
2648
2632
2549
2484
2521
2645
2761
2796
2774
2795
2911
3078
3177
3127
2937
2705
2553
2545
2643
2747
2766
2703
2635
2626
2658
2666
2597
2443
2224
1975
1746
1593
1510
1433
1285
1067
852
705
586
412
165
-70
-198
-226
-256
-367
-545
-713
-825
-900
-976
-1064
-1160
-1274
-1406
-1518
-1547
-1479
-1388
-1372
-1455
-1557
-1578
-1496
-1382
-1312
-1301
-1297
-1232
-1083
-895
-735
-656
-641
-633
-590
-520
-451
-374
-248
-51
176
365
484
544
573
584
566
510
417
304
214
205
301
438
523
521
478
465
500
535
522
453
377
350
400
516
661
792
881
935
961
958
945
942
949
932
857
738
647
643
705
740
673
528
405
379
416
400
271
99
34
141
302
361
302
283
448
729
907
846
630
458
408
386
289
155
101
180
337
476
581
694
823
902
864
732
608
602
763
1059
1447
1948
2616
3468
4387
5162
5613
5717
5565
5212
4583
3578
2247
844
-326
-1136
-1656
-2009
-2220
-2209
-1928
-1468
-1013
-713
-580
-512
-424
-355
-417
-652
-929
-1047
-940
-731
-603
-612
-668
-659
-572
-479
-449
-485
-540
-542
-466
-362
-324
-409
-569
-682
-683
-630
-602
-619
-611
-540
-455
-460
-596
-825
-1098
-1403
-1746
-2125
-2566
-3119
-3774
-4373
-4623
-4300
-3508
-2665
-2209
-2262
-2587
-2871
-3047
-3349
-4033
-5070
-6123
-6811
-7019
-6900
-6661
-6374
-6032
-5680
-5454
-5430
-5538
-5686
-5950
-6521
-7423
-8382
-9004
-9112
-8844
-8413
-7864
-7106
-6129
-5034
-3887
-2641
-1292
-23
899
1426
1830
2397
3073
3514
3521
3340
3435
4002
4785
5369
5620
5716
5839
5974
6024
6023
6033
5906
5338
4310
3335
3139
4049
5766
7808
10057
12761
16097
19853
23549
26762
29269
31005
32025
32496
32648
32613
32357
31831
31141
30501
30023
29565
28888
27903
26637
25134
23350
21255
18925
16455
13884
11250
8698
6342
3993
1223
-2088
-5314
-7415
-7878
-7228
-6425
-5780
-4676
-2474
494
3048
4223
4030
3066
1637
-564
-3910
-8205
-12730
-16811
-20209
-23020
-25321
-27019
-27992
-28217
-27838
-27091
-26197
-25284
-24363
-23373
-22269
-21073
-19875
-18765
-17794
-16953
-16181
-15388
-14489
-13468
-12422
-11511
-10828
-10338
-9948
-9616
-9351
-9127
-8868
-8545
-8239
-8051
-7958
-7826
-7551
-7159
-6700
-6128
-5339
-4339
-3281
-2292
-1334
-307
716
1462
1706
1502
1077
557
-142
-1138
-2369
-3598
-4609
-5341
-5829
-6095
-6144
-6022
-5826
-5624
-5407
-5135
-4831
-4607
-4562
-4679
-4834
-4909
-4884
-4837
-4831
-4857
-4868
-4846
-4809
-4751
-4622
-4409
-4189
-4088
-4154
-4304
-4425
-4504
-4626
-4864
-5179
-5459
-5620
-5650
-5569
-5393
-5162
-4932
-4742
-4568
-4348
-4065
-3776
-3554
-3382
-3179
-2884
-2522
-2159
-1822
-1482
-1121
-780
-507
-295
-73
204
484
694
827
972
1206
1519
1823
2060
2241
2401
2553
2698
2852
3033
3209
3315
3332
3322
3385
3555
3763
3910
3950
3928
3911
3934
3963
3957
3917
3892
3906
3915
3854
3733
3649
3671
3738
3716
3544
3319
3184
3155
3106
2921
2635
2380
2228
2114
1930
1666
1412
1248
1158
1058
920
802
766
778
746
624
468
374
354
342
278
180
114
108
122
97
21
-62
-107
-112
-119
-168
-263
-358
-408
-416
-434
-503
-601
-646
-576
-422
-272
-181
-127
-66
21
96
105
18
-152
-360
-539
-647
-715
-804
-898
-843
-441
348
1338
2258
2972
3527
4017
4437
4683
4680
4447
4058
3572
3043
2560
2219
2027
1889
1699
1455
1254
1157
1103
975
752
525
396
376
415
499
658
872
1027
1014
872
764
791
868
848
719
631
685
796
797
654
507
526
733
1049
1417
1851
2379
3002
3726
4546
5355
5910
5984
5580
4948
4328
3698
2832
1624
294
-768
-1339
-1516
-1553
-1581
-1536
-1317
-962
-630
-439
-360
-280
-146
-10
56
54
52
90
134
139
106
59
-7
-132
-319
-508
-631
-692
-762
-890
-1054
-1184
-1228
-1178
-1063
-931
-828
-771
-734
-681
-622
-624
-729
-892
-1010
-1020
-962
-925
-941
-951
-888
-768
-683
-703
-778
-782
-657
-491
-443
-554
-664
-559
-179
341
845
1341
1973
2820
3799
4762
5624
6358
6877
7020
6693
5979
5056
4009
2791
1367
-133
-1468
-2499
-3295
-4028
-4804
-5597
-6316
-6899
-7351
-7697
-7924
-7944
-7623
-6895
-5858
-4733
-3688
-2682
-1554
-263
982
1889
2340
2494
2595
2745
2865
2830
2611
2276
1928
1629
1372
1093
711
189
-421
-1017
-1540
-2024
-2537
-3088
-3614
-4060
-4453
-4861
-5294
-5669
-5882
-5934
-5955
-6076
-6302
-6504
-6555
-6460
-6329
-6246
-6202
-6149
-6088
-6061
-6086
-6109
-6067
-5943
-5769
-5577
-5373
-5166
-4975
-4808
-4634
-4412
-4142
-3867
-3619
-3379
-3097
-2762
-2422
-2130
-1881
-1620
-1330
-1082
-968
-992
-1042
-1001
-874
-790
-863
-1071
-1300
-1476
-1652
-1950
-2438
-3061
-3690
-4224
-4642
-4991
-5310
-5585
-5753
-5778
-5695
-5568
-5417
-5209
-4921
-4598
-4317
-4104
-3914
-3697
-3456
-3231
-3044
-2887
-2752
-2647
-2565
-2471
-2326
-2104
-1801
-1439
-1038
-596
-49
681
1578
2494
3271
3924
4631
5470
6225
6517
6193
5491
4769
4117
3312
2166
844
-245
-825
-951
-851
-658
-340
154
767
1368
1846
2129
2161
1935
1551
1187
941
741
443
15
-386
-576
-547
-469
-492
-577
-540
-264
191
659
1043
1369
1707
2070
2385
2579
2651
2655
2640
2611
2547
2447
2346
2311
2397
2622
2944
3287
3613
3951
4366
4864
5357
5764
6098
6446
6843
7209
7439
7533
7568
7578
7486
7195
6700
6077
5372
4593
3791
3105
2659
2430
2272
2100
1978
2010
2164
2281
2246
2100
1944
1804
1630
1413
1241
1205
1296
1405
1445
1421
1384
1364
1347
1310
1237
1118
968
828
746
722
690
575
372
139
-74
-289
-559
-893
-1228
-1500
-1715
-1934
-2206
-2503
-2755
-2931
-3063
-3219
-3435
-3695
-3947
-4155
-4316
-4444
-4559
-4677
-4795
-4888
-4931
-4934
-4938
-4971
-5021
-5043
-5000
-4899
-4774
-4647
-4526
-4409
-4292
-4169
-4027
-3870
-3724
-3611
-3519
-3419
-3301
-3193
-3128
-3089
-3011
-2848
-2629
-2433
-2294
-2160
-1931
-1569
-1137
-746
-452
-215
34
300
516
612
610
623
732
884
959
919
873
954
1143
1254
1146
884
680
665
757
760
595
367
252
311
434
452
301
70
-84
-90
-12
20
-39
-95
-21
174
329
296
109
-41
-34
26
-90
-448
-836
-967
-791
-533
-427
-439
-299
171
863
1539
2120
2747
3537
4343
4843
4850
4482
3992
3466
2747
1675
319
-1022
-2047
-2658
-2970
-3140
-3229
-3195
-2985
-2635
-2274
-2038
-1970
-1997
-1994
-1908
-1774
-1658
-1566
-1432
-1223
-980
-793
-708
-694
-677
-616
-546
-520
-548
-563
-480
-307
-163
-156
-252
-304
-215
-52
34
-5
-52
4
122
177
133
95
168
294
325
223
103
88
150
178
148
139
213
309
326
269
259
378
573
739
818
838
849
872
910
993
1139
1330
1509
1631
1702
1771
1879
2014
2117
2137
2085
2038
2064
2146
2208
2199
2149
2126
2150
2183
2175
2132
2089
2055
2016
1978
1973
2007
2037
2003
1890
1745
1637
1586
1553
1482
1342
1152
963
841
815
858
912
931
926
928
942
944
921
904
931
970
946
848
769
798
908
987
980
-21846
-195
-158
-116
-35
76
170
216
239
288
379
477
536
542
522
511
515
515
489
435
369
312
269
225
169
102
29
-55
-158
-267
-355
-422
-499
-615
-752
-858
-913
-952
-1016
-1092
-1126
-1103
-1071
-1079
-1113
-1116
-1069
-1013
-998
-1012
-1010
-970
-925
-909
-916
-910
-868
-812
-781
-794
-832
-860
-848
-793
-710
-600
-424
-107
391
1009
1621
2156
2696
3377
4181
4830
4983
4558
3828
3139
2530
1720
487
-991
-2243
-2936
-3149
-3201
-3281
-3303
-3094
-2641
-2114
-1695
-1444
-1312
-1234
-1175
-1121
-1066
-1003
-924
-822
-701
-594
-534
-513
-489
-431
-358
-314
-308
-300
-250
-160
-62
15
73
121
157
190
238
317
413
494
547
588
647
731
822
906
986
1075
1168
1254
1332
1409
1490
1567
1636
1704
1775
1840
1886
1915
1949
2003
2063
2095
2084
2058
2061
2098
2126
2095
2010
1932
1912
1943
1977
1995
2026
2092
2152
2130
2014
1883
1810
1771
1674
1472
1243
1115
1135
1219
1244
1174
1083
1060
1093
1075
917
641
354
123
-61
-236
-368
-392
-318
-251
-259
-271
-165
51
217
202
62
-34
-2
78
86
14
-61
-95
-101
-94
-50
44
149
211
238
293
408
543
639
675
677
675
670
642
585
508
439
395
359
291
181
84
67
127
167
113
3
-37
43
133
82
-150
-454
-695
-837
-934
-1039
-1162
-1292
-1426
-1535
-1579
-1563
-1554
-1633
-1804
-1974
-2070
-2112
-2178
-2292
-2409
-2484
-2544
-2657
-2848
-3071
-3268
-3436
-3605
-3784
-3947
-4063
-4145
-4252
-4431
-4666
-4883
-5012
-5038
-5003
-4953
-4891
-4774
-4575
-4320
-4070
-3883
-3783
-3757
-3774
-3805
-3823
-3819
-3791
-3738
-3649
-3496
-3255
-2953
-2678
-2526
-2504
-2515
-2455
-2309
-2144
-1987
-1765
-1392
-879
-309
299
1013
1843
2617
3075
3109
2850
2491
2066
1455
572
-490
-1517
-2329
-2842
-3065
