516
1314
1556
1882
2254
2591
2797
2814
2645
2326
1880
1321
692
80
-412
-726
-868
-850
-668
-338
44
336
449
418
373
382
395
305
75
-178
-255
-14
525
1195
1782
2144
2263
2180
1922
1491
938
390
-28
-309
-547
-784
-909
-765
-346
130
399
377
218
135
191
287
297
214
128
122
189
272
354
475
635
732
643
392
179
197
415
606
583
380
178
87
54
-10
-83
-66
75
256
369
396
392
386
342
226
75
-24
-13
82
170
183
131
91
120
202
266
257
207
185
221
276
303
310
344
423
505
548
564
603
680
764
805
786
729
652
564
475
410
392
427
511
631
770
895
975
998
980
940
872
756
604
462
378
359
381
418
464
529
601
673
741
794
818
800
747
691
658
649
662
699
752
779
752
708
740
893
1097
1218
1200
1120
1095
1153
1221
1211
1110
975
884
871
913
953
944
881
810
764
717
624
477
328
217
115
-36
-218
-337
-324
-221
-144
-154
-203
-204
-148
-112
-170
-308
-447
-522
-532
-523
-519
-507
-462
-390
-318
-271
-250
-235
-221
-215
-233
-275
-310
-300
-237
-154
-107
-117
-160
-188
-187
-184
-210
-260
-305
-317
-295
-248
-181
-106
-51
-40
-59
-57
-2
84
145
149
124
120
169
262
367
454
495
466
380
297
283
335
373
310
152
-2
-51
5
72
66
-20
-128
-202
-234
-277
-383
-559
-746
-860
-875
-838
-798
-717
-504
-158
155
232
39
-262
-499
-682
-962
-1412
-1910
-2249
-2329
-2229
-2089
-1988
-1921
-1853
-1779
-1714
-1666
-1631
-1583
-1494
-1322
-1035
-629
-133
420
1005
1594
2105
2382
2272
1759
1037
403
30
-164
-416
-858
-1366
-1668
-1602
-1274
-956
-850
-940
-1045
-1009
-821
-584
-395
-260
-115
79
303
496
630
721
787
816
782
694
615
615
717
890
1083
1262
1397
1465
1461
1414
1375
1350
1302
1240
1010
834
697
606
560
582
688
844
986
1085
1164
1241
1291
1285
1271
1343
1514
1680
1736
1720
1776
1969
2201
2314
2295
2285
2396
2587
2745
2833
2906
2975
2948
2749
2456
2243
2200
2238
2206
2065
1915
1863
1896
1913
1830
1648
1428
1238
1114
1052
1037
1046
1063
1084
1114
1170
1270
1395
1497
1537
1541
1580
1678
1769
1775
1707
1664
1715
1795
1787
1672
1543
1479
1438
1341
1208
1152
1212
1259
1140
865
615
535
575
569
432
232
64
-56
-170
-275
-326
-341
-420
-620
-844
-932
-865
-821
-972
-1273
-1493
-1478
-1318
-1243
-1344
-1506
-1564
-1494
-1414
-1422
-1482
-1501
-1441
-1351
-1274
-1205
-1121
-1042
-1018
-1066
-1149
-1221
-1284
-1387
-1570
-1801
-1998
-2083
-2044
-1951
-1892
-1902
-1931
-1917
-1878
-1919
-2138
-2523
-2955
-3313
-3567
-3775
-3998
-4236
-4452
-4614
-4723
-4821
-4965
-5193
-5486
-5755
-5909
-5934
-5900
-5875
-5829
-5670
-5368
-5013
-4733
-4554
-4398
-4188
-3939
-3716
-3524
-3296
-2981
-2620
-2291
-2018
-1752
-1443
-1107
-788
-482
-148
227
590
875
1091
1308
1565
1820
2008
2128
2257
2467
2748
3043
3322
3611
3936
4253
4471
4540
4508
4467
4456
4424
4319
4186
4144
4258
4466
4649
4780
4938
5136
5174
4740
3740
2483
1468
926
625
165
-551
-1195
-1364
-1012
-482
-158
-147
-300
-436
-493
-510
-560
-699
-940
-1221
-1422
-1467
-1395
-1285
-1152
-947
-658
-336
-16
353
846
1426
1943
2301
2539
2749
2936
3035
3057
3115
3300
3564
3776
3883
3938
3997
4038
4013
3945
3910
3942
3988
3983
3937
3912
3934
3977
4003
4024
4080
4168
4225
4202
4126
4071
4065
4053
3955
3769
3595
3533
3588
3661
3660
3576
3474
3411
3382
3336
3237
3097
2958
2857
2782
2679
2501
2267
2064
1962
1923
1815
1549
1185
896
792
807
771
601
385
270
296
366
370
303
248
252
270
238
160
106
126
200
271
314
344
362
329
215
34
-175
-407
-696
-1057
-1432
-1720
-1873
-1946
-2031
-2153
-2258
-2285
-2260
-2280
-2419
-2658
-2889
-3027
-3084
-3148
-3288
-3478
-3633
-3700
-3724
-3786
-3901
-3994
-3980
-3855
-3684
-3511
-3330
-3122
-2922
-2778
-2678
-2550
-2353
-2141
-2003
-1943
-1862
-1666
-1370
-1076
-861
-684
-449
-107
298
685
1023
1336
1647
1930
2126
2209
2216
2212
2240
2282
2295
2276
2282
2382
2575
2768
2867
2883
2918
3026
3108
3020
2781
2586
2589
2697
2671
2415
2087
1885
1777
1568
1183
773
496
277
-89
-634
-1136
-1369
-1366
-1341
-1405
-1448
-1316
-1008
-641
-304
-11
225
372
467
646
1017
1508
1916
2111
2177
2320
2638
3023
3277
3320
3258
3268
3421
3628
3759
3803
3868
4037
4259
4434
4575
4804
5189
5628
5980
6251
6554
6849
6844
6274
5242
4205
3534
3157
2704
1980
1206
785
870
1226
1477
1442
1226
1049
1043
1185
1364
1485
1517
1489
1450
1436
1437
1411
1320
1157
949
738
551
397
267
161
88
48
10
-70
-206
-355
-434
-387
-227
-20
169
312
406
460
494
539
612
702
793
898
1049
1240
1413
1506
1519
1529
1615
1811
2098
2419
2683
2785
2674
2419
2154
1950
1750
1449
1045
669
473
488
619
752
838
893
929
939
911
854
788
715
618
496
377
307
302
328
335
291
207
121
53
0
-60
-124
-165
-163
-135
-144
-221
-287
-176
219
804
1325
1568
1531
1382
1257
1128
873
450
-43
-461
-728
-847
-839
-705
-469
-212
-25
56
77
116
197
287
330
307
246
204
223
285
338
347
314
270
234
201
176
195
309
546
888
1276
1623
1823
1791
1516
1096
668
295
-80
-540
-1077
-1572
-1880
-1934
-1785
-1525
-1243
-1003
-849
-807
-858
-940
-1002
-1054
-1153
-1335
-1540
-1668
-1674
-1634
-1648
-1701
-1683
-1547
-1415
-1442
-1581
-1581
-1259
-747
-401
-434
-703
-878
-783
-539
-409
-535
-868
-1284
-1683
-2000
-2197
-2285
-2350
-2488
-2696
-2838
-2775
-2503
-2168
-1923
-1816
-1819
-1895
-2029
-2206
-2397
-2618
-2922
-3310
-3644
-3730
-3516
-3158
-2864
-2697
-2568
-2404
-2250
-2152
-2009
-1599
-781
353
1601
2872
4233
5767
7384
8844
9934
10613
10989
11171
11192
11058
10798
10442
9981
9345
8448
7266
5888
4504
3345
2561
2109
1771
1344
855
524
482
558
392
-228
-1158
-2055
-2699
-3123
-3451
-3700
-3793
-3713
-3556
-3427
-3324
-3156
-2892
-2605
-2396
-2288
-2194
-2026
-1759
-1450
-1208
-1128
-1226
-1443
-1703
-1988
-2296
-2576
-2708
-2632
-2442
-2311
-2309
-2345
-2327
-2322
-2482
-2848
-3277
-3615
-3863
-4126
-4428
-4647
-4654
-4464
-4205
-3975
-3782
-3626
-3539
-3551
-3637
-3746
-3876
-4056
-4277
-4473
-4580
-4604
-4624
-4712
-4870
-5055
-5216
-5325
-5393
-5450
-5533
-5629
-5689
-5681
-5641
-5632
-5657
-5627
-5446
-5110
-4718
-4359
-4036
-3700
-3325
-2949
-2620
-2362
-2165
-2012
-1898
-1810
-1737
-1679
-1632
-1573
-1487
-1395
-1358
-1413
-1539
-1683
-1814
-1932
-2045
-2154
-2261
-2377
-2500
-2569
-2509
-2302
-2036
-1839
-1766
-1750
-1682
-1513
-1304
-1167
-1148
-1193
-1198
-1100
-917
-719
-557
-424
-276
-81
149
372
563
735
910
1088
1242
1366
1510
1731
2016
2278
2437
2506
2588
2777
3059
3321
3462
3479
3465
3525
3675
3836
3911
3880
3833
3855
3954
4073
4170
4253
4343
4433
4505
4566
4623
4617
4442
4079
3663
3382
3296
3286
3204
3051
2973
3093
3368
3626
3746
3740
3687
3605
3439
3152
2824
2597
2514
2472
2339
2102
1882
1780
1765
1708
1521
1233
939
696
512
372
251
89
-190
-612
-1104
-1541
-1828
-1938
-1886
-1697
-1398
-1012
-570
-109
297
560
621
500
270
-3
-237
-289
-7
623
1416
2129
2724
3387
4256
5138
5575
5249
4312
3282
2625
2414
2376
2232
1965
1785
1893
2284
2764
3127
3296
3323
3306
3323
3415
3600
3856
4128
4362
4542
4677
4768
4805
4804
4788
4753
4689
4617
4630
4803
5075
5278
5314
5266
5297
5442
5557
5493
5281
5114
5141
5322
5487
5498
5324
5006
4594
4130
3662
3218
2790
2347
1881
1436
1090
909
909
1016
1096
1031
813
553
388
353
359
296
125
-101
-319
-510
-699
-922
-1216
-1600
-2040
-2453
-2770
-2979
-3128
-3262
-3388
-3485
-3534
-3517
-3430
-3313
-3259
-3333
-3478
-3535
-3405
-3160
-2961
-2870
-2787
-2598
-2340
-2159
-2134
-2180
-2154
-2020
-1878
-1821
-1824
-1781
-1643
-1455
-1295
-1162
-985
-717
-388
-78
156
327
483
650
807
929
1027
1128
1223
1256
1196
1099
1071
1149
1250
1256
1160
1095
1188
1415
1620
1669
1577
1456
1376
1301
1151
892
555
189
-173
-498
-743
-878
-927
-959
-1014
-1067
-1057
-963
-829
-721
-661
-614
-530
-394
-218
-12
217
457
674
835
937
1021
1130
1271
1408
1491
1504
1480
1466
1476
1487
1477
1458
1466
1514
1575
1628
1688
1797
1964
2146
2296
2414
2540
2691
2836
2934
2992
3058
3152
3238
3272
3248
3204
3170
3130
3055
2958
2879
2844
2846
2874
2944
3069
3222
3332
3340
3240
3070
2867
2655
2443
2232
2006
1754
1500
1294
1161
1062
918
679
357
4
-340
-665
-957
-1198
-1368
-1439
-1368
-1117
-704
-204
313
836
1372
1832
2012
1749
1115
397
-146
-506
-897
-1480
-2158
-2647
-2751
-2535
-2237
-2048
-1995
-1983
-1914
-1746
-1492
-1188
-892
-652
-475
-328
-159
70
374
710
997
1195
1373
1655
2074
2488
2743
2911
3284
4023
4853
5220
4819
3936
3171
2830
2654
2173
1255
260
-315
-275
200
809
1374
1863
2269
2555
2710
2795
2868
2910
2841
2648
2442
2386
2541
2784
2934
2898
2719
2477
2198
1885
1574
1315
1097
839
485
91
-236
-468
-699
-1016
-1378
-1637
-1721
-1721
-1777
-1920
-2086
-2215
-2319
-2426
-2494
-2473
-2392
-2338
-2358
-2401
-2401
-2366
-2352
-2356
-2314
-2207
-2116
-2130
-2229
-2284
-2211
-2072
-1995
-2033
-2128
-2198
-2226
-2252
-2317
-2425
-2564
-2730
-2935
-3191
-3484
-3782
-4052
-4281
-4502
-4753
-5032
-5272
-5396
-5384
-5283
-5169
-5082
-5013
-4920
-4769
-4567
-4371
-4241
-4201
-4207
-4195
-4143
-4072
-4016
-3977
-3932
-3874
-3812
-3743
-3637
-3472
-3262
-3041
-2827
-2611
-2387
-2166
-1964
-1788
-1656
-1600
-1626
-1670
-1639
-1505
-1335
-1207
-1123
-1010
-834
-646
-521
-464
-406
-290
-128
36
185
337
505
681
852
1018
1188
1349
1470
1537
1571
1613
1684
1773
1845
1876
1876
1877
1899
1925
1915
1862
1811
1805
1833
1845
1810
1758
1740
1763
1793
1799
1784
1771
1771
1785
1820
1887
1971
2033
2061
2088
2152
2241
2299
2296
2265
2278
2363
2475
2540
2525
2461
2423
2458
2551
2659
2779
2972
3308
3779
4305
4821
5350
5914
6380
6459
5945
4948
3861
3035
2495
1989
1305
523
-60
-223
-22
268
395
292
71
-111
-166
-104
14
128
202
231
248
290
360
423
413
290
75
-158
-332
-404
-379
-292
-193
-133
-146
-234
-365
-497
-603
-679
-729
-752
-757
-769
-824
-935
-1079
-1205
-1280
-1314
-1355
-1444
-1580
-1728
-1858
-1970
-2077
-2183
-2281
-2367
-2445
-2506
-2519
-2463
-2377
-2342
-2420
-2588
-2762
-2882
-2957
-3032
-3118
-3175
-3162
-3075
-2944
-2791
-2626
-2468
-2355
-2314
-2338
-2376
-2389
-2376
-2345
-2300
-2237
-2164
-2097
-2036
-1959
-1848
-1746
-1731
-1831
-1982
-2089
-2122
-2129
-2163
-2203
-2200
-2157
-2127
-2107
-1976
-1581
-921
-204
306
484
390
147
-184
-599
-1071
-1527
-1869
-2003
-1851
-1386
-698
22
614
1039
1354
1567
1600
1401
1084
880
943
1247
1676
2157
2701
3327
3987
4574
4967
5091
4949
4640
4298
3991
3679
3290
2833
2398
2044
1742
1459
1252
1230
1409
1673
1889
2041
2196
2379
2517
2535
2456
2384
2373
2375
2310
2176
2055
2033
2115
2238
2338
2388
2410
2433
2470
2521
2581
2650
2717
2763
2776
2763
2743
2723
2697
2663
2626
2583
2515
2409
2288
2203
2185
2213
2240
2232
2183
2080
1892
1611
1283
981
728
482
194
-125
-405
-589
-678
-735
-830
-1003
-1254
-1548
-1833
-2060
-2217
-2321
-2403
-2467
-2496
-2468
-2384
-2268
-2164
-2091
-2033
-1954
-1808
-1551
-1146
-579
115
865
1624
2385
3113
3651
3755
3295
2429
1527
862
392
-131
-844
-1587
-2055
-2110
-1900
-1699
-1671
-1798
-1976
-2119
-2183
-2158
-2070
-1986
-1968
-2008
-2032
-1979
-1869
-1775
-1764
-1855
-2022
-2214
-2372
-2429
-2352
-2171
-1974
-1836
-1752
-1667
-1548
-1418
-1303
-1181
-1010
-812
-695
-756
-951
-1123
-1149
-1052
-949
-891
-814
-635
-358
-78
120
230
287
316
319
306
290
276
248
198
150
147
198
278
344
378
384
374
351
313
266
220
188
168
156
148
146
148
150
147
143
137
120
90
63
58
68
54
-6
-76
-85
-8
94
141
126
126
206
325
381
330
245
231
309
393
395
326
268
284
353
413
432
435
447
466
472
458
437
412
364
278
159
27
-100
-207
-273
-272
-197
-70
71
204
323
421
481
492
467
431
405
390
380
381
411
480
578
670
724
732
703
651
572
467
357
276
235
211
169
106
45
10
-13
-56
-137
-242
-343
-427
-500
-575
-654
-717
-733
-689
-616
-567
-564
-573
-555
-527
-549
-649
-775
-853
-869
-868
-870
-839
-741
-627
-595
-694
-884
-1109
-1368
-1687
-2036
-2338
-2556
-2718
-2856
-2936
-2921
-2859
-2856
-2923
-2937
-2797
-2573
-2466
-2568
-2734
-2737
-2513
-2238
-2127
-2218
-2355
-2368
-2224
-1998
-1768
-1561
-1359
-1132
-858
-516
-117
318
778
1254
1726
2214
2752
3336
3861
4107
3838
2989
1835
876
469
514
539
219
-198
-18
1258
3404
5607
7098
7627
7384
6639
5539
4146
2495
564
-1657
-3961
-5865
-6860
-6837
-6225
-5632
-5389
-5416
-5493
-5538
-5667
-5970
-6384
-6801
-7218
-7719
-8305
-8819
-9035
-8868
-8486
-8152
-7981
-7840
-7474
-6702
-5547
-4180
-2778
-1402
5
1503
3067
4643
6283
8150
10309
12526
14388
15607
16198
16317
15964
14992
13385
11415
9475
7783
6347
5157
4321
3951
3991
4208
4367
4399
4403
4534
4849
5220
5383
5131
4517
3850
3399
3109
2643
1741
499
-706
-1549
-2009
-2296
-2610
-2969
-3271
-3440
-3489
-3498
-3544
-3682
-3948
-4339
-4781
-5149
-5373
-5516
-5727
-6081
-6493
-6807
-6994
-7200
-7577
-8088
-8548
-8840
-9023
-9225
-9457
-9616
-9635
-9558
-9426
-9180
-8718
-8067
-7421
-6922
-6486
-5883
-4997
-3953
-2990
-2239
-1657
-1142
-674
-298
9
421
1167
2322
3654
4722
5169
4999
4539
4109
3716
3085
2027
731
-329
-777
-612
-124
382
753
958
991
868
633
342
10
-400
-884
-1315
-1518
-1407
-1048
-598
-199
81
246
341
430
577
807
1074
1290
1391
1383
1317
1225
1097
930
772
705
771
922
1052
1091
1058
1021
1019
1042
1061
1062
1045
1002
947
919
941
965
916
796
723
791
938
978
827
630
615
836
1117
1266
1287
1334
1484
1637
1644
1515
1394
1391
1477
1577
1694
1912
2293
2786
3293
3749
4130
4363
4301
3820
2985
2070
1368
932
539
-55
-794
-1325
-1351
-943
-487
-299
-340
-333
-110
234
485
547
491
425
380
340
304
301
358
471
599
687
705
676
682
793
977
1115
1122
1016
895
829
820
836
870
917
947
903
749
509
254
67
1
25
50
-1
-108
-171
-117
6
72
10
-115
-189
-166
-104
-75
-87
-94
-67
-31
-21
-46
-94
-154
-228
-297
-321
-272
-155
7
179
351
531
735
954
1137
1213
1160
1043
969
986
1053
1115
1205
1401
1701
1970
2060
1968
1834
1777
1763
1670
1439
1150
947
906
992
1111
1179
1163
1085
1001
954
953
981
1011
1020
974
856
714
641
668
693
569
270
-53
-214
-179
-89
-90
-172
-215
-160
-90
-142
-361
-658
-925
-1141
-1366
-1645
-1947
-2192
-2330
-2373
-2348
-2270
-2134
-1923
-1632
-1294
-992
-810
-754
-749
-730
-749
-925
-1229
-1426
-1247
-674
4
434
471
204
-225
-746
-1335
-1950
-2557
-3162
-3733
-4122
-4139
-3747
-3146
-2621
-2327
-2218
-2171
-2104
-2010
-1899
-1777
-1654
-1538
-1419
-1262
-1008
-638
-219
93
169
46
-57
96
546
1125
1657
2123
2580
2976
3140
2979
2617
2270
1989
1608
962
126
-630
-1095
-1293
-1395
-1500
-1548
-1425
-1110
-709
-358
-131
-30
-12
-16
0
54
119
173
235
381
688
1142
1660
2194
2791
3496
4206
4643
4530
3831
2828
1930
1368
1033
629
-1
-686
-1071
-965
-551
-227
-254
-572
-914
-1086
-1095
-1053
-1031
-1004
-933
-829
-725
-654
-618
-625
-703
-870
-1100
-1304
-1377
-1266
-1010
-697
-398
-131
109
307
439
514
575
649
707
697
615
518
455
417
356
265
204
244
390
571
713
796
870
989
1168
1373
1556
1697
1815
1929
2040
2126
2178
2209
2245
2307
2397
2523
2692
2881
3026
3062
2976
2821
2654
2483
2273
2001
1687
1381
1124
931
810
759
753
744
702
635
588
583
591
570
509
430
343
254
179
133
101
45
-31
-47
52
224
376
544
944
1765
2891
3892
4338
4106
3384
2431
1368
180
-1143
-2514
-3741
-4579
-4827
-4447
-3632
-2712
-1960
-1482
-1230
-1122
-1101
-1144
-1220
-1298
-1346
-1307
-1096
-658
-48
582
1076
1374
1528
1639
1799
2070
2484
3031
3657
4280
4821
5245
5527
5629
5528
5252
4874
4456
3997
3452
2834
2233
1742
1376
1087
823
598
464
461
590
831
1130
1401
1581
1707
1917
2285
2677
2826
2581
2083
1640
1405
1234
894
353
-155
-394
-375
-300
-307
-353
-350
-357
-532
-921
-1369
-1694
-1881
-2081
-2399
-2739
-2886
-2730
-2374
-2009
-1742
-1543
-1327
-1070
-846
-715
-669
-628
-513
-331
-157
-47
41
217
529
885
1144
1304
1558
2133
3087
4250
5375
6275
6811
6802
6084
4695
2950
1250
-209
-1503
-2747
-3824
-4433
-4377
-3790
-3048
-2489
-2236
-2236
-2373
-2557
-2733
-2883
-3036
-3228
-3429
-3548
-3524
-3400
-3297
-3320
-3491
-3759
-4034
-4213
-4214
-4015
-3683
-3325
-3019
-2780
-2611
-2527
-2528
-2543
-2459
-2219
-1894
-1619
-1456
-1344
-1176
-910
-588
-267
52
397
784
1183
1541
1818
1999
2086
2096
2052
1980
1897
1821
1765
1728
1678
1589
1468
1363
1301
1241
1110
885
624
414
279
172
44
-86
-154
-128
-41
56
139
226
340
493
695
949
1236
1533
1827
2130
2449
2764
3048
3315
3607
3941
4266
4502
4631
4733
4894
5126
5362
5538
5659
5770
5899
6028
6136
6222
6296
6340
6313
6194
6024
5868
5749
5626
5436
5156
4828
4515
4241
3995
3758
3529
3298
3045
2758
2455
2164
1891
1624
1363
1128
917
687
402
98
-127
-213
-216
-249
-373
-534
-641
-686
-754
-924
-1161
-1353
-1430
-1447
-1537
-1761
-2055
-2294
-2419
-2492
-2615
-2825
-3083
-3336
-3571
-3791
-3988
-4144
-4268
-4399
-4559
-4717
-4824
-4867
-4884
-4917
-4987
-5085
-5201
-5302
-5345
-5329
-5334
-5450
-5668
-5877
-6000
-6094
-6264
-6490
-6617
-6548
-6409
-6438
-6695
-6989
-7107
-7086
-7163
-7475
-7885
-8158
-8235
-8255
-8342
-8455
-8502
-8540
-8742
-9154
-9586
-9791
-9728
-9589
-9543
-9511
-9248
-8612
-7732
-6865
-6176
-5613
-5012
-4260
-3375
-2456
-1583
-741
175
1256
2420
3368
3768
3564
3089
2827
2993
3359
3520
3334
3095
3254
3981
4995
5818
6173
6151
6066
6157
6416
6659
6713
6550
6262
5954
5667
5373
5045
4681
4279
3825
3326
2847
2475
2260
2159
2088
1991
1860
1706
1529
1355
1248
1270
1400
1540
1610
1622
1640
1682
1695
1631
1542
1539
1674
1875
2019
2061
2061
2107
2217
2352
2470
2570
2666
2755
2828
2890
2962
3045
3104
3097
3037
2976
2957
2958
2920
2819
2689
2588
2525
2464
2371
2248
2125
2005
1856
1644
1381
1109
855
612
358
95
-155
-367
-540
-679
-784
-843
-857
-845
-833
-827
-821
-810
-794
-768
-713
-617
-492
-369
-264
-159
-31
112
231
303
346
398
470
530
541
507
461
431
409
375
323
273
244
230
206
156
89
29
-13
-45
-86
-146
-215
-279
-330
-368
-399
-428
-460
-498
-547
-603
-653
-689
-711
-732
-763
-802
-835
-844
-824
-785
-740
-699
-669
-648
-622
-579
-520
-463
-419
-375
-310
-227
-152
-108
-79
-29
47
110
118
82
52
71
121
156
149
117
86
61
24
-41
-126
-213
-297
-384
-479
-579
-674
-761
-845
-928
-1010
-1090
-1164
-1230
-1289
-1348
-1412
-1484
-1556
-1615
-1649
-1659
-1661
-1674
-1709
-1749
-1764
-1730
-1654
-1561
-1484
-1432
-1389
-1332
-1249
-1154
-1077
-1041
-1047
-1059
-1040
-976
-863
-680
-378
68
625
1231
1853
2487
3063
3393
3282
2710
1908
1177
645
199
-319
-896
-1327
-1424
-1200
-865
-647
-639
-779
-947
-1050
-1063
-997
-890
-789
-720
-668
-586
-458
-326
-274
-358
-556
-800
-1025
-1190
-1267
-1234
-1117
-995
-954
-1021
-1148
-1282
-1404
-1515
-1601
-1631
-1598
-1550
-1546
-1603
-1675
-1693
-1621
-1493
-1392
-1382
-1454
-1533
-1558
-1534
-1518
-1542
-1577
-1580
-1549
-1522
-1513
-1499
-1454
-1401
-1390
-1436
-1502
-1546
-1560
-1572
-1591
-1617
-1652
-1697
-1720
-1653
-1457
-1165
-855
-572
-279
94
577
1113
1605
1985
2248
2442
2634
2849
3039
3121
3077
3003
3024
3171
3369
3560
3798
4164
4584
4817
4685
4282
3873
3572
3201
2500
1457
334
-619
-1394
-2142
-2901
-3498
-3778
-3839
-3981
-4403
-5008
-5527
-5831
-6057
-6430
-7021
-7686
-8224
-8539
-8639
-8567
-8395
-8274
-8384
-8775
-9262
-9570
-9582
-9392
-9102
-8627
-7744
-6284
-4269
-1853
766
3365
5735
7731
9295
10405
10984
10948
10361
9446
8424
7358
6212
5015
3913
3028
2348
1794
1338
1010
787
557
235
-123
-374
-428
-316
-145
17
182
408
736
1150
1575
1942
2247
2525
2759
2835
2639
2208
1733
1366
1056
613
-65
-862
-1540
-1965
-2182
-2336
-2539
-2834
-3234
-3736
-4293
-4834
-5331
-5825
-6385
-7002
-7573
-7976
-8161
-8170
-8091
-8004
-7920
-7773
-7484
-7043
-6533
-6060
-5642
-5212
-4712
-4174
-3670
-3213
-2739
-2196
-1594
-971
-328
334
936
1306
1315
1015
605
281
92
-54
-275
-587
-883
-1005
-887
-636
-483
-602
-952
-1313
-1490
-1474
-1422
-1473
-1624
-1778
-1857
-1867
-1845
-1807
-1762
-1743
-1793
-1915
-2044
-2110
-2083
-2007
-1966
-2013
-2128
-2229
-2241
-2162
-2042
-1906
-1718
-1440
-1125
-899
-827
-839
-805
-685
-567
-545
-597
-614
-536
-406
-297
-218
-113
57
274
492
692
898
1141
1423
1704
1897
1938
1832
1668
1546
1490
1446
1354
1216
1087
1011
989
996
1012
1027
1024
994
956
953
1020
1152
1314
1478
1640
1811
2001
2206
2408
2584
2701
2728
2663
2546
2436
2380
2373
2377
2362
2343
2357
2422
2520
2610
2672
2718
2766
2816
2861
2895
2927
2965
3000
3029
3053
3078
3092
3063
2961
2801
2641
2526
2451
2369
2255
2140
2071
2058
2058
2051
2050
2058
2033
1923
1745
1576
1473
1408
1316
1180
1037
905
741
498
212
-26
-164
-216
-220
-168
-23
228
553
898
1216
1469
1619
1666
1658
1655
1669
1657
1580
1474
1420
1470
1574
1635
1623
1592
1625
1730
1831
1865
1870
1947
2132
2341
2463
2497
2547
2679
2829
2877
2801
2720
2771
2944
3081
3037
2815
2553
2379
2322
2320
2303
2250
2196
2178
2201
2229
2225
2175
2096
2010
1917
1797
1635
1444
1259
1110
1006
923
827
688
507
319
172
80
15
-47
-90
-66
52
242
451
637
742
653
221
-629
-1793
-3010
-4054
-4912
-5753
-6722
-7754
-8605
-9065
-9150
-9073
-9058
-9162
-9265
-9205
-8919
-8473
-7987
-7544
-7148
-6747
-6295
-5810
-5360
-5022
-4831
-4772
-4800
-4870
-4948
-4999
-4981
-4875
-4709
-4522
-4329
-4101
-3799
-3423
-3003
-2561
-2106
-1652
-1248
-938
-715
-513
-264
48
387
726
1055
1358
1592
1739
1848
1981
2127
2212
2206
2186
2254
2406
2545
2639
2801
3180
3760
4339
4706
4808
4713
4475
4086
3554
2961
2392
1856
1340
923
766
952
1364
1762
1990
2079
2160
2300
2441
2500
2454
2344
2223
2128
2082
2092
2127
2120
2004
1756
1431
1113
864
699
593
503
393
265
170
165
245
323
312
220
142
153
206
168
-32
-329
-590
-741
-815
-888
-986
-1080
-1139
-1168
-1201
-1257
-1330
-1383
-1386
-1337
-1267
-1206
-1134
-997
-771
-497
-257
-89
38
164
285
362
388
393
407
428
438
450
494
595
767
998
1250
1462
1579
1614
1643
1732
1873
1986
2016
1982
1946
1944
1979
2022
2039
2000
1924
1881
1934
2038
2063
1942
1762
1682
1738
1780
1657
1416
1285
1448
1841
2210
2334
2182
1882
1569
1273
914
389
-328
-1141
-1875
-2382
-2612
-2631
-2577
-2573
-2651
-2766
-2868
-2948
-3036
-3140
-3226
-3258
-3223
-3111
-2899
-2589
-2243
-1925
-1615
-1208
-682
-218
-71
-291
-621
-737
-564
-309
-195
-210
-126
279
1047
2040
3015
3695
3870
3492
2738
1915
1259
793
382
-103
-637
-1040
-1109
-803
-321
29
62
-175
-482
-666
-636
-385
19
432
696
768
780
893
1090
1153
886
341
-210
-534
-608
-547
-436
-290
-122
24
129
241
395
546
600
532
427
385
417
446
410
325
270
304
441
644
854
1053
1276
1546
1813
1984
2018
1992
2015
2104
2168
2139
2070
2074
2176
2272
2271
2215
2232
2373
2532
2556
2407
2187
2029
1957
1877
1679
1327
887
449
52
-338
-778
-1273
-1775
-2235
-2642
-3006
-3326
-3583
-3776
-3936
-4088
-4216
-4284
-4292
-4280
-4278
-4273
-4227
-4145
-4083
-4108
-4232
-4402
-4546
-4617
-4613
-4553
-4454
-4314
-4114
-3840
-3499
-3130
-2777
-2468
-2205
-1967
-1736
-1505
-1272
-1030
-773
-504
-242
-2
224
462
722
970
1147
1237
1291
1374
1484
1536
1461
1275
1060
854
592
191
-322
-811
-1145
-1317
-1420
-1517
-1576
-1513
-1295
-975
-634
-305
24
374
735
1084
1416
1753
2107
2455
2757
3009
3261
3569
3929
4274
4547
4764
4998
5285
5587
5838
6016
6163
6316
6466
6573
6622
6636
6644
6643
6601
6504
6370
6227
6072
5870
5590
5243
4882
4551
4251
3941
3584
3191
2797
2423
2070
1735
1433
1179
959
742
515
296
111
-33
-158
-288
-427
-563
-686
-800
-916
-1045
-1175
-1294
-1395
-1477
-1531
-1518
-1372
-1055
-617
-172
197
528
911
1317
1505
1159
193
-1102
-2244
-2951
-3337
-3739
-4339
-4969
-5273
-5058
-4479
-3916
-3688
-3836
-4144
-4353
-4356
-4232
-4117
-4074
-4065
-4037
-3972
-3865
-3687
-3441
-3233
-3236
-3519
-3928
-4199
-4207
-4083
-4063
-4241
-4498
-4658
-4675
-4646
-4667
-4724
-4730
-4639
-4490
-4354
-4255
-4163
-4060
-3965
-3897
-3833
-3730
-3567
-3382
-3227
-3118
-3024
-2920
-2812
-2721
-2633
-2514
-2357
-2208
-2130
-2125
-2139
-2111
-2032
-1923
-1813
-1734
-1725
-1783
-1807
-1652
-1298
-946
-880
-1164
-1525
-1604
-1317
-934
-757
-785
-725
-337
311
943
1378
1669
1972
2340
2701
2985
3220
3484
3808
4156
4471
4738
4982
5228
5464
5661
5798
5889
5973
6080
6198
6299
6361
6382
6357
6257
6045
5721
5340
4984
4698
4474
4288
4136
4026
3955
3907
3863
3824
3791
3734
3614
3429
3233
3084
2971
2824
2602
2340
2114
1943
1790
1620
1473
1404
1397
1347
1184
968
852
918
1084
1181
1127
1009
989
1141
1371
1509
1472
1321
1187
1132
1104
1024
881
732
624
540
445
346
273
229
165
36
-127
-240
-256
-206
-165
-166
-173
-135
-46
48
92
86
80
122
215
324
411
474
528
587
635
651
631
586
532
472
401
322
242
171
109
47
-23
-108
-206
-305
-396
-472
-535
-584
-618
-627
-605
-554
-491
-429
-379
-337
-301
-273
-264
-281
-305
-301
-233
-86
147
475
908
1436
2032
2667
3304
3839
4083
3855
3147
2196
1332
710
213
-376
-1095
-1722
-1983
-1818
-1444
-1157
-1104
-1212
-1309
-1281
-1138
-960
-828
-768
-758
-743
-679
-571
-469
-437
-509
-669
-861
-1020
-1105
-1110
-1058
-978
-908
-882
-921
-1011
-1111
-1162
-1122
-993
-818
-665
-580
-556
-548
-512
-443
-372
-319
-269
-185
-55
100
245
374
502
640
770
865
921
959
1007
1070
1134
1188
1226
1250
1262
1264
1275
1306
1344
1357
1324
1261
1206
1177
1154
1109
1040
982
958
951
912
823
719
658
655
669
653
603
562
557
575
587
599
650
750
855
899
866
809
801
861
944
991
978
934
911
932
983
1023
1024
993
949
903
845
773
700
628
539
422
304
228
193
133
-7
-189
-307
-320
-321
-443
-716
-1023
-1208
-1234
-1195
-1197
-1233
-1205
-1047
-809
-620
-543
-518
-451
-355
-358
-543
-805
-927
-808
-575
-424
-397
-322
-8
521
1023
1292
1346
1415
1710
2226
2754
3060
3075
2910
2701
2479
2208
1880
1588
1434
1431
1502
1574
1613
1567
1324
793
-3
-935
-1896
-2866
-3845
-4758
-5497
-6037
-6471
-6900
-7295
-7575
-7761
-7993
-8373
-8797
-9023
-8927
-8671
-8521
-8561
-8609
-8473
-8228
-8151
-8392
-8744
-8815
-8386
-7565
-6583
-5499
-4146
-2373
-274
1868
3857
5787
7887
10184
12306
13704
14097
13707
13015
12331
11621
10741
9754
8957
8635
8866
9500
10252
10782
10790
10127
8859
7158
5175
3065
1133
-186
-624
-326
245
681
843
742
324
-527
-1813
-3366
-4958
-6398
-7475
-7948
-7696
-6909
-6021
-5390
-5058
-4842
-4623
-4472
-4532
-4828
-5249
-5687
-6099
-6455
-6674
-6672
-6478
-6261
-6207
-6343
-6472
-6332
-5814
-5073
-4412
-4053
-4002
-4106
-4217
-4299
-4385
-4492
-4588
-4657
-4738
-4888
-5090
-5243
-5246
-5100
-4887
-4629
-4188
-3362
-2100
-591
883
2177
3338
4452
5482
6313
6914
7373
7765
8033
8066
7857
7546
7294
7142
7006
6779
6437
6037
5683
5450
5320
5183
4935
4581
4226
3933
3637
3218
2658
2066
1533
1015
417
-270
-949
-1562
-2174
-2866
-3600
-4243
-4740
-5178
-5668
-6193
-6613
-6824
-6852
-6794
-6708
-6592
-6423
-6189
-5878
-5495
-5096
-4768
-4552
-4375
-4137
-3817
-3490
-3220
-2972
-2673
-2329
-2030
-1842
-1718
-1554
-1315
-1054
-828
-635
-446
-278
-167
-88
65
357
721
1018
1195
1348
1605
1974
2318
2505
2529
2484
2444
2404
2324
2208
2099
2034
2017
2021
2017
1992
1939
1859
1762
1661
1563
1475
1424
1449
1579
1799
2061
2327
2598
2877
3129
3298
3376
3429
3525
3642
3684
3620
3549
3609
3798
3933
3857
3618
3430
3424
3487
3406
3123
2795
2623
2651
2775
2892
2990
3094
3193
3271
3358
3479
3574
3506
3212
2817
2549
2518
2626
2672
2575
2439
2428
2576
2746
2758
2572
2320
2179
2226
2398
2608
2848
3186
3657
4213
4762
5235
5558
5587
5157
4268
3195
2334
1878
1667
1385
909
484
450
863
1396
1635
1460
1117
918
929
988
963
910
923
909
635
19
-667
-998
-824
-407
-132
-85
16
494
1343
2212
2706
2688
2302
1789
1294
829
368
-59
-351
-447
-400
-368
-468
-671
-874
-1039
-1245
-1570
-1969
-2306
-2496
-2568
-2602
-2643
-2699
-2804
-3004
-3280
-3527
-3645
-3667
-3713
-3857
-4045
-4192
-4301
-4451
-4675
-4911
-5089
-5229
-5384
-5497
-5385
-4927
-4240
-3606
-3216
-3024
-2867
-2694
-2620
-2760
-3080
-3432
-3700
-3868
-3955
-3944
-3806
-3571
-3328
-3148
-3020
-2872
-2656
-2391
-2123
-1879
-1624
-1293
-849
-330
172
580
883
1109
1279
1387
1431
1443
1473
1534
1588
1590
1531
1448
1383
1347
1329
1321
1335
1374
1417
1429
1391
1314
1223
1130
1041
976
960
992
1032
1032
984
928
912
938
966
952
882
770
650
564
538
561
585
567
519
489
513
572
620
634
622
605
587
561
527
488
446
399
339
253
119
-58
-231
-340
-379
-408
-488
-602
-672
-645
-553
-472
-443
-445
-445
-443
-454
-486
-540
-622
-732
-846
-927
-953
-935
-895
-838
-758
-664
-573
-482
-368
-217
-53
72
139
182
252
363
487
589
661
712
742
746
734
730
756
803
850
892
936
979
994
970
934
930
961
979
931
825
730
715
790
923
1087
1289
1551
1886
2285
2720
3129
3381
3310
2818
1985
1063
312
-186
-563
-1007
-1530
-1942
-2045
-1841
-1550
-1414
-1498
-1681
-1825
-1891
-1931
-1964
-1930
-1758
-1461
-1135
-879
-723
-643
-630
-722
-965
-1334
-1733
-2052
-2244
-2323
-2319
-2258
-2170
-2098
-2056
-2004
-1887
-1689
-1453
-1209
-958
-708
-514
-424
-378
-232
88
490
806
977
1115
1350
1672
1958
2134
2263
2446
2667
2812
2787
2632
2474
2397
2374
2333
2252
2176
2160
2198
2224
2198
2148
2144
2196
2227
2161
2034
1969
2045
2212
2351
2402
2426
2513
2666
2795
2813
2704
2514
2284
2020
1724
1420
1156
964
836
744
668
607
567
559
594
670
775
876
941
982
1050
1199
1424
1659
1817
1866
1850
1855
1930
2031
2050
1924
1719
1599
1678
1910
2101
2075
1813
1441
1081
741
347
-161
-756
-1348
-1842
-2199
-2431
-2593
-2754
-2975
-3278
-3640
-4027
-4404
-4764
-5115
-5455
-5767
-6018
-6177
-6236
-6242
-6272
-6363
-6488
-6586
-6625
-6631
-6640
-6644
-6616
-6558
-6509
-6492
-6478
-6422
-6332
-6261
-6211
-6101
-5837
-5426
-4979
-4602
-4309
-4035
-3735
-3426
-3145
-2891
-2630
-2346
-2055
-1771
-1471
-1119
-716
-315
23
284
508
733
952
1130
1247
1329
1408
1478
1504
1452
1325
1141
909
624
296
-42
-353
-620
-853
-1068
-1266
-1429
-1545
-1620
-1683
-1759
-1858
-1961
-2040
-2064
-2021
-1925
-1803
-1667
-1498
-1257
-916
-492
-19
500
1108
1837
2658
3505
4342
5197
6054
6751
7027
6737
6032
5274
4741
4426
4118
3693
3278
3126
3357
3840
4320
4620
4727
4728
4716
4742
4818
4927
5030
5087
5088
5064
5050
5044
5011
4913
4735
4493
4232
4000
3833
3761
3787
3868
3918
3846
3624
3317
3037
2845
2719
2601
2465
2331
2211
2084
1924
1737
1561
1425
1316
1204
1079
948
816
681
544
423
322
226
113
-13
-125
-209
-283
-381
-516
-679
-857
-1063
-1311
-1593
-1878
-2139
-2381
-2634
-2915
-3203
-3457
-3635
-3720
-3742
-3765
-3828
-3917
-3965
-3921
-3805
-3681
-3604
-3574
-3573
-3606
-3689
-3809
-3916
-3977
-4010
-4055
-4109
-4126
-4062
-3922
-3747
-3580
-3461
-3419
-3448
-3501
-3520
-3499
-3495
-3561
-3667
-3725
-3663
-3492
-3296
-3157
-3104
-3115
-3145
-3157
-3149
-3154
-3206
-3296
-3379
-3421
-3445
-3498
-3589
-3674
-3708
-3713
-3739
-3797
-3827
-3773
-3650
-3528
-3452
-3397
-3321
-3223
-3146
-3105
-3106
-3176
-3333
-3517
-3598
-3497
-3293
-3121
-2988
-2753
-2308
-1734
-1195
-704
-96
710
1512
1997
2078
1996
2034
2199
2257
2037
1650
1366
1356
1579
1888
2180
2442
2694
2940
3160
3332
3451
3511
3518
3480
3402
3293
3189
3136
3152
3189
3161
3004
2734
2449
2249
2155
2104
2013
1858
1679
1524
1393
1237
1018
752
498
305
162
25
-129
-269
-339
-320
-243
-144
-38
73
178
263
333
396
429
394
273
128
40
36
84
174
375
768
1338
1981
2615
3248
3873
4322
4305
3687
2686
1750
1171
850
455
-177
-831
-1115
-863
-302
149
251
83
-106
-147
-59
49
104
102
68
17
-21
-23
5
4
-93
-302
-554
-755
-853
-854
-787
-676
-551
-476
-515
-680
-908
-1104
-1224
-1290
-1348
-1424
-1506
-1575
-1628
-1669
-1700
-1718
-1727
-1740
-1767
-1818
-1922
-2108
-2355
-2581
-2685
-2636
-2498
-2357
-2238
-2120
-2012
-1965
-2011
-2104
-2158
-2152
-2151
-2204
-2247
-2157
-1897
-1581
-1373
-1330
-1370
-1376
-1310
-1236
-1222
-1271
-1322
-1304
-1197
-1039
-895
-809
-785
-796
-823
-871
-951
-1050
-1123
-1120
-1028
-901
-817
-819
-877
-909
-860
-749
-643
-585
-557
-505
-407
-285
-171
-70
26
110
159
163
150
159
200
247
269
259
236
221
216
215
216
217
211
191
158
132
129
135
108
33
-54
-88
-56
-14
-18
-50
-26
105
300
473
588
679
787
912
1032
1145
1266
1385
1468
1506
1538
1596
1664
1697
1693
1713
1806
1943
2051
2108
2159
2268
2430
2573
2633
2602
2527
2457
2399
2333
2264
2226
2259
2344
2403
2365
2243
2126
2098
2144
2158
2043
1811
1572
1438
1420
1425
1341
1127
846
605
457
367
252
79
-102
-204
-188
-104
-43
-42
-55
-18
74
169
237
311
444
641
834
962
1064
1235
1494
1719
1721
1433
994
634
475
457
445
384
357
488
833
1349
1948
2551
3099
3566
3969
4314
4508
4347
3672
2592
1458
570
-99
-848
-1871
-3004
-3874
-4285
-4422
-4629
-5076
-5672
-6228
-6639
-6898
-7020
-7032
-7020
-7089
-7260
-7410
-7396
-7188
-6915
-6761
-6816
-7001
-7102
-6883
-6222
-5179
-3955
-2791
-1867
-1268
-973
-869
-805
-676
-449
-78
584
1730
3402
5391
7379
9168
10749
12132
13204
13790
13841
13492
12904
12153
11272
10350
9494
8709
7890
6938
5888
4846
3854
2870
1869
941
252
-57
80
631
1417
2081
2188
1471
29
-1754
-3512
-5140
-6747
-8412
-9991
-11166
-11675
-11500
-10872
-10128
-9548
-9247
-9208
-9353
-9635
-10034
-10481
-10858
-11069
-11111
-11033
-10856
-10522
-9965
-9249
-8580
-8155
-7983
-7879
-7632
-7178
-6623
-5974
-5778
-5882
-6077
-6266
-6346
-6241
-5922
-5418
-4812
-4182
-3549
-2867
-2076
-1164
-193
728
1507
2105
2537
2862
3136
3375
3550
3627
3624
3601
3609
3654
3694
3672
3541
3276
2893
2438
1953
1455
942
433
-30
-428
-785
-1136
-1450
-1635
-1641
-1525
-1419
-1398
-1415
-1370
-1232
-1095
-1083
-1232
-1454
-1618
-1674
-1674
-1703
-1779
-1844
-1832
-1740
-1629
-1542
-1462
-1347
-1202
-1077
-1003
-941
-817
-624
-444
-374
-428
-516
-549
-541
-578
-718
-910
-1051
-1085
-1056
-1044
-1082
-1125
-1114
-1033
-913
-805
-743
-714
-689
-645
-587
-533
-494
-464
-441
-424
-408
-381
-348
-348
-425
-574
-734
-836
-846
-773
-633
-441
-219
29
330
723
1202
1711
2199
2673
3156
3583
3782
3622
3143
2550
2051
1716
1460
1174
850
606
585
805
1112
1298
1277
1147
1054
1009
886
596
214
-73
-141
-12
219
482
765
1059
1326
1515
1601
1585
1482
1314
1114
913
732
580
440
285
97
-95
-224
-233
-152
-104
-201
-442
-716
-899
-943
-876
-741
-553
-326
-104
67
193
340
569
866
1150
1355
1478
1552
1600
1609
1574
1518
1488
1521
1619
1774
1978
2224
2491
2738
2922
3033
3104
3168
3209
3183
3072
2931
2848
2841
2844
2776
2639
2502
2425
2394
2343
2221
2019
1767
1510
1293
1136
1007
840
601
321
70
-113
-252
-402
-597
-844
-1125
-1410
-1665
-1890
-2122
-2404
-2728
-3040
-3307
-3567
-3886
-4269
-4641
-4932
-5160
-5409
-5730
-6073
-6353
-6539
-6672
-6809
-6967
-7123
-7242
-7265
-7135
-6832
-6424
-6036
-5755
-5554
-5341
-5064
-4776
-4567
-4455
-4359
-4167
-3835
-3403
-2954
-2535
-2150
-1793
-1480
-1236
-1067
-945
-840
-740
-661
-605
-540
-429
-258
-56
141
313
458
572
656
723
814
959
1141
1295
1361
1335
1261
1190
1129
1053
947
830
745
711
719
748
786
829
879
934
994
1051
1089
1086
1042
980
924
867
786
683
589
532
496
438
340
224
128
51
-43
-169
-303
-418
-526
-660
-821
-962
-1047
-1105
-1199
-1353
-1519
-1626
-1662
-1675
-1714
-1773
-1812
-1816
-1815
-1834
-1860
-1845
-1749
-1564
-1299
-968
-574
-107
425
974
1426
1610
1386
755
-96
-890
-1451
-1814
-2146
-2531
-2851
-2884
-2534
-1958
-1440
-1154
-1042
-921
-675
-329
31
358
656
923
1135
1285
1402
1520
1620
1650
1587
1474
1390
1390
1475
1623
1802
1958
2031
1991
1856
1678
1510
1377
1282
1216
1153
1053
892
693
521
429
427
474
519
522
470
379
266
116
-122
-487
-932
-1339
-1600
-1709
-1752
-1804
-1861
-1862
-1781
-1663
-1570
-1527
-1519
-1525
-1548
-1574
-1568
-1514
-1426
-1328
-1220
-1083
-924
-768
-620
-438
-183
139
492
871
1268
1590
1663
1378
841
310
-65
-403
-931
-1687
-2413
-2773
-2665
-2296
-1961
-1791
-1694
-1496
-1138
-712
-385
-254
-283
-351
-351
-267
-169
-135
-200
-322
-415
-417
-345
-278
-259
-223
-59
253
591
795
836
818
829
842
792
718
759
995
1327
1591
1744
1906
2201
2593
2898
2970
2812
2539
2272
2075
1944
1821
1629
1338
1002
721
535
382
181
-66
-279
-407
-476
-525
-524
-410
-185
62
244
376
540
775
1035
1265
1466
1678
1910
2134
2331
2517
2710
2900
3071
3223
3372
3503
3574
3572
3529
3481
3422
3325
3195
3072
2963
2802
2499
2054
1570
1147
784
379
-147
-755
-1328
-1778
-2128
-2472
-2874
-3309
-3690
-3955
-4122
-4265
-4438
-4620
-4734
-4738
-4668
-4599
-4570
-4566
-4556
-4532
-4509
-4486
-4442
-4366
-4268
-4161
-4039
-3886
-3682
-3406
-3021
-2507
-1876
-1180
-452
309
1071
1691
1942
1678
998
209
-392
-737
-984
-1308
-1688
-1911
-1792
-1366
-876
-563
-497
-578
-682
-767
-866
-996
-1138
-1275
-1417
-1577
-1735
-1855
-1935
-2030
-2204
-2467
-2751
-2964
-3061
-3063
-3026
-2985
-2946
-2904
-2867
-2836
-2778
-2636
-2375
-2019
-1637
-1288
-978
-679
-363
-28
309
646
1005
1414
1865
2307
2674
2949
3195
3491
3852
4207
4475
4648
4785
4939
5093
5192
5206
5158
5084
4993
4884
4771
4681
4633
4615
4596
4554
4490
4411
4330
4251
4164
4064
3955
3855
3785
3755
3758
3778
3806
3835
3856
3863
3845
3806
3752
3692
3634
3572
3504
3419
3309
3179
3040
2910
2787
2656
2506
2346
2191
2040
1873
1678
1460
1225
966
677
397
178
22
-147
-410
-765
-1123
-1400
-1607
-1833
-2142
-2503
-2816
-3002
-3079
-3142
-3270
-3455
-3607
-3657
-3638
-3654
-3771
-3929
-4004
-3953
-3863
-3856
-3960
-4082
-4114
-4047
-3958
-3923
-3944
-3970
-3958
-3917
-3862
-3785
-3674
-3562
-3534
-3637
-3811
-3917
-3868
-3729
-3649
-3702
-3808
-3840
-3772
-3711
-3764
-3919
-4068
-4137
-4163
-4231
-4360
-4477
-4513
-4479
-4455
-4493
-4557
-4578
-4526
-4431
-4335
-4253
-4162
-4034
-3859
-3656
-3467
-3312
-3172
-3013
-2856
-2796
-2904
-3113
-3221
-3092
-2796
-2501
-2236
-1834
-1147
-276
501
1015
1349
1647
1903
2016
2044
2249
2821
3614
4262
4565
4675
4863
5155
5283
4983
4267
3414
2748
2429
2443
2670
2995
3364
3812
4397
5108
5823
6372
6620
6510
6021
5202
4229
3369
2803
2461
2088
1511
844
388
331
565
790
786
577
359
308
446
661
819
863
833
815
859
929
938
805
524
173
-142
-351
-448
-456
-391
-257
-96
19
31
-38
-109
-128
-114
-117
-142
-138
-66
49
126
127
102
154
344
626
887
1039
1096
1139
1209
1259
1212
1074
948
922
975
1014
992
968
1034
1193
1368
1485
1543
1585
1629
1657
1649
1619
1595
1586
1582
1572
1567
1585
1635
1709
1784
1832
1836
1806
1771
1750
1728
1669
1565
1449
1374
1350
1337
1282
1180
1069
993
947
897
818
724
649
609
590
563
509
437
365
303
236
142
10
-150
-310
-448
-551
-609
-612
-559
-468
-371
-286
-211
-139
-80
-62
-102
-194
-310
-425
-527
-607
-657
-687
-717
-765
-822
-860
-874
-893
-947
-1024
-1074
-1056
-990
-933
-923
-947
-956
-921
-859
-815
-815
-839
-839
-776
-654
-507
-368
-248
-149
-71
-5
67
162
274
373
440
490
548
619
678
701
701
715
760
813
845
860
895
985
1123
1269
1380
1446
1487
1520
1543
1545
1521
1488
1471
1472
1468
1430
1353
1261
1191
1149
1106
1020
881
725
602
523
464
396
326
284
280
284
259
211
186
221
292
344
344
320
316
345
380
403
422
449
478
481
442
388
362
393
494
665
917
1255
1677
2173
2728
3297
3756
3917
3627
2903
1975
1145
553
81
-486
-1199
-1845
-2137
-2004
-1682
-1492
-1567
-1776
-1920
-1923
-1838
-1734
-1628
-1521
-1433
-1365
-1258
-1050
-734
-359
28
412
767
1032
1174
1244
1327
1406
1336
987
406
-202
-623
-771
-681
-434
-116
198
474
737
1024
1328
1534
1544
1393
1212
1078
953
764
494
180
-163
-573
-1026
-1359
-1381
-1063
-568
-45
583
1525
2745
3737
3785
2525
256
-2336
-4750
-6943
-9110
-11265
-13085
-14154
-14292
-13646
-12546
-11322
-10208
-9333
-8674
-8106
-7512
-6845
-6116
-5332
-4459
-3464
-2380
-1273
-161
960
2007
2834
3397
3881
4607
5760
7193
8568
9643
10430
11071
11632
12068
12350
12564
12831
13155
13378
13302
12832
12004
10899
9556
7977
6221
4423
2763
1387
354
-395
-977
-1481
-1879
-2065
-2011
-1862
-1829
-1946
-1977
-1617
-822
108
771
978
813
435
-95
-811
-1721
-2735
-3696
-4424
-4753
-4600
-4050
-3356
-2794
-2494
-2400
-2383
-2375
-2419
-2574
-2834
-3137
-3407
-3565
-3538
-3290
-2889
-2537
-2474
-2795
-3361
-3922
-4335
-4657
-5013
-5436
-5845
-6171
-6431
-6652
-6785
-6754
-6571
-6360
-6231
-6167
-6070
-5891
-5683
-5503
-5332
-5105
-4811
-4519
-4284
-4079
-3843
-3579
-3378
-3313
-3347
-3379
-3372
-3390
-3501
-3671
-3805
-3873
-3950
-4095
-4240
-4230
-3995
-3646
-3368
-3241
-3191
-3103
-2948
-2795
-2724
-2741
-2783
-2783
-2720
-2618
-2509
-2411
-2335
-2296
-2310
-2366
-2412
-2402
-2341
-2273
-2208
-2088
-1833
-1421
-908
-362
176
649
935
902
529
-19
-504
-801
-982
-1213
-1568
-1926
-2066
-1890
-1528
-1241
-1192
-1323
-1445
-1429
-1280
-1068
-837
-609
-440
-382
-403
-392
-278
-134
-102
-228
-393
-439
-330
-165
-45
15
47
42
-55
-262
-504
-660
-667
-555
-400
-244
-81
103
297
464
574
629
650
655
664
701
783
902
1029
1130
1187
1192
1141
1038
914
811
751
711
648
555
479
471
536
628
693
715
695
622
479
272
56
-99
-184
-252
-362
-514
-630
-635
-523
-357
-218
-149
-143
-144
-81
95
373
678
919
1068
1183
1338
1538
1718
1808
1808
1784
1803
1886
2011
2139
2252
2359
2484
2646
2820
2956
3025
3041
3057
3111
3202
3320
3447
3540
3556
3487
3385
3311
3262
3185
3056
2916
2827
2799
2815
2873
2969
3017
2874
2488
2003
1650
1503
1425
1255
1014
862
896
1050
1202
1299
1341
1297
1116
827
555
384
245
-3
-391
-780
-1018
-1104
-1175
-1336
-1553
-1730
-1854
-2007
-2244
-2497
-2669
-2775
-2935
-3217
-3527
-3725
-3813
-3936
-4181
-4461
-4639
-4729
-4891
-5218
-5599
-5843
-5908
-5921
-6001
-6125
-6182
-6114
-5939
-5681
-5344
-4957
-4562
-4158
-3683
-3103
-2497
-2009
-1692
-1442
-1134
-758
-427
-226
-119
0
192
424
619
734
779
794
814
857
916
968
997
1015
1059
1148
1255
1314
1288
1197
1098
1025
987
978
1014
1118
1285
1499
1753
2066
2460
2912
3367
3752
3976
3938
3583
2996
2409
2052
1937
1830
1471
857
256
-54
-83
-123
-456
-1093
-1785
-2271
-2468
-2476
-2429
-2401
-2393
-2382
-2339
-2257
-2156
-2086
-2102
-2205
-2334
-2397
-2334
-2155
-1914
-1680
-1498
-1384
-1345
-1366
-1406
-1401
-1298
-1102
-866
-640
-433
-226
-30
93
88
-24
-152
-208
-190
-167
-192
-242
-245
-165
-42
51
81
72
68
85
108
125
144
187
277
425
624
849
1047
1182
1259
1336
1472
1675
1895
2080
2229
2396
2619
2880
3103
3234
3290
3335
3392
3421
3389
3334
3333
3398
3456
3448
3418
3423
3427
3299
3013
2739
2662
2731
2653
2206
1512
941
720
720
637
323
-90
-366
-400
-265
-106
-47
-142
-365
-624
-808
-887
-943
-1091
-1352
-1629
-1808
-1866
-1878
-1924
-2033
-2191
-2384
-2604
-2850
-3121
-3412
-3688
-3883
-3934
-3838
-3671
-3499
-3329
-3118
-2853
-2598
-2438
-2401
-2448
-2512
-2544
-2538
-2526
-2538
-2557
-2518
-2370
-2168
-2042
-2070
-2173
-2188
-2028
-1768
-1549
-1422
-1319
-1142
-878
-592
-358
-214
-158
-171
-197
-171
-66
93
243
361
473
602
729
808
815
791
794
827
812
676
439
203
55
-27
-124
-276
-424
-484
-440
-368
-355
-414
-496
-563
-631
-745
-909
-1047
-1070
-964
-799
-653
-538
-400
-203
27
245
454
684
945
1197
1403
1580
1756
1934
2097
2243
2387
2525
2639
2745
2928
3254
3681
4074
4327
4427
4379
4110
3534
2715
1887
1254
779
243
-471
-1187
-1607
-1641
-1530
-1605
-1966
-2419
-2706
-2749
-2670
-2614
-2616
-2621
-2594
-2548
-2512
-2500
-2523
-2622
-2845
-3204
-3632
-4016
-4254
-4324
-4286
-4235
-4226
-4227
-4160
-3991
-3781
-3628
-3568
-3537
-3459
-3333
-3241
-3253
-3348
-3437
-3448
-3382
-3287
-3205
-3136
-3053
-2949
-2860
-2839
-2914
-3060
-3215
-3344
-3471
-3638
-3820
-3914
-3818
-3524
-3111
-2646
-2128
-1529
-870
-236
291
683
953
1121
1206
1255
1334
1478
1673
1887
2124
2429
2829
3302
3801
4289
4756
5200
5609
5980
6329
6678
7021
7323
7553
7718
7846
7952
8029
8076
8108
8134
8136
8089
8005
7925
7876
7822
7692
7456
7179
6969
6877
6852
6795
6653
6461
6284
6154
6036
5881
5669
5427
5184
4946
4695
4431
4182
3997
3897
3841
3743
3541
3247
2931
2650
2390
2099
1755
1407
1129
948
827
723
630
566
528
478
386
258
126
3
-119
-253
-383
-485
-561
-638
-736
-841
-920
-967
-1017
-1113
-1262
-1425
-1569
-1689
-1801
-1914
-2017
-2110
-2219
-2356
-2490
-2559
-2548
-2522
-2574
-2740
-2965
-3169
-3317
-3428
-3525
-3592
-3607
-3574
-3518
-3457
-3392
-3337
-3338
-3421
-3558
-3680
-3752
-3810
-3907
-4048
-4176
-4232
-4236
-4259
-4344
-4457
-4537
-4579
-4642
-4771
-4933
-5044
-5070
-5070
-5131
-5274
-5433
-5531
-5537
-5494
-5467
-5494
-5565
-5615
-5575
-5432
-5235
-5054
-4879
-4622
-4210
-3669
-3090
-2541
-2034
-1606
-1382
-1498
-1958
-2574
-3092
-3381
-3516
-3660
-3893
-4128
-4194
-3995
-3617
-3272
-3116
-3104
-3028
-2709
-2147
-1503
-924
-424
69
584
1045
1345
1479
1547
1644
1751
1768
1673
1596
1702
2015
2365
2540
2486
2330
2228
2217
2216
2155
2063
2033
2116
2258
2332
2239
1985
1689
1487
1419
1399
1306
1103
878
755
779
886
969
976
944
940
1000
1104
1204
1274
1321
1366
1408
1427
1415
1409
1439
1495
1513
1450
1344
1280
1296
1346
1353
1297
1213
1109
952
740
559
515
590
635
548
409
387
514
619
526
276
82
76
176
209
133
71
133
290
420
459
442
420
397
335
223
90
-23
-86
-81
-22
32
8
-111
-248
-294
-219
-113
-92
-173
-266
-268
-174
-68
-31
-70
-128
-148
-110
-29
66
153
224
277
310
322
332
365
435
524
581
581
557
573
656
770
854
882
878
871
861
834
799
789
834
914
982
1014
1030
1073
1158
1247
1295
1298
1298
1335
1400
1436
1396
1282
1145
1027
931
822
673
492
313
161
35
-75
-170
-237
-267
-264
-238
-206
-182
-172
-167
-148
-107
-67
-62
-100
-146
-161
-138
-110
-108
-131
-154
-169
-184
-205
-220
-217
-206
-214
-251
-300
-332
-337
-331
-339
-370
-409
-441
-456
-460
-460
-454
-445
-439
-452
-485
-515
-513
-467
-381
-249
-42
266
669
1133
1622
2092
2456
2572
2319
1703
883
72
-613
-1199
-1772
-2341
-2796
-2976
-2814
-2403
-1960
-1686
-1636
-1695
-1692
-1556
-1372
-1301
-1422
-1660
-1861
-1935
-1919
-1915
-1985
-2110
-2241
-2358
-2457
-2519
-2500
-2384
-2223
-2106
-2076
-2099
-2118
-2110
-2095
-2079
-2038
-1951
-1837
-1742
-1690
-1672
-1668
-1670
-1676
-1668
-1635
-1592
-1579
-1610
-1649
-1643
-1572
-1459
-1339
-1221
-1107
-1009
-955
-948
-961
-964
-963
-993
-1075
-1181
-1256
-1279
-1278
-1301
-1370
-1460
-1540
-1598
-1649
-1711
-1794
-1876
-1918
-1888
-1811
-1770
-1833
-1969
-2063
-2040
-1985
-2075
-2379
-2751
-2954
-2897
-2721
-2632
-2675
-2698
-2548
-2232
-1898
-1684
-1594
-1523
-1392
-1240
-1171
-1231
-1359
-1442
-1440
-1418
-1445
-1479
-1332
-776
292
1754
3266
4378
4733
4287
3324
2226
1123
-169
-1863
-3809
-5447
-6210
-5989
-5200
-4414
-3956
-3808
-3828
-3986
-4374
-5031
-5841
-6620
-7264
-7777
-8163
-8345
-8228
-7885
-7581
-7589
-7959
-8497
-8978
-9326
-9584
-9757
-9767
-9544
-9113
-8554
-7882
-7041
-5969
-4672
-3192
-1596
-2
1416
2506
3265
3839
4397
5000
5605
6144
6594
6976
7335
7740
8235
8770
9190
9346
9237
9004
8803
8688
8616
8537
8454
8395
8342
8206
7890
7402
6861
6375
5918
5337
4562
3727
3059
2611
2199
1666
1158
1021
1365
1835
1877
1240
162
-930
-1849
-2726
-3756
-4932
-6023
-6755
-6969
-6665
-5965
-5069
-4216
-3597
-3272
-3162
-3122
-3062
-3000
-3001
-3083
-3155
-3063
-2730
-2205
-1629
-1164
-955
-1133
-1777
-2851
-4172
-5470
-6520
-7261
-7822
-8391
-9035
-9619
-9919
-9851
-9585
-9396
-9426
-9560
-9584
-9403
-9094
-8774
-8466
-8121
-7725
-7319
-6944
-6595
-6260
-5989
-5851
-5848
-5875
-5790
-5528
-5142
-4730
-4360
-4040
-3747
-3457
-3149
-2818
-2476
-2139
-1815
-1494
-1171
-870
-642
-519
-481
-476
-460
-426
-388
-354
-313
-251
-170
-84
-16
-3
-78
-237
-421
-548
-600
-635
-728
-899
-1091
-1234
-1308
-1331
-1350
-1402
-1511
-1672
-1834
-1929
-1923
-1852
-1796
-1820
-1935
-2095
-2237
-2309
-2295
-2210
-2090
-1963
-1850
-1768
-1721
-1688
-1641
-1591
-1590
-1684
-1840
-1950
-1912
-1724
-1465
-1210
-957
-665
-344
-59
137
276
432
622
804
941
1070
1257
1503
1737
1900
2020
2169
2349
2486
2517
2479
2470
2546
2666
2751
2765
2735
2715
2732
2783
2834
2845
2809
2751
2704
2664
2593
2466
2315
2206
2170
2172
2157
2097
2027
1993
2006
2046
2103
2198
2330
2438
2445
2367
2343
2463
2582
2389
1717
783
42
-193
12
383
767
1238
1913
2765
3620
4307
4726
4828
4584
4054
3418
2876
2523
2309
2145
1998
1915
1925
2001
2065
2041
1887
1621
1307
1009
766
585
450
357
306
267
165
-72
-436
-805
-1027
-1076
-1092
-1254
-1579
-1906
-2070
-2092
-2137
-2311
-2521
-2593
-2470
-2282
-2188
-2230
-2329
-2407
-2464
-2537
-2651
-2799
-2943
-3023
-2971
-2773
-2491
-2212
-1965
-1673
-1274
-817
-413
-119
116
351
518
430
-49
-855
-1730
-2419
-2860
-3204
-3632
-4168
-4620
-4745
-4481
-4025
-3663
-3548
-3610
-3662
-3574
-3340
-3034
-2738
-2520
-2400
-2309
-2106
-1692
-1124
-622
-398
-498
-779
-1047
-1209
-1300
-1395
-1522
-1633
-1647
-1517
-1257
-929
-597
-282
34
361
667
898
1022
1070
1096
1123
1152
1183
1238
1321
1389
1377
1258
1077
920
839
817
822
851
921
1023
1102
1104
1035
958
926
933
937
919
912
958
1062
1194
1323
1450
1588
1735
1863
1945
1979
1993
2020
2069
2117
2137
2116
2074
2038
2022
2015
1997
1958
1906
1860
1842
1870
1935
2000
2024
1995
1948
1928
1948
1977
1985
1975
1978
2023
2106
2194
2252
2269
2261
2255
2256
2231
2143
1992
1820
1668
1536
1392
1225
1053
893
725
518
283
81
-46
-117
-184
-258
-293
-246
-134
-15
79
175
320
528
764
987
1168
1302
1416
1548
1722
1921
2093
2205
2271
2337
2420
2492
2525
2526
2536
2574
2626
2669
2707
2765
2855
2951
3009
3005
2951
2876
2791
2685
2537
2346
2148
1994
1907
1855
1777
1652
1515
1424
1396
1387
1351
1289
1229
1183
1138
1082
1017
932
792
563
266
-35
-296
-528
-771
-1018
-1218
-1334
-1388
-1439
-1518
-1604
-1646
-1625
-1578
-1570
-1649
-1816
-2026
-2240
-2458
-2705
-2988
-3265
-3472
-3578
-3593
-3547
-3461
-3343
-3207
-3084
-2978
-2859
-2696
-2490
-2270
-2028
-1730
-1353
-930
-529
-201
30
104
-107
-694
-1564
-2429
-3018
-3270
-3338
-3363
-3303
-2982
-2298
-1357
-397
385
920
1267
1528
1795
2098
2386
2579
2642
2626
2606
2590
2502
2280
1936
1556
1200
888
623
430
368
462
656
839
928
921
879
862
877
915
1001
1188
1494
1854
2165
2385
2568
2784
3043
3284
3443
3523
3567
3605
3636
3646
3629
3585
3511
3415
3323
3269
3264
3283
3285
3252
3211
3181
3141
3019
2764
2402
2030
1720
1464
1195
858
474
123
-124
-272
-404
-642
-1047
-1563
-2055
-2425
-2696
-2958
-3254
-3519
-3662
-3664
-3582
-3492
-3419
-3372
-3372
-3438
-3553
-3674
-3783
-3918
-4113
-4333
-4495
-4551
-4538
-4533
-4565
-4598
-4595
-4571
-4567
-4589
-4585
-4497
-4322
-4106
-3893
-3681
-3438
-3144
-2810
-2468
-2144
-1841
-1551
-1266
-994
-763
-601
-514
-467
-421
-368
-338
-358
-414
-463
-481
-495
-548
-643
-736
-788
-808
-838
-893
-939
-938
-894
-841
-789
-717
-603
-462
-326
-190
-10
251
574
890
1151
1377
1630
1927
2212
2417
2541
2680
2927
3270
3586
3768
3845
3943
4143
4383
4539
4550
4472
4405
4385
4383
4363
4307
4210
4058
3853
3619
3386
3155
2902
2616
2314
2018
1728
1429
1124
834
580
351
118
-141
-432
-739
-1046
-1343
-1619
-1871
-2107
-2349
-2608
-2876
-3116
-3305
-3446
-3579
-3732
-3906
-4082
-4261
-4459
-4689
-4925
-5117
-5219
-5214
-5114
-4956
-4774
-4566
-4285
-3883
-3385
-2923
-2692
-2853
-3453
-4369
-5367
-6215
-6844
-7376
-7977
-8650
-9174
-9303
-8998
-8492
-8094
-7961
-8014
-8055
-7941
-7678
-7387
-7188
-7102
-7049
-6929
-6729
-6527
-6397
-6347
-6334
-6340
-6380
-6455
-6506
-6468
-6340
-6197
-6117
-6115
-6149
-6167
-6155
-6133
-6123
-6104
-6027
-5892
-5777
-5769
-5857
-5919
-5855
-5721
-5672
-5795
-5998
-6113
-6093
-6046
-6101
-6276
-6479
-6604
-6610
-6527
-6432
-6400
-6451
-6505
-6464
-6329
-6230
-6279
-6437
-6545
-6527
-6486
-6587
-6852
-7143
-7315
-7357
-7361
-7406
-7503
-7636
-7783
-7888
-7867
-7676
-7390
-7136
-6952
-6727
-6316
-5715
-5076
-4544
-4101
-3635
-3104
-2614
-2287
-2095
-1872
-1498
-1021
-577
-214
171
719
1452
2246
2952
3515
3973
4373
4710
4943
5045
5039
4966
4843
4668
4438
4179
3933
3720
3516
3283
3007
2720
2460
2248
2071
1898
1714
1533
1393
1318
1280
1203
1036
811
629
561
575
558
431
239
100
71
69
-46
-318
-628
-802
-779
-653
-549
-487
-375
-136
202
542
815
1021
1186
1304
1354
1348
1344
1395
1495
1588
1628
1617
1590
1574
1559
1507
1398
1245
1095
986
921
890
903
994
1167
1345
1419
1358
1248
1203
1231
1232
1121
941
819
821
885
909
862
801
774
769
743
688
640
625
626
612
570
531
522
539
553
542
510
474
436
388
320
242
176
137
109
51
-68
-240
-419
-556
-635
-673
-691
-683
-604
-409
-88
328
797
1296
1796
2210
2365
2093
1392
492
-289
-792
-1146
-1596
-2204
-2739
-2888
-2577
-2055
-1662
-1537
-1558
-1513
-1313
-1017
-725
-492
-319
-190
-77
54
210
355
417
351
183
-11
-156
-225
-231
-196
-145
-112
-142
-265
-462
-677
-857
-990
-1096
-1185
-1248
-1277
-1289
-1312
-1345
-1348
-1288
-1182
-1082
-1026
-995
-949
-874
-801
-762
-752
-733
-686
-624
-574
-538
-496
-444
-404
-397
-397
-349
-220
-40
126
238
317
403
499
567
576
534
472
405
320
210
90
-19
-122
-239
-362
-451
-488
-508
-567
-664
-726
-677
-529
-366
-257
-194
-124
-18
93
165
190
197
220
271
345
435
530
622
706
792
888
976
1013
966
852
734
663
632
590
505
398
311
259
222
188
172
188
207
178
89
-10
-61
-59
-45
-44
-42
-13
37
87
133
195
285
390
477
546
628
750
914
1110
1358
1707
2188
2752
3254
3538
3547
3378
3217
3177
3182
3031
2588
1942
1353
1047
1034
1129
1130
986
820
804
1009
1359
1675
1805
1729
1568
1480
1517
1588
1554
1385
1179
1049
1001
969
947
966
1005
978
824
564
266
-25
-294
-505
-666
-918
-1452
-2188
-2637
-2250
-1022
296
752
-6
-1474
-2828
-3692
-4391
-5505
-7231
-9160
-10605
-11106
-10692
-9750
-8696
-7769
-7008
-6345
-5695
-4979
-4145
-3164
-2085
-1029
-102
752
1764
3169
4984
6909
8521
9641
10470
11308
12185
12829
12990
12740
12368
12034
11606
10856
9774
8637
7770
7250
6837
6193
5154
3842
2545
1485
690
54
-501
-955
-1263
-1439
-1561
-1701
-1888
-2140
-2483
-2906
-3326
-3624
-3713
-3591
-3334
-3065
-2912
-2960
-3215
-3605
-4043
-4487
-4944
-5423
-5876
-6233
-6458
-6580
-6671
-6781
-6909
-7011
-7043
-6992
-6900
-6833
-6828
-6883
-6979
-7113
-7306
-7564
-7833
-8044
-8187
-8345
-8624
-9010
-9319
-9331
-8981
-8432
-7932
-7600
-7354
-7056
-6688
-6376
-6241
-6268
-6335
-6356
-6347
-6367
-6412
-6409
-6299
-6100
-5874
-5632
-5324
-4922
-4476
-4082
-3768
-3462
-3077
-2614
-2171
-1823
-1545
-1270
-973
-694
-465
-263
-51
158
314
397
434
447
410
293
118
-57
-217
-407
-669
-963
-1208
-1379
-1545
-1792
-2128
-2470
-2728
-2872
-2925
-2933
-2926
-2907
-2855
-2750
-2585
-2379
-2169
-1983
-1823
-1676
-1542
-1434
-1366
-1328
-1291
-1234
-1171
-1141
-1168
-1227
-1272
-1275
-1240
-1184
-1115
-1046
-1008
-1018
-1053
-1051
-987
-903
-868
-883
-888
-837
-752
-699
-703
-730
-736
-718
-702
-702
-711
-713
-695
-651
-598
-582
-652
-805
-963
-1038
-1019
-979
-1001
-1088
-1173
-1182
-1104
-989
-902
-877
-916
-987
-1052
-1086
-1086
-1057
-1016
-968
-914
-868
-846
-865
-925
-994
-1022
-983
-891
-786
-694
-600
-481
-335
-185
-59
20
42
14
-25
-30
4
37
32
9
22
90
178
255
359
559
890
1318
1792
2291
2802
3247
3462
3303
2756
1983
1232
657
238
-161
-612
-1011
-1154
-937
-478
-41
159
76
-194
-519
-808
-1031
-1187
-1290
-1352
-1351
-1239
-986
-618
-233
61
199
206
157
121
115
110
83
33
-36
-159
-370
-635
-850
-904
-791
-628
-550
-585
-633
-586
-446
-314
-269
-290
-309
-327
-416
-603
-784
-820
-700
-580
-605
-736
-796
-685
-504
-427
-503
-614
-624
-530
-444
-452
-539
-625
-638
-556
-395
-187
13
157
235
274
304
324
297
187
7
-169
-244
-165
26
216
291
206
4
-250
-539
-903
-1373
-1895
-2347
-2604
-2629
-2470
-2204
-1892
-1568
-1261
-1003
-810
-674
-574
-484
-393
-312
-237
-143
9
227
465
646
733
765
804
873
949
1005
1053
1108
1151
1141
1071
986
924
868
772
637
526
491
525
574
596
589
575
573
597
656
729
769
758
739
796
957
1154
1296
1366
1431
1554
1720
1854
1922
1957
2004
2061
2091
2079
2045
2005
1950
1860
1745
1631
1522
1394
1244
1112
1047
1053
1088
1116
1143
1192
1262
1315
1327
1318
1331
1392
1483
1564
1611
1630
1646
1675
1708
1714
1669
1574
1449
1325
1216
1118
1028
944
862
769
658
549
470
440
438
430
409
409
472
602
762
917
1057
1182
1287
1383
1512
1704
1919
2052
2042
1947
1893
1936
2000
1983
1900
1883
2025
2281
2541
2778
3072
3444
3727
3644
3059
2140
1248
655
339
52
-408
-987
-1414
-1455
-1146
-764
-590
-687
-905
-1064
-1109
-1087
-1035
-946
-832
-754
-747
-748
-656
-461
-299
-313
-495
-685
-747
-698
-656
-685
-736
-741
-710
-707
-735
-705
-519
-191
147
350
381
317
263
229
108
-226
-788
-1437
-1969
-2282
-2449
-2619
-2858
-3085
-3157
-3009
-2693
-2338
-2038
-1826
-1687
-1599
-1549
-1513
-1458
-1346
-1150
-869
-528
-160
203
539
823
1028
1129
1117
1018
899
829
849
968
1186
1501
1893
2302
2655
2919
3135
3349
3565
3749
3863
3917
3942
3949
3924
3864
3782
3687
3561
3367
3094
2782
2514
2355
2292
2232
2093
1896
1745
1694
1669
1563
1392
1296
1378
1561
1670
1642
1596
1677
1881
2061
2101
2035
1989
2050
2182
2279
2278
2200
2150
2220
2411
2634
2800
2910
3037
3233
3453
3615
3696
3755
3834
3895
3882
3806
3751
3773
3824
3818
3744
3682
3696
3728
3646
3400
3109
2952
2972
3025
2935
2690
2450
2352
2353
2267
1981
1563
1178
899
661
365
9
-318
-556
-735
-934
-1174
-1415
-1618
-1797
-2005
-2258
-2529
-2764
-2946
-3116
-3329
-3607
-3918
-4203
-4433
-4630
-4841
-5069
-5266
-5377
-5411
-5426
-5455
-5465
-5398
-5254
-5097
-4978
-4867
-4690
-4410
-4068
-3727
-3420
-3145
-2892
-2657
-2444
-2253
-2091
-1971
-1885
-1782
-1618
-1393
-1120
-770
-303
269
857
1391
1908
2491
3065
3332
2992
2090
1062
367
63
-189
-701
-1378
-1818
-1748
-1305
-856
-636
-595
-572
-493
-385
-250
-45
223
460
584
630
706
848
980
1011
933
804
681
580
527
574
736
929
1036
1012
922
840
766
652
507
426
494
669
806
799
683
589
596
668
724
738
753
802
858
869
829
796
821
889
937
931
900
900
944
990
995
960
918
897
898
906
918
953
1029
1154
1311
1468
1604
1727
1870
2040
2194
2277
2304
2367
2547
2815
3057
3205
3310
3480
3740
3995
4128
4126
4066
4017
3980
3921
3841
3771
3727
3674
3572
3433
3306
3218
3145
3029
2859
2673
2516
2391
2267
2126
1990
1882
1794
1694
1565
1434
1344
1309
1299
1278
1241
1216
1233
1301
1391
1464
1485
1446
1366
1275
1180
1046
840
570
309
146
108
137
147
106
58
53
87
109
84
26
-27
-54
-54
-17
70
203
347
475
599
733
847
881
818
726
696
752
835
879
885
910
996
1129
1259
1350
1390
1389
1371
1373
1408
1455
1463
1410
1325
1261
1248
1264
1257
1190
1065
914
766
631
500
355
197
42
-95
-208
-301
-370
-414
-436
-458
-483
-490
-456
-393
-338
-323
-340
-358
-354
-329
-311
-330
-393
-482
-558
-587
-575
-552
-519
-411
-158
241
709
1185
1690
2236
2688
2758
2232
1221
138
-646
-1119
-1592
-2333
-3234
-3895
-4002
-3631
-3165
-2945
-3011
-3150
-3141
-2943
-2673
-2449
-2293
-2157
-2012
-1875
-1776
-1717
-1671
-1626
-1617
-1685
-1813
-1919
-1911
-1755
-1500
-1242
-1068
-1020
-1080
-1188
-1270
-1285
-1239
-1174
-1120
-1076
-1026
-980
-963
-992
-1044
-1071
-1050
-1003
-973
-977
-994
-986
-935
-846
-740
-632
-540
-475
-436
-404
-355
-289
-220
-161
-106
-36
58
161
250
310
341
347
333
302
260
212
161
115
91
93
109
111
84
46
31
51
84
97
87
88
129
209
296
366
417
451
459
431
374
315
267
216
138
36
-55
-100
-101
-87
-80
-74
-54
-23
-3
-13
-48
-87
-114
-137
-170
-218
-268
-303
-323
-343
-379
-427
-477
-530
-598
-688
-784
-859
-904
-935
-967
-1000
-1024
-1040
-1060
-1082
-1088
-1073
-1062
-1090
-1163
-1237
-1269
-1259
-1250
-1269
-1289
-1253
-1131
-957
-797
-690
-616
-518
-364
-182
-30
49
69
82
132
227
342
445
518
562
593
629
678
731
772
801
828
857
880
883
875
880
902
911
866
756
607
455
314
178
47
-68
-160
-246
-353
-488
-631
-758
-861
-955
-1057
-1172
-1288
-1383
-1447
-1473
-1466
-1428
-1365
-1295
-1233
-1184
-1154
-1152
-1184
-1202
-1090
-749
-216
309
621
679
627
623
692
737
667
458
96
-436
-1089
-1684
-2016
-2055
-2013
-2160
-2554
-2981
-3156
-2990
-2670
-2468
-2523
-2734
-2882
-2817
-2550
-2214
-1944
-1800
-1759
-1754
-1719
-1630
-1500
-1382
-1334
-1380
-1505
-1665
-1802
-1862
-1824
-1712
-1584
-1498
-1482
-1538
-1651
-1787
-1884
-1890
-1814
-1723
-1665
-1605
-1463
-1209
-898
-606
-345
-72
230
518
735
881
994
1099
1181
1233
1279
1345
1417
1451
1433
1396
1385
1400
1427
1479
1598
1786
1960
2006
1875
1625
1338
1021
614
74
-574
-1257
-1926
-2557
-3121
-3582
-3948
-4286
-4648
-4981
-5143
-5045
-4752
-4427
-4176
-3982
-3781
-3586
-3479
-3474
-3445
-3213
-2719
-2048
-1298
-455
573
1791
3045
4137
4990
5684
6310
6876
7345
7728
8091
8443
8690
8743
8621
8427
8217
7949
7582
7189
6911
6805
6788
6754
6689
6615
6466
6075
5347
4387
3416
2568
1789
971
125
-593
-1033
-1204
-1255
-1316
-1394
-1405
-1287
-1063
-800
-551
-330
-149
-41
-49
-178
-395
-651
-901
-1113
-1254
-1311
-1317
-1345
-1465
-1690
-1982
-2296
-2630
-3004
-3411
-3796
-4108
-4357
-4586
-4811
-4987
-5079
-5127
-5238
-5482
-5815
-6123
-6338
-6490
-6644
-6802
-6910
-6943
-6972
-7091
-7297
-7486
-7556
-7502
-7411
-7357
-7329
-7251
-7060
-6746
-6351
-5939
-5553
-5175
-4726
-4126
-3373
-2547
-1736
-960
-212
474
1028
1425
1728
2021
2292
2439
2407
2291
2254
2354
2483
2507
2424
2364
2398
2389
2066
1271
133
-1008
-1887
-2510
-3097
-3829
-4652
-5338
-5697
-5753
-5711
-5771
-5979
-6237
-6427
-6514
-6528
-6489
-6367
-6142
-5863
-5619
-5453
-5318
-5145
-4952
-4832
-4851
-4950
-4987
-4877
-4649
-4395
-4169
-3962
-3772
-3638
-3601
-3633
-3646
-3589
-3495
-3429
-3391
-3311
-3144
-2937
-2787
-2715
-2626
-2415
-2091
-1777
-1587
-1511
-1451
-1335
-1192
-1097
-1080
-1096
-1079
-1015
-928
-837
-721
-540
-299
-59
118
225
315
432
562
643
633
556
480
457
499
585
693
812
938
1080
1239
1386
1443
1338
1089
815
646
599
578
505
432
494
747
1087
1358
1509
1609
1730
1845
1880
1828
1779
1818
1946
2084
2179
2256
2368
2544
2750
2924
3010
2989
2884
2763
2695
2693
2701
2637
2464
2230
2015
1878
1808
1737
1585
1317
962
597
286
19
-269
-628
-1022
-1350
-1539
-1614
-1662
-1739
-1840
-1966
-2203
-2665
-3347
-4041
-4461
-4477
-4194
-3817
-3434
-2962
-2294
-1474
-721
-279
-252
-547
-977
-1395
-1763
-2109
-2439
-2689
-2788
-2732
-2605
-2503
-2458
-2463
-2503
-2577
-2675
-2764
-2819
-2840
-2839
-2795
-2667
-2450
-2198
-1988
-1868
-1834
-1848
-1879
-1924
-2038
-2314
-2813
-3483
-4161
-4666
-4907
-4919
-4795
-4604
-4356
-4027
-3607
-3142
-2722
-2428
-2263
-2160
-2039
-1879
-1733
-1650
-1607
-1550
-1456
-1364
-1328
-1345
-1336
-1200
-904
-510
-105
279
670
1065
1339
1279
759
-114
-1028
-1700
-2078
-2344
-2691
-3093
-3314
-3140
-2603
-1974
-1539
-1379
-1352
-1266
-1046
-757
-501
-304
-117
111
389
675
919
1105
1235
1314
1340
1344
1404
1589
1882
2171
2327
2315
2207
2082
1939
1719
1414
1116
934
881
854
736
502
221
-37
-276
-543
-849
-1134
-1322
-1405
-1436
-1483
-1558
-1637
-1703
-1773
-1869
-1999
-2149
-2308
-2476
-2640
-2769
-2815
-2761
-2638
-2511
-2431
-2391
-2335
-2217
-2045
-1870
-1731
-1619
-1509
-1409
-1364
-1404
-1508
-1626
-1725
-1805
-1874
-1927
-1967
-2021
-2114
-2232
-2312
-2309
-2245
-2188
-2183
-2207
-2204
-2145
-2038
-1910
-1767
-1614
-1467
-1346
-1241
-1108
-911
-660
-414
-229
-116
-26
101
288
486
621
670
687
738
805
781
582
261
-32
-214
-348
-556
-858
-1137
-1273
-1275
-1249
-1281
-1360
-1435
-1494
-1567
-1672
-1788
-1889
-1971
-2044
-2097
-2110
-2091
-2067
-2049
-2016
-1956
-1891
-1857
-1850
-1840
-1821
-1833
-1910
-2012
-2058
-2011
-1938
-1934
-2024
-2150
-2245
-2301
-2355
-2437
-2547
-2670
-2797
-2906
-2966
-2959
-2916
-2896
-2932
-3003
-3083
-3166
-3261
-3359
-3442
-3509
-3575
-3634
-3662
-3664
-3689
-3767
-3850
-3878
-3884
-3964
-4115
-4142
-3842
-3263
-2723
-2506
-2579
-2669
-2593
-2437
-2418
-2594
-2797
-2799
-2514
-2004
-1373
-692
-7
628
1160
1590
1959
2310
2629
2857
2965
3039
3243
3649
4074
4159
3670
2738
1779
1115
685
166
-646
-1584
-2267
-2476
-2335
-2159
-2165
-2336
-2509
-2533
-2364
-2048
-1655
-1241
-846
-477
-123
233
613
1021
1415
1712
1832
1779
1665
1639
1772
2007
2231
2394
2537
2702
2833
2808
2583
2274
2049
1931
1756
1360
776
222
-119
-268
-365
-494
-632
-747
-875
-1060
-1251
-1361
-1398
-1492
-1725
-2018
-2216
-2271
-2292
-2405
-2593
-2734
-2777
-2790
-2845
-2877
-2739
-2374
-1900
-1485
-1208
-1056
-1003
-1032
-1078
-1022
-826
-632
-670
-1052
-1655
-2254
-2725
-3110
-3519
-3985
-4424
-4704
-4728
-4481
-4033
-3509
-3028
-2656
-2392
-2194
-2008
-1815
-1644
-1550
-1561
-1619
-1607
-1445
-1162
-867
-669
-615
-691
-856
-1049
-1185
-1185
-1041
-820
-602
-411
-204
57
341
575
711
785
884
1061
1275
1431
1478
1461
1485
1623
1864
2133
2366
2550
2720
2917
3161
3436
3711
3964
4192
4397
4573
4721
4880
5111
5439
5794
6056
6172
6210
6274
6375
6400
6246
5935
5596
5324
5103
4862
4602
4396
4296
4250
4152
3964
3756
3618
3555
3479
3321
3092
2858
2651
2453
2232
1997
1784
1610
1453
1282
1082
877
703
590
527
458
319
107
-116
-282
-394
-510
-657
-792
-852
-840
-832
-897
-1024
-1138
-1188
-1204
-1265
-1412
-1611
-1774
-1847
-1844
-1802
-1703
-1480
-1103
-652
-241
118
525
1004
1337
1174
375
-784
-1803
-2393
-2703
-3111
-3787
-4492
-4813
-4567
-3975
-3433
-3174
-3141
-3144
-3087
-3022
-3034
-3125
-3235
-3350
-3505
-3700
-3857
-3880
-3780
-3678
-3698
-3843
-4018
-4124
-4135
-4081
-4008
-3960
-3981
-4090
-4253
-4400
-4487
-4532
-4569
-4598
-4612
-4642
-4755
-4972
-5218
-5395
-5466
-5473
-5456
-5382
-5196
-4902
-4581
-4305
-4054
-3751
-3368
-2989
-2727
-2604
-2526
-2387
-2186
-2013
-1924
-1865
-1737
-1515
-1268
-1048
-828
-559
-275
-77
-21
-37
-4
123
277
374
408
448
566
772
1027
1286
1512
1693
1843
1977
2102
2203
2267
2286
2270
2238
2216
2226
2264
2288
2247
2129
1977
1847
1753
1660
1527
1346
1130
890
622
336
58
-194
-428
-654
-866
-1034
-1141
-1209
-1278
-1359
-1434
-1495
-1571
-1697
-1872
-2057
-2221
-2369
-2531
-2719
-2905
-3057
-3168
-3264
-3373
-3502
-3639
-3770
-3895
-4021
-4145
-4242
-4285
-4267
-4216
-4164
-4113
-4037
-3920
-3788
-3693
-3659
-3655
-3635
-3590
-3548
-3537
-3547
-3538
-3483
-3390
-3288
-3207
-3159
-3133
-3097
-3019
-2897
-2767
-2670
-2608
-2539
-2427
-2283
-2154
-2071
-2031
-2006
-1991
-1993
-2017
-2050
-2082
-2120
-2185
-2283
-2403
-2526
-2643
-2756
-2870
-2983
-3096
-3213
-3322
-3399
-3421
-3386
-3319
-3257
-3217
-3186
-3137
-3058
-2982
-2957
-3000
-3068
-3097
-3063
-3001
-2944
-2860
-2671
-2334
-1888
-1395
-870
-309
202
447
223
-443
-1257
-1884
-2228
-2484
-2894
-3476
-3980
-4125
-3865
-3425
-3102
-3031
-3130
-3214
-3158
-2965
-2721
-2513
-2378
-2301
-2245
-2171
-2068
-1957
-1886
-1897
-1991
-2128
-2241
-2276
-2216
-2085
-1940
-1845
-1832
-1889
-1973
-2051
-2120
-2177
-2194
-2133
-1994
-1846
-1776
-1804
-1868
-1885
-1833
-1759
-1723
-1733
-1747
-1717
-1637
-1527
-1411
-1288
-1143
-962
-758
-566
-422
-341
-302
-274
-243
-212
-190
-174
-152
-123
-96
-72
-44
-6
39
83
123
155
172
165
144
138
168
217
244
223
175
146
157
186
198
187
181
204
234
213
107
-51
-179
-223
-220
-263
-404
-603
-772
-862
-897
-936
-1001
-1070
-1112
-1142
-1197
-1297
-1407
-1463
-1435
-1363
-1311
-1295
-1255
-1127
-923
-736
-630
-563
-442
-262
-137
-178
-337
-428
-324
-93
91
147
167
295
564
857
1052
1135
1184
1254
1317
1334
1341
1430
1651
1945
2210
2413
2629
2946
3369
3825
4218
4445
4369
3869
2970
1882
857
-27
-888
-1831
-2741
-3344
-3460
-3184
-2785
-2475
-2271
-2069
-1804
-1529
-1350
-1331
-1444
-1580
-1662
-1681
-1683
-1701
-1719
-1684
-1555
-1296
-861
-211
661
1725
2937
4250
5649
7163
8805
10467
11875
12743
13044
13074
13169
13330
13219
12566
11507
10470
9716
9113
8383
7446
6469
5602
4824
4062
3355
2820
2451
2034
1330
310
-809
-1709
-2252
-2586
-3004
-3701
-4607
-5419
-5833
-5777
-5462
-5210
-5249
-5586
-6017
-6268
-6167
-5773
-5341
-5172
-5417
-5992
-6679
-7289
-7794
-8333
-9052
-9943
-10777
-11248
-11188
-10690
-10032
-9478
-9134
-8949
-8797
-8581
-8286
-7959
-7664
-7453
-7328
-7253
-7190
-7117
-7041
-7002
-7069
-7266
-7501
-7600
-7446
-7081
-6651
-6247
-5810
-5226
-4477
-3688
-3005
-2447
-1906
-1279
-585
44
482
708
795
829
852
868
905
1035
1324
1759
2229
2603
2821
2906
2882
2721
2376
1875
1327
838
435
86
-225
-470
-632
-755
-914
-1138
-1390
-1626
-1845
-2064
-2266
-2393
-2396
-2305
-2190
-2088
-1969
-1808
-1637
-1534
-1531
-1574
-1559
-1452
-1326
-1293
-1389
-1535
-1599
-1520
-1359
-1251
-1284
-1420
-1528
-1498
-1348
-1189
-1113
-1109
-1086
-968
-750
-480
-217
-3
143
236
318
408
490
539
571
632
731
813
835
875
1077
1468
1875
2052
1913
1623
1445
1492
1650
1724
1649
1546
1586
1817
2130
2374
2485
2524
2582
2679
2763
2773
2719
2659
2636
2644
2658
2666
2675
2675
2625
2495
2286
2040
1800
1590
1401
1215
1023
827
659
550
511
509
497
462
443
482
570
658
719
787
905
1049
1145
1149
1103
1079
1092
1096
1066
1019
978
943
935
1038
1321
1726
2067
2198
2144
2029
1889
1592
1014
258
-378
-664
-656
-609
-690
-812
-759
-455
-63
174
147
-55
-271
-395
-394
-277
-95
48
42
-123
-315
-396
-372
-395
-593
-923
-1216
-1348
-1346
-1305
-1260
-1175
-1050
-984
-1097
-1383
-1688
-1848
-1846
-1822
-1914
-2115
-2284
-2317
-2255
-2232
-2330
-2498
-2610
-2591
-2473
-2357
-2319
-2359
-2405
-2396
-2347
-2358
-2532
-2876
-3283
-3614
-3794
-3840
-3801
-3708
-3551
-3310
-2980
-2594
-2225
-1960
-1848
-1846
-1863
-1847
-1828
-1866
-1968
-2083
-2159
-2206
-2277
-2402
-2561
-2721
-2876
-3033
-3183
-3276
-3259
-3122
-2914
-2703
-2527
-2380
-2246
-2123
-2024
-1961
-1932
-1941
-2006
-2128
-2282
-2432
-2567
-2708
-2868
-3013
-3095
-3105
-3087
-3065
-3010
-2880
-2684
-2482
-2319
-2176
-2005
-1800
-1614
-1502
-1464
-1452
-1433
-1410
-1397
-1390
-1367
-1322
-1267
-1209
-1138
-1043
-938
-851
-797
-748
-666
-538
-388
-255
-147
-46
72
208
345
463
547
588
578
520
432
350
301
278
262
246
244
266
300
318
300
244
158
57
-40
-112
-154
-179
-189
-167
-88
20
76
15
-149
-342
-520
-712
-961
-1243
-1473
-1594
-1641
-1695
-1790
-1884
-1924
-1920
-1929
-1986
-2060
-2100
-2095
-2076
-2068
-2059
-2031
-1993
-1980
-2015
-2087
-2162
-2221
-2255
-2240
-2157
-2005
-1808
-1578
-1304
-976
-622
-288
0
227
341
227
-213
-947
-1787
-2493
-2938
-3169
-3332
-3520
-3686
-3683
-3411
-2945
-2504
-2289
-2318
-2411
-2359
-2088
-1689
-1300
-975
-667
-306
106
485
722
757
618
400
208
95
51
29
6
-3
28
96
148
120
-7
-184
-327
-385
-374
-341
-331
-365
-441
-550
-680
-800
-884
-943
-1018
-1133
-1266
-1350
-1318
-1137
-822
-441
-92
153
314
484
698
823
629
22
-801
-1505
-1904
-2106
-2333
-2655
-2929
-2989
-2815
-2527
-2266
-2107
-2064
-2119
-2235
-2361
-2453
-2481
-2441
-2372
-2333
-2362
-2406
-2313
-1984
-1509
-1112
-948
-960
-978
-923
-885
-1009
-1348
-1838
-2358
-2788
-3037
-3075
-2955
-2772
-2588
-2381
-2112
-1820
-1608
-1543
-1604
-1717
-1818
-1870
-1839
-1699
-1473
-1230
-1019
-793
-456
11
499
874
1118
1372
1777
2320
2855
3250
3499
3696
3901
4066
4096
3953
3677
3322
2902
2407
1857
1314
828
384
-38
-418
-705
-890
-1046
-1253
-1487
-1629
-1615
-1509
-1417
-1353
-1224
-968
-664
-463
-432
-493
-518
-461
-369
-308
-290
-278
-225
-119
5
87
70
-43
-197
-331
-423
-484
-519
-519
-491
-467
-475
-508
-531
-531
-550
-651
-847
-1075
-1254
-1352
-1394
-1428
-1489
-1582
-1698
-1823
-1947
-2067
-2172
-2262
-2337
-2413
-2522
-2665
-2780
-2778
-2641
-2435
-2231
-2006
-1687
-1314
-1105
-1306
-1942
-2758
-3449
-3916
-4302
-4791
-5391
-5928
-6211
-6190
-5986
-5805
-5818
-6064
-6438
-6756
-6884
-6839
-6743
-6709
-6731
-6698
-6498
-6128
-5687
-5284
-4958
-4684
-4424
-4159
-3884
-3580
-3228
-2840
-2463
-2147
-1907
-1728
-1591
-1464
-1305
-1103
-909
-806
-833
-951
-1112
-1320
-1608
-1948
-2253
-2485
-2736
-3132
-3652
-4106
-4317
-4297
-4213
-4158
-4038
-3692
-3091
-2383
-1746
-1244
-822
-408
15
426
813
1189
1566
1949
2346
2770
3219
3655
4039
4356
4632
4905
5193
5488
5782
6087
6409
6721
6970
7126
7216
7289
7352
7369
7318
7242
7208
7229
7237
7163
7006
6835
6708
6617
6518
6387
6247
6125
6016
5911
5815
5730
5640
5504
5294
5027
4749
4489
4249
4008
3744
3444
3119
2808
2553
2356
2169
1929
1619
1281
957
652
361
96
-122
-302
-488
-690
-831
-824
-696
-623
-790
-1214
-1721
-2131
-2428
-2744
-3179
-3673
-4053
-4213
-4190
-4109
-4049
-4013
-3984
-3975
-4011
-4083
-4141
-4152
-4134
-4135
-4169
-4198
-4169
-4066
-3920
-3784
-3692
-3644
-3617
-3582
-3527
-3463
-3391
-3290
-3126
-2899
-2670
-2534
-2536
-2623
-2675
-2636
-2576
-2634
-2881
-3241
-3557
-3731
-3778
-3791
-3834
-3892
-3900
-3823
-3685
-3540
-3425
-3344
-3290
-3258
-3254
-3277
-3299
-3283
-3212
-3094
-2928
-2698
-2388
-2007
-1568
-1059
-468
112
445
284
-385
-1258
-1926
-2219
-2334
-2586
-3063
-3523
-3634
-3287
-2693
-2175
-1929
-1916
-1954
-1881
-1664
-1379
-1133
-989
-939
-925
-889
-815
-733
-696
-752
-924
-1184
-1457
-1670
-1775
-1768
-1681
-1555
-1432
-1346
-1300
-1226
-1004
-552
75
665
992
998
834
705
684
668
529
273
48
-3
139
379
605
765
862
911
925
925
934
958
982
980
941
887
860
893
968
1030
1028
966
900
877
885
873
824
774
762
779
775
741
728
788
905
1007
1064
1124
1247
1417
1541
1556
1509
1508
1610
1775
1930
2055
2188
2364
2563
2738
2875
2993
3115
3233
3320
3372
3413
3469
3535
3587
3618
3639
3670
3713
3749
3763
3760
3752
3730
3667
3535
3336
3100
2871
2671
2497
2334
2177
2030
1898
1775
1661
1561
1479
1394
1269
1084
866
678
566
517
479
418
355
339
381
439
461
435
386
328
256
156
41
-53
-104
-125
-136
-144
-144
-139
-141
-148
-153
-160
-195
-272
-366
-437
-473
-497
-536
-592
-645
-692
-758
-862
-989
-1104
-1191
-1266
-1348
-1437
-1515
-1563
-1585
-1610
-1663
-1738
-1799
-1805
-1757
-1697
-1664
-1662
-1668
-1662
-1650
-1647
-1662
-1688
-1707
-1704
-1666
-1595
-1508
-1415
-1277
-1030
-659
-242
119
428
805
1336
1883
2123
1822
1090
307
-201
-443
-690
-1152
-1747
-2183
-2241
-1971
-1625
-1426
-1429
-1532
-1598
-1556
-1425
-1272
-1165
-1133
-1150
-1159
-1115
-1023
-926
-879
-915
-1027
-1173
-1279
-1281
-1163
-977
-817
-751
-776
-844
-916
-982
-1040
-1063
-1016
-901
-785
-749
-821
-940
-1027
-1052
-1057
-1107
-1222
-1357
-1457
-1510
-1538
-1565
-1581
-1553
-1474
-1376
-1302
-1257
-1201
-1092
-941
-810
-756
-759
-728
-585
-335
-53
187
374
555
772
1032
1298
1503
1582
1513
1371
1321
1517
1959
2474
2879
3164
3495
4009
4622
5070
5172
5008
4833
4811
4884
4890
4772
4622
4554
4574
4591
4532
4396
4209
3975
3673
3299
2885
2468
2053
1624
1162
656
125
-388
-850
-1278
-1731
-2226
-2694
-3062
-3352
-3690
-4203
-4861
-5473
-5848
-5942
-5855
-5670
-5333
-4710
-3766
-2637
-1513
-473
541
1589
2617
3503
4213
4848
5530
6292
7093
7915
8774
9633
10372
10889
11202
11394
11479
11342
10884
10161
9348
8578
7825
6975
6017
5072
4271
3653
3136
2611
2049
1522
1118
842
576
170
-409
-1014
-1455
-1670
-1792
-2011
-2375
-2731
-2888
-2813
-2659
-2594
-2636
-2670
-2615
-2517
-2482
-2546
-2632
-2642
-2567
-2476
-2424
-2393
-2327
-2222
-2135
-2129
-2212
-2337
-2456
-2556
-2641
-2696
-2696
-2634
-2532
-2402
-2235
-2024
-1828
-1778
-2006
-2545
-3276
-3999
-4562
-4947
-5232
-5475
-5627
-5568
-5263
-4847
-4546
-4495
-4632
-4780
-4828
-4818
-4860
-4980
-5087
-5059
-4854
-4532
-4204
-3945
-3771
-3651
-3558
-3484
-3437
-3405
-3342
-3201
-2979
-2719
-2470
-2241
-2012
-1781
-1580
-1432
-1320
-1206
-1076
-962
-886
-817
-698
-511
-303
-135
-14
97
223
337
403
420
410
382
323
246
200
216
260
260
187
99
86
182
340
489
593
671
776
942
1158
1357
1454
1427
1338
1287
1324
1405
1460
1478
1511
1590
1679
1712
1672
1597
1527
1446
1321
1160
1018
928
859
767
676
654
725
813
831
798
830
1001
1237
1385
1384
1325
1346
1477
1629
1716
1757
1828
1970
2145
2311
2464
2623
2774
2873
2884
2827
2747
2662
2567
2463
2371
2304
2246
2167
2064
1957
1841
1684
1466
1230
1060
1003
1016
1017
973
912
878
869
845
788
718
664
620
565
500
467
517
659
828
944
982
993
1034
1097
1113
1026
864
708
603
525
436
347
287
242
144
-36
-223
-286
-190
-39
25
-19
-48
63
288
464
458
297
117
17
-33
-103
-197
-254
-240
-193
-154
-97
42
252
430
494
499
560
730
959
1199
1483
1864
2315
2736
3073
3359
3606
3698
3445
2783
1893
1077
525
185
-125
-509
-881
-1051
-904
-523
-126
90
75
-73
-212
-243
-147
33
218
338
383
413
488
609
721
757
679
491
252
66
21
117
250
317
309
276
213
69
-118
-163
95
569
958
1031
844
620
453
217
-248
-906
-1571
-2093
-2474
-2761
-2933
-2923
-2732
-2460
-2222
-2050
-1903
-1742
-1580
-1456
-1397
-1395
-1400
-1349
-1210
-1016
-836
-726
-677
-641
-589
-535
-504
-494
-480
-448
-407
-370
-341
-313
-282
-241
-177
-74
66
211
319
362
351
317
282
237
160
45
-81
-174
-203
-174
-118
-55
23
141
316
527
715
803
749
576
354
143
-47
-239
-437
-600
-683
-684
-640
-587
-534
-486
-464
-494
-576
-676
-765
-845
-931
-1013
-1054
-1038
-997
-981
-1012
-1071
-1132
-1186
-1235
-1262
-1236
-1146
-1022
-901
-788
-665
-526
-388
-274
-181
-94
-8
67
118
151
178
200
215
219
209
175
115
45
-2
0
49
122
198
272
352
452
581
740
906
1047
1158
1268
1402
1537
1618
1613
1550
1477
1398
1278
1099
898
737
646
611
609
627
667
719
762
782
783
771
731
655
542
401
253
126
40
-5
-15
21
141
371
713
1158
1706
2306
2784
2868
2386
1451
410
-438
-1083
-1744
-2580
-3473
-4105
-4242
-3938
-3486
-3191
-3159
-3255
-3258
-3069
-2787
-2584
-2505
-2459
-2353
-2202
-2085
-2024
-1957
-1866
-1844
-1980
-2220
-2364
-2237
-1811
-1155
-348
509
1210
1485
1191
469
-355
-1034
-1593
-2239
-3082
-3961
-4545
-4606
-4204
-3625
-3152
-2898
-2798
-2725
-2593
-2376
-2099
-1834
-1653
-1538
-1350
-924
-243
509
1096
1429
1612
1817
2123
2507
2908
3277
3572
3742
3754
3626
3406
3123
2774
2370
1973
1663
1474
1372
1302
1235
1183
1163
1160
1153
1146
1174
1275
1442
1644
1864
2092
2322
2507
2589
2573
2516
2467
2407
2299
2180
2146
2262
2495
2752
2977
3170
3338
3446
3456
3367
3216
3042
2874
2747
2686
2673
2654
2600
2542
2508
2452
2272
1923
1482
1072
738
416
38
-384
-760
-1041
-1292
-1612
-2018
-2417
-2714
-2916
-3112
-3354
-3571
-3637
-3508
-3276
-3068
-2927
-2812
-2678
-2539
-2439
-2396
-2398
-2434
-2498
-2573
-2639
-2688
-2729
-2759
-2754
-2706
-2653
-2644
-2681
-2711
-2700
-2683
-2740
-2909
-3150
-3380
-3540
-3625
-3674
-3733
-3811
-3861
-3819
-3666
-3456
-3269
-3145
-3062
-2978
-2877
-2778
-2710
-2680
-2669
-2630
-2517
-2342
-2200
-2184
-2246
-2191
-1852
-1302
-843
-745
-999
-1347
-1549
-1587
-1592
-1640
-1657
-1514
-1135
-496
416
1523
2550
3106
2977
2359
1728
1428
1379
1244
848
388
246
613
1329
2054
2545
2774
2862
2939
3079
3292
3552
3822
4067
4260
4404
4526
4642
4731
4732
4601
4370
4142
3998
3932
3883
3822
3774
3760
3723
3570
3291
2994
2815
2792
2834
2820
2703
2535
2389
2295
2232
2162
2065
1946
1824
1729
1670
1634
1604
1568
1542
1541
1562
1587
1587
1530
1404
1250
1139
1116
1136
1086
902
671
545
573
636
551
278
-57
-307
-456
-593
-776
-959
-1067
-1099
-1125
-1193
-1279
-1344
-1389
-1465
-1605
-1789
-1970
-2110
-2201
-2252
-2294
-2361
-2461
-2548
-2565
-2508
-2441
-2427
-2447
-2416
-2293
-2152
-2112
-2218
-2389
-2515
-2561
-2583
-2643
-2732
-2792
-2781
-2708
-2620
-2556
-2522
-2513
-2526
-2567
-2631
-2699
-2754
-2803
-2881
-3005
-3127
-3164
-3084
-2966
-2948
-3077
-3243
-3270
-3096
-2853
-2745
-2870
-3164
-3488
-3753
-3948
-4080
-4142
-4129
-4043
-3853
-3488
-2910
-2207
-1570
-1134
-849
-562
-190
200
502
704
914
1221
1601
1965
2272
2558
2865
3164
3380
3470
3462
3419
3378
3326
3231
3071
2863
2640
2414
2166
1871
1546
1254
1057
950
862
735
583
477
460
492
484
403
315
305
366
390
286
89
-49
-25
113
247
348
514
833
1264
1685
2067
2511
3063
3532
3579
3044
2153
1355
908
672
309
-316
-984
-1335
-1219
-815
-445
-313
-403
-572
-690
-712
-661
-586
-535
-525
-533
-503
-396
-227
-57
50
64
2
-85
-144
-128
-16
170
375
529
591
577
550
568
642
739
821
878
918
941
932
885
819
775
780
825
882
924
946
947
928
884
829
791
792
823
851
855
847
853
882
910
913
903
916
971
1047
1105
1130
1142
1179
1246
1306
1310
1237
1108
959
809
653
481
284
63
-172
-396
-573
-675
-714
-732
-763
-810
-852
-881
-907
-946
-1008
-1092
-1193
-1296
-1375
-1408
-1397
-1366
-1332
-1295
-1247
-1192
-1152
-1151
-1185
-1229
-1263
-1284
-1303
-1323
-1329
-1308
-1263
-1219
-1193
-1180
-1158
-1117
-1070
-1033
-1007
-982
-956
-937
-937
-943
-933
-899
-858
-836
-842
-854
-836
-769
-665
-558
-473
-407
-340
-260
-182
-131
-115
-113
-101
-73
-42
-19
-1
30
82
152
228
300
357
386
385
370
374
409
451
462
427
364
298
227
129
1
-124
-222
-303
-406
-539
-672
-771
-830
-875
-927
-993
-1077
-1188
-1331
-1492
-1638
-1753
-1845
-1939
-2039
-2119
-2145
-2113
-2049
-1982
-1906
-1795
-1650
-1512
-1410
-1298
-1082
-738
-345
14
356
762
1196
1428
1213
556
-233
-805
-1088
-1307
-1696
-2236
-2669
-2758
-2509
-2131
-1865
-1816
-1922
-2044
-2059
-1939
-1749
-1587
-1495
-1420
-1274
-1035
-771
-566
-441
-350
-260
-184
-130
-58
101
371
686
951
1147
1334
1582
1879
2149
2344
2513
2749
3078
3398
3562
3523
3388
3314
3362
3464
3545
3620
3761
3973
4142
4149
3980
3728
3469
3172
2749
2160
1463
765
153
-334
-707
-997
-1242
-1462
-1650
-1805
-1946
-2100
-2268
-2433
-2587
-2761
-2978
-3201
-3353
-3412
-3442
-3513
-3602
-3595
-3411
-3078
-2668
-2187
-1550
-677
417
1627
2839
3975
4988
5836
6474
6864
6977
6815
6425
5897
5308
4690
4066
3489
3026
2704
2480
2284
2083
1871
1656
1447
1275
1155
1046
852
526
137
-190
-412
-603
-853
-1161
-1443
-1633
-1726
-1749
-1717
-1634
-1511
-1355
-1162
-921
-655
-404
-182
42
303
593
861
1068
1216
1304
1303
1163
877
494
84
-325
-755
-1224
-1701
-2101
-2359
-2487
-2566
-2670
-2813
-2959
-3094
-3250
-3472
-3774
-4121
-4469
-4797
-5102
-5376
-5605
-5777
-5893
-5951
-5944
-5879
-5785
-5686
-5573
-5404
-5150
-4834
-4511
-4204
-3882
-3507
-3095
-2704
-2360
-2008
-1574
-1059
-563
-188
56
242
438
632
781
886
988
1107
1199
1223
1220
1295
1516
1838
2161
2430
2639
2746
2626
2180
1475
746
190
-213
-651
-1235
-1852
-2278
-2414
-2379
-2386
-2552
-2853
-3205
-3545
-3836
-4059
-4226
-4369
-4495
-4559
-4497
-4304
-4042
-3780
-3541
-3311
-3096
-2928
-2823
-2741
-2617
-2414
-2161
-1926
-1774
-1719
-1706
-1648
-1493
-1269
-1058
-926
-875
-858
-836
-803
-757
-681
-547
-343
-93
145
309
379
381
367
371
373
329
223
95
16
31
127
243
305
283
213
172
211
300
353
314
208
113
78
78
56
-1
-56
-65
-36
-6
3
7
29
75
139
220
311
396
445
456
465
509
587
659
682
648
575
486
404
364
396
487
587
652
686
722
769
788
725
554
299
6
-258
-411
-396
-229
2
219
417
645
923
1180
1306
1247
1048
823
674
619
599
544
455
409
474
624
752
771
697
603
521
413
254
99
34
66
98
43
-78
-168
-175
-155
-199
-322
-448
-505
-505
-516
-583
-681
-747
-747
-700
-652
-643
-674
-724
-759
-761
-754
-787
-892
-1042
-1164
-1205
-1192
-1214
-1336
-1531
-1714
-1830
-1917
-2064
-2305
-2581
-2794
-2906
-2964
-3041
-3134
-3185
-3158
-3102
-3105
-3197
-3333
-3450
-3545
-3660
-3811
-3943
-3982
-3901
-3726
-3486
-3182
-2810
-2391
-1944
-1473
-996
-629
-567
-940
-1652
-2411
-2963
-3301
-3612
-4010
-4361
-4401
-4018
-3388
-2817
-2476
-2317
-2204
-2079
-1984
-1956
-1968
-1962
-1917
-1838
-1698
-1451
-1097
-723
-446
-308
-245
-149
48
339
676
1012
1311
1553
1731
1847
1912
1929
1915
1900
1913
1953
1981
1967
1921
1881
1876
1894
1896
1857
1790
1721
1665
1618
1568
1511
1454
1411
1391
1389
1391
1382
1362
1336
1306
1252
1160
1026
869
705
538
372
211
56
-104
-279
-456
-609
-726
-832
-971
-1151
-1326
-1438
-1478
-1482
-1484
-1492
-1488
-1482
-1511
-1610
-1771
-1945
-2078
-2154
-2186
-2186
-2139
-2015
-1796
-1504
-1203
-952
-766
-618
-487
-392
-377
-449
-548
-592
-550
-464
-395
-356
-305
-205
-79
17
55
70
115
207
313
402
473
553
650
744
807
837
850
856
842
797
734
683
662
667
673
663
640
616
598
586
574
562
556
545
513
453
385
344
350
385
411
412
406
427
493
592
709
844
1002
1163
1282
1321
1276
1170
1025
842
628
413
240
120
19
-88
-198
-292
-366
-431
-491
-556
-648
-782
-923
-982
-865
-531
-13
603
1177
1531
1530
1201
722
238
-303
-1061
-2058
-3029
-3607
-3654
-3351
-2965
-2594
-2156
-1585
-951
-378
108
554
940
1093
833
192
-524
-940
-917
-669
-551
-719
-994
-1049
-713
-90
577
1079
1342
1417
1431
1526
1760
2027
2114
1870
1355
795
395
193
56
-186
-587
-1027
-1255
-1081
-528
167
738
1085
1306
1525
1754
1907
1925
1862
1826
1858
1912
1919
1860
1775
1729
1737
1761
1751
1709
1695
1737
1772
1716
1573
1444
1422
1506
1615
1680
1699
1679
1628
1587
1637
1826
2068
2194
2139
2048
2129
2412
2705
2792
2657
2458
2330
2263
2162
1976
1733
1471
1209
975
801
681
552
347
58
-269
-596
-918
-1214
-1456
-1651
-1857
-2111
-2366
-2529
-2584
-2632
-2781
-3022
-3235
-3333
-3352
-3397
-3507
-3640
-3736
-3794
-3853
-3926
-3968
-3922
-3800
-3684
-3639
-3649
-3628
-3523
-3374
-3261
-3193
-3100
-2917
-2669
-2418
-2149
-1769
-1249
-735
-481
-625
-1072
-1583
-1982
-2265
-2523
-2797
-3010
-3027
-2772
-2294
-1735
-1240
-891
-688
-571
-488
-422
-395
-411
-438
-420
-323
-168
-6
138
286
460
640
775
850
918
1049
1250
1462
1614
1691
1741
1805
1879
1936
1972
2020
2121
2265
2397
2477
2519
2576
2670
2765
2812
2820
2850
2938
3041
3083
3052
3012
3013
3028
3002
2927
2851
2800
2744
2643
2523
2448
2425
2400
2353
2363
2531
2841
3166
3420
3664
3975
4237
4142
3475
2382
1296
564
148
-264
-884
-1586
-2039
-2032
-1666
-1249
-1034
-1068
-1228
-1359
-1378
-1292
-1158
-1038
-979
-995
-1045
-1070
-1038
-978
-961
-1056
-1274
-1558
-1821
-1983
-2015
-1963
-1914
-1947
-2081
-2278
-2482
-2660
-2790
-2855
-2857
-2842
-2868
-2948
-3026
-3043
-3014
-3025
-3113
-3213
-3232
-3173
-3141
-3215
-3332
-3353
-3236
-3095
-3071
-3155
-3188
-3041
-2773
-2584
-2631
-2874
-3127
-3236
-3206
-3177
-3274
-3482
-3656
-3655
-3468
-3220
-3047
-2984
-2952
-2872
-2755
-2677
-2691
-2762
-2813
-2823
-2844
-2926
-3052
-3139
-3115
-2998
-2898
-2917
-3055
-3213
-3297
-3347
-3493
-3797
-4133
-4281
-4146
-3862
-3634
-3509
-3325
-2923
-2346
-1820
-1541
-1525
-1648
-1785
-1862
-1843
-1715
-1511
-1294
-1105
-906
-619
-218
226
590
798
869
901
1009
1247
1560
1823
1950
1967
1981
2062
2173
2215
2152
2064
2074
2217
2397
2486
2458
2412
2447
2538
2575
2490
2347
2261
2250
2227
2120
1987
1953
2053
2162
2125
1929
1714
1609
1594
1531
1327
1032
765
588
465
344
220
117
27
-89
-237
-370
-450
-517
-647
-873
-1139
-1351
-1463
-1491
-1485
-1482
-1486
-1485
-1465
-1428
-1389
-1371
-1376
-1384
-1369
-1336
-1317
-1322
-1325
-1295
-1219
-1122
-1022
-903
-717
-424
-26
434
921
1453
2062
2677
3064
2949
2277
1321
496
-6
-364
-893
-1664
-2389
-2698
-2491
-2024
-1651
-1543
-1617
-1688
-1638
-1468
-1246
-1041
-884
-773
-675
-550
-396
-253
-177
-200
-316
-488
-661
-777
-795
-706
-540
-360
-240
-216
-265
-309
-283
-188
-91
-49
-56
-65
-56
-63
-121
-210
-277
-301
-313
-354
-424
-503
-586
-698
-839
-964
-1025
-1021
-996
-986
-992
-995
-998
-1012
-1040
-1073
-1109
-1154
-1205
-1242
-1247
-1219
-1175
-1129
-1085
-1040
-998
-966
-945
-932
-933
-948
-969
-981
-972
-952
-939
-946
-969
-1002
-1038
-1076
-1108
-1119
-1103
-1078
-1080
-1127
-1204
-1267
-1288
-1281
-1284
-1319
-1363
-1378
-1347
-1288
-1231
-1186
-1143
-1093
-1046
-1026
-1038
-1066
-1081
-1073
-1058
-1061
-1083
-1113
-1136
-1149
-1157
-1154
-1144
-1141
-1162
-1195
-1208
-1183
-1149
-1146
-1176
-1199
-1179
-1130
-1094
-1088
-1081
-1036
-950
-856
-789
-751
-727
-711
-711
-725
-736
-726
-696
-662
-635
-614
-591
-575
-573
-579
-576
-558
-542
-549
-583
-618
-629
-603
-552
-504
-492
-543
-653
-783
-893
-977
-1057
-1157
-1270
-1374
-1458
-1535
-1614
-1685
-1728
-1745
-1765
-1811
-1882
-1948
-1979
-1982
-1991
-2035
-2093
-2126
-2135
-2173
-2289
-2439
-2514
-2462
-2355
-2304
-2297
-2205
-1936
-1548
-1163
-812
-438
-70
84
-191
-854
-1582
-2059
-2262
-2439
-2792
-3244
-3508
-3381
-2943
-2484
-2242
-2231
-2285
-2232
-2034
-1773
-1526
-1303
-1074
-841
-623
-416
-183
56
201
154
-39
-194
-165
16
202
320
410
499
508
359
152
135
471
1043
1564
1822
1796
1546
1068
319
-686
-1832
-2995
-4102
-5084
-5820
-6181
-6140
-5834
-5491
-5312
-5364
-5562
-5736
-5722
-5470
-5063
-4623
-4166
-3568
-2682
-1490
-161
1059
2012
2706
3266
3793
4316
4840
5441
6220
7169
8085
8671
8801
8628
8427
8291
8062
7578
6898
6248
5769
5380
4955
4547
4342
4380
4431
4230
3764
3270
2933
2692
2361
1908
1502
1287
1191
1014
660
254
-14
-97
-136
-286
-547
-747
-715
-443
-73
204
290
204
42
-107
-214
-312
-444
-635
-862
-1084
-1291
-1500
-1699
-1832
-1854
-1803
-1781
-1841
-1936
-1967
-1890
-1751
-1634
-1603
-1707
-1985
-2431
-2956
-3428
-3787
-4090
-4423
-4784
-5058
-5127
-4994
-4774
-4587
-4467
-4376
-4272
-4151
-4016
-3848
-3621
-3365
-3169
-3085
-3047
-2930
-2687
-2417
-2244
-2173
-2102
-1987
-1919
-1983
-2069
-1935
-1494
-980
-762
-982
-1431
-1799
-1997
-2200
-2603
-3200
-3805
-4215
-4332
-4167
-3814
-3401
-3045
-2794
-2610
-2443
-2288
-2167
-2100
-2088
-2133
-2211
-2222
-2028
-1588
-1020
-495
-71
302
612
697
409
-131
-570
-648
-492
-488
-866
-1444
-1825
-1797
-1532
-1383
-1542
-1897
-2181
-2212
-2002
-1684
-1383
-1136
-922
-711
-491
-272
-83
39
47
-68
-254
-410
-467
-426
-342
-259
-180
-94
-23
-14
-82
-160
-138
42
306
504
541
478
462
568
721
783
720
648
695
855
988
985
887
832
900
1034
1113
1072
948
826
751
700
630
528
419
336
290
277
287
312
347
378
383
338
226
63
-97
-181
-154
-54
36
76
113
230
452
703
873
914
864
804
781
779
748
648
491
341
266
280
343
398
424
448
500
593
718
870
1036
1179
1272
1313
1342
1404
1509
1629
1722
1765
1762
1734
1712
1712
1722
1705
1630
1514
1416
1384
1396
1383
1300
1173
1058
968
849
662
439
270
217
263
354
464
605
789
980
1116
1150
1087
970
857
785
747
713
658
596
568
589
620
597
492
340
200
114
76
58
47
40
33
5
-76
-233
-462
-737
-1024
-1306
-1588
-1875
-2148
-2360
-2471
-2500
-2539
-2676
-2891
-3055
-3047
-2892
-2748
-2741
-2816
-2805
-2612
-2324
-2114
-2061
-2099
-2120
-2089
-2046
-2026
-2021
-2013
-1994
-1935
-1769
-1444
-968
-412
158
703
1169
1429
1342
882
197
-478
-986
-1339
-1638
-1937
-2154
-2122
-1757
-1154
-553
-170
-58
-95
-114
-40
89
205
288
373
492
636
761
834
854
842
818
781
730
681
676
750
893
1043
1125
1109
1013
884
766
687
662
686
721
724
680
613
550
486
398
291
205
174
182
176
132
80
58
61
44
-12
-72
-97
-102
-135
-214
-289
-305
-269
-245
-277
-346
-399
-419
-436
-485
-564
-652
-738
-831
-931
-1016
-1061
-1057
-1004
-894
-728
-532
-352
-219
-130
-73
-56
-94
-171
-240
-260
-244
-232
-238
-223
-134
37
235
379
410
320
158
-8
-129
-207
-266
-311
-308
-222
-65
110
250
332
370
394
420
425
373
270
203
277
511
835
1220
1779
2615
3568
4190
4104
3371
2444
1699
1080
272
-837
-1939
-2585
-2597
-2177
-1665
-1268
-1007
-830
-703
-618
-584
-635
-803
-1046
-1248
-1304
-1219
-1087
-1010
-1031
-1153
-1384
-1734
-2176
-2622
-2956
-3108
-3112
-3085
-3143
-3287
-3402
-3373
-3218
-3076
-3048
-3075
-3016
-2833
-2652
-2629
-2761
-2908
-2953
-2913
-2865
-2819
-2711
-2504
-2253
-2068
-1977
-1928
-1869
-1801
-1763
-1778
-1834
-1875
-1831
-1659
-1393
-1157
-1045
-988
-785
-300
363
968
1411
1838
2446
3154
3582
3394
2638
1720
1030
618
247
-295
-963
-1501
-1679
-1483
-1107
-811
-735
-834
-936
-901
-722
-503
-361
-331
-357
-346
-241
-77
57
78
-21
-159
-246
-242
-181
-108
-35
38
96
104
28
-117
-256
-296
-184
49
300
471
536
556
610
728
851
891
799
646
575
663
822
872
732
532
495
670
833
700
233
-298
-601
-659
-730
-1039
-1555
-2071
-2453
-2753
-3083
-3441
-3729
-3900
-4031
-4214
-4417
-4503
-4396
-4185
-4049
-4083
-4226
-4350
-4393
-4380
-4367
-4369
-4366
-4339
-4282
-4180
-4006
-3759
-3481
-3234
-3058
-2944
-2850
-2736
-2588
-2423
-2265
-2125
-1997
-1869
-1735
-1599
-1464
-1330
-1193
-1049
-902
-764
-647
-549
-456
-342
-192
-20
134
230
253
228
192
145
47
-148
-441
-782
-1109
-1389
-1615
-1800
-1975
-2200
-2520
-2907
-3241
-3390
-3328
-3158
-2998
-2858
-2631
-2219
-1636
-1019
-510
-158
90
312
553
811
1080
1364
1676
2009
2356
2732
3167
3661
4155
4561
4834
5014
5179
5360
5529
5646
5715
5768
5808
5801
5723
5594
5458
5321
5155
4948
4741
4588
4491
4389
4219
3981
3732
3529
3388
3271
3122
2908
2651
2414
2246
2132
2008
1825
1610
1433
1313
1219
1134
1107
1195
1380
1590
1809
2106
2496
2781
2636
1906
822
-159
-758
-1100
-1539
-2237
-2981
-3389
-3283
-2854
-2463
-2328
-2406
-2526
-2574
-2544
-2476
-2386
-2291
-2230
-2237
-2286
-2306
-2251
-2159
-2116
-2183
-2346
-2526
-2645
-2665
-2592
-2468
-2341
-2254
-2223
-2246
-2301
-2354
-2359
-2288
-2152
-2006
-1909
-1889
-1923
-1956
-1949
-1902
-1841
-1792
-1759
-1737
-1722
-1725
-1757
-1811
-1875
-1941
-2006
-2073
-2133
-2177
-2215
-2264
-2324
-2381
-2432
-2506
-2647
-2871
-3145
-3411
-3635
-3819
-3974
-4093
-4150
-4143
-4103
-4075
-4074
-4076
-4059
-4043
-4072
-4149
-4218
-4226
-4185
-4153
-4156
-4151
-4121
-4140
-4323
-4670
-5012
-5135
-4989
-4707
-4425
-4117
-3645
-2945
-2135
-1399
-817
-323
167
643
1026
1284
1478
1695
1937
2129
2209
2201
2178
2187
2207
2195
2137
2064
2004
1964
1925
1889
1853
1791
1668
1478
1265
1093
978
886
785
693
650
668
697
686
635
599
613
663
699
684
619
531
450
400
384
382
366
343
354
437
581
720
796
808
785
750
692
596
481
374
273
154
7
-132
-219
-239
-230
-235
-277
-347
-435
-535
-637
-725
-785
-827
-860
-877
-851
-765
-625
-455
-279
-112
35
159
259
337
391
414
411
413
447
510
594
726
967
1348
1826
2339
2894
3540
4196
4572
4361
3560
2551
1784
1355
951
245
-702
-1463
-1672
-1368
-920
-666
-671
-783
-844
-806
-703
-586
-500
-475
-506
-540
-520
-444
-365
-337
-382
-495
-662
-846
-984
-1016
-943
-838
-791
-845
-975
-1126
-1243
-1291
-1254
-1142
-1001
-882
-811
-775
-746
-714
-686
-669
-662
-655
-642
-627
-615
-613
-617
-621
-617
-604
-600
-621
-666
-718
-760
-793
-833
-892
-953
-993
-1004
-999
-1004
-1031
-1069
-1102
-1127
-1153
-1194
-1244
-1282
-1280
-1236
-1175
-1127
-1097
-1066
-1015
-955
-914
-904
-903
-884
-850
-832
-842
-854
-829
-764
-694
-653
-636
-615
-574
-526
-487
-451
-399
-321
-229
-147
-85
-39
-4
20
32
34
26
-4
-70
-168
-279
-375
-449
-522
-619
-733
-834
-900
-947
-1002
-1071
-1128
-1153
-1162
-1195
-1261
-1328
-1357
-1345
-1331
-1346
-1379
-1402
-1409
-1422
-1457
-1500
-1519
-1507
-1484
-1470
-1469
-1471
-1467
-1452
-1406
-1317
-1203
-1102
-1048
-1024
-992
-933
-872
-838
-834
-840
-851
-881
-936
-997
-1040
-1064
-1097
-1155
-1231
-1313
-1399
-1486
-1556
-1578
-1545
-1482
-1420
-1365
-1306
-1238
-1175
-1116
-1046
-967
-899
-852
-799
-704
-587
-520
-563
-680
-786
-834
-839
-819
-759
-643
-507
-395
-274
-52
243
351
-60
-1073
-2356
-3397
-3944
-4182
-4507
-5099
-5741
-6041
-5806
-5213
-4638
-4342
-4317
-4364
-4294
-4053
-3704
-3338
-3013
-2756
-2573
-2449
-2358
-2265
-2188
-2173
-2224
-2267
-2194
-1959
-1577
-1034
-257
784
1941
2979
3825
4658
5652
6676
7358
7486
7274
7101
7049
6817
6130
5139
4305
3924
3871
3825
3635
3377
3122
2774
2187
1371
497
-299
-1072
-1961
-2987
-3971
-4657
-4926
-4879
-4728
-4621
-4564
-4492
-4371
-4216
-4050
-3870
-3674
-3496
-3374
-3276
-3110
-2802
-2390
-1995
-1721
-1568
-1461
-1329
-1164
-1007
-893
-816
-732
-595
-383
-111
186
461
675
821
931
1066
1253
1460
1632
1763
1904
2092
2277
2359
2309
2195
2091
1959
1681
1205
628
109
-280
-596
-932
-1310
-1681
-1984
-2189
-2290
-2300
-2259
-2226
-2240
-2294
-2349
-2382
-2400
-2434
-2503
-2591
-2670
-2717
-2737
-2746
-2747
-2730
-2691
-2644
-2617
-2628
-2679
-2753
-2816
-2829
-2774
-2683
-2603
-2541
-2451
-2286
-2078
-1915
-1831
-1763
-1642
-1507
-1460
-1506
-1502
-1307
-966
-689
-647
-816
-1048
-1254
-1481
-1812
-2244
-2695
-3082
-3360
-3501
-3480
-3315
-3091
-2911
-2814
-2746
-2649
-2524
-2430
-2405
-2423
-2434
-2419
-2387
-2334
-2226
-2053
-1868
-1754
-1747
-1799
-1818
-1743
-1600
-1459
-1365
-1278
-1102
-790
-437
-266
-472
-1040
-1718
-2210
-2425
-2535
-2785
-3231
-3672
-3836
-3629
-3219
-2882
-2777
-2859
-2967
-2981
-2893
-2767
-2649
-2539
-2423
-2298
-2174
-2053
-1927
-1803
-1722
-1730
-1829
-1952
-1997
-1893
-1650
-1354
-1098
-934
-852
-819
-804
-788
-763
-723
-667
-598
-531
-485
-466
-460
-436
-377
-291
-218
-194
-218
-252
-268
-276
-311
-377
-431
-432
-399
-404
-496
-635
-718
-685
-596
-589
-760
-1068
-1369
-1526
-1518
-1449
-1445
-1535
-1623
-1579
-1362
-1074
-868
-825
-894
-965
-983
-972
-979
-1016
-1057
-1077
-1070
-1037
-972
-883
-810
-794
-836
-888
-892
-818
-665
-445
-178
102
332
441
399
221
-54
-390
-769
-1162
-1520
-1784
-1917
-1936
-1894
-1842
-1799
-1758
-1727
-1744
-1844
-2006
-2144
-2179
-2119
-2052
-2038
-2050
-2002
-1854
-1666
-1518
-1412
-1290
-1134
-1006
-967
-963
-873
-678
-529
-616
-952
-1345
-1588
-1657
-1695
-1829
-2044
-2231
-2312
-2300
-2260
-2248
-2296
-2402
-2524
-2600
-2595
-2543
-2511
-2537
-2585
-2608
-2592
-2568
-2568
-2596
-2643
-2699
-2757
-2806
-2849
-2897
-2949
-2976
-2929
-2793
-2592
-2368
-2145
-1937
-1766
-1645
-1559
-1470
-1383
-1352
-1423
-1561
-1668
-1674
-1598
-1505
-1433
-1368
-1284
-1164
-971
-673
-285
120
472
783
1104
1420
1586
1434
940
268
-354
-815
-1183
-1594
-2092
-2557
-2808
-2770
-2556
-2389
-2416
-2602
-2769
-2766
-2592
-2384
-2287
-2342
-2483
-2609
-2684
-2742
-2834
-2976
-3140
-3298
-3437
-3539
-3573
-3510
-3378
-3260
-3232
-3299
-3398
-3473
-3511
-3529
-3515
-3425
-3233
-2976
-2735
-2571
-2484
-2440
-2412
-2407
-2440
-2501
-2572
-2642
-2725
-2830
-2937
-3017
-3058
-3080
-3107
-3144
-3165
-3141
-3060
-2938
-2807
-2697
-2618
-2548
-2464
-2365
-2278
-2230
-2208
-2169
-2088
-1989
-1912
-1861
-1792
-1671
-1533
-1460
-1484
-1545
-1543
-1445
-1325
-1277
-1314
-1354
-1314
-1206
-1107
-1075
-1088
-1089
-1051
-987
-917
-835
-746
-671
-633
-619
-597
-560
-538
-562
-620
-663
-664
-642
-621
-598
-554
-501
-488
-539
-597
-572
-443
-298
-241
-257
-223
-56
161
240
82
-230
-526
-721
-863
-1040
-1251
-1424
-1511
-1530
-1529
-1519
-1493
-1446
-1400
-1386
-1445
-1616
-1883
-2132
-2235
-2216
-2258
-2519
-2916
-3189
-3192
-3065
-3051
-3183
-3245
-3058
-2717
-2481
-2443
-2439
-2276
-1991
-1790
-1778
-1828
-1739
-1478
-1215
-1128
-1233
-1410
-1542
-1625
-1712
-1831
-1941
-1983
-1924
-1765
-1510
-1147
-708
-271
72
319
563
859
1135
1262
1211
1086
979
862
685
542
623
984
1443
1772
1986
2319
2886
3426
3482
2852
1794
803
186
-132
-412
-801
-1201
-1381
-1193
-705
-173
149
163
-18
-198
-261
-223
-165
-127
-93
-40
35
131
257
415
571
673
703
708
763
907
1115
1323
1471
1518
1451
1280
1059
851
685
547
410
267
124
-35
-234
-462
-666
-806
-903
-1010
-1130
-1218
-1251
-1279
-1372
-1522
-1639
-1654
-1605
-1590
-1664
-1779
-1851
-1851
-1831
-1858
-1943
-2055
-2164
-2272
-2395
-2531
-2644
-2699
-2695
-2685
-2734
-2851
-2988
-3087
-3147
-3227
-3375
-3565
-3718
-3783
-3784
-3773
-3758
-3692
-3553
-3392
-3287
-3240
-3164
-2986
-2748
-2561
-2472
-2402
-2239
-1959
-1643
-1380
-1175
-988
-797
-624
-497
-416
-370
-355
-375
-415
-448
-462
-462
-457
-438
-395
-330
-258
-191
-131
-76
-40
-49
-127
-276
-455
-608
-704
-762
-825
-906
-968
-960
-876
-771
-694
-636
-554
-438
-332
-281
-270
-244
-170
-71
12
70
133
217
294
338
363
419
520
615
646
616
585
592
607
570
475
377
329
316
276
175
40
-76
-157
-235
-345
-485
-619
-718
-779
-817
-843
-854
-844
-823
-806
-808
-833
-877
-925
-966
-1003
-1056
-1142
-1255
-1361
-1434
-1465
-1439
-1325
-1107
-824
-548
-306
-31
325
640
623
47
-999
-2132
-2990
-3532
-4007
-4649
-5409
-6001
-6184
-5976
-5625
-5398
-5396
-5529
-5633
-5599
-5440
-5244
-5100
-5034
-5014
-4990
-4930
-4839
-4739
-4672
-4680
-4776
-4922
-5049
-5087
-5008
-4842
-4670
-4574
-4587
-4675
-4763
-4803
-4798
-4768
-4713
-4635
-4565
-4570
-4671
-4787
-4793
-4634
-4361
-4046
-3692
-3248
-2705
-2139
-1642
-1241
-906
-615
-391
-261
-206
-177
-129
-50
50
155
248
333
436
585
763
915
1002
1057
1148
1300
1468
1581
1624
1645
1696
1782
1867
1918
1940
1965
2031
2144
2258
2311
2274
2190
2131
2125
2132
2108
2073
2093
2203
2359
2493
2578
2646
2734
2830
2897
2911
2877
2809
2714
2595
2477
2387
2325
2267
2180
2064
1942
1837
1736
1615
1471
1333
1235
1163
1078
965
865
833
871
909
889
826
793
833
911
959
958
955
995
1057
1073
999
860
721
620
543
453
335
214
126
86
70
40
-24
-101
-161
-200
-251
-349
-493
-650
-791
-927
-1085
-1264
-1435
-1559
-1638
-1705
-1794
-1899
-1986
-2024
-2020
-2012
-2039
-2093
-2126
-2089
-1979
-1848
-1746
-1676
-1591
-1449
-1262
-1088
-962
-863
-742
-588
-444
-351
-310
-279
-229
-175
-140
-102
20
294
702
1180
1700
2319
3056
3737
4023
3672
2803
1852
1202
848
441
-294
-1227
-1925
-2059
-1712
-1277
-1090
-1188
-1370
-1440
-1360
-1215
-1094
-1041
-1068
-1188
-1381
-1593
-1762
-1860
-1908
-1941
-1966
-1955
-1854
-1617
-1224
-719
-219
137
272
223
94
-16
-72
-83
-57
4
82
143
157
127
79
38
4
-42
-115
-218
-337
-444
-513
-538
-538
-542
-569
-611
-631
-596
-506
-399
-319
-285
-271
-244
-198
-150
-114
-72
3
128
283
440
591
739
884
1020
1139
1246
1353
1465
1568
1647
1705
1759
1818
1880
1930
1964
1985
1995
1984
1948
1894
1837
1786
1738
1683
1629
1588
1560
1520
1448
1362
1315
1335
1386
1384
1284
1128
1016
1001
1032
1011
889
705
528
387
266
146
34
-64
-161
-268
-366
-421
-435
-438
-451
-459
-436
-393
-371
-390
-408
-377
-296
-216
-185
-198
-216
-211
-194
-189
-204
-218
-206
-163
-111
-86
-103
-143
-170
-156
-102
-40
-8
-16
-32
-9
65
151
207
234
269
312
305
199
38
-68
-65
-12
11
27
159
474
890
1276
1613
2004
2505
2999
3272
3225
2988
2800
2772
2800
2701
2453
2243
2318
2752
3376
3959
4407
4804
5248
5702
6029
6157
6159
6132
6019
5599
4692
3384
2033
986
286
-351
-1238
-2359
-3348
-3819
-3758
-3538
-3570
-3922
-4322
-4481
-4367
-4170
-4040
-3969
-3886
-3792
-3727
-3660
-3479
-3124
-2678
-2270
-1904
-1435
-712
278
1416
2556
3590
4447
5091
5538
5849
6072
6197
6200
6123
6060
6041
5968
5689
5172
4543
3952
3407
2795
2058
1302
713
367
162
-46
-279
-450
-511
-522
-570
-641
-630
-466
-177
153
490
856
1273
1725
2182
2626
3024
3313
3448
3470
3485
3552
3622
3602
3467
3287
3125
2965
2740
2421
2051
1688
1346
1007
667
361
112
-95
-283
-440
-530
-536
-505
-509
-572
-667
-754
-836
-945
-1083
-1232
-1402
-1645
-2005
-2440
-2845
-3157
-3437
-3787
-4226
-4658
-4980
-5199
-5384
-5548
-5609
-5491
-5238
-4963
-4724
-4458
-4085
-3624
-3199
-2904
-2731
-2596
-2448
-2315
-2236
-2196
-2134
-2005
-1831
-1666
-1527
-1374
-1174
-947
-754
-613
-468
-253
21
264
395
421
417
431
430
339
116
-196
-505
-735
-872
-963
-1066
-1209
-1350
-1412
-1341
-1153
-939
-792
-728
-686
-594
-432
-247
-94
12
118
296
583
928
1215
1330
1245
1032
797
579
343
41
-312
-627
-807
-812
-687
-518
-360
-199
17
311
660
1040
1463
1912
2259
2293
1915
1292
752
475
325
17
-537
-1103
-1354
-1186
-795
-453
-279
-220
-180
-110
1
159
358
552
700
819
977
1195
1401
1477
1377
1156
904
670
457
281
192
212
299
372
386
363
356
386
425
442
440
435
435
421
376
314
260
208
130
30
-36
-25
11
-51
-282
-590
-797
-808
-696
-605
-583
-541
-375
-105
140
254
271
297
378
446
406
267
141
117
171
209
194
189
276
441
588
651
650
638
620
566
479
413
407
425
404
355
381
570
885
1172
1290
1232
1112
1043
1039
1022
916
725
535
439
457
543
635
705
744
732
647
499
337
219
146
63
-76
-254
-409
-511
-584
-672
-779
-878
-940
-960
-940
-891
-846
-860
-955
-1084
-1160
-1150
-1123
-1174
-1319
-1467
-1506
-1423
-1308
-1264
-1321
-1437
-1559
-1670
-1777
-1884
-1974
-2023
-2021
-1982
-1933
-1897
-1881
-1861
-1807
-1719
-1648
-1657
-1765
-1925
-2074
-2207
-2379
-2637
-2945
-3212
-3381
-3489
-3601
-3710
-3729
-3577
-3282
-2959
-2696
-2485
-2248
-1929
-1540
-1132
-751
-408
-96
183
412
577
698
812
936
1047
1114
1157
1253
1456
1731
2003
2257
2549
2891
3131
3024
2464
1633
893
489
370
281
26
-346
-599
-526
-144
320
609
624
470
335
332
444
592
720
819
892
948
998
1060
1131
1172
1142
1040
919
828
788
795
836
895
931
903
805
683
587
536
511
498
504
530
546
517
447
378
350
373
423
483
545
604
647
657
632
592
560
541
521
482
420
351
281
194
77
-53
-149
-178
-154
-132
-146
-178
-183
-143
-74
-1
70
158
277
428
612
840
1125
1444
1735
1937
2035
2079
2138
2234
2330
2376
2375
2386
2457
2577
2690
2746
2738
2688
2617
2534
2448
2359
2264
2163
2072
2012
1966
1888
1759
1627
1548
1501
1399
1208
1033
1010
1129
1217
1115
858
632
551
535
427
189
-58
-188
-202
-191
-201
-199
-151
-76
-29
-36
-70
-95
-117
-171
-289
-478
-710
-946
-1141
-1252
-1232
-1047
-709
-333
-106
-162
-471
-860
-1194
-1512
-1979
-2673
-3458
-4055
-4258
-4070
-3658
-3201
-2791
-2422
-2047
-1642
-1222
-846
-603
-553
-669
-832
-909
-861
-783
-809
-970
-1133
-1120
-878
-515
-148
260
844
1620
2363
2753
2672
2313
1967
1716
1398
836
102
-511
-741
-572
-179
279
771
1307
1795
2054
1973
1658
1341
1163
1039
788
379
18
-63
126
342
357
187
38
59
201
326
387
476
689
997
1273
1409
1407
1368
1384
1457
1492
1404
1233
1142
1276
1602
1919
2034
1938
1776
1679
1658
1638
1571
1488
1442
1454
1489
1502
1473
1401
1298
1187
1093
1021
944
829
669
499
347
209
49
-160
-399
-629
-857
-1121
-1440
-1749
-1948
-2000
-1995
-2064
-2244
-2441
-2532
-2504
-2469
-2543
-2716
-2870
-2897
-2810
-2714
-2693
-2740
-2786
-2788
-2780
-2825
-2935
-3058
-3140
-3188
-3243
-3312
-3346
-3290
-3156
-2995
-2866
-2799
-2796
-2822
-2780
-2528
-1979
-1209
-436
135
450
597
683
732
690
504
192
-152
-389
-393
-144
246
596
781
801
726
608
425
145
-220
-611
-971
-1268
-1480
-1599
-1635
-1634
-1663
-1769
-1956
-2182
-2377
-2476
-2455
-2334
-2164
-1993
-1838
-1690
-1536
-1363
-1152
-892
-590
-270
49
381
754
1170
1594
1977
2310
2627
2951
3266
3533
3728
3864
3967
4034
4046
4002
3934
3869
3798
3683
3511
3327
3194
3123
3066
2973
2846
2738
2692
2694
2705
2695
2656
2588
2495
2385
2277
2172
2055
1914
1769
1653
1563
1474
1406
1437
1620
1904
2180
2414
2689
3053
3344
3245
2584
1560
604
0
-340
-721
-1302
-1917
-2245
-2122
-1690
-1272
-1112
-1230
-1455
-1587
-1539
-1381
-1253
-1249
-1345
-1435
-1428
-1329
-1237
-1255
-1406
-1612
-1768
-1826
-1812
-1770
-1698
-1557
-1350
-1151
-1052
-1082
-1181
-1250
-1234
-1147
-1016
-854
-659
-458
-301
-216
-158
-53
111
256
305
287
303
402
502
495
387
299
322
404
432
383
347
391
448
398
227
43
-53
-84
-151
-290
-432
-487
-454
-410
-417
-476
-551
-621
-700
-802
-915
-1014
-1094
-1174
-1277
-1390
-1461
-1448
-1372
-1304
-1300
-1351
-1412
-1467
-1534
-1623
-1711
-1787
-1893
-2079
-2314
-2479
-2476
-2326
-2126
-1909
-1609
-1175
-692
-336
-203
-221
-240
-192
-136
-159
-244
-280
-168
100
430
702
855
913
944
994
1043
1035
940
791
663
612
642
720
803
861
874
840
784
760
818
964
1142
1282
1359
1413
1498
1613
1673
1589
1352
1045
776
579
413
222
-18
-281
-529
-731
-865
-915
-900
-871
-890
-964
-1035
-1037
-964
-884
-882
-975
-1105
-1194
-1216
-1211
-1228
-1282
-1341
-1368
-1341
-1266
-1171
-1085
-1017
-944
-840
-707
-583
-508
-473
-436
-374
-291
-182
8
329
760
1231
1727
2317
3012
3609
3756
3267
2339
1413
788
381
-103
-791
-1478
-1822
-1668
-1172
-649
-329
-253
-321
-396
-401
-337
-266
-246
-289
-355
-377
-324
-207
-83
-28
-99
-286
-521
-711
-796
-777
-700
-632
-639
-761
-983
-1222
-1378
-1401
-1323
-1211
-1105
-1000
-878
-741
-625
-577
-627
-764
-932
-1067
-1145
-1196
-1268
-1371
-1473
-1541
-1576
-1602
-1626
-1633
-1621
-1618
-1651
-1709
-1744
-1731
-1681
-1627
-1587
-1557
-1532
-1513
-1502
-1481
-1437
-1373
-1306
-1246
-1187
-1129
-1090
-1085
-1092
-1065
-976
-846
-725
-645
-600
-566
-535
-521
-532
-557
-574
-586
-610
-651
-692
-705
-686
-659
-643
-637
-633
-625
-611
-584
-529
-444
-350
-272
-220
-186
-167
-170
-201
-244
-273
-284
-303
-353
-423
-472
-472
-430
-374
-319
-260
-187
-101
-16
60
131
211
307
407
483
519
537
579
663
754
804
807
823
894
984
1014
956
876
857
897
916
855
754
693
702
738
755
751
741
718
660
578
504
451
390
295
179
96
72
59
-13
-154
-284
-303
-193
-26
145
361
686
1072
1325
1269
957
649
543
553
409
-17
-501
-656
-319
303
843
1139
1325
1623
2075
2561
3005
3444
3861
4078
3862
3199
2361
1710
1404
1291
1098
657
36
-482
-553
-19
921
1776
2083
1727
910
-136
-1369
-2828
-4419
-5920
-7171
-8174
-8939
-9284
-8950
-7931
-6619
-5535
-4915
-4578
-4230
-3825
-3551
-3521
-3639
-3694
-3567
-3238
-2681
-1809
-592
812
2149
3272
4200
5005
5730
6451
7360
8619
10089
11283
11691
11222
10297
9475
8983
8603
8001
7124
6273
5813
5853
6177
6408
6245
5588
4522
3244
1932
626
-728
-2152
-3513
-4570
-5138
-5233
-5024
-4668
-4258
-3881
-3652
-3629
-3707
-3675
-3393
-2932
-2491
-2211
-2065
-1934
-1762
-1610
-1562
-1615
-1685
-1700
-1667
-1647
-1671
-1719
-1733
-1667
-1522
-1334
-1149
-1006
-914
-852
-792
-740
-728
-771
-851
-926
-974
-1010
-1053
-1103
-1143
-1177
-1232
-1333
-1445
-1479
-1369
-1133
-869
-661
-505
-325
-68
223
451
562
587
584
576
550
485
391
292
210
151
93
-3
-134
-234
-234
-146
-47
31
156
379
582
507
-4
-839
-1737
-2539
-3294
-4087
-4853
-5412
-5635
-5536
-5206
-4714
-4128
-3562
-3138
-2898
-2798
-2756
-2722
-2688
-2664
-2687
-2796
-2956
-3051
-2999
-2852
-2761
-2795
-2864
-2828
-2659
-2435
-2213
-1982
-1749
-1604
-1595
-1548
-1131
-200
962
1817
2054
1868
1717
1802
1827
1285
8
-1595
-2831
-3275
-3040
-2586
-2280
-2137
-1929
-1497
-923
-446
-252
-337
-559
-764
-849
-777
-565
-267
36
270
393
394
294
149
40
40
149
277
315
236
132
113
182
229
141
-76
-313
-472
-556
-643
-783
-945
-1054
-1077
-1040
-983
-913
-810
-667
-515
-397
-329
-299
-289
-297
-320
-331
-305
-238
-160
-98
-50
4
72
147
239
367
512
597
546
383
232
191
229
200
23
-209
-323
-255
-111
-25
-3
39
129
180
120
20
0
23
-123
-575
-1168
-1539
-1482
-1139
-839
-741
-702
-474
18
608
1042
1178
1057
832
644
534
453
339
185
32
-77
-132
-142
-113
-61
-34
-79
-190
-312
-397
-445
-472
-484
-477
-490
-588
-802
-1074
-1304
-1440
-1516
-1592
-1679
-1733
-1733
-1730
-1812
-2015
-2281
-2516
-2687
-2847
-3043
-3252
-3401
-3455
-3457
-3454
-3443
-3388
-3302
-3231
-3180
-3097
-2937
-2735
-2578
-2498
-2455
-2400
-2334
-2289
-2277
-2308
-2404
-2535
-2546
-2224
-1514
-664
-72
29
-269
-695
-1095
-1543
-2187
-3032
-3889
-4504
-4702
-4463
-3918
-3291
-2789
-2509
-2411
-2393
-2394
-2439
-2559
-2734
-2892
-2953
-2875
-2640
-2247
-1737
-1208
-770
-475
-302
-232
-302
-576
-1041
-1569
-2012
-2322
-2560
-2811
-3057
-3178
-3063
-2712
-2251
-1840
-1582
-1481
-1460
-1431
-1338
-1179
-980
-772
-577
-398
-237
-113
-49
-54
-111
-198
-303
-423
-540
-609
-592
-498
-405
-396
-493
-656
-825
-974
-1103
-1209
-1265
-1254
-1206
-1181
-1226
-1335
-1459
-1555
-1616
-1673
-1757
-1873
-2006
-2138
-2258
-2361
-2439
-2500
-2559
-2629
-2701
-2754
-2784
-2810
-2854
-2910
-2952
-2968
-2975
-2992
-3011
-3001
-2953
-2896
-2861
-2850
-2837
-2804
-2773
-2777
-2806
-2815
-2771
-2680
-2574
-2458
-2302
-2082
-1816
-1534
-1236
-894
-512
-168
46
117
137
204
324
418
420
353
296
294
328
349
338
313
287
259
212
142
56
-35
-127
-215
-302
-390
-477
-552
-601
-625
-633
-636
-619
-553
-440
-349
-374
-531
-718
-795
-744
-716
-889
-1271
-1674
-1891
-1907
-1900
-2045
-2323
-2554
-2590
-2460
-2309
-2239
-2215
-2161
-2098
-2125
-2273
-2432
-2457
-2344
-2256
-2326
-2473
-2485
-2268
-1972
-1827
-1872
-1929
-1835
-1631
-1471
-1410
-1341
-1199
-1121
-1342
-1931
-2691
-3355
-3840
-4254
-4702
-5117
-5336
-5273
-5004
-4677
-4390
-4166
-4003
-3903
-3876
-3927
-4023
-4080
-4012
-3784
-3440
-3067
-2691
-2271
-1772
-1240
-772
-421
-144
150
500
839
994
773
121
-780
-1586
-2053
-2226
-2349
-2576
-2781
-2694
-2224
-1575
-1071
-892
-976
-1151
-1289
-1368
-1411
-1430
-1420
-1375
-1293
-1177
-1039
-905
-818
-820
-924
-1104
-1305
-1473
-1553
-1503
-1306
-1020
-745
-544
-392
-232
-60
67
116
142
218
334
388
315
147
-18
-125
-180
-202
-204
-209
-243
-298
-331
-323
-315
-354
-410
-393
-289
-205
-248
-376
-436
-353
-230
-225
-359
-499
-530
-497
-567
-828
-1199
-1528
-1745
-1919
-2142
-2421
-2654
-2741
-2669
-2531
-2445
-2477
-2603
-2742
-2825
-2849
-2878
-2976
-3131
-3250
-3232
-3085
-2927
-2882
-2952
-3034
-3034
-2959
-2886
-2871
-2893
-2883
-2788
-2607
-2390
-2214
-2141
-2173
-2240
-2265
-2226
-2163
-2117
-2080
-2017
-1904
-1757
-1607
-1473
-1353
-1239
-1126
-1015
-914
-837
-782
-709
-575
-383
-191
-63
8
84
205
339
417
417
380
360
363
370
372
385
413
426
403
373
384
440
493
493
454
432
468
554
661
785
936
1106
1261
1382
1494
1636
1821
2022
2212
2389
2561
2719
2844
2941
3041
3169
3303
3396
3434
3451
3489
3558
3625
3650
3637
3614
3599
3574
3503
3374
3221
3104
3049
3025
2987
2957
3009
3184
3428
3648
3848
4114
4429
4559
4197
3296
2181
1284
747
337
-241
-999
-1649
-1915
-1781
-1470
-1225
-1146
-1200
-1289
-1324
-1268
-1142
-1010
-922
-876
-834
-772
-703
-642
-596
-571
-589
-665
-767
-836
-829
-754
-644
-512
-368
-246
-198
-225
-265
-231
-99
72
199
241
219
196
240
378
571
720
753
701
661
698
760
719
522
262
121
191
397
583
676
748
895
1095
1242
1290
1343
1521
1777
1911
1809
1618
1613
1871
2138
2072
1641
1210
1205
1671
2193
2295
1925
1522
1580
2161
2818
3033
2685
2096
1668
1500
1396
1142
732
312
3
-165
-186
-44
228
494
607
532
368
241
209
235
253
235
226
326
604
1009
1396
1667
1915
2325
2898
3349
3355
2938
2493
2406
2666
2913
2855
2554
2294
2251
2376
2528
2625
2662
2616
2464
2241
2048
1967
1976
1988
1953
1895
1871
1907
1974
2024
2034
2010
1957
1852
1674
1470
1343
1357
1444
1447
1301
1125
1105
1278
1478
1538
1498
1555
1797
2049
2045
1730
1322
1074
1014
959
760
472
255
190
207
201
142
82
59
34
-35
-120
-141
-66
26
17
-129
-306
-379
-330
-252
-216
-155
55
441
914
1403
1945
2554
3034
3045
2418
1387
427
-186
-603
-1178
-2031
-2889
-3349
-3261
-2841
-2449
-2276
-2273
-2274
-2173
-1975
-1737
-1504
-1296
-1133
-1026
-943
-829
-656
-463
-337
-322
-375
-413
-393
-336
-268
-183
-63
56
103
44
-65
-116
-56
76
203
277
305
310
288
227
138
50
-17
-77
-151
-247
-351
-453
-569
-718
-891
-1051
-1173
-1272
-1374
-1476
-1545
-1571
-1577
-1600
-1637
-1652
-1626
-1592
-1598
-1652
-1704
-1703
-1657
-1620
-1633
-1675
-1693
-1665
-1622
-1609
-1627
-1636
-1604
-1546
-1503
-1493
-1500
-1490
-1448
-1385
-1318
-1259
-1216
-1187
-1164
-1130
-1073
-999
-923
-857
-804
-758
-715
-672
-625
-568
-502
-443
-411
-417
-443
-448
-405
-324
-243
-196
-182
-171
-137
-85
-40
-14
1
14
13
-26
-106
-203
-280
-312
-309
-301
-308
-324
-318
-279
-231
-216
-250
-307
-351
-372
-397
-447
-508
-544
-527
-460
-377
-309
-275
-275
-296
-319
-330
-324
-295
-247
-200
-180
-189
-204
-205
-211
-253
-323
-378
-410
-490
-686
-953
-1131
-1115
-983
-922
-1021
-1170
-1196
-1067
-912
-856
-897
-940
-934
-924
-968
-1062
-1155
-1212
-1248
-1268
-1251
-1182
-1091
-1003
-869
-593
-163
291
632
873
1151
1503
1711
1489
830
111
-206
-11
383
577
467
287
303
540
781
775
444
-79
-556
-771
-640
-229
298
791
1189
1540
1902
2262
2539
2638
2504
2157
1662
1121
643
290
35
-228
-604
-1096
-1591
-1959
-2167
-2294
-2427
-2578
-2692
-2746
-2801
-2943
-3187
-3460
-3661
-3756
-3782
-3787
-3790
-3811
-3874
-3964
-3989
-3822
-3394
-2724
-1863
-841
320
1583
2902
4262
5643
6952
8010
8684
9016
9187
9338
9446
9388
9111
8699
8277
7859
7334
6591
5662
4725
3956
3372
2818
2148
1393
744
352
174
23
-235
-560
-818
-942
-974
-983
-984
-960
-911
-857
-798
-697
-535
-340
-165
-43
29
80
135
210
311
416
496
563
666
835
1013
1092
1025
877
742
613
398
47
-340
-598
-652
-579
-506
-480
-463
-422
-403
-495
-737
-1083
-1443
-1737
-1932
-2015
-1981
-1833
-1600
-1349
-1165
-1103
-1154
-1270
-1418
-1598
-1821
-2049
-2191
-2164
-1966
-1672
-1367
-1075
-772
-437
-86
253
569
877
1184
1486
1788
2124
2517
2929
3263
3434
3453
3407
3355
3266
3049
2662
2179
1721
1358
1059
740
355
-67
-457
-768
-1001
-1195
-1379
-1533
-1589
-1492
-1265
-993
-736
-463
-93
380
850
1197
1406
1548
1639
1556
1163
512
-130
-506
-618
-706
-968
-1338
-1547
-1426
-1087
-801
-735
-843
-976
-1054
-1091
-1103
-1062
-968
-894
-907
-978
-1002
-929
-842
-878
-1080
-1339
-1505
-1511
-1413
-1333
-1368
-1522
-1709
-1820
-1807
-1716
-1617
-1498
-1282
-913
-446
-7
308
495
590
598
495
293
72
-60
-40
128
396
730
1116
1540
1967
2344
2626
2789
2831
2758
2605
2441
2360
2408
2518
2583
2570
2551
2626
2813
3027
3163
3167
3064
2932
2864
2904
2976
2933
2697
2376
2173
2171
2241
2198
2006
1770
1565
1338
1023
686
489
509
657
805
948
1199
1638
2180
2634
2835
2771
2562
2348
2205
2097
1936
1700
1482
1396
1448
1521
1492
1341
1139
933
695
389
56
-203
-318
-319
-293
-297
-336
-404
-497
-607
-708
-775
-818
-865
-919
-948
-926
-860
-782
-704
-617
-537
-512
-560
-625
-604
-453
-246
-106
-85
-116
-96
-2
75
20
-195
-492
-748
-891
-927
-918
-907
-888
-827
-702
-551
-437
-379
-349
-292
-202
-131
-142
-264
-468
-703
-917
-1084
-1225
-1382
-1572
-1756
-1870
-1886
-1838
-1780
-1753
-1802
-1967
-2250
-2570
-2807
-2917
-2979
-3085
-3199
-3175
-2924
-2526
-2143
-1835
-1531
-1186
-925
-971
-1404
-2044
-2594
-2893
-3040
-3232
-3539
-3814
-3842
-3542
-3041
-2559
-2232
-2028
-1806
-1466
-1028
-620
-363
-270
-245
-170
-7
171
267
238
129
7
-81
-113
-87
-12
85
162
199
200
173
111
15
-68
-80
-17
42
14
-112
-261
-374
-460
-560
-674
-746
-721
-602
-431
-244
-62
101
227
316
381
436
493
570
683
816
896
841
643
389
175
13
-172
-440
-744
-958
-990
-865
-696
-580
-526
-483
-412
-343
-336
-424
-559
-648
-631
-527
-398
-297
-218
-116
28
172
250
229
135
26
-58
-119
-168
-203
-200
-131
15
227
471
700
881
1003
1063
1040
906
658
354
73
-139
-298
-426
-513
-520
-442
-330
-253
-233
-243
-252
-257
-281
-335
-391
-413
-384
-301
-175
-37
68
101
71
47
91
185
240
193
100
82
193
346
420
414
451
620
834
913
779
558
437
457
483
373
139
-76
-152
-91
15
93
136
155
150
122
94
103
140
141
59
-67
-146
-135
-84
-69
-86
-57
55
179
215
160
122
183
305
367
298
145
14
-31
-11
1
-58
-188
-323
-364
-257
-57
122
235
373
626
937
1084
864
306
-367
-932
-1331
-1630
-1874
-2002
-1887
-1415
-567
525
1553
2142
2096
1567
936
469
90
-448
-1207
-1890
-2105
-1727
-998
-272
272
666
984
1201
1253
1165
1040
939
841
681
469
292
209
165
60
-118
-268
-305
-262
-248
-290
-276
-80
273
610
765
732
649
655
770
907
979
973
952
969
1024
1060
1029
945
880
892
978
1088
1193
1322
1501
1722
1937
2116
2244
2285
2177
1908
1570
1301
1164
1090
987
870
853
1035
1416
1939
2559
3238
3869
4302
4456
4416
4365
4403
4449
4338
3985
3487
3049
2830
2840
2929
2901
2669
2340
2142
2230
2547
2865
2977
2846
2630
2508
2518
2532
2355
1900
1262
608
49
-429
-887
-1332
-1732
-2077
-2400
-2712
-2960
-3073
-3020
-2820
-2512
-2166
-1893
-1807
-1927
-2156
-2402
-2704
-3184
-3862
-4552
-5015
-5169
-5139
-5089
-5058
-4982
-4830
-4656
-4525
-4440
-4346
-4210
-4042
-3853
-3612
-3270
-2810
-2285
-1785
-1371
-1029
-691
-308
91
433
687
896
1132
1405
1647
1772
1760
1668
1577
1527
1502
1440
1284
1025
718
443
236
51
-207
-581
-1007
-1373
-1631
-1847
-2117
-2459
-2782
-2967
-2984
-2889
-2722
-2468
-2100
-1646
-1163
-622
88
980
1820
2246
2104
1651
1346
1427
1702
1798
1571
1249
1194
1552
2158
2716
3043
3153
3190
3300
3538
3843
4109
4271
4350
4406
4487
4586
4672
4723
4708
4584
4338
4035
3783
3646
3588
3523
3404
3246
3065
2835
2545
2251
2052
1991
2011
2020
1996
1983
2004
2005
1926
1795
1708
1708
1713
1596
1318
975
691
504
354
170
-52
-270
-445
-567
-633
-646
-625
-611
-649
-742
-843
-904
-924
-950
-1022
-1137
-1253
-1352
-1444
-1542
-1626
-1673
-1697
-1735
-1796
-1841
-1833
-1805
-1830
-1949
-2125
-2284
-2395
-2482
-2585
-2709
-2840
-2960
-3066
-3162
-3263
-3393
-3570
-3776
-3963
-4076
-4096
-4055
-4015
-4018
-4055
-4075
-4038
-3974
-3959
-4045
-4194
-4314
-4349
-4336
-4345
-4408
-4489
-4549
-4601
-4678
-4785
-4868
-4864
-4754
-4545
-4222
-3751
-3144
-2500
-1933
-1448
-943
-353
226
601
692
640
671
868
1120
1292
1372
1471
1689
2031
2429
2791
3037
3141
3163
3211
3330
3446
3483
3520
3774
4341
5006
5355
5132
4456
3663
2960
2273
1423
397
-581
-1226
-1410
-1209
-805
-368
-11
204
270
237
173
110
39
-60
-178
-265
-269
-178
-33
113
211
222
132
-33
-201
-253
-83
327
870
1384
1781
2127
2542
3000
3254
3025
2291
1371
662
287
6
-489
-1218
-1866
-2087
-1830
-1370
-1049
-1002
-1116
-1180
-1075
-850
-635
-523
-503
-500
-450
-348
-245
-185
-178
-226
-339
-507
-679
-784
-786
-732
-703
-739
-819
-900
-965
-1021
-1066
-1065
-983
-826
-644
-488
-374
-297
-246
-211
-174
-108
-4
114
202
239
242
245
259
264
245
211
192
197
218
237
240
231
218
214
221
226
203
150
92
61
64
73
58
22
-4
1
20
25
15
10
24
30
-7
-83
-153
-177
-170
-184
-245
-316
-337
-294
-231
-203
-217
-225
-182
-97
-21
12
14
26
65
114
154
186
224
263
282
270
237
201
165
125
86
63
54
30
-28
-109
-179
-216
-236
-265
-317
-375
-421
-449
-463
-464
-446
-407
-355
-303
-265
-244
-246
-269
-301
-333
-364
-406
-476
-574
-672
-738
-769
-794
-838
-889
-900
-849
-765
-701
-671
-635
-546
-405
-262
-163
-109
-65
-6
53
78
56
5
-48
-102
-172
-262
-342
-371
-340
-280
-228
-188
-148
-117
-114
-121
-87
20
158
240
222
142
76
48
30
1
-34
-62
-73
-40
84
331
689
1122
1614
2132
2552
2653
2300
1612
919
478
261
9
-462
-1050
-1432
-1363
-888
-318
25
38
-112
-177
-55
140
232
184
119
158
288
404
457
510
632
789
889
910
918
990
1140
1315
1453
1539
1609
1691
1770
1798
1758
1707
1763
2069
2763
3949
5587
7336
8575
8767
7939
6710
5726
5024
4033
2286
68
-1736
-2426
-2066
-1320
-812
-706
-815
-939
-1046
-1193
-1414
-1714
-2096
-2527
-2900
-3073
-2982
-2691
-2387
-2255
-2372
-2689
-3071
-3370
-3473
-3344
-3053
-2738
-2525
-2471
-2575
-2804
-3085
-3265
-3179
-2793
-2241
-1697
-1213
-661
120
1151
2287
3345
4252
5078
5935
6847
7691
8263
8464
8399
8303
8339
8442
8388
8001
7324
6575
5964
5531
5149
4655
3998
3278
2641
2128
1647
1064
345
-436
-1182
-1851
-2469
-3060
-3590
-4000
-4238
-4292
-4194
-4002
-3755
-3447
-3068
-2654
-2293
-2047
-1896
-1760
-1601
-1463
-1407
-1438
-1511
-1594
-1675
-1741
-1784
-1810
-1846
-1891
-1903
-1856
-1817
-1894
-2091
-2243
-2154
-1827
-1501
-1446
-1720
-2140
-2487
-2711
-2930
-3275
-3732
-4141
-4312
-4155
-3725
-3164
-2619
-2185
-1897
-1744
-1680
-1664
-1694
-1796
-1987
-2217
-2374
-2347
-2126
-1799
-1480
-1200
-911
-566
-194
121
335
513
761
1109
1455
1631
1522
1135
569
-24
-495
-762
-878
-1000
-1243
-1543
-1720
-1668
-1503
-1459
-1667
-2040
-2379
-2562
-2625
-2677
-2782
-2922
-3030
-3063
-3030
-2977
-2953
-2971
-3017
-3083
-3164
-3244
-3276
-3222
-3105
-2990
-2930
-2914
-2901
-2877
-2857
-2851
-2840
-2781
-2653
-2485
-2338
-2271
-2282
-2295
-2220
-2055
-1906
-1889
-1991
-2076
-2026
-1870
-1756
-1778
-1886
-1952
-1907
-1784
-1637
-1446
-1156
-763
-337
69
500
1051
1726
2369
2766
2850
2790
2811
2985
3185
3248
3174
3119
3226
3486
3786
4024
4161
4189
4125
4035
4018
4112
4236
4269
4192
4115
4145
4263
4339
4288
4162
4068
4057
4087
4087
4052
4015
3991
3953
3857
3682
3438
3169
2939
2779
2640
2442
2174
1943
1864
1908
1887
1636
1202
814
648
670
706
654
578
599
748
938
1060
1078
1026
940
817
656
489
360
281
205
75
-119
-330
-499
-618
-731
-890
-1097
-1304
-1455
-1538
-1583
-1639
-1743
-1906
-2115
-2346
-2586
-2841
-3128
-3460
-3814
-4122
-4308
-4331
-4225
-4075
-3949
-3855
-3766
-3660
-3537
-3431
-3389
-3441
-3569
-3706
-3776
-3751
-3660
-3548
-3432
-3314
-3212
-3151
-3118
-3066
-2982
-2933
-2986
-3103
-3145
-3004
-2732
-2469
-2310
-2207
-2037
-1740
-1361
-991
-695
-507
-481
-741
-1414
-2481
-3690
-4662
-5158
-5255
-5229
-5236
-5118
-4600
-3652
-2626
-1994
-1964
-2351
-2805
-3107
-3275
-3433
-3636
-3839
-3956
-3936
-3787
-3572
-3382
-3298
-3364
-3572
-3869
-4179
-4417
-4526
-4516
-4472
-4500
-4652
-4897
-5153
-5349
-5435
-5378
-5173
-4879
-4602
-4438
-4395
-4406
-4411
-4423
-4489
-4609
-4693
-4660
-4531
-4413
-4368
-4334
-4198
-3949
-3727
-3689
-3814
-3904
-3787
-3510
-3295
-3290
-3400
-3396
-3177
-2885
-2760
-2883
-3121
-3286
-3318
-3307
-3362
-3493
-3619
-3669
-3640
-3572
-3495
-3420
-3351
-3308
-3315
-3362
-3394
-3353
-3229
-3082
-2981
-2931
-2872
-2746
-2568
-2413
-2343
-2340
-2346
-2339
-2351
-2417
-2524
-2629
-2714
-2804
-2927
-3072
-3201
-3291
-3358
-3437
-3543
-3657
-3746
-3787
-3795
-3810
-3859
-3928
-3968
-3939
-3859
-3793
-3798
-3867
-3941
-3970
-3949
-3908
-3873
-3840
-3790
-3702
-3561
-3367
-3141
-2925
-2771
-2707
-2712
-2738
-2751
-2751
-2756
-2775
-2787
-2766
-2694
-2581
-2446
-2309
-2180
-2066
-1973
-1915
-1909
-1966
-2070
-2180
-2267
-2335
-2408
-2484
-2524
-2497
-2429
-2380
-2386
-2415
-2421
-2409
-2438
-2544
-2696
-2822
-2898
-2965
-3059
-3154
-3201
-3196
-3185
-3200
-3210
-3162
-3057
-2956
-2901
-2843
-2708
-2498
-2302
-2195
-2178
-2194
-2206
-2199
-2129
-1924
-1569
-1181
-921
-869
-994
-1269
-1733
-2413
-3195
-3865
-4299
-4564
-4810
-5052
-5139
-4941
-4530
-4146
-3971
-3993
-4071
-4075
-3982
-3834
-3686
-3578
-3517
-3453
-3291
-2986
-2596
-2249
-2011
-1785
-1363
-611
339
1094
1254
708
-286
-1333
-2250
-3171
-4293
-5536
-6507
-6829
-6471
-5749
-5026
-4484
-4135
-3966
-3967
-4075
-4168
-4180
-4177
-4255
-4387
-4413
-4213
-3832
-3417
-3072
-2814
-2634
-2553
-2566
-2555
-2367
-1970
-1537
-1310
-1381
-1613
-1786
-1813
-1784
-1798
-1818
-1701
-1377
-942
-577
-374
-278
-195
-116
-131
-318
-663
-1083
-1514
-1950
-2397
-2804
-3111
-3308
-3443
-3552
-3609
-3553
-3376
-3139
-2911
-2699
-2464
-2179
-1877
-1636
-1522
-1561
-1711
-1865
-1908
-1804
-1643
-1566
-1605
-1632
-1491
-1168
-803
-541
-391
-255
-68
136
283
366
440
549
660
710
666
569
507
528
574
516
295
13
-167
-209
-274
-536
-951
-1287
-1400
-1433
-1652
-2118
-2588
-2799
-2780
-2818
-3125
-3610
-4014
-4211
-4308
-4474
-4733
-4965
-5074
-5090
-5109
-5148
-5122
-4958
-4702
-4490
-4413
-4434
-4443
-4395
-4362
-4443
-4647
-4874
-5031
