166
391
1109
1891
2416
2745
3110
3585
4066
4521
5056
5672
6103
6048
5548
4969
4594
4337
3904
3205
2468
1956
1694
1522
1330
1156
1115
1300
1691
2064
2038
1371
331
-313
96
1440
2865
3544
3454
3299
3732
4725
5666
5971
5517
4644
3893
3674
4028
4608
4906
4689
4222
3980
4139
4454
4626
4639
4619
4413
3625
2240
1011
904
2055
3506
4159
3900
3646
4244
5553
6680
6957
6459
5646
4761
3804
2877
2292
2285
2738
3325
3866
4419
5068
5743
6274
6544
6532
6230
5686
5071
4577
4237
3890
3375
2729
2123
1630
1215
930
1006
1584
2405
2912
2758
2190
1809
1983
2532
3001
3141
3109
3214
3619
4259
4922
5443
5716
5709
5506
5248
5032
4816
4511
4191
4163
4699
5713
6718
7118
6579
5247
3511
1683
-62
-1566
-2548
-2723
-2057
-851
567
2171
4137
6364
8192
8736
7718
5881
4407
3930
4096
4131
3795
3539
3956
5091
6396
7272
7476
7110
6400
5596
4932
4544
4375
4206
3871
3391
2805
2033
983
-229
-1170
-1340
-573
822
2349
3726
5021
6424
7900
9068
9505
9081
8039
6824
5816
5199
4976
5009
5117
5150
5115
5136
5315
5599
5799
5763
5518
5214
5002
4953
5070
5321
5638
5931
6107
6128
6027
5892
5815
5835
5932
6055
6151
6189
6160
6090
6029
6009
5993
5910
5761
5653
5697
5859
5969
5902
5733
5659
5754
5883
5861
5666
5449
5350
5354
5357
5304
5242
5234
5268
5288
5284
5302
5373
5433
5356
5077
4647
4174
3711
3217
2653
2089
1700
1633
1882
2278
2627
2891
3203
3700
4361
4984
5341
5387
5306
5325
5516
5756
5886
5832
5569
5061
4328
3541
2970
2711
2554
2209
1811
1939
2947
4306
4861
4015
2595
2157
3306
4855
4967
3179
1082
716
2466
4707
5532
4649
3430
3249
4111
4942
4862
3984
3077
2709
2909
3430
4119
4946
5842
6669
7389
8099
8841
9372
9261
8256
6630
5114
4317
4213
4233
3876
3287
3131
3880
5258
6439
6733
6141
5225
4546
4265
4205
4161
4084
4030
4023
4051
4129
4287
4512
4705
4732
4547
4265
4085
4116
4284
4415
4447
4485
4649
4893
5016
4894
4653
4547
4674
4864
4890
4706
4448
4243
4090
3938
3814
3788
3866
3963
4015
4043
4091
4135
4111
4031
3980
4024
4117
4157
4110
4053
4073
4164
4244
4249
4186
4110
4062
4034
3998
3954
3935
3971
4048
4123
4158
4138
4088
4046
4010
3942
3844
3764
3733
3768
3858
3948
4017
4098
4205
4260
4108
3655
3073
2793
3154
3921
4282
3540
1965
815
1268
3236
5319
6179
5848
5537
6194
7568
8601
8552
7498
5990
4575
3691
3691
4459
5186
4848
3257
1457
770
1478
2586
2860
2109
1389
1915
3791
5852
6708
6004
4679
3987
4276
4795
4690
4026
3696
4375
5846
7327
8259
8572
8384
7671
6563
5486
4856
4671
4625
4591
4710
5090
5525
5754
5783
5723
5279
3831
1262
-1399
-2555
-1475
918
2916
3641
3729
4457
6334
8611
10051
10047
8992
7759
6955
6643
6555
6420
6129
5717
5307
5070
5113
5388
5675
5705
5350
4738
4161
3903
4092
4641
5267
5636
5574
5150
4589
4122
3893
3949
4237
4587
4778
4683
4381
4087
3956
3958
3967
3928
3912
4006
4190
4332
4314
4147
3974
3951
4095
4255
4271
4165
4122
4263
4479
4532
4358
4155
4169
4402
4594
4520
4243
4045
4116
4349
4452
4265
3948
3836
4088
4481
4641
4483
4340
4547
4973
5110
4678
4003
3641
3730
3876
3693
3291
3108
3361
3840
4183
4195
3899
3446
3065
2938
2979
2797
2112
1222
821
1202
1829
1897
1281
686
855
1746
2651
3033
3011
3075
3488
4097
4658
5009
5007
4521
3594
2570
1876
1623
1616
1741
2195
3196
4450
5161
4742
3454
2242
1900
2446
3266
3786
3956
4188
4974
6492
8377
9800
9960
8743
6877
5392
4785
4702
4481
3880
3259
3121
3576
4323
4966
5268
5172
4754
4155
3597
3308
3417
3854
4351
4638
4650
4535
4442
4352
4176
3971
3931
4106
4236
4029
3563
3251
3343
3615
3708
3652
3848
4477
5136
5262
4810
4282
4073
4052
3841
3362
2932
2818
2959
3141
3305
3528
3800
3969
3912
3654
3241
2643
1854
1076
672
876
1597
2506
3312
3961
4607
5400
6264
6869
6866
6190
5177
4305
3816
3591
3376
3071
2772
2604
2556
2545
2559
2618
2620
2376
1866
1345
1149
1316
1460
1105
143
-1048
-1927
-2216
-2028
-1626
-1058
-81
1533
3627
5624
6957
7531
7729
7915
8005
7611
6591
5306
4286
3733
3451
3220
3084
3166
3359
3375
3112
2838
2924
3388
3837
3901
3642
3465
3664
4094
4324
4095
3572
3143
3037
3160
3284
3302
3259
3244
3295
3402
3520
3571
3527
3490
3639
4004
4383
4532
4464
4436
4609
4810
4742
4361
3931
3677
3518
3236
2821
2539
2600
2882
3061
2969
2708
2450
2220
1942
1647
1501
1651
2069
2588
3061
3444
3764
4053
4270
4303
4073
3652
3273
3161
3319
3538
3630
3625
3712
3982
4285
4387
4195
3827
3474
3232
3086
2991
2940
2952
3033
3127
3140
3010
2790
2626
2644
2819
2969
2904
2580
2118
1705
1503
1581
1890
2275
2554
2661
2750
3105
3860
4763
5282
5056
4307
3718
3796
4341
4652
4293
3580
3200
3408
3786
3816
3501
3278
3394
3597
3511
3146
2873
2931
3140
3143
2822
2351
1920
1555
1199
890
774
944
1344
1834
2293
2674
2999
3343
3735
4093
4250
4112
3808
3619
3724
4027
4254
4225
4001
3776
3677
3718
3855
4002
4030
3832
3479
3255
3408
3852
4192
4116
3723
3396
3352
3415
3271
2844
2353
2031
1903
1864
1880
2032
2365
2797
3203
3547
3899
4330
4792
5100
5075
4730
4332
4244
4616
5202
5552
5433
5041
4755
4697
4591
4069
3057
1823
699
-138
-638
-750
-434
201
887
1404
1767
2141
2594
2955
2994
2697
2306
2123
2284
2721
3276
3827
4304
4668
4908
5078
5254
5417
5384
4988
4326
3797
3797
4317
4900
5068
4776
4418
4379
4621
4772
4561
4078
3646
3478
3546
3706
3880
4053
4166
4128
3940
3752
3775
4063
4405
4478
4141
3579
3169
3152
3419
3625
3529
3220
3008
3115
3485
3873
4081
4086
4006
3955
3970
4035
4114
4171
4139
3959
3690
3491
3505
3691
3841
3794
3598
3468
3550
3797
4036
4152
4158
4135
4106
3999
3734
3360
3074
3088
3419
3819
3969
3768
3432
3254
3319
3432
3353
3060
2751
2623
2694
2843
2940
2956
2940
2946
3004
3124
3321
3554
3668
3463
2925
2348
2118
2302
2551
2510
2301
2432
3166
4149
4817
5058
5256
5665
5957
5601
4595
3557
3060
3043
2991
2621
2144
1909
1991
2209
2422
2651
2904
3038
2926
2674
2583
2851
3375
3832
3942
3661
3208
2912
2972
3310
3663
3854
3951
4167
4602
5144
5650
6132
6660
7121
7197
6695
5843
5150
4896
4869
4631
4038
3416
3190
3456
3944
4337
4537
4630
4680
4662
4562
4445
4390
4381
4335
4213
4069
3981
3956
3937
3893
3855
3859
3887
3889
3864
3890
4052
4347
4679
4933
5044
5018
4913
4822
4835
4984
5195
5334
5302
5116
4876
4681
4563
4486
4389
4241
4053
3887
3818
3896
4099
4328
4457
4413
4230
4025
3891
3836
3813
3784
3760
3777
3852
3974
4114
4219
4207
4030
3769
3615
3712
4016
4368
4661
4941
5321
5833
6363
6704
6661
6193
5512
5004
4931
5160
5263
4942
4377
4037
4157
4473
4529
4169
3660
3368
3397
3573
3701
3736
3732
3735
3774
3880
4071
4290
4413
4390
4341
4472
4859
5356
5699
5741
5564
5356
5219
5102
4927
4716
4562
4507
4486
4435
4409
4524
4779
5001
4999
4766
4494
4365
4366
4333
4174
3966
3833
3778
3694
3529
3374
3355
3497
3710
3880
3932
3862
3735
3667
3737
3886
3971
3987
4171
4756
5609
6256
6347
6071
5950
6225
6547
6388
5680
4899
4543
4629
4788
4745
4589
4559
4714
4905
5008
5045
5058
4974
4708
4364
4202
4342
4580
4595
4337
4121
4253
4639
4882
4760
4529
4622
5143
5731
5947
5717
5320
5018
4798
4465
3872
3025
2060
1196
709
803
1407
2150
2644
2828
3007
3541
4450
5336
5727
5505
5015
4746
4891
5221
5399
5366
5339
5464
5555
5282
4606
3904
3626
3846
4232
4424
4400
4429
4753
5337
5915
6193
6051
5589
5059
4709
4620
4682
4718
4643
4525
4487
4579
4760
4959
5119
5197
5176
5089
5011
5015
5123
5301
5482
5598
5597
5482
5330
5235
5203
5145
4985
4790
4718
4837
5033
5119
5027
4859
4750
4721
4696
4611
4484
4365
4266
4145
3953
3709
3516
3496
3694
4025
4342
4558
4720
4929
5201
5449
5570
5536
5393
5196
4984
4787
4636
4550
4518
4512
4491
4420
4321
4282
4406
4670
4866
4757
4341
3917
3807
4032
4291
4274
3984
3704
3699
3971
4309
4520
4549
4439
4256
4072
3955
3900
3787
3480
3021
2662
2663
3044
3583
4027
4313
4564
4892
5254
5480
5433
5164
4873
4733
4725
4673
4441
4105
3901
3973
4218
4391
4357
4196
4065
4008
3937
3771
3576
3533
3767
4221
4697
5019
5175
5297
5489
5696
5758
5589
5259
4904
4579
4257
3967
3835
3961
4287
4637
4898
5105
5324
5521
5578
5437
5171
4943
4868
4953
5106
5212
5228
5216
5275
5410
5478
5315
4915
4465
4178
4110
4163
4243
4348
4515
4730
4925
5061
5153
5210
5196
5085
4938
4857
4857
4864
4806
4728
4742
4884
5043
5058
4864
4549
4282
4193
4304
4509
4657
4665
4600
4618
4788
4995
5058
4933
4775
4768
4919
5065
5087
5058
5134
5338
5497
5425
5133
4819
4661
4639
4597
4449
4283
4251
4406
4634
4779
4785
4710
4629
4568
4513
4458
4402
4347
4319
4375
4551
4776
4886
4760
4462
4204
4176
4364
4569
4605
4484
4408
4549
4845
5060
5045
4909
4888
5066
5271
5300
5151
4990
4900
4769
4468
4072
3814
3818
3974
4088
4120
4208
4479
4877
5213
5342
5268
5119
5022
4999
4960
4818
4580
4348
4225
4217
4269
4348
4463
4600
4687
4675
4623
4641
4726
4735
4554
4260
4053
4041
4146
4246
4359
4576
4865
5031
4949
4747
4672
4761
4761
4424
3839
3386
3359
3676
4007
4137
4131
4167
4279
4311
4145
3876
3729
3795
3941
3991
3959
4042
4363
4788
5064
5099
5049
5093
5186
5115
4797
4415
4235
4315
4473
4520
4470
4480
4629
4828
4918
4853
4715
4596
4529
4501
4519
4596
4696
4721
4627
4488
4445
4544
4670
4644
4439
4241
4276
4566
4870
4902
4597
4154
3802
3544
3169
2505
1674
1031
867
1136
1516
1712
1729
1842
2306
3083
3842
4240
4219
4038
4034
4329
4771
5112
5238
5196
5100
5019
4961
4926
4923
4928
4885
4770
4625
4538
4561
4660
4740
4734
4654
4567
4525
4512
4466
4357
4224
4125
4075
4032
3959
3878
3864
3988
4247
4543
4752
4814
4780
4746
4738
4680
4490
4207
3991
3978
4138
4308
4344
4249
4155
4194
4369
4555
4595
4449
4247
4164
4242
4356
4373
4330
4392
4603
4745
4524
3921
3299
3097
3416
3912
4134
3963
3691
3699
4089
4608
4896
4791
4426
4063
3879
3872
3910
3856
3680
3472
3375
3453
3642
3809
3882
3897
3923
3976
3995
3930
3804
3687
3616
3578
3524
3420
3269
3132
3095
3202
3404
3577
3641
3634
3671
3799
3936
3952
3822
3667
3623
3694
3744
3652
3453
3317
3369
3551
3688
3693
3664
3750
3948
4085
4037
3895
3848
3942
4027
3976
3866
3889
4088
4291
4329
4248
4232
4354
4488
4478
4339
4213
4186
4207
4190
4127
4067
4045
4072
4164
4335
4527
4636
4656
4753
5105
5642
6016
5928
5457
5029
4973
5191
5309
5116
4805
4716
4940
5237
5345
5270
5208
5260
5311
5208
4961
4728
4619
4596
4562
4497
4446
4442
4466
4486
4503
4536
4586
4625
4624
4580
4522
4485
4481
4493
4485
4436
4376
4376
4478
4651
4813
4920
4993
5065
5124
5112
5020
4937
4981
5176
5407
5521
5474
5368
5336
5395
5416
5251
4867
4380
3986
3825
3904
4108
4282
4326
4237
4104
4047
4136
4338
4537
4619
4541
4371
4238
4232
4349
4512
4627
4649
4592
4536
4578
4760
5019
5216
5246
5097
4840
4551
4301
4189
4320
4682
5087
5300
5259
5163
5256
5540
5746
5607
5130
4598
4308
4332
4521
4689
4747
4706
4601
4465
4336
4255
4228
4231
4248
4283
4349
4450
4604
4830
5093
5241
5108
4720
4363
4343
4671
5029
5111
4938
4786
4831
4935
4848
4549
4294
4320
4577
4791
4784
4690
4781
5142
5543
5646
5349
4881
4568
4513
4523
4354
3993
3668
3593
3743
3916
3974
3991
4139
4454
4775
4895
4775
4572
4458
4442
4381
4185
3947
3860
4000
4228
4344
4302
4233
4263
4382
4474
4486
4483
4547
4680
4818
4917
4989
5035
5008
4848
4566
4277
4123
4172
4387
4680
4969
5207
5370
5441
5415
5294
5092
4839
4587
4391
4280
4248
4284
4395
4589
4832
5045
5161
5177
5120
4993
4781
4513
4294
4232
4342
4543
4766
5011
5297
5564
5678
5539
5159
4626
4013
3338
2641
2056
1787
1951
2469
3096
3607
3948
4224
4527
4817
4959
4884
4659
4429
4304
4315
4438
4617
4784
4888
4936
4969
4988
4933
4774
4610
4603
4795
5016
5039
4809
4513
4392
4504
4693
4785
4771
4793
4971
5272
5547
5683
5698
5669
5600
5401
5036
4666
4544
4754
5065
5151
4945
4725
4784
5076
5274
5166
4914
4845
5020
5171
5040
4718
4524
4601
4741
4657
4344
4076
4075
4251
4313
4116
3813
3670
3794
4057
4269
4374
4462
4628
4847
5009
5040
4970
4882
4829
4797
4746
4654
4516
4341
4158
4022
3994
4084
4230
4332
4317
4184
3998
3852
3814
3894
4039
4180
4271
4306
4317
4358
4469
4636
4752
4655
4276
3753
3358
3264
3383
3465
3382
3277
3411
3840
4323
4543
4414
4146
4003
4031
4054
3914
3669
3536
3657
3959
4233
4322
4239
4123
4109
4227
4373
4395
4230
3985
3846
3903
4046
4095
4024
4005
4193
4520
4769
4819
4775
4812
4947
5028
4926
4671
4384
4149
3972
3856
3844
3983
4259
4606
4941
5187
5288
5259
5191
5175
5211
5213
5116
4981
4940
5065
5284
5458
5500
5415
5255
5081
4960
4946
5022
5056
4912
4615
4375
4382
4594
4765
4724
4580
4583
4796
4996
4953
4728
4610
4739
4930
4902
4631
4359
4284
4345
4376
4377
4511
4829
5133
5181
4975
4758
4720
4803
4804
4634
4404
4285
4335
4497
4696
4876
4972
4926
4744
4536
4451
4536
4699
4802
4791
4720
4664
4643
4639
4645
4686
4760
4808
4778
4679
4568
4474
4386
4319
4341
4492
4701
4840
4863
4862
4953
5114
5208
5142
4956
4752
4573
4400
4254
4201
4270
4393
4478
4531
4636
4815
4970
4989
4877
4753
4707
4713
4701
4657
4635
4665
4697
4640
4463
4231
4056
4025
4144
4344
4539
4705
4881
5101
5313
5401
5306
5089
4849
4631
4441
4323
4347
4477
4547
4430
4207
4102
4212
4391
4432
4330
4265
4348
4474
4476
4356
4283
4354
4443
4345
4009
3612
3382
3391
3545
3711
3833
3929
4032
4136
4215
4261
4287
4311
4349
4396
4450
4501
4529
4519
4489
4496
4587
4738
4855
4876
4832
4804
4824
4851
4831
4753
4652
4561
4502
4510
4614
4784
4926
4964
4919
4866
4844
4792
4635
4399
4234
4268
4487
4764
4984
5119
5206
5236
5131
4811
4268
3583
2846
2113
1426
889
661
854
1424
2167
2850
3360
3747
4123
4539
4931
5166
5127
4821
4422
4187
4278
4624
4962
5073
4961
4804
4738
4767
4815
4852
4882
4865
4756
4628
4674
4973
5314
5350
4989
4553
4460
4766
5096
5070
4729
4469
4581
4941
5175
5083
4815
4661
4720
4830
4804
4632
4484
4515
4715
4935
5032
4993
4933
4964
5071
5136
5065
4885
4703
4543
4312
3963
3633
3561
3819
4189
4382
4352
4338
4560
4940
5172
5053
4685
4345
4205
4205
4188
4108
4064
4171
4422
4686
4823
4794
4673
4559
4483
4418
4343
4296
4315
4367
4376
4311
4230
4209
4239
4237
4162
4080
4091
4210
4371
4521
4659
4774
4802
4674
4419
4143
3916
3720
3525
3379
3371
3515
3722
3897
4019
4122
4213
4251
4206
4090
3932
3772
3669
3682
3812
3980
4105
4186
4275
4374
4414
4366
4306
4306
4321
4228
4011
3826
3820
3956
4082
4148
4258
4508
4814
5000
5003
4924
4880
4875
4846
4771
4672
4554
4400
4250
4208
4324
4502
4607
4627
4684
4858
5064
5150
5076
4947
4878
4880
4888
4875
4870
4896
4934
4958
4982
5026
5077
5093
5056
4989
4924
4883
4869
4875
4872
4814
4676
4508
4413
4438
4509
4504
4408
4360
4505
4825
5133
5252
5173
5035
4965
4961
4922
4772
4547
4373
4354
4490
4689
4851
4950
5021
5097
5148
5114
4967
4744
4523
4381
4365
4458
4563
4565
4453
4357
4426
4641
4783
4652
4306
4041
4095
4408
4701
4784
4724
4727
4886
5099
5193
5095
4880
4673
4567
4574
4649
4719
4732
4708
4728
4846
5008
5087
5008
4817
4620
4468
4339
4206
4085
4016
4014
4056
4126
4214
4301
4379
4469
4610
4794
4949
4988
4890
4715
4569
4529
4606
4740
4836
4835
4783
4784
4878
4980
4977
4866
4764
4773
4861
4924
4926
4936
5005
5072
5037
4892
4741
4665
4623
4534
4395
4310
4357
4473
4514
4437
4360
4419
4590
4697
4610
4391
4254
4338
4564
4725
4708
4574
4469
4473
4542
4575
4520
4401
4291
4247
4282
4373
4486
4588
4660
4701
4729
4780
4863
4926
4879
4670
4352
4069
3942
3972
4052
4088
4110
4234
4506
4814
4975
4917
4754
4656
4667
4681
4606
4479
4407
4407
4398
4329
4274
4346
4570
4849
5060
5133
5061
4891
4750
4802
5098
5467
5644
5532
5322
5275
5419
5544
5480
5310
5218
5223
5145
4888
4637
4667
4980
5250
5190
4897
4744
4936
5274
5383
5109
4634
4215
3908
3567
3047
2374
1746
1417
1533
2023
2610
3012
3195
3418
3942
4701
5303
5395
5019
4566
4403
4581
4892
5128
5253
5367
5533
5690
5718
5564
5307
5112
5083
5168
5218
5154
5062
5096
5283
5474
5483
5285
5033
4889
4866
4866
4837
4835
4923
5046
5081
4995
4909
4950
5075
5116
4993
4841
4860
5069
5239
5132
4776
4447
4394
4574
4709
4591
4313
4178
4396
4870
5289
5424
5330
5244
5293
5383
5340
5142
4925
4785
4656
4445
4231
4237
4548
4933
-947
-970
-969
-931
-842
-702
-541
-409
-352
-376
-447
-509
-529
-516
-508
-537
-605
-696
-792
-883
-955
-1006
-1061
-1161
-1314
-1449
-1464
-1316
-1072
-853
-734
-689
-626
-473
-227
52
284
411
433
400
359
317
244
111
-73
-281
-497
-715
-899
-976
-895
-695
-486
-349
-244
-73
183
416
490
386
219
103
30
-95
-308
-547
-737
-891
-1067
-1251
-1330
-1227
-1029
-924
-1007
-1176
-1244
-1150
-1008
-971
-1060
-1160
-1149
-1013
-826
-675
-607
-639
-759
-922
-1056
-1112
-1107
-1108
-1164
-1260
-1339
-1357
-1324
-1274
-1233
-1213
-1214
-1241
-1284
-1310
-1284
-1207
-1119
-1071
-1078
-1107
-1111
-1077
-1051
-1092
-1216
-1365
-1455
-1451
-1398
-1373
-1403
-1441
-1411
-1292
-1123
-962
-833
-730
-648
-604
-621
-699
-812
-929
-1028
-1111
-1183
-1249
-1302
-1343
-1388
-1457
-1550
-1631
-1665
-1641
-1593
-1552
-1510
-1428
-1297
-1157
-1067
-1051
-1074
-1086
-1070
-1065
-1119
-1234
-1345
-1368
-1273
-1115
-973
-884
-811
-697
-528
-339
-175
-67
-37
-111
-304
-587
-897
-1178
-1412
-1611
-1776
-1878
-1876
-1757
-1559
-1344
-1174
-1079
-1053
-1064
-1072
-1060
-1033
-1017
-1031
-1064
-1084
-1065
-1012
-954
-916
-903
-905
-920
-945
-972
-987
-981
-947
-885
-815
-767
-753
-730
-618
-382
-87
137
197
115
-16
-126
-213
-312
-439
-576
-697
-777
-805
-785
-737
-690
-677
-723
-839
-1005
-1166
-1265
-1289
-1290
-1332
-1422
-1501
-1512
-1461
-1405
-1395
-1437
-1515
-1606
-1687
-1720
-1674
-1552
-1405
-1291
-1240
-1229
-1209
-1142
-1024
-886
-776
-731
-752
-808
-867
-911
-941
-963
-995
-1059
-1169
-1305
-1420
-1485
-1516
-1560
-1644
-1733
-1743
-1595
-1265
-791
-239
360
1014
1692
2239
2427
2152
1577
1039
740
570
249
-332
-955
-1279
-1180
-864
-647
-665
-805
-884
-830
-715
-658
-722
-885
-1070
-1206
-1268
-1297
-1367
-1513
-1707
-1893
-2027
-2105
-2132
-2094
-1978
-1814
-1665
-1580
-1554
-1534
-1484
-1415
-1355
-1313
-1260
-1171
-1062
-994
-1020
-1134
-1264
-1319
-1250
-1086
-911
-807
-807
-876
-958
-1004
-1003
-970
-919
-851
-769
-690
-643
-649
-697
-750
-783
-811
-871
-990
-1144
-1275
-1333
-1315
-1261
-1213
-1188
-1170
-1143
-1101
-1055
-1028
-1027
-1036
-1027
-982
-910
-836
-775
-724
-673
-623
-593
-586
-587
-571
-536
-497
-466
-435
-392
-349
-340
-380
-435
-440
-364
-251
-178
-190
-270
-362
-417
-406
-340
-264
-249
-319
-409
-398
-235
-12
115
81
-19
-44
38
133
138
54
-43
-93
-99
-88
-74
-53
-34
-34
-55
-82
-94
-92
-105
-165
-271
-388
-473
-517
-555
-632
-739
-810
-784
-675
-571
-570
-698
-892
-1050
-1120
-1141
-1208
-1377
-1582
-1682
-1592
-1381
-1201
-1141
-1149
-1121
-1034
-959
-949
-969
-958
-921
-909
-930
-909
-765
-524
-313
-251
-338
-476
-580
-653
-761
-935
-1131
-1267
-1292
-1216
-1090
-974
-921
-948
-1008
-1028
-988
-958
-1035
-1212
-1360
-1355
-1209
-1049
-965
-919
-813
-630
-464
-402
-430
-467
-476
-491
-556
-641
-673
-612
-498
-391
-315
-245
-164
-100
-101
-172
-275
-371
-467
-589
-738
-870
-934
-922
-872
-834
-840
-895
-979
-1063
-1119
-1135
-1117
-1086
-1056
-1035
-1023
-1008
-963
-882
-792
-742
-744
-756
-710
-573
-380
-204
-100
-89
-153
-257
-365
-456
-533
-620
-721
-807
-830
-767
-639
-500
-390
-323
-292
-290
-312
-357
-419
-494
-579
-667
-745
-788
-772
-690
-560
-424
-311
-220
-135
-52
-1
-16
-84
-147
-161
-152
-187
-298
-438
-532
-570
-615
-727
-885
-1013
-1058
-1049
-1047
-1079
-1121
-1135
-1116
-1081
-1049
-1026
-1011
-999
-972
-904
-786
-640
-517
-458
-477
-556
-661
-757
-820
-853
-891
-972
-1093
-1205
-1253
-1225
-1164
-1130
-1152
-1214
-1285
-1340
-1359
-1355
-1361
-1399
-1449
-1452
-1354
-1145
-842
-457
14
586
1266
2008
2670
3038
2955
2484
1918
1538
1362
1154
703
70
-467
-701
-680
-618
-683
-910
-1250
-1622
-1910
-1984
-1799
-1463
-1175
-1063
-1078
-1071
-962
-807
-741
-854
-1120
-1421
-1631
-1681
-1580
-1387
-1173
-1001
-909
-905
-956
-1015
-1042
-1028
-994
-971
-975
-996
-1009
-990
-940
-892
-879
-902
-927
-921
-887
-865
-879
-902
-886
-822
-751
-720
-733
-758
-781
-813
-859
-892
-887
-860
-862
-916
-985
-1006
-954
-864
-800
-793
-819
-818
-736
-585
-436
-364
-365
-364
-303
-216
-194
-286
-449
-606
-718
-795
-854
-897
-922
-943
-961
-958
-921
-867
-829
-809
-768
-665
-513
-365
-266
-225
-219
-217
-206
-185
-86
-291
-400
-475
-482
-440
-399
-383
-361
-289
-148
48
261
435
504
427
227
-21
-256
-486
-753
-1049
-1289
-1372
-1281
-1090
-888
-716
-574
-459
-395
-414
-517
-680
-858
-1003
-1087
-1112
-1109
-1106
-1108
-1106
-1100
-1107
-1140
-1191
-1235
-1245
-1215
-1159
-1105
-1068
-1042
-1020
-1007
-1020
-1073
-1159
-1263
-1375
-1487
-1590
-1667
-1706
-1713
-1688
-1619
-1492
-1324
-1167
-1084
-1096
-1169
-1252
-1311
-1350
-1387
-1420
-1415
-1346
-1221
-1088
-1002
-976
-985
-1004
-1045
-1141
-1286
-1409
-1430
-1336
-1203
-1117
-1091
-1067
-1009
-950
-961
-1050
-1149
-1194
-1187
-1172
-1154
-1096
-984
-869
-807
-790
-757
-681
-617
-640
-752
-879
-950
-964
-975
-1016
-1072
-1114
-1137
-1158
-1177
-1167
-1098
-986
-885
-838
-829
-791
-684
-542
-450
-459
-538
-609
-632
-636
-680
-775
-872
-922
-930
-940
-974
-994
-948
-840
-742
-730
-801
-878
-891
-846
-802
-800
-818
-809
-770
-732
-717
-709
-681
-633
-600
-614
-677
-759
-828
-862
-853
-818
-788
-785
-790
-752
-641
-493
-386
-369
-420
-465
-454
-401
-360
-363
-394
-405
-369
-294
-209
-128
-54
-8
-25
-119
-258
-392
-508
-649
-844
-1057
-1209
-1266
-1275
-1307
-1367
-1412
-1410
-1384
-1383
-1416
-1449
-1446
-1401
-1323
-1223
-1119
-1044
-1033
-1083
-1146
-1177
-1180
-1194
-1252
-1335
-1393
-1381
-1303
-1207
-1153
-1163
-1216
-1275
-1322
-1370
-1417
-1411
-1273
-978
-580
-157
277
793
1431
2073
2462
2382
1856
1165
633
366
205
-86
-559
-1022
-1232
-1138
-921
-824
-939
-1181
-1412
-1561
-1630
-1635
-1569
-1445
-1321
-1243
-1183
-1076
-901
-738
-707
-845
-1067
-1236
-1288
-1263
-1244
-1263
-1286
-1272
-1233
-1221
-1260
-1319
-1339
-1296
-1217
-1157
-1150
-1193
-1255
-1309
-1344
-1356
-1338
-1270
-1150
-1015
-916
-883
-893
-900
-889
-894
-957
-1062
-1149
-1173
-1144
-1106
-1076
-1041
-995
-961
-957
-974
-980
-968
-969
-1004
-1056
-1082
-1058
-1001
-941
-896
-867
-846
-821
-779
-727
-702
-744
-851
-965
-1023
-1011
-971
-950
-950
-939
-891
-825
-781
-777
-792
-794
-786
-808
-890
-997
-1053
-1007
-895
-799
-761
-750
-710
-637
-582
-579
-610
-630
-631
-651
-720
-810
-861
-842
-787
-756
-767
-780
-745
-653
-539
-448
-396
-380
-394
-433
-488
-541
-585
-634
-706
-793
-864
-892
-891
-904
-948
-996
-1006
-990
-1023
-1170
-1401
-1592
-1641
-1573
-1515
-1561
-1668
-1716
-1637
-1487
-1375
-1363
-1428
-1516
-1588
-1626
-1617
-1569
-1519
-1504
-1524
-1537
-1501
-1429
-1375
-1381
-1435
-1495
-1523
-1520
-1504
-1476
-1425
-1358
-1321
-1368
-1497
-1632
-1683
-1636
-1565
-1556
-1617
-1670
-1638
-1525
-1407
-1356
-1379
-1424
-1433
-1391
-1323
-1270
-1254
-1265
-1288
-1316
4189
4089
4026
3911
3759
3649
3635
3706
3808
3899
3951
3933
3829
3651
3458
3316
3255
3268
3333
3420
3495
3521
3511
3533
3648
3823
3929
3855
3629
3407
3325
3374
3425
3379
3272
3235
3356
3592
3804
3866
3774
3639
3593
3701
3906
4077
4137
4122
4145
4245
4336
4309
4164
3997
3849
3664
3413
3209
3217
3439
3673
3747
3707
3712
3776
3728
3477
3204
3196
3503
3884
4103
4208
4425
4814
5136
5100
4676
4131
3764
3635
3581
3453
3292
3260
3428
3691
3892
4000
4101
4193
4139
3829
3374
3064
3084
3322
3487
3357
2906
2277
1703
1426
1558
1953
2301
2436
2536
2937
3716
4540
4966
4858
4447
4042
3757
3549
3388
3309
3322
3350
3330
3300
3344
3468
3568
3529
3345
3099
2870
2712
2665
2749
2925
3067
3065
2945
2843
2843
2852
2726
2478
2310
2402
2704
2987
3118
3215
3531
4197
5108
6009
6659
6928
6824
6458
5960
5421
4864
4285
3708
3177
2752
2510
2518
2753
3020
3040
2703
2214
1927
2010
2295
2492
2519
2550
2788
3225
3659
3912
3946
3825
3622
3386
3161
2994
2896
2863
2878
2916
2942
2918
2854
2807
2797
2773
2673
2533
2477
2575
2738
2806
2714
2569
2528
2634
2812
2973
3084
3135
3111
3028
2976
3041
3184
3254
3163
3006
2969
3124
3344
3460
3427
3342
3296
3262
3165
3007
2894
2913
2999
2978
2790
2597
2633
2914
3162
3107
2808
2607
2704
2883
2768
2314
1921
1998
2502
3007
3204
3209
3346
3742
4210
4491
4516
4378
4186
3991
3844
3799
3842
3879
3841
3771
3769
3859
3945
3932
3860
3847
3930
3984
3879
3678
3593
3721
3902
3904
3732
3636
3753
3878
3683
3173
2771
2853
3300
3614
3492
3163
3101
3475
3999
4268
4172
3909
3712
3632
3592
3539
3492
3472
3455
3415
3374
3394
3498
3623
3665
3561
3352
3164
3107
3179
3291
3366
3404
3454
3517
3540
3484
3383
3320
3339
3418
3493
3522
3506
3466
3418
3374
3337
3304
3277
3261
3258
3263
3263
3266
3298
3361
3416
3423
3399
3410
3482
3548
3517
3397
3310
3361
3510
3610
3572
3473
3466
3598
3746
3772
3682
3632
3736
3950
4130
4196
4186
4162
4112
3984
3783
3580
3427
3300
3168
3080
3126
3319
3559
3734
3825
3883
3938
3955
3900
3801
3716
3657
3605
3567
3593
3712
3868
3959
3950
3902
3891
3920
3930
3889
3833
3820
3865
3923
3957
3985
4054
4176
4293
4332
4284
4218
4208
4250
4269
4204
4069
3940
3864
3818
3756
3677
3608
3557
3505
3450
3431
3472
3527
3520
3463
3469
3638
3925
4183
4316
4371
4426
4457
4326
3963
3486
3114
2988
3068
3215
3335
3434
3561
3725
3869
3919
3834
3625
3354
3088
2872
2721
2640
2640
2723
2859
2987
3052
3046
3019
3017
3032
3013
2944
2886
2922
3048
3140
3055
2772
2415
2132
1979
1934
1986
2171
2512
2943
3336
3590
3688
3666
3564
3413
3253
3136
3110
3212
3479
3947
4607
5340
5913
6109
5872
5357
4813
4392
4060
3675
3173
2671
2380
2423
2720
3038
3148
2974
2630
2313
2148
2106
2076
1992
1915
1957
2164
2466
2753
2969
3133
3263
3335
3308
3194
3064
2999
3020
3076
3094
3042
2954
2890
2880
2916
2971
3038
3113
3176
3198
3161
3080
2984
2890
2804
2739
2716
2731
2735
2682
2593
2557
2643
2817
2974
3060
3126
3249
3412
3503
3448
3288
3128
3009
2872
2671
2475
2432
2649
3107
3680
4230
4671
4975
5147
5192
5092
4820
4385
3867
3393
3059
2885
2839
2903
3076
3330
3582
3749
3822
3863
3917
3949
3895
3758
3624
3566
3557
3515
3415
3341
3394
3569
3765
3891
3970
4081
4259
4449
4575
4615
4599
4563
4512
4455
4420
4439
4502
4564
4566
4476
4307
4106
3943
3874
3919
4032
4123
4109
3990
3890
3976
4294
4686
4894
4808
4619
4659
5063
5596
5869
5720
5347
5079
5042
5092
5027
4819
4602
4499
4517
4576
4620
4633
4612
4538
4417
4289
4199
4159
4142
4119
4099
4109
4163
4238
4293
4300
4272
4239
4211
4175
4127
4092
4096
4136
4180
4198
4193
4190
4201
4218
4229
4230
4227
4225
4231
4257
4305
4351
4365
4345
4333
4376
4484
4624
4740
4792
4770
4689
4591
4515
4458
4381
4259
4113
4003
3966
3999
4072
4149
4178
4101
3924
3774
3815
4074
4381
4536
4525
4539
4744
5082
5325
5325
5157
5016
5015
5103
5169
5166
5121
5072
5025
4958
4867
4772
4686
4601
4519
4448
4395
4334
4204
3965
3660
3407
3312
3379
3526
3667
3791
3949
4183
4482
4783
5010
5113
5084
4977
4890
4899
5002
5126
5198
5211
5207
5214
5208
5153
5048
4940
4882
4893
4973
5119
5314
5497
5580
5501
5266
4941
4591
4250
3942
3698
3538
3445
3369
3282
3223
3250
3353
3439
3417
3314
3273
3403
3654
3849
3875
3811
3844
4071
4376
4557
4542
4458
4492
4698
4972
5178
5282
5341
5396
5402
5272
4971
4535
4047
3597
3251
3060
3041
3187
3484
3918
4472
5134
5893
6687
7342
7592
7268
6511
5761
5425
5509
5621
5381
4822
4368
4396
4862
5344
5448
5116
4598
4194
4036
4061
4135
4162
4126
4073
4071
4159
4314
4465
4532
4468
4279
4022
3798
3721
3825
4016
4113
4010
3785
3635
3674
3830
3955
4005
4071
4222
4384
4421
4308
4172
4140
4200
4230
4174
4118
4195
4425
4670
4761
4653
4467
4369
4419
4526
4548
4440
4287
4209
4239
4318
4374
4403
4444
4506
4548
4536
4484
4443
4445
4473
4471
4393
4245
4089
3994
3983
4011
4030
4056
4160
4379
4650
4855
4945
4988
5077
5212
5302
5281
5198
5171
5262
5420
5559
5643
5707
5780
5851
5890
5883
5824
5696
5488
5232
5000
4832
4707
4579
4456
4386
4396
4458
4521
4576
4641
4713
4742
4699
4620
4579
4615
4695
4760
4785
4783
4787
4820
4890
4978
5043
5042
4975
4892
4843
4838
4849
4846
4831
4819
4807
4785
4742
4676
4583
4476
4378
4309
4262
4206
4129
4058
4033
4050
4068
4051
4013
3999
4022
4051
4053
4030
4005
3989
3968
3931
3898
3903
3957
4027
4059
4038
4004
4002
4011
3956
3799
3617
3558
3685
3901
4051
4096
4143
4292
4490
4578
4483
4293
4137
4042
3942
3822
3779
3905
4167
4428
4580
4635
4657
4659
4594
4426
4177
3909
3679
3515
3422
3387
3395
3439
3521
3632
3739
3816
3868
3930
4022
4126
4209
4262
4302
4330
4326
4289
4251
4260
4318
4384
4421
4439
4469
4520
4559
4549
4478
4365
4229
4088
3971
3918
3953
4049
4145
4194
4193
4164
4112
4020
3894
3783
3737
3759
3805
3857
3943
4102
4308
4480
4552
4529
4467
4412
4377
4366
4393
4452
4512
4541
4545
4569
2094
1887
1571
1116
612
221
56
80
139
97
-66
-266
-422
-511
-566
-614
-665
-713
-746
-739
-668
-542
-414
-356
-407
-550
-720
-840
-863
-797
-705
-676
-781
-1034
-1365
-1648
-1771
-1710
-1532
-1330
-1142
-933
-671
-386
-169
-81
-105
-185
-282
-376
-423
-365
-213
-71
-31
-61
-6
221
505
595
354
-86
-473
-651
-666
-675
-763
-891
-962
-915
-775
-632
-555
-550
-598
-755
-1168
-1930
-2881
-3625
-3811
-3424
-2774
-2149
-1517
-625
631
1970
2915
3189
2901
2364
1802
1243
676
192
-53
-9
226
493
681
785
878
1002
1110
1051
704
170
-226
-221
69
225
-10
-431
-598
-387
-147
-251
-621
-835
-678
-415
-412
-651
-763
-498
-17
351
516
675
997
1379
1569
1453
1160
882
698
557
388
208
101
96
141
172
191
258
362
383
217
-92
-365
-477
-459
-384
-254
-48
130
103
-133
-320
-215
66
104
-347
-1046
-1500
-1481
-1219
-1079
-1152
-1216
-1034
-607
-141
161
240
151
-15
-193
-340
-423
-427
-387
-349
-335
-307
-226
-112
-31
-24
-92
-248
-553
-1034
-1584
-2039
-2344
-2577
-2751
-2666
-2078
-1035
78
895
1438
2009
2742
3341
3356
2672
1676
912
616
604
550
352
180
246
541
855
990
941
831
729
599
415
261
251
386
554
651
671
646
577
461
354
335
364
318
152
-7
-4
141
243
186
53
-16
-38
-150
-382
-566
-536
-366
-286
-382
-447
-224
287
849
1298
1676
2083
2462
2650
2599
2439
2285
2090
1725
1156
456
-308
-1078
-1690
-1872
-1521
-899
-426
-236
-48
474
1269
1890
1958
1520
948
552
375
299
248
226
239
248
244
274
383
526
611
589
483
364
286
269
319
422
529
557
473
344
275
287
298
248
200
274
472
643
642
498
378
393
492
550
525
486
494
525
512
433
348
330
370
395
336
231
195
278
389
397
315
317
494
619
281
-644
-1700
-2166
-1748
-917
-492
-823
-1429
-1464
-554
834
1822
1903
1332
808
823
1288
1718
1731
1349
898
668
700
831
912
902
833
728
589
468
445
556
740
885
925
883
819
761
717
717
800
945
1055
1039
905
757
680
675
701
746
830
953
1054
1069
996
895
822
767
672
498
279
105
49
111
229
331
392
432
475
518
532
488
381
235
99
21
19
63
107
137
181
251
303
273
164
48
-13
-35
-78
-152
-202
-186
-131
-99
-92
-61
-11
-46
-255
-572
-798
-790
-616
-486
-528
-657
-665
-431
-53
235
246
-6
-308
-394
-159
260
596
685
580
448
379
325
201
-17
-301
-623
-959
-1262
-1441
-1437
-1284
-1117
-1093
-1259
-1501
-1648
-1626
-1544
-1571
-1726
-1866
-1848
-1725
-1687
-1823
-1999
-2026
-1911
-1876
-2107
-2533
-2847
-2767
-2282
-1680
-1338
-1441
-1815
-2047
-1840
-1304
-885
-958
-1490
-2062
-2266
-2038
-1644
-1407
-1453
-1668
-1822
-1715
-1299
-710
-184
139
350
645
1094
1526
1669
1425
956
501
156
-140
-444
-722
-913
-1007
-1029
-984
-873
-765
-782
-972
-1231
-1388
-1361
-1210
-1060
-978
-943
-895
-793
-633
-473
-405
-497
-708
-900
-932
-779
-538
-334
-216
-157
-104
-47
-7
9
45
152
347
588
808
965
1055
1099
1111
1093
1055
1030
1045
1063
1031
970
980
1123
1315
1395
1297
1124
995
879
658
339
107
121
300
405
351
308
468
770
950
851
584
365
266
194
81
-4
47
244
516
807
1089
1307
1361
1210
949
710
507
250
-115
-496
-721
-711
-542
-355
-223
-129
-50
7
22
18
42
88
103
62
23
78
258
487
653
716
727
751
800
844
870
906
975
1054
1096
1071
992
888
781
676
574
469
366
283
245
252
262
235
179
138
130
112
30
-116
-259
-345
-392
-445
-499
-494
-398
-261
-176
-162
-148
-64
62
123
49
-125
-306
-438
-524
-578
-584
-519
-399
-257
-108
51
209
325
361
329
279
249
242
244
258
301
379
479
577
659
712
724
698
649
599
561
537
525
529
552
594
647
697
721
708
668
632
631
671
726
758
752
721
680
633
566
474
381
330
348
416
477
478
407
292
170
55
-50
-144
-229
-308
-377
-398
-329
-169
15
146
209
231
231
200
142
89
68
63
45
37
96
256
501
840
1325
1965
2609
2989
2938
2547
2069
1676
1342
962
567
360
527
1009
1517
1764
1711
1554
1479
1438
1221
750
225
-55
7
230
372
377
357
390
416
340
178
36
-27
-32
-6
92
326
679
1031
1262
1338
1305
1227
1141
1076
1067
1101
1101
976
730
484
364
381
431
437
433
500
619
663
541
321
165
130
109
-13
-166
-151
110
430
538
383
183
175
369
581
659
627
614
706
882
1065
1168
1128
938
652
341
39
-224
-352
-234
113
503
737
812
903
1121
1369
1447
1297
1061
908
878
900
922
953
1016
1113
1234
1378
1524
1604
1574
1488
1446
1483
1557
1624
1692
1796
1919
1983
1916
1753
1604
1539
1545
1571
1596
1634
1692
1747
1775
1770
1727
1640
1531
1469
1527
1693
1872
1989
2060
2141
2232
2288
2300
2322
2364
2340
2169
1919
1769
1812
1963
2076
2109
2125
2172
2222
2248
2269
2285
2201
1934
1567
1309
1266
1325
1331
1315
1465
1845
2261
2456
2405
2310
2338
2419
2374
2160
1926
1829
1883
1988
2063
2096
2087
2032
1962
1938
1991
2065
2091
2078
2102
2209
2346
2431
2453
2461
2473
2446
2348
2223
2162
2199
2284
2355
2396
2434
2477
2498
2475
2430
2415
2464
2561
2661
2729
2759
2769
2776
2782
2773
2734
2675
2634
2635
2665
2682
2670
2650
2640
2619
2550
2448
2381
2393
2437
2428
2359
2308
2340
2411
2423
2350
2263
2232
2235
2208
2130
2056
2047
2109
2192
2248
2270
2291
2351
2445
2508
2464
2322
2198
2209
2333
2413
2326
2130
2009
2083
2302
2531
2728
2976
3391
4012
4781
5555
6136
6323
6037
5417
4771
4336
4099
3840
3401
2871
2505
2476
2711
2962
3020
2850
2559
2285
2112
2051
2069
2123
2191
2274
2382
2504
2611
2679
2702
2675
2583
2434
2281
2211
2282
2465
2668
2796
2808
2726
2600
2491
2448
2489
2586
2677
2704
2654
2571
2511
2501
2533
2572
2588
2574
2553
2571
2662
2798
2899
2897
2825
2792
2885
3055
3160
3105
2949
2835
2834
2887
2893
2831
2771
2783
2852
2915
2948
2977
3024
3060
3033
2943
2870
2891
2987
3055
3023
2933
2902
2976
3060
3021
2851
2692
2679
2791
2892
2907
2914
3024
3223
3380
3398
3317
3241
3214
3190
3126
3037
2961
2910
2879
2886
2967
3119
3281
3384
3410
3407
3434
3504
3572
3573
3472
3312
3179
3135
3177
3246
3289
3281
3216
3114
3033
3052
3194
3367
3400
3184
2795
2454
2353
2515
2803
3060
3249
3444
3701
3935
3960
3646
3053
2380
1793
1300
823
369
68
45
256
534
755
957
1243
1596
1867
1956
1984
2180
2593
3029
3289
3431
3673
4069
4402
4402
4071
3680
3446
3330
3164
2920
2745
2760
2895
2938
2743
2376
2066
2008
2189
2382
2348
2065
1735
1560
1535
1497
1351
1164
1041
979
914
841
832
898
920
802
587
402
297
213
122
77
90
87
3
-66
70
449
830
878
514
-3
-341
-415
-404
-495
-669
-748
-613
-317
-8
217
353
419
399
282
116
-1
-10
56
119
132
108
100
150
254
377
446
385
183
-51
-158
-76
105
265
417
685
1112
1574
1911
2137
2409
2779
3031
2862
2236
1496
1063
1050
1188
1146
861
572
548
825
1180
1331
1163
800
471
303
268
273
291
353
439
464
400
383
526
686
523
-96
-838
-1168
-907
-423
-193
-254
-203
262
951
1397
1387
1151
1029
1089
1118
941
631
388
310
330
332
279
225
238
327
429
462
376
206
45
-31
-18
30
63
58
12
-63
-138
-169
-129
-36
57
118
168
231
271
215
42
-157
-264
-235
-137
-47
35
166
371
606
800
918
963
947
878
764
638
540
504
534
600
665
723
802
923
1050
1106
1062
976
938
973
1024
1036
1030
1066
1158
1245
1269
1251
1250
1276
1292
1283
1295
1371
1472
1499
1415
1311
1299
1372
1413
1331
1178
1103
1182
1337
1430
1414
1371
1390
1428
1318
948
397
-112
-401
-480
-495
-537
-530
-307
207
895
1531
1938
2080
2031
1887
1707
1505
1270
993
706
487
404
473
621
743
812
841
817
715
578
526
622
777
842
789
748
821
918
866
651
457
433
502
481
350
288
418
618
663
496
297
291
510
791
943
892
753
774
1107
1628
1978
1865
1372
915
817
979
1030
738
205
-329
-727
-960
-1003
-845
-599
-492
-659
-963
-1109
-943
-596
-340
-333
-509
-658
-586
-228
317
821
1084
1074
931
815
764
694
542
300
-14
-333
-543
-542
-357
-183
-190
-327
-396
-328
-311
-535
-881
-1008
-749
-323
-58
16
209
781
1624
2367
2735
2736
2539
2283
2027
1798
1594
1351
1000
570
230
138
275
451
469
289
26
-174
-256
-276
-313
-382
-433
-419
-343
-250
-167
-96
-38
-33
-120
-277
-409
-427
-324
-182
-88
-63
-59
-24
36
75
80
107
234
454
649
680
536
343
239
237
229
121
-62
-207
-233
-165
-84
-46
-37
-21
18
54
51
11
-26
-18
28
68
75
69
93
147
186
159
59
-76
-198
-258
-215
-51
187
406
539
601
650
704
709
613
433
241
95
-6
-73
-94
-46
60
172
242
271
304
365
428
450
427
399
410
453
487
486
478
504
562
599
571
502
456
471
519
543
526
509
545
635
728
762
719
641
578
545
517
464
384
302
240
207
203
228
269
290
269
221
194
208
235
230
187
144
133
143
139
110
71
43
24
4
-19
-43
-62
-72
-70
-59
-57
-71
-86
-75
-34
6
12
-13
-32
-24
-3
5
-5
-19
-31
-41
-29
38
161
283
336
315
282
293
330
331
270
185
133
134
163
190
214
264
369
515
649
713
699
659
656
684
691
656
635
692
811
898
888
824
778
755
693
567
436
375
374
354
270
157
64
-19
-129
-273
-410
-505
-564
-597
-577
-452
-209
86
311
377
297
188
161
192
129
-141
-548
-869
-946
-851
-811
-966
-1234
-1393
-1300
-1001
-658
-389
-181
64
443
925
1313
1363
979
333
-227
-466
-472
-573
-1009
-1676
-2211
-2337
-2115
-1863
-1852
-2096
-2414
-2626
-2645
-2465
-2143
-1809
-1622
-1644
-1746
-1738
-1594
-1490
-1593
-1862
-2087
-2113
-1978
-1822
-1717
-1656
-1630
-1647
-1757
-1731
-1733
-1721
-1684
-1529
-1183
-744
-452
-451
-613
-688
-603
-540
-692
-983
-1116
-917
-519
-210
-108
-91
-10
103
103
-50
-223
-279
-229
-166
-95
82
392
679
729
531
297
240
341
423
388
341
438
689
955
1126
1223
1315
1408
1455
1441
1431
1483
1573
1643
1672
1693
1736
1783
1807
1819
1858
1929
1991
2010
2003
2020
2066
2087
2019
1862
1694
1612
1633
1686
1680
1587
1478
1444
1510
1608
1648
1612
1571
1608
1731
1872
1965
1996
1995
1992
2004
2032
2067
2079
2035
1942
1855
1824
1835
1814
1715
1572
1462
1407
1362
1285
1195
1143
1134
1129
1099
1066
1062
1068
1020
892
735
636
617
618
566
467
390
390
450
497
485
434
405
424
445
402
284
159
106
135
169
132
34
-43
-34
34
75
44
-23
-54
-27
15
22
0
27
70
80
56
43
79
146
193
198
200
243
320
382
402
405
438
505
566
597
612
637
660
656
618
574
544
519
472
398
327
286
268
254
227
192
159
130
104
80
64
59
64
69
72
82
115
171
226
247
228
197
199
251
327
385
408
414
433
464
478
445
360
247
137
65
69
191
451
833
1307
1864
2522
3258
3933
4314
4218
3670
2903
2191
1656
1225
769
279
-105
-220
-32
317
604
655
438
55
-336
-619
-778
-872
-960
-1043
-1065
-974
-786
-571
-414
-354
-392
-498
-626
-718
-714
-610
-472
-385
-378
-412
-467
-566
-727
-865
-839
-611
-324
-150
-68
144
660
1362
1902
1995
1638
1048
451
-68
-555
-1094
-1721
-2355
-2808
-2886
-2561
-2028
-1572
-1354
-1319
-1300
-1196
-1042
-930
-903
-937
-975
-956
-843
-643
-413
-228
-134
-123
-160
-231
-314
-346
-239
21
326
512
520
437
418
545
782
1024
1163
1136
954
716
545
476
413
225
-97
-418
-573
-524
-363
-216
-148
-155
-191
-202
-149
-50
24
8
-84
-174
-195
-154
-101
-66
-38
-8
8
-13
-60
-91
-75
-26
13
15
-8
-24
-29
-50
-112
-202
-276
-306
-316
-353
-433
-526
-595
-635
-674
-725
-774
-799
-806
-819
-853
-899
-943
-992
-1061
-1148
-1239
-1315
-1374
-1421
-1462
-1503
-1545
-1588
-1627
-1654
-1670
-1678
-1686
-1693
-1700
-1700
-1687
-1649
-1589
-1525
-1478
-1449
-1421
-1377
-1317
-1253
-1189
-1124
-1058
-995
-935
-867
-790
-725
-697
-703
-708
-676
-616
-565
-546
-534
-487
-400
-311
-260
-250
-251
-241
-225
-222
-231
-239
-233
-225
-228
-242
-257
-268
-281
-308
-353
-407
-454
-485
-501
-510
-519
-530
-543
-551
-555
-558
-566
-580
-588
-584
-568
-551
-543
-534
-517
-495
-478
-473
-468
-447
-408
-359
-307
-261
-236
-246
-297
-383
-493
-618
-731
-780
-713
-511
-190
237
795
1517
2351
3107
3528
3468
3007
2410
1923
1592
1274
819
256
-212
-394
-282
-53
79
-3
-269
-602
-868
-988
-972
-910
-893
-932
-952
-880
-729
-592
-549
-614
-745
-890
-1016
-1092
-1095
-1024
-908
-795
-728
-729
-791
-883
-957
-966
-901
-796
-707
-673
-687
-712
-714
-684
-637
-595
-572
-561
-552
-542
-535
-532
-531
-531
-532
-527
-506
-465
-417
-386
-380
-385
-385
-382
-384
-386
-374
-339
-298
-269
-254
-231
-189
-141
-112
-110
-117
-114
-99
-90
-102
-124
-129
-101
-46
11
49
75
111
171
239
284
292
287
294
312
323
317
316
341
387
428
453
478
521
576
619
638
645
653
655
634
593
556
545
549
536
496
458
463
523
605
658
665
648
651
691
737
740
680
602
575
624
690
694
613
515
490
553
622
603
490
372
338
386
435
422
368
338
348
345
274
144
17
-73
-155
-266
-379
-421
-370
-287
-241
-232
-209
-158
-135
-182
-252
-257
-196
-160
-184
-145
117
570
957
1030
812
565
489
519
437
160
-152
-289
-221
-85
12
102
247
397
425
305
179
198
323
352
143
-213
-472
-484
-325
-179
-139
-141
-68
120
351
516
557
482
316
64
-261
-622
-954
-1198
-1312
-1276
-1103
-844
-571
-318
-54
264
615
903
1075
1221
1510
1998
2524
2822
2738
2337
1806
1287
816
370
-51
-399
-621
-682
-571
-305
38
328
436
329
121
6
111
374
648
899
1274
1946
2852
3644
3974
3800
3413
3131
3001
2801
2330
1645
1013
640
496
386
159
-199
-624
-1055
-1438
-1701
-1796
-1765
-1717
-1717
-1702
-1526
-1133
-664
-381
-443
-772
-1134
-1358
-1485
-1680
-1976
-2163
-1967
-1328
-508
109
318
206
10
-120
-213
-392
-720
-1112
-1381
-1359
-1029
-523
-18
381
655
800
799
676
528
465
509
579
599
596
655
809
993
1110
1113
1028
924
871
904
1018
1179
1344
1473
1544
1554
1517
1469
1456
1498
1584
1674
1744
1805
1882
1978
2062
2093
2075
2060
2096
2167
2216
2208
2169
2142
2128
2094
2037
2015
2066
2144
2178
2173
2231
2411
2609
2648
2487
2290
2258
2402
2537
2485
2259
2025
1935
1996
2106
2151
2098
2009
1977
2050
2191
2311
2347
2310
2258
2229
2226
2226
2209
2153
2055
1947
1883
1904
1988
2056
2054
2012
2010
2093
2213
2256
2156
1958
1779
1716
1770
1839
1810
1650
1417
1212
1100
1074
1075
1052
1002
947
917
935
1020
1173
1354
1485
1511
1450
1388
1389
1441
1490
1505
1509
1543
1613
1696
1779
1860
1924
1947
1920
1868
1831
1829
1845
1860
1880
1922
1970
1988
1968
1944
1958
1995
1994
1944
1920
1982
2074
2065
1913
1739
1687
1737
1727
1551
1307
1187
1258
1405
1468
1422
1370
1433
1637
1909
2136
2242
2243
2245
2351
2540
2662
2579
2322
2082
2013
2070
2088
1963
1759
1619
1612
1684
1740
1730
1668
1607
1583
1599
1611
1575
1517
1535
1685
1841
1723
1131
187
-675
-1041
-830
-284
328
983
1884
3166
4634
5804
6218
5777
4803
3776
2970
2323
1620
802
83
-240
-82
336
677
742
565
288
5
-276
-546
-725
-729
-571
-364
-214
-109
37
232
357
283
42
-165
-152
68
309
395
327
223
168
136
80
33
76
216
349
365
273
176
153
181
199
195
229
347
531
713
837
889
865
782
673
571
481
377
261
190
232
376
523
589
588
597
647
688
669
610
586
627
688
722
749
835
1000
1187
1322
1382
1401
1410
1419
1431
1457
1498
1533
1537
1523
1534
1584
1647
1698
1758
1867
2036
2229
2407
2549
2629
2611
2484
2304
2151
2045
1923
1733
1534
1459
1578
1813
2010
2092
2118
2181
2296
2387
2384
2295
2188
2107
2041
1975
1933
1951
2018
2071
2066
2029
2023
2072
2133
2159
2155
2160
2178
2161
2075
1944
1826
1745
1684
1614
1536
1452
1353
1228
1098
1002
955
925
868
786
716
680
668
644
587
504
413
333
275
239
199
135
58
8
32
134
266
377
457
535
631
730
793
804
785
772
791
834
865
858
811
757
731
736
741
717
671
642
654
704
781
875
979
1061
1101
1112
1123
1141
1140
1097
1026
961
909
866
857
927
1065
1176
1174
1105
1120
1296
1522
1607
1505
1362
1324
1363
1321
1126
895
787
811
837
764
660
662
795
933
945
848
776
812
895
905
818
736
738
761
691
527
413
447
513
349
-185
-918
-1469
-1542
-1145
-536
-21
279
507
953
1778
2785
3449
3303
2351
1091
114
-355
-561
-876
-1431
-2030
-2363
-2294
-1938
-1565
-1413
-1552
-1885
-2218
-2404
-2410
-2305
-2201
-2195
-2299
-2425
-2420
-2188
-1787
-1417
-1277
-1418
-1689
-1849
-1762
-1502
-1284
-1273
-1425
-1515
-1352
-953
-534
-314
-327
-421
-435
-335
-206
-138
-139
-171
-192
-186
-132
-2
215
450
573
520
393
381
585
907
1159
1272
1352
1502
1646
1602
1324
1013
926
1091
1302
1373
1343
1399
1616
1868
2002
2008
1995
2027
2048
1984
1877
1854
1997
2262
2517
2671
2739
2809
2964
3187
3368
3404
3310
3205
3182
3208
3196
3131
3088
3132
3217
3249
3220
3222
3316
3436
3447
3305
3096
2932
2828
2723
2581
2452
2410
2451
2495
2481
2432
2432
2513
2626
2688
2665
2595
2541
2532
2558
2597
2629
2639
2629
2600
2553
2497
2499
2645
2954
3300
3501
3502
3465
3584
3841
3976
3747
3167
2446
1747
1062
328
-408
-1012
-1401
-1606
-1667
-1567
-1274
-848
-434
-152
-22
-2
-45
-126
-221
-302
-364
-421
-470
-472
-390
-233
-55
87
158
158
116
84
111
207
327
404
416
403
418
468
513
522
521
568
691
845
962
1008
1009
1013
1043
1080
1102
1105
1113
1139
1177
1211
1235
1247
1246
1234
1215
1193
1170
1142
1111
1090
1088
1091
1076
1037
1007
1019
1065
1101
1094
1067
1079
1164
1286
1371
1374
1313
1243
1203
1183
1136
1025
845
630
424
258
137
56
4
-32
-70
-102
-97
-34
52
88
42
-6
86
378
797
1247
1734
2345
3084
3766
4138
4084
3712
3256
2887
2631
2387
2030
1530
1030
784
940
1342
1593
1373
720
-20
-516
-733
-880
-1148
-1513
-1795
-1829
-1590
-1189
-790
-507
-360
-316
-320
-324
-299
-235
-154
-107
-127
-185
-191
-70
156
381
520
578
653
818
1019
1113
1014
805
670
701
795
769
561
275
35
-166
-424
-767
-1089
-1264
-1277
-1213
-1138
-1032
-835
-553
-261
-35
94
125
63
-57
-174
-237
-252
-264
-287
-289
-222
-98
7
17
-69
-179
-250
-276
-296
-331
-354
-320
-196
14
285
562
771
838
741
522
271
51
-146
-363
-609
-811
-859
-709
-424
-109
172
399
543
537
351
51
-231
-411
-504
-553
-545
-419
-155
184
491
703
813
837
780
647
466
286
150
71
36
24
33
70
128
182
200
176
131
82
19
-77
-195
-281
-292
-229
-143
-91
-102
-171
-274
-367
-420
-431
-437
-476
-551
-631
-674
-670
-643
-630
-654
-707
-763
-803
-831
-860
-899
-934
-943
-920
-877
-833
-792
-758
-737
-734
-736
-722
-677
-612
-552
-512
-480
-443
-403
-378
-379
-398
-409
-396
-362
-322
-287
-264
-245
-221
-172
-97
-19
8
-53
-191
-346
-449
-473
-444
-398
-348
-277
-165
-12
153
285
337
293
171
18
-121
-228
-313
-395
-478
-553
-598
-603
-575
-547
-550
-585
-625
-643
-639
-636
-644
-647
-628
-600
-595
-624
-658
-663
-634
-590
-541
-482
-422
-394
-435
-548
-696
-836
-946
-1010
-994
-852
-558
-120
433
1104
1892
2716
3359
3558
3206
2480
1734
1220
894
523
-23
-596
-909
-820
-462
-117
9
-102
-344
-595
-772
-844
-835
-801
-789
-793
-763
-664
-521
-396
-349
-415
-591
-822
-1006
-1044
-926
-737
-593
-541
-542
-544
-541
-557
-592
-602
-542
-431
-349
-364
-464
-574
-623
-602
-563
-547
-545
-511
-421
-303
-206
-157
-148
-157
-168
-172
-166
-157
-160
-183
-211
-222
-212
-197
-189
-183
-168
-151
-150
-170
-182
-157
-94
-22
23
25
-3
-21
7
81
156
175
133
79
61
72
72
47
20
19
36
53
70
103
146
164
129
57
-5
-22
-13
-17
-45
-73
-66
-19
44
95
135
186
249
282
251
197
205
291
319
85
-448
-1047
-1386
-1347
-1125
-986
-972
-860
-440
247
955
1501
1913
2316
2718
2952
2841
2369
1697
1052
502
-56
-710
-1370
-1807
-1887
-1692
-1414
-1131
-791
-398
-96
49
296
1055
2399
3847
4748
4888
4628
4447
4428
4247
3586
2457
1150
4
-728
-900
-533
141
768
1114
1220
1303
1501
1694
1661
1319
837
504
469
635
778
760
600
372
115
-158
-404
-559
-607
-583
-513
-383
-203
-52
-27
-111
-171
-109
11
29
-118
-345
-554
-764
-1064
-1457
-1824
-2050
-2162
-2279
-2457
-2627
-2693
-2657
-2610
-2613
-2637
-2627
-2568
-2503
-2470
-2459
-2417
-2310
-2156
-2000
-1878
-1800
-1748
-1689
-1596
-1481
-1377
-1307
-1257
-1193
-1102
-1004
-933
-896
-868
-813
-713
-582
-459
-389
-381
-397
-393
-388
-445
-579
-709
-711
-551
-319
-98
157
580
1217
1924
2453
2656
2568
2316
2004
1695
1430
1215
1011
774
547
462
586
791
837
597
186
-149
-279
-290
-331
-427
-458
-326
-77
147
252
257
228
184
83
-95
-297
-418
-389
-236
-72
28
87
174
301
376
298
101
-67
-95
-27
-9
-142
-404
-696
-922
-1033
-1035
-985
-955
-958
-914
-721
-384
-37
185
275
338
441
539
546
447
316
226
193
189
198
231
295
366
409
404
365
336
352
393
405
367
332
375
506
659
771
835
872
874
820
745
726
781
819
739
570
469
544
736
888
934
951
1017
1089
1060
929
830
881
1045
1174
1189
1166
1234
1426
1648
1771
1744
1614
1468
1381
1387
1467
1569
1643
1653
1581
1452
1318
1221
1179
1163
1142
1137
1205
1375
1601
1778
1796
1589
1157
604
128
-103
-83
37
129
255
593
1186
1829
2230
2262
2045
1764
1497
1215
896
591
367
230
137
83
114
223
336
369
269
73
-126
-281
-421
-601
-818
-981
-1003
-927
-934
-1158
-1514
-1728
-1603
-1240
-949
-926
-1060
-1067
-795
-359
10
192
241
255
262
233
159
70
-5
-81
-189
-314
-375
-298
-89
168
361
421
382
347
398
520
627
636
555
472
459
494
481
358
169
23
-20
-17
-75
-234
-416
-508
-472
-380
-337
-375
-430
-431
-381
-351
-399
-490
-539
-498
-399
-315
-277
-251
-194
-107
-21
31
58
92
160
246
298
269
157
-7
-198
-431
-710
-970
-1083
-950
-582
-71
518
1200
2000
2826
3448
3644
3368
2802
2219
1796
1511
1224
847
438
162
143
343
584
669
516
195
-133
-328
-351
-261
-157
-103
-87
-49
48
177
267
261
167
45
-45
-89
-104
-107
-87
-32
40
86
74
17
-46
-76
-56
13
108
184
194
136
68
57
109
159
149
91
53
68
91
57
-35
-118
-129
-81
-36
-34
-54
-53
-18
26
47
33
-1
-37
-65
-84
-95
-100
-102
-102
-102
-103
-105
-105
-105
-98
-86
-78
-78
-73
-42
18
75
97
93
103
150
198
188
115
53
87
233
412
520
517
455
423
461
526
534
453
350
345
501
749
946
1023
1057
1172
1362
1476
1386
1140
942
940
1077
1176
1138
1021
963
1036
1188
1297
1265
1082
834
651
608
657
685
644
593
591
594
499
285
75
4
53
68
-57
-238
-300
-184
-13
42
-61
-223
-346
-456
-660
-991
-1334
-1512
-1441
-1207
-993
-923
-954
-929
-711
-329
32
162
-3
-328
-601
-701
-666
-619
-665
-842
-1116
-1363
-1413
-1165
-721
-340
-230
-338
-403
-234
81
283
230
38
-71
-16
95
154
183
267
409
537
625
721
845
901
802
644
668
965
1310
1373
1078
683
481
503
547
450
232
-6
-206
-346
-351
-161
137
324
256
39
-68
71
327
456
343
83
-147
-250
-265
-263
-257
-200
-56
143
317
421
493
601
760
894
907
792
652
609
690
809
861
821
739
672
620
540
432
360
399
580
883
1291
1826
2513
3291
3973
4322
4212
3738
3161
2709
2408
2115
1711
1250
922
861
1031
1271
1429
1450
1353
1191
1044
987
1041
1143
1202
1186
1150
1171
1266
1383
1450
1421
1293
1100
914
808
807
865
914
915
870
781
639
463
308
236
250
298
319
293
245
209
206
237
286
331
360
383
419
470
508
502
451
386
334
306
294
293
287
262
214
161
126
106
76
20
-51
-102
-117
-114
-123
-153
-182
-174
-120
-48
-4
0
-2
38
129
227
281
297
324
402
516
613
660
672
691
752
847
943
1013
1055
1096
1150
1210
1249
1257
1251
1256
1278
1297
1294
1273
1262
1281
1322
1353
1349
1321
1305
1331
1388
1433
1431
1382
1325
1298
1308
1328
1330
1303
1261
1223
1198
1181
1159
1127
1078
1012
930
837
742
647
552
464
398
357
315
235
110
-21
-116
-182
-282
-456
-661
-804
-845
-841
-878
-966
-1038
-1040
-1001
-982
-994
-1004
-1009
-1048
-1111
-1110
-987
-835
-803
-877
-830
-484
7
247
5
-508
-870
-901
-818
-935
-1283
-1598
-1627
-1373
-1039
-793
-647
-527
-395
-287
-254
-314
-431
-544
-616
-643
-649
-642
-600
-499
-356
-220
-124
-57
11
88
163
238
335
461
575
613
548
428
337
312
319
296
221
124
41
-38
-133
-248
-345
-401
-439
-506
-599
-658
-642
-594
-623
-783
-1009
-1171
-1205
-1168
-1169
-1253
-1366
-1411
-1337
-1180
-1024
-947
-980
-1089
-1193
-1225
-1181
-1137
-1177
-1309
-1448
-1501
-1461
-1405
-1395
-1404
-1329
-1097
-714
-229
338
1018
1818
2640
3267
3457
3106
2354
1513
839
352
-122
-718
-1342
-1735
-1732
-1432
-1117
-1024
-1193
-1499
-1792
-1980
-2045
-2017
-1938
-1839
-1722
-1562
-1347
-1108
-909
-802
-808
-907
-1042
-1144
-1154
-1061
-895
-708
-535
-405
-352
-387
-460
-465
-326
-92
96
130
32
-78
-120
-133
-212
-380
-560
-655
-640
-567
-509
-498
-518
-540
-547
-546
-556
-591
-643
-690
-713
-716
-711
-700
-673
-630
-590
-570
-572
-580
-581
-573
-564
-555
-540
-515
-485
-460
-448
-438
-416
-378
-340
-317
-310
-304
-292
-276
-259
-239
-210
-167
-114
-56
2
56
93
114
129
156
198
237
259
263
268
292
335
380
412
421
417
415
423
442
463
479
492
508
531
558
583
602
615
623
624
621
619
621
621
617
613
618
631
643
640
622
601
589
588
598
613
612
570
487
408
384
418
449
418
342
292
312
375
419
421
400
378
363
363
403
482
552
567
548
578
692
813
831
731
612
572
594
581
481
357
311
367
455
492
470
437
425
423
414
413
447
505
544
542
526
549
640
770
864
856
738
572
443
394
388
366
335
369
501
663
736
704
670
722
800
752
529
271
169
258
402
458
430
419
467
515
497
429
357
274
129
-74
-252
-341
-375
-432
-532
-613
-635
-661
-773
-951
-1069
-1046
-949
-921
-1013
-1137
-1174
-1105
-1008
-959
-959
-968
-963
-947
-924
-885
-838
-819
-850
-914
-968
-1001
-1055
-1173
-1337
-1460
-1460
-1327
-1091
-759
-277
435
1418
2647
4030
5396
6504
7117
7136
6683
6035
5425
4897
4350
3719
3114
2760
2809
3189
3639
3878
3772
3387
2900
2468
2124
1808
1463
1122
894
841
903
963
948
864
742
572
317
-19
-351
-549
-525
-308
-63
-18
-305
-819
-1286
-1500
-1519
-1593
-1870
-2235
-2449
-2430
-2334
-2340
-2450
-2513
-2439
-2311
-2280
-2383
-2520
-2574
-2532
-2473
-2470
-2516
-2538
-2462
-2270
-2032
-1857
-1808
-1854
-1897
-1847
-1690
-1499
-1370
-1358
-1428
-1483
-1437
-1293
-1153
-1111
-1155
-1176
-1091
-939
-829
-811
-817
-757
-623
-493
-430
-415
-385
-303
-203
-123
-69
-33
-5
33
105
207
276
234
90
-38
-32
91
177
116
-15
-22
189
496
686
670
559
528
645
817
907
855
718
608
611
728
883
983
983
912
837
808
814
798
734
645
581
564
572
567
535
506
499
488
433
332
233
174
145
101
27
-43
-88
-127
-195
-288
-359
-378
-358
-335
-325
-325
-348
-418
-521
-593
-577
-489
-409
-394
-408
-364
-210
14
206
284
231
99
-41
-140
-197
-249
-331
-439
-528
-550
-478
-336
-190
-94
-57
-48
-35
-25
-31
-25
41
170
279
286
208
148
177
251
281
250
231
276
349
389
403
465
601
739
786
745
724
809
970
1102
1153
1160
1183
1217
1216
1169
1122
1113
1122
1081
972
852
805
862
965
1014
944
777
614
557
624
708
673
501
322
289
401
509
478
333
220
229
322
395
403
389
407
457
506
539
568
604
648
673
643
546
431
379
434
557
661
740
928
1340
1917
2465
2825
2973
2945
2732
2339
1916
1674
1611
1418
802
-105
-781
-834
-432
-131
-280
-701
-949
-788
-365
23
213
217
105
-58
-195
-236
-188
-145
-195
-329
-443
-452
-371
-255
-136
-42
-17
-96
-248
-376
-393
-304
-196
-143
-136
-141
-169
-260
-408
-535
-566
-506
-433
-409
-420
-415
-372
-326
-336
-424
-544
-615
-584
-491
-447
-528
-683
-770
-704
-551
-472
-543
-679
-728
-641
-508
-441
-436
-403
-285
-141
-76
-106
-127
-32
160
311
315
211
144
200
319
379
340
284
310
408
475
436
330
259
261
272
211
94
31
109
312
541
714
827
918
1003
1059
1070
1045
1012
985
957
926
912
944
1019
1094
1115
1076
1030
1043
1122
1200
1204
1136
1072
1076
1136
1182
1170
1128
1115
1150
1199
1233
1261
1314
1394
1452
1446
1387
1338
1344
1387
1397
1344
1275
1262
1323
1394
1394
1310
1203
1140
1133
1144
1137
1108
1078
1062
1057
1058
1067
1085
1105
1113
1102
1079
1069
1099
1170
1249
1290
1273
1224
1193
1208
1249
1271
1247
1190
1136
1107
1105
1120
1136
1139
1113
1063
1021
1021
1074
1144
1183
1171
1131
1105
1106
1110
1081
1017
949
916
935
990
1061
1136
1203
1251
1262
1242
1227
1241
1267
1267
1231
1192
1181
1201
1240
1323
1489
1715
1884
1887
1739
1567
1465
1387
1218
939
666
531
538
584
587
563
570
621
651
589
440
273
153
72
-29
-174
-321
-398
-395
-385
-418
-422
-220
302
1038
1690
1950
1705
1108
467
20
-251
-584
-1196
-2009
-2647
-2738
-2246
-1508
-925
-626
-439
-118
403
963
1343
1405
1168
789
435
202
72
-46
-239
-552
-937
-1249
-1320
-1114
-791
-537
-305
212
1252
2608
3688
3987
3484
2573
1638
755
-225
-1399
-2666
-3790
-4510
-4627
-4110
-3143
-2091
-1275
-792
-547
-430
-439
-629
-956
-1268
-1419
-1371
-1177
-912
-627
-363
-183
-159
-307
-546
-727
-739
-588
-382
-228
-148
-96
-36
5
-17
-80
-100
-18
129
245
274
247
217
196
172
164
226
368
515
587
589
611
723
902
1054
1136
1184
1266
1386
1494
1555
1587
1627
1689
1768
1871
2023
2213
2375
2456
2474
2493
2525
2487
2307
2029
1789
1675
1625
1525
1368
1250
1247
1331
1416
1461
1501
1581
1694
1788
1830
1831
1823
1877
2094
2562
3245
3929
4337
4343
4100
3926
4025
4296
4423
4153
3503
2736
2146
1872
1832
1776
1453
804
66
-373
-305
86
394
360
86
-133
-117
51
178
165
25
-211
-517
-825
-1021
-1019
-858
-665
-558
-574
-660
-732
-726
-638
-518
-411
-319
-220
-134
-121
-203
-294
-277
-140
-10
-12
-125
-216
-197
-128
-120
-193
-265
-258
-174
-73
11
83
152
206
235
252
270
290
300
307
336
397
473
532
567
605
664
730
768
763
742
737
752
759
739
718
726
764
794
794
779
775
776
754
700
630
560
489
407
321
241
166
82
-11
-92
-147
-195
-263
-363
-475
-572
-645
-699
-745
-789
-835
-870
-878
-851
-810
-779
-767
-755
-729
-700
-686
-679
-664
-647
-655
-695
-731
-724
-676
-638
-662
-752
-876
-1013
-1167
-1344
-1516
-1633
-1645
-1526
-1268
-879
-374
242
970
1751
2409
2696
2476
1871
1191
682
327
-42
-508
-940
-1125
-977
-621
-262
-51
-30
-162
-368
-551
-620
-524
-260
134
586
991
1234
1246
1030
630
83
-586
-1319
-1987
-2430
-2534
-2288
-1792
-1207
-683
-309
-82
42
105
129
120
94
74
68
73
94
139
210
287
322
273
138
-32
-161
-198
-152
-86
-64
-113
-222
-369
-534
-699
-844
-948
-1005
-1016
-986
-921
-836
-754
-705
-693
-703
-703
-681
-638
-587
-535
-483
-429
-375
-321
-269
-222
-185
-164
-164
-178
-190
-188
-168
-134
-99
-73
-58
-43
-20
5
15
2
-26
-46
-47
-40
-46
-69
-99
-122
-140
-155
-167
-170
-163
-157
-154
-139
-98
-40
13
50
84
135
201
267
318
364
414
471
526
575
619
659
688
703
704
695
677
656
640
631
620
592
544
490
448
421
391
337
259
182
131
107
87
45
-12
-50
-47
-27
-34
-85
-150
-184
-175
-155
-168
-218
-270
-288
-270
-245
-241
-258
-280
-290
-292
-292
-290
-277
-252
-228
-213
-197
-167
-128
-97
-84
-74
-53
-28
-22
-42
-68
-82
-87
-102
-129
-150
-151
-144
-147
-157
-153
-128
-99
-87
-95
-109
-123
-145
-176
-203
-216
-220
-232
-250
-250
-215
-166
-137
-145
-166
-168
-142
-111
-97
-102
-111
-110
-98
-83
-75
-81
-102
-136
-180
-228
-278
-332
-403
-494
-596
-679
-731
-765
-813
-879
-931
-939
-916
-906
-927
-952
-945
-915
-900
-919
-940
-925
-886
-872
-899
-924
-890
-806
-732
-718
-751
-789
-809
-842
-937
-1106
-1307
-1468
-1531
-1479
-1317
-1041
-626
-53
655
1410
2068
2470
2514
2217
1725
1226
824
484
121
-272
-581
-688
-582
-377
-223
-214
-355
-581
-790
-890
-865
-794
-774
-822
-857
-797
-654
-526
-498
-576
-708
-825
-874
-829
-706
-572
-498
-493
-514
-529
-562
-658
-800
-901
-891
-794
-704
-687
-715
-719
-671
-616
-609
-644
-668
-636
-560
-494
-467
-456
-416
-333
-261
-283
-423
-588
-643
-550
-445
-524
-825
-1168
-1312
-1200
-1013
-967
-1097
-1244
-1244
-1088
-888
-750
-703
-724
-783
-849
-883
-867
-829
-826
-892
-1004
-1105
-1149
-1130
-1084
-1047
-1022
-977
-895
-784
-658
-494
-263
16
276
490
733
1119
1655
2207
2618
2841
2930
2936
2855
2678
2447
2203
1941
1644
1372
1247
1329
1527
1674
1686
1624
1571
1506
1346
1074
792
622
579
569
519
467
504
652
817
875
785
610
435
284
138
-11
-142
-250
-356
-492
-644
-747
-782
-804
-892
-1053
-1221
-1364
-1520
-1728
-1939
-2054
-2074
-2104
-2190
-2185
-1860
-1185
-433
34
63
-226
-622
-1027
-1467
-2001
-2634
-3281
-3765
-3878
-3533
-2872
-2196
-1729
-1465
-1270
-1079
-952
-981
-1140
-1304
-1391
-1414
-1402
-1301
-1023
-557
-36
344
489
493
534
696
908
1045
1059
994
894
740
503
229
28
-34
18
120
250
440
707
1007
1259
1389
1374
1259
1126
1028
958
851
680
543
590
866
1226
1464
1493
1407
1339
1302
1176
884
506
207
79
87
157
267
441
662
857
959
974
969
993
1053
1116
1135
1067
896
679
496
370
243
36
-244
-499
-628
-604
-447
-186
117
343
376
243
106
91
130
25
-291
-632
-726
-489
-84
280
558
872
1335
1896
2357
2522
2347
1984
1679
1583
1632
1618
1394
1046
821
871
1098
1249
1158
884
617
475
434
421
420
472
597
755
897
1018
1155
1303
1390
1341
1173
1004
945
1005
1100
1160
1198
1269
1383
1480
1507
1478
1460
1488
1534
1545
1508
1454
1414
1387
1366
1370
1433
1560
1707
1812
1846
1842
1857
1916
1993
2041
2035
1988
1936
1912
1932
1986
2049
2088
2095
2109
2188
2337
2481
2510
2393
2214
2091
2054
2033
1948
1831
1805
1957
2232
2474
2567
2533
2474
2449
2409
2263
1992
1702
1540
1574
1733
1886
1974
2054
2196
2356
2401
2252
1991
1776
1689
1668
1620
1557
1555
1636
1729
1777
1813
1873
1861
1580
958
202
-329
-444
-273
-88
9
175
617
1327
2050
2515
2644
2560
2408
2227
1988
1692
1414
1240
1196
1254
1378
1548
1733
1873
1919
1872
1768
1648
1537
1452
1418
1458
1563
1674
1723
1688
1602
1517
1453
1393
1324
1267
1259
1303
1340
1310
1213
1121
1109
1182
1267
1277
1192
1068
984
970
992
990
938
876
872
951
1062
1130
1128
1106
1125
1182
1219
1213
1221
1308
1454
1553
1536
1461
1455
1562
1686
1700
1586
1453
1409
1464
1548
1606
1646
1698
1765
1828
1868
1891
1900
1888
1855
1815
1789
1781
1775
1749
1705
1663
1645
1657
1691
1739
1793
1849
1904
1957
2008
2053
2088
2108
2115
2115
2116
2125
2146
2181
2218
2239
2229
2194
2158
2130
2094
2034
1962
1915
1911
1927
1920
1877
1827
1808
1828
1860
1877
1876
1871
1874
1885
1898
1916
1941
1971
1989
1984
1964
1955
1974
2014
2046
2050
2026
1979
1899
1777
1633
1516
1463
1477
1555
1714
1970
2295
2642
3009
3453
3964
4362
4395
3989
3378
2918
2761
2737
2565
2162
1716
1474
1514
1704
1847
1825
1647
1399
1192
1094
1106
1170
1214
1203
1167
1153
1185
1242
1277
1251
1144
978
806
684
644
678
747
814
864
907
966
1039
1112
1171
1241
1362
1532
1676
1695
1574
1410
1344
1410
1509
1513
1383
1203
1084
1070
1116
1153
1134
1064
986
958
1013
1121
1205
1191
1080
946
881
916
999
1057
1053
1023
1031
1107
1201
1234
1170
1054
982
1005
1084
1117
1037
875
742
737
821
846
683
355
34
-102
-51
28
-8
-152
-313
-453
-607
-771
-844
-750
-592
-589
-826
-1105
-1139
-850
-459
-250
-288
-406
-407
-227
73
378
571
570
401
227
229
442
712
865
876
857
905
998
1053
1060
1100
1222
1361
1374
1183
885
705
780
976
968
561
-68
-489
-415
36
484
695
763
931
1297
1719
1994
2040
1903
1661
1379
1124
970
936
970
1002
1013
1018
1010
966
881
798
762
776
812
875
1018
1285
1659
2059
2385
2564
2580
2490
2389
2325
2247
2059
1745
1432
1295
1374
1546
1655
1678
1722
1865
2046
2135
2089
1984
1931
1947
1974
1977
1985
2033
2107
2162
2174
2154
2116
2057
1978
1908
1886
1908
1934
1926
1895
1876
1885
1913
1944
1968
1974
1961
1954
1992
2086
2187
2239
2239
2234
2250
2241
2138
1936
1701
1484
1260
962
579
199
-86
-261
-398
-557
-719
-809
-790
-712
-673
-720
-809
-854
-826
-775
-753
-753
-724
-639
-533
-442
-346
-193
5
151
153
35
-97
-166
-202
-275
-402
-540
-645
-712
-752
-768
-789
-845
-934
-975
-869
-593
-216
197
675
1290
2002
2610
2876
2703
2220
1670
1230
900
551
92
-403
-726
-720
-436
-101
57
-35
-277
-522
-672
-725
-727
-729
-736
-710
-606
-436
-273
-191
-189
-215
-241
-289
-373
-436
-399
-244
-55
65
84
53
23
3
-15
-15
40
144
239
275
258
243
251
263
252
236
252
302
339
324
279
262
295
338
344
309
275
273
287
285
269
270
309
363
391
386
378
398
435
448
423
397
412
463
504
510
505
525
562
571
525
461
435
461
496
497
465
431
412
404
401
402
391
344
261
194
195
248
292
295
300
351
424
458
445
455
548
707
883
1080
1336
1605
1736
1618
1309
981
730
495
175
-201
-497
-601
-519
-326
-81
171
376
487
517
525
537
513
404
230
70
-17
-35
-10
43
121
194
219
178
101
42
23
23
-2
-71
-164
-247
-303
-353
-422
-504
-566
-584
-577
-586
-632
-689
-720
-717
-706
-700
-687
-646
-587
-538
-511
-493
-463
-419
-377
-350
-336
-324
-300
-266
-241
-237
-256
-269
-246
-181
-113
-100
-156
-246
-313
-334
-335
-362
-428
-499
-626
-489
-407
-327
-276
-253
-232
-193
-139
-89
-68
-75
-75
-37
34
91
103
102
154
274
390
429
406
416
520
657
729
714
695
753
854
895
816
667
551
526
570
627
649
623
572
535
543
583
604
553
427
266
117
5
-68
-115
-152
-196
-254
-310
-340
-342
-339
-352
-384
-413
-424
-416
-400
-377
-354
-341
-352
-378
-391
-381
-373
-411
-507
-631
-750
-853
-937
-966
-871
-612
-208
291
883
1611
2462
3252
3678
3525
2869
2035
1350
898
525
64
-459
-843
-921
-708
-385
-158
-144
-344
-682
-1032
-1273
-1354
-1319
-1260
-1234
-1227
-1182
-1078
-956
-886
-915
-1042
-1215
-1364
-1427
-1374
-1229
-1055
-924
-880
-917
-1002
-1101
-1191
-1253
-1253
-1176
-1050
-943
-906
-931
-969
-978
-966
-957
-958
-956
-937
-907
-875
-839
-790
-736
-697
-677
-655
-608
-544
-505
-521
-572
-597
-562
-488
-431
-417
-423
-407
-358
-298
-256
-238
-237
-247
-265
-276
-265
-234
-201
-185
-190
-203
-207
-191
-155
-107
-67
-54
-72
-103
-119
-97
-32
57
140
188
198
202
238
308
374
394
364
324
307
323
351
377
403
427
441
442
445
474
518
531
471
351
237
187
193
206
200
202
253
347
437
494
535
593
655
685
675
666
696
742
750
701
641
621
634
618
543
439
360
324
312
305
308
321
320
287
239
214
210
169
46
-117
-219
-208
-138
-111
-173
-284
-385
-455
-518
-590
-671
-762
-867
-968
-1023
-1013
-988
-1031
-1172
-1342
-1443
-1447
-1409
-1385
-1369
-1301
-1147
-924
-670
-414
-177
13
151
283
487
784
1113
1385
1575
1725
1860
1942
1917
1796
1645
1510
1381
1241
1142
1169
1343
1573
1725
1739
1661
1567
1478
1372
1240
1103
975
876
898
1226
1998
3086
4063
4458
4108
3242
2215
1172
7
-1391
-2891
-4155
-4892
-5031
-4702
-4088
-3361
-2678
-2176
-1915
-1836
-1829
-1832
-1882
-2035
-2268
-2455
-2452
-2229
-1904
-1670
-1634
-1744
-1884
-1988
-2058
-2056
-1876
-1453
-891
-414
-169
-105
-79
-65
-180
-496
-897
-1184
-1311
-1437
-1715
-2062
-2232
-2089
-1759
-1464
-1225
-826
-89
863
1663
2013
1904
1560
1231
1040
992
982
849
523
163
109
571
1340
1873
1741
992
58
-654
-1062
-1344
-1685
-2109
-2486
-2641
-2444
-1903
-1205
-631
-381
-441
-622
-737
-727
-655
-576
-477
-318
-113
58
114
48
-61
-136
-162
-188
-273
-428
-614
-767
-836
-819
-777
-793
-910
-1095
-1266
-1350
-1319
-1195
-1039
-915
-855
-836
-799
-711
-621
-615
-719
-859
-922
-874
-778
-716
-700
-678
-611
-524
-470
-465
-469
-435
-362
-294
-264
-272
-310
-383
-505
-659
-789
-843
-811
-734
-659
-598
-530
-437
-326
-226
-169
-161
-179
-192
-186
-172
-163
-151
-106
-19
86
162
179
142
81
35
32
71
131
190
241
297
360
415
439
434
426
435
449
439
392
334
303
312
342
369
391
422
473
526
550
535
513
528
587
646
653
610
580
607
667
690
639
550
491
493
538
576
574
532
494
517
613
712
718
612
482
430
451
435
301
93
-79
-153
-147
-87
28
189
332
396
404
446
553
651
652
569
508
540
630
697
710
710
738
775
772
702
592
490
424
379
330
256
171
101
59
24
-31
-115
-213
-304
-376
-426
-450
-453
-437
-400
-349
-314
-332
-415
-521
-585
-577
-547
-575
-689
-839
-952
-993
-980
-927
-843
-754
-719
-786
-921
-1031
-1058
-1059
-1139
-1315
-1472
-1483
-1360
-1250
-1274
-1394
-1473
-1443
-1384
-1416
-1547
-1656
-1626
-1473
-1332
-1316
-1414
-1515
-1527
-1473
-1458
-1565
-1761
-1920
-1943
-1831
-1674
-1551
-1475
-1412
-1332
-1246
-1190
-1199
-1274
-1381
-1470
-1517
-1551
-1617
-1707
-1753
-1685
-1496
-1222
-877
-421
180
863
1462
1800
1803
1543
1180
867
660
505
303
25
-244
-362
-265
-49
95
28
-242
-586
-860
-999
-1026
-1011
-1007
-1019
-1007
-932
-800
-665
-589
-591
-647
-715
-763
-772
-726
-620
-479
-358
-306
-326
-380
-420
-426
-401
-353
-288
-222
-183
-185
-214
-230
-194
-118
-41
4
34
93
184
261
280
258
246
259
254
207
193
334
667
1086
1426
1587
1578
1446
1223
926
581
210
-174
-541
-808
-871
-702
-396
-101
102
233
351
466
522
489
398
307
249
210
184
194
262
377
493
578
630
652
625
562
537
620
775
865
792
629
550
643
816
919
921
920
1000
1119
1159
1048
832
607
440
337
271
210
130
33
-36
-19
88
210
243
175
114
183
377
556
587
515
524
755
1173
1586
1805
1778
1579
1328
1100
886
600
160
-405
-933
-1230
-1226
-1028
-826
-719
-665
-574
-434
-322
-309
-376
-441
-455
-448
-457
-451
-364
-173
53
197
203
119
25
-39
-91
-167
-269
-351
-375
-353
-349
-399
-455
-422
-290
-181
-257
-537
-863
-1053
-1075
-1064
-1166
-1397
-1650
-1806
-1808
-1693
-1571
-1568
-1736
-1989
-2163
-2165
-2069
-2030
-2108
-2204
-2192
-2053
-1885
-1792
-1776
-1772
-1772
-1853
-2064
-2297
-2365
-2204
-1966
-1879
-1984
-2055
-1829
-1303
-760
-504
-572
-743
-775
-633
-484
-519
-765
-1060
-1202
-1113
-912
-795
-844
-967
-1023
-995
-998
-1120
-1286
-1340
-1217
-1034
-959
-1027
-1118
-1101
-967
-827
-792
-870
-968
-982
-888
-746
-629
-554
-491
-412
-334
-308
-349
-415
-444
-401
-318
-250
-232
-259
-298
-318
-306
-271
-221
-132
47
364
834
1419
2061
2696
3241
3576
3580
3224
2634
2036
1605
1351
1156
919
671
547
652
947
1256
1383
1253
955
669
526
515
537
514
466
469
568
722
852
903
869
771
640
517
445
449
506
572
625
677
732
766
752
708
693
736
799
836
858
916
1004
1034
933
749
616
603
624
545
354
182
158
263
355
332
231
171
208
279
273
151
-22
-138
-153
-116
-102
-136
-183
-203
-211
-249
-334
-441
-537
-623
-712
-795
-836
-819
-766
-719
-692
-674
-651
-635
-649
-690
-724
-720
-673
-608
-558
-527
-495
-445
-376
-304
-244
-200
-162
-121
-70
-13
43
91
135
185
245
308
353
371
371
370
376
385
390
386
381
384
397
414
417
400
373
360
378
406
403
350
272
217
208
227
235
216
181
153
153
182
228
259
240
165
67
-9
-45
-66
-109
-179
-253
-306
-331
-334
-319
-298
-288
-304
-342
-380
-408
-423
-428
-423
-408
-403
-417
-425
-396
-336
-304
-336
-396
-398
-321
-244
-253
-336
-387
-338
-237
-195
-247
-325
-349
-321
-306
-341
-388
-397
-370
-351
-366
-387
-381
-352
-336
-350
-377
-383
-360
-328
-300
-269
-222
-160
-97
-46
-1
43
79
90
71
37
11
8
22
35
45
60
89
119
127
101
64
60
105
172
212
214
209
238
297
344
342
302
261
234
199
131
32
-62
-117
-128
-132
-174
-258
-342
-362
-302
-233
-248
-358
-470
-485
-415
-363
-397
-461
-466
-411
-394
-471
-571
-575
-469
-377
-410
-535
-617
-577
-476
-433
-504
-649
-801
-943
-1083
-1194
-1205
-1053
-728
-271
292
983
1808
2652
3258
3359
2901
2118
1367
837
443
-9
-568
-1057
-1257
-1121
-810
-553
-488
-626
-889
-1170
-1374
-1459
-1457
-1443
-1448
-1441
-1367
-1225
-1073
-976
-957
-1016
-1132
-1264
-1345
-1309
-1150
-940
-773
-697
-694
-718
-737
-744
-733
-692
-610
-492
-366
-271
-235
-254
-287
-286
-238
-176
-138
-119
-85
-20
47
81
90
117
182
257
304
321
338
373
404
407
392
390
412
431
427
409
403
422
447
458
451
436
424
423
426
413
362
278
199
176
223
300
351
357
355
396
485
577
614
578
505
449
434
444
445
421
390
373
377
391
405
421
442
456
448
415
377
352
341
336
337
348
356
341
308
289
316
370
396
368
322
313
351
391
398
379
370
385
409
422
423
415
390
341
282
241
227
226
218
202
191
188
183
167
143
122
105
91
79
78
90
105
115
114
112
114
120
124
129
143
167
191
204
207
213
230
247
245
220
191
184
198
212
206
192
200
245
307
352
373
389
425
477
518
538
554
587
635
672
682
677
685
720
769
804
817
821
838
878
920
930
900
864
877
952
1037
1063
1026
991
1022
1102
1155
1131
1068
1041
1076
1128
1144
1126
1118
1129
1130
1093
1047
1038
1069
1089
1050
981
959
1013
1073
1062
981
906
877
852
781
694
664
691
686
596
486
456
490
453
261
0
-158
-149
-69
-42
-92
-146
-147
-103
-46
-6
-4
-63
-169
-270
-318
-321
-335
-392
-481
-582
-716
-913
-1150
-1380
-1574
-1711
-1773
-1738
-1594
-1347
-991
-496
139
845
1445
1720
1533
955
295
-60
81
547
950
1033
892
821
971
1168
1085
545
-338
-1280
-2009
-2377
-2370
-2074
-1640
-1213
-859
-558
-249
92
399
556
480
192
-160
-388
-391
-217
-47
-45
-247
-556
-838
-1026
-1128
-1160
-1119
-1017
-932
-956
-1065
-1091
-852
-349
204
532
497
183
-207
-526
-806
-1212
-1867
-2661
-3268
-3386
-2997
-2386
-1894
-1649
-1552
-1470
-1379
-1343
-1397
-1510
-1645
-1800
-1956
-2033
-1935
-1667
-1371
-1226
-1305
-1531
-1746
-1826
-1745
-1540
-1255
-926
-587
-279
-54
40
-3
-108
-136
17
307
571
673
625
556
558
587
526
313
-10
-319
-512
-548
-456
-316
-201
-128
-62
35
156
247
254
174
43
-89
-163
-132
2
174
302
356
375
405
438
426
365
311
334
446
582
663
647
544
394
258
179
157
150
126
96
96
127
133
72
-35
-135
-208
-295
-435
-607
-739
-795
-809
-837
-893
-950
-986
-1022
-1092
-1203
-1318
-1388
-1390
-1338
-1258
-1169
-1063
-933
-795
-690
-646
-657
-682
-674
-617
-537
-482
-490
-565
-674
-771
-820
-813
-772
-731
-713
-723
-747
-755
-735
-710
-724
-803
-927
-1028
-1054
-998
-904
-818
-751
-689
-613
-521
-435
-380
-368
-386
-411
-427
-422
-394
-332
-226
-99
6
63
84
105
132
124
46
-74
-161
-165
-137
-180
-329
-484
-489
-292
-12
151
115
-25
-99
-34
89
134
49
-104
-233
-285
-262
-192
-107
-38
4
41
98
157
168
105
2
-89
-165
-251
-341
-375
-306
-147
52
250
428
559
614
605
571
533
455
288
54
-175
-329
-384
-325
-142
140
466
807
1224
1779
2391
2831
2909
2671
2345
2113
1971
1781
1442
992
579
331
273
314
315
193
-25
-245
-418
-560
-678
-737
-701
-616
-575
-603
-630
-578
-465
-396
-453
-613
-778
-873
-889
-867
-856
-865
-873
-860
-855
-908
-1020
-1114
-1096
-969
-853
-857
-939
-958
-843
-685
-630
-705
-795
-782
-692
-663
-771
-938
-1013
-935
-795
-730
-783
-880
-915
-864
-806
-823
-891
-903
-809
-681
-632
-677
-722
-700
-676
-748
-880
-894
-677
-333
-77
-1
-10
12
13
-155
-540
-1007
-1383
-1611
-1744
-1818
-1793
-1627
-1361
-1091
-876
-716
-589
-508
-493
-529
-565
-558
-498
-399
-275
-127
41
188
254
212
116
61
98
181
219
177
117
124
196
246
198
79
-5
17
119
215
259
272
300
361
442
522
587
624
624
598
571
563
563
547
508
468
444
429
410
391
386
394
397
387
382
408
459
491
459
379
312
295
302
274
196
120
126
252
481
766
1053
1269
1335
1217
978
729
525
316
26
-324
-588
-632
-454
-188
35
183
304
429
526
548
503
440
400
378
345
300
273
291
345
387
372
304
226
185
192
226
271
336
426
522
574
552
491
470
530
624
665
623
564
562
602
603
522
419
386
442
511
521
494
511
617
768
883
910
850
734
605
501
435
372
255
69
-116
-196
-156
-80
-58
-70
-9
179
396
474
365
200
147
221
273
151
-126
-388
-475
-355
-123
79
154
95
-5
-37
20
69
-17
-267
-545
-671
-565
-320
-117
-36
18
176
400
444
96
-530
-1010
-1005
-626
-319
-339
-443
-154
672
1595
1984
1629
893
316
89
-38
-413
-1070
-1703
-1999
-1938
-1770
-1716
-1757
-1735
-1594
-1465
-1474
-1561
-1563
-1432
-1315
-1347
-1469
-1500
-1360
-1127
-908
-738
-629
-623
-714
-758
-602
-324
-247
-584
-1132
-1436
-1273
-891
-694
-791
-909
-783
-478
-269
-300
-459
-570
-607
-644
-692
-658
-478
-216
-14
66
97
190
353
490
521
463
396
374
377
359
316
295
342
461
609
732
789
782
771
828
965
1117
1203
1225
1250
1317
1388
1402
1356
1300
1251
1168
1019
858
776
808
889
947
965
992
1064
1167
1269
1338
1356
1335
1322
1368
1470
1547
1533
1469
1464
1559
1685
1737
1713
1691
1725
1783
1807
1783
1724
1623
1476
1349
1345
1466
1579
1547
1390
1268
1291
1389
1399
1247
1007
792
652
568
515
487
473
450
400
338
295
295
321
326
264
127
-28
-112
-92
-30
-25
-109
-224
-294
-309
-322
-372
-445
-497
-513
-514
-531
-568
-614
-659
-700
-739
-782
-834
-896
-952
-985
-995
-1007
-1034
-1052
-1028
-966
-906
-876
-864
-835
-781
-722
-672
-620
-562
-522
-524
-538
-501
-397
-283
-230
-234
-219
-129
3
100
128
117
117
133
139
118
80
48
37
50
84
130
171
195
214
249
303
359
397
412
420
433
453
478
505
529
542
542
544
564
580
550
456
338
268
269
290
252
146
34
-19
-12
4
-22
-90
-169
-218
-223
-189
-146
-121
-118
-122
-121
-127
-147
-164
-147
-100
-73
-110
-194
-258
-265
-232
-187
-128
-57
-29
-102
-270
-438
-531
-582
-670
-793
-834
-665
-262
302
968
1718
2490
3116
3382
3182
2614
1924
1333
880
446
-77
-611
-927
-858
-506
-172
-106
-306
-585
-790
-915
-1025
-1124
-1154
-1083
-958
-837
-726
-601
-459
-345
-322
-419
-603
-794
-900
-875
-754
-635
-594
-634
-692
-714
-698
-674
-651
-604
-512
-398
-319
-324
-402
-494
-550
-570
-591
-639
-690
-706
-684
-665
-689
-758
-826
-849
-817
-766
-740
-748
-760
-737
-672
-603
-570
-574
-577
-545
-485
-437
-423
-430
-431
-414
-386
-357
-336
-331
-338
-334
-298
-242
-211
-239
-304
-350
-345
-320
-322
-356
-382
-366
-323
-293
-294
-305
-296
-261
-227
-223
-249
-277
-272
-222
-154
-114
-121
-158
-190
-199
-196
-203
-221
-235
-232
-211
-174
-130
-88
-62
-61
-74
-79
-65
-43
-32
-36
-37
-16
22
63
94
110
107
84
50
20
6
-1
-23
-72
-130
-174
-193
-204
-223
-255
-292
-330
-368
-411
-455
-497
-536
-568
-590
-605
-616
-630
-642
-644
-641
-644
-659
-674
-674
-661
-651
-651
-646
-629
-616
-631
-668
-690
-672
-638
-640
-691
-747
-752
-708
-666
-672
-717
-751
-751
-731
-719
-723
-728
-726
-717
-701
-675
-643
-619
-615
-623
-628
-629
-631
-638
-645
-643
-635
-627
-615
-590
-549
-498
-447
-396
-347
-298
-250
-203
-163
-145
-151
-151
-110
-33
34
47
14
-20
-25
-23
-49
-101
-152
-186
-231
-307
-394
-448
-462
-477
-533
-614
-669
-665
-626
-603
-615
-638
-634
-598
-554
-531
-533
-537
-522
-492
-466
-456
-453
-433
-389
-340
-312
-304
-290
-258
-232
-254
-340
-469
-609
-740
-847
-901
-853
-670
-349
90
640
1315
2092
2840
3327
3359
2942
2312
1747
1353
1016
589
87
-299
-402
-234
33
216
231
89
-159
-441
-668
-772
-753
-681
-631
-616
-581
-474
-301
-149
-110
-223
-431
-628
-730
-720
-642
-545
-461
-412
-428
-521
-662
-782
-822
-779
-706
-661
-659
-672
-671
-656
-646
-653
-653
-611
-522
-419
-348
-323
-317
-296
-263
-259
-319
-428
-536
-609
-650
-668
-652
-592
-514
-468
-480
-519
-549
-575
-632
-725
-812
-856
-861
-858
-851
-811
-729
-645
-598
-576
-530
-448
-353
-257
-126
83
346
593
802
1039
1387
1829
2248
2531
2668
2725
2753
2739
2653
2506
2360
2267
2222
2191
2161
2161
2222
2339
2453
2463
2345
2182
2039
1902
1698
1426
1202
1116
1113
1060
926
812
778
735
577
376
317
428
495
334
57
-44
120
309
246
-29
-213
-97
221
509
672
796
972
1168
1281
1253
1120
933
702
452
214
17
-109
-142
-80
61
247
443
609
707
716
652
561
476
387
268
123
-4
-58
-17
87
202
288
344
395
469
564
637
646
588
524
533
640
791
883
863
777
722
753
832
874
835
758
737
845
1085
1373
1592
1662
1599
1491
1424
1407
1393
1360
1349
1409
1528
1636
1691
1715
1755
1795
1763
1614
1402
1243
1212
1287
1384
1436
1439
1416
1395
1402
1417
1373
1219
1006
885
972
1205
1382
1366
1212
1079
1031
990
882
746
665
649
648
677
828
1117
1384
1427
1240
1025
978
1085
1181
1166
1104
1118
1234
1352
1377
1316
1224
1115
967
785
622
541
568
710
1010
1510
2163
2804
3264
3508
3617
3634
3481
3095
2586
2207
2107
2173
2153
1929
1638
1495
1551
1641
1560
1259
868
570
453
491
608
734
821
878
943
1043
1174
1276
1298
1249
1183
1140
1115
1074
1021
1016
1080
1162
1167
1044
850
716
747
916
1039
904
449
-158
-644
-852
-838
-744
-609
-327
205
940
1685
2255
2586
2727
2762
2726
2613
2414
2165
1934
1793
1796
1899
1978
1958
1902
1924
2054
2147
2043
1785
1597
1633
1794
1873
1827
1822
1977
2182
2225
2075
1920
1933
2073
2174
2170
2119
2076
2014
1917
1857
1929
2121
2340
2522
2651
2710
2653
2470
2266
2154
2090
1922
1591
1232
1072
1225
1576
1909
2080
2077
1978
1875
1825
1821
1778
1588
1229
840
636
719
967
1135
1098
954
884
917
900
702
402
217
296
584
886
1053
1097
1141
1271
1448
1553
1512
1378
1250
1149
1006
784
583
563
729
876
797
518
275
250
387
479
385
155
-59
-132
-39
141
270
234
44
-157
-210
-101
-2
-87
-327
-525
-530
-400
-324
-396
-513
-513
-379
-252
-257
-358
-423
-398
-348
-336
-331
-271
-173
-125
-149
-144
-11
205
347
318
183
94
133
247
323
298
194
85
36
64
129
169
159
130
138
198
276
339
391
460
539
590
583
545
522
527
522
475
403
355
351
355
309
208
112
82
111
130
80
-23
-99
-86
-3
82
125
147
194
269
331
344
328
332
378
435
456
438
420
439
491
546
590
626
645
619
538
435
346
264
146
-11
-114
-54
189
536
906
1311
1822
2425
2965
3238
3150
2782
2324
1928
1635
1386
1106
791
522
402
460
602
678
597
385
148
-27
-121
-160
-163
-132
-70
4
69
115
151
178
166
77
-87
-260
-356
-339
-255
-182
-149
-143
-148
-170
-214
-251
-240
-182
-129
-120
-130
-116
-63
-2
35
45
23
-45
-156
-260
-303
-295
-325
-445
-577
-563
-347
-60
85
7
-148
-150
56
288
309
108
-73
-25
184
262
44
-297
-435
-253
17
71
-126
-338
-327
-93
171
276
176
-61
-302
-396
-260
13
155
-55
-547
-966
-986
-622
-240
-210
-542
-885
-873
-470
-14
123
-126
-484
-624
-503
-363
-426
-645
-770
-644
-366
-165
-128
-121
14
241
362
274
100
56
187
306
219
-31
-178
-19
353
646
683
583
604
831
1070
1045
695
219
-122
-245
-272
-338
-429
-413
-226
15
146
167
256
543
893
983
684
264
135
395
724
759
509
295
327
486
531
424
332
358
401
342
237
244
377
469
399
248
196
293
418
460
439
439
489
542
565
577
603
635
654
662
676
691
692
680
681
711
762
817
861
880
858
803
751
741
773
800
791
767
774
820
857
832
753
683
674
721
770
780
753
722
717
731
732
693
613
517
432
368
317
260
176
54
-101
-247
-344
-398
-458
-571
-728
-863
-921
-908
-871
-849
-837
-817
-784
-743
-693
-633
-586
-582
-633
-701
-745
-752
-742
-733
-736
-762
-833
-949
-1069
-1144
-1158
-1136
-1084
-960
-711
-315
201
802
1436
1986
2275
2165
1687
1051
499
111
-217
-621
-1088
-1435
-1490
-1261
-944
-766
-813
-1003
-1191
-1294
-1322
-1317
-1296
-1249
-1170
-1071
-965
-859
-758
-688
-686
-765
-895
-1018
-1076
-1043
-925
-755
-586
-470
-436
-473
-527
-543
-500
-425
-366
-347
-348
-335
-301
-278
-292
-323
-317
-252
-174
-147
-174
-199
-173
-120
-109
-164
-230
-247
-213
-179
-176
-185
-174
-150
-137
-143
-141
-112
-76
-68
-92
-111
-93
-45
-6
-4
-25
-27
10
67
100
88
50
22
19
20
3
-31
-60
-66
-55
-43
-40
-45
-49
-42
-25
-2
10
1
-15
-8
37
88
91
28
-65
-130
-159
-203
-300
-404
-425
-337
-225
-206
-287
-365
-355
-295
-300
-425
-604
-734
-786
-802
-822
-838
-827
-796
-763
-722
-653
-553
-459
-408
-410
-448
-491
-506
-467
-374
-270
-219
-255
-352
-443
-471
-427
-361
-344
-419
-546
-620
-556
-381
-225
-200
-291
-379
-378
-310
-278
-339
-440
-485
-436
-353
-322
-354
-384
-353
-291
-296
-434
-660
-849
-917
-885
-841
-833
-843
-829
-777
-706
-621
-518
-411
-341
-343
-391
-431
-440
-444
-469
-484
-438
-328
-225
-173
-140
-68
25
55
-15
-98
-79
27
76
-34
-222
-316
-251
-157
-196
-369
-521
-532
-458
-453
-592
-786
-907
-927
-937
-1017
-1140
-1224
-1245
-1251
-1272
-1263
-1176
-1052
-999
-1058
-1151
-1169
-1115
-1097
-1183
-1309
-1355
-1284
-1170
-1099
-1086
-1082
-1049
-998
-956
-928
-902
-869
-845
-861
-951
-1114
-1304
-1453
-1511
-1466
-1321
-1060
-663
-115
581
1406
2272
2985
3307
3126
2584
1989
1560
1254
877
340
-206
-518
-494
-258
-44
-7
-161
-429
-710
-921
-1022
-1030
-1017
-1032
-1060
-1037
-928
-770
-644
-600
-637
-726
-833
-921
-955
-921
-835
-732
-661
-659
-743
-876
-978
-986
-915
-835
-787
-740
-652
-555
-523
-550
-533
-401
-243
-237
-431
-657
-712
-598
-526
-656
-900
-1016
-878
-609
-442
-492
-677
-831
-863
-795
-712
-687
-741
-822
-844
-743
-546
-362
-297
-358
-454
-477
-394
-269
-192
-198
-238
-230
-136
-1
78
37
-93
-213
-254
-235
-232
-278
-336
-345
-298
-242
-224
-238
-254
-253
-244
-234
-222
-209
-208
-228
-249
-234
-175
-108
-87
-128
-189
-213
-187
-154
-169
-238
-310
-326
-277
-206
-163
-161
-170
-163
-147
-148
-184
-237
-272
-270
-250
-248
-278
-324
-360
-380
-405
-449
-502
-547
-581
-621
-671
-709
-718
-703
-692
-698
-712
-718
-715
-718
-728
-741
-761
-798
-850
-892
-897
-872
-851
-862
-887
-874
-797
-694
-636
-661
-725
-745
-685
-599
-564
-591
-613
-581
-522
-498
-512
-511
-468
-432
-464
-541
-572
-525
-481
-535
-668
-752
-716
-635
-650
-794
-963
-1029
-964
-852
-788
-795
-819
-793
-692
-556
-447
-401
-400
-415
-444
-508
-605
-688
-717
-718
-749
-815
-856
-823
-755
-730
-764
-799
-792
-799
-900
-1079
-1223
-1263
-1268
-1368
-1575
-1754
-1786
-1713
-1669
-1704
-1705
-1536
-1199
-828
-552
-369
-176
105
454
771
959
1008
1023
1149
1448
1812
2034
1997
1784
1571
1456
1399
1325
1235
1213
1338
1647
2154
2828
3567
4148
4297
3915
3215
2580
2199
1890
1328
490
-227
-430
-208
-84
-433
-1064
-1489
-1527
-1514
-1836
-2423
-2803
-2638
-2078
-1556
-1343
-1369
-1415
-1380
-1318
-1307
-1354
-1424
-1493
-1556
-1599
-1573
-1456
-1302
-1226
-1331
-1606
-1900
-2049
-2007
-1863
-1747
-1747
-1865
-2034
-2166
-2230
-2272
-2342
-2416
-2390
-2210
-1954
-1761
-1668
-1578
-1398
-1169
-1016
-980
-965
-876
-753
-708
-773
-852
-853
-809
-839
-988
-1165
-1229
-1135
-959
-808
-712
-619
-474
-284
-123
-66
-115
-207
-275
-299
-307
-312
-294
-228
-110
34
155
196
111
-81
-283
-394
-402
-402
-501
-679
-780
-661
-328
62
332
401
299
106
-99
-263
-388
-518
-675
-825
-907
-887
-796
-701
-653
-672
-741
-817
-838
-789
-720
-690
-694
-665
-561
-423
-320
-267
-200
-77
55
121
94
44
61
149
205
116
-123
-406
-613
-716
-787
-888
-1001
-1066
-1068
-1046
-1011
-915
-748
-623
-688
-935
-1145
-1108
-840
-568
-497
-626
-794
-846
-735
-511
-296
-235
-376
-616
-795
-824
-760
-694
-639
-587
-564
-561
-471
-202
113
161
-194
-654
-760
-438
-118
-237
-701
-996
-805
-347
-61
-76
-148
-43
178
316
320
305
347
377
317
223
226
325
382
295
142
120
326
631
794
698
446
220
95
-25
-258
-583
-859
-987
-1005
-1018
-1061
-1065
-960
-761
-547
-389
-305
-287
-313
-336
-305
-212
-129
-133
-226
-311
-283
-144
0
46
21
55
238
499
641
541
276
26
-123
-266
-530
-876
-1106
-1056
-742
-297
176
661
1142
1527
1695
1619
1412
1210
1080
963
755
467
207
83
116
230
326
320
148
-185
-534
-668
-505
-266
-301
-679
-1053
-1017
-603
-281
-412
-842
-1086
-917
-592
-514
-771
-1094
-1212
-1125
-993
-879
-711
-460
-229
-149
-214
-275
-281
-349
-625
-1102
-1581
-1856
-1904
-1832
-1712
-1523
-1255
-997
-872
-905
-997
-1043
-1037
-1039
-1079
-1112
-1072
-953
-823
-763
-785
-805
-716
-517
-337
-331
-506
-698
-725
-584
-447
-472
-646
-813
-843
-736
-583
-470
-418
-406
-407
-402
-387
-371
-370
-381
-381
-350
-285
-207
-135
-75
-31
-12
-29
-64
-76
-45
14
65
91
102
114
119
103
67
34
12
-3
-22
-33
-22
4
20
23
38
92
174
237
260
268
301
358
391
361
271
179
131
127
144
167
200
228
229
200
183
213
276
305
262
191
169
213
254
221
123
39
9
-1
-44
-102
-94
18
173
263
255
220
239
307
335
267
139
41
12
15
9
-3
3
16
-5
-68
-124
-121
-67
-30
-57
-115
-117
-22
113
184
143
47
-2
30
71
45
-31
-58
16
125
170
150
153
227
301
293
226
213
302
412
436
379
337
367
432
466
458
434
405
355
278
179
70
-42
-127
-127
-30
98
174
186
180
186
187
178
183
218
243
208
157
197
360
528
554
424
258
151
72
-13
-31
133
452
719
773
694
711
867
888
432
-481
-1412
-1856
-1708
-1317
-1072
-998
-792
-222
576
1233
1504
1425
1173
823
360
-140
-502
-617
-572
-552
-625
-713
-727
-686
-660
-693
-829
-1155
-1691
-2249
-2510
-2362
-2076
-2040
-2343
-2679
-2747
-2600
-2534
-2660
-2754
-2566
-2158
-1840
-1776
-1773
-1521
-984
-477
-362
-684
-1138
-1365
-1264
-1032
-954
-1098
-1295
-1319
-1129
-890
-770
-805
-898
-943
-918
-868
-876
-999
-1225
-1449
-1535
-1438
-1277
-1209
-1256
-1290
-1168
-894
-592
-370
-252
-210
-203
-195
-153
-79
1
74
178
358
606
849
1018
1113
1169
1196
1193
1162
1141
1155
1220
1348
1524
1705
1835
1908
1950
1947
1817
1513
1131
841
717
667
606
620
878
1386
1909
2186
2199
2140
2130
2078
1831
1406
1000
782
761
828
912
1026
1190
1368
1517
1610
1640
1601
1505
1411
1365
1347
1304
1245
1235
1283
1281
1125
876
757
903
1199
1395
1396
1321
1302
1305
1203
980
752
599
467
300
172
188
288
281
101
-65
8
275
424
260
-45
-147
71
379
461
248
-60
-228
-207
-138
-191
-408
-638
-663
-403
-37
130
-44
-383
-590
-572
-514
-619
-836
-922
-734
-396
-158
-120
-184
-208
-177
-183
-294
-468
-593
-606
-545
-513
-577
-688
-735
-671
-575
-580
-714
-862
-901
-845
-825
-911
-1007
-974
-820
-713
-789
-997
-1154
-1150
-1046
-969
-969
-1017
-1102
-1247
-1422
-1508
-1424
-1254
-1186
-1299
-1475
-1538
-1457
-1361
-1360
-1425
-1477
-1504
-1544
-1582
-1535
-1377
-1216
-1198
-1336
-1481
-1484
-1349
-1198
-1113
-1066
-989
-883
-825
-865
-949
-969
-882
-759
-720
-807
-910
-830
-452
152
778
1244
1504
1609
1610
1517
1341
1130
920
690
392
55
-197
-243
-107
51
73
-72
-298
-495
-602
-618
-579
-542
-558
-631
-697
-682
-580
-460
-395
-398
-421
-430
-434
-439
-422
-350
-236
-151
-158
-250
-342
-347
-244
-86
46
95
60
-15
-64
-46
2
-14
-137
-276
-275
-80
180
319
289
214
241
379
526
615
663
678
615
466
334
342
459
509
375
162
91
238
456
554
516
479
538
632
636
529
417
410
497
586
608
572
535
536
569
593
569
481
362
278
276
343
414
448
479
560
672
717
631
483
424
516
650
649
472
261
193
304
474
565
541
452
358
299
290
314
312
226
73
-36
5
171
310
297
165
56
64
129
105
-71
-296
-398
-288
-49
123
92
-109
-302
-308
-135
29
-2
-220
-422
-419
-227
-27
33
-26
-93
-115
-136
-184
-213
-154
-17
116
184
199
199
195
176
151
129
84
-10
-122
-159
-65
95
180
206
162
141
144
130
101
105
156
211
230
246
326
474
604
632
570
505
498
522
517
471
435
454
516
571
596
604
618
634
633
615
604
619
646
646
598
525
470
457
470
470
434
365
290
232
197
170
120
35
-56
-103
-96
-82
-118
-210
-315
-396
-458
-510
-529
-499
-447
-434
-471
-486
-413
-281
-204
-264
-423
-577
-667
-707
-734
-747
-729
-683
-638
-600
-541
-457
-405
-463
-634
-823
-896
-798
-563
-238
180
737
1428
2140
2699
2972
2929
2642
2234
1807
1403
1001
570
137
-195
-333
-281
-164
-134
-260
-495
-726
-862
-890
-867
-860
-894
-928
-903
-810
-708
-671
-712
-788
-843
-869
-888
-899
-865
-752
-596
-495
-516
-626
-727
-768
-790
-837
-864
-775
-564
-385
-409
-633
-866
-930
-854
-809
-893
-1030
-1072
-966
-781
-613
-496
-431
-420
-452
-492
-498
-477
-483
-545
-617
-635
-591
-539
-524
-546
-565
-553
-525
-512
-533
-604
-714
-813
-840
-773
-671
-648
-780
-1039
-1313
-1493
-1535
-1449
-1254
-959
-587
-168
277
736
1175
1520
1696
1685
1527
1259
896
477
129
-16
36
122
86
-43
-82
89
363
491
344
34
-205
-221
-41
193
358
430
458
510
622
773
920
1039
1133
1222
1311
1388
1454
1511
1553
1565
1541
1499
1465
1447
1435
1428
1438
1477
1534
1579
1591
1582
1567
1532
1437
1262
1037
825
662
538
439
351
236
12
-374
-845
-1229
-1429
-1543
-1748
-2074
-2351
-2393
-2224
-2045
-2003
-2063
-2094
-2049
-1994
-1984
-1998
-1990
-1955
-1927
-1902
-1838
-1734
-1657
-1662
-1708
-1729
-1729
-1760
-1816
-1801
-1666
-1536
-1601
-1874
-2132
-2153
-1987
-1889
-1989
-2121
-2007
-1591
-1091
-757
-633
-586
-509
-417
-381
-427
-520
-609
-662
-673
-659
-649
-665
-704
-742
-752
-719
-676
-682
-765
-867
-846
-619
-307
-162
-321
-655
-905
-961
-950
-1049
-1273
-1465
-1494
-1372
-1197
-1030
-866
-701
-576
-541
-595
-665
-673
-609
-545
-573
-704
-850
-903
-831
-699
-596
-548
-512
-382
-45
520
1201
1807
2166
2240
2110
1881
1622
1352
1067
741
356
-41
-315
-359
-231
-135
-244
-528
-796
-894
-832
-730
-690
-718
-756
-747
-668
-530
-386
-311
-336
-410
-460
-458
-450
-481
-510
-471
-392
-373
-486
-638
-636
-398
-96
-5
-194
-438
-473
-316
-247
-474
-868
-1079
-904
-481
-103
84
170
305
505
665
715
687
655
637
611
582
597
698
851
974
1027
1048
1112
1224
1301
1268
1164
1106
1146
1208
1182
1065
953
921
934
946
1001
1165
1367
1427
1273
1081
1105
1356
1579
1545
1322
1196
1329
1596
1770
1767
1690
1660
1695
1742
1772
1795
1817
1829
1839
1871
1916
1910
1813
1676
1605
1634
1687
1660
1546
1448
1441
1474
1434
1295
1167
1168
1284
1387
1409
1428
1558
1804
2028
2108
2055
1971
1923
1889
1821
1722
1634
1589
1579
1587
1614
1672
1735
1738
1643
1490
1360
1282
1200
1057
883
776
786
841
808
658
499
461
548
632
596
453
331
345
467
532
382
42
-269
-313
-69
256
432
440
457
628
902
1111
1155
1098
1063
1089
1117
1080
964
805
652
535
450
351
203
37
-69
-59
49
190
315
427
542
649
703
675
579
468
385
345
326
303
285
320
439
599
689
618
401
155
-7
-69
-100
-172
-294
-413
-483
-493
-462
-416
-363
-310
-256
-208
-170
-144
-131
-123
-117
-104
-77
-37
1
22
26
35
73
140
217
288
357
424
470
468
402
287
154
41
-16
16
158
410
767
1236
1831
2525
3213
3730
3938
3803
3425
2973
2585
2281
1979
1601
1172
837
732
846
1015
1045
869
576
312
159
108
117
154
202
244
281
341
452
589
671
626
462
274
165
174
271
402
525
612
644
626
598
600
637
679
703
717
747
793
834
855
864
883
913
934
935
934
956
989
993
957
920
933
992
1046
1050
1028
1035
1099
1195
1287
1356
1385
1349
1241
1111
1028
1009
988
896
751
650
676
817
992
1125
1195
1221
1236
1259
1290
1318
1333
1335
1330
1331
1336
1342
1346
1336
1293
1214
1137
1114
1157
1222
1252
1241
1243
1304
1405
1458
1411
1314
1285
1386
1546
1642
1625
1549
1478
1395
1238
1032
900
927
1054
1155
1200
1288
1492
1715
1784
1645
1434
1321
1326
1325
1224
1060
943
928
966
970
880
710
516
366
295
270
230
149
68
30
-11
-166
-480
-865
-1177
-1367
-1509
-1651
-1697
-1485
-1018
-532
-302
-389
-609
-761
-832
-951
-1175
-1390
-1435
-1271
-997
-735
-545
-435
-408
-444
-516
-612
-747
-909
-1009
-969
-841
-773
-840
-929
-887
-760
-778
-1043
-1331
-1303
-909
-477
-335
-412
-315
193
879
1275
1184
882
792
1009
1233
1131
726
361
326
558
751
705
529
492
704
1005
1153
1080
930
873
929
998
1011
998
1021
1092
1162
1204
1251
1332
1398
1368
1219
1032
935
1007
1223
1484
1671
1728
1713
1741
1883
2069
2147
2035
1827
1696
1725
1827
1849
1731
1551
1436
1473
1681
2015
2398
2755
3071
3394
3769
4144
4361
4270
3858
3274
2732
2360
2138
1955
1733
1510
1411
1507
1724
1882
1850
1648
1396
1190
1050
971
964
1029
1111
1138
1102
1073
1107
1159
1128
978
782
648
612
644
711
812
931
1010
989
868
718
602
531
480
432
377
279
94
-158
-365
-423
-351
-293
-366
-522
-594
-483
-266
-109
-76
-86
-37
79
206
331
490
679
809
813
742
724
809
899
864
698
527
467
515
573
575
553
580
672
764
778
710
636
626
662
661
574
456
418
503
635
714
723
740
833
980
1101
1160
1199
1277
1392
1487
1514
1498
1511
1593
1705
1763
1725
1637
1582
1600
1657
1691
1668
1603
1529
1472
1445
1443
1444
1423
1380
1341
1332
1354
1385
1408
1418
1414
1391
1349
1301
1264
1239
1215
1184
1148
1115
1096
1099
1125
1151
1144
1093
1025
986
985
981
947
898
875
887
894
867
815
771
744
715
665
609
574
572
595
620
623
591
533
470
407
313
168
17
-56
-25
25
-30
-214
-412
-496
-456
-395
-403
-480
-573
-645
-703
-757
-810
-871
-961
-1087
-1214
-1284
-1264
-1168
-1045
-945
-901
-893
-889
-872
-874
-936
-1054
-1172
-1247
-1284
-1311
-1323
-1273
-1151
-1027
-993
-1060
-1139
-1125
-1000
-849
-773
-788
-817
-781
-696
-649
-687
-764
-784
-718
-623
-558
-502
-384
-196
-34
1
-96
-228
-296
-286
-261
-283
-346
-379
-305
-119
107
270
326
311
267
189
42
-167
-356
-427
-336
-100
252
714
1269
1835
2267
2426
2264
1878
1447
1115
882
631
288
-63
-250
-191
8
144
94
-110
-356
-560
-694
-762
-780
-782
-798
-821
-804
-716
-597
-527
-555
-676
-842
-992
-1076
-1072
-1005
-933
-887
-859
-839
-855
-940
-1066
-1141
-1110
-1016
-958
-974
-1013
-1018
-1003
-1011
-1038
-1041
-1010
-998
-1052
-1143
-1199
-1196
-1181
-1197
-1237
-1260
-1250
-1225
-1202
-1172
-1126
-1075
-1036
-1002
-953
-882
-802
-725
-646
-559
-471
-400
-359
-341
-319
-274
-207
-152
-139
-167
-194
-177
-122
-82
-97
-147
-168
-126
-46
21
45
34
15
18
53
101
116
75
20
31
120
200
163
29
-52
25
184
243
135
-12
-37
64
156
155
122
151
207
165
-9
-187
-232
-179
-202
-398
-659
-783
-696
-518
-423
-458
-538
-568
-551
-553
-606
-664
-684
-681
-721
-822
-914
-905
-789
-663
-636
-714
-803
-808
-732
-659
-646
-667
-656
-588
-499
-437
-413
-395
-356
-295
-232
-181
-151
-142
-144
-138
-102
-40
26
72
90
89
88
106
153
219
273
292
291
311
378
471
548
588
610
627
631
602
556
533
553
586
589
564
558
614
715
805
842
844
857
908
977
1025
1037
1034
1039
1051
1058
1051
1044
1048
1042
1002
931
868
852
877
896
866
793
720
692
711
749
776
802
858
956
1072
1167
1232
1293
1373
1443
1448
1375
1279
1234
1253
1277
1253
1193
1147
1137
1133
1097
1022
926
822
697
545
388
274
256
355
548
780
1009
1282
1706
2326
2997
3429
3402
2974
2441
2073
1902
1743
1424
959
527
298
321
513
721
799
679
415
159
51
114
249
338
339
296
275
306
373
421
386
240
40
-104
-121
-47
29
67
116
213
329
372
294
149
48
96
338
751
1260
1763
2153
2366
2391
2278
2117
1997
1962
1971
1939
1810
1612
1430
1351
1392
1479
1481
1316
999
671
516
623
915
1184
1255
1138
1014
1065
1276
1427
1304
922
528
346
353
358
274
242
435
781
969
785
358
37
25
193
249
65
-219
-367
-283
-42
250
560
896
1253
1591
1872
2085
2223
2259
2183
2024
1836
1675
1582
1561
1546
1442
1225
1000
904
952
1006
957
856
842
939
1006
927
766
673
673
631
448
217
119
196
314
333
282
311
489
729
887
904
843
807
828
862
856
794
719
685
706
762
825
894
958
985
961
925
944
1029
1096
1051
902
767
760
865
965
976
917
868
871
901
918
915
895
856
790
715
680
707
766
804
788
728
665
638
668
756
862
927
932
906
889
877
839
756
645
538
452
402
417
505
614
684
730
851
1094
1345
1413
1248
1018
925
980
1008
885
694
623
732
888
932
853
760
736
755
733
620
423
186
-4
-54
52
211
294
279
275
400
630
821
864
776
662
598
571
544
513
510
559
637
689
673
598
531
521
544
508
363
173
60
79
176
273
391
628
1053
1642
2305
2931
3420
3684
3664
3400
3019
2659
2361
2056
1666
1219
868
765
913
1128
1193
1055
846
717
678
615
459
272
171
183
244
301
384
533
698
752
648
477
378
394
437
402
277
120
-29
-166
-278
-331
-292
-167
6
210
464
754
1001
1123
1119
1068
1048
1070
1109
1160
1228
1285
1280
1216
1175
1240
1365
1392
1219
940
770
824
987
1033
860
607
513
673
946
1076
952
688
491
461
533
586
567
491
379
242
142
183
399
652
734
581
358
287
399
521
492
348
258
317
444
504
482
487
608
791
896
851
726
646
651
676
664
630
628
657
646
540
382
261
203
142
10
-172
-311
-344
-285
-200
-147
-141
-162
-173
-157
-141
-179
-290
-421
-492
-479
-445
-469
-559
-638
-639
-588
-585
-692
-872
-1030
-1101
-1095
-1067
-1055
-1065
-1095
-1138
-1167
-1146
-1077
-1020
-1040
-1129
-1201
-1175
-1059
-927
-851
-838
-853
-871
-875
-853
-799
-730
-679
-661
-662
-666
-682
-712
-717
-645
-509
-418
-471
-615
-679
-557
-340
-220
-278
-391
-375
-215
-73
-93
-226
-294
-193
-3
116
104
39
42
144
276
354
355
318
292
303
337
369
385
389
385
356
293
220
163
138
120
74
-2
-62
-73
-56
-47
-54
-57
-46
-53
-108
-187
-234
-226
-205
-212
-230
-204
-137
-103
-164
-275
-334
-306
-263
-290
-368
-401
-339
-250
-232
-293
-358
-390
-438
-566
-756
-906
-934
-849
-698
-478
-140
359
988
1642
2164
2386
2229
1779
1257
857
582
277
-158
-629
-931
-955
-788
-621
-589
-728
-996
-1300
-1512
-1536
-1397
-1232
-1154
-1147
-1075
-850
-542
-318
-291
-438
-644
-794
-850
-855
-875
-907
-904
-833
-737
-706
-782
-925
-1063
-1144
-1155
-1097
-990
-905
-929
-1066
-1176
-1107
-882
-681
-651
-739
-777
-683
-548
-497
-514
-474
-323
-143
-45
-2
119
373
613
615
322
-60
-252
-144
109
247
145
-89
-236
-184
-36
-6
-222
-622
-997
-1193
-1232
-1243
-1303
-1347
-1288
-1146
-1050
-1094
-1260
-1454
-1624
-1819
-2075
-2323
-2439
-2369
-2205
-2074
-2022
-1976
-1866
-1720
-1635
-1663
-1758
-1834
-1857
-1848
-1825
-1780
-1738
-1776
-1941
-2169
-2299
-2261
-2151
-2123
-2234
-2373
-2385
-2217
-1950
-1723
-1619
-1618
-1610
-1504
-1327
-1208
-1218
-1278
-1224
-1006
-739
-546
-381
-107
287
606
649
429
155
3
-31
-67
-174
-298
-333
-208
83
463
824
1079
1229
1361
1532
1698
1769
1707
1582
1500
1502
1529
1484
1345
1219
1240
1434
1654
1726
1655
1648
1886
2294
2594
2599
2414
2287
2332
2438
2462
2421
2443
2578
2729
2787
2754
2710
2696
2678
2623
2567
2561
2598
2617
2586
2548
2564
2624
2646
2565
2412
2289
2257
2276
2240
2101
1915
1766
1667
1560
1412
1272
1198
1173
1109
965
830
843
1024
1214
1245
1108
957
937
1024
1071
976
762
533
383
343
400
504
575
549
447
375
423
576
721
757
677
564
491
463
425
329
191
106
184
460
861
1275
1658
2051
2499
2932
3143
2944
2338
1549
872
464
248
37
-249
-503
-547
-326
13
240
219
-24
-354
-647
-852
-962
-972
-890
-764
-660
-587
-482
-252
127
569
951
1237
1469
1680
1799
1694
1284
615
-181
-987
-1738
-2383
-2836
-2998
-2823
-2369
-1790
-1240
-803
-488
-282
-182
-184
-244
-298
-305
-283
-266
-236
-128
85
325
457
418
272
159
177
311
470
584
651
706
760
798
809
808
817
843
868
881
888
919
994
1097
1180
1197
1156
1129
1186
1331
1479
1542
1513
1476
1507
1599
1675
1676
1632
1624
1674
1721
1699
1620
1562
1578
1643
1693
1701
1675
1618
1511
1373
1280
1301
1401
1459
1398
1272
1210
1261
1342
1328
1185
993
858
809
804
784
730
662
629
651
699
725
709
674
680
764
913
1085
1237
1324
1309
1186
1008
857
761
648
399
-1
-405
-603
-518
-290
-161
-259
-507
-726
-816
-822
-854
-956
-1064
-1074
-952
-770
-636
-593
-580
-522
-437
-435
-581
-801
-929
-870
-677
-475
-311
-126
147
484
779
929
899
740
535
336
145
-72
-303
-472
-509
-420
-293
-203
-128
10
240
514
770
1004
1226
1385
1361
1065
538
-68
-600
-1008
-1342
-1660
-1936
-2073
-1991
-1714
-1355
-1041
-834
-738
-750
-852
-1000
-1125
-1182
-1204
-1247
-1294
-1249
-1043
-760
-588
-637
-838
-1025
-1105
-1121
-1164
-1249
-1310
-1289
-1195
-1069
-941
-821
-726
-684
-693
-728
-776
-859
-998
-1150
-1223
-1125
-841
-425
69
653
1370
2183
2887
3196
2963
2327
1629
1131
816
482
-5
-538
-864
-831
-524
-179
0
-27
-172
-334
-474
-602
-723
-806
-821
-782
-737
-714
-686
-613
-505
-437
-491
-662
-855
-956
-924
-802
-667
-583
-576
-635
-726
-805
-846
-849
-835
-824
-826
-844
-882
-932
-968
-965
-932
-904
-909
-934
-941
-921
-910
-952
-1047
-1138
-1170
-1140
-1096
-1081
-1088
-1076
-1027
-959
-899
-850
-796
-748
-737
-768
-798
-778
-715
-663
-656
-664
-651
-633
-650
-689
-679
-583
-459
-395
-388
-352
-223
-55
46
43
4
4
41
60
31
-14
-24
8
46
56
37
18
27
57
72
39
-30
-88
-102
-88
-86
-108
-124
-115
-106
-145
-233
-314
-334
-305
-286
-311
-346
-345
-310
-290
-309
-335
-330
-309
-333
-430
-551
-623
-626
-610
-628
-682
-734
-753
-746
-734
-735
-759
-806
-853
-872
-853
-832
-857
-928
-999
-1029
-1036
-1063
-1105
-1111
-1048
-950
-896
-914
-951
-929
-832
-715
-646
-639
-645
-601
-489
-342
-219
-148
-119
-110
-100
-91
-101
-153
-250
-347
-374
-303
-183
-85
-26
39
125
174
125
27
7
109
217
176
-14
-173
-147
13
116
37
-152
-297
-325
-307
-356
-503
-684
-813
-857
-842
-799
-731
-617
-453
-267
-94
47
137
144
38
-163
-392
-600
-777
-908
-958
-903
-772
-595
-322
159
867
1596
2025
1958
1467
779
40
-761
-1666
-2599
-3393
-3930
-4206
-4231
-3948
-3288
-2329
-1320
-501
101
674
1386
2150
2667
2684
2234
1613
1140
934
881
772
503
136
-161
-248
-111
125
297
317
206
54
-42
-31
80
219
310
351
447
703
1091
1417
1461
1173
726
357
162
51
-106
-323
-495
-540
-481
-384
-284
-173
-67
20
147
420
836
1226
1393
1332
1209
1160
1153
1077
908
720
576
453
321
209
176
238
398
706
1208
1841
2406
2708
2688
2402
1920
1282
542
-221
-936
-1545
-1983
-2153
-2008
-1627
-1175
-792
-511
-294
-113
26
86
34
-129
-334
-454
-386
-126
237
628
1019
1368
1583
1575
1357
1065
850
763
715
564
239
-183
-519
-607
-437
-164
26
74
75
145
282
383
376
295
226
217
265
359
497
636
706
666
572
503
455
354
187
57
67
168
204
102
-38
-74
-1
50
4
-70
-58
41
110
60
-73
-193
-256
-304
-384
-487
-557
-544
-458
-366
-344
-393
-432
-364
-198
-52
-21
-54
-10
180
425
571
561
472
403
367
303
166
-48
-316
-596
-825
-944
-942
-868
-782
-698
-595
-457
-296
-123
76
282
420
436
383
389
493
585
550
444
443
595
722
657
527
692
1321
2113
2556
2441
2027
1698
1513
1213
603
-190
-884
-1338
-1605
-1729
-1630
-1249
-740
-390
-336
-432
-429
-270
-126
-168
-360
-494
-421
-202
-22
23
5
44
134
136
-51
-329
-466
-321
9
296
405
388
342
268
98
-152
-350
-387
-299
-191
-52
257
833
1565
2185
2489
2471
2251
1941
1591
1229
889
579
280
5
-150
-74
231
604
814
754
505
246
103
71
64
19
-41
-24
134
399
638
701
540
242
-51
-252
-396
-556
-730
-839
-802
-650
-503
-441
-424
-355
-199
-26
58
14
-94
-177
-199
-206
-276
-431
-592
-623
-455
-194
-68
-221
-546
-764
-698
-466
-359
-519
-762
-797
-559
-279
-222
-378
-512
-469
-356
-395
-647
-946
-1084
-1027
-870
-695
-508
-314
-181
-170
-244
-300
-293
-287
-388
-613
-862
-980
-876
-602
-347
-290
-438
-613
-640
-545
-518
-679
-934
-1106
-1151
-1170
-1235
-1267
-1181
-1043
-1011
-1126
-1246
-1236
-1141
-1112
-1205
-1305
-1292
-1175
-1056
-985
-893
-709
-453
-209
-58
-18
-76
-206
-364
-511
-629
-716
-769
-779
-763
-762
-798
-844
-857
-842
-874
-1008
-1199
-1315
-1262
-1077
-889
-785
-754
-723
-652
-565
-515
-533
-628
-781
-940
-1024
-942
-684
-373
-188
-192
-263
-216
-17
171
166
-16
-163
-110
72
159
23
-225
-366
-308
-146
-27
7
34
120
245
349
399
419
431
440
441
433
412
366
286
202
179
257
411
582
765
1018
1379
1766
1994
1925
1601
1201
858
541
130
-409
-942
-1268
-1294
-1105
-866
-694
-595
-530
-477
-446
-459
-517
-601
-682
-734
-743
-692
-598
-496
-420
-388
-404
-454
-529
-624
-703
-688
-503
-158
217
456
513
483
502
611
751
832
790
596
244
-178
-472
-459
-146
229
393
282
79
22
195
461
615
534
247
-99
-334
-382
-290
-203
-261
-488
-780
-1006
-1103
-1116
-1101
-1060
-924
-660
-332
-18
304
741
1322
1869
2075
1774
1093
338
-253
-656
-991
-1347
-1692
-1907
-1893
-1666
-1332
-1035
-826
-659
-499
-401
-469
-719
-1024
-1220
-1252
-1190
-1132
-1122
-1166
-1281
-1468
-1665
-1785
-1783
-1701
-1594
-1460
-1276
-1068
-915
-851
-834
-830
-916
-1219
-1725
-2216
-2451
-2428
-2386
-2517
-2779
-2954
-2906
-2720
-2558
-2488
-2492
-2567
-2720
-2897
-2966
-2833
-2570
-2362
-2375
-2637
-3041
-3415
-3592
-3473
-3088
-2582
-2096
-1630
-1072
-360
381
880
915
497
-132
-682
-1022
-1231
-1457
-1716
-1871
-1760
-1383
-925
-565
-367
-295
-292
-335
-425
-540
-650
-723
-723
-637
-496
-409
-476
-669
-809
-720
-378
56
387
562
672
825
1026
1202
1308
1361
1374
1320
1183
1052
1078
1300
1557
1604
1375
1081
997
1175
1360
1265
900
588
607
896
1140
1131
992
999
1238
1520
1626
1567
1548
1686
1898
2033
2046
2011
1991
1958
1860
1701
1545
1446
1410
1417
1432
1417
1380
1381
1489
1679
1843
1882
1803
1690
1598
1524
1448
1392
1375
1344
1246
1101
997
986
1005
947
804
677
656
695
662
497
285
157
145
154
79
-84
-250
-351
-413
-520
-706
-924
-1097
-1196
-1232
-1223
-1168
-1080
-1008
-1001
-1045
-1071
-1041
-1009
-1061
-1208
-1363
-1418
-1362
-1272
-1213
-1190
-1178
-1183
-1228
-1299
-1333
-1279
-1153
-981
-740
-354
210
863
1426
1751
1806
1658
1407
1141
929
784
644
418
107
-136
-123
162
477
525
239
-149
-352
-294
-141
-89
-180
-305
-328
-185
81
326
369
135
-241
-494
-481
-312
-228
-326
-464
-437
-233
-34
-10
-141
-281
-341
-367
-436
-513
-492
-348
-212
-261
-499
-725
-748
-607
-545
-735
-1077
-1314
-1321
-1219
-1189
-1243
-1251
-1159
-1086
-1164
-1328
-1379
-1230
-1030
-975
-1046
-1021
-749
-351
-113
-192
-488
-786
-1003
-1215
-1514
-1866
-2155
-2298
-2303
-2212
-2046
-1827
-1608
-1465
-1414
-1382
-1279
-1101
-946
-919
-1018
-1125
-1125
-993
-803
-655
-610
-661
-740
-758
-665
-503
-361
-281
-215
-107
14
51
-38
-172
-229
-189
-147
-180
-245
-229
-94
63
121
66
-3
8
90
176
227
269
331
386
393
359
343
386
459
495
468
410
373
375
392
400
386
350
291
222
164
134
120
93
36
-33
-72
-54
11
73
88
38
-43
-95
-84
-41
-37
-104
-199
-237
-173
-53
47
97
122
151
170
147
77
2
-41
-51
-55
-66
-66
-36
20
75
89
25
-131
-347
-559
-724
-845
-953
-1050
-1106
-1104
-1074
-1055
-1048
-1017
-955
-915
-945
-1024
-1076
-1048
-968
-917
-938
-990
-1000
-939
-860
-844
-904
-968
-948
-828
-682
-598
-594
-608
-570
-470
-364
-316
-334
-372
-375
-333
-286
-280
-312
-337
-318
-275
-252
-266
-291
-290
-274
-288
-363
-478
-574
-610
-573
-454
-233
102
555
1132
1826
2558
3147
3408
3287
2919
2510
2172
1868
1523
1146
839
706
774
974
1154
1125
752
79
-654
-1164
-1342
-1322
-1301
-1319
-1235
-913
-400
95
391
462
378
194
-90
-434
-712
-784
-638
-409
-267
-263
-301
-259
-132
-25
-29
-131
-247
-308
-317
-307
-297
-280
-274
-307
-382
-444
-428
-349
-291
-321
-413
-478
-475
-460
-507
-601
-641
-565
-427
-330
-300
-254
-123
23
32
-159
-412
-525
-442
-309
-306
-441
-534
-406
-77
255
410
374
278
246
286
319
292
224
166
139
117
85
65
81
128
164
156
103
34
-18
-33
-2
57
98
72
-28
-140
-194
-173
-137
-154
-219
-272
-265
-234
-257
-358
-466
-504
-487
-503
-597
-697
-701
-598
-485
-438
-415
-326
-164
-15
57
75
61
-32
-266
-591
-849
-936
-904
-871
-857
-783
-609
-417
-309
-276
-234
-151
-108
-181
-330
-422
-379
-257
-182
-209
-289
-313
-224
-96
-63
-174
-302
-237
120
647
1109
1349
1383
1325
1273
1299
1477
1821
2196
2356
2128
1573
937
414
-13
-512
-1191
-1938
-2487
-2611
-2281
-1698
-1144
-785
-632
-589
-575
-567
-592
-712
-959
-1278
-1512
-1507
-1277
-1060
-1144
-1634
-2402
-3235
-4001
-4634
-5025
-5022
-4571
-3792
-2894
-2027
-1265
-683
-371
-346
-546
-888
-1303
-1696
-1941
-2018
-2046
-2122
-2151
-1946
-1568
-1332
-1345
-1110
81
2251
4389
5267
4646
3485
2868
2811
2276
349
-2711
-5615
-7142
-7043
-5973
-4727
-3620
-2502
-1217
84
1043
1417
1250
776
191
-436
-1051
-1538
-1760
-1663
-1330
-937
-684
-699
-934
-1143
-1057
-630
-100
219
246
180
255
493
700
710
566
442
441
507
543
543
586
718
891
1020
1066
1044
983
880
729
573
496
573
814
1140
1439
1644
1772
1883
1998
2061
2005
1850
1697
1630
1646
1684
1733
1860
2129
2493
2812
2965
2954
2907
2982
3239
3585
3834
3848
3649
3402
3271
3286
3346
3337
3230
3075
2946
2874
2831
2766
2649
2492
2311
2084
1773
1424
1204
1288
1673
2140
2431
2484
2473
2617
2960
3346
3585
3616
3535
3502
3601
3785
3901
3807
3492
3079
2723
2507
2440
2500
2653
2830
2936
2911
2778
2596
2379
2091
1746
1457
1350
1430
1579
1696
1829
2088
2474
2809
2887
2679
2357
2109
1970
1844
1660
1480
1422
1517
1670
1760
1744
1674
1622
1618
1644
1679
1733
1807
1844
1750
1521
1312
1336
1653
2064
2287
2239
2115
2173
2438
2700
2757
2629
2507
2520
2627
2721
2759
2762
2745
2676
2553
2448
2433
2492
2541
2527
2505
2557
2686
2804
2845
2840
2849
2859
2779
2585
2392
2360
2513
2710
2808
2807
2825
2927
3050
3096
3052
2978
2929
2900
2875
2873
2903
2930
2899
2809
2717
2677
2662
2614
2516
2412
2345
2316
2292
2264
2249
2262
2268
2209
2064
1876
1717
1620
1569
1527
1489
1493
1582
1753
1958
2140
2273
2367
2431
2455
2423
2340
2245
2185
2190
2261
2388
2576
2847
3219
3677
4120
4389
4376
4124
3815
3625
3558
3472
3253
2944
2682
2557
2536
2543
2546
2540
2484
2323
2071
1838
1733
1746
1780
1764
1731
1769
1902
2082
2239
2330
2319
2170
1880
1525
1231
1094
1082
1073
972
799
674
694
829
957
978
910
850
857
898
918
933
1031
1247
1491
1624
1592
1488
1438
1477
1523
1475
1322
1140
1032
1060
1213
1405
1502
1410
1160
909
817
893
1001
978
806
630
583
647
696
670
650
735
887
943
805
594
565
844
1303
1671
1769
1655
1559
1692
2081
2520
2696
2427
1815
1172
743
528
348
75
-254
-517
-627
-555
-281
166
646
938
923
712
552
582
714
764
655
468
350
364
452
533
591
680
827
967
989
837
596
431
440
547
576
430
183
-1
-23
75
183
246
283
329
377
390
360
312
276
245
189
99
5
-43
-7
92
189
215
158
80
71
160
286
361
371
382
439
502
498
418
335
317
351
383
397
415
430
412
365
368
476
627
679
579
436
403
499
600
589
494
427
448
510
536
517
510
565
652
699
678
641
655
736
821
832
773
742
855
1145
1518
1798
1818
1515
982
418
-38
-411
-838
-1384
-1906
-2166
-2059
-1698
-1298
-982
-741
-542
-399
-341
-353
-381
-397
-413
-439
-443
-378
-234
-56
77
74
-98
-379
-641
-775
-765
-660
-473
-85
670
1835
3188
4263
4613
4104
3043
1981
1265
773
106
-912
-1959
-2495
-2262
-1519
-777
-382
-340
-514
-803
-1141
-1367
-1236
-558
612
1938
3004
3583
3783
3889
4010
3866
2997
1231
-1009
-2950
-4019
-4229
-4046
-3941
-4037
-4111
-3885
-3302
-2562
-1936
-1549
-1339
-1198
-1106
-1126
-1250
-1382
-1449
-1508
-1659
-1897
-2110
-2215
-2236
-2242
-2244
-2230
-2279
-2507
-2876
-3151
-3138
-2907
-2704
-2625
-2509
-2181
-1719
-1378
-1301
-1388
-1489
-1607
-1798
-1982
-1993
-1810
-1629
-1601
-1604
-1392
-963
-626
-653
-937
-1137
-1076
-938
-995
-1256
-1454
-1360
-1042
-775
-784
-1065
-1429
-1651
-1610
-1350
-1044
-855
-807
-767
-595
-291
-2
123
54
-108
-216
-207
-116
-9
104
262
467
636
686
660
736
1026
1424
1692
1786
1968
2543
3466
4250
4357
3673
2577
1579
887
341
-296
-1050
-1680
-1871
-1468
-588
424
1168
1423
1281
1052
985
1035
957
618
182
-24
166
608
1031
1297
1472
1636
1748
1704
1508
1306
1265
1440
1753
2102
2450
2825
3251
3659
3863
3672
3061
2237
1467
859
312
-293
-895
-1267
-1256
-932
-491
-76
273
539
691
742
794
938
1130
1229
1184
1115
1164
1315
1425
1407
1300
1168
986
700
384
207
246
373
398
298
227
295
419
414
204
-106
-359
-507
-615
-746
-889
-1003
-1059
-1057
-998
-883
-726
-573
-483
-486
-565
-674
-767
-818
-817
-758
-636
-465
-293
-191
-198
-299
-444
-595
-755
-932
-1087
-1110
-880
-356
356
1051
1532
1707
1628
1420
1198
995
768
448
30
-388
-656
-687
-532
-356
-324
-488
-766
-1017
-1142
-1148
-1119
-1132
-1192
-1229
-1175
-1046
-930
-905
-977
-1100
-1236
-1370
-1486
-1547
-1523
-1436
-1343
-1292
-1296
-1350
-1447
-1560
-1630
-1606
-1504
-1406
-1381
-1419
-1452
-1436
-1381
-1328
-1300
-1299
-1320
-1352
-1360
-1319
-1253
-1222
-1246
-1267
-1190
-979
-691
-423
-243
-176
-232
-404
-650
-899
-1110
-1304
-1524
-1747
-1874
-1813
-1583
-1310
-1114
-1014
-948
-865
-778
-719
-696
-689
-685
-690
-690
-634
-490
-304
-174
-151
-185
-195
-150
-97
-79
-86
-69
-5
93
192
266
292
274
262
326
485
670
799
863
921
982
971
819
594
466
519
623
564
292
-1
-73
98
301
316
141
-45
-98
-31
67
168
329
599
952
1307
1600
1808
1949
2056
2140
2144
1946
1473
816
215
-140
-291
-469
-843
-1348
-1763
-1937
-1912
-1830
-1773
-1706
-1597
-1489
-1440
-1405
-1287
-1065
-869
-852
-992
-1113
-1088
-974
-860
-645
-76
911
1962
2525
2345
1679
1001
518
34
-735
-1791
-2796
-3366
-3346
-2869
-2183
-1486
-892
-479
-294
-303
-380
-409
-400
-455
-618
-757
-659
-280
165
387
283
-4
-288
-531
-811
-1146
-1414
-1471
-1312
-1081
-941
-934
-993
-1037
-1042
-1033
-1022
-989
-913
-823
-788
-862
-1016
-1154
-1201
-1162
-1107
-1083
-1063
-977
-787
-520
-253
-40
93
134
74
-86
-300
-486
-554
-446
-158
274
825
1487
2232
2945
3424
3501
3177
2652
2164
1796
1448
998
472
41
-128
-26
202
366
344
136
-157
-414
-578
-690
-832
-1014
-1174
-1248
-1239
-1185
-1068
-834
-540
-392
-537
-846
-1009
-872
-622
-549
-682
-793
-766
-815
-1211
-1847
-2246
-2085
-1579
-1237
-1284
-1433
-1261
-690
-49
288
232
-46
-326
-504
-597
-669
-788
-958
-1097
-1106
-982
-820
-711
-634
-518
-370
-297
-384
-592
-812
-967
-1056
-1105
-1131
-1160
-1236
-1369
-1487
-1485
-1335
-1128
-979
-919
-906
-909
-923
-916
-828
-637
-434
-353
-425
-533
-540
-452
-404
-499
-678
-796
-772
-659
-555
-496
-439
-345
-246
-206
-250
-325
-361
-328
-259
-205
-182
-174
-163
-150
-138
-122
-86
-29
15
13
-34
-73
-64
-28
-22
-78
-144
-154
-119
-116
-168
-179
-54
111
59
-342
-883
-1158
-997
-666
-582
-852
-1152
-1093
-645
-139
94
19
-168
-286
-310
-310
-324
-366
-457
-577
-651
-628
-549
-479
-376
-126
218
321
-149
-1074
-1850
-1935
-1414
-928
-979
-1422
-1659
-1299
-535
128
387
333
239
265
371
452
470
456
467
539
679
874
1082
1222
1206
1009
700
414
257
225
212
124
-38
-175
-213
-195
-239
-436
-779
-1166
-1483
-1645
-1597
-1314
-809
-130
665
1489
2158
2404
2042
1216
380
-70
-180
-365
-918
-1644
-2048
-1861
-1328
-942
-989
-1392
-1861
-2114
-1994
-1547
-1008
-647
-515
-425
-213
36
182
437
1327
3125
5342
6992
7442
6920
6190
5779
5614
5282
4483
3193
1610
100
-872
-995
-478
-37
-373
-1551
-2947
-3779
-3719
-3042
-2269
-1736
-1448
-1186
-739
-76
607
984
866
409
21
45
473
999
1338
1440
1416
1319
1080
637
41
-576
-1092
-1430
-1549
-1510
-1539
-1930
-2769
-3767
-4430
-4446
-3924
-3247
-2710
-2353
-2049
-1703
-1345
-1056
-880
-836
-898
-1013
-1111
-1132
-1052
-845
-481
-3
409
544
381
177
272
766
1453
2069
2562
3041
3497
3686
3351
2526
1528
649
-98
-865
-1686
-2345
-2559
-2257
-1634
-961
-396
40
373
592
684
662
578
473
361
270
282
524
1057
1802
2563
3190
3751
4490
5520
6515
6806
5952
4263
2650
1825
1619
1180
-104
-1888
-3154
-3182
-2210
-1149
-738
-989
-1383
-1447
-1099
-560
-97
145
157
29
-99
-77
127
384
477
293
-88
-471
-691
-703
-556
-333
-135
-64
-180
-418
-597
-551
-269
87
306
288
86
-161
-351
-500
-709
-1045
-1439
-1703
-1696
-1470
-1237
-1176
-1273
-1361
-1293
-1084
-856
-711
-663
-657
-644
-601
-532
-446
-383
-331
-275
-208
-181
-249
-398
-520
-510
-384
-283
-333
-514
-659
-604
-317
80
406
537
480
361
320
388
458
399
213
50
66
244
425
486
463
470
538
576
497
339
228
236
315
372
379
390
462
601
759
886
961
991
993
972
918
831
730
649
604
582
565
588
746
1119
1688
2331
2897
3285
3467
3460
3302
3037
2711
2349
1963
1577
1250
1049
988
1018
1039
967
780
541
364
326
391
446
426
381
413
545
685
735
701
662
674
725
788
859
967
1124
1315
1509
1657
1693
1582
1381
1225
1230
1399
1648
1887
2047
2079
1967
1754
1532
1347
1147
856
512
269
252
421
618
737
804
884
971
998
937
869
896
1022
1141
1146
1029
888
838
907
1021
1061
946
691
426
296
347
484
535
415
192
16
-22
39
85
51
-37
-88
18
253
442
457
369
349
427
443
276
74
86
263
273
48
167
1406
3784
6243
7489
7117
5831
4581
3616
2455
610
-1805
-4114
-5563
-5762
-4830
-3283
-1751
-644
13
422
731
898
781
389
-100
-502
-721
-726
-499
-64
465
883
964
619
-8
-612
-927
-878
-596
-274
-9
206
376
438
332
135
42
189
479
645
515
183
-77
-105
11
61
-39
-165
-140
63
302
436
454
449
488
530
498
401
334
367
462
509
448
344
316
424
620
793
866
841
777
741
755
782
764
685
591
557
609
699
754
750
714
682
647
584
488
390
325
301
295
285
265
253
259
272
273
245
197
146
95
39
-17
-56
-70
-73
-81
-85
-63
-10
57
128
217
328
426
467
444
389
318
208
35
-152
-255
-207
-23
244
567
952
1383
1791
2077
2160
2038
1772
1476
1262
1150
1061
897
660
472
426
475
457
262
-60
-345
-485
-506
-491
-476
-420
-301
-152
-32
50
125
203
224
120
-77
-229
-219
-90
-4
-62
-186
-213
-83
73
85
-71
-266
-346
-310
-264
-279
-284
-166
66
250
217
-10
-216
-206
-6
156
116
-63
-176
-148
-84
-90
-115
-56
19
-107
-505
-919
-1033
-882
-845
-1127
-1422
-1260
-640
-144
-289
-909
-1338
-1182
-775
-796
-1476
-2346
-2730
-2424
-1869
-1682
-2089
-2756
-3137
-2972
-2484
-2137
-2165
-2401
-2509
-2364
-2140
-2042
-2059
-2032
-1884
-1725
-1702
-1801
-1865
-1776
-1577
-1395
-1285
-1203
-1095
-987
-972
-1087
-1239
-1278
-1154
-983
-920
-967
-980
-860
-687
-627
-735
-897
-989
-1009
-1049
-1153
-1263
-1319
-1324
-1302
-1232
-1074
-854
-657
-515
-362
-123
182
423
518
516
531
610
715
811
908
1010
1055
987
861
853
1095
1514
1884
2027
1978
1912
1958
2078
2130
2023
1813
1649
1640
1782
1973
2108
2165
2179
2182
2153
2050
1874
1681
1543
1503
1527
1553
1564
1599
1698
1826
1892
1843
1713
1576
1441
1264
1043
890
935
1179
1471
1655
1696
1662
1625
1620
1667
1770
1875
1877
1731
1523
1408
1451
1565
1600
1499
1328
1201
1170
1193
1197
1126
989
856
786
768
765
768
814
897
924
804
576
392
356
383
283
-9
-347
-518
-456
-289
-177
-129
-11
310
832
1415
1872
2074
1998
1731
1418
1179
1036
907
693
379
66
-103
-82
39
91
-36
-311
-600
-786
-849
-849
-841
-826
-778
-705
-639
-602
-569
-514
-472
-528
-707
-922
-1032
-984
-859
-775
-755
-724
-618
-472
-394
-448
-579
-660
-610
-463
-345
-363
-512
-685
-762
-724
-652
-652
-760
-912
-1020
-1055
-1053
-1066
-1095
-1106
-1078
-1040
-1033
-1048
-1036
-981
-937
-968
-1057
-1114
-1084
-1004
-939
-902
-857
-799
-757
-729
-652
-493
-335
-313
-447
-607
-659
-631
-663
-836
-1051
-1133
-1006
-751
-525
-432
-451
-470
-388
-214
-79
-101
-253
-367
-305
-117
25
26
-13
59
246
384
362
281
346
599
853
904
766
632
637
700
664
499
326
252
266
307
364
449
514
487
374
266
230
218
149
45
9
89
210
281
304
343
416
473
466
413
352
287
216
170
195
270
318
299
273
316
421
492
461
361
289
292
322
309
229
125
53
44
90
169
257
318
316
248
148
58
-16
-106
-226
-335
-373
-336
-279
-256
-238
-163
-25
91
107
39
-23
-24
10
12
-52
-159
-259
-316
-332
-339
-384
-470
-535
-523
-468
-489
-642
-820
-844
-696
-584
-731
-1109
-1450
-1532
-1399
-1275
-1299
-1408
-1459
-1404
-1304
-1221
-1154
-1103
-1097
-1155
-1226
-1220
-1106
-947
-836
-811
-847
-899
-936
-953
-951
-925
-849
-672
-352
115
715
1446
2288
3108
3641
3664
3216
2614
2188
1974
1731
1251
619
134
16
207
469
597
539
356
143
-17
-79
-65
-53
-99
-178
-202
-122
16
125
159
132
72
-12
-116
-202
-215
-143
-38
25
10
-62
-149
-224
-273
-286
-258
-207
-167
-164
-189
-221
-250
-277
-297
-287
-243
-206
-231
-333
-454
-515
-494
-434
-392
-373
-341
-261
-144
-27
54
89
83
46
-4
-43
-56
-51
-50
-70
-101
-116
-94
-47
-13
-19
-57
-97
-110
-98
-86
-96
-119
-123
-92
-51
-40
-67
-99
-87
-29
29
46
27
14
31
55
63
60
74
106
123
103
71
77
129
183
186
141
101
103
136
153
127
78
48
49
54
34
-10
-43
-37
-2
13
-26
-101
-161
-166
-132
-110
-134
-195
-250
-270
-267
-274
-313
-369
-416
-447
-473
-498
-497
-445
-351
-264
-229
-244
-281
-322
-376
-450
-518
-539
-497
-418
-332
-235
-101
69
221
287
254
183
154
195
259
284
261
235
257
331
411
450
440
424
448
512
575
606
626
672
739
767
694
542
397
314
260
170
44
-28
22
155
257
258
192
241
123
98
30
-49
-96
-104
-115
-151
-191
-208
-215
-241
-286
-339
-395
-452
-474
-381
-112
283
668
925
1020
987
851
596
214
-268
-807
-1386
-1970
-2445
-2639
-2448
-1954
-1378
-891
-459
113
974
2027
2954
3398
3213
2565
1828
1322
1105
960
616
22
-545
-775
-644
-408
-307
-362
-521
-808
-1229
-1569
-1473
-874
-164
249
536
1372
3119
5210
6516
6340
4970
3254
1784
549
-730
-2128
-3398
-4177
-4233
-3566
-2382
-1016
189
1011
1401
1454
1360
1270
1234
1160
899
455
74
90
581
1262
1714
1698
1322
913
730
771
860
866
811
780
770
685
478
225
45
-41
-93
-100
63
470
980
1314
1344
1241
1281
1508
1687
1581
1218
840
616
494
346
188
168
346
579
673
610
559
639
747
675
355
-40
-267
-259
-142
-76
-83
-75
14
149
252
285
273
271
327
451
613
769
881
932
917
845
765
740
785
820
736
541
405
530
920
1347
1551
1473
1286
1202
1287
1465
1631
1734
1740
1617
1394
1179
1082
1075
995
726
338
32
-56
46
244
484
748
969
1043
947
790
713
745
773
670
432
179
69
204
570
1018
1322
1319
1053
746
600
618
639
538
349
195
145
187
284
417
552
613
547
392
243
158
112
78
95
233
482
715
803
765
750
880
1094
1196
1052
745
510
506
662
741
579
241
-59
-173
-146
-116
-143
-148
-36
165
330
388
389
422
487
482
335
106
-57
-67
21
91
110
137
218
301
300
224
189
276
417
462
355
220
255
555
1040
1562
2032
2435
2754
2927
2897
2689
2394
2093
1791
1434
1014
617
377
371
530
680
670
481
236
81
65
118
143
106
51
46
122
274
469
656
767
760
671
602
637
761
869
868
769
656
577
499
357
169
39
59
224
432
579
641
654
654
626
551
453
380
358
366
360
327
299
331
440
585
672
638
515
421
482
737
1126
1542
1880
2064
2056
1869
1567
1227
861
425
-93
-597
-913
-934
-716
-417
-170
5
129
185
116
-77
-297
-421
-429
-405
-410
-386
-207
160
561
791
781
666
629
714
800
758
609
500
533
644
665
500
227
23
-8
64
92
3
-134
-203
-170
-111
-120
-211
-317
-365
-354
-341
-366
-407
-400
-332
-273
-313
-464
-638
-745
-796
-873
-1010
-1131
-1138
-1028
-910
-883
-917
-901
-776
-620
-573
-697
-931
-1155
-1299
-1388
-1475
-1559
-1578
-1472
-1269
-1065
-935
-878
-836
-778
-733
-598
-834
-846
-811
-728
-598
-447
-330
-296
-331
-362
-321
-222
-131
-98
-114
-127
-98
-38
1
-27
-142
-331
-544
-698
-722
-606
-421
-263
-165
-82
39
178
241
161
-38
-254
-399
-464
-489
-518
-557
-575
-543
-461
-369
-316
-318
-353
-379
-389
-397
-405
-394
-357
-320
-315
-345
-380
-402
-410
-408
-382
-345
-348
-447
-619
-771
-837
-849
-881
-941
-938
-762
-391
110
655
1180
1630
1913
1948
1750
1452
1208
1049
868
559
168
-121
-160
7
177
180
5
-242
-472
-654
-786
-858
-878
-876
-869
-822
-702
-553
-469
-495
-566
-596
-576
-573
-620
-647
-566
-389
-231
-193
-268
-372
-430
-439
-426
-408
-381
-334
-272
-215
-183
-183
-198
-201
-185
-162
-165
-229
-364
-523
-615
-566
-425
-357
-474
-671
-716
-520
-283
-283
-513
-649
-420
45
330
192
-171
-345
-172
94
111
-172
-470
-497
-266
-49
-76
-315
-537
-581
-504
-481
-624
-882
-1077
-1048
-775
-388
-90
9
3
115
436
774
786
316
-399
-940
-1089
-986
-908
-964
-1046
-1031
-951
-898
-874
-812
-726
-759
-1009
-1366
-1566
-1473
-1225
-1096
-1209
-1445
-1596
-1563
-1405
-1237
-1131
-1111
-1166
-1259
-1333
-1348
-1327
-1340
-1446
-1644
-1867
-2020
-2041
-1932
-1742
-1525
-1285
-1008
-751
-611
-609
-627
-509
-261
-85
-149
-357
-438
-274
-49
-12
-148
-195
-23
171
128
-123
-293
-232
-147
-314
-683
-920
-819
-532
-335
-274
-177
40
232
239
128
108
265
477
590
602
636
789
1053
1349
1584
1672
1581
1378
1229
1261
1445
1638
1737
1757
1783
1860
1969
2057
2074
1971
1739
1467
1325
1433
1721
1966
1993
1827
1649
1589
1606
1570
1412
1172
936
790
793
947
1147
1236
1162
1044
1041
1131
1104
805
357
57
63
253
425
559
806
1271
1866
2415
2812
3039
3079
2907
2567
2192
1892
1654
1395
1088
803
628
574
587
594
523
323
7
-301
-467
-484
-476
-550
-675
-752
-756
-760
-821
-909
-995
-1122
-1320
-1479
-1409
-1079
-722
-633
-858
-1158
-1279
-1224
-1208
-1385
-1680
-1880
-1846
-1613
-1318
-1077
-928
-860
-848
-874
-921
-959
-966
-940
-897
-854
-788
-655
-437
-182
26
129
132
85
53
83
175
291
373
406
440
539
690
804
826
811
863
1004
1120
1098
963
854
862
924
914
803
688
653
669
651
602
628
791
981
1008
826
616
592
750
856
703
344
45
8
190
378
403
264
75
-34
10
194
417
552
547
474
450
515
604
628
572
479
374
250
111
-6
-64
-70
-71
-124
-246
-406
-528
-549
-470
-382
-389
-486
-565
-536
-433
-369
-404
-497
-592
-698
-857
-1035
-1131
-1080
-946
-859
-867
-887
-823
-695
-629
-715
-896
-1015
