-450
-533
-571
-420
-188
-206
-614
-1129
-1368
-1283
-1104
-978
-786
-410
59
410
551
560
514
444
414
512
691
715
402
-75
-315
-156
163
328
278
203
255
386
509
631
781
870
739
391
11
-245
-352
-369
-332
-256
-238
-421
-782
-1081
-1080
-811
-574
-628
-846
-809
-277
493
961
831
338
-50
-214
-516
-1265
-2165
-2469
-1705
-256
910
1143
674
262
381
772
835
297
-587
-1347
-1710
-1639
-1123
-240
666
1076
718
-112
-790
-1019
-1105
-1517
-2335
-3200
-3726
-3837
-3675
-3325
-2819
-2264
-1791
-1431
-1096
-726
-310
169
710
1144
1179
763
289
239
634
955
759
216
-176
-312
-616
-1420
-2442
-3105
-3241
-3215
-3363
-3543
-3360
-2735
-2046
-1678
-1601
-1506
-1251
-1006
-973
-1076
-1070
-882
-660
-577
-612
-636
-576
-473
-360
-216
-96
-103
-159
66
797
1709
2020
1276
-65
-1039
-1196
-1048
-1397
-2373
-3270
-3336
-2524
-1454
-742
-487
-427
-361
-312
-379
-506
-522
-415
-388
-568
-838
-925
-717
-411
-251
-237
-207
-104
25
272
933
2092
3275
3787
3436
2687
2013
1280
29
-1727
-3305
-4101
-4288
-4481
-4861
-4894
-4057
-2589
-1308
-757
-741
-687
-314
163
401
297
-23
-320
-402
-250
-3
112
-33
-342
-608
-728
-750
-765
-796
-807
-781
-708
-558
-348
-239
-439
-909
-1305
-1303
-1004
-858
-1164
-1694
-1944
-1697
-1225
-937
-989
-1213
-1357
-1301
-1067
-791
-709
-1010
-1587
-2016
-1938
-1456
-1056
-1080
-1344
-1375
-1002
-554
-472
-795
-1172
-1307
-1256
-1229
-1241
-1115
-801
-551
-608
-852
-927
-710
-543
-809
-1420
-1870
-1808
-1394
-1054
-934
-752
-268
317
557
289
-159
-361
-318
-452
-1071
-1904
-2280
-1790
-714
246
650
615
523
511
363
-169
-1042
-1970
-2751
-3365
-3810
-3947
-3627
-2910
-2070
-1372
-883
-549
-405
-583
-1061
-1543
-1684
-1438
-1122
-1052
-1136
-960
-321
463
858
718
452
520
898
1153
987
554
231
140
82
-147
-501
-778
-891
-873
-731
-417
22
401
551
505
450
470
460
339
231
294
455
417
26
-451
-607
-402
-262
-595
-1279
-1766
-1669
-1133
-570
-188
80
269
205
-259
-954
-1556
-1960
-2382
-3032
-3762
-4208
-4195
-3914
-3648
-3467
-3258
-2958
-2663
-2483
-2392
-2298
-2171
-2056
-1977
-1885
-1704
-1433
-1133
-864
-659
-505
-364
-222
-117
-130
-298
-565
-834
-1122
-1581
-2326
-3261
-4126
-4779
-5394
-6290
-7531
-8743
-9389
-9262
-8678
-8122
-7729
-7162
-6027
-4360
-2651
-1380
-624
-72
565
1275
1821
2040
2003
1896
1828
1759
1596
1340
1096
977
984
1010
964
883
890
1036
1217
1282
1188
1022
881
770
645
517
458
500
574
593
559
540
573
610
579
498
448
480
555
578
508
403
366
423
484
429
239
29
-68
-68
-116
-316
-592
-762
-760
-710
-774
-949
-1078
-1044
-906
-817
-841
-925
-995
-1047
-1117
-1191
-1222
-1210
-1227
-1319
-1441
-1502
-1465
-1402
-1386
-1415
-1418
-1353
-1283
-1310
-1453
-1611
-1688
-1715
-1823
-2084
-2413
-2646
-2710
-2679
-2652
-2635
-2569
-2430
-2268
-2143
-2051
-1957
-1859
-1797
-1800
-1849
-1906
-1945
-1946
-1890
-1781
-1656
-1560
-1501
-1439
-1346
-1242
-1175
-1166
-1200
-1256
-1336
-1447
-1571
-1694
-1820
-1941
-2030
-2062
-2054
-2054
-2071
-2059
-1971
-1843
-1762
-1758
-1753
-1658
-1485
-1336
-1261
-1188
-1014
-740
-475
-318
-257
-219
-162
-100
-48
12
98
199
289
369
463
572
672
729
752
783
839
898
922
913
914
970
1077
1178
1225
1226
1220
1222
1203
1135
1045
989
983
978
919
813
721
684
674
-90
-105
-103
-89
-79
-79
-82
-83
-97
-145
-220
-287
-314
-304
-280
-241
-141
57
335
619
850
1015
1133
1184
1106
861
483
57
-363
-791
-1258
-1725
-2073
-2185
-2054
-1792
-1526
-1288
-1018
-670
-303
-40
63
96
169
259
224
11
-207
-177
118
391
351
45
-186
-105
151
245
42
-250
-341
-197
-18
16
-57
-76
24
159
214
183
144
143
154
116
25
-52
-46
43
124
106
-23
-160
-185
-88
12
-4
-129
-246
-267
-227
-224
-291
-354
-319
-191
-68
-33
-79
-125
-138
-145
-191
-287
-390
-447
-444
-398
-341
-280
-197
-78
55
141
121
8
-99
-106
-21
43
-14
-163
-268
-223
-72
41
40
-4
18
120
214
230
212
259
372
443
390
266
201
241
309
302
219
168
228
360
447
420
308
189
102
46
22
36
67
52
-49
-181
-239
-185
-107
-121
-241
-374
-441
-447
-449
-459
-447
-412
-406
-459
-521
-526
-485
-470
-516
-570
-562
-486
-402
-344
-289
-205
-104
-26
8
16
15
8
-2
-3
4
7
3
16
76
167
235
238
200
185
225
294
343
349
340
356
412
495
583
663
732
795
846
866
835
771
722
718
741
732
668
596
583
631
664
624
562
598
771
977
1064
1011
962
1067
1311
1529
1589
1518
1446
1448
1488
1499
1486
1514
1610
1726
1786
1773
1742
1748
1808
1876
1877
1782
1628
1497
1444
1446
1426
1344
1239
1167
1123
1050
928
821
790
812
793
693
579
537
561
565
503
425
407
442
451
382
279
222
229
243
204
108
-2
-87
-136
-154
-150
-142
-153
-189
-213
-178
-79
41
142
234
364
555
765
924
995
983
881
659
302
-144
-602
-1031
-1456
-1906
-2347
-2699
-2902
-2947
-2860
-2676
-2447
-2236
-2079
-1946
-1786
-1604
-1476
-1479
-1601
-1756
-1869
-1935
-1982
-2008
-1986
-1908
-1806
-1726
-1683
-1660
-1632
-1584
-1528
-1480
-1455
-1442
-1416
-1357
-1267
-1171
-1091
-1033
-992
-967
-959
-959
-957
-954
-959
-970
-969
-940
-894
-861
-856
-865
-862
-842
-829
-851
-914
-989
-1035
-1040
-1030
-1043
-1082
-1089
-999
-816
-633
-550
-578
-630
-613
-523
-438
-424
-476
-532
-546
-520
-481
-449
-422
-398
-383
-382
-393
-410
-429
-442
-441
-424
-405
-404
-433
-481
-518
-528
-511
-482
-453
-424
-396
-376
-373
-386
-395
-383
-351
-331
-357
-432
-524
-595
-633
-657
-689
-731
-772
-811
-854
-906
-955
-988
-1002
-1011
-1029
-1058
-1092
-1128
-1160
-1180
-1186
-1182
-1182
-1194
-1226
-1280
-1348
-1401
-1409
-1373
-1338
-1348
-1402
-1450
-1458
-1440
-1437
-1456
-1462
-1432
-1390
-1372
-1380
-1370
-1309
-1218
-1147
-1123
-1126
-1131
-1138
-1158
-1183
-1182
-1137
-1069
-1020
-1014
-1035
-1048
-1041
-1029
-1029
-1042
-1054
-1059
-1064
-1078
-1096
-1104
-1091
-1061
-1021
-982
-963
-983
-1033
-1066
-1043
-972
-909
-900
-934
-967
-981
-989
-1002
-998
-953
-880
-820
-799
-794
-769
-719
-666
-623
-585
-549
-531
-545
-576
-585
-547
-464
-366
-292
-268
-287
-316
-320
-300
-286
-307
-354
-404
-455
-524
-611
-680
-699
-686
-695
-754
-837
-900
-929
-945
-965
-978
-971
-952
-948
-970
-1001
-1008
-984
-948
-928
-935
-952
-965
-979
-1007
-1046
-1066
-1046
-999
-961
-949
-945
-920
-869
-811
-765
-733
-711
-688
-654
-596
-510
-400
-249
-29
268
590
852
990
1008
937
782
520
137
-341
-868
-1402
-1901
-2311
-2574
-2666
-2609
-2455
-2241
-1986
-1700
-1408
-1145
-932
-778
-678
-635
-656
-734
-834
-912
-942
-937
-927
-928
-934
-934
-927
-917
-898
-865
-830
-814
-830
-864
-893
-902
-897
-884
-863
-835
-813
-811
-831
-853
-863
-854
-832
-803
-773
-755
-762
-791
-817
-817
-794
-777
-785
-808
-823
-831
-852
-888
-909
-878
-804
-736
-718
-743
-770
-767
-744
-726
-719
-710
-682
-642
-609
-594
-586
-558
-495
-426
-400
-436
-493
-506
-463
-419
-420
-441
-416
-332
-261
-277
-356
-404
-373
-312
-302
-347
-381
-364
-329
-330
-363
-371
-330
-278
-272
-316
-364
-383
-382
-392
-417
-427
-403
-371
-380
-450
-545
-609
-619
-611
-637
-713
-804
-871
-916
-956
-993
-1004
-991
-992
-1047
-1144
-1228
-1261
-1262
-1275
-1311
-1342
-1343
-1330
-1330
-1348
-1361
-1359
-1352
-1357
-1373
-1382
-1378
-1376
-1384
-1388
-1360
-1294
-1217
-1170
-1170
-1191
-1196
-1178
-1159
-1158
-1165
-1155
-1132
-1137
-1189
-1253
-1265
-1201
-1115
-1077
-1112
-1176
-1215
-1216
-1199
-1180
-1160
-1139
-1126
-1136
-1160
-1171
-1155
-1122
-1091
-1079
-1085
-1102
-1124
-1144
-1151
-1140
-1111
-1074
-1044
-1035
-1047
-1063
-1066
-1047
-1015
-985
-961
-940
-922
-920
-936
-947
-927
-875
-821
-797
-805
-816
-803
-758
-695
-634
-589
-560
-533
-501
-479
-494
-550
-611
-633
-615
-607
-656
-747
-821
-843
-839
-856
-901
-947
-972
-996
-1051
-1136
-1202
-1206
-1151
-1090
-1070
-1096
-1133
-1147
-1131
-1105
-1085
-1076
-1079
-1095
-1118
-1129
-1115
-1078
-1040
-1017
-1005
-990
-967
-945
-932
-924
-911
-881
-823
-736
-631
-517
-381
-183
97
419
709
914
1039
1102
1075
889
519
24
-497
-984
-1444
-1901
-2333
-2671
-2848
-2832
-2637
-2322
-1980
-1693
-1487
-1320
-1134
-933
-779
-730
-779
-866
-939
-990
-1025
-1036
-1014
-964
-921
-912
-928
-938
-934
-929
-938
-948
-933
-889
-847
-836
-844
-832
-776
-703
-660
-658
-663
-646
-626
-641
-687
-707
-658
-567
-512
-531
-589
-619
-597
-555
-534
-537
-551
-572
-598
-619
-611
-572
-536
-527
-532
-520
-487
-471
-499
-543
-551
-503
-440
-423
-462
-512
-521
-489
-459
-464
-488
-489
-453
-409
-398
-424
-446
-425
-364
-309
-300
-330
-364
-372
-363
-360
-368
-368
-347
-316
-308
-339
-388
-421
-419
-397
-378
-371
-376
-397
-431
-468
-487
-474
-444
-428
-445
-498
-572
-643
-694
-714
-715
-721
-751
-801
-850
-885
-909
-930
-946
-958
-980
-1026
-1094
-1159
-1195
-1201
-1197
-1203
-1217
-1226
-1229
-1240
-1267
-1301
-1321
-1320
-1311
-1309
-1318
-1324
-1319
-1307
-1293
-1274
-1239
-1193
-1159
-1160
-1189
-1215
-1208
-1170
-1130
-1110
-1103
-1094
-1075
-1054
-1046
-1049
-1048
-1030
-1007
-1002
-1026
-1058
-1068
-1041
-992
-952
-933
-924
-916
-916
-931
-951
-956
-935
-904
-885
-884
-885
-882
-880
-888
-897
-885
-851
-824
-835
-884
-935
-946
-911
-855
-814
-807
-833
-865
-875
-851
-807
-767
-746
-738
-730
-715
-698
-685
-675
-665
-651
-629
-596
-555
-524
-520
-546
-572
-564
-520
-472
-469
-522
-607
-685
-734
-757
-766
-776
-808
-877
-975
-1064
-1100
-1076
-1028
-1004
-1019
-1051
-1073
-1078
-1073
-1060
-1035
-1004
-986
-997
-1031
-1065
-1078
-1067
-1050
-1044
-1055
-1068
-1072
-1066
-1070
-1092
-1111
-1081
-985
-867
-802
-827
-893
-900
-797
-621
-451
-315
-162
65
364
672
943
1177
1370
1460
1352
1010
504
-41
-547
-1018
-1487
-1949
-2348
-2606
-2671
-2540
-2273
-1963
-1691
-1476
-1286
-1090
-914
-813
-823
-922
-1049
-1149
-1198
-1200
-1184
-1182
-1203
-1225
-1215
-1166
-1106
-1065
-1052
-1055
-1068
-1094
-1126
-1137
-1106
-1043
-987
-966
-972
-982
-985
-984
-981
-964
-930
-899
-901
-936
-972
-979
-956
-932
-922
-919
-908
-893
-892
-906
-912
-885
-833
-789
-780
-801
-827
-839
-832
-806
-767
-731
-722
-749
-791
-811
-792
-751
-717
-703
-696
-678
-654
-639
-637
-628
-599
-558
-531
-533
-549
-555
-547
-541
-549
-557
-544
-513
-496
-521
-570
-597
-576
-528
-493
-488
-499
-507
-514
-532
-558
-572
-558
-529
-515
-537
-587
-636
-654
-639
-618
-623
-667
-728
-778
-807
-833
-872
-917
-945
-950
-952
-983
-1054
-1139
-1196
-1208
-1189
-1179
-1201
-1247
-1288
-1302
-1295
-1283
-1280
-1281
-1283
-1290
-1309
-1337
-1365
-1378
-1370
-1347
-1318
-1294
-1286
-1294
-1304
-1299
-1274
-1243
-1229
-1237
-1255
-1268
-1277
-1292
-1312
-1319
-1292
-1239
-1189
-1170
-1187
-1213
-1225
-1214
-1184
-1148
-1124
-1123
-1139
-1153
-1140
-1099
-1051
-1013
-990
-973
-958
-955
-967
-983
-986
-966
-930
-899
-893
-920
-962
-989
-977
-934
-891
-879
-898
-926
-944
-949
-949
-948
-943
-935
-931
-946
-979
-1015
-1036
-1034
-1013
-989
-979
-991
-1020
-1050
-1059
-1041
-1003
-968
-956
-970
-996
-1012
-1007
-986
-966
-956
-948
-927
-897
-879
-879
-881
-858
-807
-759
-740
-741
-726
-685
-644
-628
-626
-596
-527
-460
-454
-520
-607
-656
-663
-664
-698
-764
-832
-883
-925
-975
-1035
-1086
-1105
-1090
-1068
-1076
-1125
-1187
-1215
-1184
-1120
-1077
-1087
-1132
-1175
-1201
-1219
-1235
-1237
-1213
-1175
-1149
-1151
-1173
-1193
-1194
-1166
-1112
-1055
-1024
-1037
-1079
-1106
-1081
-994
-869
-728
-576
-398
-177
85
359
609
811
951
999
900
622
197
-290
-769
-1232
-1694
-2132
-2483
-2691
-2755
-2700
-2542
-2286
-1963
-1639
-1369
-1166
-1015
-915
-875
-895
-949
-1001
-1035
-1054
-1069
-1088
-1101
-1092
-1052
-994
-944
-918
-909
-904
-899
-900
-905
-896
-859
-802
-759
-750
-777
-816
-838
-828
-789
-744
-718
-714
-714
-707
-695
-686
-672
-642
-606
-596
-627
-671
-687
-668
-644
-634
-623
-594
-560
-560
-602
-639
-625
-565
-514
-512
-547
-576
-575
-556
-538
-523
-501
-471
-451
-457
-489
-526
-544
-533
-501
-468
-449
-443
-446
-454
-461
-453
-421
-369
-327
-314
-326
-336
-323
-296
-270
-249
-224
-198
-194
-228
-281
-313
-301
-262
-223
-202
-197
-206
-235
-277
-302
-288
-248
-226
-256
-326
-390
-419
-424
-436
-466
-500
-530
-569
-630
-704
-755
-767
-758
-763
-796
-837
-866
-883
-909
-952
-995
-1008
-990
-969
-977
-1016
-1059
-1075
-1059
-1031
-1009
-997
-989
-989
-1005
-1026
-1029
-1003
-960
-931
-929
-945
-961
-968
-969
-964
-949
-926
-904
-893
-893
-896
-899
-899
-890
-863
-823
-794
-803
-845
-885
-886
-838
-773
-732
-735
-762
-782
-780
-770
-768
-776
-777
-767
-762
-783
-827
-867
-872
-840
-792
-755
-744
-759
-789
-819
-829
-814
-782
-757
-755
-775
-802
-819
-813
-787
-752
-727
-719
-726
-735
-738
-736
-731
-721
-702
-673
-643
-621
-612
-611
-604
-579
-533
-482
-447
-438
-442
-432
-402
-366
-343
-330
-306
-267
-240
-256
-310
-367
-400
-416
-437
-473
-518
-569
-633
-710
-780
-817
-817
-802
-802
-831
-880
-928
-949
-929
-874
-813
-777
-783
-823
-873
-909
-915
-894
-868
-862
-885
-920
-937
-926
-895
-859
-823
-783
-741
-709
-701
-713
-716
-674
-577
-438
-281
-109
97
339
590
812
993
1138
1217
1153
891
460
-38
-517
-965
-1408
-1841
-2204
-2437
-2518
-2457
-2273
-1991
-1659
-1337
-1061
-834
-653
-532
-484
-500
-545
-588
-621
-647
-665
-670
-665
-651
-623
-577
-515
-453
-416
-413
-437
-461
-462
-432
-384
-343
-327
-334
-351
-364
-367
-354
-322
-282
-251
-244
-258
-274
-277
-265
-245
-220
-195
-175
-172
-183
-195
-192
-169
-138
-116
-112
-123
-137
-152
-167
-176
-170
-141
-105
-88
-104
-138
-158
-144
-109
-75
-55
-45
-43
-52
-69
-78
-61
-17
26
41
23
-4
-14
-2
14
17
16
28
54
66
39
-13
-43
-17
48
97
97
58
20
5
4
2
-6
-8
-3
-8
-37
-86
-130
-148
-144
-140
-160
-205
-255
-295
-321
-344
-374
-406
-434
-453
-477
-521
-590
-666
-724
-751
-756
-765
-794
-842
-896
-941
-969
-977
-971
-962
-965
-985
-1015
-1041
-1051
-1047
-1036
-1026
-1020
-1015
-1014
-1019
-1027
-1029
-1013
-973
-926
-894
-888
-898
-908
-907
-892
-868
-839
-814
-804
-815
-837
-855
-858
-845
-820
-788
-761
-756
-778
-809
-819
-792
-739
-694
-682
-699
-720
-725
-716
-701
-686
-668
-643
-623
-624
-648
-676
-684
-664
-629
-603
-603
-623
-652
-676
-688
-688
-681
-669
-659
-658
-671
-693
-706
-695
-661
-624
-603
-597
-597
-598
-604
-615
-621
-613
-594
-581
-585
-598
-610
-617
-615
-596
-554
-492
-438
-413
-418
-426
-413
-371
-310
-247
-200
-176
-167
-154
-126
-94
-71
-54
-34
-24
-57
-149
-264
-342
-359
-359
-400
-491
-583
-634
-646
-652
-663
-658
-624
-580
-565
-590
-627
-644
-633
-611
-595
-586
-581
-586
-605
-628
-631
-598
-550
-524
-538
-571
-586
-568
-537
-512
-488
-450
-392
-327
-265
-189
-68
119
367
639
887
1076
1210
1309
1364
1315
1094
706
246
-187
-577
-981
-1429
-1860
-2150
-2226
-2112
-1890
-1629
-1358
-1085
-822
-586
-392
-248
-168
-167
-249
-388
-533
-632
-658
-627
-583
-550
-527
-501
-473
-455
-446
-429
-394
-358
-354
-390
-438
-458
-441
-415
-407
-419
-427
-417
-398
-389
-391
-388
-359
-311
-270
-261
-283
-315
-334
-331
-309
-279
-247
-226
-219
-222
-226
-221
-207
-188
-162
-134
-115
-117
-140
-159
-154
-126
-99
-85
-78
-67
-55
-56
-75
-90
-75
-27
24
43
17
-25
-41
-11
46
89
100
93
90
95
89
68
49
60
100
138
142
110
69
46
49
67
84
86
71
44
17
-5
-21
-30
-25
-7
10
2
-37
-85
-119
-129
-129
-133
-154
-197
-266
-346
-407
-433
-444
-475
-533
-587
-610
-615
-639
-689
-731
-740
-733
-747
-787
-827
-847
-865
-900
-941
-951
-922
-889
-898
-952
-1016
-1051
-1049
-1023
-990
-962
-945
-944
-958
-971
-962
-918
-853
-805
-805
-843
-874
-862
-812
-761
-730
-708
-678
-647
-638
-660
-683
-673
-630
-585
-569
-582
-603
-613
-610
-604
-595
-578
-551
-526
-518
-534
-555
-557
-532
-498
-482
-485
-487
-475
-464
-475
-504
-517
-487
-439
-424
-466
-532
-569
-558
-528
-512
-512
-506
-489
-481
-500
-533
-544
-519
-478
-455
-465
-495
-521
-528
-517
-495
-468
-445
-435
-439
-452
-458
-450
-430
-494
-373
-345
-327
-336
-370
-402
-400
-364
-327
-320
-332
-328
-295
-261
-253
-252
-221
-159
-104
-91
-103
-96
-59
-18
6
20
41
61
54
6
-67
-142
-209
-263
-303
-342
-404
-495
-587
-642
-649
-637
-634
-641
-643
-645
-665
-706
-739
-733
-688
-637
-619
-648
-702
-744
-742
-698
-646
-623
-630
-641
-633
-615
-614
-629
-618
-555
-463
-400
-403
-448
-465
-405
-271
-100
76
258
457
667
870
1047
1189
1273
1256
1090
765
328
-151
-614
-1047
-1453
-1816
-2090
-2230
-2226
-2102
-1894
-1629
-1328
-1025
-758
-551
-408
-318
-284
-311
-382
-454
-495
-504
-501
-508
-522
-530
-520
-489
-440
-383
-341
-334
-361
-394
-407
-392
-361
-324
-289
-264
-264
-287
-311
-312
-282
-237
-198
-179
-181
-204
-236
-261
-268
-258
-246
-248
-274
-315
-356
-381
-377
-343
-296
-259
-246
-260
-287
-301
-281
-229
-175
-148
-150
-152
-123
-68
-16
11
21
43
85
127
141
123
88
66
76
118
169
201
193
157
132
147
194
242
270
282
283
271
240
201
181
194
225
241
232
212
201
197
196
196
200
206
198
165
116
70
39
27
32
51
68
68
41
-4
-52
-96
-139
-179
-211
-235
-263
-308
-369
-430
-472
-485
-470
-447
-447
-489
-566
-636
-661
-638
-602
-592
-615
-658
-701
-733
-742
-720
-676
-642
-642
-668
-684
-667
-637
-624
-631
-633
-615
-594
-598
-629
-660
-666
-646
-620
-603
-599
-609
-635
-669
-687
-677
-643
-608
-588
-584
-591
-604
-611
-600
-569
-534
-518
-520
-522
-521
-529
-549
-564
-544
-495
-458
-465
-503
-532
-532
-519
-508
-490
-453
-417
-416
-461
-513
-527
-499
-461
-447
-456
-470
-482
-497
-512
-509
-480
-446
-432
-443
-462
-472
-471
-462
-441
-405
-367
-346
-354
-376
-396
-404
-401
-384
-356
-330
-323
-336
-348
-336
-300
-260
-233
-219
-210
-206
-203
-190
-156
-103
-45
4
36
48
35
0
-40
-72
-97
-130
-178
-230
-274
-315
-366
-428
-484
-513
-518
-516
-528
-561
-608
-651
-664
-628
-558
-495
-480
-517
-568
-593
-581
-557
-544
-549
-568
-597
-626
-644
-635
-598
-545
-497
-460
-432
-411
-395
-384
-366
-317
-226
-99
44
192
361
573
824
1076
1285
1428
1490
1441
1241
889
441
-18
-440
-838
-1235
-1609
-1899
-2048
-2041
-1899
-1651
-1335
-1003
-712
-491
-329
-200
-96
-31
-17
-47
-100
-157
-203
-226
-221
-193
-156
-121
-87
-53
-28
-27
-52
-80
-86
-62
-29
-7
1
7
14
19
25
43
81
122
136
113
80
70
95
133
157
165
169
181
193
193
185
186
206
238
260
262
249
236
232
239
260
290
321
336
324
296
275
277
300
328
346
351
351
350
343
332
327
341
371
398
394
357
310
290
310
356
398
419
419
414
413
420
428
437
446
454
459
459
451
439
423
411
406
412
427
440
431
393
338
299
293
311
325
317
285
239
186
135
99
87
89
80
41
-24
-94
-148
-183
-206
-222
-238
-263
-305
-363
-422
-464
-483
-489
-494
-501
-509
-523
-550
-582
-597
-578
-535
-499
-499
-529
-564
-581
-575
-554
-530
-509
-497
-495
-495
-487
-471
-457
-451
-446
-430
-407
-397
-413
-444
-463
-448
-403
-355
-326
-324
-336
-345
-340
-322
-299
-279
-264
-251
-243
-247
-264
-278
-273
-242
-202
-182
-196
-236
-278
-300
-294
-269
-247
-248
-273
-307
-331
-337
-327
-307
-288
-272
-267
-279
-301
-320
-322
-299
-260
-217
-186
-173
-174
-175
-163
-135
-99
-66
-45
-39
-47
-68
-89
-90
-61
-11
30
44
42
46
63
82
96
116
155
198
213
195
178
204
272
336
367
382
408
435
422
355
271
217
198
179
131
68
12
-35
-84
-132
-161
-160
-148
-151
-177
-214
-246
-259
-247
-217
-185
-170
-178
-203
-236
-268
-283
-263
-212
-173
-187
-245
-292
-284
-239
-208
-208
-208
-174
-120
-92
-99
-100
-44
66
195
328
489
702
938
1134
1262
1362
1477
1571
1529
1262
805
293
-154
-523
-874
-1242
-1591
-1844
-1945
-1881
-1674
-1365
-1016
-692
-430
-225
-62
55
102
65
-31
-140
-224
-275
-297
-300
-280
-233
-168
-106
-62
-37
-20
-14
-31
-70
-107
-107
-59
8
53
61
49
38
37
44
63
91
114
110
73
34
30
67
117
145
142
128
126
136
147
152
158
170
182
188
190
193
197
197
198
216
260
308
321
285
233
217
250
298
321
319
323
349
378
379
352
331
344
386
429
445
427
390
362
369
414
472
506
500
468
440
432
441
457
475
492
502
497
473
444
426
423
425
418
399
370
334
293
255
234
241
267
287
280
247
202
160
124
93
74
70
69
48
1
-53
-81
-69
-44
-43
-81
-134
-174
-199
-226
-265
-298
-301
-280
-266
-281
-315
-343
-351
-348
-340
-322
-293
-267
-267
-290
-311
-303
-273
-243
-228
-225
-225
-230
-243
-256
-253
-226
-189
-164
-164
-182
-201
-209
-201
-176
-141
-111
-101
-114
-137
-146
-136
-119
-111
-110
-106
-96
-96
-116
-142
-144
-112
-67
-42
-49
-72
-87
-90
-89
-88
-82
-65
-42
-30
-44
-79
-109
-107
-73
-32
-12
-23
-52
-79
-92
-88
-67
-37
-13
-8
-22
-43
-61
-76
-92
-102
-100
-93
-101
-137
-188
-221
-215
-176
-131
-106
-104
-113
-116
-105
-87
-70
-54
-32
1
36
54
46
28
30
71
141
213
260
279
285
297
324
358
388
403
397
366
304
221
141
92
80
75
37
-49
-161
-255
-300
-301
-285
-274
-274
-284
-297
-307
-308
-295
-273
-252
-247
-266
-292
-305
-299
-284
-278
-278
-265
-234
-208
-210
-240
-261
-240
-175
-96
-38
-13
0
30
103
229
401
609
840
1074
1280
1435
1542
1617
1643
1556
1294
870
381
-76
-478
-869
-1278
-1654
-1892
-1920
-1753
-1472
-1171
-896
-641
-382
-116
116
257
284
218
104
-24
-141
-221
-241
-214
-179
-171
-188
-199
-181
-146
-112
-86
-66
-62
-85
-124
-142
-107
-35
35
76
91
102
118
138
161
190
224
253
270
272
266
249
228
214
225
261
304
330
324
298
271
262
274
300
325
340
343
336
321
309
317
356
409
442
437
411
398
410
424
421
416
438
483
508
478
415
382
412
479
524
517
482
456
452
458
464
476
500
529
542
530
503
485
487
505
528
544
544
524
489
453
430
424
426
427
424
418
402
370
330
306
313
336
338
295
223
163
136
121
88
35
-5
-14
-16
-52
-133
-221
-270
-273
-267
-287
-333
-381
-418
-454
-497
-529
-524
-484
-450
-462
-513
-554
-548
-507
-471
-456
-447
-427
-414
-432
-470
-481
-441
-379
-347
-356
-372
-357
-325
-312
-327
-336
-309
-265
-252
-289
-341
-358
-329
-286
-258
-245
-230
-212
-209
-225
-241
-235
-210
-192
-200
-221
-232
-230
-226
-222
-212
-185
-150
-131
-142
-176
-211
-227
-220
-193
-164
-151
-169
-210
-250
-265
-253
-230
-210
-201
-200
-205
-217
-231
-241
-239
-224
-200
-178
-174
-198
-242
-279
-277
-224
-156
-122
-146
-204
-245
-241
-202
-160
-138
-135
-140
-141
-137
-131
-126
-121
-107
-81
-50
-34
-47
-77
-96
-88
-61
-31
-11
-1
10
30
66
120
179
225
257
286
307
302
263
215
190
192
191
156
98
48
15
-22
-78
-134
-153
-135
-117
-135
-188
-242
-259
-234
-189
-152
-143
-162
-193
-219
-229
-219
-194
-165
-148
-148
-157
-169
-187
-210
-214
-172
-96
-38
-38
-77
-97
-65
-5
53
116
210
336
467
597
764
995
1256
1468
1575
1576
1482
1273
931
487
16
-423
-831
-1229
-1597
-1866
-1970
-1903
-1707
-1431
-1110
-775
-467
-223
-55
56
132
176
170
110
27
-40
-75
-89
-93
-81
-42
13
58
77
80
82
84
76
66
71
96
117
110
78
48
40
49
60
76
105
142
160
143
109
96
120
162
188
181
148
111
87
89
118
164
200
201
169
131
117
133
160
176
183
195
212
224
223
219
230
263
300
323
335
346
354
346
320
301
320
375
425
439
419
396
396
419
451
480
497
497
480
454
432
426
441
479
533
574
575
534
485
474
510
558
574
553
519
498
487
471
450
437
441
454
455
431
387
338
302
287
287
281
249
189
120
64
29
5
-23
-57
-91
-115
-134
-169
-231
-301
-346
-343
-314
-306
-346
-407
-440
-429
-406
-408
-433
-441
-417
-394
-420
-489
-543
-531
-468
-416
-413
-442
-455
-440
-418
-410
-403
-373
-323
-286
-286
-308
-317
-290
-241
-191
-152
-130
-126
-142
-165
-167
-138
-92
-55
-42
-48
-60
-73
-85
-87
-71
-40
-15
-14
-35
-56
-64
-63
-60
-48
-20
14
21
-18
-77
-106
-77
-18
21
16
-15
-39
-43
-37
-29
-18
2
20
22
7
-15
-27
-28
-24
-15
9
48
81
80
44
9
13
60
111
125
102
70
57
68
90
118
153
191
225
246
254
258
265
290
340
409
470
500
494
471
456
453
451
435
398
338
265
191
125
71
22
-22
-61
-96
-131
-174
-221
-261
-285
-289
-272
-236
-195
-173
-191
-237
-278
-280
-246
-208
-200
-226
-261
-273
-249
-202
-157
-127
-109
-89
-63
-37
-19
-9
6
48
128
235
341
435
541
708
953
1233
1478
1646
1740
1765
1683
1451
1075
626
172
-270
-720
-1166
-1552
-1805
-1892
-1827
-1637
-1358
-1038
-734
-486
-291
-122
26
134
177
154
90
10
-66
-122
-142
-120
-71
-21
10
26
42
64
89
109
124
136
148
158
161
156
145
142
161
201
243
257
237
205
193
211
241
265
280
291
297
288
265
242
237
257
290
316
322
307
288
285
305
332
341
328
315
315
318
301
266
245
272
337
398
418
399
373
366
380
406
438
474
510
536
549
559
582
628
685
735
763
765
748
719
692
687
712
754
786
789
767
744
736
741
747
752
760
769
771
754
725
700
695
713
739
750
729
681
626
585
566
560
549
528
495
452
399
342
294
267
255
242
213
168
116
68
28
-3
-25
-35
-41
-55
-83
-121
-153
-169
-167
-152
-131
-110
-103
-117
-151
-181
-186
-162
-127
-103
-101
-116
-139
-153
-148
-119
-73
-35
-20
-28
-46
-59
-65
-65
-62
-58
-53
-49
-49
-54
-60
-57
-39
-7
22
28
6
-30
-65
-89
-99
-90
-58
-19
4
-7
-33
-44
-27
2
20
18
5
-18
-51
-87
-104
-90
-52
-18
-1
2
-5
-21
-36
-32
1
41
50
14
-37
-61
-48
-24
-15
-12
6
36
58
56
42
39
53
75
99
122
142
148
139
130
146
193
247
285
299
301
305
318
347
398
469
543
597
618
616
601
579
551
524
498
464
408
328
243
179
139
105
62
15
-22
-50
-76
-101
-118
-118
-108
-97
-85
-69
-55
-61
-97
-140
-156
-133
-92
-66
-71
-97
-127
-146
-145
-121
-84
-53
-42
-43
-34
-6
36
84
144
228
340
478
647
853
1083
1299
1468
1597
1705
1770
1711
1454
1025
549
143
-183
-511
-895
-1288
-1576
-1669
-1559
-1301
-968
-626
-322
-77
119
282
410
477
462
381
272
173
97
54
47
77
134
195
243
270
276
260
235
226
248
290
322
322
306
302
317
328
317
298
302
336
370
376
364
363
387
422
443
448
450
452
448
431
415
416
441
479
511
525
516
493
478
487
519
554
569
564
554
549
548
544
540
549
576
607
618
600
564
538
541
569
604
628
635
629
616
608
611
630
660
684
688
668
630
593
575
584
606
621
620
611
609
614
614
603
588
586
598
604
583
533
478
450
464
506
535
530
497
466
446
424
386
339
308
293
269
212
135
77
57
55
43
15
-14
-33
-60
-111
-174
-221
-228
-208
-195
-210
-248
-286
-303
-299
-287
-275
-261
-251
-253
-278
-315
-336
-322
-279
-237
-218
-215
-215
-208
-200
-190
-173
-146
-120
-110
-121
-142
-158
-160
-147
-118
-81
-54
-50
-67
-84
-86
-79
-72
-67
-61
-57
-62
-79
-90
-80
-48
-16
2
7
11
17
11
-10
-35
-41
-18
19
40
23
-24
-66
-69
-27
29
56
37
-9
-45
-55
-54
-59
-68
-73
-73
-78
-87
-90
-80
-68
-64
-58
-31
11
39
32
9
15
65
134
180
194
193
195
202
206
212
225
248
276
307
334
351
355
356
371
412
468
520
555
576
592
611
641
682
722
740
719
660
579
501
444
411
395
375
330
255
165
87
41
26
30
31
16
-15
-47
-59
-45
-19
0
6
11
18
15
-8
-40
-55
-39
-2
33
51
46
24
0
-5
23
78
140
183
200
201
218
280
396
557
745
956
1187
1415
1606
1743
1847
1933
1958
1834
1514
1054
569
129
-282
-708
-1131
-1470
-1650
-1653
-1518
-1293
-1018
-726
-445
-193
21
178
259
257
189
87
-19
-105
-147
-137
-93
-49
-26
-19
-7
26
71
115
141
143
118
79
56
72
126
186
221
221
197
167
145
147
180
232
273
275
245
217
216
235
252
260
276
314
358
373
344
297
280
314
376
411
395
351
326
339
372
395
402
411
433
448
434
394
359
355
385
425
453
455
437
415
413
445
497
533
531
500
479
488
513
525
517
514
544
601
648
649
610
565
550
570
598
605
584
553
529
521
524
533
548
567
581
576
543
490
441
420
432
458
464
429
359
283
229
198
171
124
58
-8
-57
-90
-120
-150
-171
-181
-183
-188
-201
-218
-238
-263
-285
-286
-253
-201
-171
-189
-238
-272
-263
-225
-194
-188
-189
-174
-149
-133
-136
-140
-125
-93
-71
-77
-103
-126
-131
-120
-100
-72
-36
-2
14
4
-19
-38
-36
-17
8
27
31
22
6
-8
-10
-1
21
54
85
90
58
4
-27
-3
60
112
110
61
12
-2
15
40
57
64
68
63
49
28
15
14
24
33
35
26
10
-5
-13
-16
-22
-28
-22
2
29
29
-4
-39
-41
-9
27
40
32
23
15
-2
-25
-32
-10
22
35
19
-9
-32
-46
-53
-49
-32
-11
-7
-28
-65
-99
-116
-105
-61
3
55
75
72
76
100
132
160
189
229
264
267
237
210
213
244
280
300
301
273
211
137
89
82
86
54
-20
-95
-138
-152
-164
-185
-204
-203
-180
-147
-118
-107
-120
-141
-147
-128
-100
-94
-118
-156
-185
-192
-175
-139
-102
-81
-80
-83
-71
-43
-11
20
62
109
148
176
215
290
398
530
707
952
1242
1495
1646
1707
1730
1708
1559
1223
746
243
-225
-678
-1136
-1550
-1822
-1899
-1807
-1606
-1346
-1065
-790
-536
-299
-80
97
195
210
169
108
41
-19
-48
-27
20
49
38
15
17
48
83
105
123
146
164
158
129
102
104
138
183
214
215
189
160
149
164
190
211
227
246
264
264
243
226
241
293
356
399
415
411
397
382
378
399
438
472
481
475
474
483
487
483
486
518
562
578
543
483
449
470
524
569
584
583
589
603
608
598
590
606
650
692
704
682
652
640
652
675
696
709
714
707
687
667
659
668
685
700
710
714
704
670
619
586
601
656
701
692
634
577
561
579
589
566
522
487
463
426
365
301
266
267
272
247
189
123
71
29
-13
-53
-82
-93
-103
-137
-196
-253
-278
-267
-245
-238
-250
-275
-303
-332
-359
-370
-362
-344
-332
-333
-338
-338
-338
-342
-338
-312
-269
-240
-251
-294
-327
-324
-295
-264
-242
-217
-189
-174
-188
-214
-220
-192
-147
-117
-112
-121
-133
-145
-147
-126
-80
-31
-12
-32
-63
-76
-62
-45
-40
-44
-43
-29
-17
-21
-38
-53
-45
-13
29
54
47
16
-16
-29
-21
-6
6
11
15
16
11
-3
-16
-11
16
55
86
95
77
48
24
24
52
96
129
129
101
72
69
93
125
149
167
188
210
219
212
206
224
280
357
425
461
462
450
451
475
509
528
515
472
406
327
251
197
174
163
131
57
-42
-127
-177
-200
-223
-253
-278
-280
-257
-232
-228
-252
-282
-284
-247
-197
-176
-197
-231
-238
-205
-149
-92
-46
-13
3
1
-10
-4
34
99
165
208
232
266
335
442
564
695
859
1086
1358
1612
1786
1880
1925
1923
1819
1556
1145
657
158
-332
-809
-1237
-1544
-1680
-1648
-1495
-1269
-1005
-725
-441
-166
89
291
406
421
362
278
206
160
135
133
152
185
208
207
190
189
226
290
343
353
323
286
278
305
346
379
394
396
394
391
382
369
362
372
408
456
493
497
475
452
447
462
482
497
505
508
500
479
456
450
468
498
520
524
510
485
458
433
421
429
453
478
489
480
464
455
464
495
537
572
579
554
514
488
497
533
572
592
594
586
578
569
564
571
592
618
633
630
619
610
606
606
617
644
682
705
693
649
605
592
609
634
648
646
635
615
587
557
540
543
554
544
503
444
389
346
309
267
228
205
193
170
118
45
-16
-42
-39
-35
-53
-92
-138
-175
-204
-224
-234
-234
-226
-219
-224
-244
-270
-288
-286
-262
-230
-204
-199
-211
-231
-241
-234
-214
-187
-163
-145
-141
-152
-173
-185
-168
-125
-77
-50
-54
-78
-105
-117
-106
-77
-46
-35
-53
-81
-86
-89
-85
-85
-80
-62
-40
-26
-31
-50
-67
-58
-18
34
64
51
14
-6
18
79
143
183
194
189
179
168
162
171
202
243
265
252
216
195
207
239
264
273
274
274
266
245
227
234
263
292
301
294
282
267
244
228
245
293
342
363
362
368
391
415
425
436
467
510
535
537
543
581
637
678
699
726
774
811
794
718
632
580
561
541
499
444
388
326
249
172
123
115
125
122
97
69
53
49
49
57
82
118
138
119
65
13
-1
27
74
105
109
95
82
73
70
75
99
140
178
196
192
186
204
264
360
484
628
797
999
1222
1438
1625
1779
1909
1999
1983
1788
1405
913
417
-28
-441
-852
-1246
-1555
-1715
-1697
-1517
-1221
-877
-545
-260
-22
183
340
411
377
272
155
72
26
2
-15
-26
-21
6
58
125
186
220
218
193
165
150
156
185
228
268
287
277
253
240
251
282
318
344
359
362
352
331
311
315
350
394
411
392
359
345
363
394
418
436
456
477
484
468
446
442
465
504
536
545
534
516
509
522
550
580
602
616
624
622
609
591
581
586
606
634
661
672
656
619
590
600
648
694
698
659
611
591
603
634
669
698
713
705
680
661
668
695
719
727
732
752
783
798
782
752
736
748
766
762
728
682
642
611
581
553
537
531
510
458
380
310
272
262
255
237
211
183
147
94
34
-11
-27
-26
-33
-60
-95
-122
-129
-126
-119
-106
-83
-54
-36
-44
-72
-94
-88
-52
-8
18
14
-8
-27
-29
-15
8
29
41
40
29
15
2
-3
0
11
26
41
53
55
45
27
16
27
63
107
131
117
79
47
41
59
84
99
96
79
59
45
37
32
33
49
81
110
106
62
10
-6
19
50
48
16
-16
-24
-18
-9
5
31
63
77
63
37
18
11
7
2
4
21
46
60
56
44
43
65
103
140
159
153
132
112
105
113
138
172
203
216
207
191
192
221
271
323
362
383
389
394
417
464
521
564
593
623
662
686
664
601
538
509
501
476
415
341
276
215
142
66
21
24
50
51
8
-48
-75
-58
-18
18
34
29
5
-28
-58
-73
-66
-40
-9
10
8
-12
-31
-30
-8
20
40
57
83
118
141
143
145
191
301
444
585
727
913
1164
1436
1659
1813
1936
2054
2096
1946
1561
1036
527
108
-270
-688
-1146
-1548
-1776
-1783
-1599
-1303
-977
-674
-409
-165
65
255
359
355
278
193
136
101
66
28
10
30
83
146
201
244
269
267
237
204
201
242
301
339
333
300
272
268
282
303
323
342
355
358
354
357
375
398
414
421
428
434
431
414
399
405
433
466
489
498
501
499
488
473
470
491
524
550
550
532
513
509
523
548
571
585
590
591
587
575
561
560
583
622
650
653
642
632
635
649
675
714
751
763
742
708
690
696
714
732
747
759
755
725
685
666
684
721
744
733
692
637
582
543
528
532
528
497
447
407
395
397
389
364
342
334
321
280
209
138
93
71
50
26
17
25
23
-22
-102
-165
-174
-150
-147
-192
-252
-287
-289
-286
-289
-282
-248
-205
-194
-225
-267
-282
-261
-224
-197
-185
-179
-174
-173
-180
-188
-179
-144
-98
-70
-74
-94
-105
-99
-86
-73
-54
-26
-3
-13
-58
-104
-114
-86
-47
-17
-2
2
-13
-45
-66
-47
3
47
50
20
-9
-15
-8
0
10
30
53
59
41
9
-16
-26
-20
-1
21
33
23
-1
-20
-22
-11
0
8
18
29
30
14
-10
-25
-18
10
45
66
52
1
-56
-80
-60
-27
-20
-45
-76
-87
-75
-57
-41
-23
-3
16
35
59
84
91
79
77
116
196
271
297
279
259
273
323
384
439
486
525
554
569
574
578
584
590
585
557
500
417
332
276
262
272
266
222
151
90
60
46
22
-12
-29
-8
38
69
60
22
-10
-14
5
26
36
33
15
-16
-45
-43
7
84
140
141
98
61
68
116
168
196
201
205
234
293
376
473
590
755
993
1284
1558
1738
1813
1830
1821
1738
1496
1069
543
36
-407
-826
-1244
-1588
-1748
-1687
-1490
-1261
-1037
-780
-474
-168
72
225
320
372
360
266
131
33
18
50
68
49
28
38
71
92
90
97
131
173
183
151
107
90
109
146
180
204
215
214
201
190
194
218
253
284
302
306
302
295
284
271
272
301
347
377
362
315
280
284
314
333
331
330
343
355
340
309
298
329
380
413
416
409
406
404
399
406
440
490
523
522
501
488
491
502
519
552
598
631
623
585
558
574
621
663
677
671
664
659
645
627
623
648
692
728
732
703
665
646
656
684
702
688
648
602
568
544
521
497
485
487
489
473
432
372
310
252
206
174
146
100
24
-67
-139
-166
-155
-135
-131
-151
-191
-238
-274
-282
-261
-230
-210
-201
-189
-170
-155
-152
-144
-115
-66
-26
-17
-29
-38
-37
-33
-32
-22
5
39
52
32
-2
-19
-6
26
57
78
89
90
77
60
53
68
104
144
169
172
152
119
96
106
150
202
227
217
193
184
194
205
212
223
246
270
268
235
194
180
202
243
275
278
250
208
180
182
205
222
220
213
219
232
228
200
175
185
232
280
294
269
235
219
226
242
253
258
259
257
249
238
235
249
273
298
319
340
360
367
350
321
309
334
381
417
421
407
403
427
471
519
550
560
551
528
486
414
320
240
206
214
212
154
48
-48
-84
-67
-40
-35
-54
-78
-97
-108
-109
-98
-81
-66
-60
-63
-77
-98
-118
-121
-108
-89
-74
-57
-29
-2
-2
-37
-72
-59
15
109
159
144
107
117
209
360
521
670
838
1056
1311
1540
1702
1808
1891
1931
1843
1558
1102
582
91
-352
-774
-1171
-1486
-1656
-1663
-1532
-1306
-1020
-702
-383
-91
150
317
399
397
336
249
168
113
92
95
105
108
108
123
166
232
294
326
318
285
250
230
233
254
289
332
368
381
365
336
324
347
389
416
410
382
354
340
343
364
403
449
479
479
462
456
474
505
532
553
577
605
626
631
632
647
674
702
720
737
755
765
754
733
729
758
806
843
854
846
833
823
818
825
847
878
902
906
890
866
847
844
862
895
928
942
929
902
882
885
910
941
967
979
971
942
897
857
841
851
868
868
845
810
781
763
760
768
779
779
754
704
647
598
561
529
499
468
433
390
337
285
244
214
190
171
158
148
121
65
-5
-55
-66
-47
-29
-32
-54
-81
-103
-115
-112
-93
-66
-46
-45
-63
-92
-121
-134
-123
-94
-74
-87
-126
-156
-152
-121
-93
-80
-67
-38
-5
6
-13
-40
-47
-25
10
39
51
48
34
21
20
30
43
53
55
54
44
24
0
-7
19
71
116
124
92
47
22
31
61
91
106
103
89
69
49
36
37
52
77
96
95
72
44
30
36
51
63
72
83
88
69
28
-2
14
71
122
131
109
91
92
96
93
101
135
179
198
183
163
173
219
276
320
347
359
365
380
417
474
526
557
582
626
688
721
691
610
533
497
488
465
408
334
268
214
163
114
87
88
97
83
32
-30
-69
-65
-33
-1
16
23
22
8
-20
-48
-53
-25
15
36
28
12
16
48
93
135
174
218
265
304
328
341
363
411
490
588
692
811
972
1196
1462
1715
1909
2052
2165
2225
2150
1873
1424
922
468
69
-330
-759
-1161
-1437
-1525
-1428
-1196
-885
-547
-226
39
233
364
455
514
529
480
371
243
155
140
176
216
234
248
289
357
414
414
362
307
298
340
392
413
404
398
412
432
437
431
-3628
-3582
-3574
-3611
-3671
-3716
-3728
-3727
-3737
-3758
-3769
-3763
-3759
-3770
-3780
-3769
-3741
-3725
-3743
-3782
-3821
-3849
-3872
-3889
-3890
-3882
-3888
-3923
-3972
-3994
-3975
-3936
-3909
-3905
-3910
-3913
-3914
-3916
-3911
-3895
-3873
-3855
-3841
-3827
-3814
-3810
-3813
-3812
-3801
-3784
-3773
-3770
-3768
-3767
-3779
-3804
-3822
-3808
-3768
-3731
-3724
-3742
-3761
-3769
-3775
-3785
-3790
-3780
-3768
-3779
-3821
-3864
-3869
-3834
-3791
-3776
-3786
-3798
-3794
-3786
-3794
-3817
-3831
-3818
-3789
-3773
-3782
-3801
-3803
-3783
-3757
-3740
-3727
-3710
-3691
-3686
-3700
-3719
-3722
-3705
-3677
-3644
-3606
-3570
-3547
-3536
-3508
-3437
-3339
-3262
-3239
-3245
-3230
-3179
-3124
-3103
-3104
-3080
-3015
-2947
-2920
-2932
-2935
-2897
-2835
-2796
-2802
-2833
-2851
-2851
-2858
-2891
-2937
-2961
-2947
-2917
-2905
-2925
-2957
-2976
-2978
-2979
-2985
-2991
-2986
-2984
-3003
-3047
-3089
-3099
-3076
-3045
-3031
-3042
-3070
-3101
-3121
-3125
-3114
-3100
-3092
-3093
-3107
-3136
-3174
-3200
-3188
-3142
-3099
-3097
-3128
-3154
-3148
-3128
-3120
-3130
-3136
-3126
-3116
-3127
-3152
-3164
-3154
-3136
-3130
-3133
-3129
-3117
-3113
-3131
-3157
-3164
-3140
-3107
-3093
-3102
-3118
-3128
-3134
-3145
-3156
-3150
-3125
-3103
-3115
-3157
-3193
-3192
-3161
-3136
-3133
-3142
-3143
-3135
-3131
-3139
-3144
-3136
-3121
-3113
-3120
-3140
-3169
-3204
-3242
-3271
-3281
-3280
-3283
-3304
-3349
-3414
-3491
-3556
-3587
-3586
-3575
-3577
-3591
-3593
-3569
-3523
-3463
-3391
-3315
-3254
-3227
-3223
-3206
-3152
-3077
-3011
-2967
-2931
-2896
-2878
-2887
-2904
-2904
-2886
-2874
-2887
-2908
-2910
-2895
-2885
-2890
-2893
-2873
-2842
-2829
-2847
-2881
-2911
-2928
-2934
-2930
-2914
-2893
-2894
-2932
-2995
-3047
-3062
-3051
-3053
-3103
-3203
-3336
-3497
-3696
-3938
-4187
-4389
-4521
-4617
-4713
-4776
-4702
-4416
-3958
-3457
-3011
-2615
-2205
-1765
-1378
-1149
-1117
-1242
-1455
-1719
-2016
-2326
-2615
-2861
-3056
-3187
-3228
-3161
-3024
-2887
-2808
-2785
-2781
-2771
-2764
-2778
-2811
-2843
-2864
-2884
-2913
-2939
-2940
-2910
-2874
-2864
-2892
-2942
-2989
-3014
-3017
-3003
-2982
-2968
-2970
-2991
-3024
-3058
-3085
-3103
-3110
-3106
-3087
-3061
-3045
-3055
-3087
-3106
-3086
-3034
-2992
-2995
-3031
-3054
-3027
-2967
-2920
-2912
-2921
-2913
-2884
-2864
-2881
-2922
-2948
-2942
-2917
-2901
-2901
-2911
-2926
-2946
-2962
-2957
-2923
-2888
-2889
-2934
-2986
-3007
-2992
-2970
-2966
-2977
-2987
-2993
-3008
-3038
-3065
-3069
-3046
-3023
-3020
-3034
-3042
-3028
-3000
-2979
-2977
-2981
-2971
-2947
-2933
-2947
-2982
-3012
-3012
-2978
-2923
-2869
-2836
-2830
-2836
-2826
-2785
-2730
-2693
-2679
-2662
-2619
-2566
-2533
-2522
-2496
-2428
-2337
-2270
-2246
-2240
-2229
-2213
-2206
-2206
-2190
-2155
-2125
-2118
-2125
-2120
-2092
-2056
-2027
-2005
-1986
-1982
-2003
-2042
-2073
-2084
-2082
-2086
-2102
-2122
-2140
-2166
-2207
-2251
-2271
-2250
-2204
-2171
-2177
-2212
-2244
-2252
-2243
-2238
-2245
-2256
-2266
-2288
-2326
-2363
-2367
-2333
-2293
-2286
-2316
-2354
-2375
-2382
-2394
-2412
-2419
-2407
-2383
-2367
-2366
-2380
-2405
-2431
-2436
-2407
-2361
-2339
-2366
-2419
-2447
-2423
-2376
-2353
-2366
-2386
-2382
-2367
-2375
-2416
-2454
-2448
-2400
-2362
-2379
-2436
-2478
-2471
-2433
-2413
-2423
-2435
-2421
-2396
-2397
-2440
-2493
-2511
-2484
-2448
-2439
-2461
-2489
-2498
-2491
-2481
-2476
-2475
-2478
-2488
-2513
-2550
-2587
-2609
-2610
-2596
-2581
-2584
-2621
-2691
-2768
-2823
-2841
-2836
-2832
-2838
-2839
-2823
-2793
-2753
-2701
-2633
-2557
-2499
-2468
-2448
-2411
-2355
-2304
-2282
-2287
-2297
-2291
-2275
-2273
-2304
-2364
-2418
-2432
-2398
-2342
-2303
-2302
-2331
-2361
-2370
-2350
-2310
-2271
-2253
-2257
-2266
-2258
-2230
-2203
-2193
-2206
-2231
-2261
-2298
-2342
-2384
-2424
-2468
-2529
-2613
-2724
-2876
-3082
-3329
-3565
-3733
-3820
-3845
-3813
-3685
-3413
-3002
-2523
-2053
-1613
-1177
-748
-397
-221
-252
-438
-691
-952
-1217
-1500
-1792
-2059
-2256
-2366
-2401
-2384
-2330
-2245
-2143
-2062
-2038
-2071
-2124
-2155
-2159
-2158
-2171
-2195
-2217
-2235
-2255
-2273
-2274
-2259
-2244
-2250
-2276
-2301
-2312
-2314
-2319
-2325
-2321
-2301
-2282
-2285
-2317
-2360
-2383
-2367
-2322
-2274
-2251
-2265
-2302
-2333
-2340
-2324
-2303
-2294
-2301
-2318
-2334
-2343
-2347
-2351
-2360
-2374
-2385
-2392
-2398
-2418
-2456
-2499
-2523
-2519
-2501
-2495
-2512
-2548
-2587
-2617
-2635
-2639
-2635
-2631
-2637
-2656
-2683
-2703
-2710
-2705
-2696
-2689
-2684
-2680
-2682
-2694
-2714
-2733
-2737
-2720
-2693
-2676
-2682
-2712
-2743
-2747
-2709
-2647
-2598
-2585
-2602
-2619
-2618
-2603
-2591
-2584
-2565
-2525
-2476
-2441
-2427
-2416
-2385
-2325
-2254
-2195
-2159
-2139
-2119
-2093
-2063
-2031
-1992
-1938
-1875
-1822
-1795
-1790
-1787
-1767
-1730
-1692
-1662
-1643
-1635
-1641
-1656
-1668
-1661
-1635
-1603
-1588
-1602
-1641
-1685
-1712
-1713
-1697
-1686
-1697
-1725
-1755
-1773
-1781
-1786
-1789
-1786
-1779
-1775
-1785
-1809
-1836
-1855
-1861
-1857
-1852
-1856
-1880
-1925
-1975
-2011
-2024
-2024
-2025
-2028
-2024
-2009
-1997
-2002
-2025
-2046
-2049
-2036
-2024
-2026
-2040
-2058
-2070
-2064
-2027
-1958
-1887
-1849
-1860
-1896
-1920
-1917
-1903
-1895
-1894
-1890
-1883
-1881
-1887
-1890
-1880
-1857
-1836
-1831
-1840
-1861
-1886
-1904
-1906
-1891
-1870
-1860
-1871
-1894
-1919
-1939
-1956
-1968
-1972
-1967
-1965
-1982
-2017
-2057
-2092
-2121
-2154
-2188
-2219
-2242
-2262
-2284
-2299
-2294
-2261
-2211
-2154
-2095
-2037
-1993
-1977
-1975
-1950
-1877
-1774
-1692
-1664
-1671
-1669
-1638
-1604
-1595
-1608
-1617
-1605
-1592
-1605
-1638
-1660
-1645
-1601
-1560
-1549
-1568
-1601
-1633
-1660
-1678
-1686
-1681
-1670
-1664
-1672
-1702
-1752
-1807
-1839
-1832
-1808
-1822
-1913
-2065
-2221
-2347
-2479
-2676
-2943
-3204
-3382
-3478
-3547
-3594
-3536
-3278
-2825
-2297
-1816
-1402
-1001
-588
-227
-13
15
-105
-317
-589
-910
-1256
-1573
-1819
-1981
-2074
-2108
-2088
-2019
-1929
-1851
-1805
-1785
-1778
-1777
-1789
-1817
-1859
-1906
-1944
-1965
-1967
-1955
-1946
-1954
-1981
-2014
-2039
-2050
-2054
-2053
-2047
-2032
-2018
-2022
-2052
-2088
-2101
-2082
-2050
-2035
-2045
-2064
-2075
-2077
-2077
-2077
-2071
-2057
-2051
-2067
-2098
-2119
-2120
-2110
-2106
-2111
-2115
-2117
-2126
-2149
-2175
-2186
-2176
-2157
-2147
-2153
-2167
-2182
-2193
-2200
-2203
-2199
-2193
-2190
-2201
-2230
-2268
-2300
-2315
-2317
-2316
-2318
-2318
-2312
-2309
-2319
-2339
-2351
-2339
-2313
-2304
-2330
-2380
-2427
-2453
-2454
-2439
-2418
-2398
-2388
-2385
-2380
-2365
-2346
-2328
-2304
-2263
-2209
-2169
-2160
-2166
-2147
-2078
-1981
-1898
-1852
-1825
-1792
-1748
-1706
-1667
-1619
-1556
-1495
-1458
-1442
-1425
-1386
-1337
-1299
-1278
-1256
-1221
-1181
-1159
-1160
-1163
-1149
-1120
-1095
-1082
-1076
-1075
-1086
-1115
-1149
-1160
-1139
-1113
-1117
-1156
-1201
-1224
-1223
-1216
-1218
-1227
-1236
-1242
-1249
-1261
-1278
-1295
-1304
-1294
-1265
-1238
-1236
-1268
-1312
-1339
-1341
-1334
-1336
-1348
-1362
-1381
-1409
-1436
-1443
-1421
-1387
-1367
-1372
-1393
-1421
-1449
-1469
-1471
-1450
-1420
-1407
-1425
-1457
-1481
-1485
-1475
-1461
-1449
-1440
-1441
-1458
-1487
-1511
-1516
-1500
-1479
-1471
-1483
-1510
-1539
-1557
-1566
-1574
-1585
-1593
-1591
-1586
-1590
-1614
-1650
-1678
-1680
-1659
-1638
-1642
-1673
-1714
-1744
-1753
-1750
-1746
-1749
-1760
-1781
-1820
-1877
-1939
-1986
-2002
-1988
-1962
-1947
-1951
-1962
-1949
-1895
-1811
-1730
-1683
-1664
-1640
-1588
-1513
-1448
-1414
-1400
-1379
-1338
-1300
-1297
-1337
-1389
-1413
-1397
-1367
-1354
-1364
-1372
-1365
-1352
-1353
-1364
-1360
-1329
-1296
-1300
-1346
-1397
-1407
-1380
-1356
-1371
-1420
-1471
-1503
-1519
-1530
-1547
-1584
-1648
-1741
-1859
-2016
-2236
-2513
-2787
-2986
-3094
-3156
-3199
-3172
-2979
-2602
-2131
-1676
-1266
-855
-419
-22
243
325
245
47
-228
-538
-835
-1092
-1326
-1555
-1752
-1854
-1824
-1702
-1566
-1472
-1422
-1397
-1394
-1417
-1457
-1493
-1513
-1526
-1551
-1587
-1615
-1621
-1604
-1579
-1555
-1535
-1522
-1523
-1538
-1557
-1566
-1557
-1536
-1517
-1510
-1518
-1531
-1545
-1557
-1568
-1573
-1563
-1537
-1506
-1495
-1518
-1562
-1599
-1604
-1581
-1551
-1537
-1541
-1557
-1577
-1599
-1620
-1628
-1621
-1612
-1617
-1639
-1664
-1679
-1684
-1690
-1701
-1708
-1701
-1687
-1684
-1708
-1745
-1768
-1759
-1726
-1701
-1709
-1741
-1771
-1782
-1782
-1791
-1812
-1823
-1811
-1791
-1796
-1835
-1878
-1886
-1851
-1804
-1781
-1792
-1815
-1828
-1828
-1827
-1830
-1828
-1817
-1802
-1796
-1804
-1815
-1809
-1775
-1724
-1676
-1648
-1637
-1632
-1623
-1604
-1581
-1553
-1516
-1467
-1411
-1364
-1343
-1345
-1348
-1321
-1259
-1192
-1161
-1175
-1198
-1185
-1126
-1056
-1015
-1007
-1004
-984
-964
-971
-1007
-1043
-1050
-1033
-1015
-1011
-1014
-1011
-1003
-1001
-1006
-1006
-993
-975
-970
-986
-1014
-1039
-1059
-1071
-1071
-1056
-1035
-1031
-1057
-1097
-1119
-1107
-1079
-1062
-1066
-1077
-1083
-1092
-1114
-1139
-1142
-1116
-1085
-1082
-1109
-1141
-1152
-1146
-1144
-1152
-1157
-1147
-1134
-1136
-1162
-1189
-1197
-1182
-1163
-1156
-1161
-1172
-1186
-1201
-1212
-1210
-1189
-1161
-1149
-1160
-1182
-1197
-1195
-1186
-1179
-1172
-1161
-1146
-1138
-1151
-1184
-1219
-1231
-1210
-1175
-1160
-1185
-1234
-1274
-1286
-1275
-1258
-1246
-1237
-1238
-1257
-1289
-1317
-1325
-1318
-1316
-1333
-1371
-1425
-1491
-1558
-1611
-1648
-1671
-1685
-1682
-1663
-1644
-1641
-1642
-1617
-1547
-1459
-1397
-1379
-1376
-1343
-1270
-1184
-1113
-1062
-1015
-966
-924
-902
-904
-920
-935
-937
-925
-908
-903
-911
-919
-917
-906
-898
-900
-905
-908
-917
-942
-980
-1010
-1012
-993
-981
-1001
-1050
-1104
-1140
-1157
-1178
-1231
-1316
-1414
-1513
-1630
-1812
-2073
-2359
-2581
-2692
-2733
-2760
-2756
-2631
-2318
-1855
-1354
-890
-455
-23
377
656
749
669
477
224
-68
-384
-694
-961
-1170
-1320
-1409
-1425
-1363
-1247
-1120
-1027
-997
-1022
-1068
-1103
-1110
-1106
-1114
-1147
-1192
-1229
-1247
-1245
-1227
-1201
-1183
-1185
-1210
-1243
-1266
-1278
-1280
-1268
-1235
-1194
-1180
-1220
-1296
-1356
-1365
-1341
-1331
-1362
-1411
-1442
-1444
-1437
-1438
-1440
-1431
-1414
-1404
-1416
-1447
-1481
-1504
-1513
-1510
-1500
-1488
-1477
-1474
-1488
-1516
-1547
-1567
-1570
-1562
-1560
-1574
-1600
-1622
-1629
-1619
-1603
-1588
-1582
-1584
-1593
-1614
-1650
-1689
-1703
-1680
-1645
-1640
-1682
-1740
-1763
-1739
-1705
-1704
-1729
-1739
-1711
-1675
-1675
-1713
-1744
-1730
-1682
-1640
-1633
-1649
-1662
-1662
-1654
-1637
-1606
-1564
-1530
-1520
-1525
-1520
-1487
-1435
-1378
-1325
-1278
-1239
-1213
-1196
-1176
-1136
-1083
-1033
-1001
-982
-955
-913
-869
-840
-826
-804
-761
-706
-668
-664
-684
-704
-709
-702
-689
-673
-656
-648
-660
-690
-718
-725
-704
-669
-651
-672
-729
-795
-834
-839
-831
-836
-859
-878
-880
-877
-885
-902
-907
-888
-857
-839
-847
-873
-896
-898
-875
-838
-808
-795
-791
-781
-766
-762
-780
-807
-813
-792
-764
-758
-776
-795
-795
-780
-766
-759
-756
-760
-780
-818
-851
-854
-823
-785
-762
-756
-754
-754
-767
-790
-803
-788
-758
-743
-757
-784
-803
-813
-827
-845
-852
-843
-835
-853
-897
-937
-948
-929
-905
-899
-914
-942
-977
-1014
-1048
-1072
-1083
-1085
-1089
-1102
-1124
-1153
-1192
-1239
-1282
-1304
-1304
-1303
-1321
-1353
-1373
-1360
-1313
-1251
-1183
-1120
-1077
-1064
-1067
-1049
-992
-913
-857
-837
-835
-825
-811
-806
-812
-813
-801
-794
-809
-844
-878
-895
-899
-903
-908
-908
-903
-904
-917
-937
-953
-956
-947
-932
-922
-926
-948
-988
-1043
-1094
-1124
-1122
-1113
-1139
-1227
-1359
-1502
-1643
-1813
-2032
-2270
-2468
-2602
-2692
-2745
-2704
-2489
-2091
-1600
-1125
-695
-273
155
527
757
811
730
560
320
17
-312
-613
-859
-1051
-1188
-1249
-1219
-1122
-1018
-954
-932
-923
-905
-883
-876
-890
-919
-951
-981
-1005
-1017
-1011
-984
-948
-921
-922
-956
-1009
-1051
-1056
-1025
-989
-985
-1018
-1057
-1071
-1055
-1036
-1031
-1036
-1031
-1016
-1005
-1015
-1044
-1075
-1092
-1088
-1070
-1059
-1072
-1107
-1144
-1155
-1137
-1114
-1111
-1131
-1158
-1183
-1207
-1233
-1254
-1260
-1256
-1257
-1274
-1301
-1325
-1339
-1345
-1351
-1358
-1363
-1367
-1375
-1393
-1420
-1443
-1449
-1436
-1410
-1385
-1372
-1370
-1374
-1380
-1386
-1391
-1392
-1387
-1379
-1376
-1388
-1418
-1453
-1470
-1453
-1408
-1365
-1353
-1369
-1391
-1392
-1371
-1347
-1330
-1316
-1295
-1268
-1253
-1256
-1262
-1249
-1205
-1142
-1086
-1051
-1037
-1029
-1013
-979
-928
-870
-821
-792
-780
-776
-766
-740
-703
-664
-636
-617
-598
-576
-558
-551
-551
-540
-513
-486
-484
-509
-537
-541
-527
-520
-534
-554
-560
-551
-548
-566
-596
-616
-613
-596
-584
-585
-597
-613
-631
-643
-639
-618
-590
-577
-594
-637
-685
-715
-719
-704
-686
-680
-692
-721
-754
-774
-770
-752
-744
-761
-797
-832
-853
-866
-874
-875
-860
-832
-816
-828
-862
-894
-904
-898
-893
-893
-893
-886
-878
-876
-885
-894
-892
-876
-856
-848
-856
-878
-901
-918
-926
-920
-897
-867
-850
-863
-897
-918
-903
-860
-828
-829
-852
-865
-856
-845
-857
-882
-892
-874
-854
-861
-896
-928
-935
-929
-937
-962
-980
-980
-980
-1012
-1076
-1143
-1182
-1195
-1203
-1224
-1253
-1276
-1278
-1262
-1235
-1201
-1152
-1083
-1007
-954
-943
-950
-921
-832
-723
-658
-657
-679
-670
-630
-602
-613
-636
-631
-599
-582
-609
-658
-682
-656
-605
-569
-564
-575
-582
-586
-594
-609
-620
-620
-614
-612
-620
-648
-702
-775
-838
-860
-850
-865
-953
-1108
-1281
-1443
-1615
-1827
-2056
-2243
-2366
-2455
-2530
-2525
-2339
-1945
-1437
-947
-523
-122
300
704
1001
1128
1092
932
681
371
47
-247
-491
-690
-839
-915
-902
-818
-713
-630
-580
-554
-542
-541
-549
-560
-576
-607
-655
-706
-733
-726
-701
-682
-681
-693
-712
-741
-782
-814
-816
-789
-763
-767
-804
-843
-860
-859
-854
-850
-835
-812
-801
-821
-864
-898
-901
-886
-882
-901
-928
-943
-943
-942
-948
-956
-950
-933
-922
-934
-970
-1011
-1036
-1039
-1031
-1027
-1035
-1052
-1076
-1105
-1131
-1141
-1130
-1106
-1090
-1094
-1113
-1136
-1152
-1161
-1167
-1168
-1169
-1181
-1215
-1261
-1300
-1313
-1307
-1295
-1290
-1299
-1320
-1355
-1396
-1426
-1426
-1399
-1369
-1356
-1360
-1359
-1345
-1329
-1322
-1319
-1306
-1279
-1257
-1253
-1261
-1260
-1238
-1202
-1164
-1123
-1071
-1014
-969
-949
-942
-921
-868
-794
-727
-692
-683
-679
-665
-643
-620
-597
-565
-525
-492
-477
-475
-464
-432
-389
-357
-349
-356
-364
-371
-382
-400
-414
-412
-398
-391
-406
-433
-454
-457
-450
-449
-452
-448
-436
-436
-459
-491
-499
-472
-436
-424
-443
-472
-491
-503
-513
-520
-515
-501
-495
-500
-510
-514
-519
-530
-538
-531
-511
-500
-514
-548
-575
-582
-577
-573
-569
-560
-549
-547
-563
-583
-587
-567
-538
-525
-541
-575
-605
-622
-632
-645
-662
-673
-676
-679
-692
-717
-743
-756
-752
-737
-722
-718
-728
-748
-767
-772
-753
-716
-675
-651
-655
-681
-708
-716
-702
-685
-679
-682
-679
-665
-649
-640
-627
-598
-551
-507
-488
-500
-532
-572
-609
-632
-633
-615
-600
-607
-639
-681
-719
-748
-772
-793
-820
-857
-903
-942
-953
-933
-891
-838
-776
-711
-659
-630
-612
-570
-491
-402
-342
-324
-325
-320
-305
-293
-292
-295
-298
-302
-309
-315
-319
-325
-336
-338
-322
-301
-300
-334
-377
-397
-389
-377
-380
-385
-369
-340
-335
-380
-458
-526
-553
-550
-560
-622
-739
-891
-1057
-1241
-1454
-1678
-1862
-1973
-2036
-2099
-2151
-2092
-1817
-1345
-817
-370
-11
343
740
1105
1316
1321
1172
946
676
360
16
-303
-559
-742
-865
-920
-887
-774
-635
-531
-489
-490
-497
-492
-488
-511
-570
-650
-718
-754
-756
-741
-719
-699
-689
-703
-744
-789
-805
-781
-740
-719
-732
-761
-784
-792
-792
-791
-789
-787
-789
-799
-806
-805
-803
-808
-820
-825
-815
-799
-800
-823
-855
-873
-871
-855
-840
-828
-824
-835
-867
-911
-941
-940
-921
-914
-942
-992
-1035
-1053
-1049
-1040
-1034
-1029
-1026
-1031
-1049
-1072
-1087
-1089
-1082
-1069
-1054
-1047
-1062
-1099
-1138
-1148
-1120
-1083
-1073
-1100
-1136
-1149
-1138
-1124
-1122
-1121
-1101
-1067
-1045
-1046
-1057
-1056
-1040
-1025
-1019
-1008
-984
-959
-959
-984
-998
-965
-893
-829
-811
-833
-852
-841
-807
-772
-741
-698
-635
-571
-534
-524
-511
-467
-401
-343
-313
-300
-283
-255
-232
-219
-205
-169
-116
-77
-75
-103
-128
-126
-103
-84
-81
-90
-98
-104
-116
-131
-139
-133
-121
-114
-108
-99
-98
-124
-174
-209
-201
-169
-162
-201
-247
-258
-239
-231
-247
-255
-227
-189
-198
-265
-334
-347
-307
-272
-280
-311
-320
-302
-288
-306
-340
-348
-317
-278
-268
-298
-341
-366
-368
-358
-349
-343
-340
-345
-358
-372
-379
-380
-380
-376
-361
-341
-341
-376
-426
-443
-412
-366
-352
-372
-390
-381
-365
-375
-406
-417
-387
-346
-339
-375
-420
-444
-449
-453
-463
-471
-480
-506
-553
-591
-587
-542
-493
-479
-503
-542
-573
-594
-611
-628
-644
-661
-680
-697
-704
-707
-715
-733
-757
-779
-804
-841
-893
-951
-1000
-1031
-1040
-1022
-980
-926
-877
-842
-812
-776
-734
-691
-649
-603
-548
-497
-467
-459
-457
-440
-405
-366
-342
-342
-363
-396
-427
-449
-451
-433
-401
-371
-360
-373
-399
-415
-402
-367
-339
-342
-372
-407
-429
-445
-474
-515
-551
-567
-573
-599
-666
-766
-871
-964
-1060
-1200
-1411
-1664
-1897
-2065
-2165
-2208
-2168
-1983
-1629
-1170
-714
-311
73
486
900
1210
1330
1256
1055
796
514
223
-58
-301
-486
-613
-691
-734
-743
-714
-645
-560
-498
-487
-525
-584
-635
-663
-668
-665
-671
-695
-719
-716
-680
-643
-645
-682
-705
-676
-610
-564
-569
-604
-623
-611
-585
-572
-576
-588
-603
-621
-639
-646
-638
-621
-605
-600
-608
-627
-652
-675
-686
-680
-663
-644
-638
-651
-679
-708
-727
-729
-716
-698
-695
-719
-761
-800
-816
-808
-796
-795
-809
-832
-857
-881
-896
-895
-879
-860
-853
-861
-882
-916
-952
-976
-989
-997
-995
-979
-951
-924
-903
-866
-794
-708
-654
-649
-667
-669
-649
-631
-627
-635
-657
-699
-742
-746
-695
-620
-551
-454
-274
-34
139
135
-22
-205
-324
-415
-557
-766
-969
-1082
-1085
-1025
-960
-929
-942
-978
-1006
-1010
-1009
-1025
-1054
-1060
-1014
-910
-757
-580
-424
-335
-328
-370
-404
-398
-366
-333
-302
-256
-197
-150
-139
-151
-151
-121
-84
-76
-102
-130
-130
-110
-99
-108
-117
-106
-88
-93
-128
-162
-164
-133
-102
-95
-111
-139
-171
-204
-227
-230
-212
-192
-193
-219
-257
-286
-292
-277
-256
-251
-270
-304
-335
-350
-357
-361
-363
-358
-350
-344
-346
-356
-366
-372
-371
-355
-331
-333
-373
-419
-420
-370
-312
-269
-195
-36
142
179
14
-173
-101
287
722
879
727
547
575
713
656
250
-350
-875
-1225
-1485
-1727
-1896
-1915
-1818
-1710
-1636
-1536
-1364
-1194
-1148
-1242
-1371
-1423
-1389
-1343
-1340
-1350
-1321
-1258
-1214
-1229
-1288
-1337
-1344
-1320
-1295
-1289
-1293
-1289
-1273
-1259
-1263
-1285
-1304
-1297
-1259
-1199
-1125
-1045
-967
-907
-873
-850
-810
-737
-647
-572
-526
-498
-471
-450
-453
-479
-498
-478
-426
-383
-381
-405
-415
-395
-365
-351
-356
-364
-367
-376
-404
-433
-441
-419
-388
-382
-413
-465
-505
-516
-499
-475
-465
-486
-526
-575
-640
-734
-858
-974
-1044
-1089
-1195
-1431
-1725
-1865
-1671
-1173
-597
-147
181
553
1063
1593
1906
1856
1498
993
463
-42
-500
-871
-1120
-1248
-1275
-1204
-1019
-739
-442
-232
-147
-148
-147
-105
-61
-61
-83
-50
72
207
231
119
0
27
205
374
374
220
68
37
79
61
-71
-240
-337
-336
-291
-255
-227
-184
-129
-81
-45
-14
15
33
36
28
4
-42
-86
-73
29
162
222
170
83
72
140
181
111
-31
-147
-203
-253
-342
-432
-459
-425
-377
-307
-124
205
558
743
703
580
552
617
585
293
-221
-747
-1090
-1216
-1234
-1274
-1380
-1491
-1509
-1393
-1190
-991
-868
-825
-827
-837
-850
-866
-868
-842
-804
-789
-815
-843
-781
-550
-155
325
805
1227
1519
1581
1361
967
611
404
217
-176
-794
-1366
-1593
-1480
-1327
-1403
-1674
-1891
-1902
-1784
-1689
-1644
-1568
-1420
-1260
-1129
-977
-740
-473
-330
-396
-570
-661
-591
-453
-372
-367
-354
-273
-164
-112
-148
-223
-278
-291
-278
-247
-192
-125
-74
-67
-92
-111
-93
-50
-19
-20
-38
-43
-37
-48
-88
-126
-126
-96
-91
-138
-196
-206
-173
-156
-192
-246
-259
-244
-252
-297
-328
-310
-276
-279
-305
-292
-221
-172
-207
-285
-302
-235
-177
-226
-349
-425
-392
-313
-286
-323
-350
-316
-249
-204
-203
-214
-209
-201
-222
-272
-312
-307
-265
-230
-231
-239
-194
-87
14
31
-27
-59
17
158
251
232
159
148
240
364
423
395
336
309
320
334
332
333
362
414
466
508
545
579
607
633
678
748
813
833
801
766
771
817
868
905
940
980
997
963
898
856
873
929
971
973
950
937
952
996
1063
1163
1307
1501
1701
1831
1841
1764
1704
1732
1797
1767
1576
1298
1072
958
911
857
786
741
742
757
740
679
608
565
552
539
490
396
286
210
189
201
213
225
258
309
348
365
365
366
359
322
251
161
31
-186
-490
-805
-1032
-1140
-1164
-1124
-980
-686
-190
455
1028
1427
1832
2538
3488
4133
4030
3514
3415
3975
4453
4283
4387
6564
11183
16067
18419
17897
17057
18405
21409
23039
21131
16643
12444
10444
10320
10659
10626
10289
9880
9349
8638
7965
7657
7678
7619
7141
6202
5098
4248
3919
4090
4470
4648
4303
3378
2122
970
281
130
308
527
636
643
582
423
157
-91
-126
128
503
727
657
384
118
-7
1
65
124
135
54
-235
-887
-1641
-2019
-1888
-1740
-2123
-2883
-3330
-3303
-3559
-4643
-5747
-5600
-4721
-5813
-10906
-18305
-23511
-23750
-20938
-19385
-20852
-22754
-21383
-16101
-9748
-5429
-3791
-3426
-3038
-2546
-2418
-2741
-3184
-3470
-3658
-3843
-3708
-2979
-1745
-495
230
289
-24
-395
-754
-1037
-961
-458
-313
-1838
-5521
-10176
-13874
-15835
-17056
-18902
-21344
-22904
-22266
-19596
-16224
-13382
-11490
-10417
-9922
-9737
-9524
-9090
-8622
-8492
-8807
-9156
-8956
-8029
-6655
-5287
-4247
-3644
-3487
-3765
-4394
-5139
-5656
-5691
-5250
-4593
-4014
-3651
-3505
-3480
-3427
-3198
-2756
-2243
-1878
-1772
-1901
-2252
-2883
-3682
-4164
-3756
-2409
-796
298
804
1426
2802
4716
6275
6817
6491
5949
5662
5632
5662
5672
5693
5720
5698
5641
5636
5716
5772
5638
5293
4864
4493
4250
4135
4113
4137
4154
4105
3954
3707
3404
3095
2823
2619
2494
2430
2388
2328
2235
2115
1992
1888
1822
1803
1818
1825
1776
1661
1514
1382
1284
1204
1116
1018
921
826
713
568
409
286
240
266
317
334
291
220
201
303
530
805
1021
1117
1131
1156
1269
1488
1766
2019
2165
2175
2109
2080
2183
2408
2702
3047
3390
3637
3731
3748
3834
4004
4108
4043
3898
3761
3497
2921
2352
2704
4715
8002
11156
12942
13368
13428
13891
14516
14422
13031
10569
7734
5118
2995
1442
501
163
273
543
676
548
217
-251
-878
-1767
-2936
-4220
-5391
-6327
-7005
-7390
-7441
-7204
-6892
-6631
-6298
-5633
-4634
-3706
-3219
-3057
-2727
-1970
-1103
-591
-392
37
994
2142
3084
4157
6281
9818
13808
16687
17814
18112
18884
20430
21891
22287
21360
19456
17048
14668
13032
12594
12884
12737
11521
10015
9585
10573
11828
12122
11643
11578
12358
12794
11285
7691
3625
863
-270
-814
-1795
-3228
-4390
-4689
-4111
-3009
-1765
-672
-42
-28
-545
-1295
-1908
-2127
-1924
-1492
-1094
-927
-1032
-1304
-1580
-1710
-1609
-1276
-832
-483
-421
-707
-1194
-1607
-1711
-1469
-1075
-823
-905
-1286
-1739
-2024
-2038
-1835
-1548
-1323
-1281
-1478
-1824
-2079
-2007
-1577
-1013
-622
-549
-699
-876
-936
-840
-609
-275
96
406
571
561
416
227
99
118
283
460
455
157
-355
-850
-1110
-1080
-855
-591
-417
-415
-624
-988
-1324
-1411
-1155
-700
-350
-339
-680
-1186
-1611
-1785
-1652
-1264
-804
-532
-649
-1106
-1582
-1716
-1394
-808
-257
84
210
167
-1
-184
-192
96
538
746
385
-531
-1654
-2567
-3067
-3201
-3126
-2986
-2895
-2949
-3170
-3440
-3531
-3276
-2736
-2211
-2041
-2348
-2932
-3415
-3507
-3198
-2720
-2346
-2223
-2357
-2676
-3065
-3331
-3256
-2784
-2156
-1806
-2015
-2631
-3171
-3225
-2783
-2192
-1775
-1567
-1392
-1133
-852
-655
-519
-314
9
321
433
283
-7
-248
-304
-130
251
731
1105
1141
746
68
-598
-944
-842
-567
-509
-794
-1184
-1404
-1501
-1686
-1883
-1726
-1166
-819
-1260
-1956
-1402
1273
5028
7668
8101
7504
7972
10115
12314
12387
9843
6275
3678
2575
1968
714
-1255
-3040
-3788
-3380
-2236
-785
665
1749
2213
2038
1388
299
-1431
-3851
-6437
-8375
-9335
-9759
-10191
-10495
-9999
-8375
-6149
-4287
-3423
-3609
-4536
-5788
-6918
-7600
-7824
-7929
-8241
-8711
-8913
-8529
-7634
-6647
-6046
-6090
-6710
-7601
-8431
-8974
-9075
-8895
-8588
-8125
-7241
-5677
-3570
-1489
16
905
1569
2216
2652
2678
2741
3900
6836
10981
14776
17020
18078
19461
22206
25107
25863
23259
18752
15321
14754
16330
18219
19693
21437
23775
25426
24833
22187
19387
18332
19024
20087
20485
20210
19719
19378
19552
20637
22524
24345
25062
24413
22996
21476
20232
19715
20558
22738
24868
25007
22556
19007
16513
15858
15993
15432
13765
11699
10074
9172
8768
8442
7792
6433
4324
1973
60
-1046
-1450
-1477
-1407
-1480
-2009
-3214
-4889
-6354
-6808
-6073
-4877
-4345
-5079
-6685
-8237
-9122
-9317
-8968
-8071
-6875
-6436
-8151
-12343
-17375
-20592
-20492
-18021
-15684
-15424
-17226
-19476
-20388
-19197
-16442
-13483
-11616
-11364
-12288
-13378
-13745
-13120
-11848
-10540
-9649
-9111
-8497
-7365
-5674
-3846
-2363
-1366
-701
-241
55
338
893
1755
2419
2154
633
-1571
-3253
-3438
-2225
-847
-756
-2383
-4740
-6351
-6645
-6289
-6130
-6183
-5877
-5198
-5037
-6118
-7841
-8644
-7629
-5536
-3990
-3974
-5139
-6465
-7280
-7532
-7431
-7120
-6661
-6191
-5908
-5899
-6029
-5975
-5458
-4412
-3133
-2137
-1823
-2220
-3025
-3829
-4328
-4453
-4409
-4564
-5220
-6361
-7606
-8464
-8707
-8509
-8337
-8598
-9327
-10136
-10489
-10136
-9323
-8567
-8236
-8299
-8480
-8543
-8341
-7717
-6544
-4949
-3402
-2391
-1945
-1574
-786
370
1311
1456
732
-428
-1486
-2138
-2379
-2344
-2159
-1892
-1562
-1202
-923
-867
-1124
-1635
-2204
-2647
-2864
-2835
-2594
-2243
-1954
-1881
-2012
-2135
-1989
-1516
-978
-740
-956
-1462
-1935
-2160
-2122
-1886
-1471
-890
-246
275
534
566
542
583
602
300
-656
-2360
-4506
-6471
-7623
-7720
-7074
-6337
-6042
-6282
-6724
-6951
-6898
-6595
-5951
-5086
-4556
-5011
-6201
-6770
-5846
-4335
-3913
-4681
-4843
-3499
-2880
-6141
-12657
-17246
-15587
-9798
-6827
-10735
-17967
-21320
-17813
-11263
-7187
-7049
-8276
-8616
-8565
-9524
-11229
-12092
-11457
-10402
-10355
-11520
-13247
-15043
-16551
-17181
-16307
-14150
-12127
-11634
-12676
-13828
-13545
-11454
-8491
-5996
-4747
-4626
-4824
-4353
-2693
-274
1650
1949
596
-1312
-2495
-2487
-1746
-1038
-809
-1015
-1286
-1187
-482
726
2088
3266
4083
4372
3887
2550
813
-438
-572
261
1354
2122
2419
2329
1888
1310
1262
2448
4760
7046
8014
7423
6235
5582
5711
6035
6045
5952
6239
6862
7226
6891
6192
5942
6516
7415
7791
7266
6174
5131
4614
4897
6108
8039
9982
11057
10918
10068
9414
9462
9945
10226
9870
8863
7480
6078
5037
4706
5138
5930
6443
6290
5584
4718
3983
3503
3388
3635
3813
3122
1154
-1374
-3020
-3042
-2333
-2599
-4486
-6763
-7514
-6066
-3533
-1564
-780
-596
-234
406
900
995
857
723
542
84
-639
-1374
-1965
-2434
-2729
-2575
-1812
-872
-641
-1604
-3280
-4634
-5068
-4785
-4256
-3744
-3593
-4547
-7198
-10858
-13468
-13234
-10439
-7376
-6305
-7521
-9426
-10233
-9363
-7409
-5311
-3788
-3287
-3915
-5203
-6158
-5873
-4311
-2342
-1044
-931
-1708
-2616
-2974
-2484
-1287
111
1072
1188
598
-62
-101
712
1984
2940
2953
2007
778
243
998
2766
4548
5334
4778
3337
1846
1013
1168
2216
3656
4738
4855
3965
2673
1790
1757
2428
3307
3924
4017
3547
2704
1897
1598
2019
2922
3766
4089
3799
3137
2466
2092
2205
2809
3682
4407
4584
4113
3275
2533
2240
2405
2723
2821
2531
1984
1457
1148
1067
1134
1281
1380
1210
605
-288
-1008
-1236
-1203
-1487
-2406
-3703
-4751
-5063
-4562
-3562
-2647
-2426
-3066
-3937
-3919
-2403
1
1935
2529
2095
1633
1819
2553
3337
3751
3568
2768
1712
1180
1848
3601
5448
6330
6057
5378
5138
5460
5718
5247
3985
2444
1228
634
540
616
576
258
-409
-1314
-2112
-2388
-2073
-1642
-1754
-2566
-3511
-3842
-3441
-2946
-3039
-3780
-4725
-5580
-6443
-7366
-7934
-7579
-6358
-5173
-5017
-6059
-7457
-8081
-7445
-5994
-4628
-3967
-3900
-3722
-2738
-814
1532
3512
4610
4855
4806
5336
7165
10322
13933
16671
17636
17000
15806
15199
15674
16788
17432
16496
13666
9807
6459
4715
4422
4511
4050
2924
1645
698
270
466
1350
2677
3751
3796
2647
955
-445
-1235
-1729
-2372
-3243
-4032
-4333
-3827
-2462
-622
835
921
-749
-3491
-5884
-6706
-5714
-3648
-1559
-124
634
1122
1758
2644
3501
3879
3423
2013
-200
-2752
-4974
-6271
-6532
-6212
-5897
-5880
-6177
-6766
-7704
-8841
-9604
-9354
-8028
-6296
-5037
-4670
-5032
-5716
-6313
-6471
-6005
-5183
-4726
-5250
-6544
-7523
-7100
-5186
-2773
-1059
-556
-956
-1665
-2236
-2365
-1799
-542
909
1793
1742
1195
1037
1770
3060
4041
4049
3100
1777
797
589
1121
1983
2676
2881
2590
2055
1589
1384
1447
1608
1633
1370
821
145
-424
-663
-450
129
772
1145
1114
869
657
543
503
612
1028
1689
2208
2243
1900
1581
1451
1298
1034
1104
2023
3501
4460
4162
3221
3113
4596
6832
8220
7941
6565
5251
4657
4689
4957
5187
5205
4871
4226
3624
3478
3847
4278
4244
3641
2852
2374
2377
2603
2632
2243
1559
917
636
814
1268
1647
1654
1288
879
853
1387
2243
2907
2970
2428
1658
1143
1147
1585
2131
2442
2341
1891
1353
1032
1100
1479
1910
2136
2068
1792
1491
1339
1451
1824
2291
2577
2453
1911
1177
570
318
466
885
1337
1542
1308
660
-130
-685
-764
-437
-32
105
-149
-622
-1006
-1123
-1049
-994
-1091
-1279
-1412
-1433
-1411
-1442
-1552
-1692
-1823
-1937
-1998
-1926
-1692
-1431
-1394
-1730
-2328
-2874
-3057
-2775
-2163
-1529
-1254
-1625
-2594
-3667
-4141
-3646
-2524
-1609
-1538
-2189
-2780
-2552
-1384
154
1262
1496
995
287
-98
37
488
872
904
576
109
-234
-297
-64
354
752
901
667
122
-482
-869
-925
-740
-514
-403
-467
-689
-995
-1252
-1300
-1055
-611
-183
29
-41
-334
-730
-1062
-1131
-842
-365
-96
-324
-916
-1417
-1533
-1465
-1697
-2445
-3360
-3857
-3680
-3111
-2672
-2658
-2945
-3177
-3065
-2579
-1934
-1412
-1191
-1277
-1573
-1948
-2234
-2185
-1625
-716
4
-2
-719
-1464
-1461
-560
599
1157
785
-118
-853
-974
-517
178
739
932
720
278
-92
-135
186
674
1049
1124
872
415
-36
-256
-108
339
830
1066
895
391
-222
-715
-952
-935
-792
-714
-859
-1255
-1790
-2270
-2519
-2424
-1977
-1298
-604
-97
177
349
601
1004
1459
1795
1898
1754
1422
978
500
71
-236
-382
-381
-296
-220
-213
-279
-363
-397
-352
-247
-126
-54
-86
-237
-456
-635
-680
-584
-422
-287
-239
-295
-443
-641
-806
-851
-750
-573
-447
-458
-594
-775
-905
-918
-804
-611
-447
-428
-592
-855
-1061
-1092
-954
-748
-591
-547
-618
-766
-923
-999
-922
-697
-416
-223
-217
-373
-577
-698
-667
-503
-281
-101
-54
-174
-410
-629
-695
-568
-330
-123
-60
-163
-380
-620
-779
-783
-631
-411
-255
-265
-440
-700
-932
-1039
-981
-794
-587
-492
-578
-800
-1039
-1174
-1158
-1015
-802
-604
-505
-551
-711
-873
-918
-795
-556
-314
-184
-218
-392
-611
-747
-705
-483
-174
70
138
18
-193
-350
-346
-176
81
304
393
313
107
-111
-198
-69
242
588
792
769
568
333
215
289
515
775
918
850
597
295
108
119
266
406
430
336
207
116
78
75
98
157
257
359
398
324
137
-94
-249
-219
10
313
494
435
179
-102
-241
-182
14
235
355
291
52
-246
-421
-353
-75
253
449
420
196
-107
-337
-371
-183
133
404
474
304
-2
-272
-363
-239
26
293
424
345
91
-214
-415
-410
-214
61
264
289
127
-141
-383
-476
-371
-129
112
213
121
-104
-346
-493
-484
-324
-81
125
171
3
-316
-626
-766
-675
-432
-201
-132
-270
-533
-776
-870
-763
-493
-168
70
107
-66
-337
-524
-500
-275
27
263
337
235
9
-229
-345
-266
-33
211
320
237
14
-244
-427
-453
-301
-36
192
231
44
-260
-511
-591
-500
-318
-138
-41
-84
-283
-570
-795
-812
-594
-284
-110
-220
-566
-968
-1260
-1395
-1430
-1427
-1423
-1465
-1605
-1828
-1990
-1881
-1408
-690
29
572
918
1145
1309
1419
1481
1516
1529
1465
1243
838
338
-100
-329
-304
-96
152
304
299
172
13
-75
-28
148
379
549
559
389
114
-121
-187
-48
209
426
478
348
130
-52
-113
-32
158
386
549
558
403
177
32
73
284
558
766
831
746
566
394
349
499
807
1135
1324
1294
1095
861
745
829
1086
1392
1591
1580
1371
1085
880
862
1025
1264
1432
1415
1197
869
575
431
461
599
733
759
621
342
17
-223
-298
-253
-218
-303
-506
-731
-896
-1008
-1120
-1251
-1358
-1402
-1411
-1457
-1579
-1762
-1962
-2133
-2229
-2202
-2059
-1919
-1944
-2203
-2581
-2854
-2871
-2658
-2369
-2174
-2171
-2355
-2634
-2850
-2864
-2648
-2321
-2064
-1983
-2032
-2056
-1909
-1538
-1013
-465
-37
166
108
-154
-479
-685
-650
-394
-73
132
146
45
-32
-2
122
261
349
364
316
228
119
7
-72
-68
50
250
421
438
259
-43
-319
-456
-436
-325
-210
-169
-232
-395
-612
-809
-924
-933
-866
-803
-822
-948
-1136
-1288
-1314
-1181
-924
-635
-418
-335
-379
-466
-475
-324
-21
338
617
729
679
559
507
626
939
1379
1812
2110
2221
2201
2184
2305
2618
3071
3539
3890
4073
4135
4192
4369
4717
5203
5737
6206
6518
6645
6637
6635
6787
7146
7614
8005
8190
8181
8082
7964
7828
7673
7567
7592
7718
7791
7667
7374
7118
7090
7303
7584
7723
7625
7339
6986
6699
6583
6672
6895
7081
7060
6775
6312
5871
5671
5823
6249
6708
6945
6894
6710
6597
6634
6745
6840
6901
6900
6719
6250
5591
5067
4983
5358
5932
6418
6711
6849
6891
6883
6942
7200
7609
7857
7566
6620
5268
3899
2757
1866
1160
561
-41
-774
-1659
-2510
-3027
-3029
-2613
-2059
-1616
-1385
-1328
-1344
-1319
-1166
-891
-626
-563
-843
-1479
-2348
-3220
-3803
-3881
-3489
-2940
-2651
-2822
-3300
-3736
-3871
-3685
-3336
-3033
-2950
-3194
-3744
-4408
-4911
-5065
-4919
-4732
-4770
-5118
-5659
-6184
-6532
-6659
-6613
-6488
-6371
-6323
-6359
-6445
-6515
-6523
-6472
-6413
-6391
-6409
-6423
-6400
-6367
-6390
-6508
-6663
-6730
-6625
-6387
-6156
-6062
-6141
-6353
-6636
-6942
-7216
-7366
-7308
-7038
-6657
-6310
-6094
-6013
-5993
-5925
-5700
-5264
-4655
-4016
-3528
-3294
-3255
-3213
-2980
-2521
-1970
-1509
-1243
-1137
-1086
-1002
-822
-498
-9
582
1116
1417
1436
1294
1209
1343
1686
2085
2352
2392
2264
2140
2159
2333
2539
2613
2473
2178
1916
1929
2374
3172
3996
4444
4363
4009
3868
4269
5112
5957
6340
6029
5083
3764
2437
1439
915
710
465
-107
-987
-1872
-2424
-2516
-2285
-2002
-1892
-2044
-2416
-2896
-3362
-3707
-3840
-3708
-3345
-2892
-2548
-2458
-2610
-2845
-2987
-2983
-2924
-2934
-3042
-3165
-3220
-3209
-3208
-3268
-3374
-3482
-3546
-3513
-3328
-2996
-2663
-2541
-2702
-2943
-2913
-2413
-1590
-807
-356
-269
-356
-388
-226
141
611
1015
1219
1205
1094
1057
1190
1472
1806
2082
2228
2222
2110
2003
2022
2213
2485
2660
2611
2358
2065
1929
2056
2397
2775
2973
2878
2518
2142
1986
2153
2527
2854
2917
2676
2280
1944
1801
1851
2011
2198
2354
2425
2362
2179
1977
1867
1847
1771
1501
1051
571
191
-101
-412
-794
-1191
-1499
-1664
-1710
-1708
-1748
-1918
-2259
-2726
-3201
-3544
-3655
-3512
-3201
-2924
-2920
-3291
-3879
-4340
-4403
-4085
-3658
-3415
-3480
-3773
-4117
-4344
-4340
-4098
-3745
-3491
-3510
-3822
-4283
-4682
-4886
-4858
-4642
-4349
-4164
-4258
-4635
-5057
-5213
-5008
-4659
-4456
-4458
-4549
-4747
-5320
-6461
-7881
-8927
-9208
-9015
-9011
-9491
-10038
-9965
-9005
-7519
-6109
-5122
-4552
-4257
-4123
-4045
-3905
-3639
-3311
-3078
-3014
-3097
-3285
-3529
-3723
-3671
-3235
-2548
-2008
-1950
-2293
-2558
-2318
-1601
-846
-485
-589
-919
-1250
-1564
-1950
-2392
-2715
-2751
-2511
-2174
-1938
-1875
-1917
-1920
-1736
-1257
-498
357
998
1212
1102
1069
1490
2356
3226
3581
3243
2454
1630
1043
735
647
727
902
1014
887
503
94
-35
197
583
827
743
315
-362
-1079
-1510
-1391
-839
-360
-416
-911
-1286
-1187
-879
-838
-1021
-809
160
1314
1588
582
-905
-1646
-1240
-435
-256
-990
-2081
-2977
-3703
-4591
-5662
-6462
-6542
-5963
-5191
-4651
-4446
-4424
-4353
-3986
-3100
-1722
-280
651
846
651
637
1055
1727
2382
2905
3268
3336
2964
2270
1689
1663
2281
3222
4024
4345
4119
3613
3288
3542
4372
5298
5754
5536
4889
4249
3969
4212
4954
5918
6569
6406
5410
4183
3553
3903
4890
5795
6073
5623
4684
3631
2896
2880
3696
4928
5749
5466
4094
2392
1279
1155
1733
2416
2772
2678
2182
1409
662
428
1059
2376
3675
4217
3801
2892
2258
2320
2891
3464
3698
3570
3115
2208
813
-562
-971
94
1971
3218
2904
1447
100
-271
243
1090
1927
2651
3008
2605
1439
189
-217
606
2164
3448
3615
2501
733
-616
-747
198
1177
1051
-400
-2320
-3581
-3691
-2989
-2139
-1584
-1415
-1545
-1824
-2049
-2036
-1803
-1619
-1791
-2362
-3051
-3490
-3500
-3145
-2628
-2184
-2031
-2288
-2858
-3447
-3750
-3657
-3284
-2819
-2364
-1956
-1633
-1429
-1298
-1110
-757
-255
282
735
1032
1135
1055
867
704
657
712
787
805
752
649
526
423
374
367
376
422
558
760
849
645
215
-125
-116
152
333
217
-61
-234
-236
-251
-440
-716
-870
-855
-881
-1193
-1798
-2436
-2813
-2841
-2692
-2627
-2776
-3085
-3409
-3647
-3749
-3631
-3184
-2400
-1467
-676
-194
72
365
843
1475
2048
2289
1986
1128
11
-845
-1019
-559
-47
-207
-1311
-2884
-4005
-3972
-2838
-1352
-384
-297
-762
-1143
-1037
-526
-3
182
-66
-629
-1302
-1879
-2183
-2121
-1744
-1242
-839
-678
-783
-1100
-1542
-1949
-2110
-1889
-1371
-863
-709
-1039
-1678
-2265
-2485
-2240
-1711
-1241
-1105
-1300
-1542
-1514
-1155
-674
-302
-90
19
-4
-272
-766
-1208
-1245
-810
-233
24
-246
-850
-1379
-1511
-1192
-626
-132
53
-92
-388
-597
-578
-341
0
288
383
229
-78
-305
-224
195
715
975
760
179
-399
-599
-303
291
822
1010
797
349
-57
-171
69
477
734
627
234
-161
-320
-183
167
599
959
1092
931
595
334
322
524
814
1157
1587
2020
2206
1986
1553
1340
1585
2068
2316
2068
1513
1058
924
1004
1031
803
332
-233
-739
-1111
-1333
-1376
-1213
-916
-668
-626
-711
-563
189
1540
3000
3898
3846
3044
2158
1799
1999
2181
1663
297
-1382
-2644
-3136
-2983
-2443
-1631
-668
67
126
-509
-1312
-1590
-1116
-334
25
-430
-1440
-2250
-2135
-962
669
1854
2140
1899
1997
3022
4745
6297
6832
6123
4609
2940
1540
506
-262
-817
-1100
-1063
-746
-221
509
1513
2777
4020
4752
4600
3695
2696
2214
2344
2652
2696
2455
2190
2034
1842
1456
940
507
287
282
472
817
1178
1344
1269
1161
1232
1390
1326
902
373
129
306
788
1430
2136
2777
3170
3203
2956
2608
2237
1737
964
-72
-1135
-1829
-1798
-994
212
1251
1784
1943
2074
2309
2422
2111
1366
488
-180
-472
-399
23
772
1685
2507
3075
3431
3685
3874
3962
3966
4000
4124
4240
4230
4144
4168
4363
4513
4297
3650
2862
2334
2188
2175
1926
1291
453
-251
-616
-709
-792
-1049
-1415
-1653
-1568
-1152
-536
113
667
1056
1214
1170
1107
1231
1536
1754
1619
1142
586
142
-306
-999
-1923
-2692
-2952
-2798
-2652
-2755
-2882
-2663
-2131
-1752
-1881
-2326
-2585
-2466
-2309
-2545
-3155
-3679
-3723
-3352
-2965
-2865
-3016
-3210
-3307
-3304
-3270
-3260
-3272
-3258
-3161
-2980
-2789
-2688
-2714
-2807
-2876
-2834
-2645
-2308
-1868
-1440
-1118
-897
-707
-557
-591
-957
-1607
-2276
-2699
-2845
-2899
-3030
-3223
-3319
-3216
-2975
-2740
-2610
-2599
-2674
-2783
-2833
-2728
-2474
-2214
-2111
-2161
-2194
-2050
-1772
-1556
-1533
-1649
-1742
-1722
-1641
-1617
-1716
-1920
-2160
-2373
-2555
-2760
-2995
-3142
-3037
-2655
-2196
-1903
-1811
-1746
-1558
-1335
-1281
-1438
-1608
-1607
-1463
-1350
-1372
-1482
-1594
-1697
-1803
-1849
-1763
-1596
-1501
-1522
-1482
-1138
-474
194
491
356
97
63
247
279
-136
-816
-1183
-817
84
837
897
333
-317
-626
-661
-818
-1371
-2189
-2850
-3006
-2618
-1914
-1194
-636
-240
54
252
326
289
201
102
-18
-171
-296
-268
-30
336
699
995
1235
1415
1463
1318
1046
834
829
979
1081
970
686
420
293
240
139
2
-26
134
346
391
223
24
-23
73
139
48
-153
-339
-456
-549
-650
-722
-693
-547
-353
-188
-62
63
224
398
517
549
523
482
449
432
471
624
861
1049
1050
855
591
374
206
22
-191
-386
-543
-719
-978
-1286
-1514
-1573
-1491
-1369
-1275
-1196
-1094
-981
-902
-863
-821
-736
-609
-489
-405
-331
-251
-200
-213
-246
-191
9
269
436
455
421
468
616
768
829
807
775
758
708
584
414
268
194
180
183
170
139
105
78
43
-33
-164
-322
-457
-555
-647
-761
-873
-943
-980
-1059
-1255
-1550
-1846
-2059
-2198
-2357
-2599
-2871
-3032
-2972
-2718
-2410
-2162
-1938
-1605
-1110
-568
-161
30
74
65
-8
-217
-548
-860
-1016
-1025
-1011
-1066
-1144
-1123
-940
-649
-370
-206
-188
-261
-327
-311
-220
-118
-59
-35
-20
-23
-68
-131
-155
-117
-77
-97
-154
-169
-116
-66
-67
-61
29
166
201
74
-61
26
370
741
859
668
356
146
84
34
-150
-444
-681
-693
-479
-208
-57
-44
-44
54
197
248
176
127
253
521
736
790
812
996
1335
1603
1632
1531
1533
1715
1963
2239
2725
3587
4641
5438
5698
5555
5292
4936
4275
3237
2081
1132
431
-175
-684
-840
-475
207
802
1120
1306
1538
1758
1772
1537
1221
970
732
375
-88
-471
-614
-543
-416
-357
-381
-440
-521
-640
-772
-848
-845
-831
-890
-991
-989
-773
-402
-51
195
394
575
573
160
-628
-1418
-1836
-1904
-1987
-2337
-2759
-2853
-2520
-2129
-2132
-2581
-3109
-3328
-3177
-2857
-2515
-2087
-1440
-597
246
896
1302
1543
1695
1747
1642
1385
1086
898
900
1062
1274
1432
1496
1486
1414
1255
980
619
283
76
29
98
240
452
705
878
819
513
150
-45
-24
58
54
14
132
500
990
1374
1541
1561
1546
1500
1338
1003
565
166
-92
-202
-199
-98
101
373
644
828
887
854
784
693
569
414
257
135
63
25
-2
-45
-121
-218
-302
-343
-361
-435
-620
-869
-1060
-1113
-1069
-1025
-1015
-981
-857
-660
-442
-225
11
263
471
577
614
670
761
798
687
482
364
448
643
732
567
207
-124
-238
-125
68
182
181
147
183
323
498
593
508
208
-259
-746
-1069
-1116
-928
-652
-403
-178
88
380
582
583
386
109
-94
-132
-8
196
366
433
416
373
307
113
-336
-1019
-1732
-2221
-2378
-2303
-2136
-1902
-1523
-980
-418
-24
173
356
680
1058
1237
1089
769
517
374
168
-193
-540
-608
-346
37
356
672
1159
1812
2376
2601
2497
2271
2077
1893
1641
1337
1090
961
906
857
785
716
666
604
491
329
166
37
-50
-95
-111
-125
-200
-390
-652
-850
-882
-804
-794
-960
-1204
-1317
-1218
-1044
-994
-1093
-1159
-995
-578
-51
426
776
986
1059
1005
856
632
324
-67
-497
-875
-1157
-1363
-1516
-1611
-1667
-1761
-1947
-2169
-2303
-2301
-2297
-2452
-2764
-3066
-3220
-3268
-3354
-3551
-3803
-3999
-4045
-3871
-3472
-2989
-2687
-2761
-3112
-3399
-3354
-3044
-2774
-2758
-2917
-2996
-2833
-2496
-2200
-2136
-2342
-2729
-3147
-3490
-3741
-3941
-4114
-4246
-4326
-4350
-4310
-4198
-4051
-4006
-4207
-4642
-5080
-5253
-5135
-4981
-5072
-5405
-5704
-5708
-5433
-5121
-4972
-4950
-4864
-4572
-4107
-3629
-3306
-3220
-3356
-3615
-3864
-4018
-4082
-4150
-4318
-4589
-4859
-5025
-5076
-5070
-5061
-5066
-5084
-5158
-5331
-5555
-5703
-5697
-5622
-5666
-5942
-6381
-6793
-7018
-7003
-6773
-6408
-6052
-5869
-5924
-6099
-6168
-6032
-5831
-5818
-6092
-6485
-6706
-6598
-6265
-5957
-5859
-5987
-6210
-6394
-6510
-6626
-6814
-7030
-7186
-7268
-7358
-7515
-7667
-7673
-7536
-7456
-7619
-7951
-8197
-8229
-8209
-8375
-8712
-8933
-8806
-8427
-8109
-8004
-7934
-7626
-7050
-6476
-6210
-6309
-6585
-6834
-7015
-7200
-7420
-7616
-7745
-7843
-7964
-8067
-8062
-7948
-7861
-7944
-8169
-8360
-8388
-8282
-8145
-8008
-7841
-7646
-7492
-7427
-7402
-7331
-7189
-7023
-6870
-6723
-6586
-6480
-6386
-6226
-5955
-5654
-5471
-5445
-5433
-5249
-4870
-4448
-4130
-3916
-3699
-3421
-3131
-2890
-2694
-2502
-2293
-2083
-1879
-1676
-1491
-1359
-1266
-1122
-837
-437
-51
218
386
536
-11
-17
-7
12
30
33
13
-21
-43
-32
5
34
20
-38
-105
-130
-84
10
87
81
-12
-124
-180
-172
-149
-142
-101
61
353
655
809
757
569
339
81
-251
-659
-1046
-1292
-1361
-1309
-1192
-1009
-734
-399
-104
58
84
45
17
23
41
46
50
90
196
360
526
628
642
616
602
605
610
630
714
869
1016
1064
1026
997
1020
1042
1005
963
1040
1266
1510
1616
1575
1514
1516
1503
1349
1043
762
717
968
1356
1624
1623
1403
1138
937
750
443
-17
-517
-879
-1001
-897
-624
-247
148
453
606
639
642
657
639
530
351
197
158
255
437
621
737
757
707
640
606
623
671
722
758
777
780
754
685
578
451
339
264
229
227
238
233
175
59
-50
-63
33
145
179
165
236
460
725
840
759
629
611
695
719
572
325
140
87
93
62
-16
-63
-27
66
162
257
382
558
732
820
802
735
681
629
513
313
96
-40
-48
35
152
276
421
584
765
975
1196
1333
1244
873
344
-131
-470
-781
-1188
-1615
-1823
-1658
-1230
-785
-435
-78
398
924
1291
1379
1286
1186
1151
1109
968
723
458
256
160
151
171
146
44
-95
-177
-154
-67
15
61
84
106
145
206
293
390
449
444
407
401
440
476
452
391
399
537
737
854
809
663
513
383
230
32
-173
-340
-489
-624
-683
-576
-322
-82
-5
-79
-158
-159
-148
-214
-351
-466
-504
-506
-527
-551
-520
-394
-186
74
353
601
780
870
866
739
462
102
-192
-308
-303
-328
-415
-418
-215
82
209
60
-194
-347
-427
-614
-931
-1149
-1074
-842
-746
-799
-643
16
971
1660
1750
1444
1154
1012
811
376
-188
-641
-888
-988
-950
-698
-235
252
556
659
710
778
745
479
51
-301
-417
-334
-192
-39
171
454
710
798
688
503
396
408
455
455
419
415
459
494
458
372
314
327
374
403
408
423
457
481
472
464
498
564
591
535
441
403
444
487
450
354
302
363
490
586
620
648
719
791
770
629
442
302
218
136
15
-107
-148
-73
55
141
149
131
162
248
310
282
203
186
292
458
554
519
422
372
397
422
370
261
181
188
256
314
333
343
384
440
466
444
415
417
424
377
275
192
202
293
371
368
331
361
499
675
785
813
833
917
1047
1139
1153
1128
1136
1188
1221
1197
1154
1168
1246
1324
1363
1400
1492
1632
1751
1809
1833
1867
1901
1886
1806
1680
1536
1393
1282
1256
1321
1393
1377
1266
1137
1043
954
823
705
671
710
706
587
392
231
165
168
188
228
329
548
913
1381
1838
2146
2311
2496
2814
3144
3189
2813
2224
1793
1632
1507
1192
747
432
348
326
204
103
285
754
1154
1129
756
494
642
975
984
405
-468
-1063
-1053
-646
-277
-167
-158
44
490
952
1156
1045
800
575
360
68
-263
-449
-326
76
547
900
1115
1276
1472
1726
2041
2400
2789
3181
3548
3887
4189
4429
4608
4713
4710
4529
4158
3724
3440
3377
3348
3093
2563
2002
1651
1480
1234
771
262
-27
-52
-30
-126
-220
-69
345
722
747
441
157
197
484
685
588
333
226
379
591
607
399
174
124
220
310
330
334
383
465
537
606
706
844
982
1104
1234
1396
1582
1752
1888
1970
1965
1856
1677
1504
1386
1296
1158
964
785
691
681
707
748
830
980
1164
1300
1330
1271
1207
1196
1217
1199
1097
945
840
831
870
866
787
692
659
690
705
637
506
396
358
346
272
111
-66
-164
-161
-119
-129
-223
-368
-501
-592
-655
-723
-805
-880
-909
-876
-816
-794
-861
-1001
-1132
-1178
-1155
-1171
-1314
-1557
-1772
-1861
-1860
-1901
-2068
-2324
-2561
-2715
-2803
-2872
-2940
-2982
-2973
-2945
-2959
-3033
-3104
-3067
-2903
-2740
-2733
-2857
-2927
-2800
-2556
-2421
-2485
-2607
-2601
-2490
-2440
-2497
-2513
-2378
-2222
-2258
-2448
-2489
-2163
-1657
-1398
-1587
-1969
-2125
-1910
-1572
-1462
-1657
-1909
-1928
-1667
-1350
-1207
-1252
-1312
-1261
-1149
-1073
-1060
-1042
-1017
-1106
-1374
-1699
-1900
-1953
-2016
-2220
-2500
-2682
-2685
-2556
-2341
-2025
-1598
-1135
-728
-385
-68
181
280
225
119
33
-99
-359
-683
-903
-942
-918
-965
-1050
-1031
-844
-606
-449
-340
-166
86
271
274
191
229
455
719
849
879
1020
1363
1750
1977
2072
2265
2688
3161
3372
3219
2905
2707
2705
2765
2741
2606
2407
2201
2060
2094
2337
2634
2711
2449
2062
1907
2070
2227
1988
1337
679
412
499
555
306
-121
-403
-399
-237
-108
-83
-158
-321
-527
-668
-674
-634
-714
-931
-1098
-1044
-852
-757
-845
-968
-960
-864
-830
-898
-939
-846
-674
-547
-459
-291
-21
205
207
-10
-263
-398
-418
-405
-371
-243
0
279
519
769
1121
1535
1811
1789
1541
1306
1237
1263
1217
1048
867
798
843
922
999
1088
1193
1263
1253
1194
1163
1191
1242
1268
1281
1329
1416
1485
1493
1476
1508
1612
1715
1752
1740
1758
1841
1949
2030
2087
2176
2320
2469
2570
2627
2708
2839
2962
2999
2950
2891
2875
2887
2861
2763
2629
2515
2439
2377
2288
2161
2017
1898
1829
1789
1729
1606
1433
1264
1150
1096
1070
1042
1002
947
873
785
703
634
566
475
354
211
65
-71
-191
-283
-347
-401
-475
-578
-685
-760
-786
-776
-776
-829
-927
-1017
-1050
-1038
-1043
-1112
-1204
-1232
-1153
-1016
-916
-894
-910
-893
-821
-724
-661
-666
-735
-830
-907
-933
-902
-840
-792
-796
-845
-875
-825
-704
-600
-596
-683
-768
-787
-774
-805
-902
-996
-1010
-953
-901
-918
-995
-1099
-1225
-1397
-1637
-1947
-2308
-2711
-3129
-3504
-3739
-3752
-3531
-3141
-2669
-2156
-1594
-988
-399
73
355
439
370
204
-14
-258
-511
-761
-975
-1104
-1126
-1061
-962
-862
-744
-593
-440
-355
-363
-419
-458
-459
-457
-491
-562
-632
-654
-603
-488
-349
-238
-175
-132
-64
32
92
58
-37
-76
6
142
192
126
46
60
129
138
103
182
478
862
1091
1103
1078
1184
1350
1357
1132
825
610
484
350
207
168
275
400
396
305
313
517
798
931
832
627
512
564
694
761
709
601
537
555
601
603
581
616
740
869
895
817
746
766
820
789
664
558
522
395
-60
-858
-1691
-2195
-2295
-2221
-2197
-2179
-1959
-1466
-874
-416
-176
-103
-171
-415
-823
-1258
-1564
-1700
-1753
-1792
-1761
-1589
-1313
-1050
-866
-705
-500
-298
-224
-311
-427
-426
-329
-323
-538
-909
-1246
-1448
-1572
-1682
-1709
-1539
-1230
-1013
-1049
-1241
-1357
-1300
-1196
-1181
-1216
-1183
-1109
-1165
-1431
-1739
-1822
-1605
-1248
-918
-605
-193
357
938
1394
1635
1643
1432
1050
591
165
-153
-346
-422
-395
-289
-136
39
237
439
556
499
282
49
-57
-13
103
221
328
405
367
135
-236
-563
-696
-644
-528
-420
-301
-155
-49
-43
-82
-22
198
490
734
924
1161
1489
1819
2018
2046
1964
1846
1704
1531
1358
1243
1218
1266
1348
1453
1586
1748
1917
2061
2156
2194
2186
2160
2160
2229
2365
2521
2621
2616
2512
2359
2225
2173
2251
2467
2775
3089
3306
3349
3192
2868
2453
2041
1708
1498
1427
1487
1650
1890
2221
2684
3270
3853
4248
4382
4379
4461
4714
4987
5059
4866
4556
4302
4112
3861
3448
2906
2348
1850
1428
1089
866
778
786
819
818
761
648
491
330
223
207
241
237
141
-13
-146
-226
-290
-375
-460
-493
-459
-404
-379
-382
-373
-337
-302
-302
-344
-403
-458
-505
-547
-577
-584
-565
-544
-556
-610
-687
-755
-806
-852
-912
-981
-1046
-1103
-1153
-1180
-1163
-1114
-1071
-1058
-1057
-1037
-1021
-1067
-1170
-1244
-1213
-1119
-1088
-1177
-1299
-1326
-1248
-1172
-1184
-1255
-1303
-1311
-1350
-1473
-1644
-1773
-1840
-1905
-2006
-2095
-2087
-1964
-1787
-1603
-1395
-1164
-1013
-1065
-1274
-1411
-1304
-1072
-1055
-1406
-1878
-1996
-1842
-1955
-2298
-2595
-2685
-2678
-2726
-2770
-2631
-2282
-1902
-1695
-1658
-1630
-1511
-1359
-1292
-1363
-1546
-1737
-1811
-1694
-1419
-1124
-960
-963
-1030
-1010
-834
-559
-318
-203
-145
32
458
1054
1563
1766
1667
1438
1235
1059
847
597
362
190
132
257
596
1038
1350
1401
1306
1290
1417
1539
1494
1326
1236
1317
1436
1407
1211
1001
919
939
902
698
383
118
18
53
108
117
105
114
122
63
-47
-77
88
394
643
686
564
444
406
362
189
-114
-418
-602
-660
-665
-662
-636
-561
-461
-397
-411
-484
-562
-617
-657
-711
-801
-915
-1014
-1065
-1062
-1026
-990
-984
-1000
-1009
-990
-952
-916
-888
-859
-836
-847
-905
-965
-968
-919
-903
-981
-1097
-1123
-1025
-913
-928
-1076
-1246
-1358
-1467
-1666
-1961
-2255
-2464
-2592
-2655
-2609
-2377
-1956
-1437
-920
-426
75
563
942
1126
1115
978
779
528
220
-109
-386
-561
-639
-661
-648
-588
-466
-315
-199
-159
-177
-200
-203
-209
-254
-329
-387
-394
-363
-324
-283
-215
-110
5
100
176
267
388
525
660
804
972
1151
1295
1380
1429
1483
1544
1582
1582
1569
1581
1623
1658
1660
1633
1593
1547
1504
1486
1517
1586
1655
1695
1728
1794
1889
1949
1914
1798
1676
1601
1551
1481
1402
1385
1478
1635
1754
1785
1787
1851
1993
2135
2188
2145
2074
2043
2052
2057
2033
2000
1997
2045
2113
2155
2153
2129
2127
2155
2168
2104
1947
1737
1528
1343
1173
1015
889
818
799
806
818
831
846
847
803
714
607
510
424
342
296
339
488
686
838
903
943
1056
1255
1445
1505
1411
1283
1265
1383
1525
1556
1466
1385
1422
1520
1510
1342
1166
1148
1246
1238
993
667
525
614
711
609
387
309
483
752
921
995
1123
1350
1569
1700
1821
2053
2364
2579
2582
2473
2460
2624
2840
2909
2771
2540
2371
2328
2341
2301
2155
1935
1696
1452
1190
927
712
525
255
-185
-710
-1072
-1112
-954
-911
-1166
-1565
-1788
-1692
-1438
-1284
-1306
-1360
-1287
-1095
-902
-776
-666
-490
-241
13
201
324
414
500
611
764
930
1043
1071
1088
1201
1423
1640
1753
1807
1919
2116
2287
2364
2442
2670
3052
3427
3691
3962
4439
5130
5804
6249
6487
6700
6945
7074
6921
6504
5992
5493
4962
4316
3591
2925
2399
1981
1605
1287
1134
1211
1450
1707
1887
2027
2223
2510
2803
2980
2999
2915
2804
2675
2485
2223
1947
1721
1546
1377
1192
1041
989
1031
1093
1093
1032
969
948
956
932
827
655
475
334
236
148
41
-77
-186
-294
-430
-606
-791
-927
-987
-1001
-1028
-1101
-1206
-1308
-1371
-1395
-1404
-1429
-1473
-1520
-1551
-1569
-1581
-1580
-1557
-1530
-1539
-1586
-1622
-1613
-1592
-1611
-1663
-1671
-1583
-1482
-1502
-1657
-1830
-1918
-1965
-2102
-2369
-2643
-2797
-2849
-2927
-3087
-3239
-3265
-3171
-3085
-3121
-3286
-3472
-3585
-3615
-3621
-3681
-3812
-3952
-4019
-3961
-3809
-3647
-3562
-3589
-3676
-3715
-3619
-3428
-3299
-3332
-3466
-3552
-3498
-3341
-3198
-3150
-3187
-3274
-3330
-3241
-2985
-2711
-2628
-2778
-2938
-2859
-2556
-2308
-2348
-2562
-2621
-2389
-2032
-1820
-1793
-1732
-1484
-1142
-937
-972
-1131
-1207
-1115
-938
-793
-709
-618
-452
-222
-11
112
136
87
-14
-123
-177
-159
-113
-128
-214
-227
-15
363
597
446
44
-225
-131
132
161
-161
-530
-619
-449
-317
-407
-581
-592
-420
-283
-331
-502
-636
-692
-765
-927
-1141
-1328
-1458
-1548
-1576
-1501
-1333
-1176
-1126
-1134
-1063
-891
-786
-908
-1140
-1208
-1042
-877
-966
-1179
-1147
-746
-332
-341
-742
-1079
-1020
-714
-526
-558
-583
-422
-191
-84
-76
34
310
548
544
380
347
576
885
982
818
648
721
987
1177
1134
1009
1058
1331
1619
1704
1620
1579
1690
1830
1810
1622
1436
1406
1519
1625
1593
1406
1165
953
748
450
-7
-545
-1014
-1311
-1430
-1375
-1078
-505
220
858
1305
1703
2241
2875
3325
3397
3210
3056
3079
3146
3064
2834
2621
2538
2523
2460
2336
2235
2223
2258
2275
2269
2291
2356
2417
2421
2363
2287
2236
2209
2178
2123
2029
1896
1772
1712
1736
1790
1785
1692
1566
1491
1486
1516
1546
1550
1492
1366
1218
1144
1186
1267
1243
1078
898
845
926
1015
1004
910
806
727
656
588
548
530
481
366
227
153
174
217
199
108
-2
-88
-150
-210
-292
-403
-545
-691
-806
-862
-890
-947
-1063
-1197
-1287
-1317
-1330
-1382
-1479
-1579
-1642
-1672
-1708
-1768
-1829
-1848
-1824
-1803
-1830
-1890
-1932
-1921
-1884
-1872
-1901
-1953
-2004
-2046
-2061
-2021
-1932
-1853
-1858
-1934
-1999
-1977
-1907
-1877
-1908
-1930
-1886
-1810
-1766
-1748
-1686
-1548
-1397
-1312
-1282
-1213
-1066
-915
-861
-882
-860
-733
-566
-475
-468
-438
-311
-150
-79
-126
-193
-183
-114
-75
-124
-212
-250
-201
-102
-9
39
48
62
126
242
362
431
456
504
620
775
886
917
923
984
1101
1189
1181
1115
1091
1177
1337
1473
1524
1510
1491
1496
1495
1447
1363
1285
1249
1248
1248
1243
1259
1302
1327
1286
1188
1103
1081
1082
1025
889
743
686
741
845
920
940
928
909
886
854
813
772
723
660
595
546
531
555
607
660
689
696
706
750
813
857
871
883
924
999
1082
1146
1182
1182
1144
1092
1071
1109
1172
1197
1155
1090
1064
1102
1175
1235
1238
1187
1127
1122
1196
1282
1284
1189
1110
1176
1366
1520
1504
1359
1250
1275
1383
1423
1289
1005
678
397
144
-184
-637
-1104
-1394
-1476
-1573
-1932
-2498
-2899
-2825
-2358
-1847
-1499
-1179
-635
175
1041
1733
2143
2249
2044
1579
1021
542
178
-157
-517
-819
-959
-944
-875
-826
-791
-792
-905
-1172
-1515
-1784
-1901
-1919
-1933
-1966
-1965
-1890
-1779
-1685
-1618
-1535
-1398
-1207
-985
-753
-542
-386
-295
-219
-96
49
81
-125
-538
-957
-1170
-1113
-877
-563
-189
290
896
1569
2205
2711
3027
3134
3038
2778
2438
2130
1923
1789
1634
1397
1126
936
879
885
817
615
350
141
47
26
12
-8
-4
31
27
-120
-430
-780
-984
-946
-745
-539
-401
-261
-9
359
711
909
932
880
857
890
932
955
984
1055
1170
1296
1423
1566
1728
1856
1876
1782
1663
1621
1674
1744
1753
1710
1689
1731
1797
1806
1725
1604
1527
1534
1589
1638
1673
1739
1866
2009
2089
2079
2046
2068
2136
2163
2107
2044
2087
2239
2373
2376
2274
2193
2198
2217
2138
1950
1743
1595
1494
1388
1285
1246
1305
1405
1465
1462
1454
1495
1568
1615
1591
1502
1390
1289
1212
1157
1114
1064
991
898
804
737
713
719
707
639
519
417
402
460
481
373
168
5
-18
49
73
-17
-156
-238
-226
-164
-106
-66
-36
-16
-20
-44
-57
-44
-19
-19
-65
-139
-194
-186
-133
-98
-130
-208
-280
-334
-401
-479
-521
-507
-506
-595
-726
-748
-594
-390
-301
-322
-281
-86
150
269
289
383
634
889
941
775
572
477
439
313
55
-243
-462
-577
-636
-664
-651
-600
-549
-534
-549
-562
-558
-567
-614
-689
-746
-757
-747
-757
-801
-864
-932
-1030
-1186
-1398
-1637
-1903
-2222
-2591
-2932
-3130
-3126
-2953
-2687
-2369
-1998
-1577
-1133
-717
-379
-164
-112
-220
-435
-690
-957
-1240
-1533
-1793
-1971
-2068
-2134
-2202
-2244
-2205
-2082
-1944
-1866
-1861
-1882
-1878
-1845
-1811
-1797
-1807
-1852
-1939
-2050
-2140
-2157
-2104
-2029
-1987
-1987
-2000
-1989
-1942
-1862
-1755
-1630
-1507
-1403
-1323
-1246
-1142
-1007
-863
-739
-630
-500
-318
-93
131
304
425
545
692
837
944
1036
1161
1308
1394
1392
1399
1537
1778
1984
2114
2321
2743
3257
3538
3408
3026
2675
2428
2132
1678
1181
852
767
829
929
1033
1122
1136
1024
815
580
347
112
-102
-221
-212
-139
-79
-41
7
58
29
-140
-408
-672
-871
-1020
-1150
-1247
-1263
-1201
-1143
-1201
-1408
-1683
-1903
-2019
-2071
-2123
-2182
-2209
-2194
-2166
-2154
-2136
-2066
-1945
-1835
-1783
-1777
-1749
-1659
-1530
-1426
-1372
-1344
-1298
-1224
-1144
-1082
-1050
-1037
-1024
-999
-963
-924
-894
-870
-844
-807
-765
-730
-704
-683
-667
-661
-668
-668
-639
-594
-572
-598
-640
-637
-572
-497
-473
-495
-489
-404
-275
-189
-193
-243
-255
-187
-80
-3
18
19
63
168
290
364
369
349
362
410
438
405
336
295
310
345
355
345
354
396
438
456
470
511
567
596
595
620
704
791
786
683
598
635
755
801
681
490
411
512
676
741
675
592
597
675
732
718
675
664
683
678
626
575
587
669
773
856
921
994
1083
1170
1233
1258
1229
1150
1054
994
983
975
927
874
896
1009
1122
1141
1099
1109
1212
1307
1298
1242
1275
1422
1535
1483
1315
1196
1185
1173
1054
894
842
919
991
934
783
645
528
329
-12
-401
-702
-885
-1003
-1051
-911
-492
128
773
1353
1924
2541
3110
3479
3606
3616
3613
3539
3269
2802
2326
2026
1912
1828
1662
1466
1369
1431
1588
1729
1786
1771
1731
1700
1671
1637
1601
1589
1620
1667
1695
1722
1798
1926
2016
1999
1975
2106
2373
2522
2352
2023
1902
2110
2337
2218
1843
1673
1971
2463
2691
2587
2525
2797
3225
3408
3236
2992
2955
3083
3144
3064
2973
2993
3064
3076
3048
3089
3208
3282
3214
3072
2993
3014
3053
3025
2936
2843
2763
2663
2534
2422
2380
2385
2366
2280
2173
2125
2164
2237
2270
2236
2175
2155
2210
2318
2421
2481
2515
2569
2673
2800
2893
2936
2980
3087
3253
3413
3514
3575
3637
3696
3698
3605
3433
3229
3016
2781
2529
2292
2102
1952
1825
1736
1713
1740
1757
1719
1645
1586
1555
1518
1443
1355
1303
1304
1317
1293
1240
1215
1252
1317
1345
1313
1275
1295
1375
1452
1465
1428
1418
1485
1602
1698
1729
1719
1718
1755
1818
1868
1868
1804
1693
1563
1436
1306
1158
986
804
620
427
219
38
-52
-32
30
34
-56
-191
-296
-363
-466
-680
-1020
-1424
-1806
-2126
-2411
-2721
-3092
-3493
-3857
-4157
-4447
-4797
-5183
-5497
-5663
-5734
-5812
-5929
-5996
-5925
-5760
-5632
-5597
-5573
-5469
-5314
-5218
-5188
-5106
-4871
-4566
-4373
-4354
-4363
-4228
-3951
-3696
-3581
-3552
-3474
-3297
-3099
-2957
-2863
-2759
-2637
-2548
-2519
-2512
-2459
-2337
-2194
-2105
-2121
-2204
-2262
-2235
-2140
-2050
-2017
-2004
-1938
-1815
-1713
-1697
-1726
-1720
-1662
-1625
-1675
-1792
-1888
-1905
-1862
-1811
-1781
-1770
-1784
-1832
-1905
-1983
-2090
-2290
-2603
-2954
-3211
-3326
-3383
-3472
-3529
-3374
-2913
-2278
-1711
-1302
-921
-411
159
520
519
317
198
257
281
30
-447
-839
-915
-764
-648
-685
-759
-705
-528
-365
-286
-224
-86
110
226
184
72
46
170
348
448
434
394
434
545
629
625
582
612
744
900
983
972
951
983
1060
1131
1170
1172
1144
1108
1114
1193
1317
1388
1338
1205
1100
1078
1094
1071
1005
948
933
942
935
913
905
923
940
916
852
783
741
735
749
763
768
761
756
762
777
791
781
740
682
646
663
719
771
783
765
762
789
807
773
707
670
694
741
739
680
634
662
750
817
814
777
775
829
884
877
821
786
820
900
959
952
899
855
865
932
1030
1104
1125
1133
1201
1365
1570
1718
1788
1870
2057
2332
2582
2736
2832
2979
3215
3471
3651
3735
3771
3816
3874
3926
3961
3994
4031
4049
4026
3978
3938
3906
3846
3724
3548
3357
3183
3027
2892
2804
2790
2839
2901
2922
2887
2792
2623
2366
2021
1625
1215
825
483
209
6
-153
-292
-413
-508
-600
-734
-929
-1145
-1317
-1421
-1487
-1566
-1662
-1732
-1741
-1701
-1664
-1682
-1761
-1865
-1959
-2036
-2102
-2148
-2162
-2163
-2189
-2249
-2298
-2289
-2237
-2205
-2227
-2265
-2264
-2225
-2208
-2238
-2265
-2218
-2099
-1980
-1924
-1920
-1899
-1817
-1698
-1597
-1542
-1522
-1499
-1452
-1395
-1350
-1308
-1248
-1164
-1081
-1035
-1034
-1049
-1055
-1045
-1030
-1011
-990
-988
-1013
-1036
-1012
-920
-809
-743
-733
-731
-687
-602
-511
-447
-418
-408
-403
-380
-318
-218
-136
-132
-192
-229
-173
-76
-84
-285
-614
-920
-1124
-1258
-1359
-1367
-1176
-781
-300
152
567
974
1327
1522
1516
1375
1174
898
512
88
-223
-351
-374
-412
-474
-477
-381
-261
-205
-188
-125
1
100
73
-88
-305
-503
-664
-798
-907
-985
-1040
-1065
-1002
-767
-362
82
399
539
610
755
996
1230
1368
1442
1539
1675
1780
1812
1829
1940
2162
2399
2541
2571
2572
2620
2722
2814
2825
2731
2573
2421
2330
2303
2299
2281
2257
2281
2378
2506
2589
2593
2549
2518
2524
2535
2520
2494
2504
2574
2674
2760
2826
2900
3018
3179
3328
3401
3367
3257
3148
3086
3027
2874
2581
2223
1930
1761
1665
1555
1408
1269
1173
1103
1016
911
798
656
436
139
-170
-417
-592
-748
-941
-1168
-1388
-1573
-1723
-1853
-1969
-2078
-2202
-2353
-2501
-2592
-2591
-2530
-2488
-2541
-2700
-2903
-3063
-3142
-3183
-3275
-3461
-3690
-3853
-3863
-3711
-3455
-3177
-2939
-2762
-2630
-2510
-2393
-2313
-2315
-2409
-2546
-2639
-2618
-2459
-2200
-1912
-1661
-1457
-1258
-1023
-757
-509
-318
-189
-104
-57
-43
-26
49
188
320
355
288
219
244
355
464
510
520
543
579
590
560
515
462
351
153
-51
-96
115
492
855
1102
1295
1551
1891
2214
2406
2446
2406
2365
2363
2396
2454
2534
2641
2786
2961
3134
3261
3322
3327
3302
3253
3174
3073
2979
2924
2918
2940
2956
2937
2866
2749
2614
2495
2416
2384
2408
2499
2657
2845
3012
3148
3294
3495
3722
3888
3934
3894
3846
3820
3776
3680
3569
3511
3510
3486
3362
3158
2950
2781
2603
2361
2066
1784
1556
1353
1133
913
740
611
442
154
-245
-676
-1079
-1467
-1876
-2285
-2634
-2889
-3057
-3137
-3074
-2820
-2421
-2005
-1670
-1389
-1074
-709
-390
-221
-207
-261
-326
-426
-597
-797
-939
-983
-988
-1018
-1052
-1000
-818
-572
-373
-262
-202
-137
-66
-15
24
77
150
215
258
300
375
472
548
580
586
597
628
684
775
910
1074
1236
1390
1553
1720
1849
1892
1852
1782
1728
1675
1581
1442
1302
1207
1157
1116
1049
957
872
821
808
809
792
746
684
618
540
434
307
194
102
-5
-142
-253
-266
-195
-147
-199
-304
-375
-416
-510
-653
-686
-463
-66
243
284
125
-57
-215
-492
-1031
-1796
-2598
-3262
-3703
-3922
-3941
-3801
-3559
-3273
-2978
-2705
-2482
-2326
-2241
-2210
-2215
-2239
-2253
-2207
-2084
-1937
-1823
-1744
-1649
-1515
-1400
-1349
-1291
-1068
-613
-85
244
232
-12
-279
-502
-792
-1256
-1827
-2304
-2541
-2548
-2416
-2201
-1896
-1494
-1039
-603
-247
15
210
371
502
578
593
599
680
873
1121
1328
1466
1592
1776
2027
2266
2416
2490
2587
2763
2957
3077
3121
3191
3338
3457
3444
3401
3585
4086
4619
4811
4643
4491
4674
5037
5114
4651
3856
3115
2588
2167
1746
1394
1243
1310
1509
1784
2118
2456
2665
2629
2364
1969
1531
1082
663
346
172
116
114
113
118
146
177
157
45
-151
-388
-628
-845
-1021
-1150
-1250
-1372
-1553
-1782
-2014
-2222
-2416
-2616
-2812
-2975
-3097
-3202
-3306
-3403
-3473
-3513
-3527
-3507
-3438
-3326
-3208
-3116
-3055
-3015
-2990
-2984
-2985
-2972
-2927
-2857
-2786
-2722
-2656
-2582
-2506
-2442
-2395
-2365
-2353
-2351
-2349
-2326
-2258
-2140
-1996
-1871
-1798
-1776
-1778
-1786
-1798
-1819
-1831
-1809
-1748
-1674
-1608
-1540
-1448
-1331
-1227
-1180
-1196
-1263
-1383
-1569
-1819
-2097
-2369
-2641
-2948
-3279
-3536
-3578
-3345
-2912
-2443
-2054
-1734
-1388
-969
-544
-247
-155
-231
-364
-461
-505
-528
-575
-676
-832
-1008
-1152
-1220
-1212
-1164
-1110
-1044
-940
-785
-589
-375
-159
32
154
180
128
64
43
71
115
141
145
136
133
159
234
343
442
493
507
535
606
698
762
781
777
775
786
828
929
1090
1250
1318
1266
1154
1066
1012
928
772
592
483
505
630
789
926
1019
1075
1106
1127
1136
1127
1107
1101
1136
1216
1335
1497
1720
1993
2251
2420
2487
2507
2531
2553
2537
2482
2422
2378
2342
2295
2264
2268
2266
2190
2029
1853
1740
1676
1605
1518
1459
1456
1474
1477
1497
1591
1738
1838
1832
1780
1791
1886
1987
2030
2044
2099
2201
2279
2286
2263
2254
2231
2147
2023
1943
1952
1996
2005
2039
2250
2668
3087
3241
3093
2886
2862
2981
2978
2686
2244
1949
1952
2155
2387
2588
2783
2966
3072
3062
2980
2892
2796
2638
2400
2159
2044
2122
2350
2614
2796
2872
2924
3037
3206
3348
3394
3368
3343
3350
3347
3299
3233
3201
3188
3112
2946
2777
2719
2776
2836
2807
2733
2731
2833
2958
3031
3103
3284
3589
3893
4069
4137
4215
4356
4483
4492
4383
4242
4114
3982
3843
3762
3799
3930
4081
4233
4447
4758
5088
5316
5414
5457
5496
5468
5285
4969
4648
4416
4226
3949
3540
3103
2783
2615
2506
2343
2123
1944
1879
1908
1957
1994
2043
2126
2199
2200
2131
2072
2082
2117
2081
1941
1776
1687
1687
1699
1647
1534
1405
1289
1174
1050
937
868
839
808
734
620
504
412
331
224
83
-74
-222
-361
-516
-703
-913
-1111
-1268
-1393
-1531
-1729
-2001
-2326
-2669
-3016
-3375
-3753
-4122
-4430
-4624
-4667
-4552
-4289
-3921
-3517
-3125
-2744
-2352
-1974
-1707
-1638
-1752
-1938
-2118
-2316
-2613
-3024
-3456
-3797
-4023
-4204
-4387
-4537
-4594
-4571
-4558
-4605
-4643
-4564
-4376
-4216
-4211
-4297
-4280
-4071
-3804
-3689
-3756
-3795
-3598
-3195
-2834
-2707
-2752
-2759
-2611
-2389
-2252
-2258
-2313
-2274
-2100
-1858
-1663
-1587
-1599
-1582
-1419
-1130
-872
-818
-999
-1249
-1362
-1307
-1237
-1294
-1452
-1551
-1518
-1447
-1421
-1361
-1101
-610
-127
32
-235
-693
-982
-934
-686
-549
-709
-1069
-1338
-1308
-1039
-755
-656
-782
-1050
-1378
-1675
-1838
-1772
-1518
-1268
-1196
-1342
-1593
-1762
-1708
-1416
-1051
-920
-1214
-1750
-2049
-1789
-1198
-841
-996
-1378
-1517
-1336
-1190
-1338
-1607
-1645
-1425
-1287
-1452
-1702
-1669
-1342
-1093
-1206
-1510
-1605
-1372
-1076
-1029
-1227
-1403
-1376
-1199
-993
-813
-679
-629
-717
-879
-961
-888
-787
-837
-1023
-1131
-971
-568
-135
150
281
348
392
388
323
266
302
404
446
345
191
191
448
834
1103
1115
971
892
952
1035
1032
978
994
1117
1213
1179
1122
1242
1561
1859
1905
1729
1583
1643
1814
1882
1774
1605
1514
1533
1622
1759
1918
2006
1949
1815
1783
1938
2150
2207
2062
1880
1852
1969
2062
2027
1909
1812
1785
1815
1848
1828
1740
1633
1604
1712
1887
1982
1941
1881
1967
2231
2519
2645
2563
2390
2318
2459
2732
2907
2825
2572
2421
2539
2792
2895
2753
2566
2560
2683
2719
2597
2481
2527
2664
2705
2619
2582
2702
2847
2837
2701
2639
2732
2823
2720
2466
2298
2335
2435
2382
2132
1876
1812
1934
2069
2047
1827
1494
1147
816
467
66
-371
-786
-1123
-1338
-1395
-1246
-871
-342
204
658
1017
1319
1553
1657
1591
1406
1184
943
637
259
-100
-332
-430
-485
-583
-718
-819
-850
-836
-821
-814
-806
-789
-779
-796
-827
-850
-863
-890
-945
-1003
-1015
-965
-902
-893
-963
-1073
-1166
-1205
-1186
-1146
-1141
-1201
-1292
-1317
-1202
-990
-840
-869
-1021
-1114
-1042
-894
-855
-977
-1108
-1083
-938
-859
-959
-1132
-1180
-1076
-982
-1037
-1191
-1266
-1188
-1072
-1070
-1174
-1238
-1178
-1067
-1039
-1113
-1182
-1148
-1040
-963
-959
-979
-959
-912
-894
-937
-1004
-1040
-1049
-1068
-1105
-1113
-1053
-945
-855
-823
-811
-768
-693
-642
-655
-707
-743
-749
-741
-725
-679
-601
-541
-529
-548
-541
-499
-476
-509
-570
-597
-572
-528
-495
-465
-421
-379
-360
-349
-305
-230
-192
-234
-308
-314
-212
-59
52
100
134
192
252
274
266
275
302
299
236
180
241
440
672
816
871
941
1089
1256
1332
1297
1234
1219
1237
1219
1146
1070
1047
1069
1098
1117
1131
1147
1150
1126
1079
1029
997
994
1026
1077
1115
1126
1135
1177
1246
1302
1321
1336
1384
1445
1459
1410
1371
1422
1544
1636
1639
1599
1592
1592
1516
1358
1231
1245
1347
1370
1242
1088
1067
1184
1257
1132
873
683
656
676
574
389
355
621
1018
1197
1029
787
824
1136
1320
1027
383
-138
-246
-128
-183
-530
-910
-1025
-861
-639
-521
-473
-395
-290
-236
-265
-339
-420
-557
-839
-1299
-1881
-2461
-2901
-3118
-3121
-3003
-2877
-2785
-2686
-2524
-2303
-2118
-2090
-2281
-2624
-2949
-3091
-3004
-2778
-2533
-2307
-2058
-1761
-1482
-1331
-1371
-1563
-1836
-2156
-2517
-2885
-3161
-3224
-3014
-2588
-2076
-1573
-1075
-518
101
701
1191
1567
1888
2153
2287
2242
2085
1933
1816
1657
1377
1019
716
562
552
626
739
896
1115
1398
1716
2010
2224
2342
2394
2414
2389
2278
2076
1853
1699
1645
1645
1630
1572
1500
1465
1500
1600
1717
1801
1845
1890
1982
2111
2237
2339
2438
2561
2686
2774
2817
2862
2958
3096
3220
3298
3341
3390
3464
3546
3608
3610
3511
3279
2927
2520
2137
1815
1548
1311
1106
944
836
779
759
743
671
503
264
34
-114
-185
-247
-339
-431
-473
-461
-442
-450
-470
-485
-529
-659
-876
-1102
-1240
-1254
-1181
-1066
-936
-805
-690
-600
-517
-422
-330
-296
-353
-472
-583
-640
-645
-620
-573
-498
-407
-318
-235
-144
-46
23
38
27
50
136
251
347
422
514
639
759
831
858
893
978
1105
1229
1317
1365
1391
1414
1448
1496
1555
1608
1647
1682
1732
1789
1820
1793
1711
1597
1475
1345
1191
1013
829
668
541
444
352
256
162
90
51
25
-23
-105
-198
-276
-337
-408
-502
-600
-680
-744
-808
-864
-884
-846
-763
-667
-572
-470
-363
-271
-214
-194
-191
-191
-192
-188
-167
-126
-73
-19
36
97
164
237
310
376
428
465
504
563
643
718
760
768
766
777
805
829
825
783
726
697
718
759
780
778
797
864
927
912
827
782
874
1076
1260
1330
1309
1273
1249
1185
1025
779
499
229
2
-152
-212
-199
-161
-134
-113
-68
12
110
201
269
299
281
222
161
157
224
318
373
360
317
302
327
350
342
312
290
256
116
-218
-726
-1290
-1795
-2234
-2681
-3162
-3575
-3754
-3612
-3217
-2717
-2218
-1730
-1246
-792
-421
-165
-19
37
-7
-174
-446
-737
-930
-952
-846
-733
-696
-689
-565
-245
166
452
486
342
206
160
111
-76
-404
-730
-905
-896
-792
-680
-562
-381
-128
99
173
91
-8
-4
61
43
-81
-127
103
556
962
1121
1104
1102
1159
1128
879
474
86
-195
-398
-558
-635
-584
-453
-352
-334
-361
-385
-415
-511
-696
-928
-1154
-1348
-1509
-1641
-1746
-1833
-1930
-2068
-2262
-2498
-2733
-2926
-3075
-3204
-3336
-3467
-3581
-3682
-3782
-3883
-3962
-4008
-4037
-4067
-4082
-4048
-3961
-3860
-3781
-3712
-3620
-3516
-3444
-3424
-3416
-3377
-3313
-3242
-3135
-2934
-2637
-2348
-2186
-2163
-2197
-2232
-2301
-2458
-2676
-2870
-2982
-3017
-2987
-2868
-2640
-2346
-2081
-1903
-1803
-1742
-1698
-1668
-1632
-1566
-1464
-1343
-1218
-1076
-895
-674
-443
-249
-123
-62
-26
40
166
334
493
616
718
822
930
1023
1102
1193
1314
1435
1506
1525
1537
1572
1599
1566
1483
1444
1533
1734
1942
2081
2180
2321
2533
2756
2899
2936
2909
2871
2845
2815
2765
2696
2625
2572
2540
2514
2478
2435
2406
2405
2421
2439
2455
2482
2524
2564
2577
2557
2512
2452
2387
2331
2311
2339
2390
2426
2425
2404
2389
2379
2339
2249
2130
2026
1967
1952
1968
2022
2121
2238
2325
2363
2394
2472
2584
2648
2599
2474
2377
2374
2421
2422
2336
2202
2084
1990
1888
1754
1603
1463
1346
1246
1163
1120
1134
1178
1195
1144
1061
1026
1095
1241
1371
1418
1396
1380
1433
1565
1728
1837
1810
1638
1430
1355
1469
1608
1542
1233
892
769
871
969
874
645
492
518
672
873
1088
1288
1389
1336
1205
1130
1141
1120
969
738
568
519
534
530
489
435
387
393
508
728
979
1219
1526
2024
2706
3390
3920
4324
4707
5079
5342
5432
5378
5201
4878
4403
3888
3465
3093
2606
1955
1334
975
859
731
413
20
-208
-202
-146
-258
-552
-858
-1030
-1086
-1132
-1217
-1279
-1241
-1108
-975
-902
-842
-697
-436
-153
36
124
219
418
707
1002
1267
1549
1899
2286
2639
2944
3259
3623
3987
4263
4436
4598
4844
5165
5464
5681
5859
6083
6372
6650
6828
6870
6801
6669
6520
6370
6181
5888
5477
5012
4605
4318
4113
3900
3633
3356
3158
3095
3138
3183
3134
2984
2829
2765
2775
2739
2574
2347
2200
2178
2172
2058
1861
1722
1712
1746
1683
1508
1346
1303
1345
1366
1323
1274
1284
1316
1283
1156
992
857
744
604
422
238
98
1
-82
-147
-165
-142
-134
-190
-291
-354
-330
-263
-238
-290
-374
-429
-442
-458
-515
-595
-651
-680
-718
-794
-884
-939
-949
-967
-1041
-1160
-1274
-1379
-1541
-1817
-2177
-2528
-2807
-3057
-3361
-3728
-4088
-4349
-4500
-4611
-4757
-4930
-5067
-5121
-5114
-5099
-5100
-5092
-5050
-4985
-4921
-4858
-4777
-4667
-4521
-4348
-4173
-4051
-4037
-4109
-4150
-4050
-3853
-3723
-3771
-3919
-3982
-3859
-3627
-3455
-3427
-3493
-3556
-3547
-3489
-3445
-3455
-3501
-3535
-3514
-3460
-3426
-3444
-3481
-3487
-3446
-3385
-3334
-3310
-3317
-3338
-3345
-3312
-3239
-3154
-3097
-3117
-3233
-3379
-3423
-3292
-3067
-2930
-2949
-2972
-2804
-2466
-2188
-2112
-2098
-1917
-1587
-1384
-1489
-1720
-1745
-1487
-1199
-1125
-1212
-1219
-1039
-810
-706
-718
-704
-602
-498
-492
-565
-611
-551
-401
-232
-109
-64
-79
-89
-49
17
45
0
-67
-77
-42
-88
-280
-552
-795
-990
-1224
-1528
-1810
-1965
-2010
-2039
-2009
-1729
-1106
-344
200
422
598
1053
1718
2171
2103
1698
1420
1478
1604
1393
804
214
-12
100
232
163
-10
-79
18
188
364
555
746
861
848
801
860
1015
1117
1103
1111
1267
1469
1504
1347
1255
1430
1720
1782
1523
1232
1256
1572
1850
1870
1747
1729
1883
2068
2137
2113
2104
2145
2181
2182
2173
2172
2182
2193
2223
2277
2320
2313
2270
2253
2301
2366
2374
2320
2263
2254
2282
2286
2231
2159
2114
2086
2019
1890
1752
1662
1598
1493
1328
1181
1133
1169
1166
1040
860
779
857
978
977
816
621
533
564
599
530
369
231
193
207
163
37
-76
-77
0
22
-68
-183
-189
-91
-33
-105
-226
-263
-226
-246
-387
-538
-562
-473
-413
-461
-547
-548
-455
-358
-324
-326
-303
-243
-185
-163
-176
-200
-210
-178
-114
-70
-98
-174
-208
-151
-61
-33
-89
-154
-161
-122
-100
-129
-167
-166
-130
-102
-109
-141
-167
-163
-140
-136
-179
-250
-290
-250
-163
-114
-150
-222
-238
-167
-75
-41
-75
-111
-87
-7
75
119
127
132
151
175
179
154
124
126
181
268
337
357
333
299
280
266
235
182
137
132
172
227
268
289
307
335
358
354
317
261
204
153
116
99
103
114
103
53
-5
-16
48
135
154
83
5
26
140
220
148
-43
-193
-188
-61
73
155
221
316
438
560
685
822
937
958
875
785
807
960
1149
1279
1355
1446
1581
1705
1759
1762
1773
1808
1811
1734
1597
1471
1399
1362
1317
1258
1204
1161
1097
980
827
685
581
476
288
-38
-449
-807
-1001
-1035
-988
-894
-681
-259
348
984
1519
1931
2272
2543
2685
2669
2544
2373
2176
1942
1697
1502
1362
1220
1042
870
763
720
681
626
613
695
852
998
1076
1077
1021
917
790
695
673
707
763
840
973
1172
1393
1570
1670
1683
1601
1441
1281
1204
1186
1129
1029
1018
1183
1365
1250
741
147
-73
210
683
974
1070
1298
1904
2748
3432
3689
3574
3302
2980
2529
1854
1040
333
-65
-176
-209
-341
-543
-642
-554
-412
-448
-769
-1268
-1737
-2065
-2290
-2499
-2712
-2887
-2998
-3086
-3210
-3388
-3569
-3678
-3700
-3690
-3721
-3826
-3963
-4045
-3990
-3786
-3515
-3297
-3186
-3101
-2907
-2556
-2135
-1752
-1399
-966
-406
182
645
947
1170
1371
1486
1421
1184
888
618
363
90
-156
-282
-267
-187
-130
-103
-46
81
243
354
354
266
185
217
372
540
600
565
595
819
1175
1459
1548
1526
1577
1761
1962
2027
1942
1833
1808
1859
1896
1859
1778
1727
1752
1824
1893
1938
1983
2034
2037
1914
1653
1352
1148
1114
1224
1410
1628
1886
2201
2553
2879
3106
3193
3145
2991
2751
2440
2100
1811
1636
1568
1538
1497
1470
1501
1571
1593
1520
1396
1296
1232
1157
1058
1004
1061
1199
1312
1336
1313
1329
1405
1486
1518
1494
1442
1385
1345
1356
1437
1564
1690
1799
1925
2097
2285
2429
2517
2610
2768
2971
3148
3263
3357
3493
3660
3780
3801
3745
3673
3612
3534
3432
3349
3331
3361
3370
3323
3270
3272
3307
3279
3117
2852
2580
2346
2115
1839
1530
1256
1068
950
857
751
619
455
246
-5
-264
-473
-602
-679
-763
-869
-929
-853
-654
-485
-510
-748
-1074
-1366
-1627
-1929
-2280
-2612
-2872
-3083
-3271
-3360
-3225
-2840
-2314
-1788
-1290
-749
-122
529
1094
1492
1705
1748
1648
1458
1245
1050
868
666
443
241
111
81
139
236
308
328
321
348
447
594
733
833
890
898
841
730
637
641
735
818
795
676
563
532
540
481
319
138
48
63
96
78
29
16
50
61
0
-80
-94
-51
-35
-73
-52
160
503
738
698
494
376
425
467
303
-21
-255
-231
-35
114
87
-101
-375
-699
-1042
-1358
-1637
-1917
-2218
-2470
-2548
-2401
-2122
-1881
-1784
-1804
-1837
-1806
-1725
-1675
-1720
-1819
-1839
-1678
-1373
-1067
-862
-724
-572
-406
-320
-355
-431
-425
-318
-218
-223
-306
-355
-311
-247
-277
-435
-645
-821
-966
-1133
-1336
-1525
-1653
-1740
-1844
-1966
-2032
-1986
-1877
-1823
-1889
-2023
-2125
-2151
-2131
-2130
-2191
-2320
-2485
-2628
-2697
-2689
-2634
-2569
-2511
-2451
-2384
-2310
-2218
-2100
-1999
-1977
-2041
-2111
-2102
-2013
-1932
-1921
-1963
-2010
-2068
-2171
-2310
-2410
-2419
-2386
-2416
-2548
-2713
-2817
-2858
-2929
-3109
-3376
-3626
-3766
-3778
-3701
-3578
-3435
-3292
-3168
-3078
-3019
-2975
-2954
-2993
-3104
-3243
-3332
-3323
-3238
-3127
-3025
-2941
-2869
-2809
-2754
-2677
-2567
-2442
-2310
-2148
-1930
-1679
-1474
-1362
-1308
-1238
-1147
-1108
-1176
-1299
-1367
-1334
-1263
-1242
-1266
-1242
-1092
-847
-624
-505
-470
-428
-321
-178
-77
-55
-79
-95
-84
-74
-79
-67
-23
23
27
-10
-17
67
219
367
468
547
632
710
745
743
737
734
710
660
650
757
965
1167
1272
1288
1278
1269
1234
1160
1080
1027
984
916
845
846
954
1111
1216
1234
1209
1194
1187
1158
1123
1143
1229
1298
1257
1120
986
899
773
505
129
-212
-433
-587
-741
-795
-550
40
768
1368
1789
2204
2759
3386
3884
4137
4194
4148
4032
3848
3645
3504
3439
3392
3318
3256
3293
3436
3587
3646
3625
3633
3735
3867
3902
3819
3732
3737
3773
3684
3428
3149
3005
2985
2949
2818
2655
2530
2405
2205
1952
1751
1656
1604
1514
1402
1345
1385
1491
1619
1734
1804
1821
1829
1901
2039
2107
1998
1781
1675
1793
2001
2059
1884
1639
1558
1682
1832
1796
1541
1257
1204
1478
1903
2180
2148
1926
1791
1923
2246
2535
2635
2574
2510
2572
2760
2973
3122
3200
3262
3347
3437
3477
3463
3440
3478
3606
3795
3985
4129
4260
4476
4819
5198
5430
5414
5252
5145
5164
5180
5050
4812
4634
4581
4528
4333
4046
3854
3833
3834
3657
3282
2889
2651
2557
2473
2341
2235
2253
2392
2560
2695
2825
2996
3183
3308
3340
3344
3412
3563
3729
3851
3945
4095
4346
4665
4971
5207
5379
5520
5632
5665
5573
5365
5112
4874
4644
4372
4047
3734
3512
3385
3273
3115
2942
2845
2849
2876
2812
2628
2395
2211
2105
2034
1945
1831
1730
1683
1686
1686
1628
1508
1370
1258
1169
1052
890
720
591
502
415
304
196
123
64
-39
-226
-472
-731
-978
-1233
-1506
-1785
-2043
-2276
-2479
-2642
-2758
-2841
-2919
-3009
-3098
-3164
-3203
-3237
-3283
-3334
-3363
-3364
-3355
-3367
-3409
-3458
-3482
-3468
-3441
-3444
-3506
-3601
-3676
-3692
-3658
-3635
-3673
-3764
-3854
-3900
-3913
-3957
-4067
-4222
-4356
-4413
-4400
-4376
-4401
-4482
-4556
-4544
-4431
-4275
-4145
-4043
-3918
-3748
-3572
-3428
-3293
-3121
-2921
-2766
-2703
-2675
-2582
-2415
-2268
-2201
-2177
-2129
-2067
-2077
-2179
-2279
-2267
-2173
-2130
-2217
-2378
-2511
-2603
-2731
-2951
-3245
-3568
-3907
-4263
-4581
-4773
-4795
-4661
-4402
-4029
-3564
-3065
-2576
-2097
-1622
-1213
-969
-905
-912
-874
-822
-902
-1170
-1488
-1669
-1675
-1646
-1707
-1825
-1853
-1731
-1550
-1439
-1415
-1382
-1287
-1197
-1229
-1388
-1527
-1499
-1333
-1214
-1263
-1395
-1423
-1278
-1102
-1085
-1246
-1421
-1454
-1356
-1261
-1252
-1284
-1260
-1147
-1002
-912
-912
-963
-988
-949
-884
-858
-892
-929
-901
-796
-666
-572
-526
-502
-474
-425
-338
-209
-82
-11
-14
-52
-61
-26
20
54
81
101
106
102
135
230
343
394
375
374
478
655
775
762
687
681
782
887
892
809
746
782
884
963
977
967
998
1076
1139
1137
1082
1046
1077
1155
1204
1180
1116
1090
1140
1234
1309
1332
1323
1317
1327
1340
1357
1376
1389
1383
1370
1369
1396
1436
1466
1482
1514
1584
1676
1739
1737
1694
1669
1705
1779
1818
1771
1692
1686
1801
1954
2017
1972
1940
2034
2220
2352
2341
2257
2227
2281
2339
2339
2314
2333
2412
2486
2498
2489
2530
2631
2722
2736
2679
2622
2613
2622
2597
2540
2518
2576
2671
2711
2666
2589
2558
2590
2646
2676
2678
2659
2627
2590
2570
2576
2585
2550
2474
2408
2376
2336
2227
2056
1901
1826
1796
1736
1626
1513
1441
1395
1328
1224
1105
975
815
624
442
316
251
190
89
-49
-178
-262
-298
-325
-384
-496
-642
-771
-836
-844
-846
-889
-970
-1041
-1069
-1061
-1049
-1046
-1047
-1046
-1054
-1078
-1105
-1115
-1110
-1120
-1168
-1249
-1315
-1329
-1295
-1248
-1226
-1239
-1252
-1227
-1152
-1068
-1020
-998
-959
-888
-832
-852
-947
-1047
-1094
-1100
-1120
-1185
-1272
-1344
-1394
-1440
-1512
-1648
-1877
-2182
-2486
-2702
-2807
-2840
-2810
-2648
-2288
-1763
-1191
-666
-189
271
670
898
910
790
673
609
525
325
14
-303
-503
-544
-492
-453
-468
-482
-407
-247
-116
-104
-168
-161
-15
160
194
63
-75
-62
76
166
97
-56
-138
-97
-20
-18
-88
-129
-58
106
271
367
405
446
528
618
659
632
576
541
532
523
505
496
501
488
435
368
342
372
422
452
478
542
644
730
758
750
752
773
776
738
688
668
687
717
740
779
864
981
1088
1152
1183
1211
1249
1281
1294
1298
1308
1338
1382
1423
1446
1450
1454
1486
1554
1630
1674
1670
1647
1634
1630
1587
1474
1327
1229
1239
1328
1415
1475
1556
1728
1978
2198
2283
2234
2143
2089
2073
2051
2003
1952
1923
1933
1986
2078
2174
2223
2207
2166
2158
2190
2212
2186
2141
2133
2187
2276
2358
2422
2465
2468
2415
2330
2288
2349
2495
2647
2718
2678
2576
2495
2486
2521
2512
2376
2110
1818
1640
1639
1729
1754
1650
1534
1584
1802
1939
1713
1102
386
-139
-448
-739
-1128
-1463
-1511
-1257
-921
-714
-641
-581
-513
-565
-837
-1257
-1655
-1935
-2150
-2389
-2653
-2862
-2961
-2989
-3037
-3168
-3372
-3597
-3802
-3987
-4173
-4351
-4483
-4535
-4533
-4538
-4581
-4626
-4621
-4526
-4336
-4055
-3720
-3380
-3061
-2734
-2339
-1865
-1401
-1067
-908
-863
-830
-753
-655
-605
-637
-703
-678
-453
-21
506
973
1268
1354
1272
1142
1108
1211
1308
1185
828
500
504
846
1212
1298
1112
916
891
961
962
872
820
904
1084
1270
1443
1663
1957
2255
2448
2494
2422
2294
2134
1917
1632
1295
947
609
277
-36
-286
-421
-421
-289
-40
312
742
1222
1742
2318
2937
3528
3980
4236
4331
4336
4283
4139
3872
3508
3130
2821
2617
2501
2430
2376
2341
2347
2386
2400
2339
2204
2057
1946
1850
1717
1547
1396
1298
1234
1178
1150
1180
1241
1255
1195
1133
1150
1224
1268
1260
1295
1468
1723
1896
1900
1817
1781
1816
1832
1766
1668
1627
1658
1708
1748
1806
1899
1980
1985
1908
1807
1721
1625
1490
1343
1238
1173
1085
935
770
678
663
629
497
294
127
53
27
-36
-155
-278
-365
-427
-493
-562
-614
-646
-684
-751
-838
-910
-957
-994
-1036
-1083
-1127
-1154
-1161
-1149
-1118
-1064
-1001
-961
-967
-1003
-1016
-989
-961
-992
-1084
-1152
-1119
-999
-881
-826
-797
-708
-535
-336
-186
-119
-110
-106
-61
52
212
364
454
500
564
673
771
789
723
648
640
688
718
695
653
659
727
794
779
648
437
227
86
20
-14
-63
-125
-150
-85
52
172
166
-3
-266
-501
-627
-672
-748
-933
-1139
-1177
-941
-555
-279
-268
-450
-645
-786
-951
-1193
-1427
-1523
-1497
-1505
-1624
-1741
-1706
-1554
-1471
-1571
-1778
-1945
-2049
-2150
-2234
-2199
-2004
-1765
-1629
-1567
-1416
-1106
-785
-678
-867
-1242
-1654
-2025
-2331
-2554
-2688
-2739
-2714
-2583
-2317
-1936
-1522
-1153
-847
-594
-415
-355
-410
-503
-564
-598
-651
-721
-753
-721
-670
-673
-732
-768
-711
-576
-439
-325
-165
100
370
443
221
-152
-414
-431
-325
-305
-441
-611
-679
-637
-580
-584
-629
-678
-733
-819
-935
-1062
-1201
-1371
-1573
-1766
-1906
-2000
-2085
-2187
-2290
-2356
-2365
-2333
-2292
-2275
-2298
-2350
-2416
-2487
-2589
-2748
-2932
-3075
-3144
-3167
-3183
-3160
-3011
-2688
-2248
-1795
-1371
-930
-428
94
531
807
932
955
894
740
512
278
102
-15
-113
-212
-283
-282
-202
-68
96
273
425
511
527
517
526
543
506
389
244
154
146
174
202
243
328
441
519
523
492
493
547
605
611
580
576
647
773
897
984
1045
1099
1140
1145
1112
1063
1022
986
937
882
860
903
987
1047
1042
993
956
949
934
859
723
586
509
500
520
529
518
500
488
487
505
546
596
632
636
627
643
698
773
825
835
824
816
818
824
847
910
1014
1121
1209
1307
1469
1691
1891
1983
1977
1969
2009
2050
2019
1931
1891
1946
2026
2025
1937
1870
1904
1983
1990
1892
1774
1736
1770
1812
1826
1844
1913
2019
2097
2104
2072
2076
2171
2342
2494
2530
2438
2309
2254
2297
2371
2384
2295
2124
1926
1787
1798
1973
2192
2278
2172
2010
1977
2104
2259
2298
2202
2084
2050
2115
2237
2373
2460
2457
2394
2367
2441
2545
2536
2373
2185
2156
2304
2422
2290
1933
1642
1673
1960
2156
1987
1559
1244
1270
1479
1517
1244
875
708
767
815
651
341
98
11
-22
-87
-150
-157
-145
-232
-421
-540
-457
-265
-210
-405
-699
-857
-839
-834
-1038
-1448
-1908
-2285
-2550
-2729
-2829
-2852
-2827
-2788
-2703
-2486
-2080
-1523
-921
-366
86
407
610
775
1021
1392
1775
1995
2030
2059
2276
2639
2883
2822
2581
2462
2603
2833
2899
2775
2683
2821
3147
3470
3684
3836
3999
4164
4286
4379
4498
4635
4710
4694
4660
4692
4760
4762
4658
4493
4324
4132
3883
3610
3377
3169
2903
2550
2185
1905
1722
1591
1533
1628
1907
2300
2729
3199
3738
4271
4633
4743
4706
4685
4690
4556
4159
3594
3096
2815
2678
2520
2291
2103
2077
2186
2289
2270
2163
2090
2092
2086
1978
1769
1551
1399
1319
1281
1268
1271
1274
1270
1285
1348
1432
1456
1384
1289
1282
1363
1402
1289
1070
900
858
836
676
358
28
-164
-244
-377
-665
-1043
-1350
-1503
-1563
-1657
-1845
-2093
-2326
-2500
-2622
-2744
-2930
-3180
-3417
-3552
-3574
-3575
-3653
-3792
-3867
-3797
-3647
-3563
-3607
-3689
-3688
-3599
-3531
-3569
-3652
-3677
-3631
-3602
-3634
-3642
-3517
-3294
-3123
-3078
-3054
-2911
-2652
-2424
-2329
-2307
-2248
-2164
-2172
-2304
-2425
-2377
-2172
-1991
-1994
-2156
-2312
-2344
-2256
-2136
-2075
-2121
-2254
-2379
-2367
-2163
-1861
-1647
-1623
-1702
-1708
-1584
-1446
-1425
-1509
-1579
-1572
-1564
-1636
-1725
-1671
-1433
-1195
-1183
-1401
-1616
-1616
-1443
-1320
-1409
-1640
-1824
-1869
-1841
-1838
-1877
-1907
-1901
-1899
-1947
-2036
-2115
-2122
-2051
-1954
-1896
-1902
-1909
-1825
-1643
-1486
-1508
-1695
-1865
-1855
-1708
-1631
-1758
-1976
-2056
-1898
-1642
-1494
-1506
-1543
-1478
-1315
-1174
-1133
-1122
-1013
-792
-586
-520
-564
-552
-396
-212
-191
-379
-593
-623
-483
-373
-443
-618
-700
-600
-422
-331
-370
-429
-385
-236
-93
-64
-131
-176
-104
49
161
196
253
444
733
968
1051
1064
1178
1443
1716
1832
1784
1727
1799
1984
2163
2242
2229
2208
2255
2393
2568
2688
2694
2629
2611
2706
2844
2888
2792
2669
2664
2781
2883
2873
2801
2777
2811
2821
2767
2719
2745
2790
2737
2558
2364
2266
2222
2103
1837
1488
1168
951
858
900
1076
1349
1679
2093
2631
3268
3887
4368
4679
4859
4946
4961
4936
4908
4865
4734
4474
4176
3994
3964
3959
3852
3679
3578
3611
3694
3704
3649
3604
3602
3581
3475
3309
3147
3000
2831
2627
2410
2228
2117
2060
2023
1956
1829
1681
1596
1566
1512
1407
1329
1371
1494
1575
1591
1659
1826
1922
1735
1332
1042
1062
1154
878
145
-668
-1127
-1214
-1286
-1623
-2116
-2457
-2479
-2303
-2159
-2122
-2103
-2011
-1863
-1752
-1749
-1820
-1882
-1921
-1970
-2055
-2147
-2171
-2108
-2024
-1973
-1941
-1887
-1830
-1841
-1957
-2125
-2243
-2253
-2158
-1999
-1818
-1656
-1573
-1620
-1757
-1876
-1914
-1917
-2025
-2309
-2664
-2891
-2875
-2661
-2397
-2174
-1994
-1830
-1711
-1702
-1819
-1993
-2130
-2207
-2270
-2348
-2396
-2335
-2154
-1945
-1820
-1791
-1748
-1578
-1312
-1111
-1091
-1179
-1190
-1025
-778
-635
-655
-731
-745
-692
-646
-624
-565
-432
-294
-232
-234
-198
-50
150
264
248
193
223
365
522
596
605
632
714
794
815
805
845
960
1077
1120
1095
1074
1089
1092
1050
1011
1047
1128
1154
1103
1091
1216
1405
1484
1392
1259
1241
1329
1367
1278
1156
1119
1161
1191
1177
1186
1246
1275
1193
1051
976
1011
1064
1061
1046
1102
1182
1162
1029
938
1005
1117
1033
696
348
278
498
730
734
578
540
787
1187
1455
1462
1362
1409
1686
2025
2190
2135
2036
2064
2186
2220
2051
1776
1622
1703
1932
2111
2141
2096
2159
2422
2728
2864
2798
2696
2690
2689
2525
2277
2266
2646
3125
3277
3113
3119
3639
4379
4691
4289
3523
2885
2437
1867
986
-16
-833
-1366
-1709
-1897
-1853
-1555
-1108
-620
-74
575
1264
1826
2142
2274
2339
2394
2415
2359
2195
1926
1591
1259
988
775
573
340
96
-108
-252
-349
-382
-319
-195
-137
-263
-541
-791
-866
-828
-885
-1166
-1591
-1951
-2114
-2114
-2064
-2040
-2044
-2062
-2090
-2123
-2125
-2070
-1969
-1862
-1762
-1644
-1498
-1389
-1406
-1577
-1846
-2108
-2259
-2223
-1972
-1565
-1143
-816
-561
-259
146
542
747
708
557
472
512
601
645
612
523
404
289
204
164
137
85
21
-4
45
139
234
313
394
473
503
439
294
136
39
46
147
282
379
405
390
401
457
506
474
351
201
96
27
-71
-230
-404
-505
-493
-391
-238
-40
205
473
705
856
924
942
936
919
889
844
781
711
669
700
811
953
1052
1080
1068
1068
1093
1102
1051
947
830
723
597
414
213
95
116
213
259
213
174
261
464
653
734
755
829
985
1130
1172
1131
1097
1126
1215
1361
1589
1903
2247
2555
2826
3113
3429
3691
3795
3726
3582
3470
3421
3400
3379
3380
3427
3510
3593
3663
3741
3832
3895
3881
3800
3729
3741
3844
3977
4074
4111
4108
4088
4061
4014
3914
3741
3511
3281
3108
2988
2880
2738
2565
2396
2254
2135
2034
1958
1901
1815
1649
1416
1199
1066
995
900
736
555
449
452
512
560
591
651
766
888
934
878
789
764
830
903
891
809
773
875
1070
1218
1251
1247
1305
1413
1452
1362
1233
1208
1294
1346
1252
1056
906
880
920
929
877
807
763
750
761
784
804
796
733
596
383
120
-151
-405
-658
-950
-1289
-1625
-1907
-2134
-2317
-2404
-2302
-1984
-1554
-1147
-775
-324
262
868
1305
1491
1505
1446
1305
1019
624
264
40
-92
-251
-471
-659
-703
-598
-448
-367
-388
-459
-504
-489
-431
-389
-421
-553
-753
-966
