-283
-252
-217
-184
-156
-144
-149
-161
-161
-141
-106
-66
-29
2
15
12
5
14
49
94
127
133
117
101
109
154
229
307
364
394
418
455
504
545
572
598
637
686
723
741
756
786
832
874
897
902
902
898
879
847
819
816
835
849
835
798
761
733
703
661
612
572
541
500
434
349
270
213
174
137
89
30
-38
-107
-171
-224
-262
-282
-293
-311
-348
-399
-445
-467
-464
-451
-444
-448
-458
-471
-482
-488
-486
-476
-464
-452
-441
-431
-426
-428
-429
-416
-388
-359
-339
-331
-331
-336
-339
-329
-298
-261
-238
-242
-255
-253
-238
-230
-239
-241
-215
-170
-146
-161
-188
-184
-143
-99
-91
-117
-151
-168
-172
-178
-187
-195
-192
-177
-158
-144
-139
-144
-154
-160
-155
-141
-129
-134
-160
-192
-207
-193
-160
-134
-123
-115
-97
-74
-66
-82
-98
-86
-48
-18
-29
-76
-122
-136
-117
-84
-53
-27
-5
10
14
12
17
33
53
65
63
55
49
45
33
7
-28
-65
-99
-140
-194
-255
-308
-339
-345
-339
-333
-333
-339
-343
-344
-343
-345
-348
-348
-342
-335
-336
-348
-362
-362
-345
-324
-314
-317
-319
-312
-296
-282
-269
-255
-244
-244
-248
-235
-192
-130
-74
-47
-40
-19
38
115
178
232
342
560
830
995
922
640
293
-38
-431
-1013
-1749
-2418
-2800
-2871
-2771
-2613
-2375
-1987
-1475
-959
-543
-249
-57
27
-1
-94
-163
-153
-88
-30
-3
19
53
84
96
92
96
116
135
134
117
108
120
142
160
168
170
167
153
130
111
111
128
145
147
130
104
78
56
170
43
53
52
34
-1
-31
-34
-4
35
54
50
44
62
101
134
144
143
157
194
233
249
243
238
254
294
341
382
411
437
463
491
520
552
593
646
704
749
771
778
789
818
860
895
908
903
888
869
845
816
789
772
763
748
715
667
618
583
559
535
504
469
433
390
332
264
206
167
137
94
23
-63
-142
-206
-260
-312
-359
-392
-409
-421
-442
-482
-535
-581
-605
-607
-608
-627
-666
-709
-735
-737
-723
-701
-678
-658
-650
-660
-677
-686
-678
-660
-641
-626
-611
-591
-571
-558
-550
-541
-520
-490
-463
-453
-462
-481
-492
-486
-467
-442
-415
-391
-377
-381
-401
-414
-400
-362
-328
-323
-347
-368
-361
-330
-302
-295
-296
-281
-249
-230
-251
-294
-313
-284
-231
-206
-229
-274
-308
-319
-322
-329
-331
-323
-311
-307
-312
-319
-321
-316
-302
-278
-254
-249
-267
-287
-284
-260
-242
-243
-245
-225
-193
-189
-227
-273
-274
-219
-147
-105
-99
-103
-94
-73
-54
-37
-12
16
30
18
-11
-31
-26
-9
-6
-37
-97
-170
-239
-297
-342
-372
-388
-393
-402
-423
-449
-465
-458
-438
-424
-425
-431
-431
-425
-428
-445
-463
-457
-420
-373
-348
-360
-396
-423
-423
-396
-360
-331
-314
-312
-318
-312
-283
-228
-165
-122
-119
-138
-136
-87
0
102
236
449
739
994
1055
867
530
175
-194
-696
-1393
-2152
-2729
-2986
-2980
-2847
-2638
-2315
-1857
-1333
-853
-481
-226
-88
-57
-95
-140
-145
-115
-83
-62
-37
1
41
72
96
117
132
135
131
133
146
164
185
209
232
246
240
219
201
200
213
225
227
220
211
208
215
228
241
253
269
293
315
315
284
243
222
237
270
295
301
301
309
325
338
347
360
391
429
450
440
417
413
446
498
537
556
571
599
635
664
689
727
785
843
876
883
882
887
892
894
906
941
990
1015
993
939
895
886
894
883
840
780
730
699
680
657
628
595
561
530
499
459
403
334
271
240
239
238
197
106
-4
-94
-145
-169
-191
-227
-281
-349
-414
-451
-451
-438
-449
-500
-563
-600
-606
-610
-635
-658
-646
-600
-561
-557
-573
-577
-568
-569
-582
-577
-534
-484
-477
-514
-535
-499
-433
-402
-427
-459
-453
-426
-424
-448
-447
-387
-307
-269
-277
-269
-201
-121
-112
-187
-255
-231
-139
-87
-138
-236
-280
-231
-151
-115
-137
-176
-201
-212
-219
-210
-181
-149
-140
-163
-196
-221
-241
-261
-276
-274
-260
-257
-275
-291
-275
-221
-161
-122
-98
-63
-19
7
-3
-19
-8
22
25
-18
-71
-85
-70
-76
-115
-134
-94
-30
-14
-57
-97
-85
-52
-61
-118
-161
-144
-97
-78
-100
-126
-127
-117
-121
-139
-154
-154
-151
-158
-190
-249
-317
-358
-346
-300
-279
-324
-409
-468
-465
-429
-406
-405
-407
-410
-435
-481
-501
-457
-371
-320
-340
-378
-363
-321
-362
-557
-826
-1027
-1103
-1131
-1203
-1273
-1194
-887
-447
-44
256
540
911
1318
1561
1496
1186
829
533
188
-372
-1143
-1896
-2380
-2549
-2539
-2478
-2346
-2062
-1639
-1191
-807
-479
-176
71
174
105
-57
-180
-199
-153
-110
-106
-113
-80
7
90
95
14
-61
-28
123
290
374
387
411
489
568
574
499
392
293
192
76
-22
-53
-20
15
7
-6
56
212
381
471
477
483
544
612
584
437
271
199
227
255
212
144
146
245
367
421
405
393
443
544
643
696
700
671
622
567
518
474
429
385
357
370
462
673
1020
1442
1810
2031
2135
2224
2326
2328
2123
1772
1476
1343
1262
1056
717
422
294
251
121
-121
-331
-393
-365
-369
-415
-405
-290
-155
-101
-127
-164
-186
-209
-230
-224
-217
-274
-397
-472
-405
-276
-278
-467
-674
-693
-534
-395
-411
-508
-528
-431
-322
-291
-328
-383
-440
-510
-568
-573
-519
-465
-468
-522
-571
-564
-502
-443
-445
-493
-505
-411
-263
-205
-303
-437
-423
-240
-70
-85
-243
-342
-257
-74
41
41
17
42
94
112
91
83
122
180
199
145
43
-32
-11
99
190
157
11
-91
17
347
728
937
898
752
726
896
1085
1024
639
182
-2
176
470
601
555
503
545
594
530
356
128
-166
-575
-1017
-1280
-1243
-1006
-761
-568
-348
-66
176
261
217
154
108
29
-112
-237
-253
-164
-41
58
1628
1592
1537
1503
1488
1458
1402
1361
1382
1457
1511
1482
1380
1275
1229
1246
1282
1288
1239
1143
1042
980
973
991
985
944
894
863
837
781
692
606
570
586
623
651
658
653
644
650
689
764
850
908
920
901
883
890
926
989
1069
1151
1214
1253
1287
1339
1410
1485
1552
1618
1694
1765
1803
1806
1815
1874
1976
2073
2131
2160
2190
2221
2231
2217
2216
2268
2361
2434
2435
2375
2314
2309
2366
2444
2492
2494
2470
2453
2448
2440
2420
2410
2437
2491
2518
2479
2402
2353
2362
2400
2416
2400
2384
2381
2365
2308
2234
2197
2215
2248
2246
2206
2164
2140
2116
2082
2061
2086
2146
2182
2149
2062
1983
1953
1964
1981
1982
1971
1954
1930
1907
1900
1921
1959
1990
2000
1996
1990
1976
1940
1888
1853
1875
1955
2041
2071
2029
1965
1941
1974
2028
2053
2031
1979
1920
1869
1838
1838
1869
1915
1954
1979
1989
1981
1953
1921
1908
1920
1932
1916
1875
1841
1833
1837
1829
1816
1823
1865
1914
1929
1897
1844
1813
1836
1910
2003
2074
2105
2108
2107
2119
2145
2189
2252
2318
2350
2325
2259
2203
2204
2256
2318
2347
2330
2283
2231
2189
2165
2158
2163
2171
2182
2190
2186
2164
2133
2119
2140
2184
2218
2213
2154
2057
1950
1862
1815
1818
1849
1857
1803
1692
1569
1459
1321
1117
892
783
892
1173
1492
1802
2212
2846
3643
4354
4750
4800
4649
4424
4143
3772
3331
2901
2545
2265
2054
1931
1914
1981
2061
2096
2080
2036
1977
1903
1830
1784
1775
1789
1804
1814
1816
1800
1751
1679
1634
1661
1745
1816
1813
1742
1665
1636
1657
1694
1714
1715
1707
1693
1672
1645
1624
1617
1620
1625
1623
1609
1581
1544
1511
1499
1525
1589
1660
1690
1654
1571
1492
1459
1472
1494
1495
1462
1409
1351
1300
1260
1237
1232
1237
1235
1207
1148
1069
997
953
939
937
927
897
850
791
721
654
613
619
664
711
717
681
636
627
667
733
795
839
865
879
875
859
855
891
968
1061
1140
1190
1222
1252
1294
1359
1449
1543
1615
1650
1663
1681
1719
1769
1828
1907
2011
2114
2170
2165
2136
2139
2197
2279
2339
2356
2346
2335
2335
2346
2363
2388
2416
2440
2448
2434
2400
2355
2321
2315
2343
2383
2403
2378
2313
2244
2207
2213
2241
2266
2280
2285
2271
2224
2149
2089
2090
2144
2181
2139
2029
1922
1878
1887
1897
1881
1865
1878
1907
1916
1881
1830
1802
1818
1857
1885
1880
1847
1805
1775
1765
1776
1795
1818
1840
1854
1842
1799
1741
1706
1722
1781
1843
1866
1839
1790
1762
1776
1825
1879
1914
1923
1909
1880
1850
1837
1854
1896
1934
1941
1905
1837
1762
1708
1696
1731
1788
1830
1831
1799
1765
1756
1770
1787
1787
1769
1738
1695
1638
1576
1531
1527
1560
1599
1615
1599
1568
1542
1531
1542
1576
1634
1706
1775
1826
1855
1858
1847
1849
1891
1967
2040
2059
2014
1951
1932
1970
2026
2053
2045
2029
2022
2007
1965
1910
1889
1931
2007
2055
2044
1995
1949
1925
1915
1912
1925
1949
1961
1931
1855
1770
1713
1694
1692
1689
1667
1609
1508
1390
1285
1185
1031
801
581
518
673
955
1248
1569
2064
2808
3646
4291
4567
4536
4375
4182
3924
3549
3092
2644
2269
1985
1801
1734
1777
1881
1970
1994
1951
1860
1744
1635
1571
1569
1608
1649
1663
1642
1597
1548
1520
1527
1561
1591
1588
1549
1503
1474
1462
1455
1450
1459
1483
1491
1460
1400
1355
1355
1384
1407
1408
1400
1394
1376
1329
1272
1249
1283
1345
1380
1363
1313
1270
1249
1245
1251
1266
1281
1274
1229
1159
1093
1049
1020
993
975
978
985
962
892
805
752
750
767
750
680
585
503
449
415
394
390
407
440
463
452
406
358
356
416
505
566
568
532
511
535
589
649
710
782
862
923
946
944
959
1020
1112
1199
1258
1290
1312
1334
1369
1433
1534
1653
1752
1801
1808
1802
1806
1825
1858
1908
1975
2036
2065
2051
2024
2021
2058
2111
2149
2161
2154
2135
2104
2065
2039
2049
2093
2143
2166
2149
2107
2065
2042
2046
2075
2115
2142
2133
2080
2002
1934
1904
1916
1946
1964
1947
1899
1837
1785
1764
1779
1821
1864
1878
1846
1780
1717
1694
1715
1753
1773
1763
1737
1714
1695
1667
1628
1602
1616
1671
1729
1743
1698
1631
1596
1621
1688
1751
1779
1768
1740
1716
1712
1735
1778
1825
1856
1860
1842
1809
1772
1748
1755
1796
1852
1886
1868
1807
1745
1724
1756
1812
1852
1860
1845
1826
1808
1788
1764
1748
1751
1765
1774
1763
1731
1686
1643
1631
1669
1741
1790
1770
1688
1605
1570
1576
1580
1559
1530
1511
1497
1462
1408
1364
1365
1410
1472
1519
1533
1515
1482
1470
1509
1600
1703
1767
1776
1760
1764
1799
1839
1861
1874
1897
1930
1937
1892
1819
1771
1789
1863
1938
1968
1944
1892
1845
1826
1839
1873
1909
1928
1919
1881
1822
1764
1728
1728
1753
1767
1739
1666
1576
1503
1476
1485
1494
1464
1389
1279
1120
871
533
223
119
302
670
1041
1367
1789
2449
3271
3987
4380
4450
4343
4157
3871
3452
2958
2504
2162
1928
1785
1736
1766
1814
1815
1759
1700
1682
1692
1685
1636
1563
1503
1478
1487
1518
1551
1567
1549
1490
1409
1348
1339
1376
1420
1440
1433
1418
1401
1374
1333
1303
1311
1352
1386
1373
1312
1233
1177
1165
1192
1239
1275
1281
1258
1222
1193
1181
1183
1192
1204
1214
1204
1158
1083
1015
992
1017
1051
1049
1008
956
918
888
853
824
829
872
907
880
784
667
583
552
556
565
555
511
441
377
354
379
422
454
476
504
528
517
464
418
441
535
635
677
661
642
660
707
753
800
866
953
1022
1034
1004
986
1030
1131
1247
1333
1374
1380
1380
1398
1452
1539
1637
-30
-270
-592
-829
-912
-925
-961
-1016
-1039
-1029
-1040
-1097
-1159
-1174
-1141
-1099
-1057
-984
-867
-747
-682
-665
-622
-507
-366
-299
-346
-442
-490
-457
-404
-417
-521
-649
-692
-604
-449
-344
-341
-391
-416
-401
-388
-391
-395
-418
-511
-658
-732
-616
-378
-225
-275
-433
-529
-526
-522
-570
-572
-445
-282
-269
-443
-622
-632
-555
-677
-1169
-1874
-2456
-2764
-2993
-3450
-4171
-4832
-5056
-4790
-4307
-3872
-3449
-2819
-1886
-820
117
807
1302
1686
1980
2168
2259
2286
2274
2235
2184
2148
2132
2111
2062
1929
1669
1316
1000
841
818
762
558
307
248
444
597
272
-698
-2022
-3231
-4082
-4635
-4997
-5080
-4696
-3802
-2554
-1105
495
2150
3539
4283
4306
3948
3626
3424
3112
2555
1963
1687
1798
2019
2019
1726
1324
977
658
244
-281
-739
-942
-863
-653
-501
-462
-491
-564
-734
-1030
-1342
-1485
-1415
-1270
-1231
-1340
-1510
-1676
-1853
-2077
-2337
-2625
-2994
-3474
-3929
-4110
-3869
-3322
-2730
-2241
-1776
-1193
-488
195
699
952
986
885
757
697
717
753
747
726
740
778
786
781
859
1032
1118
900
436
61
-1
72
-109
-630
-1116
-1148
-746
-355
-330
-557
-623
-296
261
733
964
1010
1026
1064
1057
918
627
308
146
254
538
749
700
497
520
1104
2190
3265
3727
3393
2665
2123
1932
1688
852
-642
-2330
-3623
-4192
-4070
-3495
-2711
-1910
-1140
-246
955
2384
3643
4326
4358
4035
3707
3516
3410
3305
3130
2776
2163
1388
699
217
-217
-879
-1819
-2752
-3320
-3435
-3266
-3011
-2746
-2470
-2180
-1861
-1424
-820
-227
30
-193
-708
-1156
-1309
-1263
-1269
-1485
-1869
-2262
-2520
-2591
-2524
-2439
-2415
-2409
-2314
-2086
-1774
-1446
-1093
-687
-323
-142
-156
-218
-217
-241
-522
-1155
-1968
-2679
-3123
-3302
-3312
-3226
-3060
-2765
-2314
-1729
-1056
-395
121
374
363
203
18
-192
-539
-1031
-1480
-1707
-1854
-2329
-3320
-4466
-5108
-4983
-4462
-4039
-3733
-3109
-1878
-330
945
1630
1788
1598
1125
434
-275
-754
-926
-881
-692
-327
180
609
745
599
356
131
-131
-508
-926
-1195
-1183
-910
-506
-136
24
-146
-580
-1047
-1322
-1394
-1426
-1522
-1612
-1590
-1465
-1347
-1323
-1400
-1606
-1995
-2559
-3190
-3775
-4296
-4748
-5032
-4993
-4589
-3934
-3143
-2191
-1018
242
1264
1795
1855
1636
1256
687
-51
-777
-1255
-1414
-1380
-1289
-1132
-853
-503
-249
-229
-427
-722
-1004
-1240
-1429
-1556
-1618
-1631
-1618
-1589
-1542
-1497
-1492
-1547
-1638
-1729
-1807
-1887
-1960
-1987
-1959
-1919
-1911
-1923
-1902
-1826
-1746
-1727
-1767
-1791
-1741
-1642
-1582
-1601
-1647
-1636
-1534
-1397
-1300
-1260
-1236
-1184
-1116
-1079
-1093
-1133
-1149
-1123
-1074
-1037
-1031
-1052
-1081
-1094
-1083
-1070
-1087
-1137
-1177
-1146
-1026
-867
-754
-728
-755
-770
-746
-717
-735
-817
-930
-1030
-1086
-1105
-1108
-1111
-1116
-1115
-1103
-1073
-1035
-1033
-1141
-1390
-1698
-1891
-1862
-1674
-1488
-1354
-1114
-587
172
854
1202
1254
1239
1259
1170
791
169
-444
-862
-1116
-1315
-1448
-1415
-1198
-947
-820
-820
-822
-753
-666
-674
-793
-934
-1008
-1008
-992
-1016
-1075
-1131
-1160
-1171
-1200
-1257
-1323
-1354
-1321
-1244
-1183
-1190
-1261
-1359
-1456
-1549
-1632
-1701
-1773
-1883
-2058
-2204
-2167
-1910
-1611
-1538
-1746
-1980
-1908
-1468
-921
-573
-488
-468
-337
-139
-61
-210
-510
-815
-1030
-1133
-1154
-1118
-1045
-940
-752
-454
-133
15
-148
-548
-927
-1105
-1146
-1266
-1535
-1744
-1650
-1271
-887
-748
-813
-858
-767
-647
-686
-918
-1184
-1285
-1160
-903
-666
-556
-590
-690
-715
-588
-374
-211
-227
-428
-712
-943
-1050
-1076
-1143
-1316
-1499
-1529
-1358
-1152
-1098
-1153
-1049
-623
-84
166
-4
-275
-211
250
737
860
585
183
-83
-137
-44
80
102
-70
-373
-584
-501
-172
107
111
-106
-288
-298
-234
-263
-404
-519
-491
-338
-155
21
220
448
639
712
665
581
525
477
380
229
92
28
31
35
-4
-66
-97
-48
91
258
337
228
-12
-171
-44
337
705
818
709
640
795
1084
1251
1169
964
855
935
1123
1278
1342
1348
1364
1415
1486
1557
1606
1612
1552
1440
1340
1323
1386
1449
1445
1419
1496
1731
1996
2088
1933
1685
1573
1675
1860
1947
1897
1803
1753
1746
1745
1748
1781
1849
1926
1965
1956
1912
1865
1848
1891
1990
2087
2109
2055
2002
2032
2129
2190
2122
1943
1769
1712
1772
1832
1744
1428
973
611
582
937
1454
1841
2046
2360
3080
4081
4823
4857
4334
3880
3930
4279
4319
3747
2905
2383
2368
2526
2464
2213
2112
2290
2435
2184
1618
1250
1462
2055
2450
2334
1980
1873
2139
2426
2359
1952
1536
1360
1374
1394
1352
1320
1342
1361
1317
1221
1111
995
874
795
833
998
1211
1382
1483
1536
1588
1669
1777
1845
1748
1427
1006
710
633
650
576
421
380
556
790
836
694
598
711
889
897
721
597
702
901
917
684
445
445
660
853
849
687
551
555
678
824
860
700
363
9
-142
-20
210
294
140
-113
-265
-264
-206
-181
-177
-130
-24
101
186
234
304
492
841
1227
1388
1128
592
223
361
879
1287
1269
1019
1004
1453
2089
2438
2296
1873
1509
1348
1321
1338
1434
1666
1951
2094
2023
1917
2027
2366
2655
2625
2325
2069
2079
2231
2241
2023
1764
1666
1728
1800
1791
1760
1793
1910
2069
2222
2342
2416
2452
2477
2465
2331
2023
1653
1440
1474
1648
1778
1773
1649
1448
1192
976
931
1041
1095
925
668
659
1017
1468
1665
1572
1431
1392
1360
1234
1145
1235
1377
1290
966
785
1035
1485
1628
1308
914
887
1208
1500
1555
1547
1722
2078
2417
2612
2671
2584
2292
1864
1548
1534
1692
1691
1401
1080
1076
1401
1695
1650
1359
1176
1293
1527
1576
1390
1180
1130
1172
1127
973
848
823
766
527
212
125
396
769
855
529
49
-244
-265
-190
-173
-180
-73
222
676
1250
1889
2470
2825
2897
2836
2820
2800
2502
1756
784
71
-92
106
225
64
-146
-63
350
793
963
873
738
667
571
331
2
-232
-294
-279
-336
-487
-620
-598
-360
7
242
7
-808
-1888
-2659
-2807
-2578
-2484
-2699
-2863
-2522
-1658
-697
-45
274
466
623
653
482
215
22
-39
-57
-113
-165
-118
66
291
406
333
118
-109
-224
-208
-137
-117
-194
-336
-473
-573
-666
-806
-994
-1160
-1215
-1162
-1089
-1081
-1145
-1226
-1276
-1317
-1393
-1494
-1578
-1628
-1678
-1766
-1887
-1995
-2046
-2042
-2028
-2049
-2093
-2098
-2014
-1870
-1750
-1718
-1731
-1692
-1560
-1400
-1289
-1231
-1176
-1113
-1085
-1106
-1119
-1063
-959
-891
-894
-899
-822
-664
-510
-416
-372
-334
-298
-289
-306
-308
-276
-229
-193
-171
-125
-35
83
191
266
300
300
282
259
243
250
295
372
459
515
524
521
562
658
745
743
656
570
571
647
717
712
649
607
642
732
795
770
690
621
587
551
481
415
404
431
408
319
281
402
610
722
694
710
950
1321
1544
1489
1324
1295
1393
1368
1058
594
250
157
219
268
230
164
175
344
645
936
1065
1010
927
986
1186
1364
1397
1343
1355
1512
1754
1964
2076
2118
2143
2182
2219
2214
2142
2021
1899
1815
1742
1629
1451
1243
1069
960
900
855
814
781
733
641
521
449
491
604
646
508
246
56
53
135
86
-177
-486
-594
-424
-110
165
370
620
1007
1477
1877
2101
2155
2098
1946
1663
1232
726
278
-41
-291
-572
-893
-1139
-1210
-1172
-1213
-1450
-1797
-2046
-2119
-2131
-2233
-2426
-2572
-2580
-2529
-2546
-2633
-2689
-2684
-2727
-2900
-3103
-3159
-3042
-2935
-3012
-3230
-3394
-3420
-3436
-3601
-3903
-4181
-4332
-4406
-4496
-4602
-4649
-4616
-4568
-4559
-4552
-4478
-4341
-4244
-4259
-4336
-4344
-4218
-4022
-3883
-3853
-3851
-3773
-3614
-3477
-3450
-3516
-3588
-3600
-3569
-3543
-3543
-3559
-3580
-3612
-3649
-3662
-3631
-3570
-3525
-3525
-3563
-3608
-3631
-3623
-3597
-3583
-3598
-3630
-3642
-3611
-3564
-3550
-3568
-3556
-3468
-3349
-3284
-3275
-3225
-3075
-2907
-2848
-2898
-2907
-2786
-2658
-2744
-3091
-3502
-3744
-3790
-3801
-3882
-3943
-3806
-3413
-2865
-2308
-1818
-1404
-1083
-889
-835
-885
-978
-1083
-1210
-1370
-1535
-1648
-1661
-1587
-1500
-1474
-1518
-1587
-1650
-1721
-1826
-1945
-2016
-2012
-1970
-1950
-1968
-1980
-1937
-1846
-1753
-1691
-1651
-1601
-1529
-1453
-1402
-1387
-1401
-1432
-1469
-1501
-1523
-1545
-1582
-1632
-1679
-1707
-1716
-1709
-1681
-1629
-1573
-1537
-1524
-1496
-1432
-1361
-1344
-1411
-1530
-1646
-1741
-1836
-1942
-2036
-2085
-2097
-2098
-2095
-2060
-1975
-1871
-1800
-1781
-1783
-1767
-1735
-1716
-1724
-1732
-1708
-1650
-1584
-1536
-1507
-1480
-1442
-1403
-1378
-1372
-1380
-1395
-1420
-1455
-1486
-1503
-1519
-1561
-1631
-1687
-1676
-1604
-1540
-1552
-1634
-1716
-1745
-1742
-1774
-1876
-2012
-2108
-2122
-2082
-2044
-2044
-2085
-2148
-2213
-2274
-2368
-2545
-2816
-3093
-3231
-3149
-2906
-2626
-2357
-2018
-1517
-899
-350
-38
15
-87
-246
-454
-749
-1146
-1601
-2034
-2373
-2579
-2671
-2702
-2721
-2731
-2718
-2689
-2677
-2695
-2724
-2738
-2751
-2796
-2861
-2886
-2837
-2775
-2798
-2925
-3059
-3088
-3014
-2942
-2954
-3009
-3001
-2886
-2744
-2673
-2677
-2659
-2560
-2444
-2427
-2528
-2640
-2648
-2555
-2468
-2446
-2426
-2316
-2133
-1997
-1972
-1974
-1879
-1697
-1571
-1581
-1619
-1523
-1320
-1245
-1487
-1955
-2364
-2531
-2535
-2556
-2622
-2580
-2286
-1778
-1223
-753
-386
-86
144
260
238
105
-72
-231
-349
-443
-536
-625
-663
-628
-586
-680
-996
-1452
-1867
-2131
-2287
-2410
-2466
-2340
-2021
-1664
-1435
-1326
-1210
-1075
-1101
-1456
-2040
-2539
-2720
-2621
-2425
-2205
-1868
-1320
-633
12
462
650
582
323
-19
-327
-563
-755
-894
-905
-744
-531
-492
-731
-1129
-1478
-1704
-1878
-2051
-2139
-2032
-1773
-1558
-1529
-1639
-1741
-1772
-1799
-1868
-1883
-1675
-1178
-501
166
699
1084
1329
1419
1331
1084
750
423
164
-9
-92
-83
15
169
312
374
319
151
-78
-295
-439
-499
-509
-501
-478
-456
-486
-615
-810
-961
-1003
-1009
-1146
-1512
-2031
-2521
-2830
-2920
-2839
-2665
-2455
-2215
-1887
-1411
-816
-266
57
111
23
-24
45
185
315
393
428
429
391
312
214
110
-15
-201
-443
-671
-801
-790
-677
-537
-426
-369
-396
-541
-788
-1035
-1182
-1249
-1368
-1625
-1941
-2133
-2106
-1941
-1787
-1689
-1551
-1273
-873
-478
-202
-76
-68
-143
-281
-448
-584
-646
-663
-697
-771
-855
-927
-999
-1110
-1248
-1336
-1304
-1154
-940
-688
-370
37
484
878
1147
1272
1245
1055
738
412
216
171
144
-3
-236
-364
-228
115
433
549
499
479
631
924
1222
1417
1509
1541
1521
1419
1234
1040
934
936
977
982
952
972
1107
1333
1532
1596
1509
1340
1184
1103
1104
1165
1251
1317
1347
1360
1427
1569
1709
1734
1606
1418
1312
1331
1382
1353
1257
1188
1198
1240
1238
1180
1102
1011
892
756
648
570
436
168
-186
-487
-633
-678
-751
-899
-1054
-1107
-1029
-903
-840
-909
-1085
-1271
-1386
-1456
-1614
-1945
-2343
-2584
-2557
-2406
-2379
-2552
-2742
-2750
-2611
-2544
-2681
-2914
-3067
-3114
-3197
-3410
-3660
-3785
-3743
-3654
-3631
-3640
-3569
-3396
-3224
-3146
-3130
-3071
-2919
-2748
-2649
-2610
-2544
-2396
-2204
-2042
-1941
-1890
-1871
-1877
-1846
-1689
-1393
-1076
-882
-821
-746
-537
-246
-42
-15
-82
-99
-30
50
91
129
245
440
630
732
723
642
547
490
490
531
565
559
546
611
793
1037
1229
1308
1300
1269
1233
1185
1137
1118
1127
1119
1068
1036
1111
1301
1505
1610
1608
1584
1611
1667
1688
1655
1599
1563
1548
1535
1525
1544
1604
1674
1715
1718
1714
1738
1783
1808
1790
1753
1746
1776
1784
1713
1586
1487
1475
1506
1490
1407
1338
1364
1468
1549
1542
1502
1515
1594
1661
1665
1644
1674
1756
1811
1784
1724
1721
1785
1839
1810
1725
1678
1709
1763
1756
1664
1532
1419
1357
1339
1340
1320
1261
1188
1169
1255
1384
1391
1156
753
407
290
341
361
283
302
671
1391
2154
2632
2789
2854
3006
3156
3066
2648
2077
1613
1364
1236
1103
964
898
946
1038
1074
1037
988
975
974
931
845
764
728
722
692
616
522
446
391
353
342
362
396
409
377
308
213
86
-59
-172
-217
-231
-296
-426
-514
-442
-247
-122
-216
-454
-617
-589
-485
-503
-677
-839
-824
-653
-503
-495
-592
-673
-670
-629
-639
-754
-925
-1027
-970
-808
-722
-828
-1039
-1152
-1076
-954
-995
-1217
-1429
-1452
-1308
-1147
-1056
-996
-931
-896
-920
-942
-882
-792
-829
-1062
-1349
-1476
-1417
-1354
-1421
-1536
-1514
-1312
-1082
-974
-951
-867
-660
-427
-305
-326
-407
-415
-276
-25
210
289
202
104
148
314
418
343
177
102
184
318
423
531
683
810
794
652
537
545
585
507
334
235
281
351
324
270
326
444
394
57
-342
-417
-69
370
460
92
-387
-533
-246
155
258
-24
-383
-428
-91
285
275
-192
-755
-1001
-904
-826
-1096
-1598
-1898
-1746
-1359
-1130
-1134
-1068
-689
-182
12
-272
-708
-850
-589
-188
60
137
190
290
395
477
582
709
733
534
164
-143
-193
12
286
460
504
504
581
804
1127
1408
1512
1424
1280
1251
1360
1466
1443
1356
1432
1760
2115
2134
1744
1264
1066
1189
1348
1305
1089
855
679
547
534
776
1205
1501
1387
960
606
588
795
919
831
641
474
334
192
95
121
232
267
115
-175
-439
-551
-504
-357
-192
-65
59
340
907
1652
2252
2475
2411
2345
2382
2329
1977
1418
959
723
517
150
-241
-326
-29
313
318
15
-213
-117
129
160
-136
-497
-630
-532
-434
-484
-579
-528
-303
-69
10
-60
-146
-136
-58
-33
-150
-365
-538
-565
-458
-322
-258
-274
-295
-266
-223
-256
-407
-619
-774
-784
-641
-410
-190
-61
-46
-84
-83
10
151
240
211
111
48
104
252
390
434
391
316
241
155
50
-32
-47
-21
-36
-146
-304
-402
-394
-345
-351
-439
-554
-632
-667
-689
-711
-714
-678
-622
-574
-563
-595
-659
-724
-742
-679
-570
-499
-525
-612
-665
-621
-508
-408
-374
-390
-399
-343
-214
-64
30
33
8
47
179
336
422
426
425
483
564
586
532
488
542
693
853
922
888
821
819
920
1052
1095
988
818
749
866
1073
1185
1131
1008
958
1007
1043
997
929
938
1007
1018
923
844
922
1123
1245
1157
981
949
1125
1307
1267
1023
804
775
855
846
678
472
368
379
425
463
501
527
487
374
287
332
501
671
751
790
885
1045
1180
1217
1174
1101
1022
965
958
1017
1094
1152
1274
1649
2357
3248
4049
4604
4966
5237
5369
5210
4699
3940
3099
2284
1546
971
660
657
879
1197
1536
1872
2165
2352
2394
2309
2153
1932
1613
1226
931
901
1128
1389
1446
1284
1112
1077
1036
704
16
-757
-1293
-1569
-1850
-2291
-2697
-2743
-2381
-1911
-1620
-1453
-1130
-566
-47
115
-21
-73
225
727
1048
1013
809
683
645
503
124
-422
-978
-1470
-1913
-2296
-2544
-2619
-2582
-2535
-2524
-2530
-2525
-2510
-2502
-2503
-2502
-2507
-2533
-2577
-2632
-2690
-2736
-2765
-2785
-2825
-2914
-3036
-3132
-3158
-3139
-3129
-3160
-3217
-3276
-3339
-3420
-3518
-3624
-3742
-3885
-4043
-4181
-4265
-4299
-4305
-4280
-4205
-4085
-3962
-3866
-3778
-3659
-3515
-3397
-3337
-3302
-3232
-3118
-3026
-3008
-3042
-3057
-3013
-2937
-2871
-2819
-2751
-2661
-2580
-2535
-2509
-2465
-2403
-2373
-2425
-2547
-2681
-2771
-2805
-2818
-2855
-2930
-3015
-3062
-3038
-2967
-2905
-2905
-2969
-3059
-3136
-3191
-3234
-3281
-3342
-3418
-3491
-3520
-3482
-3395
-3317
-3298
-3332
-3375
-3393
-3391
-3404
-3467
-3588
-3727
-3797
-3702
-3420
-3023
-2634
-2314
-2027
-1702
-1331
-998
-806
-783
-873
-998
-1101
-1158
-1165
-1139
-1120
-1148
-1223
-1289
-1300
-1277
-1294
-1397
-1544
-1651
-1674
-1647
-1623
-1624
-1633
-1647
-1685
-1764
-1863
-1941
-1972
-1956
-1905
-1813
-1669
-1471
-1250
-1056
-909
-791
-668
-535
-433
-400
-428
-477
-520
-567
-642
-739
-836
-924
-1017
-1131
-1254
-1366
-1465
-1561
-1663
-1763
-1851
-1926
-1985
-2024
-2044
-2052
-2063
-2079
-2097
-2111
-2121
-2131
-2152
-2199
-2267
-2333
-2366
-2360
-2337
-2318
-2292
-2237
-2158
-2090
-2052
-2024
-1984
-1941
-1928
-1962
-2007
-2022
-1994
-1946
-1905
-1874
-1840
-1794
-1744
-1701
-1681
-1696
-1743
-1812
-1887
-1953
-1999
-2023
-2030
-2045
-2090
-2154
-2193
-2169
-2110
-2098
-2191
-2363
-2521
-2611
-2665
-2762
-2954
-3205
-3445
-3601
-3628
-3527
-3326
-3087
-2829
-2488
-1980
-1391
-1032
-1213
-1920
-2754
-3310
-3610
-4072
-5007
-6191
-7004
-6999
-6277
-5296
-4396
-3563
-2618
-1519
-426
453
1002
1207
1098
740
252
-232
-616
-889
-1084
-1236
-1363
-1456
-1507
-1500
-1430
-1335
-1287
-1338
-1475
-1625
-1705
-1677
-1571
-1453
-1372
-1344
-1370
-1441
-1539
-1637
-1710
-1743
-1738
-1703
-1654
-1611
-1602
-1654
-1735
-1774
-1741
-1703
-1746
-1853
-1914
-1879
-1840
-1890
-1941
-1817
-1574
-1616
-2325
-3578
-4764
-5359
-5412
-5357
-5401
-5265
-4568
-3324
-1943
-796
54
687
1058
1019
576
-12
-449
-645
-724
-820
-914
-900
-721
-433
-175
-84
-217
-521
-874
-1166
-1347
-1419
-1416
-1382
-1370
-1424
-1542
-1674
-1758
-1772
-1738
-1685
-1630
-1565
-1494
-1438
-1430
-1483
-1576
-1643
-1618
-1520
-1438
-1427
-1437
-1393
-1334
-1409
-1662
-1914
-1946
-1824
-1904
-2443
-3260
-3867
-3963
-3691
-3378
-3120
-2720
-1996
-1033
-78
714
1336
1785
1983
1882
1591
1307
1138
1039
918
765
660
665
744
814
814
743
632
497
328
144
-3
-74
-94
-129
-200
-246
-211
-135
-134
-254
-400
-448
-403
-426
-652
-1038
-1410
-1647
-1775
-1876
-1960
-1968
-1870
-1714
-1563
-1426
-1281
-1151
-1090
-1105
-1126
-1071
-944
-818
-738
-673
-564
-404
-241
-124
-41
49
165
292
409
505
578
624
643
654
674
699
716
725
736
765
821
914
1054
1227
1386
1488
1565
1689
1896
2116
2232
2213
2168
2248
2494
2807
3047
3171
3253
3381
3564
3733
3827
3843
3815
3778
3736
3669
3536
3324
3089
2954
3012
3220
3436
3587
3755
4096
4644
5232
5629
5740
5642
5438
5162
4806
4392
3977
3578
3160
2725
2378
2242
2328
2509
2626
2629
2606
2640
2710
2742
2703
2649
2659
2705
2665
2457
2145
1892
1805
1825
1791
1601
1317
1094
1032
1087
1134
1099
1018
976
984
968
860
696
576
541
519
408
203
-2
-121
-154
-173
-260
-437
-674
-925
-1126
-1233
-1269
-1294
-1351
-1439
-1535
-1633
-1746
-1868
-1955
-1969
-1934
-1919
-1977
-2093
-2198
-2225
-2164
-2078
-2054
-2130
-2242
-2275
-2172
-1997
-1856
-1774
-1668
-1456
-1162
-908
-777
-735
-686
-585
-455
-341
-241
-132
-9
106
194
277
373
464
511
498
478
539
703
882
954
904
852
931
1133
1320
1399
1437
1563
1800
2025
2129
2146
2206
2354
2487
2492
2385
2299
2332
2464
2608
2721
2814
2909
3002
3086
3171
3239
3229
3091
2856
2630
2473
2337
2141
1894
1711
1700
1847
2033
2174
2297
2495
2795
3121
3359
3474
3521
3586
3676
3712
3611
3388
3157
3005
2900
2726
2437
2096
1814
1617
1436
1214
967
759
635
590
593
597
551
428
286
222
284
412
486
460
410
425
466
409
209
-2
-65
6
-1
-233
-561
-689
-501
-214
-131
-297
-446
-332
0
269
267
66
-95
-73
80
220
280
286
258
173
15
-148
-206
-127
-10
33
14
37
187
409
559
545
411
290
286
402
509
455
225
-25
-97
38
185
129
-134
-407
-514
-469
-420
-494
-655
-726
-546
-126
344
656
830
1136
1766
2512
2906
2729
2298
2109
2250
2289
1816
966
279
108
292
445
382
243
205
245
239
141
-4
-155
-301
-401
-398
-342
-388
-622
-873
-864
-565
-294
-374
-762
-1048
-902
-438
-65
-60
-373
-767
-1076
-1247
-1270
-1183
-1110
-1174
-1323
-1313
-969
-440
-72
-21
-69
113
523
840
832
681
759
1123
1407
1264
808
505
629
924
941
608
336
526
1101
1613
1746
1598
1455
1441
1439
1326
1137
1006
999
1088
1222
1368
1484
1503
1372
1129
874
698
583
456
281
150
190
397
635
767
796
837
942
1009
914
705
567
600
719
750
630
452
351
388
531
679
711
573
383
378
692
1148
1417
1336
1060
889
964
1194
1432
1595
1623
1488
1268
1183
1409
1802
2001
1810
1426
1263
1475
1804
1865
1579
1278
1322
1672
1923
1755
1294
971
1031
1251
1229
884
558
591
878
1016
803
480
404
574
663
465
151
21
133
270
272
224
274
396
423
286
134
106
137
39
-214
-410
-340
-64
154
124
-68
-161
-19
229
337
207
-10
-72
114
404
541
396
83
-158
-196
-125
-136
-301
-502
-565
-456
-288
-167
-108
-81
-107
-213
-355
-413
-321
-175
-149
-297
-480
-501
-326
-111
-48
-182
-375
-457
-372
-213
-104
-92
-134
-176
-203
-226
-246
-248
-246
-278
-361
-456
-489
-431
-326
-254
-258
-317
-387
-469
-603
-799
-980
-1024
-874
-597
-302
-7
384
940
1583
2126
2440
2542
2511
2360
2043
1569
1049
609
277
3
-238
-395
-424
-370
-337
-387
-475
-535
-564
-626
-746
-867
-901
-840
-760
-741
-771
-775
-718
-654
-669
-782
-935
-1068
-1163
-1232
-1275
-1285
-1260
-1200
-1097
-945
-784
-679
-652
-656
-636
-611
-660
-812
-998
-1123
-1159
-1151
-1142
-1118
-1056
-985
-952
-957
-946
-897
-864
-919
-1047
-1151
-1169
-1143
-1177
-1316
-1495
-1617
-1656
-1664
-1701
-1781
-1878
-1967
-2043
-2111
-2171
-2220
-2247
-2248
-2226
-2203
-2208
-2237
-2257
-2239
-2197
-2179
-2210
-2261
-2284
-2261
-2199
-2120
-2053
-2013
-1978
-1894
-1735
-1558
-1463
-1472
-1481
-1387
-1234
-1172
-1266
-1366
-1268
-988
-769
-783
-895
-845
-631
-597
-1024
-1730
-2234
-2320
-2336
-2797
-3764
-4732
-5161
-4984
-4537
-4067
-3467
-2492
-1114
455
1982
3342
4466
5247
5578
5461
5030
4439
3812
3253
2841
2596
2447
2320
2220
2184
2191
2127
1902
1527
1099
698
346
61
-87
-39
131
239
147
-105
-387
-627
-854
-1101
-1316
-1440
-1518
-1660
-1856
-1953
-1856
-1684
-1659
-1863
-2133
-2236
-2136
-2006
-2023
-2176
-2298
-2275
-2174
-2162
-2324
-2573
-2767
-2889
-3065
-3367
-3680
-3823
-3786
-3764
-3916
-4137
-4172
-3931
-3605
-3454
-3512
-3616
-3625
-3587
-3624
-3781
-3998
-4203
-4390
-4618
-4920
-5238
-5479
-5597
-5648
-5731
-5856
-5924
-5868
-5799
-5921
-6275
-6645
-6762
-6605
-6387
-6262
-6140
-5822
-5269
-4660
-4195
-3915
-3733
-3600
-3580
-3758
-4108
-4477
-4688
-4668
-4480
-4245
-4007
-3679
-3147
-2416
-1673
-1173
-1020
-1076
-1128
-1111
-1140
-1348
-1695
-1993
-2148
-2283
-2578
-3027
-3430
-3626
-3701
-3866
-4172
-4451
-4552
-4515
-4452
-4308
-3870
-3044
-2038
-1190
-621
-160
380
935
1244
1138
701
167
-300
-692
-1057
-1369
-1540
-1523
-1371
-1218
-1178
-1240
-1328
-1381
-1414
-1502
-1701
-1984
-2244
-2365
-2313
-2198
-2220
-2489
-2914
-3260
-3357
-3265
-3202
-3314
-3525
-3660
-3659
-3617
-3662
-3817
-3998
-4149
-4278
-4401
-4487
-4463
-4284
-3950
-3504
-3033
-2673
-2518
-2514
-2491
-2367
-2301
-2570
-3251
-4078
-4681
-4940
-5058
-5262
-5537
-5688
-5600
-5351
-5054
-4701
-4231
-3699
-3284
-3092
-3004
-2807
-2415
-1991
-1806
-1953
-2254
-2393
-2227
-1930
-1805
-1932
-2075
-1968
-1663
-1469
-1555
-1710
-1670
-1552
-1791
-2567
-3493
-4025
-4101
-4128
-4330
-4330
-3580
-2098
-544
494
1092
1752
2666
3343
3504
2864
1990
1371
1080
879
566
205
-14
-16
81
111
10
-145
-264
-360
-515
-706
-799
-680
-420
-236
-269
-455
-646
-809
-1034
-1341
-1595
-1662
-1592
-1559
-1646
-1765
-1814
-1853
-1999
-2241
-2405
-2370
-2226
-2157
-2199
-2184
-1942
-1504
-1066
-793
-717
-757
-824
-884
-957
-1095
-1355
-1710
-2013
-2106
-1957
-1717
-1572
-1580
-1627
-1577
-1453
-1401
-1512
-1705
-1807
-1752
-1640
-1621
-1719
-1825
-1845
-1808
-1823
-1934
-2070
-2139
-2112
-2028
-1931
-1838
-1773
-1757
-1790
-1821
-1796
-1724
-1687
-1758
-1908
-2011
-1958
-1783
-1628
-1612
-1705
-1772
-1746
-1690
-1683
-1705
-1682
-1618
-1613
-1707
-1769
-1637
-1330
-1032
-855
-679
-294
324
951
1325
1364
1213
1050
930
771
482
92
-244
-399
-431
-528
-772
-1024
-1092
-1046
-1203
-1762
-2494
-2936
-2862
-2474
-2091
-1749
-1229
-425
464
1145
1529
1749
1914
1973
1831
1526
1223
1042
966
922
888
895
948
985
940
819
688
588
503
403
294
207
158
127
105
103
116
79
-82
-355
-620
-761
-782
-783
-851
-968
-1060
-1066
-1004
-959
-994
-1092
-1172
-1184
-1184
-1266
-1437
-1580
-1616
-1616
-1706
-1853
-1832
-1482
-953
-602
-616
-834
-981
-1005
-1109
-1475
-2035
-2564
-2917
-3120
-3239
-3274
-3196
-3033
-2870
-2757
-2668
-2562
-2445
-2364
-2344
-2369
-2403
-2401
-2341
-2237
-2128
-2039
-1967
-1910
-1912
-2039
-2291
-2552
-2657
-2542
-2297
-2061
-1875
-1648
-1285
-820
-389
-113
0
18
3
-35
-114
-235
-363
-442
-430
-317
-134
58
208
307
368
397
384
334
277
251
269
309
353
394
436
475
489
464
414
362
320
283
239
186
117
21
-105
-233
-310
-312
-277
-264
-288
-309
-274
-179
-79
-24
-13
-11
17
77
160
241
295
312
313
347
442
569
676
733
769
825
921
1034
1137
1215
1268
1302
1330
1374
1443
1521
1590
1669
1792
1968
2146
2254
2287
2290
2296
2281
2207
2087
2000
2024
2156
2329
2490
2629
2763
2879
2934
2909
2826
2736
2689
2692
2717
2732
2734
2746
2791
2845
2845
2727
2488
2194
1956
1842
1827
1816
1730
1598
1550
1688
1970
2236
2384
2473
2657
3009
3434
3774
3942
3959
3874
3701
3446
3140
2833
2549
2296
2096
1972
1928
1940
1988
2062
2120
2083
1904
1653
1473
1440
1469
1402
1183
897
658
478
279
29
-211
-358
-414
-448
-504
-556
-559
-536
-555
-662
-823
-969
-1079
-1170
-1248
-1263
-1169
-995
-811
-676
-596
-565
-613
-754
-919
-965
-825
-602
-462
-453
-436
-256
76
386
513
460
356
301
301
326
370
421
418
291
73
-82
-36
185
397
442
332
227
278
500
786
1024
1194
1368
1622
1961
2306
2554
2668
2683
2653
2578
2437
2250
2105
2074
2132
2187
2216
2302
2522
2824
3043
3077
2997
2943
2949
2930
2841
2780
2886
3147
3369
3377
3219
3102
3166
3321
3353
3178
2946
2867
3003
3224
3360
3372
3344
3330
3295
3182
3033
2952
2973
3012
2973
2873
2827
2894
2987
2964
2798
2591
2455
2397
2341
2241
2131
2060
2016
1944
1821
1686
1597
1547
1450
1222
902
628
511
517
493
345
128
-36
-103
-143
-221
-315
-375
-410
-486
-622
-747
-800
-835
-962
-1202
-1430
-1510
-1437
-1322
-1254
-1214
-1125
-963
-789
-666
-600
-566
-548
-543
-541
-518
-466
-434
-462
-504
-447
-241
27
202
237
238
317
439
461
328
166
122
153
66
-197
-433
-374
-34
273
271
32
-126
-20
184
209
5
-224
-314
-341
-487
-753
-921
-836
-648
-643
-897
-1190
-1296
-1263
-1347
-1647
-1942
-1953
-1676
-1337
-1055
-681
-30
805
1500
1829
1862
1805
1728
1522
1105
578
125
-172
-390
-605
-770
-781
-648
-539
-621
-850
-1003
-929
-719
-612
-687
-774
-690
-492
-418
-568
-781
-868
-877
-990
-1227
-1372
-1269
-1053
-986
-1110
-1209
-1130
-971
-912
-940
-904
-794
-790
-976
-1138
-1000
-594
-278
-324
-612
-777
-634
-364
-260
-413
-658
-824
-888
-921
-953
-950
-885
-765
-610
-428
-252
-124
-53
5
95
168
146
31
-81
-113
-119
-208
-377
-505
-497
-403
-346
-345
-332
-264
-188
-151
-162
-197
-233
-243
-183
-61
32
-10
-150
-242
-233
-261
-458
-715
-772
-547
-253
-137
-174
-143
69
298
329
159
-29
-91
-27
80
180
285
419
619
892
1190
1409
1459
1364
1249
1213
1264
1337
1392
1446
1535
1691
1897
2085
2179
2164
2111
2109
2164
2205
2158
2036
1912
1849
1857
1897
1908
1836
1681
1541
1527
1603
1577
1307
919
718
850
1129
1235
1075
841
730
730
702
611
545
549
575
586
631
738
813
737
554
453
532
625
502
161
-143
-184
1
170
159
38
1
159
418
591
564
397
250
229
265
201
-4
-194
-180
47
288
363
315
340
539
786
882
762
530
310
149
64
104
287
508
568
372
28
-279
-505
-756
-1089
-1381
-1425
-1162
-729
-294
108
545
1026
1425
1600
1539
1359
1183
1046
904
740
609
581
635
659
550
335
163
163
312
488
629
834
1257
1912
2602
3075
3234
3177
3047
2884
2629
2239
1775
1350
1035
821
663
531
440
413
448
504
529
509
483
508
601
709
768
759
722
697
699
717
746
787
831
857
865
879
925
1001
1063
1070
1023
962
930
941
981
1014
1018
985
923
856
816
815
839
862
876
889
914
948
976
998
1015
1000
911
736
540
414
388
395
340
216
114
115
186
214
125
-42
-187
-260
-297
-359
-460
-559
-618
-642
-667
-711
-772
-839
-920
-1026
-1153
-1282
-1391
-1479
-1567
-1671
-1785
-1881
-1929
-1930
-1922
-1955
-2042
-2139
-2180
-2149
-2107
-2141
-2260
-2379
-2400
-2308
-2180
-2100
-2068
-2013
-1887
-1714
-1559
-1452
-1372
-1280
-1169
-1057
-953
-853
-758
-679
-571
-429
-319
-287
-276
-173
6
76
-59
-206
-88
253
432
255
128
670
1908
3088
3455
3089
2713
2743
2759
2077
638
-915
-1975
-2552
-3031
-3545
-3838
-3673
-3175
-2686
-2361
-2072
-1649
-1167
-818
-681
-655
-581
-443
-349
-370
-435
-426
-332
-285
-387
-571
-661
-563
-349
-157
-61
-49
-88
-172
-293
-410
-477
-482
-453
-420
-388
-346
-276
-185
-101
-55
-46
-39
18
141
285
383
401
360
340
404
523
584
518
396
371
472
552
482
361
466
952
1670
2313
2692
2787
2612
2167
1555
1012
697
469
37
-661
-1313
-1564
-1404
-1178
-1231
-1604
-2089
-2486
-2749
-2930
-3100
-3276
-3413
-3422
-3247
-2934
-2578
-2208
-1765
-1234
-750
-519
-586
-776
-895
-931
-1046
-1373
-1866
-2371
-2784
-3104
-3338
-3462
-3448
-3345
-3280
-3372
-3630
-3924
-4081
-4015
-3800
-3577
-3393
-3162
-2826
-2527
-2539
-2966
-3578
-4014
-4144
-4156
-4247
-4320
-4071
-3384
-2489
-1733
-1255
-938
-649
-414
-338
-427
-567
-647
-645
-594
-509
-399
-299
-253
-262
-287
-312
-365
-475
-614
-710
-713
-641
-549
-487
-476
-529
-645
-781
-866
-848
-764
-705
-722
-780
-813
-804
-807
-867
-971
-1061
-1107
-1140
-1208
-1318
-1433
-1527
-1608
-1708
-1837
-1968
-2053
-2068
-2042
-2037
-2092
-2193
-2273
-2288
-2270
-2313
-2478
-2718
-2910
-2976
-2957
-2961
-3036
-3112
-3083
-2940
-2786
-2711
-2681
-2583
-2382
-2174
-2081
-2093
-2076
-1934
-1726
-1594
-1584
-1595
-1504
-1306
-1116
-1033
-1038
-1032
-957
-852
-791
-805
-852
-869
-837
-784
-749
-736
-725
-707
-696
-714
-759
-810
-856
-901
-958
-1029
-1096
-1140
-1156
-1154
-1153
-1168
-1200
-1238
-1272
-1312
-1373
-1453
-1519
-1538
-1533
-1593
-1793
-2100
-2376
-2501
-2489
-2456
-2472
-2476
-2354
-2080
-1759
-1513
-1365
-1258
-1166
-1128
-1180
-1292
-1388
-1439
-1476
-1531
-1572
-1542
-1444
-1354
-1363
-1469
-1577
-1632
-1682
-1803
-1974
-2070
-2025
-1933
-1911
-1891
-1675
-1261
-1013
-1343
-2207
-3070
-3442
-3370
-3289
-3416
-3457
-2971
-1901
-615
501
1327
1910
2235
2228
1925
1494
1072
662
247
-124
-351
-388
-292
-163
-79
-91
-198
-378
-631
-965
-1302
-1442
-1238
-864
-782
-1326
-2305
-3135
-3399
-3187
-2827
-2412
-1724
-611
724
1908
2744
3269
3507
3328
2650
1682
826
342
144
-15
-223
-318
-133
272
631
699
454
82
-238
-492
-768
-1084
-1319
-1328
-1111
-836
-701
-783
-1020
-1292
-1513
-1677
-1829
-2017
-2257
-2505
-2671
-2673
-2476
-2105
-1612
-1033
-400
241
799
1165
1276
1159
908
634
397
202
47
-44
-50
12
98
161
183
172
135
73
-7
-90
-158
-187
-164
-102
-53
-67
-140
-211
-226
-208
-229
-325
-450
-534
-579
-649
-801
-1015
-1223
-1391
-1551
-1744
-1978
-2219
-2423
-2573
-2664
-2675
-2586
-2402
-2164
-1918
-1680
-1440
-1200
-1000
-888
-880
-930
-972
-978
-971
-979
-986
-940
-820
-664
-535
-463
-432
-413
-413
-467
-565
-644
-656
-635
-661
-768
-892
-939
-896
-832
-793
-721
-515
-162
215
457
510
463
438
468
467
339
92
-176
-377
-507
-625
-747
-830
-843
-819
-826
-876
-899
-845
-742
-669
-658
-662
-623
-547
-494
-500
-549
-614
-708
-849
-1027
-1197
-1327
-1420
-1502
-1588
-1673
-1749
-1792
-1785
-1750
-1755
-1850
-1992
-2080
-2073
-2056
-2132
-2274
-2339
-2258
-2149
-2186
-2368
-2513
-2475
-2305
-2151
-2041
-1862
-1535
-1140
-813
-575
-345
-81
141
249
269
287
333
360
331
265
195
125
62
59
135
189
68
-246
-589
-771
-772
-720
-700
-654
-502
-304
-215
-277
-349
-310
-239
-331
-619
-859
-758
-292
281
752
1156
1649
2242
2762
3081
3274
3484
3687
3691
3406
2999
2723
2616
2483
2173
1773
1484
1360
1245
1002
722
628
822
1153
1371
1387
1300
1239
1241
1241
1175
1045
898
782
727
741
794
838
833
797
809
926
1097
1203
1180
1090
1049
1092
1143
1102
980
881
899
1021
1144
1179
1110
973
821
704
656
671
685
642
547
447
380
342
327
366
464
541
480
254
-4
-124
-109
-122
-297
-573
-770
-786
-696
-652
-736
-930
-1184
-1457
-1712
-1922
-2103
-2298
-2504
-2625
-2560
-2318
-2029
-1831
-1740
-1683
-1615
-1576
-1640
-1828
-2069
-2263
-2347
-2330
-2258
-2173
-2092
-2030
-2006
-2009
-1973
-1816
-1536
-1247
-1077
-1024
-941
-686
-282
102
308
314
217
129
108
158
238
287
264
187
141
184
285
363
373
341
309
290
282
305
383
498
601
654
655
606
502
352
213
148
153
158
115
58
66
160
269
307
256
159
55
-39
-113
-139
-105
-49
-14
-4
24
88
135
101
-8
-110
-141
-128
-135
-173
-183
-117
-10
67
91
104
129
140
106
57
67
148
241
285
296
327
385
412
369
307
304
378
455
446
337
196
116
131
197
227
185
109
67
79
102
92
66
72
108
122
89
55
75
146
204
201
159
122
100
62
-5
-82
-141
-165
-165
-173
-253
-448
-696
-826
-694
-337
50
335
593
1022
1673
2334
2723
2749
2566
2367
2169
1848
1341
783
396
266
261
184
-12
-193
-206
-71
18
-105
-392
-619
-584
-304
0
101
-46
-300
-485
-533
-487
-438
-459
-556
-667
-678
-529
-303
-191
-319
-591
-771
-751
-693
-828
-1143
-1351
-1214
-859
-647
-757
-982
-994
-754
-576
-743
-1161
-1457
-1390
-1102
-926
-1000
-1123
-1025
-713
-483
-608
-1024
-1382
-1415
-1218
-1071
-1090
-1145
-1076
-914
-808
-791
-759
-705
-784
-1105
-1488
-1607
-1413
-1189
-1186
-1294
-1179
-753
-311
-180
-358
-594
-723
-818
-964
-1084
-1046
-860
-689
-614
-533
-302
50
314
314
114
-34
67
386
680
696
395
23
-101
136
475
531
173
-300
-416
-14
591
933
861
667
728
1097
1465
1524
1276
973
785
651
456
259
276
602
1035
1271
1207
1065
1129
1423
1713
1775
1589
1297
1029
869
876
1067
1348
1531
1521
1459
1558
1820
2001
1906
1638
1478
1527
1600
1503
1296
1237
1449
1748
1855
1722
1571
1615
1792
1883
1812
1740
1833
2022
2089
1986
1918
2076
2351
2428
2144
1728
1578
1834
2221
2359
2146
1833
1740
1939
2215
2312
2189
1988
1858
1822
1803
1778
1814
1955
2130
2205
2119
1956
1892
2045
2325
2490
2355
1965
1561
1368
1377
1386
1236
933
588
297
117
117
306
505
424
-18
-524
-694
-478
-233
-282
-540
-661
-500
-267
-185
-165
59
535
997
1216
1312
1624
2256
2910
3220
3134
2908
2760
2629
2298
1713
1072
617
416
340
240
101
18
59
180
263
220
73
-74
-124
-73
2
22
-25
-85
-101
-67
-37
-50
-88
-90
-38
0
-70
-257
-480
-658
-787
-911
-1029
-1083
-1035
-914
-753
-527
-184
246
650
947
1170
1405
1645
1799
1822
1783
1770
1760
1655
1431
1191
1048
995
933
799
628
463
293
91
-114
-246
-286
-293
-327
-349
-261
-26
266
469
510
435
340
248
106
-123
-388
-575
-632
-617
-624
-675
-711
-686
-641
-662
-769
-886
-929
-902
-867
-859
-847
-785
-679
-581
-537
-537
-540
-510
-451
-394
-361
-346
-318
-264
-203
-174
-178
-181
-143
-71
-15
-4
-20
-10
52
134
173
148
105
111
175
237
234
182
174
273
428
532
538
500
507
568
607
558
448
369
365
387
358
282
245
306
425
486
415
259
140
132
202
256
232
153
99
133
250
381
446
435
397
393
420
427
392
358
384
447
467
408
336
342
426
505
514
501
554
696
847
927
951
1002
1119
1268
1404
1516
1608
1653
1625
1565
1554
1564
1417
975
341
-176
-385
-395
-434
-515
-381
162
973
1697
2133
2376
2613
2855
2954
2812
2501
2160
1867
1631
1460
1370
1330
1282
1199
1111
1042
950
761
453
84
-257
-505
-639
-672
-631
-534
-356
-59
338
733
1019
1169
1205
1145
955
614
160
-324
-772
-1164
-1488
-1713
-1822
-1857
-1899
-2005
-2157
-2287
-2364
-2429
-2551
-2720
-2803
-2767
-2721
-2758
-2810
-2754
-2658
-2738
-3021
-3192
-2993
-2683
-2816
-3433
-3744
-2928
-1207
204
322
-601
-1497
-1770
-1860
-2549
-3991
-5613
-6809
-7434
-7637
-7536
-7176
-6689
-6288
-6059
-5909
-5730
-5518
-5373
-5311
-5285
-5277
-5276
-5207
-4963
-4542
-4098
-3812
-3751
-3823
-3866
-3771
-3510
-3109
-2639
-2249
-2099
-2234
-2529
-2794
-2953
-3091
-3322
-3642
-3916
-4008
-3919
-3783
-3761
-3909
-4141
-4316
-4377
-4391
-4465
-4630
-4812
-4936
-4992
-5002
-4945
-4771
-4488
-4179
-3929
-3732
-3511
-3225
-2928
-2686
-2511
-2376
-2263
-2180
-2118
-2036
-1914
-1791
-1711
-1661
-1584
-1461
-1345
-1294
-1295
-1285
-1228
-1153
-1094
-1045
-978
-890
-816
-773
-737
-676
-601
-549
-537
-522
-456
-344
-245
-203
-191
-143
-33
105
231
347
481
617
694
674
610
600
683
777
781
699
639
691
825
940
990
1006
1030
1054
1034
967
900
866
836
759
631
524
555
824
1352
2021
2585
2818
2677
2356
2079
1877
1553
914
23
-816
-1310
-1403
-1264
-1107
-1030
-1015
-1005
-958
-874
-795
-784
-877
-1030
-1145
-1156
-1071
-938
-796
-661
-568
-568
-666
-789
-845
-810
-746
-715
-718
-724
-732
-781
-876
-962
-981
-931
-861
-805
-760
-708
-660
-660
-755
-924
-1085
-1158
-1126
-1024
-871
-637
-306
59
375
632
895
1153
1204
787
-110
-1164
-1979
-2433
-2723
-3046
-3314
-3255
-2738
-1935
-1137
-507
-39
286
407
289
42
-119
-44
247
644
1074
1530
2017
2522
2989
3328
3414
3169
2654
2094
1707
1511
1340
1093
900
976
1289
1488
1235
562
-174
-662
-911
-1101
-1271
-1254
-919
-344
275
841
1390
1903
2215
2169
1815
1384
1058
825
567
266
26
-53
13
108
124
53
-35
-78
-89
-134
-242
-357
-400
-390
-442
-606
-765
-750
-558
-394
-443
-650
-799
-792
-786
-1015
-1522
-2126
-2621
-2943
-3130
-3203
-3150
-2997
-2847
-2782
-2795
-2817
-2810
-2815
-2879
-2996
-3113
-3176
-3166
-3101
-3012
-2924
-2848
-2793
-2764
-2759
-2764
-2753
-2708
-2612
-2468
-2299
-2149
-2041
-1965
-1906
-1878
-1899
-1934
-1903
-1759
-1556
-1415
-1361
-1270
-983
-511
-86
31
-201
-581
-871
-1045
-1296
-1806
-2520
-3182
-3593
-3798
-4000
-4297
-4558
-4575
-4296
-3871
-3439
-2974
-2352
-1561
-772
-186
150
341
491
579
513
260
-92
-407
-599
-678
-715
-748
-753
-705
-663
-748
-1001
-1302
-1472
-1467
-1420
-1457
-1528
-1482
-1286
-1087
-1022
-1048
-1009
-887
-857
-1073
-1450
-1741
-1817
-1783
-1807
-1879
-1817
-1478
-906
-248
406
1056
1691
2236
2615
2839
2977
3059
3043
2905
2692
2499
2390
2348
2326
2313
2327
2363
2374
2305
2157
1990
1872
1791
1686
1523
1323
1101
837
511
194
7
-29
-56
-222
-446
-437
10
766
1466
1879
2119
2483
3112
3855
4452
4781
4932
5058
5216
5359
5410
5336
5146
4884
4587
4274
3954
3651
3405
3255
3192
3156
3096
3047
3092
3266
3492
3636
3652
3619
3633
3685
3678
3563
3407
3328
3368
3462
3523
3532
3538
3594
3694
3773
3788
3759
3756
3826
3930
3971
3909
3833
3886
4100
4346
4443
4339
4140
3989
3943
3955
3945
3861
3708
3551
3475
3512
3593
3593
3451
3237
3075
3000
2947
2849
2723
2616
2520
2364
2123
1877
1709
1613
1520
1383
1227
1109
1053
1026
983
899
770
608
432
247
35
-199
-393
-460
-391
-261
-148
-66
11
87
143
175
171
77
-117
-303
-306
-119
23
-126
-493
-747
-693
-539
-655
-1108
-1556
-1650
-1433
-1253
-1338
-1575
-1713
-1654
-1511
-1433
-1455
-1500
-1484
-1382
-1217
-1039
-898
-817
-771
-735
-731
-794
-908
-984
-934
-765
-578
-473
-460
-444
-320
-105
70
80
-60
-184
-138
77
323
471
522
578
728
975
1241
1455
1598
1691
1759
1829
1928
2066
2214
2313
2334
2322
2361
2482
2607
2636
2573
2533
2614
2762
2823
2740
2635
2677
2887
3095
3129
3000
2871
2881
3018
3157
3192
3122
3040
3065
3261
3563
3809
3849
3696
3512
3435
3457
3461
3385
3283
3237
3256
3295
3343
3449
3610
3709
3634
3422
3250
3264
3399
3464
3373
3236
3225
3364
3512
3545
3502
3504
3556
3503
3219
2812
2557
2583
2726
2710
2474
2205
2092
2118
2134
2081
2041
2090
2201
2329
2521
2856
3310
3731
4002
4137
4190
4140
3905
3495
3029
2614
2254
1896
1566
1385
1430
1650
1882
1981
1930
1834
1836
1988
2194
2291
2206
2038
1987
2123
2296
2281
2024
1714
1591
1704
1870
1865
1672
1498
1556
1845
2134
2202
2056
1886
1861
1949
1992
1903
1760
1672
1644
1606
1539
1508
1547
1551
1410
1189
1098
1217
1352
1263
970
731
720
813
773
590
467
523
612
538
368
356
578
802
730
408
197
341
687
863
698
403
312
517
796
860
645
341
173
158
130
-62
-400
-714
-859
-859
-863
-963
-1087
-1099
-976
-830
-773
-775
-725
-601
-530
-625
-807
-850
-660
-395
-308
-466
-663
-646
-397
-127
-50
-183
-346
-328
-68
284
519
537
444
457
683
1039
1340
1455
1399
1288
1248
1359
1594
1810
1831
1615
1353
1308
1500
1677
1600
1365
1295
1526
1798
1775
1494
1337
1515
1771
1704
1288
934
964
1227
1343
1236
1205
1463
1818
1895
1625
1315
1236
1328
1355
1250
1148
1109
1025
828
674
765
1025
1098
779
274
26
209
557
677
477
227
213
436
648
647
454
255
187
253
363
465
565
686
833
963
1004
913
716
521
447
510
616
667
682
770
978
1208
1319
1249
1073
915
878
998
1224
1422
1452
1344
1316
1532
1869
1987
1713
1271
1029
1081
1174
1088
917
926
1160
1349
1241
941
787
965
1315
1569
1674
1833
2228
2790
3258
3456
3415
3244
2963
2534
1993
1500
1173
946
673
363
210
321
542
590
410
251
336
565
632
412
125
66
241
387
311
107
-8
35
101
62
-37
-64
15
99
91
20
-41
-74
-128
-209
-262
-247
-221
-274
-404
-500
-472
-361
-297
-352
-472
-565
-594
-586
-557
-515
-491
-547
-679
-781
-744
-628
-651
-967
-1478
-1916
-2112
-2156
-2235
-2371
-2369
-2032
-1399
-713
-191
159
461
775
1010
1025
804
489
250
139
79
-17
-139
-201
-148
-26
64
46
-76
-242
-388
-472
-482
-443
-397
-373
-377
-388
-389
-380
-363
-338
-312
-287
-257
-215
-163
-119
-94
-73
-37
15
62
91
118
168
249
352
458
547
599
612
604
613
656
714
743
717
634
499
324
134
-38
-166
-246
-295
-302
-232
-64
181
431
620
725
759
738
662
529
357
196
90
54
51
33
-8
-46
-51
-24
6
4
-51
-157
-276
-349
-327
-234
-158
-186
-309
-432
-464
-417
-389
-447
-547
-583
-499
-365
-295
-319
-347
-281
-142
-55
-97
-198
-217
-115
4
35
0
7
121
293
444
559
666
758
793
757
693
647
598
495
333
183
103
84
68
31
11
53
162
293
380
383
302
166
22
-77
-116
-129
-147
-140
-52
85
93
-229
-909
-1753
-2520
-3106
-3540
-3817
-3788
-3272
-2213
-725
974
2640
4042
5001
5465
5528
5294
4770
3947
2982
2180
1725
1504
1268
969
817
972
1250
1280
958
604
582
847
1005
821
520
511
858
1163
1014
430
-193
-544
-688
-910
-1343
-1857
-2258
-2480
-2591
-2650
-2645
-2567
-2461
-2390
-2376
-2391
-2394
-2376
-2372
-2423
-2524
-2626
-2664
-2616
-2517
-2421
-2341
-2263
-2185
-2160
-2239
-2392
-2510
-2516
-2453
-2436
-2522
-2644
-2710
-2716
-2740
-2801
-2830
-2789
-2759
-2850
-3040
-3188
-3218
-3215
-3294
-3436
-3542
-3594
-3663
-3722
-3581
-3120
-2536
-2193
-2223
-2364
-2308
-2118
-2165
-2673
-3440
-4080
-4436
-4657
-4898
-5108
-5142
-4988
-4786
-4627
-4447
-4146
-3765
-3466
-3350
-3348
-3300
-3112
-2831
-2564
-2365
-2201
-2025
-1847
-1721
-1647
-1555
-1371
-1114
-867
-675
-481
-221
51
223
293
389
583
760
762
634
604
756
884
803
733
1150
2172
3277
3777
3522
2966
2560
2274
1796
1052
305
-194
-445
-535
-422
-44
421
613
346
-198
-703
-1034
-1286
-1545
-1735
-1760
-1629
-1410
-1118
-739
-342
-88
-94
-318
-604
-823
-932
-930
-819
-630
-452
-383
-446
-580
-706
-787
-821
-818
-768
-669
-551
-455
-402
-375
-337
-274
-206
-139
-39
157
466
823
1140
1391
1610
1794
1865
1728
1397
989
597
212
-196
-565
-758
-719
-543
-362
-208
-14
234
435
484
397
294
248
217
135
11
-61
-7
139
265
288
205
54
-145
-404
-700
-929
-977
-830
-598
-394
-196
128
632
1185
1558
1635
1484
1243
966
612
151
-345
-756
-1008
-1114
-1133
-1113
-1075
-1024
-967
-922
-925
-997
-1118
-1221
-1244
-1195
-1134
-1109
-1101
-1071
-1037
-1035
-1036
-948
-757
-639
-792
-1176
-1498
-1592
-1734
-2436
-3831
-5368
-6265
-6237
-5671
-5080
-4488
-3487
-1822
230
2094
3395
4142
4507
4577
4359
3934
3470
3111
2885
2745
2663
2663
2738
2820
2832
2726
2512
2232
1924
1628
1386
1239
1204
1246
1291
1267
1139
909
630
390
263
258
299
289
188
38
-101
-219
-356
-535
-715
-828
-856
-847
-869
-937
-1002
-1014
-985
-961
-974
-1010
-1029
-1016
-991
-978
-993
-1035
-1085
-1121
-1123
-1105
-1093
-1101
-1106
-1083
-1028
-956
-867
-753
-639
-588
-652
-814
-998
-1159
-1313
-1490
-1661
-1740
-1661
-1434
-1131
-832
-576
-363
-182
-47
1
-64
-225
-411
-546
-589
-559
-504
-477
-520
-632
-779
-921
-1087
-1382
-1907
-2643
-3423
-4015
-4269
-4173
-3830
-3365
-2822
-2155
-1337
-457
295
777
1008
1111
1152
1092
910
731
730
933
1147
1137
858
456
87
-241
-628
-1138
-1702
-2166
-2396
-2356
-2130
-1861
-1672
-1613
-1669
-1804
-1990
-2185
-2328
-2379
-2346
-2274
-2181
-2030
-1808
-1568
-1400
-1340
-1344
-1346
-1322
-1294
-1286
-1288
-1287
-1294
-1333
-1406
-1481
-1526
-1546
-1566
-1590
-1584
-1521
-1416
-1299
-1157
-936
-628
-328
-166
-174
-242
-250
-208
-239
-425
-691
-866
-866
-778
-759
-869
-1003
-1002
-805
-505
-243
-50
182
586
1153
1714
2075
2179
2131
2045
1930
1716
1374
980
652
459
388
401
471
584
718
839
924
952
895
750
587
514
580
709
772
744
758
945
1236
1371
1146
670
260
115
108
-58
-490
-964
-1143
-905
-405
150
709
1344
2067
2775
3348
3760
4030
4145
4065
3821
3522
3243
2967
2663
2394
2257
2244
2216
2061
1861
1807
1937
2070
2015
1817
1699
1776
1899
1854
1659
1564
1741
2027
2073
1751
1320
1154
1333
1571
1530
1170
781
678
887
1146
1165
916
638
575
741
915
891
685
493
439
458
425
317
242
268
338
345
295
299
414
575
670
686
708
794
886
876
745
576
453
366
242
59
-104
-151
-71
45
126
192
298
457
602
684
717
745
757
700
554
381
263
220
198
122
-8
-123
-162
-120
-75
-125
-298
-540
-769
-939
-1071
-1211
-1360
-1467
-1482
-1411
-1310
-1246
-1235
-1242
-1239
-1262
-1359
-1513
-1667
-1774
-1863
-1968
-2052
-2045
-1949
-1875
-1923
-2037
-2061
-1924
-1739
-1659
-1694
-1700
-1578
-1404
-1323
-1374
-1452
-1442
-1361
-1293
-1254
-1171
-976
-690
-404
-169
39
254
471
644
762
860
970
1086
1171
1217
1276
1392
1547
1665
1694
1684
1731
1895
2115
2265
2287
2243
2258
2371
2498
2517
2420
2328
2357
2494
2624
2641
2548
2445
2410
2440
2464
2424
2341
2280
2291
2360
2415
2384
2270
2138
2086
2163
2337
2539
2736
2975
3340
3847
4367
4715
4823
4769
4676
4564
4343
3962
3521
3184
3016
2938
2852
2758
2734
2801
2865
2817
2657
2484
2368
2297
2212
2093
1964
1849
1743
1644
1554
1453
1304
1108
928
833
806
737
555
323
165
122
120
83
19
-10
19
57
68
81
156
288
385
364
245
150
187
337
466
473
390
344
412
534
569
465
298
173
117
71
-18
-119
-163
-137
-73
-10
25
21
-34
-145
-285
-427
-544
-613
-618
-571
-512
-477
-443
-354
-209
-89
-69
-139
-211
-232
-237
-281
-355
-396
-363
-263
-146
-56
-26
-68
-152
-207
-186
-125
-112
-187
-282
-297
-226
-168
-205
-323
-411
-405
-347
-322
-350
-363
-275
-80
135
268
326
392
515
625
604
445
279
258
405
588
660
620
592
691
907
1112
1173
1056
837
646
572
623
749
863
860
672
375
193
337
742
1031
875
388
60
242
723
966
700
210
1
230
582
683
524
401
511
703
651
226
-291
-445
-94
410
561
255
-53
170
914
1595
1690
1274
853
760
842
773
517
343
412
564
533
327
225
430
821
1079
1031
765
489
376
497
802
1122
1212
964
595
498
821
1241
1323
1044
836
1037
1433
1539
1217
869
918
1246
1350
994
500
350
617
897
826
486
253
349
626
786
698
463
218
50
45
297
789
1279
1474
1405
1501
2126
3094
3773
3733
3179
2657
2432
2305
2032
1659
1387
1197
833
266
-114
64
641
1012
757
116
-310
-244
24
44
-266
-600
-668
-500
-308
-229
-230
-235
-246
-269
-263
-203
-151
-193
-312
-393
-338
-177
-57
-126
-427
-887
-1356
-1710
-1937
-2145
-2437
-2752
-2862
-2575
-1917
-1100
-332
311
858
1326
1677
1855
1854
1732
1567
1400
1237
1071
921
843
866
971
1111
1254
1366
1374
1226
973
783
789
925
959
736
356
51
-64
-65
-78
-146
-241
-372
-593
-885
-1147
-1326
-1521
-1888
-2396
-2784
-2777
-2343
-1691
-1025
-377
337
1146
1950
2588
2963
3073
2986
2781
2531
2274
2028
1816
1676
1630
1660
1717
1778
1846
1901
1885
1771
1617
1514
1480
1439
1320
1170
1096
1146
1249
1284
1222
1158
1185
1296
1396
1406
1339
1252
1175
1109
1058
1036
1019
950
804
644
576
617
667
622
493
389
376
415
428
392
347
328
326
319
326
376
447
482
446
358
275
234
245
302
375
405
356
279
286
420
572
565
351
103
33
163
313
328
250
229
317
421
475
554
754
1001
1086
911
654
588
766
957
917
675
480
498
640
684
539
335
256
329
431
450
398
364
397
468
547
651
787
914
959
883
706
489
302
102
-191
-559
-864
-992
-1060
-1270
-1569
-1593
-1128
-528
-409
-795
-862
188
2063
3569
3965
3832
4279
5485
6400
6003
4480
2900
1924
1234
253
-975
-1866
-2061
-1815
-1571
-1447
-1257
-889
-509
-321
-355
-500
-629
-691
-677
-609
-536
-504
-529
-591
-663
-738
-812
-877
-903
-853
-717
-547
-452
-507
-663
-790
-806
-784
-851
-1012
-1124
-1050
-836
-621
-484
-419
-403
-437
-512
-581
-607
-626
-698
-805
-873
-889
-913
-923
-739
-212
526
1094
1192
861
399
47
-200
-511
-1017
-1695
-2384
-2875
-3032
-2900
-2682
-2589
-2690
-2895
-3108
-3301
-3495
-3678
-3823
-3962
-4141
-4305
-4332
-4172
-3919
-3759
-3773
-3886
-3975
-4007
-4002
-3912
-3569
-2903
-2120
-1590
-1462
-1466
-1176
-488
229
509
269
-158
-437
-566
-765
-1126
-1512
-1779
-1963
-2155
-2277
-2128
-1679
-1201
-1019
-1180
-1429
-1512
-1439
-1454
-1692
-2053
-2337
-2476
-2565
-2668
-2725
-2672
-2553
-2477
-2485
-2526
-2521
-2435
-2222
-1847
-1443
-1339
-1717
-2233
-2198
-1303
-109
423
-99
-1088
-1658
-1593
-1480
-1971
-3056
-4137
-4653
-4520
-3998
-3346
-2681
-2054
-1550
-1244
-1118
-1069
-1027
-1025
-1131
-1354
-1585
-1663
-1516
-1242
-976
-768
-610
-554
-713
-1105
-1545
-1737
-1571
-1226
-1001
-1033
-1215
-1348
-1334
-1253
-1217
-1235
-1219
-1110
-959
-835
-732
-567
-331
-147
-133
-240
-285
-171
1
62
18
66
360
791
1093
1150
1102
1156
1321
1384
1164
738
350
192
241
329
324
229
126
69
54
44
15
-35
-127
-295
-544
-798
-961
-1025
-1093
-1259
-1478
-1575
-1428
-1089
-703
-337
68
550
995
1209
1117
848
568
291
-83
-582
-1092
-1499
-1826
-2157
-2444
-2534
-2407
-2327
-2592
-3178
-3721
-3917
-3868
-3918
-4180
-4347
-4036
-3226
-2264
-1472
-862
-261
365
835
972
792
464
131
-172
-458
-701
-842
-847
-755
-652
-614
-652
-725
-821
-980
-1220
-1465
-1565
-1441
-1151
-824
-554
-377
-331
-463
-774
-1180
-1558
-1819
-1926
-1852
-1579
-1101
-470
218
874
1429
1836
2071
2128
2019
1777
1474
1213
1067
1050
1139
1308
1533
1738
1793
1592
1120
444
-354
-1201
-2011
-2689
-3189
-3536
-3772
-3874
-3778
-3495
-3178
-3001
-3006
-3054
-2969
-2785
-2698
-2828
-3033
-3073
-2921
-2786
-2794
-2795
-2620
-2422
-2532
-2932
-3057
-2404
-1206
-273
-71
-199
25
601
780
-11
-1436
-2625
-3141
-3298
-3596
-4052
-4294
-4117
-3734
-3460
-3387
-3400
-3450
-3628
-3952
-4272
-4395
-4282
-4062
-3870
-3740
-3620
-3462
-3281
-3156
-3163
-3294
-3466
-3560
-3501
-3312
-3091
-2940
-2904
-2963
-3065
-3166
-3244
-3295
-3324
-3335
-3309
-3236
-3135
-3058
-3047
-3088
-3117
-3081
-2987
-2882
-2818
-2805
-2817
-2819
-2802
-2782
-2783
-2823
-2887
-2937
-2939
-2896
-2830
-2759
-2667
-2540
-2394
-2276
-2212
-2176
-2101
-1952
-1756
-1572
-1427
-1288
-1098
-822
-489
-192
-46
-114
-365
-689
-957
-1107
-1149
-1101
-944
-631
-141
470
1089
1607
1964
2142
2160
2058
1898
1755
1673
1645
1625
1572
1494
1425
1391
1392
1398
1380
1336
1301
1321
1414
1535
1617
1654
1700
1790
1881
1900
1861
1879
2058
2366
2666
2860
2966
3055
3134
3130
3002
2807
2625
2462
2259
1986
1710
1518
1408
1281
1060
791
586
488
443
373
284
238
265
315
317
268
217
200
214
257
348
496
665
803
906
988
1031
985
831
635
488
394
293
180
130
202
357
509
667
941
1374
1814
2037
1985
1836
1801
1904
1980
1867
1564
1220
1036
1154
1563
2068
2405
2449
2323
2261
2325
2344
2117
1673
1215
892
692
556
518
643
876
1052
1076
1024
1016
1051
1009
823
601
500
542
592
541
444
423
494
517
372
129
6
133
408
611
631
581
642
855
1081
1157
1048
852
705
694
827
1047
1220
1230
1085
945
968
1122
1202
1037
697
417
323
306
184
-61
-268
-323
-293
-345
-527
-719
-813
-869
-1030
-1329
-1634
-1788
-1782
-1743
-1785
-1884
-1936
-1886
-1798
-1770
-1832
-1910
-1945
-1975
-2094
-2330
-2570
-2666
-2576
-2423
-2350
-2368
-2382
-2311
-2181
-2086
-2090
-2196
-2370
-2558
-2687
-2693
-2588
-2464
-2418
-2453
-2470
-2369
-2157
-1926
-1771
-1709
-1704
-1698
-1637
-1483
-1236
-948
-705
-554
-457
-328
-121
107
255
261
174
105
130
246
380
476
527
544
538
526
556
692
937
1189
1321
1318
1314
1453
1736
2023
2174
2168
2092
2039
2030
2048
2084
2130
2161
2142
2106
2124
2216
2309
2320
2250
2191
2223
2327
2396
2329
2127
1900
1796
1909
2191
2488
2708
2935
3358
4036
4763
5245
5376
5310
5236
5142
4866
4353
3753
3254
2893
2585
2312
2157
2178
2278
2293
2175
2027
1945
1897
1793
1621
1449
1325
1217
1060
855
696
660
709
742
721
711
782
902
942
851
736
761
952
1145
1162
1002
834
803
894
1001
1041
996
890
758
658
650
712
755
699
568
453
418
418
369
222
11
-168
-247
-231
-188
-195
-269
-362
-411
-420
-427
-442
-445
-459
-557
-767
-990
-1074
-990
-894
-980
-1260
-1515
-1533
-1324
-1104
-1076
-1218
-1315
-1217
-994
-846
-873
-971
-962
-812
-658
-635
-728
-812
-815
-779
-778
-804
-790
-699
-569
-477
-460
-470
-400
-193
81
258
245
128
110
311
645
893
940
863
828
923
1082
1185
1188
1142
1108
1079
996
837
692
687
847
1026
1029
829
613
588
741
876
841
704
660
788
965
1019
921
795
763
819
873
856
774
650
490
321
215
244
384
518
544
498
498
602
748
837
862
883
923
920
826
718
740
948
1213
1350
1291
1156
1115
1231
1402
1456
1276
885
464
262
399
738
990
968
803
815
1147
1578
1729
1478
1071
853
898
1007
990
867
797
860
993
1109
1182
1216
1215
1173
1120
1081
1023
904
752
674
734
880
990
1000
980
1048
1236
1448
1534
1412
1133
831
623
540
563
682
894
1181
1519
1930
2480
3173
3839
4218
4190
3895
3584
3359
3107
2696
2187
1795
1665
1737
1822
1812
1736
1690
1704
1708
1620
1423
1173
991
977
1130
1309
1343
1187
980
912
997
1059
962
768
637
618
606
559
611
872
1195
1306
1132
915
903
1022
998
739
490
511
756
938
904
783
761
835
861
760
607
473
371
281
231
241
266
265
271
345
446
479
425
400
465
483
273
-110
-365
-283
-45
-39
-411
-923
-1232
-1242
-1122
-1048
-1048
-1076
-1114
-1115
-968
-596
-121
197
221
95
100
374
816
1234
1520
1685
1799
1923
2090
2277
2390
2334
2111
1829
1615
1499
1413
1307
1217
1215
1325
1476
1578
1596
1554
1502
1477
1482
1507
1538
1552
1536
1503
1477
1482
1512
1548
1553
1488
1353
1203
1126
1149
1206
1205
1126
1048
1050
1104
1101
988
831
727
683
618
470
288
180
182
220
195
99
20
35
126
197
172
75
3
23
119
198
187
85
-45
-124
-116
-47
22
57
80
151
287
423
477
449
431
485
560
561
489
454
543
678
709
604
528
646
921
1131
1115
948
852
944
1131
1236
1186
1059
964
937
961
1040
1181
1312
1308
1130
923
908
1137
1380
1375
1112
827
739
818
887
872
826
775
690
602
635
820
906
517
-426
-1553
-2390
-2799
-3003
-3187
-3217
-2803
-1882
-720
329
1097
1635
2046
2345
2492
2463
2329
2250
2398
2823
3403
3884
4046
3888
3595
3351
3164
2891
2431
1874
1422
1218
1249
1389
1533
1634
1624
1416
1025
632
434
456
546
554
495
470
510
527
426
222
41
-38
-51
-113
-278
-477
-581
-547
-476
-513
-682
-837
-822
-655
-535
-610
-806
-910
-824
-676
-666
-845
-1081
-1212
-1227
-1237
-1332
-1472
-1558
-1562
-1549
-1572
-1583
-1484
-1263
-1053
-1034
-1256
-1572
-1767
-1767
-1703
-1767
-2016
-2312
-2456
-2380
-2209
-2155
-2311
-2587
-2812
-2904
-2935
-3040
-3263
-3506
-3635
-3612
-3520
-3472
-3498
-3539
-3539
-3521
-3557
-3687
-3859
-3986
-4027
-4008
-3975
-3931
-3852
-3718
-3538
-3333
-3138
-3007
-2983
-3051
-3127
-3138
-3096
-3064
-3063
-3027
-2887
-2673
-2476
-2318
-2125
-1852
-1587
-1479
-1552
-1665
-1682
-1626
-1634
-1763
-1919
-1977
-1932
-1883
-1902
-1965
-2008
-2018
-2027
-2062
-2115
-2163
-2190
-2181
-2135
-2081
-2064
-2091
-2117
-2096
-2044
-2027
-2080
-2162
-2189
-2136
-2056
-2014
-2013
-2013
-1991
-1961
-1943
-1932
-1913
-1901
-1898
-1875
-1831
-1795
-1794
-1805
-1797
-1819
-1948
-2143
-2248
-2190
-2137
-2293
-2534
-2411
-1640
-533
235
323
40
-107
-38
-154
-779
-1754
-2632
-3154
-3396
-3520
-3535
-3378
-3111
-2907
-2871
-2956
-3049
-3125
-3246
-3430
-3622
-3738
-3723
-3588
-3389
-3192
-3042
-2964
-2966
-3041
-3147
-3233
-3262
-3232
-3166
-3103
-3091
-3160
-3286
-3386
-3372
-3221
-2966
-2626
-2165
-1567
-923
-410
-150
-107
-151
-216
-351
-618
-983
-1316
-1520
-1607
-1646
-1656
-1596
-1446
-1269
-1167
-1168
-1207
-1205
-1156
-1108
-1085
-1055
-990
-918
-898
-928
-935
-870
-778
-739
-764
-777
-716
-604
-522
-508
-538
-576
-614
-654
-680
-682
-682
-715
-779
-831
-828
-774
-721
-702
-703
-683
-614
-514
-424
-365
-329
-302
-317
-446
-724
-1101
-1488
-1832
-2132
-2383
-2522
-2479
-2256
-1929
-1555
-1123
-628
-153
160
246
178
81
-6
-135
-328
-506
-548
-432
-249
-96
16
126
260
379
419
350
210
97
90
184
280
278
183
114
156
227
138
-201
-660
-1010
-1143
-1145
-1131
-1080
-866
-430
124
634
1024
1329
1589
1762
1779
1637
1424
1236
1104
991
872
761
690
664
649
603
512
397
271
132
-25
-180
-300
-372
-419
-478
-569
-681
-792
-897
-1010
-1140
-1270
-1373
-1442
-1489
-1528
-1559
-1588
-1629
-1699
-1785
-1864
-1927
-1995
-2095
-2218
-2323
-2371
-2358
-2316
-2288
-2300
-2359
-2468
-2627
-2822
-3025
-3200
-3320
-3367
-3334
-3226
-3068
-2907
-2792
-2737
-2710
-2678
-2638
-2614
-2599
-2534
-2351
-2028
-1610
-1164
-742
-394
-170
-98
-147
-241
-321
-385
-453
-508
-494
-375
-183
11
157
244
276
244
140
-15
-168
-274
-331
-370
-414
-457
-477
-481
-508
-586
-695
-792
-848
-871
-900
-963
-1044
-1103
-1123
-1144
-1232
-1383
-1489
-1419
-1159
-830
-544
-265
142
715
1294
1659
1737
1644
1521
1379
1136
773
380
57
-189
-428
-692
-939
-1119
-1262
-1453
-1719
-1959
-2018
-1836
-1488
-1095
-708
-286
197
670
1017
1175
1179
1104
990
844
688
570
522
534
577
641
719
799
852
864
858
863
873
850
775
687
658
713
792
813
772
749
824
988
1157
1269
1338
1404
1471
1512
1531
1567
1634
1693
1693
1657
1673
1795
1962
2050
2008
1919
1925
2077
2263
2324
2221
2077
2040
2113
2151
2035
1813
1642
1605
1633
1615
1552
1569
1737
1970
2114
2111
2055
2064
2134
2158
2069
1931
1846
1823
1776
1644
1507
1496
1626
1767
1774
1664
1579
1632
1788
1929
1978
1967
1973
2041
2147
2228
2247
2206
2133
2046
1943
1831
1744
1716
1747
1795
1810
1789
1765
1771
1801
1802
1722
1549
1339
1200
1184
1215
1163
992
834
848
1015
1137
1060
833
643
601
629
588
455
329
313
412
548
640
652
593
498
397
307
231
172
126
64
-33
-147
-238
-296
-376
-518
-662
-721
-704
-749
-952
-1200
-1249
-998
-621
-405
-459
-635
-734
-707
-637
-599
-585
-555
-499
-433
-363
-291
-225
-169
-92
50
234
369
386
318
297
402
597
759
789
701
604
641
899
1320
1720
1906
1854
1745
1791
2031
2306
2432
2365
2228
2136
2100
2073
2051
2056
2062
2002
1867
1745
1747
1893
2133
2455
2906
3468
3980
4274
4378
4483
4676
4795
4623
4175
3732
3533
3520
3454
3235
3014
2978
3115
3239
3223
3123
3069
3115
3191
3208
3154
3091
3083
3146
3233
3266
3234
3206
3259
3366
3424
3395
3364
3452
3640
3784
3771
3661
3612
3690
3792
3774
3613
3441
3377
3422
3467
3425
3306
3185
3119
3106
3095
3054
2984
2901
2806
2694
2582
2526
2549
2587
2554
2420
2253
2138
2088
2049
1982
1885
1779
1672
1574
1511
1473
1400
1233
1003
812
727
676
556
382
291
376
548
612
477
274
217
382
646
829
874
887
1013
1295
1628
1854
1889
1798
1714
1705
1724
1674
1530
1381
1340
1396
1404
1213
838
501
434
643
878
866
639
532
813
1339
1645
1449
989
751
906
1133
1058
741
575
775
1111
1263
1236
1281
1507
1705
1669
1497
1465
1665
1928
2045
1969
1787
1587
1419
1306
1237
1148
1007
888
856
855
771
621
587
741
889
780
466
280
411
653
670
435
261
372
626
721
576
436
528
768
876
722
486
456
702
984
1031
842
684
771
1011
1115
954
737
755
1043
1319
1301
1026
807
901
1255
1612
1734
1593
1349
1189
1208
1387
1634
1825
1819
1569
1250
1120
1282
1557
1668
1556
1429
1458
1526
1446
1275
1247
1396
1402
1020
513
464
1070
1796
1913
1296
602
535
1093
1653
1693
1341
1202
1693
2582
3222
3199
2744
2482
2754
3253
3337
2722
1820
1283
1347
1683
1826
1683
1514
1539
1696
1760
1667
1552
1557
1657
1706
1631
1525
1524
1611
1621
1414
1077
887
1027
1384
1669
1712
1615
1600
1713
1763
1564
1186
900
864
950
914
677
412
331
449
631
752
809
858
896
880
809
757
785
842
827
717
593
557
610
645
572
434
349
340
324
243
185
275
441
413
26
-515
-795
-662
-415
-434
-715
-882
-673
-258
-4
-19
-72
49
250
275
65
-170
-219
-115
-59
-157
-320
-391
-314
-166
-55
-26
-53
-78
-58
-6
31
35
48
116
224
288
243
130
79
176
371
524
553
509
517
648
858
1038
1122
1134
1147
1207
1296
1372
1420
1455
1493
1521
1514
1481
1476
1538
1629
1666
1616
1539
1529
1596
1665
1668
1627
1611
1630
1616
1515
1357
1232
1178
1147
1088
1018
999
1047
1103
1097
1010
868
682
438
137
-190
-492
-735
-893
-930
-804
-509
-86
399
886
1334
1709
1984
2145
2189
2118
1955
1749
1550
1387
1268
1192
1168
1197
1247
1276
1264
1226
1187
1158
1130
1099
1077
1076
1094
1109
1093
1048
997
978
994
1006
967
870
778
770
855
971
1039
1045
1029
1026
1036
1028
991
951
923
875
758
581
419
322
218
-9
-358
-641
-647
-367
10
340
687
1200
1867
2473
2818
2907
2871
2763
2517
2102
1630
1245
965
715
469
300
270
336
402
431
466
527
558
494
357
231
176
177
181
155
108
77
94
153
224
293
380
499
600
600
480
346
298
290
239
138
59
27
-1
-33
2
117
160
5
-217
-261
-238
-723
-2152
-4174
-5841
-6525
-6455
-6227
-5940
-5084
-3286
-889
1366
3054
4257
5121
5502
5189
4298
3251
2382
1716
1141
687
520
650
883
1002
951
794
564
213
-269
-740
-983
-907
-643
-420
-342
-325
-238
-64
96
156
144
163
266
402
476
431
280
78
-117
-249
-284
-254
-252
-335
-466
-565
-627
-720
-862
-961
-951
-903
-944
-1069
-1165
-1231
-1471
-2063
-2894
-3653
-4158
-4484
-4702
-4687
-4322
-3814
-3564
-3675
-3779
-3497
-2959
-2674
-2870
-3181
-3066
-2438
-1689
-1198
-969
-806
-667
-697
-958
-1319
-1626
-1881
-2198
-2597
-2944
-3080
-2971
-2733
-2540
-2520
-2697
-2991
-3262
-3398
-3379
-3265
-3133
-3021
-2931
-2877
-2885
-2955
-3029
-3035
-2935
-2751
-2522
-2273
-2006
-1736
-1502
-1326
-1186
-1028
-823
-597
-409
-290
-203
-92
74
279
471
608
673
695
730
808
899
949
942
933
983
1080
1154
1163
1149
1165
1175
1081
850
568
370
303
311
329
370
491
705
956
1182
1356
1476
1525
1481
1340
1150
976
840
715
551
330
86
-119
-248
-291
-273
-220
-158
-129
-173
-287
-418
-489
-469
-399
-341
-306
-221
4
380
814
1178
1395
1478
1474
1410
1277
1082
866
672
519
397
311
273
280
280
215
80
-77
-197
-267
-326
-396
-444
-419
-319
-225
-233
-346
-479
-539
-524
-516
-582
-702
-803
-850
-883
-954
-1060
-1155
-1202
-1238
-1334
-1533
-1789
-1976
-2006
-1910
-1815
-1798
-1808
-1716
-1504
-1316
-1333
-1580
-1908
-2177
-2387
-2625
-2909
-3121
-3120
-2884
-2511
-2102
-1687
-1249
-803
-421
-192
-153
-251
-387
-498
-602
-737
-897
-1014
-1038
-1007
-1006
-1065
-1125
-1131
-1107
-1150
-1283
-1424
-1492
-1494
-1489
-1514
-1555
-1572
-1546
-1457
-1296
-1108
-997
-1008
-1082
-1164
-1361
-1897
-2842
-3933
-4742
-5051
-4975
-4721
-4312
-3610
-2558
-1297
-37
1079
1955
2460
2503
2174
1741
1405
1151
840
441
102
-48
-55
-58
-123
-211
-295
-423
-651
-931
-1125
-1147
-1024
-880
-845
-977
-1225
-1453
-1547
-1515
-1481
-1540
-1635
-1648
-1584
-1600
-1808
-2124
-2354
-2407
-2361
-2305
-2199
-1959
-1611
-1288
-1070
-911
-731
-553
-481
-575
-784
-983
-1079
-1044
-921
-801
-747
-752
-735
-639
-517
-484
-580
-730
-825
-853
-864
-887
-881
-808
-718
-712
-810
-930
-971
-920
-852
-830
-845
-859
-874
-923
-1011
-1084
-1097
-1075
-1089
-1173
-1290
-1382
-1454
-1568
-1761
-1986
-2150
-2221
-2257
-2321
-2392
-2376
-2213
-1951
-1686
-1456
-1207
-877
-482
-85
280
623
932
1137
1167
1043
849
630
352
-32
-480
-885
-1166
-1329
-1434
-1499
-1495
-1411
-1289
-1197
-1159
-1142
-1118
-1108
-1141
-1195
-1215
-1202
-1271
-1560
-2063
-2588
-2937
-3082
-3149
-3211
-3165
-2858
-2289
-1631
-1069
-650
-322
-77
16
-87
-332
-609
-850
-1040
-1168
-1198
-1121
-982
-848
-756
-708
-708
-760
-854
-950
-1020
-1072
-1127
-1176
-1188
-1164
-1158
-1229
-1357
-1469
-1516
-1523
-1547
-1586
-1589
-1540
-1491
-1511
-1598
-1673
-1681
-1656
-1659
-1717
-1796
-1853
-1889
-1920
-1960
-2005
-2050
-2087
-2114
-2125
-2117
-2119
-2138
-2130
-2070
-2000
-1989
-2017
-1982
-1840
-1711
-1731
-1819
-1703
-1289
-926
-1107
-1909
-2838
-3329
-3324
-3199
-3162
-2941
-2158
-878
420
1376
2059
2703
3259
3413
3004
2265
1591
1178
971
849
806
870
994
1111
1202
1280
1327
1290
1154
949
720
525
455
587
893
1176
1215
1002
759
738
994
1347
1590
1662
1644
1628
1637
1641
1602
1488
1313
1143
1058
1082
1155
1176
1117
1053
1061
1130
1177
1157
1122
1128
1155
1119
981
811
698
644
571
432
300
309
487
702
769
634
451
412
541
700
750
717
732
846
956
928
784
679
699
743
653
416
183
104
168
244
243
185
127
58
-72
-267
-473
-646
-801
-973
-1160
-1329
-1454
-1526
-1534
-1479
-1386
-1321
-1342
-1443
-1590
-1751
-1888
-1959
-1940
-1864
-1779
-1671
-1433
-974
-372
154
435
478
384
189
-146
-602
-1064
-1422
-1684
-1916
-2116
-2187
-2075
-1862
-1700
-1667
-1724
-1799
-1862
-1922
-1971
-1974
-1910
-1779
-1603
-1406
-1204
-1007
-816
-651
-543
-508
-511
-485
-405
-311
-277
-313
-351
-307
-157
40
202
291
334
379
441
501
525
511
494
513
570
647
725
797
869
934
967
957
919
882
863
840
779
671
579
580
681
802
846
795
720
692
707
708
663
592
526
465
398
345
350
411
467
451
360
270
251
303
362
365
306
222
170
187
266
356
399
368
294
236
229
261
296
297
249
161
68
15
30
96
166
198
173
113
55
44
103
202
278
282
239
223
271
348
388
373
362
421
550
667
681
574
427
347
373
436
442
391
386
513
729
899
950
947
999
1104
1161
1107
980
876
832
810
772
712
639
551
464
401
364
312
213
105
66
119
183
181
126
95
124
141
61
-108
-274
-346
-324
-272
-239
-209
-138
-3
167
313
392
417
415
398
335
203
42
-68
-91
-88
-138
-238
-299
-257
-152
-100
-136
-191
-171
-68
36
68
25
-72
-211
-400
-623
-856
-1093
-1329
-1521
-1611
-1600
-1548
-1481
-1333
-1030
-647
-426
-534
-851
-1077
-1047
-898
-871
-1011
-1130
-1031
-701
-252
225
708
1193
1630
1983
2238
2355
2242
1880
1406
1043
883
784
520
48
-404
-551
-347
-58
-11
-301
-698
-854
-643
-263
-29
-83
-289
-390
-234
107
398
408
94
-329
-521
-306
106
273
-20
-478
-571
-118
476
666
358
22
146
673
1056
867
298
-48
158
611
734
338
-155
-211
186
542
452
49
-220
-159
-2
-45
-249
-340
-198
-14
-14
-159
-223
-106
60
96
-15
-162
-276
-375
-451
-402
-191
31
38
-179
-356
-255
20
118
-135
-502
-613
-454
-384
-613
-865
-713
-191
179
37
-304
-205
462
1076
979
261
-345
-306
153
420
263
25
117
500
779
734
572
623
957
1331
1506
1481
1406
1396
1457
1572
1740
1875
1828
1568
1299
1293
1582
1887
1885
1562
1210
1108
1239
1383
1397
1340
1364
1496
1599
1534
1333
1203
1326
1613
1723
1387
750
324
500
1106
1567
1486
1040
749
879
1211
1354
1162
837
632
598
632
647
653
667
659
586
461
347
294
307
358
433
523
615
690
740
799
905
1038
1127
1121
1040
945
871
831
847
942
1095
1206
1191
1123
1148
1275
1324
1131
768
483
393
370
244
52
-25
86
257
364
454
630
858
983
962
953
1105
1347
1466
1378
1229
1198
1274
1303
1210
1081
1031
1037
989
845
680
578
496
331
95
-66
-29
163
370
561
873
1426
2112
2645
2841
2784
2680
2593
2395
1978
1419
911
560
317
122
4
27
170
304
325
251
182
177
204
199
131
17
-92
-152
-158
-159
-215
-331
-439
-465
-399
-301
-238
-218
-202
-177
-166
-182
-214
-238
-261
-311
-369
-383
-312
-193
-109
-99
-125
-129
-106
-102
-154
-238
-298
-304
-263
-195
-112
-35
6
1
-32
-56
-68
-92
-145
-219
-295
-354
-385
-391
-374
-374
-425
-509
-566
-568
-557
-602
-707
-798
-804
-742
-690
-706
-772
-825
-778
-616
-439
-373
-422
-459
-396
-317
-356
-473
-474
-310
-225
-415
-609
-221
951
2335
3108
3067
2792
2871
3169
3021
2067
660
-526
-1169
-1423
-1533
-1521
-1270
-783
-226
234
548
759
906
973
934
798
630
540
590
726
843
908
981
1082
1109
931
587
296
249
398
510
408
139
-126
-264
-274
-234
-207
-233
-317
-415
-471
-468
-448
-462
-520
-595
-666
-720
-739
-693
-601
-556
-634
-813
-996
-1114
-1176
-1228
-1283
-1331
-1371
-1404
-1412
-1380
-1338
-1334
-1377
-1408
-1383
-1333
-1335
-1410
-1496
-1532
-1529
-1521
-1530
-1580
-1672
-1766
-1782
-1695
-1592
-1596
-1703
-1782
-1756
-1711
-1773
-1888
-1840
-1527
-1142
-976
-1110
-1354
-1502
-1580
-1773
-2180
-2713
-3214
-3611
-3925
-4193
-4413
-4573
-4675
-4730
-4751
-4736
-4677
-4590
-4505
-4425
-4315
-4098
-3717
-3196
-2626
-2052
-1439
-751
-56
506
852
1012
1059
1012
843
556
224
-67
-285
-432
-503
-466
-304
-60
167
277
234
94
-32
-69
-45
-42
-85
-94
14
192
284
213
85
68
178
242
100
-210
-504
-677
-815
-1058
-1424
-1790
-2040
-2169
-2242
-2285
-2270
-2177
-2035
-1892
-1785
-1729
-1717
-1731
-1738
-1729
-1732
-1783
-1859
-1886
-1826
-1735
-1700
-1751
-1839
-1902
-1940
-1984
-2029
-2041
-2009
-1969
-1957
-1964
-1955
-1928
-1930
-1996
-2101
-2178
-2207
-2218
-2251
-2306
-2352
-2376
-2399
-2432
-2452
-2434
-2393
-2372
-2390
-2408
-2373
-2293
-2228
-2213
-2211
-2160
-2074
-2028
-2071
-2152
-2172
-2103
-2022
-2008
-2047
-2060
-2004
-1928
-1898
-1907
-1890
-1815
-1736
-1720
-1769
-1819
-1811
-1761
-1725
-1730
-1756
-1773
-1784
-1806
-1841
-1867
-1877
-1893
-1936
-2005
-2073
-2117
-2132
-2127
-2117
-2118
-2146
-2194
-2231
-2230
-2206
-2200
-2228
-2253
-2217
-2121
-2039
-2051
-2159
-2285
-2360
-2384
-2413
-2497
-2622
-2720
-2745
-2709
-2648
-2575
-2478
-2374
-2318
-2333
-2356
-2300
-2168
-2098
-2213
-2477
-2745
-2967
-3276
-3828
-4557
-5166
-5374
-5154
-4710
-4241
-3769
-3184
-2415
-1554
-811
-383
-311
-450
-587
-599
-517
-413
-295
-96
191
480
666
752
822
894
882
714
450
244
184
232
292
301
224
-25
-546
-1330
-2197
-2907
-3327
-3458
-3336
-2934
-2216
-1247
-207
729
1487
2051
2352
2280
1818
1160
604
328
286
347
476
776
1330
2028
2629
2945
2955
2755
2447
2076
1648
1191
771
465
304
246
194
92
-32
-110
-139
-182
-256
-275
-140
113
312
341
262
218
225
154
-103
-488
-847
-1100
-1279
-1423
-1491
-1436
-1280
-1113
-996
-913
-839
-791
-810
-898
-1010
-1107
-1185
-1247
-1281
-1272
-1247
-1261
-1352
-1505
-1658
-1754
-1764
-1700
-1590
-1460
-1323
-1180
-1045
-947
-916
-953
-1022
-1095
-1169
-1243
-1304
-1353
-1415
-1509
-1598
-1614
-1571
-1567
-1667
-1792
-1804
-1729
-1791
-2175
-2779
-3287
-3494
-3483
-3449
-3430
-3295
-2962
-2527
-2143
-1837
-1533
-1210
-952
-833
-793
-701
-488
-199
79
300
475
609
697
734
726
685
625
561
501
456
445
494
594
696
736
684
568
440
341
291
303
377
482
560
565
482
343
212
145
147
175
177
138
80
11
-80
-191
-279
-305
-299
-352
-502
-656
-678
-531
-320
-166
-70
68
312
612
871
1049
1173
1263
1301
1266
1190
1139
1142
1169
1159
1096
1015
953
919
902
897
901
910
910
892
870
875
913
954
960
936
914
902
873
815
788
879
1079
1228
1123
714
176
-242
-431
-474
-480
-410
-99
542
1389
2208
2851
3327
3679
3863
3785
3470
3105
2898
2878
2900
2857
2815
2927
3213
3505
3623
3566
3487
3485
3484
3383
3235
3202
3358
3576
3656
3528
3287
3068
2945
2940
3051
3257
3503
3769
4115
4623
5255
5824
6157
6238
6178
6062
5854
5493
5007
4496
4018
3577
3192
2941
2862
2884
2890
2852
2833
2888
2973
3007
2971
2903
2809
2657
2452
2264
2133
1995
1742
1378
1054
925
986
1079
1076
1003
995
1117
1280
1334
1210
992
829
777
738
583
297
14
-139
-173
-220
-359
-525
-603
-589
-611
-752
-937
-1022
-975
-922
-994
-1146
-1191
-1042
-848
-843
-1077
-1345
-1412
-1280
-1177
-1266
-1449
-1499
-1346
-1151
-1089
-1134
-1127
-1012
-915
-978
-1163
-1288
-1256
-1157
-1139
-1212
-1245
-1130
-919
-754
-710
-716
-661
-514
-343
-216
-132
-41
90
234
346
414
477
566
685
831
1028
1301
1622
1899
2055
2125
2233
2448
2687
2810
2778
2703
2719
2845
2995
3106
3198
3316
3437
3495
3466
3407
3391
3428
3461
3432
3342
3254
3236
3309
3434
3536
3567
3534
3488
3490
3556
3645
3695
3686
3667
3692
3760
3805
3780
3723
3705
3725
3689
3522
3284
3118
3086
3094
3002
2804
2633
2591
2643
2671
2623
2555
2534
2559
2575
2552
2506
2453
2396
2335
2282
2237
2175
2093
2031
2019
2018
1947
1800
1684
1704
1817
1866
1764
1609
1545
1580
1583
1469
1298
1184
1139
1077
966
901
964
1098
1156
1075
956
935
1028
1128
1145
1110
1097
1114
1095
1008
921
917
991
1056
1045
994
991
1046
1055
927
677
432
296
280
311
342
424
685
1199
1887
2526
2867
2812
2488
2122
1837
1554
1114
500
-95
-423
-380
-73
306
631
859
958
894
698
500
431
490
538
463
309
247
385
669
918
979
813
512
215
29
-42
-88
-211
-437
-675
-820
-840
-780
-706
-646
-593
-543
-507
-484
-457
-394
-286
-169
-125
-230
-479
-768
-1010
-1228
-1528
-1936
-2319
-2484
-2368
-2098
-1819
-1530
-1128
-590
-26
435
764
988
1098
1054
897
736
639
533
324
80
-3
160
396
430
209
-46
-101
16
71
-81
-307
-373
-247
-146
-295
-642
-888
-791
-427
-100
-18
-132
-233
-215
-136
-100
-130
-184
-246
-322
-356
-254
-11
193
144
-152
-412
-376
-67
242
343
288
277
430
684
907
1038
1095
1110
1100
1048
929
721
445
214
130
151
108
-78
-269
-251
8
292
397
377
447
683
901
907
738
616
666
774
743
556
383
388
581
831
988
987
890
850
980
1237
1437
1423
1266
1184
1308
1516
1568
1388
1162
1120
1289
1489
1551
1466
1327
1194
1061
954
952
1094
1280
1348
1265
1197
1337
1662
1908
1842
1514
1228
1230
1488
1758
1850
1796
1753
1809
1903
1904
1739
1462
1190
1022
961
925
830
690
629
763
1082
1441
1693
1801
1844
1909
1998
2040
1963
1774
1555
1388
1289
1199
1047
795
451
33
-432
-878
-1219
-1404
-1483
-1528
-1514
-1303
-786
-42
687
1214
1549
1822
2087
2261
2239
2036
1771
1539
1356
1211
1132
1150
1228
1285
1265
1188
1112
1063
1019
942
814
643
463
324
253
231
205
143
80
74
132
202
227
201
150
96
61
88
202
332
354
218
28
-61
-30
-14
-129
-326
-454
-445
-383
-381
-449
-528
-598
-688
-791
-834
-760
-612
-492
-440
-402
-302
-129
48
145
144
90
63
111
206
269
262
227
232
297
363
359
281
182
125
127
169
222
252
244
218
208
229
249
232
179
136
135
155
160
150
165
232
322
376
373
342
323
336
385
467
569
665
744
837
1006
1262
1529
1701
1742
1720
1738
1869
2078
2235
2212
2012
1793
1765
1975
2224
2273
2121
1985
1973
1860
1320
393
-450
-835
-954
-1362
-2260
-3153
-3350
-2722
-1822
-1224
-917
-435
516
1713
2697
3264
3575
3840
4049
4045
3782
3412
3144
3052
3018
2857
2526
2145
1882
1802
1790
1686
1458
1236
1155
1200
1223
1133
1006
1001
1168
1380
1454
1327
1092
901
830
852
897
916
895
840
746
623
494
389
338
351
396
407
331
191
96
127
224
189
-157
-792
-1489
-1998
-2246
-2348
-2428
-2469
-2347
-1989
-1477
-965
-550
-221
49
217
198
-26
-347
-604
-714
-737
-778
-866
-939
-944
-932
-1011
-1210
-1418
-1502
-1449
-1358
-1279
-1129
-792
-301
135
310
218
16
-191
-455
-860
-1372
-1866
-2256
-2545
-2742
-2800
-2720
-2648
-2756
-3041
-3319
-3462
-3602
-3967
-4550
-5050
-5168
-4902
-4483
-4061
-3567
-2884
-2076
-1352
-858
-581
-453
-469
-648
-947
-1256
-1498
-1676
-1812
-1891
-1880
-1792
-1681
-1588
-1534
-1526
-1569
-1654
-1756
-1852
-1920
-1945
-1908
-1822
-1753
-1764
-1855
-1944
-1962
-1939
-1963
-2081
-2245
-2369
-2426
-2455
-2490
-2518
-2514
-2483
-2457
-2454
-2467
-2485
-2517
-2572
-2652
-2738
-2814
-2876
-2921
-2943
-2946
-2942
-2942
-2948
-2954
-2969
-3006
-3070
-3146
-3212
-3260
-3309
-3374
-3430
-3401
-3218
-2890
-2515
-2222
-2071
-2038
-2081
-2214
-2486
-2895
-3352
-3729
-3960
-4069
-4104
-4078
-3960
-3747
-3502
-3317
-3235
-3227
-3225
-3199
-3166
-3153
-3137
-3070
-2941
-2798
-2702
-2681
-2717
-2796
-2934
-3146
-3389
-3582
-3671
-3678
-3668
-3679
-3694
-3683
-3649
-3630
-3642
-3658
-3636
-3574
-3514
-3509
-3556
-3602
-3600
-3553
-3501
-3475
-3455
-3408
-3326
-3241
-3181
-3140
-3102
-3056
-3020
-3007
-3013
-3017
-3002
-2960
-2891
-2806
-2721
-2643
-2557
-2443
-2294
-2135
-1999
-1892
-1787
-1655
-1502
-1359
-1248
-1161
-1080
-1018
-1025
-1123
-1279
-1427
-1526
-1591
-1649
-1695
-1689
-1617
-1526
-1484
-1509
-1559
-1600
-1656
-1791
-2025
-2300
-2519
-2633
-2651
-2586
-2412
-2102
-1681
-1228
-825
-515
-309
-226
-271
-387
-481
-543
-696
-1069
-1616
-2124
-2405
-2471
-2471
-2437
-2217
-1658
-834
5
718
1383
2122
2840
3249
3148
2641
2028
1514
1057
525
-88
-621
-898
-880
-670
-410
-187
-27
75
150
237
357
487
583
615
576
471
293
43
-251
-516
-704
-823
-923
-1027
-1109
-1137
-1112
-1063
-1013
-961
-911
-884
-898
-937
-959
-952
-936
-928
-910
-860
-799
-784
-844
-937
-986
-966
-932
-949
-1019
-1083
-1099
-1110
-1182
-1313
-1447
-1532
-1598
-1708
-1869
-2005
-2034
-1952
-1843
-1789
-1800
-1814
-1782
-1734
-1758
-1923
-2206
-2495
-2654
-2616
-2400
-2080
-1757
-1493
-1269
-998
-631
-262
-83
-192
-463
-658
-662
-579
-564
-629
-652
-536
-307
-49
178
348
433
433
409
412
397
274
58
-101
-106
-86
-256
-639
-984
-1014
-716
-334
-115
-75
-49
108
399
707
886
860
676
464
327
258
185
98
80
216
484
773
998
1171
1330
1453
1467
1319
1040
719
441
254
147
68
-21
-125
-212
-248
-252
-274
-339
-428
-507
-561
-597
-615
-597
-531
-420
-274
-114
20
101
141
195
306
432
492
469
440
482
572
610
549
463
459
557
675
729
719
701
710
735
742
708
649
613
645
753
893
1013
1123
1272
1484
1710
1874
1950
1986
2034
2090
2123
2125
2109
2105
2125
2170
2194
2114
1869
1515
1199
1026
957
883
792
809
1028
1392
1741
1985
2149
2274
2303
2179
1972
1853
1936
2182
2484
2825
3272
3832
4375
4731
4835
4757
4574
4274
3810
3226
2675
2320
2192
2192
2209
2215
2246
2323
2397
2410
2343
2225
2085
1945
1825
1745
1727
1761
1812
1847
1862
1871
1887
1892
1862
1820
1816
1875
1949
1943
1829
1704
1720
1927
2208
2361
2290
2081
1906
1866
1909
1892
1726
1447
1179
1057
1132
1347
1584
1713
1677
1526
1389
1344
1356
1311
1135
876
649
523
472
442
410
392
378
337
275
222
192
151
72
-13
-45
-19
12
0
-64
-164
-294
-441
-563
-619
-634
-693
-846
-1036
-1136
-1077
-922
-814
-834
-940
-1034
-1062
-1049
-1063
-1144
-1257
-1314
-1235
-1010
-718
-486
-399
-420
-427
-356
-272
-309
-497
-710
-785
-678
-493
-367
-328
-314
-283
-253
-270
-346
-456
-578
-686
-741
-724
-671
-642
-643
-593
-436
-245
-169
-266
-427
-481
-374
-222
-175
-252
-337
-313
-159
61
256
367
384
339
298
315
388
472
532
578
644
749
891
1077
1302
1514
1645
1686
1736
1922
2250
2586
2771
2781
2740
2769
2867
2929
2880
2755
2651
2624
2642
2657
2656
2653
2662
2697
2772
2880
2996
3086
3158
3272
3463
3670
3780
3754
3684
3705
3848
4007
4071
4043
4031
4108
4236
4290
4184
3937
3646
3406
3255
3146
3013
2852
2752
2812
3022
3264
3405
3418
3390
3403
3427
3358
3136
2828
2594
2556
2687
2842
2930
3030
3297
3766
4262
4556
4584
4464
4314
4097
3711
3161
2617
2225
1977
1765
1548
1404
1422
1586
1773
1867
1833
1727
1655
1699
1853
2013
2065
2006
1942
1966
2047
2057
1911
1666
1461
1371
1356
1340
1312
1320
1399
1507
1572
1565
1514
1462
1422
1367
1275
1152
1042
985
1005
1073
1122
1091
977
838
749
725
700
600
415
227
150
235
421
563
557
435
326
328
395
392
254
54
-92
-157
-214
-315
-435
-509
-548
-622
-742
-835
-821
-730
-674
-726
-852
-967
-1015
-1005
-979
-967
-976
-996
-1001
-977
-935
-915
-934
-968
-974
-941
-907
-886
-847
-739
-564
-386
-260
-184
-114
-21
71
123
124
106
116
168
247
337
442
566
684
744
718
640
597
633
708
742
701
635
620
679
765
792
704
523
336
253
317
446
484
365
205
195
390
613
629
404
137
39
106
161
76
-69
-100
42
225
279
191
96
110
191
190
20
-240
-429
-456
-360
-225
-110
-25
21
11
-32
-69
-93
-149
-281
-453
-565
-581
-557
-552
-519
-351
-44
229
272
76
-145
-173
-22
86
-37
-325
-518
-405
-23
386
621
703
801
1010
1227
1284
1156
994
942
976
951
801
631
573
633
704
721
727
790
881
921
889
845
833
839
844
879
986
1147
1349
1648
2130
2753
3311
3624
3724
3804
3950
4027
3844
3397
2859
2376
1971
1640
1439
1415
1482
1468
1325
1219
1341
1663
1939
1945
1691
1401
1278
1334
1418
1379
1207
1022
953
1020
1166
1323
1455
1523
1468
1295
1117
1080
1185
1289
1250
1088
947
935
1037
1180
1314
1416
1457
1423
1354
1297
1215
1002
605
87
-408
-748
-857
-738
-481
-239
-95
36
306
695
963
903
612
405
470
693
876
1013
1253
1647
2003
2106
1947
1694
1462
1225
945
704
620
704
865
1029
1204
1405
1579
1643
1582
1449
1307
1194
1168
1261
1368
1258
793
116
-458
-762
-935
-1197
-1523
-1632
-1295
-609
96
565
797
939
1078
1173
1156
1072
1068
1296
1778
2395
2982
3457
3838
4148
4313
4226
3887
3436
3029
2693
2364
2025
1783
1749
1886
2014
1982
1817
1675
1663
1729
1735
1614
1431
1308
1282
1275
1187
1012
832
721
677
635
551
434
328
275
287
342
407
462
526
630
777
923
1020
1051
1038
1003
944
863
799
786
809
816
779
747
797
928
1042
1051
976
936
1012
1156
1238
1190
1068
981
971
995
988
939
892
888
927
980
1033
1087
1150
1219
1276
1297
1278
1232
1167
1091
1005
909
817
752
720
710
683
624
592
674
890
1177
1458
1692
1807
1661
1171
496
-27
-231
-369
-835
-1633
-2233
-2091
-1223
-166
634
1231
1897
2610
2999
2786
2123
1405
857
450
137
30
281
869
1619
2384
3141
3848
4318
4365
4025
3586
3300
3126
2818
2282
1782
1668
1924
2139
1979
1638
1599
1983
2315
2028
1158
354
179
534
859
781
471
347
591
1047
1471
1763
1940
1991
1858
1557
1215
968
853
804
733
622
510
439
381
269
61
-229
-533
-791
-991
-1141
-1253
-1311
-1292
-1222
-1159
-1136
-1136
-1120
-1083
-1082
-1165
-1295
-1386
-1410
-1449
-1598
-1820
-1972
-1982
-1947
-2011
-2191
-2354
-2376
-2290
-2247
-2341
-2508
-2615
-2586
-2475
-2409
-2470
-2631
-2788
-2845
-2801
-2719
-2633
-2484
-2168
-1672
-1130
-719
-510
-438
-415
-434
-560
-825
-1156
-1427
-1551
-1534
-1445
-1344
-1263
-1216
-1207
-1231
-1278
-1360
-1508
-1745
-2035
-2269
-2353
-2292
-2194
-2163
-2196
-2189
-2063
-1844
-1653
-1563
-1542
-1504
-1422
-1344
-1309
-1292
-1236
-1151
-1124
-1201
-1324
-1385
-1384
-1474
-1780
-2222
-2558
-2625
-2517
-2443
-2460
-2400
-2084
-1571
-1122
-915
-876
-839
-792
-874
-1140
-1436
-1564
-1521
-1486
-1559
-1652
-1620
-1470
-1359
-1379
-1455
-1479
-1473
-1549
-1721
-1874
-1889
-1798
-1744
-1793
-1888
-1927
-1881
-1798
-1742
-1726
-1728
-1714
-1675
-1640
-1649
-1725
-1849
-1969
-2046
-2073
-2069
-2044
-2009
-1969
-1911
-1808
-1648
-1474
-1362
-1347
-1386
-1419
-1444
-1535
-1737
-1996
-2177
-2197
-2103
-1980
-1846
-1623
-1245
-760
-318
-45
44
-4
-153
-414
-786
-1203
-1599
-1952
-2286
-2600
-2825
-2887
-2812
-2724
-2757
-2944
-3203
-3430
-3578
-3662
-3713
-3762
-3819
-3876
-3902
-3872
-3800
-3729
-3711
-3735
-3729
-3613
-3371
-3074
-2825
-2661
-2533
-2390
-2243
-2159
-2164
-2211
-2258
-2297
-2374
-2510
-2629
-2646
-2563
-2469
-2428
-2405
-2326
-2212
-2187
-2333
-2599
-2880
-3213
-3793
-4755
-5931
-6934
-7464
-7524
-7265
-6719
-5770
-4387
-2813
-1429
-434
220
623
714
364
-368
-1177
-1763
-2043
-2128
-2124
-2054
-1974
-1956
-1992
-2011
-2011
-2146
-2579
-3244
-3844
-4158
-4245
-4291
-4329
-4264
-4109
-4086
-4340
-4687
-4775
-4496
-4101
-3857
-3722
-3427
-2837
-2128
-1575
-1293
-1226
-1302
-1507
-1827
-2193
-2525
-2800
-3019
-3180
-3278
-3338
-3389
-3415
-3405
-3395
-3449
-3592
-3786
-3950
-3999
-3880
-3581
-3157
-2728
-2406
-2218
-2124
-2094
-2121
-2180
-2198
-2133
-2029
-1979
-1998
-1994
-1890
-1712
-1559
-1497
-1499
-1498
-1467
-1444
-1467
-1531
-1584
-1591
-1559
-1534
-1551
-1585
-1569
-1475
-1351
-1278
-1309
-1417
-1525
-1580
-1598
-1632
-1743
-1938
-2153
-2311
-2383
-2432
-2518
-2597
-2548
-2329
-2085
-2034
-2249
-2574
-2802
-2882
-2926
-3032
-3143
-3131
-2936
-2604
-2201
-1749
-1264
-816
-511
-381
-371
-396
-417
-458
-552
-692
-821
-871
-841
-802
-853
-1034
-1259
-1408
-1460
-1528
-1717
-1972
-2117
-2070
-1968
-2041
-2376
-2808
-3090
-3107
-2940
-2758
-2639
-2511
-2255
-1811
-1280
-850
-680
-800
-1125
-1526
-1949
-2408
-2906
-3406
-3878
-4303
-4633
-4783
-4674
-4328
-3877
-3440
-2999
-2430
-1682
-862
-166
302
593
815
993
1038
863
505
105
-200
-386
-513
-622
-675
-608
-413
-181
-13
59
109
215
390
558
642
629
604
639
715
762
758
756
838
1002
1169
1266
1288
1283
1291
1299
1280
1226
1167
1133
1136
1158
1196
1256
1375
1565
1743
1781
1630
1421
1368
1503
1646
1574
1306
1077
1053
1124
1067
788
442
244
264
410
547
651
792
1043
1412
1787
1997
1957
1794
1732
1864
2065
2162
2148
2166
2280
2379
2324
2150
2049
2133
2288
2344
2279
2251
2416
2768
3196
3555
3716
3646
3422
3233
3212
3282
3261
3067
2837
2755
2851
3001
3094
3164
3296
3481
3630
3692
3709
3701
3621
3438
3223
3080
3020
2947
2835
2788
2949
3311
3678
3857
3838
3749
3714
3724
3696
3590
3445
3363
3411
3558
3715
3800
3811
3806
3813
3781
3650
3449
3264
3162
3111
3040
2955
2951
3077
3231
3270
3200
3202
3394
3637
3646
3354
3038
3043
3376
3690
3695
3501
3485
3795
4146
4137
3715
3242
3082
3198
3214
2902
2452
2265
2473
2797
2893
2729
2605
2746
3056
3282
3333
3325
3377
3470
3542
3617
3731
3763
3517
3045
2711
2799
3132
3240
2926
2564
2696
3371
4095
4383
4291
4249
4503
4855
5002
4945
4935
5098
5251
5166
4887
4668
4631
4625
4450
4139
3897
3845
3880
3828
3705
3698
3923
4248
4436
4430
4405
4546
4802
4936
4820
4621
4600
4780
4915
4806
4572
4491
4626
4746
4651
4436
4366
4526
4727
4758
4635
4501
4406
4266
4050
3855
3768
3741
3669
3537
3439
3419
3426
3413
3424
3497
3567
3521
3351
3194
3165
3192
3087
2772
2391
2170
2173
2235
2140
1861
1558
1407
1429
1493
1476
1355
1174
974
779
620
541
529
517
464
401
375
388
367
271
130
14
-66
-135
-196
-190
-65
123
244
222
105
14
16
58
37
-82
-224
-289
-236
-117
-6
98
238
413
542
533
419
351
421
563
644
632
626
702
771
684
435
193
116
179
249
289
378
545
680
688
631
643
709
633
291
-141
-340
-215
-28
-97
-399
-600
-473
-203
-182
-525
-914
-975
-735
-581
-772
-1105
-1150
-805
-437
-457
-829
-1126
-1046
-749
-658
-955
-1381
-1553
-1376
-1120
-1104
-1344
-1565
-1534
-1309
-1140
-1163
-1255
-1217
-1028
-861
-851
-924
-911
-775
-658
-696
-851
-942
-850
-660
-594
-776
-1065
-1137
-817
-328
-114
-334
-616
-461
115
529
313
-245
-434
3
548
576
156
-54
335
945
1107
669
98
-154
-128
-111
-155
-21
396
887
1230
1535
2098
2882
3390
3191
2488
1972
2040
2348
2225
1499
744
612
1113
1655
1716
1378
1095
1155
1434
1651
1685
1599
1479
1366
1300
1321
1373
1316
1096
841
720
756
813
804
801
931
1182
1363
1308
1085
934
1025
1270
1440
1392
1213
1108
1157
1262
1302
1268
1237
1215
1144
1033
987
1050
1091
939
635
413
438
613
707
642
545
530
557
529
452
398
366
297
187
124
165
216
144
-33
-163
-169
-138
-213
-407
-585
-580
-331
76
425
512
344
179
333
792
1159
1084
669
373
470
737
773
521
310
390
612
658
487
390
576
898
1065
1068
1157
1474
1827
1898
1649
1385
1404
1676
1896
1837
1567
1357
1383
1581
1724
1636
1365
1112
1023
1075
1126
1086
988
907
844
746
595
452
400
448
516
523
462
398
382
401
402
364
313
257
156
-18
-205
-291
-242
-151
-123
-140
-102
6
43
-129
-459
-747
-873
-921
-1052
-1266
-1375
-1190
-736
-225
139
317
392
449
511
557
563
515
444
439
628
1079
1683
2190
2385
2255
1955
1624
1257
791
267
-117
-145
243
926
1719
2499
3207
3795
4190
4323
4187
3848
3402
2938
2514
2186
1992
1939
2007
2146
2281
2336
2254
2036
1750
1485
1275
1091
923
829
902
1169
1559
1977
2379
2753
3062
3240
3247
3121
2933
2711
2423
2055
1655
1305
1072
967
957
997
1051
1098
1113
1066
931
735
577
557
675
812
845
761
668
669
737
755
661
514
432
461
535
570
562
571
630
693
697
632
554
517
512
494
443
367
283
204
143
123
161
239
317
366
386
401
452
558
700
803
790
678
589
648
834
995
1015
934
884
914
937
858
696
545
460
400
322
229
138
46
-53
-143
-193
-216
-269
-359
-415
-351
-149
139
449
731
931
996
924
780
661
617
620
621
629
743
1078
1642
2267
2682
2709
2379
1888
1417
1022
691
434
323
426
751
1264
1895
2548
3080
3366
3379
3191
2906
2590
2273
1971
1723
1572
1544
1608
1674
1629
1405
1035
623
262
-30
-278
-482
-593
-559
-389
-170
-14
14
-56
-139
-188
-233
-344
-547
-778
-944
-1007
-1020
-1053
-1131
-1215
-1251
-1242
-1244
-1303
-1405
-1502
-1565
-1593
-1591
-1568
-1537
-1514
-1510
-1522
-1547
-1589
-1635
-1651
-1643
-1680
-1810
-1929
-1813
-1358
-767
-389
-361
-462
-408
-219
-223
-672
-1445
-2185
-2660
-2923
-3130
-3317
-3394
-3307
-3124
-2943
-2792
-2636
-2468
-2342
-2312
-2370
-2459
-2504
-2471
-2381
-2274
-2163
-2031
-1874
-1728
-1638
-1598
-1558
-1498
-1457
-1470
-1493
-1425
-1216
-923
-623
-311
92
605
1121
1485
1635
1622
1505
1290
964
570
203
-67
-242
-360
-446
-510
-550
-575
-595
-624
-688
-809
-966
-1104
-1180
-1203
-1222
-1277
-1363
-1442
-1485
-1486
-1473
-1481
-1516
-1555
-1559
-1521
-1479
-1480
-1526
-1577
-1595
-1589
-1586
-1594
-1585
-1543
-1492
-1463
-1453
-1426
-1360
-1269
-1182
-1109
-1043
-989
-966
-973
-985
-976
-959
-980
-1071
-1214
-1339
-1376
-1311
-1205
-1142
-1160
-1216
-1249
-1253
-1296
-1440
-1663
-1879
-2024
-2113
-2206
-2313
-2380
-2355
-2247
-2123
-2046
-2016
-1990
-1944
-1891
-1861
-1867
-1889
-1897
-1881
-1851
-1822
-1798
-1773
-1738
-1691
-1633
-1578
-1546
-1527
-1499
-1448
-1387
-1345
-1327
-1309
-1267
-1206
-1154
-1131
-1128
-1126
-1121
-1111
-1094
-1086
-1118
-1211
-1333
-1417
-1433
-1429
-1493
-1650
-1830
-1938
-1957
-1958
-2014
-2113
-2194
-2226
-2254
-2327
-2422
-2453
-2389
-2298
-2273
-2305
-2308
-2266
-2295
-2509
-2855
-3159
-3346
-3541
-3857
-4163
-4195
-3905
-3592
-3604
-3921
-4155
-3992
-3527
-3089
-2805
-2458
-1790
-827
154
917
1431
1754
1912
1889
1706
1428
1106
761
422
160
56
129
316
493
510
252
-305
-1065
-1859
-2512
-2894
-2951
-2725
-2329
-1832
-1170
-234
918
1995
2685
2960
3076
3279
3544
3648
3466
3118
2814
2636
2509
2351
2172
2033
1949
1858
1695
1455
1195
983
827
654
402
107
-108
-173
-141
-96
7
320
900
1567
2022
2126
2001
1844
1712
1521
1206
836
530
336
239
226
297
407
476
450
368
296
246
172
69
-5
-11
16
2
-65
-116
-97
-45
-46
-126
-228
-300
-355
-453
-583
-671
-667
-619
-613
-652
-664
-594
-480
-413
-433
-489
-521
-532
-576
-694
-871
-1039
-1143
-1198
-1285
-1478
-1746
-1969
-2058
-2098
-2284
-2700
-3180
-3461
-3438
-3232
-2999
-2729
-2286
-1624
-867
-190
340
753
1055
1183
1091
850
589
380
202
9
-181
-312
-359
-367
-406
-501
-624
-739
-839
-940
-1037
-1103
-1132
-1165
-1249
-1372
-1468
-1494
-1469
-1449
-1448
-1427
-1348
-1227
-1116
-1046
-1010
-974
-910
-799
-623
-377
-84
211
468
671
819
936
1049
1185
1336
1454
1491
1463
1449
1508
1597
1595
1427
1152
914
789
720
607
438
300
264
302
308
219
83
-8
-31
-48
-105
-167
-160
-66
44
94
69
-7
-156
-429
-818
-1203
-1451
-1536
-1536
-1506
-1375
-1037
-479
170
764
1256
1668
1991
2167
2164
2034
1880
1756
1642
1501
1352
1279
1361
1585
1842
2001
2009
1933
1884
1899
1922
1890
1807
1744
1739
1758
1759
1759
1823
1942
2021
1960
1781
1637
1645
1770
1865
1824
1699
1640
1715
1851
1909
1840
1706
1598
1548
1532
1525
1528
1546
1572
1578
1563
1549
1563
1632
1787
2058
2468
2995
3584
4159
4636
4976
5192
5304
5285
5062
4633
4092
3607
3278
3048
2821
2606
2523
2670
2979
3255
3340
3246
3112
3067
3120
3181
3149
3002
2817
2705
2697
2733
2731
2680
2636
2659
2740
2804
2758
2568
2302
2085
1997
2000
1961
1811
1644
1648
1881
2143
2192
1976
1689
1574
1668
1803
1821
1728
1650
1674
1749
1766
1667
1502
1381
1336
1296
1156
928
750
749
887
989
936
791
699
698
695
614
514
510
615
705
662
491
296
148
21
-128
-282
-366
-323
-177
-3
154
301
444
544
518
338
99
-51
-39
53
89
27
-30
48
252
415
384
175
-48
-137
-108
-72
-84
-75
34
201
313
344
392
529
667
647
459
282
286
428
524
490
440
517
695
831
855
862
959
1117
1202
1148
1042
1022
1127
1276
1367
1366
1311
1254
1224
1218
1207
1163
1077
979
912
896
911
932
945
963
984
976
909
806
737
773
907
1055
1139
1160
1188
1294
1451
1555
1542
1449
1374
1355
1342
1298
1276
1352
1497
1572
1491
1333
1240
1231
1170
964
701
562
618
790
976
1172
1412
1653
1812
1872
1897
1928
1911
1785
1601
1491
1529
1661
1765
1779
1734
1690
1696
1768
1875
1943
1923
1856
1851
1949
2055
2020
1809
1553
1415
1454
1604
1797
2056
2462
3042
3724
4369
4823
5015
4976
4794
4533
4179
3711
3190
2742
2437
2219
2008
1830
1791
1896
1972
1858
1597
1403
1402
1494
1480
1289
1021
813
711
684
677
616
451
230
95
142
263
246
38
-159
-104
171
385
338
139
45
146
277
239
22
-209
-326
-356
-397
-468
-497
-447
-387
-426
-584
-763
-842
-798
-715
-686
-724
-771
-752
-643
-484
-368
-374
-498
-652
-734
-748
-784
-884
-976
-948
-796
-652
-645
-775
-943
-1065
-1131
-1168
-1208
-1282
-1403
-1544
-1601
-1479
-1215
-983
-944
-1078
-1211
-1186
-1026
-902
-939
-1079
-1142
-1020
-804
-651
-588
-470
-186
149
283
146
-15
109
518
860
819
501
325
541
934
1039
670
133
-97
119
462
524
248
-42
-17
319
671
798
730
663
720
851
965
1057
1164
1260
1243
1063
810
641
614
634
555
342
135
116
334
652
838
777
587
499
612
764
715
415
82
-21
141
379
490
458
388
361
382
428
481
507
460
360
306
426
740
1095
1290
1254
1106
1090
1345
1746
1970
1814
1452
1306
1596
2061
2233
1965
1606
1598
1964
2317
2347
2136
1961
1929
1920
1844
1770
1768
1743
1554
1250
1070
1163
1395
1502
1406
1295
1363
1574
1687
1507
1103
705
480
403
333
206
122
278
767
1464
2097
2454
2567
2656
2883
3155
3182
2783
2108
1537
1325
1379
1395
1218
985
917
1058
1233
1275
1198
1126
1095
1034
912
817
846
961
1004
886
699
616
711
888
1006
1008
949
901
868
798
669
521
435
470
620
812
942
928
753
493
264
138
108
105
104
169
410
846
1361
1786
2030
2128
2153
2133
2043
1889
1716
1577
1475
1382
1300
1295
1403
1543
1556
1375
1109
918
796
580
169
-307
-632
-820
-1161
-1880
-2807
-3495
-3656
-3391
-2941
-2347
-1472
-300
921
1888
2521
2947
3238
3307
3049
2524
1948
1514
1281
1197
1187
1200
1212
1243
1315
1395
1398
1293
1138
1015
944
889
854
901
1051
1202
1211
1055
866
776
780
761
667
583
621
773
913
944
907
899
954
1012
1022
1003
1018
1071
1096
1025
890
771
708
670
609
523
444
411
439
519
625
721
770
775
783
825
872
842
700
518
422
460
568
635
624
589
603
669
753
825
871
876
839
805
850
997
1171
1279
1329
1416
1583
1753
1822
1807
1814
1898
2043
2277
2668
3153
3447
3271
2711
2210
2112
2274
2269
1932
1572
1587
2002
2480
2745
2833
2909
2956
2805
2415
1976
1730
1735
1858
1975
2073
2181
2266
2252
2093
1804
1446
1086
797
638
629
765
1084
1642
2370
3004
3263
3111
2809
2607
2429
1963
1082
81
-587
-775
-750
-811
-907
-726
-103
767
1534
2014
2258
2398
2492
2548
2585
2636
2690
2703
2661
2614
2650
2818
3102
3409
3580
3497
3218
2957
2907
3062
3238
3272
3183
3105
3106
3129
3097
3003
2900
2824
2764
2704
2642
2580
2504
2423
2376
2382
2379
2288
2108
1949
1900
1917
1866
1690
1468
1321
1271
1251
1203
1128
1044
927
767
615
520
435
247
-97
-508
-854
-1095
-1306
-1557
-1822
-2043
-2226
-2414
-2611
-2775
-2903
-3050
-3270
-3548
-3807
-4000
-4121
-4172
-4141
-4045
-3965
-3977
-4079
-4195
-4268
-4317
-4395
-4511
-4635
-4742
-4817
-4838
-4774
-4618
-4420
-4224
-4037
-3843
-3670
-3583
-3585
-3589
-3520
-3421
-3432
-3618
-3861
-3979
-3949
-3909
-3973
-4105
-4173
-4132
-4066
-4061
-4098
-4101
-4060
-4025
-4025
-4012
-3921
-3751
-3536
-3290
-3007
-2724
-2506
-2372
-2271
-2147
-2029
-1994
-2048
-2112
-2126
-2130
-2203
-2340
-2437
-2419
-2334
-2300
-2365
-2440
-2415
-2268
-2063
-1871
-1698
-1497
-1238
-946
-678
-465
-297
-142
14
150
258
358
472
590
671
699
710
749
796
775
647
462
309
217
127
-18
-207
-390
-545
-695
-860
-1014
-1123
-1186
-1247
-1334
-1435
-1520
-1587
-1657
-1727
-1778
-1797
-1813
-1867
-1977
-2136
-2335
-2552
-2736
-2813
-2739
-2546
-2312
-2060
-1737
-1279
-720
-206
118
211
132
-42
-276
-559
-857
-1114
-1285
-1367
-1387
-1365
-1290
-1148
-946
-732
-573
-498
-484
-479
-469
-491
-575
-696
-787
-837
-912
-1092
-1375
-1676
-1904
-2043
-2148
-2277
-2449
-2655
-2874
-3083
-3251
-3360
-3428
-3508
-3646
-3840
-4049
-4229
-4364
-4468
-4566
-4662
-4738
-4783
-4803
-4821
-4826
-4779
-4658
-4509
-4404
-4359
-4320
-4262
-4260
-4415
-4707
-4979
-5120
-5218
-5469
-5907
-6291
-6321
-5949
-5424
-5000
-4671
-4229
-3560
-2809
-2232
-1941
-1840
-1796
-1805
-1950
-2240
-2561
-2779
-2861
-2878
-2892
-2913
-2925
-2928
-2925
-2891
-2786
-2599
-2363
-2116
-1856
-1565
-1227
-840
-422
-6
353
617
803
972
1168
1368
1526
1643
1785
1990
2208
2342
2354
2313
2312
2374
2441
2451
2405
2342
2285
2222
2147
2082
2047
2029
1989
1923
1863
1831
1809
1762
1699
1661
1660
1653
1605
1569
1659
1924
2266
2502
2516
2337
2070
1775
1425
966
395
-207
-726
-1090
-1288
-1357
-1340
-1262
-1139
-987
-835
-726
-695
-756
-878
-1002
-1089
-1131
-1134
-1096
-1002
-859
-718
-633
-600
-549
-424
-246
-91
-7
32
87
186
299
387
440
474
507
535
546
546
554
595
672
760
827
855
862
882
926
965
949
855
722
628
628
719
825
874
857
837
861
882
803
599
375
287
379
561
742
958
1306
1785
2246
2525
2588
2508
2329
2030
1619
1183
807
467
79
-350
-709
-909
-1003
-1111
-1260
-1353
-1294
-1076
-746
-308
246
859
1408
1805
2072
2260
2352
2303
2113
1860
1637
1491
1432
1448
1506
1553
1570
1602
1668
1648
1327
610
-318
-1114
-1575
-1771
-1886
-1947
-1765
-1162
-193
846
1645
2087
2259
2301
2250
2049
1668
1184
747
466
349
373
526
788
1078
1250
1202
971
687
425
184
-28
-122
3
331
706
980
1149
1320
1571
1857
2061
2108
2027
1923
1900
1985
2111
2174
2124
2015
1950
1984
2084
2181
2234
2246
2230
2207
2225
2331
2500
2620
2581
2385
2148
1973
1873
1796
1722
1683
1707
1766
1809
1826
1847
1883
1896
1858
1797
1779
1818
1836
1758
1619
1549
1611
1707
1681
1515
1385
1428
1572
1610
1457
1249
1119
1017
805
500
316
363
468
381
127
13
240
613
747
516
189
90
228
359
318
191
168
288
435
513
533
553
564
508
360
189
96
101
148
149
70
-24
-40
51
172
200
94
-62
-116
-5
188
309
262
68
-172
-362
-462
-488
-483
-482
-487
-463
-352
-146
86
244
279
217
114
2
-112
-201
-228
-196
-148
-118
-84
-13
65
79
5
-113
-228
-358
-517
-637
-613
-429
-195
7
253
676
1247
1744
1962
1929
1841
1805
1723
1448
988
518
189
4
-114
-198
-219
-151
-38
43
62
47
37
41
41
15
-24
-38
-19
-12
-74
-193
-286
-295
-274
-341
-543
-779
-902
-862
-756
-704
-726
-753
-731
-664
-594
-551
-545
-578
-639
-687
-695
-695
-735
-812
-858
-856
-906
-1137
-1538
-1967
-2293
-2540
-2794
-3026
-3077
-2834
-2351
-1796
-1271
-776
-310
73
314
435
511
564
557
489
437
465
536
539
451
371
412
547
619
503
264
97
137
321
476
500
453
447
511
562
536
456
383
319
227
123
113
255
450
519
431
359
510
857
1162
1224
1099
1015
1109
1281
1360
1296
1191
1167
1226
1280
1251
1148
1043
1019
1081
1141
1105
992
931
1001
1076
903
396
-202
-548
-593
-645
-1026
-1668
-2184
-2257
-1929
-1465
-1045
-663
-234
291
924
1630
2261
2594
2525
2250
2104
2190
2292
2136
1727
1331
1169
1237
1390
1547
1670
1683
1531
1303
1222
1398
1647
1662
1353
978
867
1088
1386
1473
1294
1059
1024
1260
1628
1895
1929
1788
1674
1754
2001
2203
2158
1894
1671
1719
1999
2214
2118
1795
1565
1641
1875
1953
1765
1540
1613
2016
2414
2478
2250
2086
2195
2351
2193
1712
1325
1379
1718
1904
1849
1986
2677
3654
4228
4099
3699
3609
3786
3634
2780
1597
792
634
740
620
260
54
278
781
1163
1186
935
638
467
425
396
261
-2
-280
-402
-319
-148
-14
146
525
1114
1544
1373
681
135
351
1117
1527
947
-203
-876
-534
310
738
443
-37
-69
342
705
702
514
465
578
584
305
-145
-487
-598
-572
-573
-657
-761
-814
-801
-748
-679
-595
-500
-460
-557
-773
-978
-1043
-957
-806
-676
-600
-597
-690
-850
-970
-959
-902
-1007
-1342
-1705
-1827
-1689
-1540
-1590
-1724
-1609
-1121
-581
-422
-719
-1071
-1063
-737
-506
-708
-1219
-1625
-1691
-1548
-1423
-1291
-974
-459
-31
17
-252
-433
-225
222
469
300
-40
-121
192
624
807
653
369
116
-154
-514
-823
-847
-585
-360
-462
-727
-693
-151
526
747
379
-140
-345
-291
-460
-1141
-2049
-2612
-2566
-2188
-1915
-1887
-1879
-1608
-994
-161
694
1414
1889
2101
2137
2139
2210
2320
2382
2307
2058
1678
1317
1184
1364
1678
1777
1494
1038
820
1026
1420
1574
1285
725
246
72
154
262
220
81
77
370
853
1233
1341
1304
1359
1518
1546
1268
821
497
390
350
240
150
269
628
1065
1407
1656
1893
2107
2227
2236
2187
2087
1859
1471
1051
809
827
973
1060
1093
1252
1675
2291
2870
3222
3327
3290
3213
3118
2958
2676
2240
1708
1229
938
820
709
470
179
58
212
524
789
957
1170
1536
1983
2340
2510
2520
2425
2253
2025
1786
1564
1354
1150
1008
998
1106
1217
1249
1224
1214
1226
1193
1078
934
847
839
851
843
825
820
806
748
672
668
793
977
1018
795
485
402
622
843
753
460
361
572
713
463
123
296
927
1060
-114
-2148
-3660
-3836
-3275
-3092
-3453
-3385
-2035
274
2439
3773
4468
4970
5296
5144
4448
3540
2772
2207
1718
1305
1129
1269
1626
2010
2272
2342
2216
1947
1629
1361
1210
1203
1305
1439
1504
1435
1256
1062
942
896
865
819
797
848
941
971
864
635
375
156
1
-87
-98
-36
60
133
152
122
74
51
89
185
269
238
60
-145
-176
35
353
577
652
682
754
825
811
738
712
741
712
584
522
736
1180
1544
1578
1353
1140
1048
901
478
-194
-879
-1387
-1723
-1978
-2168
-2234
-2175
-2078
-2033
-2041
-2047
-2025
-2013
-2047
-2122
-2213
-2305
-2403
-2505
-2589
-2645
-2691
-2770
-2917
-3112
-3287
-3372
-3357
-3293
-3241
-3217
-3197
-3160
-3120
-3108
-3136
-3199
-3271
-3343
-3412
-3466
-3489
-3489
-3483
-3481
-3479
-3488
-3550
-3701
-3891
-4003
-3949
-3758
-3522
-3256
-2863
-2262
-1533
-887
-487
-313
-245
-231
-333
-610
-1000
-1358
-1589
-1715
-1804
-1870
-1864
-1763
-1615
-1513
-1496
-1527
-1551
-1557
-1564
-1574
-1545
-1436
-1260
-1083
-946
-820
-649
-426
-212
-71
-14
-2
-3
-14
-37
-57
-60
-57
-69
-89
-72
3
92
118
43
-88
-197
-259
-308
-390
-507
-620
-703
-760
-813
-868
-930
-1000
-1082
-1166
-1232
-1274
-1307
-1342
-1376
-1401
-1432
-1494
-1592
-1703
-1801
-1886
-1979
-2080
-2178
-2266
-2356
-2456
-2544
-2585
-2580
-2573
-2603
-2664
-2708
-2701
-2650
-2593
-2554
-2524
-2484
-2427
-2364
-2321
-2314
-2327
-2324
-2276
-2199
-2142
-2129
-2137
-2111
-2028
-1914
-1814
-1744
-1690
-1634
-1577
-1524
-1471
-1414
-1357
-1312
-1286
-1273
-1260
-1247
-1243
-1249
-1248
-1236
-1235
-1273
-1342
-1398
-1404
-1373
-1353
-1370
-1392
-1375
-1325
-1293
-1311
-1355
-1374
-1352
-1324
-1335
-1402
-1498
-1583
-1631
-1654
-1692
-1779
-1907
-2024
-2098
-2155
-2248
-2394
-2542
-2642
-2694
-2748
-2830
-2918
-2982
-3025
-3056
-3047
-2961
-2830
-2740
-2741
-2771
-2746
-2663
-2605
-2641
-2754
-2881
-2988
-3061
-3085
-3065
-3056
-3111
-3212
-3284
-3333
-3488
-3838
-4260
-4477
-4330
-3920
-3437
-2907
-2193
-1232
-171
771
1487
1993
2293
2335
2104
1712
1335
1058
842
629
417
224
33
-197
-466
-706
-844
-868
-837
-798
-697
-419
80
659
1057
1105
855
499
144
-267
-818
-1426
-1879
-2031
-1954
-1827
-1720
-1518
-1116
-632
-374
-588
-1242
-2079
-2846
-3446
-3894
-4151
-4072
-3534
-2574
-1371
-126
1043
2058
2813
3193
3158
2792
2254
1674
1120
638
287
99
56
87
118
109
50
-69
-266
-543
-842
-1053
-1104
-1036
-967
-981
-1054
-1140
-1282
-1568
-1979
-2340
-2505
-2557
-2730
-3113
-3509
-3637
-3445
-3140
-2920
-2741
-2412
-1860
-1218
-681
-333
-149
-82
-115
-226
-369
-508
-657
-829
-997
-1086
-1055
-948
-844
-786
-757
-709
-630
-557
-529
-541
-555
-552
-547
-562
-597
-652
-743
-862
-944
-917
-789
-644
-528
-374
-126
95
31
-443
-1135
-1685
-1914
-1942
-1954
-1924
-1657
-1064
-303
403
975
1467
1882
2105
2045
1782
1504
1313
1157
955
730
569
505
480
417
306
192
101
19
-71
-153
-181
-139
-64
-16
-39
-151
-336
-546
-718
-808
-826
-809
-769
-699
-625
-650
-889
-1351
-1897
-2329
-2533
-2533
-2421
-2261
-2035
-1693
-1216
-667
-175
155
324
446
629
875
1108
1297
1500
1777
2085
2302
2351
2272
2152
2026
1865
1673
1503
1409
1389
1412
1473
1599
1785
1948
1980
1845
1626
1455
1411
1471
1556
1602
1598
1569
1528
1455
1332
1205
1168
1284
1517
1755
1951
2193
2622
3224
3799
4142
4233
4201
4142
4015
3739
3340
2942
2622
2361
2129
1968
1946
2048
2181
2276
2341
2414
2504
2591
2689
2822
2982
3104
3131
3067
2968
2891
2858
2853
2845
2818
2794
2842
2992
3197
3341
3333
3208
3076
2986
2856
2611
2315
2142
2184
2320
2354
2267
2245
2419
2659
2693
2441
2130
2027
2132
2195
2049
1796
1677
1801
2053
2228
2194
1971
1704
1560
1595
1677
1589
1268
887
675
686
761
730
579
382
179
-42
-273
-479
-647
-804
-943
-1008
-955
-830
-709
-618
-540
-497
-564
-759
-1002
-1190
-1317
-1446
-1595
-1687
-1653
-1532
-1427
-1393
-1391
-1363
-1303
-1256
-1263
-1324
-1400
-1430
-1349
-1158
-927
-738
-612
-508
-391
-287
-227
-185
-79
128
365
542
659
809
1034
1243
1305
1214
1115
1138
1259
1344
1324
1283
1359
1580
1834
1982
1989
1943
1949
2018
2056
1959
1716
1428
1220
1154
1173
1188
1167
1152
1188
1263
1333
1375
1409
1444
1449
1396
1319
1301
1395
1560
1712
1804
1870
1955
2059
2143
2172
2138
2039
1882
1667
1454
1323
1290
1279
1199
1074
1032
1135
1279
1314
1261
1293
1449
1467
1022
142
-730
-1162
-1161
-1089
-1157
-1147
-675
344
1605
2725
3529
4046
4325
4377
4218
3885
3404
2826
2302
2021
2073
2337
2646
2995
3493
4129
4675
4873
4700
4377
4135
4016
3892
3653
3316
2988
2765
2664
2644
2638
2611
2580
2582
2608
2593
2474
2274
2102
2042
2053
2001
1815
1576
1452
1524
1677
1731
1632
1525
1586
1819
2050
2122
2047
1968
1973
2013
1997
1932
1908
1943
1938
1787
1525
1324
1298
1377
1369
1186
976
1003
1352
1808
2047
1959
1754
1708
1852
1954
1821
1540
1365
1395
1452
1347
1164
1157
1392
1597
1494
1171
978
1077
1223
1068
607
171
5
-19
-180
-512
-757
-710
-463
-249
-143
-17
225
485
605
565
496
495
498
391
184
20
35
199
360
409
371
349
398
490
578
662
763
867
926
953
1050
1290
1577
1702
1583
1384
1364
1599
1896
2002
1863
1668
1657
1877
2145
2220
2041
1799
1749
1943
2152
2088
1737
1420
1449
1771
1991
1786
1251
822
824
1154
1442
1450
1302
1291
1506
1747
1772
1563
1290
1063
813
433
-18
-335
-385
-242
-90
-17
26
91
184
285
377
416
301
-31
-473
-800
-877
-763
-626
-572
-588
-619
-631
-564
-316
129
622
946
1051
1123
1357
1689
1881
1837
1745
1824
2018
2047
1784
1459
1397
1612
1771
1608
1288
1163
1322
1508
1459
1226
1040
933
712
303
-15
91
569
1002
1118
1150
1533
2326
3097
3388
3216
2969
2874
2744
2306
1592
944
635
600
583
445
274
208
236
234
143
55
83
218
332
306
181
108
158
239
211
78
-22
1
56
-31
-251
-403
-314
-74
38
-110
-331
-335
-83
124
-19
-432
-721
-616
-266
-55
-167
-400
-440
-216
57
142
26
-119
-165
-133
-104
-113
-137
-158
-203
-288
-383
-434
-415
-368
-354
-418
-539
-633
-625
-506
-360
-321
-457
-694
-883
-948
-981
-1141
-1455
-1758
-1864
-1769
-1638
-1576
-1503
-1302
-1058
-1025
-1337
-1823
-2182
-2310
-2348
-2420
-2410
-2080
-1364
-462
377
1063
1636
2075
2248
2055
1572
998
487
91
-167
-229
-47
345
833
1308
1714
2020
2184
2164
1982
1731
1511
1369
1290
1240
1190
1131
1065
1008
982
998
1040
1070
1059
1005
928
843
759
692
663
677
705
716
704
700
721
747
732
664
575
504
450
384
303
243
236
268
290
291
308
371
447
472
433
390
416
504
591
634
659
716
799
860
879
887
920
966
997
1026
1095
1213
1304
1293
1191
1091
1048
1007
889
703
563
562
668
775
831
878
963
1064
1123
1134
1147
1218
1326
1403
1413
1367
1282
1158
1004
869
807
821
880
987
1207
1601
2144
2743
3310
3790
4124
4249
4166
4001
3902
3883
3822
3614
3330
3138
3109
3128
3029
2779
2481
2232
2017
1767
1455
1149
924
795
719
640
534
409
292
213
186
205
262
354
465
585
719
841
905
894
847
806
727
518
199
-69
-182
-275
-566
-973
-1029
-345
847
1821
2077
1831
1682
1867
1992
1534
464
-744
-1587
-1932
-1939
-1787
-1550
-1275
-1019
-806
-614
-441
-362
-469
-729
-1013
-1208
-1286
-1295
-1281
-1265
-1259
-1291
-1398
-1594
-1852
-2106
-2288
-2334
-2210
-1959
-1700
-1545
-1513
-1524
-1501
-1457
-1458
-1515
-1573
-1597
-1629
-1727
-1863
-1937
-1897
-1803
-1747
-1747
-1753
-1739
-1740
-1793
-1892
-2007
-2125
-2258
-2408
-2548
-2657
-2739
-2810
-2875
-2938
-3002
-3068
-3122
-3150
-3175
-3239
-3357
-3489
-3590
-3676
-3829
-4125
-4562
-5056
-5517
-5908
-6249
-6559
-6805
-6921
-6867
-6668
-6375
-6030
-5667
-5340
-5110
-5001
-4980
-4997
-5039
-5121
-5229
-5295
-5268
-5177
-5092
-5040
-4963
-4791
-4539
-4318
-4223
-4233
-4225
-4105
-3888
-3666
-3477
-3251
-2890
-2401
-1923
-1588
-1397
-1233
-999
-726
-529
-484
-551
-627
-636
-575
-486
-401
-329
-259
-197
-173
-224
-353
-526
-714
-926
-1193
-1507
-1811
-2037
-2170
-2247
-2297
-2314
-2289
-2246
-2205
-2147
-2047
-1942
-1927
-2046
-2196
-2195
-1965
-1613
-1301
-1053
-743
-283
219
542
570
384
130
-157
-553
-1097
-1704
-2235
-2618
-2887
-3097
-3253
-3334
-3345
-3318
-3284
-3239
-3171
-3096
-3036
-2985
-2909
-2784
-2648
-2577
-2612
-2705
-2767
-2754
-2708
-2703
-2757
-2817
-2823
-2761
-2666
-2571
-2494
-2440
-2412
-2399
-2380
-2340
-2285
-2234
-2195
-2168
-2150
-2145
-2140
-2103
-2022
-1920
-1840
-1807
-1797
-1778
-1744
-1710
-1689
-1668
-1618
-1551
-1524
-1586
-1735
-1910
-2061
-2206
-2404
-2681
-3003
-3310
-3586
-3853
-4117
-4344
-4502
-4612
-4732
-4905
-5111
-5301
-5441
-5535
-5603
-5666
-5744
-5838
-5917
-5956
-5947
-5918
-5890
-5856
-5790
-5693
-5602
-5541
-5485
-5378
-5190
-4963
-4764
-4634
-4553
-4472
-4355
-4210
-4074
-3970
-3887
-3796
-3681
-3552
-3429
-3297
-3120
-2901
-2710
-2627
-2642
-2671
-2641
-2577
-2560
-2623
-2699
-2718
-2693
-2692
-2745
-2798
-2791
-2733
-2687
-2711
-2800
-2909
-2979
-2970
-2877
-2727
-2575
-2453
-2342
-2204
-2025
-1825
-1615
-1396
-1182
-994
-847
-710
-543
-346
-161
-23
94
225
357
445
479
509
599
753
905
992
1011
1013
1043
1092
1129
1134
1119
1105
1093
1063
1003
936
906
920
936
906
830
750
701
665
593
497
447
486
572
621
616
614
673
777
857
877
852
794
676
476
229
11
-142
-282
-475
-701
-842
-788
-538
-207
117
457
910
1507
2132
2605
2814
2790
2627
2377
2037
1604
1108
601
135
-230
-429
-434
-298
-137
-37
-6
-6
-15
-35
-57
-71
-81
-113
-171
-212
-176
-57
87
193
238
261
304
378
463
540
612
698
810
923
1007
1059
1106
1176
1261
1320
1329
1308
1308
1342
1383
1407
1428
1479
1567
1657
1718
1766
1833
1906
1931
1876
1758
1609
1427
1202
972
821
799
868
959
1061
1224
1470
1739
1941
2048
2092
2095
2028
1867
1653
1467
1350
1282
1223
1177
1169
1200
1249
1294
1334
1374
1403
1411
1411
1423
1439
1429
1383
1341
1343
1385
1426
1447
1465
1495
1521
1540
1594
1712
1814
1731
1378
884
503
371
385
360
270
291
610
1223
1939
2549
2978
3277
3512
3660
3640
3418
3098
2861
2803
2850
2857
2777
2717
2782
2922
2949
2741
2376
2044
1869
1816
1777
1716
1694
1789
2004
2238
2352
2296
2184
2163
2247
2290
2152
1895
1753
1875
2147
2317
2295
2248
2387
2699
2958
2982
2841
2757
2852
3045
3163
3134
3022
2958
3022
3193
3385
3507
3522
3480
3467
3534
3668
3809
3915
3975
3991
3959
3907
3876
3863
3795
3609
3347
3129
3042
3072
3142
3202
3255
3281
3231
3099
2950
2842
2743
2568
2320
2151
2225
2537
2916
3199
3357
3452
3503
3433
3185
2817
2452
2154
1871
1530
1159
888
813
893
982
967
855
730
681
728
831
923
949
889
784
699
659
610
485
271
22
-191
-325
-367
-331
-252
-169
-99
-39
1
4
5
85
281
489
530
361
153
96
174
183
-11
-310
-516
-572
-576
-592
-565
-426
-218
-50
44
125
238
350
427
490
557
569
451
238
71
29
26
-76
-293
-505
-578
-497
-322
-94
170
446
692
902
1118
1375
1621
1754
1731
1619
1534
1525
1543
1520
1456
1417
1455
1544
1610
1593
1516
1443
1423
1447
1463
1438
1394
1373
1393
1438
1486
1535
1587
1618
1606
1558
1507
1459
1362
1150
831
492
219
10
-205
-454
-667
-723
-565
-257
77
354
562
738
903
1047
1131
1104
961
760
593
523
527
507
405
265
187
197
203
102
-79
-203
-183
-100
-109
-238
-345
-300
-136
-3
31
59
193
414
593
658
687
795
978
1128
1179
1188
1262
1436
1647
1808
1909
2012
2176
2395
2616
2774
2851
2895
2968
3082
3158
3098
2922
2791
2859
3103
3330
3377
3284
3245
3394
3646
3787
3695
3446
3237
3186
3225
3179
2936
2547
2196
2042
2081
2166
2163
2093
2128
2418
2923
3438
3755
3799
3638
3388
3117
2808
2383
1774
1014
274
-208
-328
-216
-124
-205
-408
-573
-600
-528
-479
-541
-706
-877
-931
-807
-575
-389
-334
-345
-283
-95
118
226
199
96
-29
-170
-320
-425
-441
-402
-389
-429
-476
-467
-399
-324
-307
-364
-482
-633
-788
-908
-977
-998
-973
-902
-803
-717
-672
-637
-557
-449
-420
-567
-836
-1040
-1055
-927
-830
-854
-949
-1029
-1070
-1091
-1071
-1008
-1007
-1197
-1556
-1846
-1835
-1539
-1211
-1066
-1087
-1070
-856
-477
-118
24
-110
-358
-448
-237
128
357
331
228
304
597
902
1047
1070
1112
1201
1260
1221
1125
1071
1102
1190
1288
1347
1325
1209
1082
1076
1245
1503
1717
1823
1878
1947
1996
1950
1799
1615
1448
1245
961
722
745
1071
1428
1485
1257
1106
1304
1670
1792
1556
1273
1250
1397
1398
1172
965
972
1069
1030
877
823
918
974
885
814
952
1186
1196
886
542
469
625
737
675
588
638
786
910
1008
1170
1346
1347
1111
858
878
1182
1478
1505
1304
1126
1113
1186
1227
1234
1262
1304
1296
1254
1324
1591
1905
2005
1814
1565
1536
1722
1855
1732
1497
1473
1774
2153
2279
2099
1834
1673
1541
1247
791
414
326
462
595
670
918
1551
2383
2932
2905
2507
2204
2194
2199
1836
1094
324
-151
-328
-407
-484
-491
-366
-196
-129
-171
-208
-159
-69
-38
-114
-262
-402
-464
-416
-280
-166
-167
-251
-275
-167
-32
-37
-195
-333
-324
-270
-368
-632
-842
-804
-596
-466
-537
-665
-651
-488
-340
-333
-437
-541
-599
-632
-648
-601
-461
-261
-47
187
470
785
1048
1184
1198
1144
1062
953
825
694
574
458
357
322
380
476
499
395
247
185
227
259
176
11
-104
-99
-43
-59
-176
-307
-352
-302
-236
-218
-239
-238
-183
-97
-36
-29
-44
-29
38
119
161
156
151
186
253
313
351
377
412
444
448
429
407
394
371
326
289
305
377
443
451
412
380
358
254
-34
-482
-913
-1149
-1175
-1129
-1122
-1088
-870
-422
101
494
669
685
612
459
232
-18
-235
-427
-631
-800
-818
-636
-366
-185
-152
-178
-168
-116
-70
-39
12
89
170
254
377
543
693
773
813
893
1036
1174
1224
1192
1153
1160
1191
1209
1200
1180
1146
1113
1156
1363
1724
2061
2202
2157
2064
1995
1908
1822
1871
2085
2118
1511
301
-852
-1358
-1483
-2168
-3909
-5997
-7145
-6805
-5644
-4660
-4041
-3108
-1299
1073
3159
4439
5080
5512
5865
5937
5587
4960
4340
3861
3424
2911
2328
1797
1418
1171
970
769
600
517
531
598
658
682
682
683
679
626
488
313
231
327
564
818
1016
1196
1430
1695
1884
1920
1821
1679
1549
1421
1281
1147
1059
1018
973
880
753
658
650
698
702
583
354
117
-39
-101
-115
-96
-16
138
298
369
329
238
160
76
-60
-238
-391
-490
-597
-793
-1060
-1285
-1396
-1444
-1556
-1808
-2149
-2459
-2663
-2793
-2942
-3173
-3450
-3670
-3768
-3782
-3810
-3909
-4033
-4110
-4143
-4205
-4350
-4546
-4722
-4856
-4996
-5183
-5390
-5544
-5608
-5612
-5606
-5622
-5644
-5643
-5606
-5548
-5499
-5488
-5525
-5581
-5613
-5588
-5520
-5441
-5368
-5278
-5136
-4938
-4713
-4492
-4284
-4074
-3855
-3650
-3492
-3387
-3302
-3196
-3062
-2932
-2832
-2748
-2636
-2467
-2264
-2083
-1954
-1866
-1779
-1676
-1560
-1457
-1388
-1361
-1373
-1399
-1417
-1417
-1419
-1441
-1467
-1476
-1466
-1463
-1476
-1478
-1436
-1367
-1328
-1336
-1338
-1279
-1176
-1100
-1080
-1064
-978
-818
-658
-555
-497
-438
-371
-328
-332
-359
-369
-354
-341
-345
-348
-319
-257
-204
-199
-240
-290
-324
-360
-435
-558
-681
-756
-792
-847
-948
-1070
-1166
-1210
-1207
-1168
-1100
-1029
-1003
-1068
-1232
-1469
-1715
-1882
-1910
-1815
-1673
-1516
-1282
-883
-348
155
462
541
460
262
-70
-526
-1003
-1387
-1667
-1903
-2115
-2238
-2222
-2125
-2073
-2126
-2232
-2315
-2373
-2454
-2576
-2703
-2784
-2812
-2827
-2865
-2926
-2987
-3048
-3130
-3254
-3397
-3517
-3589
-3643
-3722
-3834
-3946
-4036
-4118
-4209
-4292
-4335
-4346
-4378
-4473
-4604
-4708
-4749
-4747
-4735
-4724
-4711
-4704
-4720
-4743
-4729
-4670
-4620
-4658
-4780
-4893
-4931
-4937
-5016
-5191
-5358
-5415
-5399
-5442
-5585
-5711
-5713
-5659
-5720
-5930
-6113
-6123
-6065
-6184
-6532
-6847
-6828
-6468
-6023
-5689
-5388
-4938
-4309
-3656
-3124
-2714
-2385
-2178
-2165
-2322
-2501
-2581
-2575
-2566
-2590
-2604
-2561
-2476
-2395
-2322
-2233
-2120
-2017
-1963
-1957
-1962
-1939
-1872
-1775
-1680
-1623
-1618
-1654
-1708
-1764
-1826
-1891
-1958
-2023
-2086
-2151
-2232
-2349
-2500
-2646
-2755
-2858
-3011
-3193
-3294
-3274
-3290
-3536
-3935
-4137
-3926
-3575
-3628
-4259
-4994
-5192
-4722
-4034
-3551
-3187
-2554
-1545
-496
210
552
781
1033
1179
1062
756
511
495
673
916
1130
1283
1349
1300
1151
961
773
582
358
113
-97
-217
-245
-224
-209
-225
-275
-369
-521
-707
-856
-887
-794
-685
-686
-834
-1041
-1187
-1256
-1350
-1544
-1749
-1793
-1623
-1370
-1222
-1238
-1332
-1444
-1656
-2081
-2657
-3124
-3207
-2848
-2230
-1578
-957
-239
719
1882
3018
3832
4170
4108
3869
3643
3471
3253
2892
2413
1949
1637
1504
1462
1412
1325
1224
1121
1017
948
962
1076
1222
1292
1239
1122
1031
986
942
870
814
829
892
904
796
610
460
400
393
375
324
278
266
271
264
254
267
304
327
308
270
261
284
297
268
217
183
174
165
134
94
58
1
-83
-154
-172
-169
-235
-418
-668
-907
-1131
-1374
-1605
-1725
-1721
-1755
-2017
-2493
-2940
-3110
-2976
-2697
-2386
-1990
-1391
-578
326
1158
1811
2228
2376
2258
1947
1565
1213
946
754
614
555
617
808
1070
1296
1423
1480
1528
1572
1572
1548
1606
1830
2137
2341
2347
2250
2214
2272
2317
2271
2213
2276
2482
2711
2836
2836
2781
2723
2671
2623
2591
2584
2581
2560
2565
2658
2833
3029
3212
3428
3738
4110
4420
4603
4726
4897
5123
5285
5265
5062
4750
4386
3971
3513
3047
2608
2183
1758
1400
1218
1246
1398
1538
1598
1607
1632
1692
1775
1845
1883
1888
1873
1881
1975
2159
2361
2483
2479
2393
2314
2284
2256
2143
1939
1745
1678
1747
1859
1934
1993
2080
2172
2185
2110
2036
2036
2069
2038
1923
1836
1903
2129
2396
2589
2669
2649
2533
2309
1993
1665
1432
1369
1462
1639
1873
2224
2763
3418
3945
4123
3934
3575
3244
2967
2640
2225
1815
1543
1455
1504
1624
1757
1822
1725
1447
1089
791
599
430
188
-91
-245
-140
176
503
678
722
780
923
1063
1066
921
766
724
772
790
725
655
678
781
864
861
805
772
782
788
759
728
757
854
965
1047
