23
-30
-52
-49
-42
-53
-100
-180
-264
-309
-312
-323
-385
-465
-476
-387
-286
-279
-350
-365
-239
-48
49
-6
-126
-208
-254
-342
-510
-708
-872
-983
-1055
-1093
-1096
-1082
-1066
-1035
-960
-860
-795
-809
-867
-889
-842
-773
-739
-741
-733
-685
-609
-531
-466
-415
-378
-353
-322
-262
-165
-46
70
171
266
365
450
490
474
423
370
314
224
79
-86
-200
-226
-194
-160
-148
-130
-82
-24
-3
-29
-68
-87
-98
-130
-183
-219
-202
-146
-92
-69
-68
-66
-51
-22
31
105
166
164
77
-53
-162
-222
-260
-299
-310
-224
-24
219
400
454
399
291
173
49
-100
-290
-505
-684
-736
-606
-348
-98
39
71
85
132
176
145
31
-105
-208
-266
-292
-292
-271
-259
-295
-378
-451
-466
-452
-486
-603
-746
-827
-820
-789
-814
-900
-984
-1004
-960
-891
-822
-754
-693
-667
-693
-724
-693
-587
-481
-462
-530
-584
-535
-403
-279
-233
-239
-219
-144
-50
13
18
-16
-55
-83
-116
-179
-275
-385
-488
-582
-673
-756
-817
-869
-946
-1043
-1077
-926
-551
-64
365
667
950
1365
1920
2431
2680
2620
2407
2227
2115
1963
1680
1310
984
768
615
453
284
155
81
13
-101
-247
-370
-438
-467
-480
-481
-470
-470
-506
-571
-639
-688
-725
-758
-792
-836
-912
-1024
-1122
-1139
-1070
-998
-1015
-1115
-1195
-1175
-1084
-1020
-1025
-1040
-991
-886
-798
-770
-776
-785
-804
-864
-947
-1001
-1005
-1003
-1041
-1106
-1137
-1106
-1051
-1019
-1009
-992
-970
-974
-1015
-1041
-996
-888
-790
-762
-782
-780
-724
-655
-637
-684
-763
-839
-910
-981
-1048
-1103
-1157
-1220
-1268
-1254
-1172
-1091
-1094
-1184
-1257
-1208
-1056
-931
-940
-1065
-1195
-1269
-1336
-1475
-1680
-1863
-1964
-2014
-2072
-2115
-2057
-1866
-1632
-1494
-1494
-1550
-1565
-1519
-1466
-1452
-1476
-1511
-1526
-1488
-1360
-1153
-948
-837
-829
-825
-721
-522
-317
-175
-60
101
326
543
668
686
642
569
462
316
166
71
59
103
167
239
335
455
569
649
695
735
785
830
838
802
753
728
740
772
807
851
921
1012
1094
1145
1183
1255
1366
1475
1537
1566
1616
1710
1804
1846
1843
1849
1892
1921
1876
1769
1684
1681
1727
1751
1743
1761
1831
1884
1833
1689
1558
1516
1523
1480
1364
1244
1188
1187
1203
1235
1284
1302
1222
1069
970
1020
1166
1268
1255
1190
1169
1210
1262
1288
1292
1268
1189
1051
895
764
650
525
381
245
128
24
-57
-84
-58
-40
-82
-143
-140
-72
-61
-252
-651
-1093
-1402
-1557
-1684
-1897
-2168
-2350
-2345
-2211
-2110
-2121
-2142
-1975
-1540
-979
-532
-289
-80
349
1051
1775
2202
2243
2100
2017
2012
1901
1535
988
476
133
-61
-187
-279
-347
-424
-548
-720
-891
-1034
-1165
-1294
-1371
-1354
-1274
-1197
-1130
-1003
-770
-504
-333
-299
-329
-335
-309
-298
-314
-321
-300
-277
-282
-291
-259
-197
-180
-277
-456
-601
-629
-567
-518
-558
-664
-750
-747
-672
-590
-545
-514
-447
-328
-189
-80
-24
1
22
52
82
97
88
63
36
23
33
65
115
177
234
262
247
209
183
186
200
184
120
22
-76
-143
-177
-190
-205
-235
-274
-302
-305
-299
-303
-320
-335
-341
-362
-410
-465
-492
-482
-469
-501
-581
-664
-712
-725
-743
-805
-913
-1037
-1145
-1230
-1310
-1405
-1511
-1605
-1660
-1673
-1666
-1665
-1680
-1689
-1658
-1589
-1541
-1574
-1663
-1707
-1631
-1496
-1459
-1588
-1755
-1754
-1549
-1325
-1288
-1400
-1434
-1264
-1013
-882
-895
-889
-748
-548
-411
-324
-183
12
118
65
14
183
545
814
770
531
415
574
838
936
810
642
604
677
711
632
512
450
458
454
385
303
312
466
702
882
912
811
696
671
745
828
805
638
404
240
252
432
659
799
797
733
749
888
1013
946
661
355
263
424
620
629
465
361
497
792
1004
998
875
823
895
985
980
880
778
743
770
808
803
730
609
510
517
642
806
889
842
745
720
791
865
846
720
548
376
200
33
-60
-62
-83
-284
-648
-892
-721
-174
375
611
654
946
1731
2748
3477
3689
3633
3695
3932
4064
3869
3430
3013
2751
2547
2275
1975
1796
1793
1863
1845
1656
1378
1172
1148
1261
1350
1285
1124
1047
1143
1286
1289
1150
1071
1179
1327
1255
925
617
606
860
1088
1069
834
573
452
480
573
617
538
350
158
65
59
64
28
-35
-97
-195
-359
-506
-498
-333
-197
-247
-409
-464
-364
-317
-499
-802
-966
-921
-897
-1108
-1450
-1616
-1500
-1339
-1407
-1654
-1782
-1658
-1463
-1449
-1610
-1720
-1660
-1591
-1742
-2095
-2371
-2348
-2104
-1917
-1967
-2165
-2280
-2206
-2036
-1939
-1978
-2073
-2132
-2151
-2175
-2194
-2130
-1951
-1755
-1686
-1776
-1910
-1934
-1808
-1641
-1592
-1711
-1896
-1961
-1809
-1517
-1271
-1185
-1205
-1165
-987
-754
-635
-687
-801
-826
-730
-604
-543
-553
-573
-560
-509
-422
-284
-119
-10
-13
-90
-144
-126
-93
-121
-196
-227
-176
-101
-87
-144
-181
-135
-40
4
-49
-166
-284
-369
-408
-400
-362
-346
-387
-465
-516
-508
-475
-482
-540
-589
-559
-450
-342
-296
-285
-238
-132
-45
-85
-252
-424
-480
-426
-381
-422
-504
-507
-385
-229
-163
-216
-304
-334
-292
-257
-296
-396
-487
-518
-493
-465
-476
-511
-519
-463
-375
-321
-325
-344
-321
-255
-195
-178
-183
-168
-109
-11
101
194
239
234
215
236
302
351
337
287
289
383
514
596
606
586
570
537
449
309
175
74
-30
-192
-416
-627
-749
-791
-857
-1033
-1253
-1300
-1010
-477
10
266
416
765
1437
2210
2746
2937
2977
3102
3327
3466
3351
2988
2524
2094
1736
1426
1144
888
672
504
392
316
256
193
121
54
6
-29
-75
-151
-237
-286
-262
-193
-167
-250
-416
-566
-619
-576
-497
-429
-374
-304
-221
-144
-89
-61
-70
-128
-219
-289
-274
-173
-59
-19
-74
-180
-268
-318
-359
-411
-458
-482
-501
-551
-625
-658
-599
-482
-414
-457
-560
-600
-524
-410
-386
-502
-689
-851
-961
-1062
-1185
-1298
-1335
-1282
-1199
-1140
-1094
-1010
-885
-800
-854
-1033
-1206
-1245
-1168
-1105
-1129
-1154
-1067
-909
-862
-1033
-1328
-1562
-1690
-1810
-1952
-1960
-1643
-1030
-381
59
277
406
493
422
78
-478
-1046
-1464
-1697
-1791
-1770
-1615
-1343
-1042
-823
-727
-718
-724
-721
-735
-801
-888
-902
-763
-495
-221
-43
38
80
119
144
144
156
233
382
569
771
985
1187
1320
1352
1341
1374
1447
1443
1283
1063
992
1144
1356
1401
1267
1172
1297
1550
1663
1493
1175
947
882
873
811
734
767
959
1221
1439
1580
1694
1820
1931
1954
1853
1666
1491
1411
1388
1326
1179
1043
1054
1222
1396
1436
1380
1393
1531
1663
1633
1472
1363
1395
1448
1366
1180
1083
1189
1389
1480
1409
1309
1312
1403
1448
1375
1241
1145
1114
1124
1151
1187
1212
1209
1213
1280
1415
1547
1604
1606
1644
1758
1873
1875
1755
1605
1498
1413
1287
1113
944
804
630
356
20
-241
-300
-149
102
320
442
524
691
1027
1467
1793
1789
1435
952
608
463
338
37
-415
-789
-907
-823
-728
-731
-771
-748
-685
-666
-684
-622
-425
-198
-87
-92
-59
118
357
495
488
449
501
648
806
910
962
991
1013
1060
1175
1351
1511
1571
1535
1493
1511
1579
1639
1642
1592
1518
1447
1399
1376
1352
1293
1209
1155
1181
1258
1293
1216
1075
982
980
979
853
586
295
84
-68
-264
-539
-803
-957
-1013
-1061
-1142
-1197
-1153
-1034
-936
-900
-881
-821
-730
-676
-689
-718
-696
-612
-516
-456
-431
-396
-318
-203
-92
-13
33
76
145
220
255
226
175
169
208
205
81
-143
-360
-501
-610
-785
-1032
-1247
-1340
-1346
-1380
-1500
-1638
-1694
-1662
-1643
-1722
-1872
-2004
-2060
-2065
-2084
-2147
-2229
-2288
-2308
-2313
-2333
-2385
-2462
-2538
-2594
-2623
-2637
-2645
-2632
-2585
-2539
-2533
-2558
-2545
-2441
-2287
-2186
-2180
-2203
-2158
-2033
-1881
-1731
-1566
-1400
-1310
-1330
-1355
-1227
-943
-693
-656
-765
-781
-556
-191
101
229
289
401
568
714
794
838
898
963
983
933
845
765
719
669
558
369
144
-53
-206
-342
-488
-632
-747
-837
-930
-1039
-1146
-1227
-1298
-1395
-1518
-1617
-1648
-1634
-1646
-1715
-1792
-1806
-1753
-1707
-1736
-1836
-1949
-2036
-2104
-2170
-2226
-2253
-2243
-2209
-2158
-2078
-1970
-1868
-1806
-1774
-1733
-1659
-1589
-1590
-1666
-1748
-1767
-1743
-1758
-1840
-1919
-1906
-1818
-1766
-1813
-1852
-1682
-1214
-573
25
486
921
1500
2252
3014
3559
3781
3742
3598
3459
3324
3111
2758
2305
1873
1573
1425
1348
1242
1082
921
807
715
588
420
283
241
253
215
103
41
172
477
768
877
818
734
717
721
650
484
293
161
126
180
293
429
553
662
784
935
1090
1191
1219
1220
1258
1345
1441
1513
1571
1651
1758
1856
1902
1892
1853
1807
1754
1698
1656
1636
1611
1545
1441
1340
1270
1210
1132
1059
1050
1116
1189
1193
1127
1064
1041
1018
940
825
757
783
853
882
837
771
745
762
766
709
588
446
321
223
140
68
18
-3
-14
-44
-99
-157
-207
-280
-414
-597
-764
-867
-913
-945
-988
-1028
-1039
-1010
-940
-833
-722
-649
-621
-585
-471
-274
-67
85
195
333
545
799
1029
1186
1249
1221
1127
1025
967
949
916
828
715
649
660
700
697
625
527
449
400
349
280
221
215
266
325
351
361
412
531
661
716
670
572
485
427
365
267
117
-90
-337
-568
-709
-737
-717
-739
-817
-869
-814
-690
-625
-713
-921
-1134
-1280
-1379
-1488
-1615
-1712
-1743
-1729
-1722
-1748
-1786
-1803
-1790
-1772
-1769
-1774
-1772
-1742
-1663
-1526
-1354
-1203
-1125
-1113
-1110
-1061
-973
-889
-829
-761
-643
-485
-350
-282
-271
-275
-276
-289
-333
-395
-452
-472
-450
-398
-334
-300
-331
-413
-487
-525
-583
-749
-1015
-1248
-1328
-1322
-1429
-1737
-2061
-2098
-1744
-1217
-833
-668
-507
-90
602
1334
1830
1993
1927
1813
1758
1734
1628
1361
975
618
402
314
257
153
31
-45
-75
-121
-211
-296
-310
-256
-209
-220
-261
-260
-197
-119
-74
-47
7
90
154
165
150
154
167
135
42
-38
-21
77
140
94
1
-15
80
178
157
16
-143
-240
-295
-365
-471
-590
-706
-834
-984
-1130
-1249
-1358
-1498
-1669
-1820
-1913
-1945
-1952
-1958
-1961
-1960
-1981
-2050
-2161
-2252
-2257
-2196
-2161
-2210
-2275
-2224
-2012
-1758
-1618
-1602
-1565
-1396
-1180
-1101
-1210
-1338
-1280
-1042
-826
-797
-905
-963
-866
-685
-563
-561
-621
-648
-628
-602
-601
-614
-615
-611
-634
-665
-638
-512
-324
-168
-94
-53
19
121
206
271
356
445
449
334
204
210
349
461
444
398
491
727
918
927
851
878
1050
1213
1240
1184
1197
1303
1374
1308
1178
1151
1280
1433
1439
1276
1083
1004
1029
1024
891
696
591
630
726
775
806
914
1088
1186
1102
923
834
876
876
697
470
463
750
1092
1207
1093
1005
1085
1183
1075
765
448
248
93
-86
-164
33
455
816
940
970
1144
1433
1547
1324
931
635
487
337
101
-60
30
291
460
433
387
519
769
889
753
521
422
460
427
218
-11
-3
280
618
735
573
336
268
410
583
533
152
-420
-874
-980
-778
-560
-611
-943
-1288
-1331
-959
-353
190
507
675
905
1342
1968
2609
3072
3289
3309
3221
3083
2901
2647
2325
1963
1600
1274
1029
909
895
900
823
626
374
202
177
238
248
117
-125
-366
-507
-521
-477
-477
-588
-789
-983
-1077
-1067
-1024
-1035
-1124
-1241
-1319
-1334
-1316
-1300
-1300
-1318
-1373
-1498
-1691
-1882
-1964
-1904
-1792
-1777
-1898
-2033
-2012
-1819
-1612
-1550
-1640
-1747
-1757
-1696
-1658
-1713
-1830
-1933
-1970
-1919
-1798
-1669
-1619
-1674
-1750
-1753
-1680
-1643
-1720
-1870
-1992
-2047
-2093
-2168
-2212
-2143
-1970
-1816
-1778
-1842
-1922
-1965
-2002
-2064
-2137
-2207
-2297
-2444
-2612
-2688
-2583
-2346
-2135
-2063
-2097
-2112
-2059
-2015
-2068
-2182
-2238
-2195
-2151
-2202
-2301
-2281
-2053
-1717
-1468
-1385
-1376
-1310
-1160
-1013
-939
-945
-993
-1040
-1049
-975
-808
-623
-509
-501
-534
-511
-417
-341
-369
-472
-532
-466
-325
-247
-295
-388
-393
-289
-196
-231
-379
-501
-482
-343
-212
-167
-183
-187
-157
-140
-172
-221
-222
-175
-173
-289
-456
-513
-383
-166
-36
-56
-147
-187
-141
-63
-16
-21
-73
-156
-222
-223
-180
-183
-278
-391
-409
-326
-254
-283
-345
-309
-178
-98
-157
-268
-284
-189
-131
-231
-405
-459
-321
-134
-79
-162
-212
-79
190
429
528
532
541
572
574
513
422
337
256
178
139
184
297
398
436
448
506
625
724
705
542
309
104
-29
-120
-222
-364
-559
-805
-1081
-1322
-1419
-1298
-987
-613
-272
59
496
1124
1895
2649
3202
3442
3395
3210
3055
2967
2825
2487
1965
1448
1127
1017
998
950
855
745
640
541
463
433
434
403
322
232
178
144
102
69
101
197
254
170
-32
-209
-239
-128
23
133
209
301
438
608
774
886
898
810
678
579
541
535
521
482
430
380
345
345
378
410
400
342
279
242
210
137
22
-81
-149
-227
-369
-552
-676
-667
-547
-405
-306
-253
-191
-68
105
243
254
136
-14
-108
-191
-414
-868
-1450
-1933
-2169
-2197
-2154
-2113
-2032
-1842
-1536
-1191
-901
-729
-694
-781
-952
-1151
-1323
-1437
-1499
-1540
-1580
-1613
-1601
-1514
-1382
-1290
-1307
-1415
-1510
-1483
-1321
-1116
-972
-916
-879
-784
-617
-432
-292
-205
-128
11
248
529
732
778
721
713
839
1013
1075
974
830
769
764
690
498
298
229
306
418
480
517
605
766
934
1027
1012
920
801
692
608
548
499
457
427
411
416
436
440
388
273
157
126
190
273
301
306
396
611
838
929
871
795
807
862
837
704
571
549
616
651
596
521
527
627
745
829
913
1037
1165
1205
1126
1015
989
1062
1134
1102
971
847
824
898
980
991
929
834
744
671
625
606
609
614
602
574
545
525
512
503
489
445
350
204
33
-144
-342
-607
-950
-1315
-1621
-1828
-1965
-2093
-2206
-2205
-1962
-1428
-713
-20
513
933
1417
2084
2860
3511
3856
3904
3827
3777
3770
3696
3432
2965
2423
1976
1698
1537
1382
1171
934
735
602
537
526
535
512
422
306
245
286
371
411
384
357
400
502
601
679
780
944
1146
1323
1452
1576
1735
1904
2015
2037
2018
2028
2081
2138
2177
2212
2256
2280
2243
2157
2094
2104
2150
2150
2081
2016
2027
2089
2098
1994
1830
1713
1673
1639
1527
1354
1229
1237
1333
1392
1350
1277
1282
1379
1457
1405
1245
1108
1093
1168
1220
1185
1117
1106
1178
1278
1331
1322
1305
1337
1413
1468
1441
1343
1242
1190
1175
1135
1032
882
738
641
597
582
559
500
398
274
159
55
-72
-255
-475
-674
-818
-932
-1068
-1228
-1355
-1402
-1387
-1382
-1422
-1475
-1494
-1488
-1509
-1568
-1607
-1570
-1481
-1424
-1436
-1454
-1386
-1233
-1109
-1111
-1204
-1264
-1225
-1144
-1117
-1160
-1198
-1176
-1113
-1053
-993
-913
-840
-851
-976
-1132
-1204
-1179
-1167
-1284
-1493
-1638
-1608
-1459
-1341
-1323
-1327
-1238
-1062
-923
-908
-939
-857
-599
-275
-56
-14
-92
-198
-291
-383
-491
-639
-837
-1048
-1177
-1137
-944
-719
-575
-509
-431
-282
-95
48
109
124
159
256
413
586
725
814
880
947
999
1000
957
921
925
936
904
852
850
901
913
796
592
420
336
265
123
-34
-89
-35
-19
-149
-353
-458
-424
-394
-504
-723
-911
-1019
-1110
-1184
-1094
-709
-122
398
694
904
1274
1847
2394
2644
2545
2268
1998
1786
1566
1263
861
386
-95
-488
-723
-831
-948
-1183
-1504
-1768
-1883
-1919
-2030
-2279
-2564
-2745
-2801
-2829
-2912
-3015
-3044
-2975
-2883
-2845
-2855
-2844
-2776
-2682
-2609
-2561
-2498
-2404
-2306
-2245
-2229
-2224
-2193
-2127
-2048
-1979
-1924
-1871
-1801
-1709
-1601
-1487
-1377
-1277
-1183
-1088
-974
-835
-675
-516
-382
-286
-217
-146
-47
71
176
237
260
280
331
411
492
553
599
643
686
719
750
804
903
1034
1157
1242
1305
1378
1466
1529
1524
1464
1407
1400
1436
1470
1486
1518
1604
1735
1863
1952
2009
2059
2114
2162
2187
2181
2150
2108
2077
2072
2079
2071
2038
2010
2024
2070
2092
2053
1985
1961
2005
2045
1982
1795
1575
1440
1429
1470
1464
1376
1262
1197
1191
1194
1158
1090
1023
963
882
772
677
645
660
642
541
398
297
265
243
164
30
-95
-169
-217
-293
-422
-583
-743
-895
-1056
-1242
-1444
-1632
-1775
-1864
-1917
-1949
-1947
-1900
-1826
-1761
-1719
-1666
-1564
-1420
-1282
-1177
-1076
-925
-707
-448
-183
63
275
448
607
787
1001
1203
1334
1392
1432
1507
1615
1712
1769
1793
1797
1785
1754
1714
1673
1631
1587
1558
1559
1566
1523
1414
1312
1316
1438
1574
1591
1466
1318
1294
1422
1584
1632
1524
1360
1279
1309
1338
1241
1018
774
588
412
165
-131
-371
-540
-783
-1219
-1715
-1933
-1667
-1088
-558
-239
65
639
1499
2346
2857
2962
2806
2555
2272
1963
1640
1325
1017
707
426
246
203
238
246
151
-56
-326
-588
-798
-937
-1018
-1072
-1145
-1262
-1402
-1511
-1551
-1533
-1507
-1506
-1507
-1450
-1313
-1141
-1006
-944
-931
-916
-871
-813
-779
-792
-838
-878
-875
-825
-761
-708
-647
-541
-399
-298
-307
-406
-507
-529
-486
-450
-469
-523
-569
-583
-543
-439
-303
-218
-262
-409
-537
-542
-459
-416
-486
-606
-665
-636
-582
-560
-563
-556
-550
-582
-641
-661
-602
-513
-474
-503
-547
-554
-541
-554
-612
-703
-826
-989
-1165
-1272
-1237
-1093
-959
-916
-929
-878
-692
-419
-185
-86
-111
-158
-123
25
210
314
304
252
250
319
397
430
438
455
472
445
377
330
340
365
336
253
185
171
168
124
79
115
228
291
189
-31
-200
-217
-172
-240
-484
-781
-955
-955
-908
-958
-1096
-1190
-1145
-1029
-1000
-1103
-1210
-1189
-1076
-1025
-1097
-1168
-1089
-889
-742
-747
-795
-708
-471
-260
-242
-401
-566
-582
-446
-302
-305
-488
-711
-769
-578
-284
-119
-188
-368
-459
-395
-276
-200
-166
-126
-84
-82
-116
-121
-59
35
97
100
53
-37
-146
-216
-211
-182
-228
-360
-454
-377
-144
85
195
232
297
389
411
328
241
262
362
402
305
145
50
53
77
51
-21
-125
-283
-520
-792
-1010
-1164
-1310
-1454
-1468
-1201
-687
-131
347
870
1630
2601
3498
4066
4317
4432
4481
4353
3963
3421
2908
2471
2040
1569
1137
845
666
506
341
229
202
191
101
-46
-124
-44
149
302
304
191
110
175
351
484
474
362
261
228
226
218
226
258
251
140
-5
-25
118
254
217
61
40
269
560
631
437
208
154
213
179
-6
-171
-152
10
134
136
120
192
312
352
269
131
-9
-188
-432
-632
-652
-503
-371
-402
-536
-600
-544
-478
-510
-604
-663
-664
-680
-750
-838
-883
-885
-901
-971
-1089
-1221
-1296
-1246
-1081
-914
-881
-961
-986
-841
-617
-522
-631
-804
-857
-766
-650
-608
-625
-659
-707
-782
-844
-823
-730
-680
-750
-882
-941
-877
-778
-760
-817
-841
-788
-758
-860
-1050
-1129
-961
-633
-370
-304
-355
-365
-286
-208
-226
-329
-458
-582
-717
-850
-917
-893
-837
-821
-847
-852
-813
-823
-948
-1106
-1140
-1034
-974
-1131
-1406
-1529
-1379
-1154
-1136
-1353
-1569
-1592
-1476
-1415
-1498
-1641
-1740
-1778
-1770
-1702
-1586
-1503
-1530
-1622
-1646
-1555
-1455
-1480
-1617
-1752
-1834
-1918
-2046
-2163
-2159
-2027
-1879
-1828
-1880
-1945
-1922
-1791
-1631
-1586
-1720
-1910
-1915
-1615
-1179
-913
-927
-995
-843
-480
-179
-164
-370
-555
-584
-521
-472
-465
-467
-453
-430
-410
-406
-464
-605
-763
-841
-833
-832
-896
-976
-982
-921
-879
-911
-1010
-1178
-1448
-1773
-1963
-1822
-1369
-840
-425
-65
463
1273
2206
2979
3409
3518
3459
3375
3291
3139
2838
2402
1958
1641
1458
1301
1091
872
745
726
702
557
311
103
31
62
82
27
-67
-125
-116
-58
23
112
203
252
224
155
125
178
259
262
138
-58
-225
-307
-322
-342
-417
-539
-654
-691
-619
-490
-414
-445
-530
-554
-479
-398
-437
-594
-742
-768
-701
-658
-686
-720
-680
-583
-507
-500
-531
-552
-560
-584
-647
-760
-923
-1097
-1218
-1229
-1158
-1109
-1135
-1193
-1192
-1108
-1023
-1026
-1106
-1184
-1211
-1208
-1211
-1212
-1182
-1122
-1064
-1022
-968
-876
-782
-752
-808
-892
-905
-806
-674
-609
-632
-656
-589
-448
-336
-314
-345
-361
-376
-451
-581
-671
-647
-563
-543
-619
-678
-616
-457
-323
-287
-302
-294
-257
-241
-248
-225
-133
-11
67
75
59
73
116
139
117
54
-24
-99
-158
-173
-122
-26
23
-81
-355
-689
-912
-940
-828
-697
-603
-492
-284
38
399
691
822
759
544
295
139
107
109
31
-130
-251
-233
-114
-25
-41
-114
-153
-143
-135
-156
-175
-153
-100
-48
5
66
111
102
68
104
263
484
664
779
892
1037
1141
1131
1070
1117
1338
1614
1776
1804
1839
2000
2235
2385
2360
2222
2097
2055
2085
2130
2148
2113
2027
1917
1830
1792
1759
1636
1363
988
644
437
327
150
-208
-654
-919
-811
-427
-63
80
95
239
643
1170
1570
1724
1702
1627
1544
1420
1242
1031
810
593
396
259
205
201
195
184
198
242
275
260
229
246
318
378
354
254
157
128
159
184
172
146
151
193
229
208
135
80
109
208
272
205
24
-137
-151
-21
125
174
141
134
223
360
434
391
274
156
72
17
-14
-15
4
15
21
66
175
310
398
417
424
488
582
619
565
496
507
604
698
722
701
714
791
885
937
950
967
1013
1061
1080
1074
1080
1121
1175
1204
1203
1203
1220
1224
1185
1123
1116
1209
1340
1400
1365
1346
1465
1701
1896
1926
1845
1820
1943
2129
2227
2194
2131
2143
2224
2290
2307
2315
2363
2423
2428
2358
2281
2254
2265
2251
2182
2083
1990
1896
1771
1606
1443
1318
1226
1118
962
777
619
541
543
576
575
519
433
358
299
225
113
-23
-150
-255
-349
-442
-511
-514
-444
-359
-334
-385
-445
-427
-314
-171
-58
41
162
278
309
237
177
267
495
698
749
708
723
835
936
925
845
806
818
781
636
467
424
554
773
965
1089
1167
1231
1305
1408
1524
1583
1520
1355
1189
1108
1100
1085
1022
918
782
608
417
267
207
199
153
21
-148
-270
-310
-308
-344
-464
-656
-862
-1026
-1142
-1257
-1418
-1604
-1745
-1814
-1843
-1828
-1675
-1293
-743
-217
160
478
917
1503
2048
2355
2407
2330
2220
2080
1904
1726
1550
1319
1008
713
557
528
481
345
247
349
601
769
696
474
295
193
31
-302
-735
-1123
-1416
-1651
-1824
-1865
-1770
-1660
-1679
-1838
-2017
-2109
-2119
-2126
-2182
-2274
-2366
-2422
-2418
-2359
-2300
-2316
-2429
-2591
-2734
-2849
-2963
-3094
-3213
-3278
-3291
-3290
-3316
-3378
-3456
-3514
-3515
-3455
-3365
-3291
-3245
-3192
-3093
-2965
-2859
-2805
-2773
-2717
-2625
-2523
-2442
-2388
-2349
-2317
-2295
-2286
-2279
-2253
-2187
-2092
-2002
-1935
-1863
-1745
-1582
-1437
-1362
-1309
-1167
-903
-629
-491
-495
-501
-405
-278
-296
-523
-832
-1045
-1112
-1121
-1144
-1141
-1021
-775
-492
-269
-117
23
187
352
464
501
490
493
560
702
883
1056
1190
1287
1373
1479
1608
1739
1853
1946
2036
2138
2254
2369
2468
2559
2666
2793
2920
3016
3072
3106
3126
3124
3086
3021
2946
2871
2790
2716
2684
2705
2733
2707
2613
2508
2453
2433
2374
2230
2037
1868
1761
1705
1677
1673
1687
1690
1652
1583
1523
1490
1447
1347
1194
1039
918
816
704
591
523
520
541
531
488
464
495
549
563
509
423
376
405
480
546
578
602
661
764
869
927
943
972
1051
1151
1200
1177
1133
1140
1210
1280
1286
1220
1128
1061
1028
1000
934
824
689
550
412
270
130
-1
-131
-269
-408
-520
-606
-701
-813
-865
-727
-358
123
552
911
1340
1977
2773
3516
4019
4239
4254
4165
4039
3899
3711
3386
2865
2225
1656
1301
1135
998
778
506
281
144
45
-75
-223
-379
-535
-712
-916
-1125
-1295
-1395
-1420
-1394
-1368
-1391
-1468
-1543
-1558
-1534
-1559
-1697
-1904
-2054
-2076
-2036
-2065
-2211
-2380
-2431
-2343
-2231
-2225
-2326
-2422
-2412
-2310
-2222
-2213
-2252
-2264
-2217
-2139
-2065
-2008
-1961
-1936
-1949
-1982
-2000
-1985
-1968
-1993
-2054
-2096
-2074
-1997
-1915
-1858
-1818
-1783
-1768
-1782
-1798
-1778
-1727
-1703
-1745
-1826
-1878
-1877
-1860
-1868
-1900
-1918
-1906
-1888
-1881
-1870
-1834
-1783
-1750
-1750
-1759
-1753
-1739
-1737
-1745
-1735
-1677
-1576
-1457
-1349
-1265
-1197
-1114
-980
-788
-577
-407
-295
-196
-52
145
344
503
637
791
982
1169
1308
1412
1533
1694
1854
1952
1973
1967
1989
2028
2026
1948
1817
1680
1548
1389
1184
971
810
726
675
593
469
362
320
320
291
177
5
-149
-239
-281
-320
-383
-447
-479
-479
-487
-551
-687
-868
-1051
-1202
-1308
-1384
-1449
-1505
-1535
-1520
-1467
-1414
-1401
-1427
-1451
-1437
-1390
-1336
-1286
-1228
-1138
-1014
-871
-722
-576
-440
-321
-219
-120
-18
70
130
173
233
324
405
418
379
395
547
785
951
947
844
812
944
1166
1323
1332
1225
1100
1052
1123
1271
1385
1356
1178
971
870
892
913
805
548
237
-22
-159
-143
26
301
607
914
1284
1820
2536
3287
3859
4128
4139
4044
3954
3845
3586
3084
2424
1860
1611
1651
1727
1603
1305
1076
1085
1241
1306
1157
913
749
712
722
727
757
823
840
748
625
632
774
865
753
519
396
499
689
766
708
658
696
737
677
562
536
641
737
691
544
476
563
663
594
372
192
198
305
342
256
167
191
282
311
255
204
232
272
210
53
-51
33
272
507
615
590
527
514
581
675
686
559
367
247
267
336
339
269
232
302
391
349
162
-28
-79
-15
9
-124
-362
-531
-506
-355
-250
-309
-465
-547
-468
-344
-361
-550
-744
-771
-642
-539
-595
-745
-822
-768
-686
-677
-721
-738
-704
-685
-726
-778
-761
-663
-551
-504
-530
-580
-608
-611
-610
-604
-578
-529
-466
-405
-366
-377
-447
-558
-665
-724
-724
-690
-671
-710
-797
-833
-697
-408
-192
-297
-699
-1071
-1110
-893
-790
-1020
-1389
-1528
-1345
-1100
-1072
-1243
-1382
-1383
-1360
-1429
-1553
-1601
-1544
-1477
-1459
-1431
-1319
-1156
-1034
-1002
-1019
-1047
-1077
-1110
-1114
-1063
-987
-935
-923
-913
-858
-757
-661
-629
-684
-797
-897
-896
-772
-607
-531
-593
-698
-688
-526
-371
-446
-770
-1093
-1132
-869
-583
-568
-803
-1004
-950
-723
-598
-723
-1004
-1250
-1403
-1526
-1664
-1798
-1886
-1914
-1880
-1731
-1421
-985
-535
-128
285
767
1292
1745
2026
2122
2091
1986
1839
1678
1506
1293
1018
717
486
369
315
232
91
-74
-231
-384
-522
-598
-599
-582
-620
-708
-765
-772
-805
-904
-991
-950
-802
-712
-793
-948
-975
-812
-611
-549
-629
-693
-611
-427
-295
-285
-323
-294
-170
-25
47
47
40
59
77
55
11
-4
22
54
69
82
98
93
56
38
94
186
202
84
-73
-115
-12
105
93
-47
-193
-235
-167
-73
-24
-43
-123
-238
-351
-424
-458
-478
-520
-600
-700
-789
-837
-825
-766
-710
-709
-773
-854
-884
-855
-817
-832
-899
-964
-976
-937
-893
-870
-860
-845
-817
-783
-746
-698
-649
-604
-576
-564
-552
-535
-509
-466
-392
-282
-165
-93
-88
-113
-85
11
102
85
-39
-158
-169
-85
18
90
151
203
205
137
68
93
188
213
71
-164
-302
-238
-47
104
120
54
9
26
68
90
94
110
139
149
110
33
-22
-22
18
41
-15
-155
-315
-397
-345
-206
-102
-114
-192
-210
-115
28
116
116
81
66
82
116
170
240
317
398
505
646
803
978
1236
1642
2114
2405
2300
1843
1288
833
434
-73
-727
-1356
-1745
-1825
-1691
-1475
-1262
-1091
-982
-945
-977
-1053
-1181
-1371
-1583
-1765
-1896
-2007
-2133
-2239
-2255
-2191
-2174
-2336
-2613
-2741
-2489
-1893
-1229
-730
-365
79
721
1451
2050
2406
2567
2636
2664
2637
2535
2336
2024
1625
1231
949
802
714
583
409
288
301
432
588
699
772
860
1002
1184
1338
1395
1339
1239
1194
1231
1277
1241
1114
985
927
915
866
746
597
467
335
152
-74
-269
-372
-400
-420
-461
-501
-505
-486
-496
-575
-704
-816
-861
-861
-865
-879
-845
-723
-572
-500
-527
-543
-460
-343
-349
-517
-691
-696
-558
-459
-504
-600
-592
-474
-380
-405
-508
-585
-612
-642
-705
-764
-767
-726
-694
-694
-683
-609
-489
-389
-348
-334
-267
-114
73
202
231
188
144
147
196
228
179
46
-90
-135
-85
-51
-126
-263
-316
-209
-26
110
195
340
615
940
1177
1274
1302
1357
1457
1565
1645
1697
1723
1723
1727
1786
1934
2137
2305
2368
2345
2322
2382
2516
2646
2697
2680
2653
2643
2629
2595
2578
2618
2690
2717
2659
2571
2534
2549
2528
2411
2252
2173
2238
2383
2506
2573
2646
2796
3010
3194
3265
3241
3225
3289
3400
3448
3383
3275
3248
3330
3410
3365
3196
3031
2984
3029
3053
2999
2926
2919
2974
3001
2923
2756
2572
2413
2260
2077
1867
1664
1498
1365
1246
1142
1044
932
787
615
459
358
309
279
244
220
225
257
299
323
313
274
221
156
65
-57
-186
-263
-241
-136
-3
133
319
627
1047
1483
1844
2127
2416
2795
3264
3720
4025
4098
3974
3771
3563
3308
2909
2367
1823
1439
1228
1071
882
721
702
809
877
773
538
327
223
160
28
-196
-427
-585
-668
-722
-779
-846
-941
-1107
-1346
-1590
-1742
-1773
-1744
-1732
-1742
-1728
-1663
-1584
-1548
-1567
-1616
-1677
-1767
-1895
-2034
-2154
-2262
-2383
-2492
-2509
-2381
-2160
-1976
-1916
-1946
-1963
-1916
-1848
-1845
-1933
-2051
-2120
-2108
-2039
-1952
-1862
-1772
-1702
-1685
-1721
-1759
-1756
-1734
-1772
-1899
-2047
-2134
-2159
-2201
-2347
-2610
-2946
-3292
-3568
-3692
-3651
-3560
-3581
-3729
-3831
-3706
-3409
-3207
-3295
-3587
-3810
-3808
-3673
-3594
-3635
-3704
-3693
-3595
-3483
-3418
-3397
-3387
-3364
-3315
-3235
-3114
-2955
-2775
-2596
-2446
-2335
-2241
-2131
-2003
-1891
-1812
-1737
-1603
-1381
-1118
-895
-750
-641
-506
-325
-138
11
127
267
485
763
1002
1077
929
606
223
-136
-463
-796
-1139
-1437
-1613
-1624
-1485
-1248
-982
-752
-604
-541
-526
-514
-488
-471
-493
-551
-598
-593
-532
-448
-383
-345
-312
-270
-233
-216
-215
-202
-154
-67
67
276
577
923
1199
1296
1213
1060
955
911
832
631
350
152
197
504
946
1370
1696
1939
2130
2279
2365
2387
2374
2344
2298
2250
2228
2264
2366
2485
2552
2531
2457
2365
2237
2033
1767
1527
1381
1292
1163
974
821
795
863
924
973
1129
1485
1951
2322
2501
2601
2835
3307
3935
4525
4917
5056
4990
4822
4622
4368
3987
3449
2829
2266
1876
1691
1669
1720
1746
1666
1474
1256
1102
1015
918
747
528
356
308
374
472
529
517
466
415
361
272
139
-3
-90
-88
-24
35
39
-10
-62
-59
18
119
158
96
-10
-52
5
65
19
-121
-214
-168
-63
-60
-198
-338
-348
-297
-386
-696
-1054
-1205
-1078
-838
-697
-690
-691
-609
-477
-402
-433
-531
-656
-816
-1023
-1231
-1356
-1360
-1305
-1294
-1369
-1467
-1506
-1474
-1421
-1409
-1439
-1475
-1498
-1510
-1507
-1479
-1457
-1511
-1685
-1942
-2184
-2361
-2508
-2674
-2841
-2945
-2984
-3032
-3146
-3278
-3311
-3208
-3077
-3073
-3223
-3380
-3364
-3149
-2892
-2772
-2785
-2747
-2496
-2087
-1743
-1629
-1675
-1668
-1510
-1323
-1284
-1405
-1529
-1503
-1345
-1193
-1124
-1091
-990
-786
-549
-380
-329
-350
-357
-307
-244
-247
-336
-426
-420
-316
-219
-219
-296
-358
-353
-312
-289
-288
-279
-264
-287
-353
-406
-389
-306
-217
-161
-114
-39
62
161
248
344
453
548
602
621
639
674
724
785
868
978
1106
1228
1329
1409
1464
1477
1416
1279
1097
931
858
910
1043
1177
1276
1380
1548
1759
1920
1956
1895
1822
1764
1671
1504
1293
1097
931
746
494
194
-106
-374
-626
-909
-1270
-1702
-2095
-2269
-2117
-1733
-1352
-1116
-918
-534
112
841
1368
1568
1541
1455
1371
1249
1053
807
570
379
260
243
360
582
803
910
886
819
814
884
934
883
769
708
755
854
914
914
909
949
1002
1006
946
853
762
682
604
539
493
473
492
561
655
699
635
505
416
438
510
509
373
173
44
73
227
396
477
449
394
420
524
582
474
233
43
28
102
70
-116
-292
-284
-126
-16
-50
-125
-101
-10
-7
-131
-212
-92
154
272
138
-88
-148
12
173
96
-210
-510
-589
-451
-273
-201
-228
-258
-216
-106
18
109
140
98
-7
-114
-163
-146
-102
-73
-54
-15
55
137
208
273
344
406
457
513
584
651
679
682
722
826
943
1000
1000
1024
1119
1227
1269
1247
1237
1285
1335
1305
1206
1122
1122
1183
1223
1194
1126
1070
1072
1131
1210
1267
1292
1312
1352
1390
1374
1313
1274
1306
1355
1315
1162
992
912
915
914
876
861
893
905
835
743
754
873
949
873
723
666
734
791
732
632
635
755
863
868
853
953
1172
1358
1386
1280
1170
1135
1149
1144
1078
954
807
694
676
759
856
849
693
481
357
373
432
393
221
22
-63
-17
13
-121
-404
-691
-895
-1070
-1305
-1587
-1821
-1998
-2208
-2461
-2575
-2352
-1836
-1319
-1002
-762
-313
413
1173
1692
1945
2087
2206
2235
2099
1850
1587
1326
1009
641
292
8
-224
-432
-598
-683
-732
-820
-950
-1042
-1055
-1053
-1134
-1292
-1420
-1453
-1460
-1557
-1736
-1855
-1786
-1575
-1411
-1440
-1621
-1783
-1805
-1712
-1623
-1630
-1721
-1807
-1812
-1737
-1647
-1600
-1595
-1575
-1497
-1394
-1345
-1376
-1438
-1449
-1400
-1363
-1390
-1438
-1441
-1404
-1408
-1485
-1551
-1509
-1391
-1337
-1412
-1541
-1608
-1617
-1655
-1742
-1774
-1661
-1478
-1392
-1452
-1526
-1467
-1293
-1162
-1181
-1307
-1413
-1431
-1399
-1376
-1374
-1377
-1371
-1356
-1334
-1297
-1251
-1230
-1255
-1305
-1331
-1305
-1271
-1282
-1325
-1327
-1255
-1177
-1196
-1314
-1414
-1398
-1313
-1288
-1358
-1408
-1325
-1141
-991
-939
-902
-781
-594
-455
-426
-436
-387
-271
-162
-106
-67
12
137
264
373
472
552
567
508
455
512
671
800
786
673
622
723
870
886
724
521
432
455
455
339
169
89
149
248
267
203
167
218
281
228
39
-164
-249
-221
-212
-309
-471
-571
-529
-393
-286
-293
-400
-508
-516
-413
-286
-239
-290
-346
-296
-128
75
221
282
285
274
287
340
419
478
469
410
381
442
552
592
502
359
304
378
461
389
146
-93
-141
20
195
165
-77
-319
-359
-224
-146
-306
-640
-942
-1119
-1277
-1542
-1825
-1866
-1527
-976
-517
-244
67
704
1679
2664
3277
3416
3299
3215
3249
3247
3009
2519
1961
1561
1389
1336
1264
1141
1042
1023
1014
901
673
450
340
302
192
-55
-331
-475
-457
-399
-416
-475
-474
-405
-378
-478
-667
-848
-992
-1137
-1277
-1336
-1274
-1172
-1135
-1142
-1057
-814
-543
-438
-538
-690
-736
-695
-711
-854
-1027
-1086
-1009
-897
-845
-845
-838
-823
-850
-927
-985
-959
-877
-827
-834
-836
-782
-718
-730
-824
-905
-898
-843
-842
-917
-983
-963
-899
-900
-991
-1094
-1134
-1140
-1199
-1317
-1383
-1305
-1132
-1008
-1007
-1057
-1042
-948
-858
-846
-903
-977
-1043
-1098
-1125
-1100
-1041
-1009
-1033
-1064
-1037
-956
-893
-895
-929
-927
-880
-830
-803
-783
-743
-692
-658
-643
-615
-550
-458
-370
-305
-256
-206
-137
-45
57
148
202
210
191
179
211
293
387
411
317
162
81
155
302
343
205
8
-62
43
192
244
200
189
293
454
567
601
612
648
697
728
748
789
851
897
912
949
1058
1235
1413
1543
1662
1860
2183
2565
2871
3000
2981
2936
2974
3089
3183
3179
3108
3073
3123
3225
3308
3334
3300
3195
3003
2756
2530
2369
2234
2051
1813
1607
1513
1508
1506
1461
1394
1323
1232
1109
983
890
810
688
520
364
247
117
-61
-194
-90
344
975
1561
1984
2356
2846
3486
4110
4502
4572
4412
4200
4063
4001
3910
3685
3320
2927
2647
2548
2588
2663
2680
2618
2509
2417
2400
2466
2551
2565
2462
2282
2122
2058
2078
2107
2080
2005
1948
1941
1930
1836
1654
1465
1348
1278
1159
937
675
474
364
271
112
-121
-371
-580
-731
-828
-878
-902
-942
-1021
-1099
-1117
-1056
-972
-940
-962
-961
-879
-748
-645
-581
-496
-366
-254
-239
-285
-272
-159
-56
-101
-272
-400
-387
-322
-357
-502
-623
-641
-649
-776
-1006
-1195
-1264
-1304
-1445
-1682
-1883
-1949
-1903
-1847
-1862
-1935
-1997
-1996
-1946
-1935
-2044
-2253
-2435
-2494
-2500
-2601
-2819
-2994
-2952
-2720
-2503
-2452
-2499
-2460
-2268
-2048
-1954
-1995
-2033
-1948
-1759
-1582
-1486
-1424
-1289
-1033
-720
-454
-277
-147
-3
169
333
458
544
612
667
708
750
815
897
971
1015
1048
1088
1121
1094
971
775
566
379
200
-12
-260
-507
-719
-892
-1055
-1221
-1379
-1530
-1704
-1922
-2149
-2302
-2334
-2300
-2300
-2372
-2447
-2420
-2284
-2158
-2158
-2263
-2343
-2311
-2222
-2190
-2227
-2247
-2167
-2038
-1970
-1975
-1953
-1825
-1641
-1501
-1406
-1243
-925
-505
-130
96
177
177
137
65
-43
-183
-339
-478
-550
-521
-409
-256
-120
-43
-48
-131
-257
-380
-486
-592
-710
-822
-895
-923
-882
-709
-343
170
678
1056
1348
1705
2200
2726
3099
3228
3160
3000
2824
2678
2585
2517
2390
2141
1812
1522
1341
1213
1017
707
359
81
-77
-128
-103
-14
126
269
371
418
442
472
514
553
583
616
658
692
708
718
761
843
921
949
937
946
1007
1065
1044
944
841
783
727
605
449
382
474
648
761
771
773
865
1002
1039
903
675
502
441
436
411
370
377
468
610
736
812
858
910
968
989
943
851
770
738
736
733
734
769
846
926
968
977
989
1012
1010
933
771
549
306
80
-88
-176
-210
-247
-312
-358
-312
-170
-10
89
125
159
227
305
340
333
330
368
433
486
515
543
588
630
628
581
546
575
641
651
567
466
477
628
804
880
851
827
888
998
1068
1074
1073
1109
1149
1141
1099
1095
1159
1222
1183
1027
833
699
659
677
703
703
662
585
502
454
440
391
240
-8
-260
-433
-514
-557
-599
-637
-673
-726
-801
-864
-887
-905
-993
-1180
-1405
-1582
-1694
-1791
-1889
-1938
-1895
-1803
-1756
-1781
-1810
-1769
-1698
-1700
-1804
-1924
-1963
-1932
-1929
-2008
-2100
-2105
-2022
-1941
-1924
-1937
-1908
-1834
-1786
-1810
-1861
-1882
-1882
-1931
-2067
-2249
-2414
-2558
-2722
-2920
-3107
-3254
-3397
-3570
-3707
-3647
-3281
-2686
-2085
-1621
-1227
-707
47
908
1594
1910
1894
1749
1643
1589
1478
1232
893
574
355
221
121
28
-48
-98
-143
-201
-254
-255
-184
-61
66
149
158
97
9
-36
-13
20
-27
-167
-296
-296
-174
-70
-109
-247
-326
-264
-167
-210
-412
-594
-573
-375
-193
-160
-218
-219
-114
-5
-8
-117
-233
-296
-343
-426
-536
-607
-605
-581
-621
-754
-922
-1040
-1099
-1086
-1155
-1297
-1445
-1531
-1574
-1647
-1781
-1915
-1982
-1995
-2032
-2120
-2197
-2202
-2147
-2109
-2127
-2168
-2195
-2220
-2257
-2272
-2216
-2112
-2035
-2002
-1927
-1729
-1445
-1201
-1056
-948
-792
-616
-519
-522
-536
-463
-324
-220
-210
-250
-272
-251
-212
-159
-91
-19
27
64
167
384
653
829
820
702
660
788
988
1076
1012
945
1040
1278
1492
1554
1501
1440
1408
1357
1260
1180
1173
1215
1230
1193
1158
1183
1268
1360
1407
1387
1312
1229
1189
1213
1259
1280
1271
1260
1237
1163
1034
920
894
940
973
946
911
942
1037
1120
1127
1056
951
854
792
794
859
957
1060
1167
1286
1399
1485
1552
1621
1679
1657
1529
1370
1303
1361
1440
1410
1281
1196
1268
1438
1549
1521
1445
1456
1556
1622
1575
1502
1530
1649
1701
1562
1307
1101
1005
905
693
407
154
-49
-279
-530
-631
-397
154
789
1317
1785
2399
3256
4196
4908
5171
5026
4741
4584
4562
4425
3956
3257
2697
2518
2582
2570
2331
2011
1756
1515
1180
841
730
898
1116
1139
1022
1037
1305
1612
1670
1446
1162
1014
977
891
679
440
355
479
692
795
717
595
607
760
863
750
511
393
499
663
648
447
246
163
109
-51
-311
-528
-614
-642
-722
-856
-961
-1007
-1059
-1200
-1434
-1686
-1888
-2029
-2131
-2225
-2338
-2494
-2675
-2829
-2895
-2878
-2868
-2950
-3120
-3298
-3394
-3406
-3407
-3444
-3502
-3510
-3435
-3316
-3241
-3266
-3360
-3406
-3308
-3099
-2921
-2894
-2985
-3016
-2863
-2612
-2492
-2634
-2908
-3061
-2981
-2805
-2768
-2937
-3138
-3147
-2927
-2649
-2511
-2559
-2693
-2788
-2772
-2643
-2454
-2319
-2348
-2535
-2714
-2677
-2393
-2058
-1924
-2028
-2160
-2113
-1885
-1661
-1590
-1640
-1676
-1622
-1521
-1463
-1483
-1546
-1604
-1635
-1634
-1594
-1520
-1460
-1469
-1526
-1541
-1454
-1324
-1277
-1362
-1477
-1486
-1376
-1270
-1296
-1437
-1568
-1592
-1507
-1395
-1325
-1308
-1303
-1252
-1143
-1029
-961
-935
-910
-879
-886
-949
-1009
-990
-920
-909
-999
-1077
-1005
-803
-629
-580
-595
-560
-476
-450
-519
-591
-575
-514
-529
-625
-672
-559
-348
-200
-178
-191
-114
50
180
196
129
56
10
-24
-54
-77
-124
-260
-508
-802
-1062
-1297
-1563
-1849
-2031
-1964
-1634
-1171
-707
-256
280
983
1807
2581
3120
3352
3340
3224
3087
2899
2583
2144
1699
1388
1242
1186
1111
989
876
838
878
904
814
612
421
364
438
515
501
436
418
478
536
524
472
448
443
391
271
160
150
239
345
395
378
331
287
270
296
362
436
494
544
615
706
774
788
761
741
751
767
762
729
680
645
653
695
710
636
496
395
411
478
443
257
73
82
282
461
441
282
199
285
398
351
149
-23
-26
75
125
82
47
99
186
205
146
96
104
94
-20
-207
-337
-319
-205
-118
-104
-81
55
293
497
541
426
275
193
168
98
-60
-207
-191
16
274
403
367
299
336
470
551
456
205
-70
-235
-269
-247
-260
-341
-443
-502
-492
-440
-403
-410
-457
-523
-587
-641
-685
-726
-782
-868
-995
-1153
-1304
-1395
-1396
-1357
-1369
-1465
-1571
-1579
-1477
-1363
-1331
-1362
-1347
-1230
-1068
-954
-918
-893
-816
-714
-675
-730
-801
-767
-590
-354
-187
-124
-89
-4
136
295
468
691
952
1165
1259
1247
1200
1130
973
688
327
2
-209
-318
-380
-433
-495
-554
-573
-515
-392
-286
-275
-344
-409
-398
-329
-282
-319
-444
-623
-829
-1064
-1343
-1662
-1973
-2198
-2260
-2101
-1723
-1177
-572
-19
455
947
1572
2292
2868
3063
2898
2666
2593
2575
2296
1611
775
207
52
68
-81
-449
-784
-860
-728
-621
-675
-814
-877
-814
-688
-555
-400
-185
64
285
460
651
908
1209
1472
1645
1747
1857
2033
2276
2536
2735
2817
2802
2766
2779
2843
2889
2872
2840
2888
3031
3158
3145
3018
2921
2974
3121
3198
3092
2855
2642
2561
2603
2670
2672
2604
2541
2574
2726
2909
3013
3009
2967
2962
2979
2939
2810
2663
2589
2599
2619
2581
2520
2522
2631
2793
2924
3004
3089
3222
3345
3343
3181
2985
2931
3038
3144
3079
2889
2809
3010
3388
3667
3670
3468
3279
3216
3195
3076
2843
2622
2540
2600
2719
2832
2962
3145
3330
3412
3357
3268
3249
3270
3217
3075
2967
2981
3008
2887
2670
2674
3127
3840
4310
4203
3661
3094
2724
2413
1896
1106
222
-529
-1009
-1172
-1034
-708
-404
-295
-376
-489
-509
-488
-567
-780
-1018
-1161
-1219
-1270
-1319
-1284
-1146
-1040
-1146
-1454
-1718
-1693
-1383
-1005
-731
-530
-304
-108
-123
-431
-860
-1138
-1185
-1191
-1384
-1789
-2214
-2451
-2455
-2340
-2271
-2332
-2464
-2516
-2380
-2120
-1919
-1887
-1948
-1934
-1804
-1693
-1725
-1848
-1878
-1725
-1493
-1351
-1352
-1416
-1429
-1304
-1037
-741
-631
-880
-1407
-1895
-2078
-1997
-1929
-2055
-2240
-2185
-1757
-1093
-435
87
507
901
1287
1607
1757
1675
1405
1090
861
719
563
328
89
-34
-27
-8
-103
-315
-528
-629
-622
-583
-577
-602
-617
-591
-532
-477
-447
-393
-230
86
477
788
884
759
529
332
244
239
208
47
-244
-535
-661
-571
-393
-345
-537
-878
-1160
-1247
-1185
-1147
-1266
-1521
-1762
-1850
-1786
-1698
-1712
-1832
-1965
-2035
-2058
-2105
-2196
-2271
-2264
-2184
-2111
-2117
-2208
-2319
-2361
-2287
-2137
-2010
-1996
-2089
-2189
-2196
-2133
-2129
-2280
-2551
-2792
-2885
-2842
-2764
-2703
-2625
-2483
-2313
-2218
-2249
-2345
-2400
-2386
-2390
-2504
-2698
-2818
-2736
-2475
-2194
-2047
-2060
-2127
-2131
-2034
-1883
-1744
-1634
-1521
-1372
-1178
-952
-717
-497
-321
-218
-190
-204
-213
-179
-96
16
138
265
398
542
701
886
1101
1333
1550
1711
1795
1809
1766
1658
1471
1216
945
719
565
477
449
499
630
800
957
1084
1205
1329
1416
1419
1356
1310
1334
1408
1478
1563
1743
2050
2382
2573
2552
2413
2293
2224
2119
1899
1603
1356
1245
1260
1343
1461
1617
1791
1922
1957
1898
1797
1697
1600
1499
1409
1371
1411
1511
1627
1715
1761
1756
1697
1591
1481
1408
1379
1360
1321
1274
1251
1247
1225
1151
1046
991
1040
1141
1161
999
691
384
183
25
-258
-732
-1221
-1416
-1153
-566
56
542
970
1529
2280
3067
3650
3898
3867
3723
3585
3441
3218
2904
2584
2365
2251
2140
1971
1802
1742
1800
1845
1758
1582
1472
1506
1593
1573
1387
1142
988
994
1103
1207
1232
1187
1132
1129
1190
1271
1302
1241
1104
947
843
827
880
947
968
928
865
822
793
740
631
482
328
176
13
-142
-211
-120
118
392
586
693
797
965
1159
1275
1250
1109
910
673
396
119
-61
-79
15
97
95
51
53
115
146
42
-207
-515
-790
-998
-1173
-1341
-1495
-1614
-1705
-1803
-1935
-2094
-2261
-2437
-2640
-2879
-3126
-3327
-3435
-3440
-3374
-3295
-3247
-3227
-3188
-3078
-2913
-2761
-2672
-2617
-2522
-2362
-2206
-2123
-2111
-2101
-2053
-1996
-1975
-1969
-1918
-1804
-1675
-1574
-1472
-1312
-1099
-915
-835
-848
-881
-894
-904
-955
-1046
-1133
-1181
-1185
-1147
-1072
-974
-889
-852
-857
-868
-860
-842
-843
-869
-891
-883
-847
-809
-785
-768
-751
-742
-748
-755
-733
-664
-565
-462
-364
-255
-118
43
215
384
535
649
721
768
831
928
1034
1111
1159
1226
1352
1517
1659
1748
1812
1894
1988
2030
1977
1864
1775
1755
1763
1722
1615
1492
1414
1379
1331
1219
1041
837
646
481
316
122
-101
-315
-482
-622
-812
-1094
-1424
-1726
-1999
-2315
-2681
-2948
-2928
-2604
-2173
-1832
-1562
-1164
-503
317
1041
1469
1586
1515
1398
1303
1191
945
484
-107
-598
-815
-825
-863
-1081
-1368
-1504
-1442
-1352
-1397
-1523
-1544
-1377
-1150
-1042
-1073
-1099
-999
-801
-635
-572
-576
-563
-489
-373
-265
-183
-101
11
140
222
211
142
102
137
211
256
257
270
328
417
517
625
716
732
666
600
640
780
876
810
634
517
540
615
606
480
327
230
182
140
88
48
24
-5
-40
-39
22
92
81
-44
-202
-294
-322
-392
-587
-844
-995
-939
-734
-540
-454
-458
-458
-389
-265
-130
-40
-37
-121
-230
-261
-163
7
132
140
91
85
157
250
287
252
215
244
332
412
426
392
374
406
457
458
404
382
490
716
924
1004
1000
1078
1322
1604
1718
1593
1383
1293
1358
1437
1398
1264
1162
1167
1230
1248
1211
1204
1287
1389
1385
1242
1085
1074
1225
1385
1396
1277
1178
1186
1256
1287
1247
1171
1096
1042
1044
1128
1228
1208
1012
785
754
988
1267
1311
1088
852
875
1152
1402
1369
1104
892
948
1171
1257
1057
749
637
806
1019
994
745
522
510
630
682
605
524
546
606
566
389
183
70
54
31
-133
-461
-828
-1033
-996
-893
-1031
-1481
-1915
-1890
-1309
-566
-112
43
311
1024
2019
2798
3051
2889
2622
2418
2193
1833
1356
880
476
148
-112
-276
-321
-304
-342
-509
-790
-1091
-1328
-1483
-1582
-1661
-1720
-1740
-1731
-1718
-1718
-1700
-1611
-1448
-1297
-1266
-1385
-1539
-1569
-1449
-1305
-1278
-1354
-1387
-1277
-1105
-1044
-1154
-1310
-1346
-1244
-1125
-1092
-1123
-1135
-1108
-1111
-1184
-1264
-1260
-1190
-1176
-1291
-1476
-1603
-1612
-1552
-1497
-1470
-1438
-1397
-1364
-1355
-1357
-1370
-1416
-1483
-1520
-1509
-1497
-1532
-1592
-1584
-1463
-1318
-1275
-1334
-1382
-1341
-1291
-1357
-1519
-1619
-1549
-1397
-1341
-1429
-1518
-1444
-1229
-1045
-1015
-1085
-1126
-1091
-1034
-1000
-960
-881
-807
-830
-951
-1046
-1003
-862
-764
-795
-897
-950
-911
-837
-782
-752
-750
-803
-922
-1039
-1049
-951
-861
-875
-950
-937
-769
-547
-417
-400
-409
-385
-384
-466
-576
-586
-463
-328
-317
-410
-441
-298
-53
126
160
109
77
116
220
360
486
523
439
321
310
433
555
500
272
52
0
113
259
334
328
279
233
260
393
557
600
462
279
268
476
705
729
562
433
523
768
941
896
694
520
502
613
722
717
597
447
359
351
364
347
308
293
328
352
281
108
-77
-175
-192
-249
-452
-770
-1081
-1289
-1389
-1404
-1302
-1032
-619
-161
286
776
1394
2116
2788
3244
3428
3404
3279
3127
2959
2733
2403
1974
1538
1207
1014
905
816
705
563
378
173
4
-87
-143
-242
-394
-506
-492
-389
-313
-317
-350
-338
-280
-222
-192
-174
-156
-155
-186
-235
-281
-298
-244
-70
212
490
618
555
391
230
59
-223
-669
-1198
-1657
-1942
-2055
-2047
-1977
-1871
-1735
-1581
-1455
-1426
-1525
-1693
-1833
-1905
-1955
-2031
-2114
-2131
-2059
-1950
-1866
-1827
-1832
-1898
-2039
-2213
-2318
-2300
-2204
-2125
-2107
-2118
-2111
-2084
-2067
-2073
-2081
-2069
-2025
-1949
-1851
-1762
-1722
-1732
-1732
-1652
-1506
-1387
-1371
-1427
-1464
-1449
-1459
-1587
-1814
-2003
-2050
-1995
-1973
-2047
-2126
-2060
-1813
-1510
-1319
-1299
-1360
-1376
-1308
-1225
-1199
-1210
-1165
-1015
-804
-605
-407
-134
207
467
482
284
89
77
206
315
356
441
655
917
1090
1169
1276
1468
1632
1635
1501
1395
1428
1550
1655
1721
1796
1880
1925
1909
1884
1899
1929
1912
1858
1846
1926
2053
2139
2161
2163
2190
2234
2255
2239
2217
2236
2328
2488
2670
2817
2901
2948
3011
3117
3251
3385
3510
3635
3750
3842
3913
3976
4039
4084
4078
4008
3891
3762
3649
3581
3562
3563
3540
3474
3392
3344
3339
3322
3217
3006
2751
2528
2358
2201
2023
1861
1807
1932
2217
2564
2875
3124
3370
3688
4071
4397
4490
4278
3888
3552
3379
3256
2982
2524
2066
1809
1740
1668
1464
1206
1051
1013
940
713
410
222
237
345
363
233
65
-4
37
88
57
-42
-137
-194
-239
-296
-326
-288
-196
-122
-117
-165
-205
-201
-170
-151
-157
-167
-146
-89
-34
-41
-123
-227
-291
-336
-444
-658
-906
-1061
-1082
-1048
-1064
-1149
-1246
-1305
-1342
-1394
-1466
-1537
-1589
-1623
-1639
-1637
-1621
-1605
-1594
-1573
-1533
-1491
-1480
-1522
-1598
-1670
-1706
-1703
-1691
-1711
-1766
-1821
-1840
-1824
-1823
-1876
-1971
-2060
-2115
-2152
-2204
-2264
-2290
-2265
-2229
-2237
-2281
-2282
-2163
-1949
-1750
-1648
-1619
-1577
-1477
-1361
-1287
-1252
-1203
-1114
-1017
-949
-882
-771
-613
-450
-316
-205
-113
-79
-149
-274
-320
-199
16
156
137
54
67
219
390
431
313
139
29
4
-1
-46
-136
-222
-266
-287
-341
-464
-623
-744
-784
-785
-828
-952
-1104
-1201
-1205
-1150
-1096
-1069
-1058
-1036
-983
-887
-754
-610
-491
-395
-282
-115
82
233
296
317
381
519
672
766
804
863
1002
1196
1366
1464
1506
1532
1551
1535
1459
1326
1164
1007
892
830
804
771
692
585
491
419
327
164
-69
-330
-594
-866
-1151
-1433
-1697
-1964
-2236
-2445
-2462
-2215
-1779
-1316
-920
-521
24
746
1493
2036
2244
2175
1993
1822
1654
1393
973
445
-54
-409
-612
-742
-885
-1065
-1240
-1375
-1483
-1607
-1770
-1932
-2031
-2033
-1982
-1947
-1951
-1946
-1871
-1727
-1585
-1512
-1506
-1499
-1449
-1377
-1334
-1326
-1293
-1175
-1006
-891
-898
-975
-994
-888
-717
-584
-513
-432
-280
-93
30
42
-2
-20
8
31
2
-63
-109
-105
-69
-41
-43
-61
-71
-66
-55
-52
-69
-96
-109
-96
-62
-39
-55
-113
-186
-249
-290
-322
-358
-392
-402
-365
-286
-198
-137
-107
-80
-33
26
73
94
103
124
167
233
325
435
541
623
698
805
951
1088
1160
1181
1231
1380
1608
1833
1990
2090
2188
2315
2444
2530
2547
2505
2435
2369
2331
2330
2363
2406
2425
2390
2308
2215
2160
2162
2177
2138
2013
1840
1699
1633
1611
1571
1489
1394
1316
1244
1151
1061
1038
1107
1195
1206
1129
1054
1064
1127
1122
985
773
602
529
517
506
477
446
416
384
369
414
532
640
614
411
128
-95
-248
-438
-741
-1050
-1150
-939
-533
-125
212
538
879
1136
1187
1041
831
667
549
450
410
493
689
921
1144
1379
1606
1697
1533
1160
766
488
297
98
-81
-106
50
203
118
-253
-743
-1141
-1355
-1410
-1329
-1089
-668
-76
657
1491
2348
3096
3599
3809
3780
3606
3357
3053
2697
2311
1922
1547
1196
886
652
520
463
407
274
86
-19
87
370
633
677
497
279
195
221
190
-1
-253
-383
-333
-243
-295
-522
-776
-901
-887
-878
-1013
-1286
-1559
-1687
-1661
-1612
-1685
-1887
-2082
-2130
-2037
-1955
-2015
-2207
-2396
-2470
-2448
-2433
-2509
-2667
-2838
-2942
-2946
-2870
-2775
-2729
-2754
-2812
-2828
-2767
-2670
-2608
-2607
-2634
-2634
-2582
-2496
-2425
-2394
-2394
-2382
-2321
-2217
-2120
-2071
-2056
-2001
-1851
-1636
-1450
-1347
-1294
-1214
-1074
-921
-825
-798
-786
-728
-616
-493
-413
-392
-398
-383
-327
-258
-223
-248
-306
-343
-325
-265
-201
-131
-20
153
351
514
625
733
866
956
886
642
383
286
358
415
277
-6
-212
-208
-96
-89
-265
-483
-570
-521
-482
-571
-751
-900
-955
-956
-957
-976
-1009
-1068
-1150
-1213
-1205
-1120
-1023
-990
-1018
-1059
-1080
-1083
-1064
-1012
-955
-945
-984
-1006
-944
-820
-735
-743
-765
-703
-590
-539
-585
-605
-454
-151
115
185
113
99
260
522
727
812
858
976
1207
1486
1713
1849
1930
2024
2164
2322
2425
2443
2431
2492
2649
2782
2742
2514
2251
2117
2131
2140
1977
1655
1338
1160
1097
1036
937
927
1172
1665
2205
2597
2860
3207
3792
4481
4964
5052
4838
4564
4353
4155
3878
3517
3123
2744
2416
2226
2242
2391
2463
2296
1955
1689
1670
1812
1898
1822
1650
1498
1417
1398
1393
1360
1244
1025
805
733
828
945
936
832
828
1000
1198
1231
1098
985
1022
1122
1106
946
797
818
988
1156
1194
1110
1010
999
1104
1248
1263
1034
648
376
439
750
966
859
554
407
618
995
1194
1116
964
953
1059
1081
947
816
868
1069
1189
1094
924
916
1126
1361
1372
1118
789
604
634
783
915
951
886
757
631
568
568
542
388
108
-171
-314
-308
-258
-279
-399
-563
-681
-695
-620
-544
-569
-709
-879
-965
-928
-855
-827
-799
-703
-600
-622
-771
-890
-831
-672
-659
-885
-1148
-1174
-953
-773
-863
-1111
-1194
-980
-673
-574
-739
-966
-1056
-1019
-997
-1072
-1188
-1278
-1366
-1469
-1504
-1374
-1129
-973
-1057
-1266
-1348
-1232
-1125
-1257
-1583
-1826
-1797
-1626
-1593
-1757
-1896
-1806
-1573
-1460
-1583
-1818
-1981
-2057
-2124
-2198
-2196
-2087
-1951
-1853
-1727
-1477
-1166
-990
-1039
-1159
-1173
-1105
-1130
-1306
-1477
-1463
-1292
-1139
-1074
-1013
-895
-788
-798
-897
-962
-953
-942
-1004
-1129
-1266
-1394
-1520
-1619
-1699
-1821
-2054
-2357
-2588
-2686
-2741
-2854
-2938
-2777
-2277
-1611
-1048
-665
-275
338
1145
1865
2217
2178
1981
1868
1858
1767
1442
926
425
99
-68
-193
-372
-610
-853
-1041
-1134
-1131
-1084
-1069
-1108
-1141
-1105
-1016
-949
-966
-1047
-1148
-1249
-1355
-1463
-1553
-1606
-1626
-1629
-1629
-1645
-1664
-1649
-1563
-1437
-1381
-1461
-1602
-1648
-1541
-1389
-1344
-1416
-1468
-1397
-1280
-1266
-1381
-1475
-1403
-1187
-987
-925
-944
-900
-731
-515
-377
-372
-432
-466
-438
-370
-304
-265
-257
-270
-282
-268
-210
-136
-106
-162
-281
-378
-399
-379
-395
-477
-565
-589
-564
-567
-651
-766
-817
-778
-734
-770
-860
-900
-850
-786
-803
-898
-963
-926
-837
-786
-784
-754
-646
-516
-471
-535
-610
-597
-490
-379
-347
-390
-434
-407
-298
-157
-47
-3
-18
-55
-65
-16
84
181
221
205
187
223
299
348
320
242
176
138
81
-35
-166
-240
-244
-253
-332
-453
-522
-495
-420
-377
-389
-413
-406
-377
-357
-364
-400
-458
-529
-570
-548
-494
-481
-541
-599
-555
-406
-247
-161
-119
-39
97
218
269
289
354
456
488
364
125
-91
-188
-200
-230
-325
-413
-384
-219
-31
54
27
-5
47
136
129
-17
-213
-331
-348
-352
-437
-599
-773
-915
-1041
-1202
-1415
-1648
-1843
-1978
-2106
-2298
-2538
-2668
-2508
-2055
-1510
-1077
-729
-244
538
1507
2371
2912
3143
3219
3249
3216
3045
2715
2291
1901
1632
1483
1367
1202
999
868
871
936
910
729
491
355
368
439
450
381
298
257
246
227
191
157
134
104
51
-14
-37
17
130
225
232
165
122
178
293
365
350
319
363
461
499
402
230
98
47
19
-64
-202
-343
-447
-525
-605
-696
-794
-887
-970
-1056
-1149
-1239
-1288
-1264
-1177
-1075
-991
-908
-789
-619
-425
-258
-155
-115
-95
-47
46
147
206
206
179
153
113
33
-62
-127
-152
-182
-256
-356
-433
-464
-467
-461
-451
-438
-449
-495
-548
-562
-527
-487
-478
-485
-459
-376
-256
-142
-53
13
72
141
233
332
402
414
375
331
321
341
357
340
300
269
266
285
302
302
285
253
214
178
146
102
29
-74
-169
-207
-166
-67
62
218
413
647
894
1127
1316
1441
1498
1516
1547
1611
1671
1678
1643
1648
1758
1933
2061
2077
2028
2006
2029
2034
1964
1851
1783
1805
1883
1972
2059
2152
2248
2335
2427
2547
2693
2830
2937
3048
3204
3390
3528
3583
3613
3704
3862
3994
4027
3984
3956
3995
4066
4097
4067
3982
3838
3627
3379
3155
2978
2781
2478
2082
1706
1437
1246
1075
959
1032
1364
1841
2271
2583
2891
3339
3913
4436
4718
4710
4505
4249
4037
3859
3619
3239
2766
2345
2068
1863
1556
1061
496
74
-89
-53
38
73
29
-50
-102
-98
-78
-121
-267
-448
-542
-478
-293
-70
136
319
467
540
512
419
332
287
262
214
135
64
64
165
342
531
656
681
621
514
415
358
361
410
463
478
435
347
245
148
65
-11
-88
-169
-252
-342
-438
-543
-655
-760
-834
-870
-886
-917
-983
-1073
-1162
-1236
-1306
-1390
-1496
-1605
-1690
-1743
-1771
-1793
-1812
-1822
-1819
-1806
-1783
-1740
-1677
-1608
-1555
-1503
-1402
-1229
-1043
-941
-946
-965
-879
-691
-514
-428
-385
-272
-64
139
239
252
268
322
349
290
172
83
59
60
36
-15
-56
-87
-152
-283
-441
-562
-619
-660
-752
-890
-983
-947
-807
-686
-688
-784
-861
-860
-846
-929
-1121
-1321
-1422
-1424
-1413
-1450
-1525
-1596
-1653
-1721
-1814
-1912
-1985
-2041
-2110
-2213
-2326
-2409
-2439
-2438
-2440
-2460
-2488
-2505
-2504
-2485
-2439
-2361
-2257
-2143
-2025
-1888
-1728
-1563
-1425
-1321
-1225
-1119
-1018
-950
-922
-915
-911
-916
-942
-975
-986
-964
-925
-886
-836
-755
-644
-533
-452
-401
-362
-344
-381
-485
-616
-713
-755
-787
-866
-988
-1104
-1184
-1237
-1253
-1159
-871
-408
77
448
738
1135
1766
2514
3085
3267
3125
2938
2927
3059
3107
2896
2482
2093
1918
1946
2027
2029
1943
1844
1803
1833
1919
2037
2145
2206
2222
2232
2273
2329
2344
2294
2217
2172
2171
2181
2170
2154
2171
2224
2275
2276
2215
2112
1984
1836
1673
1513
1374
1262
1181
1141
1159
1219
1275
1279
1223
1137
1046
938
785
599
424
304
236
188
129
60
0
-33
-39
-35
-36
-39
-24
34
139
271
414
574
757
948
1116
1239
1326
1401
1493
1626
1800
1988
2139
2231
2287
2350
2414
2403
2249
1970
1663
1417
1250
1134
1045
972
908
840
779
747
714
586
288
-132
-531
-811
-1010
-1234
-1500
-1704
-1750
-1688
-1654
-1721
-1824
-1876
-1890
-1948
-2079
-2204
-2228
-2148
-2033
-1927
-1792
-1597
-1391
-1266
-1249
-1257
-1195
-1072
-989
-1018
-1115
-1149
-1045
-838
-631
-488
-395
-302
-187
-74
15
80
136
193
242
260
227
140
31
-60
-114
-147
-186
-228
-235
-177
-61
63
151
197
209
189
137
65
-10
-76
-148
-243
-350
-440
-495
-516
-514
-510
-533
-603
-703
-774
-764
-681
-605
-602
-654
-674
-602
-481
-403
-405
-435
-425
-376
-343
-363
-431
-524
-641
-792
-968
-1137
-1287
-1431
-1576
-1713
-1841
-1968
-2073
-2072
-1861
-1431
-904
-426
-23
407
969
1623
2191
2502
2547
2457
2362
2266
2069
1705
1240
833
585
465
373
245
92
-48
-173
-301
-400
-387
-209
90
394
609
731
818
907
960
908
736
511
321
203
125
46
-30
-61
-34
9
13
-32
-89
-127
-158
-214
-295
-369
-387
-340
-274
-267
-378
-598
-848
-1021
-1075
-1062
-1060
-1089
-1102
-1064
-1016
-1041
-1159
-1304
-1403
-1462
-1546
-1678
-1798
-1848
-1847
-1868
-1949
-2052
-2125
-2167
-2216
-2288
-2365
-2435
-2501
-2566
-2617
-2635
-2621
-2605
-2608
-2637
-2686
-2750
-2818
-2886
-2938
-2948
-2896
-2791
-2690
-2645
-2643
-2610
-2498
-2358
-2300
-2374
-2513
-2614
-2643
-2641
-2642
-2625
-2558
-2448
-2340
-2241
-2116
-1947
-1777
-1667
-1608
-1515
-1327
-1080
-863
-705
-543
-323
-68
128
232
302
419
594
769
900
997
1091
1200
1334
1500
1680
1828
1894
1894
1900
1958
2025
2032
1966
1888
1858
1873
1883
1861
1802
1713
1604
1487
1387
1306
1224
1128
1036
985
979
993
1001
1007
1023
1040
1030
986
940
941
1003
1086
1146
1181
1234
1347
1509
1662
1759
1781
1737
1652
1566
1527
1564
1648
1711
1715
1713
1792
1966
2131
2154
2006
1801
1654
1562
1441
1258
1083
992
949
847
655
455
326
206
-17
-301
-425
-186
379
1020
1557
2071
2760
3656
4544
5144
5360
5339
5271
5207
5048
4693
4176
3650
3247
2968
2721
2460
2246
2140
2095
1976
1726
1458
1347
1422
1494
1354
1014
692
593
693
794
767
664
603
619
635
596
542
542
565
525
421
346
369
425
416
341
303
341
344
195
-59
-242
-287
-336
-555
-896
-1139
-1140
-1004
-930
-959
-961
-864
-759
-787
-962
-1160
-1288
-1374
-1515
-1724
-1896
-1911
-1781
-1658
-1704
-1926
-2135
-2126
-1902
-1725
-1872
-2316
-2723
-2777
-2492
-2181
-2120
-2277
-2398
-2298
-2030
-1805
-1762
-1876
-2023
-2112
-2145
-2153
-2155
-2151
-2151
-2164
-2161
-2095
-1991
-1929
-1968
-2046
-2042
-1940
-1881
-1981
-2140
-2141
-1933
-1745
-1811
-2079
-2259
-2170
-1963
-1897
-2016
-2113
-2029
-1858
-1810
-1943
-2098
-2098
-1963
-1872
-1931
-2046
-2032
-1808
-1499
-1299
-1294
-1407
-1502
-1534
-1552
-1591
-1628
-1641
-1652
-1683
-1699
-1624
-1461
-1321
-1288
-1335
-1366
-1368
-1427
-1571
-1692
-1670
-1538
-1463
-1551
-1702
-1735
-1585
-1382
-1292
-1358
-1491
-1565
-1509
-1357
-1223
-1216
-1336
-1447
-1415
-1239
-1053
-981
-1027
-1093
-1114
-1103
-1093
-1101
-1132
-1186
-1245
-1273
-1253
-1242
-1291
-1367
-1367
-1255
-1128
-1096
-1143
-1146
-1028
-859
-757
-760
-810
-857
-910
-991
-1092
-1218
-1408
-1666
-1881
-1877
-1567
-1055
-543
-122
299
893
1716
2600
3262
3521
3446
3281
3210
3182
3008
2579
2012
1535
1281
1201
1150
1043
892
741
609
480
338
192
72
10
-2
-5
-30
-65
-73
-45
-10
-19
-74
-136
-184
-223
-261
-293
-300
-289
-265
-212
-128
-67
-110
-264
-430
-486
-422
-351
-372
-458
-498
-441
-355
-340
-410
-495
-540
-551
-588
-678
-793
-876
-895
-854
-781
-713
-691
-747
-861
-950
-936
-835
-762
-820
-968
-1045
-932
-692
-532
-576
-734
-795
-671
-501
-485
-639
-773
-692
-416
-138
-10
10
72
250
463
595
617
584
544
494
411
312
244
223
213
157
41
-92
-192
-238
-241
-237
-260
-328
-430
-521
-558
-528
-464
-446
-532
-710
-887
-957
-908
-845
-891
-1060
-1248
-1335
-1312
-1299
-1400
-1589
-1743
-1773
-1714
-1668
-1683
-1705
-1651
-1523
-1405
-1369
-1412
-1474
-1516
-1563
-1671
-1849
-2030
-2102
-1997
-1750
-1486
-1298
-1163
-976
-687
-378
-189
-164
-209
-192
-95
-5
0
-43
-15
123
285
356
314
248
254
325
367
317
220
182
257
400
523
575
571
568
594
633
656
653
642
641
646
627
553
425
268
106
-54
-217
-393
-591
-801
-996
-1147
-1261
-1382
-1541
-1719
-1877
-2022
-2192
-2358
-2400
-2221
-1872
-1527
-1282
-1057
-721
-251
235
607
842
977
1027
985
881
777
695
595
441
262
120
42
13
22
76
165
223
193
103
52
116
256
367
383
349
364
463
580
639
645
668
730
763
692
533
412
424
533
620
618
576
594
717
906
1103
1296
1524
1820
2162
2476
2689
2788
2825
2867
2931
2985
2994
2959
2913
2890
2910
2967
3027
3043
2973
2817
2631
2493
2423
2361
2233
2041
1873
1802
1811
1804
1720
1594
1502
1454
1393
1293
1211
1221
1322
1447
1554
1683
1883
2123
2313
2413
2452
2484
2511
2505
2470
2450
2477
2521
2530
2494
2447
2419
2406
2382
2320
2208
2060
1910
1814
1804
1850
1887
1877
1843
1840
1899
2000
2110
2214
2308
2379
2414
2426
2445
2496
2563
2602
2594
2558
2525
2496
2452
2383
2303
2216
2097
1908
1655
1407
1224
1097
958
780
616
526
478
372
167
-61
-210
-299
-442
-690
-955
-1114
-1175
-1262
-1449
-1658
-1747
-1682
-1569
-1522
-1542
-1546
-1478
-1366
-1272
-1224
-1207
-1197
-1175
-1130
-1042
-884
-660
-404
-176
-34
7
-24
-82
-149
-237
-360
-512
-657
-744
-729
-614
-457
-346
-320
-342
-341
-315
-345
-496
-699
-799
-733
-615
-595
-682
-748
-710
-655
-711
-846
-858
-607
-175
246
611
1072
1769
2612
3331
3702
3707
3482
3160
2799
2388
1908
1366
823
380
128
77
146
229
269
263
208
92
-78
-260
-401
-492
-566
-667
-826
-1027
-1197
-1237
-1118
-939
-856
-922
-1019
-975
-756
-498
-364
-387
-470
-512
-479
-389
-277
-180
-138
-149
-149
-63
101
245
262
128
-91
-314
-510
-696
-896
-1115
-1334
-1524
-1670
-1781
-1874
-1965
-2051
-2132
-2218
-2329
-2476
-2643
-2795
-2898
-2948
-2977
-3015
-3071
-3114
-3125
-3140
-3227
-3412
-3648
-3857
-4019
-4172
-4338
-4478
-4544
-4552
-4575
-4653
-4729
-4722
-4630
-4548
-4551
-4604
-4596
-4472
-4299
-4180
-4136
-4083
-3946
-3745
-3567
-3449
-3334
-3158
-2944
-2773
-2674
-2575
-2391
-2132
-1897
-1758
-1673
-1545
-1341
-1118
-949
-842
-751
-636
-501
-376
-271
-179
-87
3
84
143
180
214
282
401
544
647
677
669
688
757
826
824
729
596
498
465
486
544
641
781
930
1034
1077
1106
1192
1349
1504
1582
1576
1555
1603
1734
1904
2058
2166
2234
2281
2347
2447
2559
2639
2667
2688
2757
2867
2936
2907
2834
2837
2965
3125
3177
3077
2914
2809
2781
2754
2651
2477
2285
2117
1986
1898
1862
1865
1859
1814
1746
1693
1657
1606
1506
1349
1152
937
739
593
484
344
149
2
84
456
956
1351
1594
1876
2391
3094
3719
4032
4020
3851
3694
3587
3456
3196
2763
2226
1746
1462
1364
1309
1146
868
599
453
421
413
364
299
277
327
424
517
581
608
600
554
473
372
261
133
-14
-151
-231
-227
-174
-139
-146
-148
-90
27
140
212
266
343
435
493
493
485
522
570
548
418
250
163
199
296
351
327
278
289
394
558
704
764
721
601
472
391
361
298
110
-206
-518
-655
-578
-425
-389
-524
-713
-835
-900
-1016
-1218
-1426
-1584
-1756
-2014
-2289
-2388
-2244
-2040
-2025
-2229
-2433
-2436
-2294
-2239
-2382
-2614
-2759
-2771
-2737
-2707
-2641
-2498
-2330
-2217
-2161
-2076
-1909
-1740
-1689
-1775
-1875
-1887
-1844
-1866
-2006
-2172
-2238
-2176
-2069
-1989
-1919
-1802
-1638
-1497
-1426
-1387
-1310
-1192
-1108
-1107
-1148
-1151
-1087
-995
-911
-818
-694
-566
-494
-491
-479
-373
-207
-115
-175
-297
-303
-131
97
213
182
120
134
210
271
290
306
338
361
374
431
567
716
769
704
618
606
642
628
539
460
473
546
594
598
627
725
826
826
712
582
518
498
438
303
151
41
-30
-116
-234
-359
-461
-556
-681
-837
-995
-1143
-1293
-1453
-1612
-1763
-1924
-2105
-2271
-2384
-2465
-2576
-2726
-2793
-2616
-2170
-1620
-1164
-827
-444
153
941
1697
2185
2338
2277
2186
2155
2134
1999
1677
1215
761
451
316
275
194
14
-205
-360
-426
-480
-604
-764
-838
-767
-642
-609
-680
-702
-530
-213
52
137
103
104
207
340
408
421
456
554
671
761
833
919
1007
1040
1005
972
1015
1105
1155
1132
1101
1124
1162
1136
1048
973
956
943
869
763
708
708
669
522
329
212
191
171
57
-141
-321
-393
-344
-241
-185
-216
-273
-263
-183
-155
-281
-492
-601
-530
-401
-382
-466
-496
-380
-207
-127
-175
-238
-220
-158
-137
-184
-249
-276
-264
-242
-229
-217
-183
-139
-137
-200
-257
-201
-32
118
123
32
39
253
538
657
537
338
239
261
309
336
395
519
640
690
701
760
882
969
927
782
656
651
740
824
835
800
827
985
1213
1347
1280
1076
910
906
1008
1083
1076
1028
1004
1029
1081
1122
1117
1056
968
904
865
776
584
370
271
305
325
195
-12
-77
83
319
436
437
476
631
813
879
797
630
465
344
274
255
248
218
168
120
99
98
120
178
227
162
-69
-344
-483
-442
-372
-434
-632
-827
-933
-985
-1051
-1130
-1210
-1350
-1641
-2081
-2541
-2882
-3076
-3185
-3226
-3107
-2748
-2225
-1697
-1213
-640
139
995
1597
1746
1585
1404
1293
1077
618
60
-338
-566
-833
-1225
-1497
-1387
-1009
-785
-959
-1316
-1452
-1257
-995
-961
-1155
-1372
-1461
-1436
-1365
-1260
-1102
-948
-903
-1015
-1205
-1319
-1278
-1149
-1079
-1140
-1252
-1289
-1191
-1039
-952
-968
-1040
-1099
-1120
-1114
-1108
-1136
-1203
-1261
-1250
-1159
-1069
-1074
-1187
-1314
-1334
-1235
-1134
-1168
-1336
-1499
-1523
-1421
-1336
-1373
-1471
-1502
-1457
-1434
-1510
-1628
-1646
-1526
-1371
-1321
-1401
-1519
-1588
-1572
-1502
-1440
-1444
-1521
-1587
-1537
-1348
-1114
-978
-981
-1046
-1062
-996
-922
-951
-1116
-1306
-1366
-1235
-1018
-900
-939
-997
-928
-771
-680
-732
-830
-840
-765
-716
-741
-770
-714
-609
-543
-546
-539
-442
-265
-91
6
39
92
229
436
620
672
570
433
427
617
893
1066
1065
1015
1085
1295
1478
1472
1279
1077
1024
1096
1143
1088
996
980
1062
1130
1061
862
656
572
625
713
723
640
566
612
768
900
881
732
616
672
857
1010
1022
951
931
1020
1144
1202
1170
1095
1009
925
864
856
915
999
1048
1066
1098
1152
1190
1183
1155
1139
1110
1024
914
885
973
1078
1042
853
682
681
794
818
631
324
77
-61
-215
-505
-854
-1025
-851
-400
92
453
720
1055
1554
2126
2576
2765
2701
2509
2319
2178
2055
1883
1616
1292
1015
879
880
908
830
617
366
198
150
139
65
-73
-164
-105
82
271
348
312
248
228
233
189
55
-124
-277
-374
-442
-519
-584
-562
-414
-204
-65
-80
-196
-274
-237
-156
-181
-379
-653
-839
-865
-820
-852
-999
-1154
-1197
-1126
-1060
-1108
-1256
-1413
-1520
-1600
-1708
-1850
-1972
-2019
-2000
-1992
-2081
-2322
-2689
-3073
-3343
-3435
-3395
-3328
-3284
-3200
-2954
-2496
-1946
-1528
-1389
-1469
-1562
-1520
-1398
-1359
-1457
-1567
-1541
-1399
-1290
-1296
-1314
-1209
-1017
-910
-991
-1147
-1173
-1007
-768
-596
-516
-464
-390
-305
-224
-126
-2
115
190
246
351
528
709
799
787
743
743
780
790
739
658
598
575
560
532
499
483
477
448
385
300
204
93
-36
-154
-230
-273
-311
-338
-306
-195
-75
-70
-213
-383
-414
-263
-61
48
58
100
289
602
906
1080
1105
1051
1013
1045
1125
1176
1130
1002
899
910
1012
1089
1061
977
941
983
1039
1049
1029
1029
1046
1041
1019
1041
1138
1239
1240
1131
1018
997
1041
1035
908
669
384
114
-91
-194
-198
-192
-287
-496
-702
-769
-695
-620
-675
-836
-961
-954
-849
-717
-536
-198
346
1002
1615
2126
2609
3167
3798
4374
4743
4831
4680
4406
4132
3907
3709
3467
3139
2744
2365
2103
1999
1989
1959
1842
1665
1507
1401
1312
1219
1167
1200
1263
1230
1056
871
844
993
1174
1240
1187
1124
1133
1211
1334
1486
1636
1738
1755
1701
1629
1608
1640
1679
1666
1591
1526
1551
1669
1770
1765
1703
1725
1881
2050
2092
2026
2010
2131
2298
2373
2345
2317
2350
2390
2355
2251
2150
2067
1961
1825
1718
1683
1663
1548
1326
1117
1032
1033
982
781
490
252
138
85
-21
-203
-389
-508
-567
-622
-700
-773
-805
-812
-822
-832
-804
-718
-615
-543
-485
-379
-206
-36
35
-24
-151
-264
-323
-344
-358
-377
-383
-336
-202
-7
155
173
29
-183
-366
-492
-604
-719
-780
-722
-531
-264
19
278
482
595
592
490
338
178
30
-96
-179
-190
-126
-2
150
290
392
439
421
334
204
82
17
12
14
-42
-154
-262
-306
-286
-251
-228
-199
-157
-131
-150
-182
-144
-10
142
200
150
110
195
389
568
639
640
681
819
1011
1178
1285
1343
1370
1370
1362
1359
1359
1333
1263
1160
1056
962
872
777
676
551
380
172
-43
-243
-440
-659
-893
-1110
-1303
-1500
-1726
-1965
-2179
-2350
-2463
-2470
-2300
-1934
-1456
-976
-517
10
689
1465
2145
2525
2574
2438
2299
2200
2027
1653
1092
503
48
-235
-411
-544
-659
-768
-916
-1138
-1393
-1607
-1753
-1889
-2079
-2306
-2492
-2583
-2603
-2605
-2621
-2645
-2672
-2715
-2786
-2873
-2953
-3008
-3032
-3024
-2974
-2880
-2763
-2655
-2580
-2535
-2500
-2453
-2393
-2329
-2268
-2212
-2156
-2094
-2019
-1935
-1867
-1844
-1857
-1861
-1818
-1739
-1676
-1656
-1653
-1613
-1518
-1398
-1296
-1220
-1159
-1108
-1065
-1029
-989
-934
-866
-803
-770
-774
-784
-745
-631
-476
-348
-279
-227
-129
10
133
214
297
430
578
659
656
652
724
844
912
892
859
903
1010
1093
1108
1103
1141
1206
1228
1186
1144
1166
1231
1265
1237
1198
1210
1260
1291
1274
1242
1231
1238
1222
1171
1119
1109
1141
1175
1171
1126
1085
1115
1249
1446
1616
1692
1677
1621
1563
1489
1368
1188
965
730
524
390
358
422
536
649
741
812
866
899
913
921
934
943
935
923
948
1021
1102
1133
1081
981
902
890
915
907
824
704
637
674
762
791
703
550
443
437
493
533
533
524
535
554
542
494
441
413
405
383
324
238
169
158
222
330
414
408
314
215
182
192
133
-53
-298
-469
-547
-660
-924
-1259
-1428
-1259
-826
-369
-39
229
614
1219
1970
2665
3102
3203
3065
2896
2810
2711
2414
1892
1357
1046
933
770
399
-43
-290
-270
-151
-98
-79
54
335
653
900
1058
1138
1100
900
597
326
177
133
108
55
-17
-71
-72
2
119
180
88
-139
-378
-533
-647
-804
-981
-1070
-1034
-1001
-1133
-1391
-1559
-1494
-1318
-1280
-1455
-1652
-1663
-1545
-1556
-1834
-2208
-2403
-2367
-2325
-2481
-2770
-2937
-2852
-2666
-2592
-2670
-2747
-2709
-2624
-2619
-2679
-2675
-2535
-2362
-2304
-2364
-2400
-2294
-2103
-1976
-1968
-2003
-1992
-1944
-1922
-1941
-1935
-1863
-1786
-1782
-1847
-1885
-1826
-1718
-1663
-1692
-1739
-1720
-1632
-1532
-1455
-1395
-1324
-1239
-1156
-1101
-1085
-1083
-1031
-866
-575
-216
127
418
677
929
1157
1315
1374
1344
1254
1141
1055
1038
1092
1172
1229
1256
1289
1354
1444
1535
1598
1612
1570
1510
1496
1564
1664
1711
1685
1637
1623
1607
1503
1298
1077
933
868
818
758
736
796
915
1020
1068
1068
1042
986
891
754
573
331
48
-188
-262
-158
-4
40
-68
-207
-229
-117
18
54
-17
-97
-85
42
233
419
554
605
575
507
474
518
594
606
519
402
342
328
260
86
-124
-278
-400
-620
-1002
-1454
-1834
-2082
-2225
-2246
-2057
-1647
-1153
-735
-355
198
1029
1932
2537
2657
2461
2255
2179
2122
1902
1483
1013
676
549
584
674
720
682
580
474
428
447
465
415
306
233
307
526
778
918
900
799
712
684
685
666
598
480
352
271
290
414
564
611
474
182
-130
-305
-284
-130
23
87
81
102
232
457
674
768
700
529
334
156
-19
-214
-398
-499
-507
-491
-557
-709
-837
-816
-629
-365
-136
1
62
93
133
220
364
505
536
388
128
-75
-100
2
37
-112
-329
-366
-117
229
345
123
-201
-308
-152
-20
-188
-596
-911
-883
-616
-408
-414
-506
-474
-281
-105
-104
-231
-298
-212
-77
-67
-189
-261
-138
95
188
24
-242
-347
-196
41
113
-54
-306
-444
-388
-231
-140
-213
-410
-589
-636
-559
-455
-401
-387
-385
-439
-620
-879
-1025
-915
-639
-450
-502
-684
-758
-642
-468
-421
-552
-781
-1018
-1227
-1395
-1499
-1535
-1543
-1556
-1560
-1530
-1482
-1469
-1506
-1539
-1508
-1430
-1367
-1334
-1309
-1272
-1237
-1214
-1162
-1036
-871
-771
-805
-908
-935
-819
-635
-512
-492
-489
-409
-259
-121
-62
-68
-95
-125
-167
-236
-325
-426
-539
-646
-726
-789
-884
-1051
-1293
-1592
-1940
-2312
-2589
-2608
-2327
-1900
-1532
-1237
-778
57
1180
2221
2841
2994
2891
2763
2677
2539
2212
1656
1005
481
243
233
241
123
-52
-120
-41
46
-5
-185
-364
-445
-472
-536
-653
-739
-721
-634
-578
-608
-663
-657
-590
-563
-639
-745
-739
-595
-461
-487
-633
-723
-681
-631
-699
-822
-816
-671
-607
-797
-1107
-1209
-964
-599
-449
-573
-727
-661
-403
-168
-104
-165
-235
-272
-307
-347
-343
-301
-296
-406
-590
-715
-710
-648
-637
-676
-674
-592
-507
-509
-569
-599
-584
-601
-719
-898
-1044
-1127
-1187
-1241
-1258
-1222
-1181
-1175
-1173
-1116
-1024
-987
-1050
-1138
-1143
-1042
-905
-804
-731
-664
-612
-593
-580
-523
-419
-338
-341
-413
-478
-485
-447
-385
-298
-190
-103
-72
-58
28
211
384
394
227
41
13
146
287
311
257
257
366
504
560
518
450
419
398
326
183
23
-88
-143
-200
-302
-421
-487
-485
-460
-443
-402
-294
-136
-16
6
-49
-137
-265
-458
-680
-837
-871
-812
-697
-480
-99
385
788
980
1011
1045
1132
1183
1118
995
938
981
1030
1017
995
1050
1153
1170
1043
870
778
753
660
430
147
-85
-300
-607
-995
-1287
-1355
-1280
-1264
-1372
-1476
-1435
-1295
-1194
-1162
-1083
-852
-507
-158
186
639
1284
2047
2721
3116
3194
3054
2839
2620
2361
1963
1396
776
305
103
102
122
37
-113
-225
-292
-440
-783
-1251
-1620
-1726
-1645
-1622
-1782
-1956
-1846
-1359
-736
-309
-190
-215
-195
-138
-186
-386
-607
-707
-712
-767
-940
-1133
-1207
-1164
-1145
-1269
-1513
-1749
-1872
-1866
-1772
-1634
-1483
-1345
-1229
-1114
-969
-783
-579
-404
-292
-243
-226
-188
-109
-25
-2
-62
-140
-144
-49
80
154
159
173
252
372
463
484
462
442
437
444
478
559
676
783
852
885
899
891
837
729
597
477
375
307
306
386
514
617
658
676
718
773
778
715
642
622
647
639
552
437
396
463
576
639
624
602
657
806
972
1066
1062
1009
978
984
984
941
863
785
720
646
546
440
366
323
248
90
-140
-356
-485
-537
-590
-681
-769
-773
-645
-421
-181
5
127
213
295
378
442
464
475
546
727
989
1261
1512
1777
2067
2303
2367
2249
2070
1957
1893
1770
1557
1366
1327
1427
1529
1537
1478
1431
1423
1409
1376
1372
1441
1581
1757
1953
2157
2352
2510
2622
2685
2680
2584
2427
2298
2260
2270
2229
2102
1955
1857
1796
1740
1750
1956
2409
2984
3505
3941
4422
5073
5857
6590
7101
7337
7363
7290
7195
7083
6907
6637
6328
6097
6020
6058
6112
6119
6089
6045
5967
5808
5549
5214
4840
4473
4158
3925
3744
3533
3260
2999
2865
2860
2851
2700
2423
2169
2044
1987
1878
1695
1539
1475
1441
1318
1090
874
785
805
823
774
701
675
688
657
530
338
149
-2
-135
-267
-389
-486
-568
-662
-753
-804
-804
-793
-833
-946
-1090
-1214
-1310
-1418
-1567
-1737
-1876
-1952
-1979
-2008
-2076
-2168
-2217
-2173
-2077
-2056
-2210
-2494
-2747
-2854
-2872
-2949
-3143
-3352
-3438
-3388
-3325
-3361
-3466
-3533
-3508
-3449
-3444
-3510
-3598
-3656
-3678
-3682
-3674
-3652
-3630
-3615
-3591
-3526
-3418
-3314
-3270
-3281
-3283
-3241
-3185
-3158
-3146
-3085
-2960
-2837
-2792
-2810
-2791
-2671
-2497
-2375
-2351
-2361
-2304
-2162
-1993
-1869
-1796
-1722
-1603
-1446
-1287
-1154
-1041
-941
-870
-834
-815
-779
-720
-662
-620
-569
-474
-337
-171
28
272
515
657
650
574
566
664
762
750
662
633
737
892
955
881
744
635
568
484
338
143
-41
-162
-221
-265
-342
-459
-586
-689
-778
-888
-1031
-1169
-1261
-1295
-1313
-1381
-1523
-1703
-1860
-1963
-2052
-2190
-2393
-2616
-2806
-2953
-3060
-3077
-2922
-2567
-2101
-1652
-1252
-808
-221
479
1136
1587
1776
1765
1659
1532
1387
1172
849
455
96
-120
-176
-143
-112
-111
-101
-51
20
74
97
106
122
139
141
121
94
79
77
80
81
95
140
203
251
264
258
278
348
453
546
597
611
623
662
744
862
994
1109
1187
1238
1295
1381
1484
1564
1592
1575
1548
1539
1550
1554
1527
1472
1416
1389
1395
1406
1397
1374
1370
1400
1438
1442
1400
1341
1299
1280
1273
1264
1244
1203
1147
1111
1131
1196
1245
1216
1117
1013
956
928
884
803
710
643
612
606
608
605
590
568
555
564
587
607
624
648
688
730
762
799
862
937
985
983
960
967
1017
1076
1116
1144
1179
1209
1200
1135
1039
952
894
853
814
776
742
723
714
699
658
598
551
533
515
446
319
203
171
208
214
126
-15
-110
-115
-73
-48
-53
-53
-33
-4
34
106
205
255
157
-104
-426
-663
-746
-712
-626
-501
-297
-6
309
566
731
838
908
911
802
608
438
394
479
599
666
672
682
749
856
937
956
934
917
934
988
1083
1211
1338
1407
1372
1249
1085
921
770
634
503
351
158
-30
-90
72
401
734
969
1204
1608
2207
2819
3227
3370
3339
3229
3056
2808
2529
2264
1991
1653
1288
1028
957
970
868
575
211
-72
-275
-501
-757
-910
-869
-758
-805
-1061
-1320
-1367
-1244
-1196
-1361
-1623
-1773
-1772
-1752
-1799
-1854
-1826
-1738
-1696
-1736
-1785
-1775
-1742
-1774
-1885
-1996
-2040
-2041
-2072
-2151
-2236
-2279
-2276
-2240
-2186
-2121
-2054
-1995
-1952
-1907
-1835
-1733
-1639
-1602
-1630
-1646
-1540
-1292
-1024
-899
-954
-1054
-1046
-927
-837
-879
-1005
-1093
-1108
-1131
-1233
-1376
-1464
-1466
-1437
-1431
-1437
-1397
-1293
-1169
-1085
-1058
-1081
-1143
-1236
-1336
-1410
-1432
-1402
-1339
-1271
-1205
-1116
-982
-820
-687
-635
-656
-691
-697
-685
-700
-748
-790
-801
-795
-808
-839
-858
-849
-836
-852
-896
-938
-962
-987
-1042
-1131
-1233
-1330
-1428
-1528
-1601
-1617
-1587
-1560
-1568
-1581
-1537
-1436
-1377
-1453
-1633
-1767
-1731
-1587
-1514
-1605
-1750
-1753
-1553
-1285
-1131
-1136
-1192
-1185
-1110
-1039
-1027
-1067
-1110
-1109
-1057
-992
-953
-928
-861
-727
-592
-566
-644
-675
-532
-270
-86
-80
-118
25
381
749
935
960
1000
1163
1373
1501
1523
1535
1611
1723
1803
1822
1817
1837
1882
1899
1831
1669
1474
1336
1280
1201
973
633
414
533
976
1481
1819
2036
2392
3053
3884
4569
4907
4970
4956
4963
4913
4705
4353
3980
3674
3411
3124
2823
2580
2419
2286
2122
1938
1795
1707
1624
1516
1428
1424
1489
1536
1519
1490
1527
1643
1768
1834
1833
1794
1737
1688
1658
1639
1594
1509
1437
1452
1555
1676
1749
1774
1808
1859
1888
1857
1776
1694
1632
1579
1532
1489
1433
1343
1242
1192
1239
1312
1279
1125
959
881
857
751
542
355
303
322
273
165
153
298
434
368
140
-4
74
235
254
94
-59
-31
152
326
374
292
161
57
0
-43
-130
-286
-439
-517
-527
-526
-571
-614
-585
-529
-524
-594
-677
-726
-763
-807
-803
-686
-525
-479
-608
-755
-721
-534
-425
-531
-732
-819
-749
-680
-695
-696
-556
-344
-257
-363
-528
-585
-529
-520
-650
-840
-966
-983
-930
-871
-826
-792
-742
-661
-592
-610
-748
-902
-933
-821
-736
-828
-1032
-1129
-1025
-870
-874
-1031
-1158
-1124
-960
-783
-657
-594
-633
-792
-973
-1005
-855
-721
-833
-1159
-1409
-1347
-1054
-826
-828
-922
-897
-745
-643
-699
-826
-875
-835
-820
-897
-983
-973
-875
-790
-791
-836
-833
-795
-818
-989
-1276
-1524
-1611
-1598
-1679
-1971
-2369
-2573
-2365
-1835
-1300
-1006
-885
-628
-34
765
1399
1595
1394
1081
897
856
779
520
100
-324
-598
-683
-657
-629
-676
-795
-939
-1061
-1134
-1183
-1241
-1304
-1332
-1303
-1245
-1199
-1163
-1072
-881
-656
-531
-584
-734
-804
-713
-561
-520
-630
-742
-684
-463
-239
-145
-160
-176
-134
-52
32
98
138
128
65
11
38
142
221
200
96
2
-25
-20
-43
-93
-106
-49
16
-3
-117
-213
-192
-98
-71
-182
-327
-345
-214
-84
-93
-205
-271
-223
-147
-172
-304
-435
-467
-415
-352
-314
-293
-261
-210
-147
-89
-49
-48
-86
-134
-151
-120
-64
-34
-62
-112
-108
-12
126
215
217
198
247
372
498
559
570
585
615
610
538
445
405
445
512
546
542
552
625
749
856
883
818
709
619
581
567
534
476
429
425
461
495
508
508
508
498
467
422
384
351
310
270
264
292
293
216
92
19
54
136
146
51
-59
-66
62
251
396
445
420
374
345
338
324
270
169
59
-22
-49
-17
65
168
237
236
189
167
212
282
292
206
83
28
81
163
160
48
-87
-160
-179
-235
-373
-539
-675
-813
-1026
-1272
-1363
-1153
-717
-291
-13
222
618
1226
1874
2315
2422
2248
1957
1718
1588
1482
1252
853
428
190
198
295
274
98
-92
-168
-161
-188
-288
-396
-429
-389
-348
-355
-386
-370
-269
-121
-12
-5
-94
-190
-192
-78
58
82
-21
-106
0
299
583
625
407
103
-140
-360
-684
-1117
-1490
-1643
-1577
-1406
-1183
-851
-391
78
389
490
469
411
292
35
-348
-734
-998
-1129
-1207
-1300
-1394
-1423
-1356
-1258
-1219
-1268
-1333
-1334
-1280
-1247
-1266
-1262
-1148
-954
-806
-771
-765
-671
-493
-362
-356
-402
-379
-280
-219
-273
-378
-409
-342
-271
-276
-326
-324
-240
-146
-124
-158
-156
-57
107
254
337
378
425
491
546
561
547
535
531
506
435
335
260
260
323
376
353
269
216
255
352
405
371
301
269
274
244
144
32
-2
58
147
203
239
297
376
446
495
551
621
661
622
528
462
481
548
600
629
696
837
1010
1133
1186
1223
1304
1417
1493
1482
1417
1377
1396
1420
1365
1227
1102
1090
1178
1269
1289
1269
1298
1393
1473
1456
1356
1261
1221
1197
1130
1032
996
1071
1196
1257
1205
1087
977
876
723
467
134
-204
-473
-629
-636
-448
-66
441
954
1408
1842
2335
2881
3348
3560
3453
3130
2771
2473
2193
1815
1311
795
419
211
59
-160
-451
-710
-848
-887
-895
-886
-816
-658
-447
-232
-25
193
411
587
702
789
909
1080
1256
1397
1509
1637
1788
1918
1979
1982
1976
1977
1945
1850
1738
1688
1728
1775
1722
1571
1458
1531
1781
2043
2161
2164
2231
2482
2829
3045
3003
2813
2704
2781
2935
2996
2928
2856
2880
2955
2946
2786
2531
2267
2016
1744
1440
1146
908
728
569
405
243
104
-1
-91
-197
-333
-477
-591
-660
-698
-730
-782
-864
-981
-1114
-1224
-1288
-1334
-1411
-1521
-1603
-1610
-1591
-1637
-1768
-1883
-1875
-1772
-1712
-1787
-1936
-2018
-1972
-1872
-1826
-1859
-1887
-1826
-1680
-1517
-1393
-1307
-1226
-1147
-1094
-1079
-1071
-1040
-991
-968
-989
-1007
-954
-809
-617
-450
-340
-279
-229
-161
-74
9
48
29
-26
-73
-86
-89
-130
-233
-374
-511
-611
-689
-790
-925
-1044
-1060
-951
-793
-699
-686
-654
-528
-352
-249
-272
-334
-339
-291
-272
-304
-307
-197
2
181
267
291
327
407
513
616
706
775
819
850
916
1068
1291
1489
1576
1566
1549
1588
1631
1595
1465
1311
1194
1088
954
854
929
1246
1683
2052
2295
2550
2966
3514
3982
4165
4037
3741
3437
3167
2855
2404
1813
1188
666
306
60
-163
-419
-700
-970
-1218
-1446
-1637
-1770
-1838
-1867
-1885
-1906
-1922
-1925
-1926
-1945
-1995
-2083
-2208
-2369
-2541
-2694
-2796
-2847
-2870
-2884
-2884
-2865
-2841
-2842
-2880
-2929
-2952
-2929
-2871
-2800
-2731
-2672
-2620
-2567
-2494
-2404
-2317
-2252
-2203
-2152
-2097
-2069
-2086
-2122
-2131
-2101
-2076
-2102
-2171
-2219
-2190
-2086
-1943
-1797
-1669
-1571
-1519
-1501
-1467
-1365
-1197
-1037
-970
-1001
-1044
-1003
-872
-745
-719
-800
-899
-929
-874
-784
-712
-666
-622
-555
-456
-327
-178
-36
78
164
254
380
542
699
813
885
955
1067
1217
1361
1463
1533
1617
1749
1912
2056
2145
2178
2183
2184
2192
2204
2215
2229
2249
2274
2300
2325
2350
2373
2376
2333
2229
2091
1970
1902
1873
1840
1780
1718
1695
1728
1786
1817
1788
1706
1604
1511
1428
1336
1230
1127
1052
1005
963
905
825
741
672
631
621
630
629
585
502
437
454
552
645
641
544
448
429
469
491
463
433
454
513
566
597
630
661
653
597
547
575
671
762
809
848
937
1077
1218
1306
1317
1249
1115
950
791
630
417
168
23
148
543
1004
1314
1464
1659
2095
2738
3334
3624
3566
3358
3254
3334
3454
3396
3107
2756
2563
2581
2678
2695
2595
2459
2349
2243
2093
1891
1688
1515
1349
1146
890
610
361
172
19
-137
-298
-426
-485
-486
-470
-462
-454
-431
-411
-413
-434
-463
-508
-595
-708
-769
-716
-582
-481
-488
-563
-610
-596
-579
-627
-739
-842
-870
-832
-782
-767
-781
-791
-784
-791
-844
-927
-984
-975
-945
-969
-1061
-1135
-1111
-1014
-961
-1020
-1116
-1103
-937
-732
-632
-650
-661
-549
-341
-176
-147
-214
-270
-263
-235
-240
-269
-285
-278
-292
-350
-414
-403
-304
-197
-183
-278
-409
-494
-510
-500
-517
-589
-713
-858
-975
-1035
-1053
-1081
-1159
-1274
-1378
-1438
-1463
-1495
-1562
-1633
-1627
-1487
-1272
-1178
-1375
-1822
-2277
-2518
-2576
-2695
-3055
-3554
-3915
-3973
-3805
-3607
-3497
-3471
-3490
-3540
-3603
-3627
-3573
-3475
-3410
-3407
-3413
-3365
-3259
-3149
-3082
-3082
-3151
-3274
-3412
-3489
-3436
-3254
-3018
-2806
-2643
-2499
-2317
-2081
-1829
-1637
-1565
-1610
-1678
-1650
-1487
-1292
-1218
-1278
-1303
-1110
-722
-369
-242
-276
-220
65
436
630
610
605
826
1185
1404
1350
1201
1225
1453
1673
1702
1579
1413
1231
992
754
713
976
1420
1816
2116
2487
3083
3831
4470
4795
4798
4603
4332
4030
3698
3341
2969
2622
2341
2169
2137
2211
2310
2349
2302
2215
2154
2102
1970
1732
1527
1556
1838
2139
2165
1879
1547
1470
1680
1922
1927
1643
1262
1036
1071
1275
1439
1432
1312
1233
1276
1360
1351
1244
1145
1109
1046
872
683
703
980
1258
1234
891
536
461
616
696
507
170
-28
45
242
353
324
292
361
464
468
365
299
392
560
595
422
218
222
444
634
566
292
81
120
324
441
342
126
-2
59
233
363
346
219
106
98
171
221
192
139
163
251
265
112
-112
-183
21
362
577
560
459
491
734
1063
1300
1355
1239
1045
922
953
1082
1132
983
722
560
588
703
731
629
480
345
220
110
82
153
199
84
-154
-313
-246
-76
-62
-299
-619
-776
-704
-573
-575
-732
-938
-1067
-1085
-1057
-1069
-1158
-1273
-1300
-1196
-1034
-908
-854
-810
-707
-571
-473
-440
-442
-467
-549
-692
-823
-804
-589
-303
-129
-131
-201
-202
-106
-15
-53
-246
-488
-644
-661
-607
-590
-643
-677
-590
-408
-294
-406
-733
-1077
-1249
-1249
-1216
-1267
-1399
-1511
-1559
-1598
-1688
-1786
-1799
-1685
-1488
-1277
-1029
-649
-92
587
1258
1799
2134
2234
2137
1951
1763
1566
1265
803
288
-61
-131
-22
61
9
-95
-123
-77
-62
-144
-274
-363
-402
-451
-522
-546
-471
-354
-292
-293
-273
-193
-160
-308
-605
-855
-897
-784
-707
-760
-827
-752
-536
-325
-245
-282
-350
-408
-466
-528
-572
-601
-650
-719
-752
-708
-637
-610
-627
-607
-504
-399
-401
-495
-549
-470
-306
-194
-203
-287
-357
-377
-356
-333
-340
-388
-461
-519
-534
-522
-527
-566
-598
-595
-581
-598
-649
-683
-670
-632
-610
-606
-576
-500
-432
-442
-534
-647
-714
-728
-737
-798
-907
-1011
-1038
-955
-810
-703
-700
-762
-766
-643
-453
-333
-339
-386
-350
-200
-4
157
266
349
418
471
507
545
587
611
611
597
582
570
569
591
642
691
688
612
511
443
401
341
247
169
162
215
245
197
116
105
188
269
238
114
25
57
137
133
28
-43
36
213
325
291
192
154
192
217
161
65
25
83
197
320
451
613
786
921
1000
1061
1125
1150
1086
1002
1071
1382
1786
2029
2053
2105
2460
3043
3398
3141
2355
1497
905
492
-59
-867
-1700
-2263
-2521
-2676
-2850
-2897
-2586
-1879
-1028
-315
207
725
1422
2237
2908
3209
3156
2957
2797
2683
2518
2262
1996
1831
1772
1732
1658
1592
1613
1719
1816
1817
1733
1644
1621
1686
1832
2007
2117
2075
1891
1683
1564
1524
1450
1289
1133
1113
1237
1370
1392
1333
1315
1396
1495
1494
1375
1227
1147
1159
1204
1227
1218
1210
1220
1221
1176
1085
998
967
977
955
861
744
691
711
712
607
427
273
192
122
-11
-199
-356
-431
-459
-514
-620
-729
-785
-790
-804
-879
-1001
-1097
-1110
-1063
-1043
-1093
-1161
-1160
-1079
-1005
-1004
-1039
-1025
-949
-891
-921
-1013
-1074
-1061
-1015
-1005
-1038
-1065
-1040
-953
-833
-716
-621
-542
-451
-331
-186
-35
115
265
413
560
720
911
1136
1367
1567
1735
1893
2043
2155
2203
2202
2181
2138
2042
1895
1761
1707
1717
1701
1596
1453
1377
1405
1448
1391
1221
1031
890
771
604
403
273
286
396
492
538
602
745
921
1024
1004
920
852
819
793
757
742
776
848
934
1019
1116
1229
1343
1426
1469
1493
1539
1638
1784
1930
2038
2114
2196
2302
2401
2451
2459
2477
2527
2568
2537
2429
2312
2229
2137
1958
1694
1441
1292
1229
1170
1071
960
874
799
728
745
987
1500
2154
2757
3244
3731
4365
5141
5895
6450
6746
6832
6767
6570
6247
5833
5377
4911
4447
4015
3686
3516
3474
3437
3295
3039
2769
2578
2453
2298
2045
1740
1500
1400
1398
1378
1271
1125
1046
1074
1129
1087
923
735
635
627
620
559
476
411
323
127
-178
-479
-679
-816
-998
-1260
-1507
-1653
-1752
-1931
-2200
-2419
-2457
-2354
-2270
-2281
-2306
-2248
-2146
-2136
-2279
-2486
-2629
-2667
-2666
-2684
-2690
-2610
-2418
-2181
-1983
-1853
-1748
-1594
-1368
-1126
-962
-908
-883
-762
-507
-231
-98
-147
-243
-208
4
257
387
370
319
362
517
698
800
772
636
469
352
315
312
257
122
-22
-75
-19
56
44
-71
-215
-336
-460
-650
-911
-1169
-1343
-1428
-1491
-1591
-1707
-1762
-1717
-1618
-1556
-1579
-1647
-1696
-1714
-1740
-1808
-1903
-1987
-2047
-2098
-2153
-2207
-2256
-2312
-2374
-2409
-2384
-2310
-2240
-2209
-2190
-2120
-1981
-1822
-1708
-1659
-1636
-1592
-1509
-1395
-1272
-1161
-1080
-1021
-949
-830
-682
-560
-495
-453
-380
-270
-177
-138
-128
-94
-25
41
88
158
298
485
626
655
601
554
559
588
591
560
526
510
502
476
413
316
198
64
-98
-301
-528
-733
-879
-986
-1100
-1205
-1193
-955
-521
-47
347
694
1133
1718
2351
2861
3164
3289
3312
3282
3211
3088
2891
2612
2296
2044
1945
1997
2104
2169
2178
2176
2200
2244
2281
2304
2317
2322
2310
2273
2213
2152
2112
2098
2090
2066
2029
2007
2025
2071
2121
2172
2248
2364
2485
2564
2585
2567
2528
2464
2377
2312
2312
2365
2405
2393
2366
2392
2477
2545
2525
2432
2338
2297
2287
2264
2204
2121
2042
1981
1941
1901
1829
1704
1552
1424
1341
1267
1157
1019
914
873
836
724
548
403
356
341
219
-62
-411
-692
-869
-999
-1122
-1213
-1244
-1251
-1294
-1372
-1419
-1397
-1371
-1429
-1569
-1706
-1764
-1754
-1740
-1739
-1707
-1602
-1445
-1312
-1265
-1300
-1340
-1303
-1168
-983
-817
-691
-560
-377
-143
94
292
437
515
527
512
544
657
793
834
733
558
419
364
361
373
390
416
440
438
439
490
602
714
744
678
577
520
518
528
523
519
552
610
626
554
434
343
303
263
192
147
204
350
483
535
559
635
744
781
695
556
456
401
314
164
15
-74
-121
-188
-278
-330
-296
-197
-85
20
139
292
473
668
851
982
1024
990
934
887
831
745
670
668
711
678
499
285
261
541
996
1388
1632
1874
2319
3014
3780
4376
4673
4701
4578
4400
4193
3918
3529
3037
2523
2105
1851
1737
1674
1580
1435
1261
1094
937
765
561
344
147
-36
-245
-490
-740
-935
-1063
-1172
-1309
-1476
-1644
-1796
-1935
-2050
-2115
-2126
-2132
-2196
-2324
-2445
-2472
-2385
-2259
-2198
-2249
-2348
-2385
-2317
-2232
-2281
-2523
-2846
-3072
-3129
-3139
-3275
-3540
-3756
-3770
-3670
-3688
-3893
-4069
-3967
-3653
-3460
-3605
-3901
-3950
-3619
-3200
-3073
-3283
-3517
-3495
-3277
-3149
-3272
-3528
-3688
-3664
-3545
-3447
-3374
-3244
-3023
-2759
-2523
-2323
-2118
-1892
-1685
-1576
-1602
-1702
-1762
-1707
-1554
-1381
-1243
-1095
-840
-464
-82
168
273
369
589
885
1073
1057
959
998
1237
1504
1599
1513
1448
1579
1869
2100
2121
2002
1941
2053
2246
2362
2358
2320
2319
2306
2217
2098
2074
2174
2268
2222
2062
1973
2087
2318
2421
2244
1874
1539
1400
1422
1429
1306
1116
1020
1102
1274
1392
1418
1435
1543
1712
1814
1754
1596
1511
1610
1846
2034
2028
1849
1682
1683
1854
2051
2113
2013
1840
1716
1690
1743
1823
1851
1763
1581
1410
1369
1460
1560
1539
1411
1308
1319
1393
1382
1192
886
618
488
459
387
146
-293
-811
-1198
-1278
-1033
-613
-191
216
760
1578
2623
3637
4363
4718
4812
4790
4687
4436
4009
3487
3026
2699
2438
2138
1823
1632
1625
1647
1470
1057
637
457
488
477
265
-33
-180
-94
88
208
255
330
471
597
608
510
397
337
308
240
103
-69
-183
-154
19
243
400
456
486
577
715
782
682
473
319
302
341
297
133
-46
-100
-21
88
117
18
-177
-374
-480
-472
-448
-545
-785
-1029
-1112
-1039
-993
-1124
-1378
-1562
-1585
-1549
-1600
-1756
-1904
-1958
-1947
-1958
-2009
-2036
-2000
-1938
-1927
-1976
-2010
-1958
-1833
-1716
-1675
-1701
-1743
-1757
-1729
-1653
-1536
-1404
-1320
-1336
-1418
-1453
-1358
-1189
-1104
-1178
-1319
-1373
-1284
-1151
-1091
-1100
-1094
-1037
-975
-970
-1000
-1030
-1071
-1150
-1228
-1203
-1043
-878
-882
-1069
-1268
-1306
-1196
-1107
-1166
-1326
-1453
-1475
-1438
-1415
-1416
-1405
-1363
-1335
-1381
-1481
-1559
-1559
-1498
-1450
-1448
-1449
-1407
-1342
-1325
-1392
-1475
-1473
-1368
-1265
-1296
-1457
-1596
-1560
-1361
-1167
-1133
-1236
-1305
-1210
-991
-801
-738
-752
-728
-625
-508
-444
-425
-408
-390
-412
-482
-523
-464
-348
-310
-407
-529
-552
-501
-512
-639
-779
-828
-860
-1047
-1416
-1802
-2077
-2336
-2752
-3246
-3457
-3117
-2380
-1665
-1167
-648
240
1501
2722
3468
3662
3575
3498
3483
3378
3040
2509
1956
1544
1300
1158
1043
927
834
764
685
590
515
500
531
549
498
371
200
13
-156
-267
-285
-208
-77
49
135
174
188
217
296
402
460
401
252
126
107
168
211
188
144
144
190
231
223
171
94
0
-110
-210
-264
-259
-231
-233
-299
-410
-498
-511
-462
-430
-484
-600
-684
-678
-625
-601
-623
-640
-607
-557
-552
-609
-685
-754
-840
-969
-1103
-1178
-1175
-1165
-1206
-1268
-1256
-1143
-1015
-998
-1114
-1240
-1244
-1118
-983
-939
-957
-934
-817
-654
-521
-444
-402
-387
-408
-446
-455
-416
-375
-379
-403
-364
-224
-52
57
83
86
118
161
171
139
101
63
-40
-264
-564
-797
-829
-670
-469
-372
-376
-347
-160
149
391
403
209
-27
-173
-247
-340
-476
-595
-637
-621
-609
-608
-577
-512
-477
-530
-643
-743
-811
-894
-1014
-1104
-1084
-964
-842
-790
-766
-675
-507
-359
-321
-389
-491
-604
-777
-1041
-1307
-1421
-1336
-1158
-1019
-919
-737
-432
-150
-84
-251
-454
-522
-490
-544
-773
-1037
-1115
-939
-661
-489
-493
-574
-596
-541
-525
-655
-884
-1011
-833
-344
259
779
1234
1842
2747
3801
4635
4980
4907
4720
4635
4605
4438
4057
3593
3246
3105
3109
3148
3141
3054
2890
2682
2470
2275
2078
1847
1611
1425
1278
1114
917
747
635
500
201
-252
-659
-820
-756
-667
-674
-693
-598
-463
-522
-881
-1350
-1610
-1562
-1416
-1414
-1544
-1559
-1275
-797
-415
-317
-454
-641
-751
-801
-861
-940
-991
-978
-911
-827
-734
-603
-425
-264
-192
-209
-222
-124
116
452
843
1275
1699
1991
2045
1910
1790
1847
2032
2137
2027
1798
1661
1709
1845
1902
1825
1698
1622
1613
1629
1636
1644
1668
1684
1665
1633
1656
1763
1900
1964
1908
1792
1720
1746
1847
1989
2160
2351
2490
2504
2399
2261
2155
2058
1905
1714
1595
1643
1833
2070
2311
2587
2908
3180
3277
3168
2953
2763
2648
2586
2571
2651
2872
3215
3601
3968
4304
4606
4834
4918
4841
4687
4583
4585
4622
4590
4457
4288
4162
4076
3961
3777
3568
3412
3347
3358
3417
3499
3596
3709
3842
3982
4079
4078
3985
3884
3872
3953
4033
4036
4002
4045
4206
4395
4487
4462
4415
4425
4460
4432
4312
4151
3998
3833
3618
3357
3094
2857
2620
2347
2029
1675
1294
892
489
93
-315
-734
-1079
-1212
-1073
-765
-471
-258
-8
449
1125
1803
2185
2149
1849
1581
1505
1499
1279
713
-23
-608
-905
-1060
-1308
-1715
-2164
-2543
-2853
-3129
-3339
-3438
-3474
-3560
-3724
-3868
-3904
-3877
-3910
-4034
-4154
-4185
-4182
-4246
-4351
-4344
-4130
-3800
-3535
-3406
-3334
-3234
-3147
-3196
-3421
-3726
-3970
-4076
-4059
-3974
-3887
-3846
-3844
-3810
-3682
-3494
-3364
-3366
-3434
-3430
-3293
-3093
-2923
-2782
-2593
-2318
-2015
-1771
-1596
-1433
-1232
-1019
-858
-756
-653
-485
-269
-95
-21
3
80
230
367
407
376
386
484
591
591
467
293
141
26
-62
-122
-161
-203
-262
-307
-293
-221
-140
-85
-46
-17
-33
-113
-191
-167
-31
100
113
30
-30
-7
18
-92
-376
-749
-1103
-1394
-1642
-1860
-2017
-2086
-2083
-2073
-2101
-2133
-2094
-1949
-1766
-1662
-1695
-1812
-1910
-1943
-1954
-2005
-2116
-2250
-2364
-2441
-2484
-2495
-2462
-2374
-2248
-2130
-2063
-2055
-2057
-2010
-1908
-1798
-1721
-1667
-1594
-1492
-1394
-1327
-1275
-1216
-1160
-1137
-1135
-1089
-952
-766
-617
-542
-486
-383
-230
-94
-20
12
59
144
249
357
464
563
623
628
604
602
641
674
655
599
556
556
578
584
560
515
468
431
406
373
295
189
164
369
849
1469
2036
2491
2965
3605
4387
5108
5560
5689
5596
5426
5267
5114
4897
4559
4121
3693
3391
3233
3143
3029
2870
2702
2539
2369
2192
2038
1929
1838
1719
1563
1416
1324
1290
1282
1269
1242
1204
1165
1135
1126
1134
1138
1120
1082
1047
1026
1005
967
916
883
888
909
904
848
770
728
744
780
780
724
637
558
510
489
477
446
381
299
246
254
294
300
237
134
43
-13
-62
-129
-224
-344
-488
-635
-729
-732
-680
-662
-734
-851
-932
-958
-982
-1054
-1156
-1247
-1328
-1425
-1515
-1517
-1387
-1189
-1042
-983
-934
-792
-565
-354
-245
-219
-186
-99
4
48
18
-5
73
256
448
537
520
503
587
750
864
839
731
668
711
796
832
806
765
737
691
610
540
524
540
514
428
375
442
611
762
807
790
803
877
940
918
816
697
623
606
619
620
585
511
436
410
440
471
431
329
263
315
457
570
557
428
269
156
84
6
-105
-222
-292
-288
-228
-140
-46
42
99
86
-2
-118
-201
-263
-387
-623
-889
-1025
-957
-813
-800
-976
-1195
-1279
-1212
-1138
-1168
-1271
-1335
-1311
-1248
-1199
-1165
-1127
-1079
-986
-757
-330
243
818
1320
1844
2546
3445
4343
4975
5234
5247
5220
5231
5178
4916
4432
3887
3480
3284
3218
3158
3050
2922
2807
2679
2504
2297
2113
1973
1833
1643
1417
1230
1133
1103
1054
923
727
546
449
438
450
420
343
273
260
284
269
158
-49
-299
-541
-755
-927
-1042
-1093
-1108
-1131
-1175
-1203
-1172
-1097
-1060
-1130
-1293
-1451
-1523
-1520
-1522
-1595
-1715
-1815
-1863
-1899
-1969
-2078
-2177
-2235
-2283
-2365
-2476
-2559
-2576
-2552
-2550
-2609
-2708
-2799
-2848
-2854
-2842
-2851
-2889
-2928
-2932
-2894
-2858
-2866
-2910
-2935
-2920
-2913
-2988
-3142
-3268
-3247
-3075
-2859
-2713
-2645
-2571
-2413
-2176
-1929
-1721
-1553
-1409
-1303
-1234
-1154
-993
-746
-525
-456
-526
-565
-414
-110
138
193
151
223
474
748
870
858
888
1067
1305
1438
1427
1385
1439
1586
1717
1750
1705
1663
1668
1702
1732
1763
1824
1915
1993
2008
1971
1946
1965
2010
2050
2073
2085
2082
2063
2083
2199
2378
2498
2474
2376
2343
2393
2397
2277
2148
2178
2342
2444
2378
2264
2270
2368
2400
2331
2312
2434
2552
2460
2209
2081
2233
2482
2527
2314
2102
2115
2277
2352
2242
2069
1984
1968
1916
1791
1656
1537
1342
1001
650
584
960
1590
2103
2353
2622
3321
4504
5726
6438
6520
6363
6401
6645
6732
6356
5614
4868
4374
4100
3859
3573
3308
3144
3084
3062
3036
3011
2940
2744
2424
2121
1988
2013
1981
1716
1324
1111
1220
1469
1558
1415
1235
1186
1185
1025
690
401
337
409
399
223
47
36
145
180
52
-107
-124
-9
65
-28
-221
-352
-338
-243
-183
-253
-479
-793
-1059
-1141
-1036
-933
-1045
-1335
-1554
-1539
-1418
-1463
-1748
-2068
-2211
-2226
-2316
-2546
-2750
-2769
-2647
-2554
-2579
-2672
-2759
-2824
-2874
-2897
-2912
-2969
-3087
-3162
-3063
-2815
-2590
-2519
-2581
-2649
-2636
-2552
-2452
-2408
-2476
-2649
-2821
-2849
-2674
-2427
-2293
-2321
-2373
-2297
-2104
-1924
-1856
-1882
-1917
-1896
-1826
-1768
-1772
-1834
-1887
-1846
-1728
-1663
-1771
-2003
-2140
-2019
-1723
-1505
-1530
-1668
-1655
-1422
-1187
-1202
-1441
-1633
-1575
-1348
-1198
-1225
-1297
-1263
-1141
-1059
-1066
-1100
-1119
-1182
-1321
-1436
-1395
-1213
-1066
-1054
-1071
-945
-700
-557
-641
-811
-821
-637
-465
-466
-545
-467
-187
72
95
-55
-120
37
266
330
187
25
7
102
150
69
-66
-137
-112
-57
-18
22
98
202
288
312
249
123
7
-52
-84
-196
-442
-745
-968
-1092
-1248
-1536
-1835
-1879
-1538
-971
-452
-58
378
1058
1988
2929
3587
3835
3780
3656
3611
3564
3310
2794
2221
1862
1745
1634
1358
1038
920
1037
1147
1043
809
690
770
886
859
710
586
555
555
529
511
547
603
600
514
413
370
378
394
404
414
409
373
314
283
318
376
370
270
142
74
63
15
-110
-237
-250
-136
-13
10
-41
-50
38
148
177
115
38
-14
-81
-197
-313
-340
-270
-189
-186
-252
-304
-286
-236
-216
-264
-358
-462
-565
-659
-725
-739
-704
-665
-684
-771
-859
-860
-765
-684
-731
-890
-999
-929
-744
-630
-677
-753
-650
-331
15
169
107
7
45
212
356
348
203
39
-38
-18
40
79
99
145
232
327
389
420
462
529
577
559
501
465
467
443
351
245
227
302
348
270
127
68
136
208
153
-4
-113
-97
-52
-108
-273
-419
-441
-367
-315
-363
-465
-512
-453
-346
-301
-375
-510
-604
-656
-787
-1106
-1555
-1926
-2065
-1999
-1862
-1709
-1476
-1114
-697
-340
-71
163
362
419
244
-64
-277
-257
-101
-21
-105
-228
-206
-3
233
333
259
116
48
102
196
225
168
103
114
182
201
88
-121
-316
-442
-535
-604
-556
-268
254
820
1245
1550
1950
2599
3372
3935
4060
3841
3585
3501
3508
3368
2974
2473
2116
1994
1967
1872
1696
1552
1515
1514
1443
1297
1169
1120
1108
1063
970
860
741
596
435
313
257
208
78
-159
-424
-628
-778
-951
-1193
-1440
-1585
-1609
-1605
-1670
-1793
-1883
-1888
-1845
-1812
-1760
-1631
-1443
-1306
-1296
-1335
-1270
-1055
-817
-704
-715
-708
-574
-349
-131
29
146
242
321
394
491
620
744
805
802
785
796
844
922
1026
1126
1180
1176
1163
1201
1294
1394
1476
1564
1689
1822
1895
1894
1881
1923
2011
2085
2112
2120
2150
2200
2229
2211
2162
2110
2065
2021
1970
1918
1882
1869
1863
1834
1769
1681
1609
1565
1526
1458
1375
1327
1335
1362
1375
1398
1492
1664
1832
1911
1904
1894
1933
1987
1998
1982
2031
2215
2495
2760
2944
3073
3228
3447
3685
3853
3896
3832
3742
3697
3709
3738
3738
3707
3677
3671
3685
3684
3646
3574
3482
3371
3243
3107
2990
2920
2904
2923
2946
2965
2997
3064
3155
3230
3253
3225
3174
3127
3085
3039
2991
2953
2936
2942
2967
2996
3001
2955
2847
2694
2530
2370
2210
2032
1845
1663
1481
1284
1070
861
679
514
325
85
-206
-532
-868
-1146
-1266
-1164
-896
-623
-453
-326
-78
359
853
1187
1244
1088
855
618
367
71
-256
-568
-841
-1084
-1302
-1470
-1549
-1547
-1541
-1616
-1783
-1965
-2066
-2075
-2064
-2110
-2217
-2344
-2467
-2592
-2726
-2838
-2900
-2949
-3055
-3231
-3405
-3475
-3438
-3400
-3456
-3577
-3651
-3629
-3585
-3613
-3707
-3764
-3701
-3551
-3403
-3301
-3224
-3152
-3094
-3057
-3010
-2941
-2887
-2909
-2981
-2996
-2881
-2699
-2584
-2598
-2668
-2002
-1926
-1851
-1765
-1675
-1609
-1584
-1582
-1578
-1571
-1577
-1606
-1651
-1692
-1717
-1728
-1726
-1708
-1661
-1572
-1448
-1333
-1274
-1288
-1330
-1340
-1311
-1286
-1315
-1396
-1488
-1564
-1626
-1670
-1674
-1625
-1557
-1524
-1535
-1543
-1506
-1444
-1425
-1497
-1643
-1812
-1964
-2093
-2201
-2288
-2350
-2394
-2432
-2467
-2491
-2503
-2515
-2531
-2550
-2566
-2579
-2596
-2609
-2593
-2540
-2478
-2434
-2395
-2317
-2179
-2032
-1944
-1912
-1857
-1717
-1527
-1383
-1329
-1315
-1270
-1183
-1105
-1071
-1069
-1080
-1106
-1146
-1170
-1139
-1063
-1006
-1016
-1055
-1043
-953
-840
-787
-806
-834
-807
-727
-645
-589
-530
-427
-288
-170
-104
-46
87
333
647
939
1135
1206
1165
1048
890
705
473
174
-148
-384
-465
-425
-360
-315
-256
-159
-89
-134
-297
-496
-661
-795
-893
-860
-569
-10
654
1245
1737
2260
2924
3655
4225
4439
4324
4096
3952
3899
3780
3468
3001
2545
2230
2065
1968
1861
1696
1477
1281
1227
1376
1627
1774
1701
1505
1370
1339
1275
1038
680
380
263
293
360
400
410
380
280
102
-110
-298
-445
-573
-688
-760
-757
-686
-581
-483
-420
-413
-474
-615
-822
-1048
-1234
-1346
-1384
-1377
-1338
-1258
-1143
-1040
-1027
-1134
-1297
-1417
-1462
-1508
-1650
-1884
-2096
-2179
-2128
-2024
-1939
-1866
-1742
-1527
-1254
-1006
-847
-782
-774
-787
-811
-840
-873
-924
-1009
-1118
-1201
-1209
-1161
-1142
-1220
-1363
-1471
-1475
-1406
-1344
-1345
-1409
-1494
-1542
-1501
-1379
-1260
-1229
-1267
-1255
-1110
-898
-755
-726
-711
-608
-430
-271
-165
-47
141
365
534
614
664
769
940
1096
1130
1017
854
795
886
1011
1009
867
737
751
856
884
765
606
553
602
626
550
428
339
268
134
-101
-385
-654
-910
-1188
-1484
-1733
-1893
-1987
-2061
-2143
-2223
-2299
-2395
-2527
-2674
-2794
-2864
-2895
-2894
-2830
-2664
-2410
-2159
-1990
-1894
-1780
-1580
-1331
-1139
-1034
-931
-719
-371
14
331
559
763
1005
1259
1461
1578
1647
1703
1741
1741
1728
1738
1756
1707
1558
1382
1282
1256
1174
932
584
267
44
-134
-291
-324
-110
327
813
1243
1728
2448
3395
4299
4848
4969
4850
4724
4660
4531
4188
3611
2944
2397
2087
1955
1837
1624
1376
1229
1236
1299
1290
1187
1088
1085
1148
1157
1045
871
763
781
849
830
680
501
423
459
467
312
39
-162
-172
-89
-110
-296
-495
-521
-379
-256
-306
-476
-567
-471
-305
-298
-543
-870
-1021
-916
-746
-760
-984
-1207
-1218
-1033
-854
-831
-926
-1008
-1025
-1032
-1092
-1197
-1303
-1391
-1488
-1632
-1815
-1973
-2047
-2055
-2106
-2302
-2631
-2961
-3192
-3360
-3542
-3730
-3840
-3847
-3841
-3871
-3826
-3572
-3197
-2977
-3048
-3200
-3101
-2714
-2350
-2279
-2413
-2437
-2194
-1835
-1590
-1491
-1393
-1205
-982
-825
-736
-621
-393
-41
384
811
1164
1376
1442
1462
1554
1702
1747
1539
1132
798
780
1036
1279
1276
1108
1059
1277
1594
1744
1677
1562
1540
1575
1574
1589
1757
2055
2263
2251
2196
2422
2990
3549
3686
3348
2849
2489
2268
1963
1430
754
141
-261
-409
-321
-51
297
621
886
1135
1382
1540
1537
1469
1561
1871
2143
2066
1683
1431
1682
2282
2661
2483
2015
1822
2107
2518
2618
2418
2288
2429
2638
2597
2322
2125
2195
2373
2373
2185
2096
2279
2498
2373
1875
1410
1302
1366
1121
409
-309
-456
27
631
908
981
1281
1981
2793
3301
3379
3297
3363
3588
3754
3643
3260
2814
2528
2357
2067
1502
821
380
330
435
359
69
-85
195
760
1154
1122
870
756
841
895
743
533
536
797
1072
1136
1069
1106
1311
1519
1550
1395
1158
936
715
532
474
561
652
558
284
18
-48
85
226
193
-33
-304
-464
-511
-633
-945
-1286
-1316
-921
-428
-324
-706
-1117
-1028
-464
13
-46
-485
-755
-604
-312
-269
-483
-611
-465
-253
-303
-639
-934
-936
-710
-538
-582
-730
-809
-803
-825
-957
-1126
-1206
-1202
-1226
-1358
-1495
-1437
-1115
-706
-445
-418
-515
-591
-624
-663
-700
-643
-463
-263
-170
-154
-43
256
602
713
450
11
-231
-89
279
537
541
473
596
929
1193
1136
808
482
349
363
368
331
341
445
584
679
736
795
813
719
505
284
183
208
260
262
228
223
255
295
326
351
356
293
161
17
-31
67
233
326
274
137
40
23
13
-63
-171
-185
-54
126
224
225
255
441
737
959
970
820
673
636
656
635
541
435
375
360
356
357
402
485
540
509
408
293
188
100
42
28
27
-31
-184
-357
-454
-499
-618
-842
-1009
-910
-519
-25
375
691
1073
1609
2214
2722
2990
2982
2741
2397
2080
1817
1533
1164
774
497
370
313
249
192
172
129
-38
-300
-478
-445
-301
-251
-371
-529
-556
-435
-292
-239
-274
-335
-375
-378
-375
-408
-491
-580
-600
-529
-452
-451
-520
-559
-521
-459
-447
-470
-460
-405
-359
-361
-370
-329
-252
-204
-213
-231
-200
-120
-48
-31
-70
-134
-183
-198
-197
-236
-347
-486
-561
-526
-447
-429
-492
-551
-534
-481
-489
-588
-703
-764
-794
-866
-989
-1087
-1089
-1027
-980
-977
-975
-930
-864
-828
-825
-807
-751
-695
-678
-679
-642
-567
-518
-536
-587
-632
-720
-941
-1267
-1500
-1457
-1168
-854
-654
-463
-78
514
1070
1346
1358
1329
1412
1537
1543
1402
1238
1150
1109
1022
858
658
465
266
36
-209
-427
-580
-661
-680
-678
-710
-786
-839
-788
-658
-587
-666
-809
-823
-636
-390
-279
-313
-311
-148
72
140
22
-71
75
401
606
493
200
53
218
538
734
716
661
762
1025
1300
1469
1530
1522
1465
1394
1400
1554
1790
1946
1944
1899
1998
2267
2532
2610
2510
2405
2411
2484
2528
2523
2501
2450
2309
2074
1846
1703
1590
1380
1029
645
364
223
142
40
-114
-317
-513
-588
-433
-76
298
544
710
986
1457
1989
2369
2510
2481
2359
2147
1848
1519
1219
928
594
248
6
-77
-86
-137
-245
-330
-350
-357
-402
-469
-499
-486
-470
-467
-446
-391
-342
-357
-425
-470
-461
-457
-517
-613
-647
-568
-412
-247
-100
60
266
502
722
901
1059
1235
1451
1694
1925
2115
2259
2375
2475
2553
2607
2643
2674
2690
2657
2559
2417
2275
2157
2046
1927
1801
1654
1477
1296
1174
1167
1244
1293
1219
1052
895
809
751
663
559
515
567
674
789
935
1168
1490
1822
2068
2202
2268
2325
2413
2540
2688
2814
2890
2933
2998
3104
3215
3275
3272
3242
3221
3193
3116
3000
2911
2897
2947
2978
2928
2811
2720
2708
2732
2695
2574
2461
2484
2664
2900
3064
3108
3065
2978
2856
2695
2508
2311
2097
1866
1658
1533
1510
1535
1542
1500
1421
1326
1226
1138
1097
1108
1131
1121
1066
1008
977
967
941
871
751
601
461
364
324
326
352
403
476
522
471
306
111
-15
-56
-92
-177
-262
-254
-148
-38
-3
-4
53
178
258
194
16
-154
-234
-267
-338
-453
-534
-521
-462
-444
-484
-526
-525
-511
-549
-655
-798
-959
-1141
-1338
-1517
-1671
-1864
-2142
-2450
-2672
-2781
-2882
-3035
-3101
-2859
-2271
-1585
-1086
-786
-426
191
953
1543
1748
1635
1428
1273
1155
979
687
306
-75
-360
-516
-581
-642
-760
-913
-1031
-1079
-1094
-1141
-1240
-1339
-1361
-1287
-1180
-1124
-1141
-1174
-1143
-1022
-862
-725
-632
-563
-490
-408
-318
-219
-116
-43
-41
-104
-172
-196
-187
-215
-313
-423
-445
-358
-254
-256
-415
-670
-924
-1130
-1316
-1523
-1761
-1995
-2175
-2271
-2286
-2244
-2182
-2125
-2078
-2038
-2019
-2044
-2115
-2200
-2252
-2268
-2289
-2351
-2435
-2478
-2453
-2406
-2407
-2483
-2590
-2673
-2720
-2763
-2820
-2873
-2883
-2841
-2777
-2729
-2707
-2692
-2671
-2645
-2632
-2642
-2672
-2706
-2727
-2715
-2653
-2541
-2402
-2265
-2136
-1994
-1822
-1636
-1468
-1334
-1219
-1102
-988
-881
-770
-632
-470
-332
-262
-252
-252
-217
-149
-85
-47
-30
-13
21
86
191
330
485
628
740
800
793
735
672
649
660
650
585
510
518
649
847
1009
1088
1114
1150
1212
1278
1320
1337
1343
1338
1315
1286
1278
1308
1363
1415
1448
1461
1457
1442
1440
1486
1578
1663
1666
1564
1416
1324
1347
1459
1578
1630
1599
1533
1513
1578
1681
1715
1612
1418
1253
1197
1227
1259
1242
1192
1148
1128
1106
1037
906
741
582
438
282
82
-151
-366
-540
-690
-816
-841
-661
-269
209
631
985
1383
1914
2524
3029
3258
3179
2902
2590
2336
2115
1832
1441
1017
692
532
473
412
312
211
133
35
-127
-315
-442
-471
-452
-444
-442
-387
-257
-97
44
161
274
373
428
432
417
427
469
525
584
626
631
591
538
518
528
514
450
394
440
592
732
738
625
518
495
494
395
181
-30
-107
-49
29
38
18
89
293
524
645
622
549
538
602
671
697
701
723
781
862
950
1017
1008
884
673
477
367
302
176
-52
-290
-411
-395
-344
-373
-507
-668
-780
-844
-922
-1063
-1230
-1336
-1337
-1285
-1274
-1346
-1438
-1447
-1355
-1235
-1167
-1147
-1113
-1024
-913
-834
-799
-770
-723
-674
-654
-675
-724
-780
-826
-859
-893
-952
-1038
-1109
-1112
-1042
-972
-975
-1049
-1111
-1094
-1022
-983
-1021
-1096
-1134
-1103
-1037
-979
-937
-896
-859
-838
-836
-835
-815
-783
-752
-717
-656
-553
-423
-291
-173
-86
-58
-108
-207
-277
-268
-214
-196
-240
-275
-212
-56
90
143
136
173
291
409
425
343
274
302
393
444
405
326
294
327
356
312
196
82
36
44
33
-66
-251
-426
-502
-494
-523
-700
-988
-1242
-1377
-1469
-1656
-1933
-2097
-1953
-1523
-1036
-681
-415
-40
534
1157
1573
1657
1509
1309
1136
936
639
277
-38
-245
-385
-522
-659
-751
-801
-885
-1052
-1273
-1471
-1612
-1727
-1839
-1900
-1859
-1740
-1635
-1616
-1665
-1701
-1657
-1544
-1438
-1444
-1584
-1750
-1771
-1564
-1233
-984
-924
-951
-871
-620
-347
-250
-369
-525
-505
-265
46
220
168
-5
-110
-30
175
322
273
69
-110
-105
77
289
410
457
518
618
691
677
627
656
772
854
810
700
674
772
883
896
855
891
1033
1158
1145
998
829
730
728
807
893
886
765
673
818
1196
1520
1509
1232
1048
1187
1452
1477
1191
909
947
1276
1605
1714
1629
1513
1493
1613
1836
2037
2070
1934
1814
1883
2082
2184
2100
2008
2082
2264
2347
2295
2316
2568
2903
3025
2854
2611
2517
2502
2353
2044
1785
1757
1897
1985
1931
1836
1791
1746
1582
1306
1067
961
922
825
668
572
639
820
975
999
902
753
602
488
437
451
491
498
487
536
678
840
916
896
885
951
1028
1015
927
863
857
820
689
579
642
818
854
624
343
339
646
930
875
541
271
287
483
584
448
179
-23
-75
-48
-98
-308
-618
-896
-1082
-1242
-1449
-1632
-1614
-1333
-946
-639
-402
-11
679
1519
2172
2411
2295
2063
1898
1810
1680
1367
818
140
-429
-687
-654
-550
-595
-809
-1006
-1028
-909
-804
-837
-967
-1057
-1045
-990
-1003
-1119
-1275
-1385
-1439
-1501
-1622
-1794
-1951
-2025
-2004
-1920
-1835
-1804
-1828
-1857
-1832
-1759
-1719
-1811
-2010
-2155
-2109
-1933
-1836
-1948
-2164
-2254
-2132
-1958
-1926
-2056
-2189
-2176
-2054
-1960
-1963
-1994
-1970
-1893
-1836
-1844
-1894
-1942
-1970
-2010
-2071
-2107
-2062
-1943
-1845
-1874
-2028
-2186
-2223
-2151
-2113
-2214
-2398
-2500
-2438
-2299
-2224
-2223
-2207
-2129
-2031
-1980
-1981
-2005
-2072
-2185
-2286
-2273
-2159
-2071
-2102
-2170
-2104
-1868
-1623
-1536
-1565
-1540
-1390
-1198
-1057
-943
-790
-599
-422
-263
-74
130
235
176
65
97
308
534
588
499
464
602
839
1012
1047
1011
981
973
952
910
877
855
814
729
641
630
714
812
814
708
587
534
530
483
355
221
166
162
113
2
-46
82
320
472
427
294
286
460
654
674
518
353
313
376
445
477
510
563
612
615
568
518
520
592
698
760
715
600
528
563
624
578
418
305
377
552
624
506
340
314
413
431
211
-192
-586
-847
-1017
-1226
-1534
-1873
-2084
-2021
-1646
-1065
-478
-14
382
891
1609
2408
3024
3252
3139
2918
2768
2661
2424
1980
1460
1077
904
830
724
592
538
578
586
428
130
-156
-320
-402
-492
-596
-638
-586
-506
-475
-470
-411
-311
-282
-398
-590
-701
-679
-611
-607
-648
-638
-548
-461
-476
-586
-691
-696
-611
-534
-551
-624
-626
-474
-219
-24
10
-56
-84
-45
-42
-172
-374
-515
-565
-618
-717
-749
-573
-220
110
291
411
631
954
1184
1136
815
356
-139
-652
-1193
-1721
-2138
-2380
-2454
-2438
-2421
-2442
-2447
-2357
-2215
-2190
-2405
-2768
-3039
-3080
-3005
-3024
-3182
-3305
-3249
-3109
-3118
-3367
-3683
-3833
-3775
-3682
-3721
-3841
-3828
-3539
-3060
-2627
-2395
-2280
-2068
-1642
-1090
-622
-329
-113
173
538
842
978
995
1034
1157
1274
1292
1244
1258
1383
1517
1531
1426
1332
1351
1450
1536
1574
1615
1714
1859
2008
2137
2229
2255
2192
2072
1974
1948
1973
1990
1972
1948
1960
2006
2059
2071
2014
1894
1748
1629
1555
1488
1376
1208
1035
908
823
734
615
492
402
339
259
127
-36
-182
-278
-329
-363
-402
-439
-448
-389
-253
-64
129
287
409
513
590
623
616
600
589
547
428
240
46
-107
-248
-420
-572
-577
-344
68
497
847
1177
1630
2253
2916
3392
3541
3416
3201
3035
2906
2704
2367
1961
1609
1369
1198
1052
939
884
872
846
772
687
656
701
796
906
1000
1040
1009
941
915
985
1109
1191
1184
1140
1151
1252
1393
1510
1595
1686
1817
1973
2113
2197
2221
2211
2206
2229
2275
2304
2280
2198
2104
2060
2101
2193
2266
2276
2251
2253
2311
2388
2430
2428
2422
2453
2527
2618
2706
2781
2826
2828
2793
2752
2729
2706
2646
2544
2437
2369
2347
2340
2315
2258
2172
2063
1945
1836
1761
1727
1719
1712
1691
1667
1668
1708
1777
1846
1887
1888
1852
1790
1710
1626
1558
1517
1498
1473
1403
1281
1154
1083
1084
1102
1062
961
872
862
915
945
905
837
813
835
824
707
513
333
216
112
-76
-374
-691
-909
-998
-1043
-1156
-1358
-1561
-1663
-1660
-1648
-1718
-1867
-2011
-2091
-2131
-2199
-2315
-2420
-2450
-2402
-2342
-2325
-2329
-2289
-2175
-2045
-1993
-2048
-2140
-2165
-2092
-1984
-1927
-1938
-1958
-1920
-1817
-1692
-1589
-1500
-1403
-1292
-1178
-1074
-979
-880
-776
-681
-603
-546
-500
-466
-454
-458
-455
-421
-367
-326
-301
-260
-189
-136
-164
-253
-299
-237
-132
-113
-211
-323
-348
-297
-220
-77
251
801
1435
1978
2415
2885
3490
4142
4629
4809
4714
4488
4265
4089
3917
3669
3304
2875
2501
2273
2179
2117
1992
1788
1555
1345
1175
1028
882
737
609
514
441
360
253
136
41
-21
-80
-173
-312
-487
-674
-861
-1035
-1182
-1297
-1386
-1464
-1544
-1631
-1722
-1815
-1914
-2024
-2135
-2222
-2265
-2270
-2277
-2315
-2370
-2384
-2323
-2219
-2144
-2140
-2175
-2189
-2158
-2111
-2096
-2128
-2183
-2225
-2233
-2209
-2170
-2132
-2102
-2071
-2027
-1969
-1906
-1846
-1783
-1705
-1618
-1547
-1508
-1488
-1462
-1419
-1370
-1336
-1321
-1305
-1264
-1195
-1124
-1073
-1040
-998
-928
-840
-758
-694
-628
-537
-419
-291
-168
-53
51
139
221
316
434
549
619
630
619
644
733
861
980
1048
1059
1055
1095
1203
1339
1414
1375
1271
1194
1186
1194
1162
1101
1080
1132
1231
1341
1463
1600
1703
1703
1601
1477
1407
1372
1298
1155
994
881
835
826
830
836
831
791
715
639
600
592
585
565
550
565
613
672
720
745
743
720
693
679
683
694
707
736
793
860
906
910
891
876
866
845
798
735
684
658
654
657
653
652
665
691
723
743
732
684
613
550
523
529
535
509
452
377
303
258
302
507
900
1410
1912
2339
2735
3201
3769
4340
4743
4872
4754
4527
4320
4143
3910
3547
3098
2700
2447
2306
2170
1975
1760
1588
1446
1264
1023
779
597
487
398
301
226
206
224
230
197
147
112
90
38
-81
-248
-397
-464
-442
-395
-399
-480
-604
-722
-834
-976
-1167
-1376
-1563
-1730
-1911
-2119
-2314
-2454
-2562
-2710
-2947
-3224
-3442
-3561
-3633
-3746
-3934
-4150
-4337
-4498
-4672
-4881
-5077
-5201
-5235
-5217
-5178
-5095
-4927
-4681
-4421
-4220
-4083
-3955
-3801
-3653
-3565
-3526
-3453
-3277
-3016
-2751
-2526
-2308
-2038
-1733
-1472
-1295
-1139
-903
-573
-253
-44
70
199
414
680
891
1001
1053
1128
1260
1434
1619
1796
1954
2083
2177
2251
2327
2404
2442
2411
2334
2276
2280
2316
2315
2260
2200
2176
2150
2054
1900
1783
1763
1780
1729
1601
1506
1533
1636
1686
1622
1496
1392
1324
1255
1152
997
784
532
287
79
-109
-308
-497
-622
-685
-767
-932
-1128
-1252
-1302
-1390
-1569
-1730
-1725
-1575
-1465
-1511
-1594
-1501
-1190
-854
-714
-783
-896
-910
-835
-768
-780
-883
-1033
-1167
-1230
-1189
-1091
-1052
-1153
-1360
-1555
-1643
-1633
-1617
-1674
-1791
-1878
-1869
-1793
-1759
-1843
-2031
-2235
-2388
-2516
-2703
-3003
-3379
-3721
-3909
-3863
-3565
-3062
-2463
-1868
-1285
-625
204
1165
2051
2628
2820
2766
2693
2710
2729
2567
2148
1603
1168
992
1019
1075
1044
965
923
925
898
830
819
945
1130
1200
1102
995
1065
1279
1410
1309
1087
958
972
979
856
665
544
525
533
530
568
665
748
745
707
748
900
1064
1146
1175
1206
1200
1076
888
812
947
1170
1268
1199
1135
1227
1414
1525
1501
1451
1476
1534
1511
1378
1229
1189
1265
1356
1344
1200
1002
883
916
1044
1137
1125
1069
1057
1090
1070
940
732
534
389
275
177
130
169
276
402
532
659
746
738
632
534
554
664
722
657
593
736
1070
1339
1316
1068
872
884
958
864
603
408
402
451
388
285
375
656
829
633
211
-57
-27
61
-81
-415
-637
-587
-406
-312
-342
-387
-410
-502
-724
-976
-1108
-1100
-1062
-1089
-1165
-1205
-1164
-1061
-959
-931
-1029
-1231
-1455
-1588
-1587
-1497
-1401
-1354
-1350
-1380
-1429
-1470
-1475
-1458
-1484
-1586
-1698
-1699
-1535
-1284
-1105
-1083
-1144
-1171
-1164
-1234
-1450
-1720
-1855
-1784
-1642
-1608
-1700
-1769
-1686
-1499
-1376
-1438
-1646
-1831
-1877
-1800
-1718
-1735
-1859
-2014
-2113
-2149
-2192
-2335
-2630
-3060
-3528
-3864
-3903
-3600
-3101
-2633
-2290
-1924
-1296
-319
809
1748
2264
2367
2247
2111
2027
1887
1541
962
310
-197
-476
-638
-817
-995
-1055
-992
-968
-1120
-1378
-1536
-1501
-1413
-1456
-1637
-1781
-1745
-1579
-1435
-1390
-1397
-1386
-1351
-1330
-1338
-1350
-1344
-1333
-1341
-1378
-1411
-1383
-1281
-1177
-1173
-1281
-1373
-1312
-1140
-1061
-1209
-1465
-1572
-1436
-1239
-1217
-1369
-1479
-1393
-1187
-1074
-1139
-1285
-1387
-1420
-1433
-1460
-1492
-1522
-1570
-1640
-1705
-1742
-1766
-1788
-1793
-1765
-1744
-1799
-1918
-1972
-1844
-1576
-1353
-1310
-1371
-1337
-1117
-847
-730
-807
-912
-878
-719
-578
-522
-477
-348
-174
-74
-82
-93
-10
117
152
49
-77
-80
49
193
262
286
348
451
529
551
554
572
587
565
525
531
598
668
685
677
716
805
866
834
750
727
825
978
1061
1022
925
877
901
909
799
590
408
365
437
505
494
452
471
563
663
714
714
678
595
470
364
343
386
409
381
384
479
619
700
706
716
767
799
740
640
612
669
698
606
451
361
376
402
354
259
204
215
250
277
302
318
278
163
45
4
30
29
-59
-173
-234
-253
-305
-428
-585
-739
-892
-1025
-1037
-830
-438
-6
384
798
1344
2002
2588
2922
2977
2863
2700
2522
2302
2005
1647
1301
1061
962
935
869
731
584
498
439
312
103
-95
-206
-266
-378
-577
-770
-863
-882
-935
-1073
-1227
-1304
-1288
-1251
-1254
-1281
-1285
-1244
-1184
-1141
-1117
-1102
-1100
-1137
-1217
-1318
-1394
-1419
-1403
-1375
-1357
-1349
-1339
-1336
-1348
-1364
-1347
-1287
-1239
-1261
-1340
-1382
-1320
-1197
-1108
-1077
-1029
-909
-773
-727
-785
-834
-775
-647
-574
-620
-726
-794
-792
-745
-680
-596
-510
-461
-447
-404
-261
-37
150
205
159
139
229
392
511
525
476
455
501
576
629
644
625
581
516
451
411
396
368
299
210
163
193
281
377
443
481
524
597
714
857
993
1111
1235
1385
1542
1657
1697
1702
1740
1825
1888
1853
1727
1602
1557
1588
1620
1596
1528
1447
1372
1296
1221
1160
1126
1096
1038
957
893
890
947
1027
1088
1117
1124
1124
1131
1155
1193
1229
1252
1276
1325
1415
1524
1626
1732
1874
2058
2240
2367
2446
2534
2671
2824
2921
2942
2951
3020
3148
3258
3272
3206
3138
3116
3114
3069
2962
2839
2753
2698
2605
2399
2072
1671
1263
887
559
295
119
38
38
116
312
697
1283
1970
2603
3090
3480
3892
4387
4903
5310
5499
5452
5233
4954
4706
4496
4251
3901
3472
3085
2849
2764
2745
2711
2645
2550
2404
2188
1934
1722
1607
1559
1495
1376
1238
1144
1119
1127
1119
1082
1042
1030
1050
1077
1089
1106
1172
1315
1493
1615
1622
1547
1482
1475
1485
1435
1313
1171
1052
928
751
535
354
247
159
5
-225
-462
-646
-799
-990
-1225
-1444
-1605
-1733
-1879
-2038
-2150
-2181
-2174
-2202
-2276
-2347
-2379
-2394
-2432
-2491
-2514
-2467
-2375
-2283
-2195
-2081
-1937
-1800
-1700
-1623
-1537
-1455
-1426
-1477
-1573
-1653
-1692
-1708
-1727
-1761
-1807
-1872
-1941
-1981
-1968
-1926
-1908
-1940
-2000
-2038
-2024
-1961
-1879
-1814
-1784
-1770
-1726
-1638
-1547
-1508
-1509
-1460
-1307
-1109
-981
-958
-947
-833
-625
-440
-370
-387
-395
-344
-272
-237
-247
-269
-277
-283
-309
-349
-375
-367
-336
-298
-261
-226
-190
-146
-85
-4
72
116
127
143
204
308
412
482
526
580
665
776
887
986
1069
1138
1199
1268
1363
1469
1555
1602
1620
1637
1659
1655
1586
1440
1243
1047
880
726
548
336
135
-2
-74
-138
-242
-382
-506
-608
-746
-967
-1240
-1480
-1658
-1835
-2084
-2384
-2642
-2815
-2960
-3136
-3281
-3245
-2941
-2464
-2004
-1650
-1323
-888
-323
223
549
554
299
-47
-346
-584
-848
-1218
-1664
-2068
-2329
-2437
-2448
-2416
-2353
-2262
-2168
-2096
-2029
-1926
-1768
-1593
-1456
-1374
-1311
-1224
-1106
-987
-890
-801
-694
-571
-463
-381
-303
-214
-134
-98
-78
8
201
429
562
537
432
373
415
514
591
598
513
333
99
-94
-168
-155
-177
-324
-532
-644
-568
-361
-160
-49
-2
52
147
256
332
354
333
300
273
247
218
204
234
313
397
435
429
422
438
455
441
409
401
425
437
396
326
296
333
400
446
459
460
465
474
494
533
577
593
571
550
582
670
761
809
818
830
872
936
999
1046
1078
1098
1113
1129
1151
1180
1209
1229
1232
1223
1209
1198
1180
1129
1039
928
833
772
724
653
550
447
374
329
271
174
59
-29
-74
-121
-225
-375
-492
-511
-464
-449
-528
-647
-705
-661
-584
-569
-631
-693
-670
-565
-458
-409
-393
-339
-209
-45
79
140
192
294
439
563
625
655
711
805
895
935
929
933
981
1050
1083
1055
995
963
977
1005
1007
970
910
844
768
674
561
427
260
51
-195
-476
-789
-1122
-1401
-1508
-1368
-1034
-643
-281
111
672
1455
2332
3062
3464
3549
3489
3440
3398
3234
2851
2324
1844
1536
1375
1263
1151
1061
1006
941
827
699
620
594
547
428
261
114
11
-68
-139
-184
-182
-155
-149
-180
-221
-245
-257
-279
-319
-363
-404
-469
-586
-749
-910
-1016
-1051
-1044
-1042
-1069
-1106
-1112
-1073
-1018
-994
-1015
-1052
-1060
-1036
-1007
-995
-981
-926
-831
-736
-674
-635
-586
-520
-464
-446
-464
-494
-504
-482
-430
-364
-309
-276
-255
-227
-192
-165
-161
-178
-216
-278
-354
-415
-440
-449
-492
-586
-700
-790
-856
-935
-1052
-1184
-1308
-1421
-1546
-1698
-1865
-2017
-2132
-2202
-2259
-2348
-2485
-2630
-2716
-2723
-2710
-2745
-2825
-2883
-2881
-2861
-2891
-2984
-3089
-3166
-3240
-3353
-3489
-3577
-3578
-3527
-3491
-3491
-3488
-3452
-3412
-3408
-3438
-3442
-3389
-3296
-3201
-3103
-2965
-2776
-2579
-2420
-2308
-2215
-2118
-2021
-1939
-1883
-1855
-1842
-1805
-1699
-1528
-1351
-1232
-1175
-1129
-1049
-922
-742
-517
-290
-129
-52
39
285
707
1157
1446
1534
1549
1644
1846
2053
2167
2177
2143
2137
2183
2273
2376
2462
2521
2569
2643
2757
2875
2934
2915
2870
2871
2936
2992
2949
2781
2549
2333
2167
2051
2013
2124
2392
2716
2977
3186
3504
4054
4728
5244
5407
5292
5137
5098
5113
5019
4730
4285
3808
3438
3267
3294
3392
3392
3251
3110
3100
3160
3092
2815
2515
2419
2491
2485
2274
2012
1927
2012
2056
1962
1837
1766
1659
1417
1174
1162
1349
1409
1170
936
1151
1794
2279
2098
1455
1040
1244
1722
1804
1232
425
5
135
433
465
211
24
173
492
594
293
-188
-442
-342
-175
-303
-763
-1196
-1187
-671
0
381
348
149
143
431
761
806
487
44
-226
-259
-197
-187
-222
-186
-9
250
434
431
281
132
115
218
280
194
47
58
344
741
940
809
526
415
632
999
1164
969
608
417
552
830
957
851
682
646
752
861
867
800
759
794
845
820
693
513
339
202
98
27
0
16
43
49
21
-40
-139
-291
-478
-621
-671
-684
-787
-1001
-1153
-1053
-782
-651
-870
-1276
-1511
-1433
-1246
-1252
-1476
-1682
-1701
-1610
-1581
-1647
-1683
-1614
-1514
-1490
-1550
-1603
-1587
-1542
-1514
-1483
-1407
-1276
-1144
-1079
-1097
-1159
-1220
-1242
-1223
-1195
-1213
-1295
-1391
-1384
-1215
-945
-714
-599
-573
-581
-576
-573
-620
-757
-997
-1314
-1606
-1768
-1819
-1887
-2061
-2233
-2170
-1766
-1160
-629
-289
-15
378
944
1547
1971
2086
1933
1674
1465
1342
1206
936
524
96
-207
-347
-393
-443
-530
-640
-743
-803
-796
-726
-645
-607
-619
-647
-658
-644
-618
-588
-560
-537
-516
-497
-491
-511
-538
-528
-461
-392
-418
-558
-702
-719
-596
-458
-426
-493
-547
-503
-387
-312
-368
-553
-765
-886
-877
-817
-825
-938
-1058
-1048
-882
-676
-588
-670
-832
-951
-983
-973
-989
-1071
-1201
-1304
-1309
-1204
-1069
-992
-988
-974
-892
-792
-788
-906
-1024
-1000
-844
-710
-708
-779
-776
-641
-472
-390
-402
-422
-384
-311
-265
-274
-312
-343
-352
-342
-332
-342
-375
-399
-365
-274
-185
-148
-139
-80
65
220
267
181
69
74
204
329
331
252
226
296
354
289
168
173
328
416
237
-83
-179
123
550
666
402
157
325
806
1113
949
523
281
388
586
555
279
3
-68
48
196
284
325
346
353
366
412
500
584
597
536
476
497
601
716
755
696
592
523
513
518
499
480
532
682
873
1017
1086
1137
1215
1296
1320
1260
1153
1050
957
863
777
699
601
460
304
172
63
-82
-310
-591
-862
-1122
-1406
-1670
-1770
-1590
-1200
-793
-474
-156
305
904
1482
1887
2107
2225
2304
2349
2353
2322
2251
2114
1908
1673
1452
1230
970
667
372
131
-67
-249
-397
-469
-471
-466
-496
-540
-556
-554
-599
-709
-793
-740
-570
-421
-388
-407
-355
-240
-225
-419
-714
-902
-936
-1014
-1338
-1838
-2207
-2206
-1893
-1515
-1223
-973
-655
-269
76
293
377
354
226
3
-241
-403
-442
-415
-410
-447
-457
-382
-253
-172
-197
-273
-294
-225
-129
-79
-64
-29
32
70
59
49
81
90
-43
-333
-648
-825
-811
-661
-448
-201
61
302
522
765
1054
1318
1437
1358
1157
977
921
1006
1184
1387
1570
1735
1925
2173
2446
2662
2775
2818
2854
2921
3021
3158
3321
3466
3534
3521
3492
3506
3535
3519
3464
3464
3596
3816
4017
4140
4215
4280
4308
4262
4176
4142
4184
4198
4063
3793
3533
3395
3348
3275
3129
2971
2880
2859
2851
2833
2829
2853
2871
2833
2734
2615
2504
2386
2226
2014
1773
1552
1397
1326
1309
1269
1152
995
895
905
963
945
800
606
499
532
633
691
671
640
688
836
1019
1155
1213
1243
1320
1488
1730
1988
2206
2373
2520
2689
2875
3019
3056
2966
2791
2598
2441
2364
2423
2675
3107
3624
4106
4523
4965
5533
6189
6728
6928
6745
6355
5980
5687
5351
4828
4143
3486
3024
2748
2525
2277
2058
1947
1905
1796
1552
1254
1032
916
815
637
397
179
40
-38
-95
-149
-204
-285
-427
-629
-846
-1018
-1124
-1195
-1278
-1387
-1497
-1574
-1620
-1683
-1801
-1956
-2086
-2152
-2177
-2227
-2325
-2427
-2488
-2526
-2609
-2775
-2982
-3149
-3234
-3262
-3283
-3332
-3404
-3465
-3461
-3372
-3246
-3179
-3241
-3411
-3581
-3641
-3595
-3550
-3602
-3719
-3765
-3653
-3470
-3400
-3514
-3669
-3662
-3462
-3257
-3243
-3385
-3468
-3350
-3123
-2982
-2991
-3028
-2959
-2803
-2675
-2624
-2580
-2471
-2338
-2289
-2351
-2413
-2349
-2160
-1980
-1907
-1903
-1848
-1679
-1452
-1274
-1184
-1131
-1064
-988
-937
-909
-858
-738
-552
-358
-207
-114
-42
56
196
337
413
403
365
389
511
685
839
949
1045
1160
1291
1408
1514
1639
1794
1925
1958
1886
1797
1790
1863
1903
1809
1606
1418
1347
1367
1363
1258
1082
927
846
807
739
613
475
395
399
443
461
436
408
419
468
506
500
458
404
352
306
270
255
260
266
260
255
262
272
247
173
62
-61
-178
-293
-415
-558
-724
-894
-1046
-1186
-1359
-1581
-1771
-1790
-1569
-1199
-845
-575
-292
150
758
1381
1828
2009
1974
1839
1705
1603
1497
1323
1066
801
645
647
743
824
832
794
761
740
712
669
629
616
642
686
717
714
690
680
718
795
871
912
921
928
954
995
1030
1047
1051
1050
1045
1024
982
930
883
845
813
775
728
667
586
482
371
277
210
159
129
152
237
336
374
339
310
366
477
531
470
372
361
471
615
700
724
750
813
891
951
992
1024
1046
1047
1046
1077
1142
1202
1217
1186
1142
1110
1075
1012
928
860
834
837
843
848
878
941
1014
1045
1021
974
957
979
998
967
910
898
975
1111
1220
1246
1222
1234
1333
1475
1558
1518
1393
1296
1308
1405
1488
1482
1404
1331
1321
1357
1377
1344
1268
1177
1096
1025
962
899
829
742
648
573
535
521
497
424
303
176
86
54
58
56
11
-68
-133
-153
-141
-148
-207
-291
-350
-370
-381
-405
-408
-351
-258
-202
-212
-220
-132
39
172
175
93
69
184
370
488
484
431
429
493
564
590
583
578
579
563
537
548
602
643
598
464
310
185
62
-105
-317
-527
-706
-856
-958
-922
-665
-214
295
732
1089
1459
1908
2386
2755
2885
2763
2502
2255
2083
1923
1667
1316
1000
834
789
751
652
553
541
594
604
529
437
425
485
515
446
318
230
228
287
357
410
447
469
481
507
562
635
692
721
741
764
776
766
758
775
790
732
598
493
515
616
647
514
309
219
312
476
569
559
517
491
459
408
373
385
391
305
126
-33
-69
-10
