763
846
1022
1235
1320
1163
821
465
191
-43
-304
-565
-748
-855
-979
-1173
-1356
-1401
-1313
-1251
-1346
-1552
-1688
-1630
-1433
-1252
-1189
-1217
-1241
-1197
-1110
-1059
-1097
-1196
-1270
-1251
-1139
-995
-878
-794
-715
-618
-516
-427
-359
-296
-221
-116
22
169
281
323
305
275
272
287
289
267
249
261
292
305
295
302
362
456
526
538
516
509
540
582
596
567
508
447
409
397
397
373
300
204
142
142
159
119
7
-105
-142
-113
-99
-152
-228
-244
-184
-120
-117
-154
-160
-101
-16
50
97
161
258
371
476
580
696
815
912
984
1051
1128
1199
1239
1256
1282
1328
1367
1372
1352
1349
1381
1415
1404
1354
1317
1329
1360
1345
1261
1151
1077
1046
1017
959
882
818
775
732
679
639
636
655
649
594
521
478
477
479
445
378
313
272
247
221
188
151
102
42
-7
-15
13
25
-14
-81
-123
-117
-103
-121
-161
-179
-155
-108
-64
-33
-17
-23
-51
-74
-68
-45
-47
-95
-154
-176
-156
-125
-109
-100
-75
-39
-6
17
28
24
-2
-35
-53
-56
-83
-166
-280
-362
-388
-400
-459
-568
-666
-693
-650
-590
-568
-598
-646
-668
-645
-595
-561
-578
-639
-701
-713
-667
-606
-584
-614
-641
-599
-487
-388
-388
-473
-531
-475
-330
-201
-161
-179
-170
-92
26
144
245
335
429
547
692
827
889
839
710
570
449
314
144
-21
-135
-224
-374
-604
-816
-889
-822
-743
-757
-833
-838
-697
-475
-299
-231
-227
-219
-184
-167
-211
-298
-371
-399
-387
-362
-334
-290
-217
-130
-58
-19
-1
20
55
107
180
269
363
431
449
416
368
344
353
372
364
314
239
169
118
82
52
33
34
51
66
79
109
173
254
308
303
260
224
222
242
245
215
174
164
209
293
378
440
490
554
634
702
737
763
823
925
1024
1075
1089
1123
1208
1316
1397
1435
1457
1491
1541
1601
1672
1749
1800
1799
1751
1694
1653
1611
1535
1426
1320
1244
1186
1114
1014
906
811
730
647
553
455
366
300
262
244
223
173
92
5
-61
-105
-148
-204
-252
-267
-246
-205
-154
-89
-14
48
79
88
107
155
217
267
298
325
356
387
407
416
420
427
440
463
499
547
598
651
701
747
794
850
908
952
969
979
1017
1089
1155
1166
1125
1089
1111
1174
1210
1176
1099
1040
1037
1077
1120
1143
1149
1154
1165
1183
1196
1195
1178
1148
1109
1057
985
901
829
799
808
818
793
742
716
753
831
889
892
874
893
960
1024
1037
1009
984
984
978
928
838
749
701
695
708
715
705
692
705
780
912
1052
1129
1123
1090
1114
1229
1380
1483
1521
1560
1674
1841
1953
1927
1793
1649
1539
1419
1241
1041
917
894
876
752
544
405
445
600
698
648
534
524
684
915
1075
1112
1096
1119
1199
1271
1282
1245
1208
1201
1210
1225
1259
1335
1439
1523
1554
1553
1566
1609
1649
1658
1649
1651
1668
1668
1622
1544
1478
1444
1421
1374
1298
1226
1181
1153
1118
1078
1063
1104
1190
1274
1323
1345
1373
1421
1457
1436
1358
1277
1244
1255
1264
1240
1202
1186
1195
1195
1161
1108
1071
1051
1016
951
878
837
830
818
775
723
707
736
776
790
788
806
858
918
950
949
947
966
995
1010
1004
994
1000
1013
1011
983
945
923
920
911
871
797
717
665
655
667
665
621
536
449
396
380
361
303
215
144
129
160
195
216
237
281
338
370
366
350
340
335
319
290
266
258
257
253
246
234
218
197
184
183
179
158
135
149
210
270
278
250
248
304
368
369
307
261
292
369
411
386
345
356
430
511
541
517
484
484
511
533
524
490
458
439
422
390
341
285
225
153
66
-18
-88
-152
-223
-303
-368
-397
-398
-390
-392
-400
-404
-397
-384
-377
-392
-438
-512
-595
-664
-706
-718
-713
-711
-714
-706
-665
-599
-543
-524
-531
-527
-490
-447
-431
-438
-421
-333
-167
33
219
384
561
770
970
1072
1023
866
703
592
508
404
285
198
159
122
49
-31
-57
-20
17
2
-47
-50
50
231
424
572
648
656
630
609
606
600
552
454
353
320
387
517
633
678
663
639
644
665
669
657
665
713
767
772
709
619
560
541
515
434
313
216
192
232
280
293
279
279
309
344
353
344
349
383
416
413
382
374
427
517
574
558
505
479
502
534
526
485
455
457
462
433
378
340
343
370
385
381
390
440
526
619
697
758
810
859
906
949
984
1010
1029
1055
1101
1162
1211
1228
1213
1190
1172
1142
1073
959
835
740
684
637
566
470
369
285
224
175
116
27
-87
-192
-253
-263
-257
-269
-306
-338
-341
-308
-246
-169
-105
-84
-104
-122
-87
-3
70
75
22
-18
4
68
110
94
53
44
79
113
100
53
29
61
125
165
158
136
138
162
164
110
15
-80
-150
-199
-246
-305
-380
-459
-524
-557
-568
-590
-638
-689
-701
-667
-638
-661
-725
-774
-772
-749
-764
-837
-936
-1005
-1019
-1001
-999
-1041
-1106
-1132
-1075
-963
-879
-871
-896
-861
-735
-590
-528
-566
-607
-560
-446
-363
-374
-430
-428
-331
-198
-107
-63
-8
95
221
330
426
554
730
895
983
996
1007
1072
1178
1275
1360
1487
1699
1951
2147
2230
2227
2198
2146
2005
1746
1455
1261
1201
1155
975
675
441
434
612
767
755
638
598
746
1019
1273
1422
1485
1520
1567
1628
1683
1704
1672
1599
1525
1505
1567
1691
1832
1959
2075
2211
2374
2534
2652
2730
2831
3012
3241
3402
3410
3316
3273
3374
3551
3655
3632
3579
3625
3769
3874
3826
3653
3484
3399
3356
3278
3163
3076
3055
3052
3008
2939
2917
2960
2992
2915
2729
2531
2418
2388
2359
2274
2146
2038
1992
2000
2019
1996
1893
1712
1503
1335
1243
1206
1166
1092
1006
948
936
947
942
903
839
774
740
752
803
866
904
893
840
783
753
732
673
548
393
272
222
220
222
217
220
240
250
215
127
23
-49
-70
-55
-25
17
85
197
340
489
633
778
925
1058
1151
1214
1294
1429
1594
1719
1764
1769
1817
1956
2146
2301
2364
2342
2284
2243
2237
2248
2234
2168
2066
1981
1963
2016
2089
2107
2037
1914
1824
1818
1859
1856
1766
1660
1668
1833
2052
2182
2208
2262
2473
2807
3095
3206
3182
3171
3256
3373
3391
3251
3000
2729
2466
2174
1807
1369
906
451
-4
-488
-1001
-1516
-2018
-2546
-3145
-3801
-4444
-5025
-5576
-6159
-6774
-7342
-7791
-8130
-8424
-8708
-8936
-9046
-9033
-8963
-8900
-8835
-8704
-8472
-8163
-7831
-7487
-7076
-6566
-6018
-5541
-5160
-4773
-4258
-3621
-3015
-2588
-2342
-2138
-1856
-1496
-1162
-946
-843
-763
-628
-446
-309
-298
-411
-584
-781
-1035
-1367
-1700
-1921
-2019
-2138
-2402
-2746
-2956
-2912
-2732
-2639
-2704
-2785
-2702
-2417
-2024
-1607
-1179
-751
-388
-147
-4
124
280
418
483
508
601
841
1208
1618
2002
2358
2722
3119
3543
3955
4313
4599
4830
5007
5085
4979
4660
4198
3703
3216
2680
2034
1318
643
81
-401
-869
-1333
-1756
-2132
-2510
-2923
-3334
-3659
-3854
-3943
-3974
-3977
-3965
-3959
-3977
-4018
-4072
-4145
-4272
-4475
-4721
-4935
-5064
-5116
-5152
-5227
-5335
-5408
-5386
-5278
-5149
-5055
-4981
-4874
-4713
-4536
-4385
-4242
-4061
-3830
-3600
-3439
-3348
-3252
-3069
-2798
-2521
-2325
-2226
-2170
-2084
-1950
-1809
-1700
-1620
-1543
-1453
-1352
-1244
-1134
-1058
-1085
-1241
-1466
-1655
-1764
-1846
-1981
-2155
-2269
-2247
-2131
-2041
-2034
-2058
-2026
-1948
-1920
-2002
-2126
-2166
-2079
-1958
-1916
-1961
-1989
-1923
-1821
-1810
-1942
-2145
-2300
-2366
-2402
-2485
-2625
-2768
-2857
-2888
-2901
-2929
-2973
-3001
-2999
-2985
-3008
-3117
-3308
-3516
-3663
-3727
-3756
-3797
-3843
-3823
-3681
-3449
-3212
-3012
-2798
-2495
-2111
-1737
-1442
-1192
-895
-517
-113
234
504
752
1043
1393
1755
2054
2249
2369
2497
2700
2953
3144
3193
3150
3145
3264
3457
3610
3688
3765
3918
4137
4335
4466
4582
4764
5022
5296
5528
5732
5945
6162
6324
6379
6345
6283
6247
6249
6266
6292
6344
6459
6657
6916
7181
7403
7579
7741
7929
8162
8424
8684
8943
9293
9902
10883
12141
13388
14358
15038
15607
16146
16472
16280
15463
14214
12799
11340
9821
8276
6838
5616
4600
3715
2943
2316
1826
1383
886
299
-339
-983
-1589
-2125
-2582
-2992
-3409
-3847
-4266
-4617
-4884
-5060
-5136
-5122
-5074
-5048
-5037
-4965
-4772
-4506
-4287
-4187
-4164
-4116
-3995
-3859
-3799
-3842
-3926
-3964
-3918
-3813
-3710
-3647
-3613
-3546
-3390
-3152
-2904
-2716
-2588
-2452
-2258
-2029
-1842
-1734
-1657
-1527
-1307
-1030
-753
-497
-256
-18
202
388
537
662
773
868
937
989
1057
1170
1323
1485
1629
1771
1946
2169
2414
2646
2851
3043
3239
3429
3586
3680
3692
3628
3529
3440
3367
3270
3112
2914
2733
2599
2472
2283
2001
1645
1247
821
368
-101
-554
-946
-1252
-1463
-1598
-1677
-1703
-1658
-1536
-1372
-1215
-1090
-978
-851
-719
-602
-511
-436
-384
-376
-417
-474
-502
-511
-557
-679
-858
-1026
-1134
-1187
-1246
-1380
-1606
-1848
-1996
-2024
-2041
-2178
-2421
-2609
-2612
-2483
-2394
-2441
-2542
-2564
-2487
-2417
-2437
-2512
-2546
-2488
-2383
-2291
-2231
-2174
-2091
-1977
-1858
-1773
-1744
-1766
-1820
-1879
-1922
-1936
-1934
-1952
-2013
-2092
-2128
-2090
-2029
-2028
-2086
-2136
-2141
-2148
-2203
-2257
-2210
-2063
-1949
-1957
-1986
-1845
-1495
-1129
-960
-973
-948
-718
-383
-168
-146
-166
-55
166
334
384
432
596
800
853
707
543
553
700
759
617
404
317
411
586
747
885
1028
1162
1275
1397
1526
1562
1395
1058
730
537
414
212
-103
-420
-647
-820
-1023
-1253
-1452
-1589
-1696
-1781
-1805
-1721
-1545
-1335
-1127
-934
-791
-747
-787
-827
-810
-798
-885
-1053
-1145
-1032
-774
-570
-553
-665
-738
-690
-594
-566
-632
-719
-760
-764
-781
-841
-950
-1110
-1316
-1547
-1767
-1946
-2101
-2260
-2445
-2652
-2864
-3084
-3296
-3458
-3534
-3552
-3591
-3678
-3748
-3719
-3585
-3428
-3330
-3269
-3162
-3009
-2909
-2936
-3022
-3003
-2810
-2580
-2495
-2542
-2501
-2201
-1732
-1350
-1184
-1110
-925
-587
-249
-33
112
285
485
628
703
801
989
1201
1299
1252
1169
1161
1226
1277
1274
1260
1269
1276
1260
1265
1336
1428
1429
1282
1089
1012
1082
1157
1087
880
690
638
686
711
667
633
703
851
976
1019
1022
1060
1154
1245
1279
1268
1284
1395
1604
1836
2004
2079
2114
2189
2321
2447
2483
2424
2344
2318
2353
2390
2363
2261
2127
2009
1925
1858
1785
1697
1602
1519
1467
1436
1383
1247
1008
716
461
277
115
-99
-351
-525
-529
-405
-294
-266
-260
-175
-21
95
121
118
170
266
333
354
396
491
563
529
427
387
464
543
476
272
96
80
180
239
174
42
-46
-49
-27
-60
-158
-269
-350
-397
-439
-483
-512
-509
-481
-466
-479
-496
-491
-456
-408
-350
-264
-145
-7
119
215
314
473
723
1020
1257
1358
1376
1450
1633
1799
1755
1455
1063
768
584
383
89
-216
-419
-538
-691
-915
-1101
-1142
-1072
-1014
-1018
-1003
-856
-559
-175
231
625
977
1255
1469
1670
1878
2063
2191
2289
2430
2626
2822
2999
3237
3607
4036
4345
4461
4524
4711
5018
5271
5352
5330
5326
5339
5277
5135
5017
4975
4921
4751
4508
4322
4215
4082
3862
3652
3567
3570
3524
3401
3339
3439
3616
3698
3643
3583
3637
3767
3869
3930
4012
4135
4240
4273
4285
4377
4545
4691
4749
4773
4877
5098
5353
5532
5614
5660
5725
5798
5853
5909
6013
6166
6300
6361
6389
6476
6628
6705
6559
6200
5803
5532
5370
5169
4838
4449
4150
3990
3885
3720
3469
3167
2822
2423
1993
1597
1279
989
629
180
-273
-663
-1038
-1509
-2095
-2676
-3117
-3421
-3721
-4115
-4572
-4978
-5262
-5467
-5691
-6006
-6407
-6801
-7084
-7216
-7261
-7324
-7410
-7403
-7178
-6758
-6303
-5934
-5616
-5232
-4771
-4342
-4032
-3770
-3401
-2866
-2279
-1788
-1416
-1058
-620
-131
295
554
626
577
496
447
430
370
208
-18
-179
-179
-71
-17
-120
-308
-417
-376
-271
-215
-197
-114
59
183
78
-278
-755
-1248
-1814
-2580
-3568
-4627
-5569
-6317
-6902
-7358
-7644
-7696
-7501
-7132
-6694
-6254
-5821
-5369
-4890
-4429
-4055
-3790
-3573
-3317
-3007
-2727
-2571
-2519
-2450
-2281
-2053
-1880
-1823
-1813
-1737
-1558
-1338
-1149
-1002
-852
-651
-381
-72
212
412
525
607
718
859
972
1016
1021
1039
1062
1015
843
599
403
319
301
248
120
-26
-82
3
184
355
437
429
399
387
360
252
41
-226
-479
-686
-864
-1034
-1212
-1428
-1727
-2121
-2546
-2896
-3120
-3255
-3370
-3472
-3491
-3348
-3057
-2706
-2393
-2138
-1896
-1614
-1290
-957
-659
-414
-210
-9
222
481
735
952
1128
1294
1471
1649
1817
2000
2237
2518
2763
2894
2924
2940
3012
3116
3177
3186
3242
3445
3764
4047
4176
4210
4313
4572
4897
5121
5204
5266
5442
5739
6049
6285
6451
6592
6716
6804
6856
6899
6930
6917
6838
6724
6632
6571
6516
6434
6329
6224
6136
6070
6040
6076
6182
6319
6434
6502
6534
6556
6581
6615
6653
6671
6639
6542
6430
6374
6405
6473
6502
6501
6570
6801
7168
7546
7840
8079
8358
8719
9114
9465
9763
10043
10330
10617
10887
11146
11406
11656
11868
12025
12136
12210
12253
12276
12292
12303
12298
12267
12225
12198
12196
12193
12164
12115
12072
12050
12031
11990
11916
11818
11715
11627
11558
11491
11387
11222
11018
10820
10657
10502
10294
10008
9662
9292
8926
8585
8273
7959
7582
7116
6615
6179
5836
5500
5061
4516
3970
3518
3141
2748
2297
1834
1426
1080
746
391
32
-305
-619
-931
-1250
-1566
-1858
-2117
-2351
-2582
-2806
-2987
-3099
-3168
-3269
-3445
-3627
-3690
-3596
-3458
-3420
-3469
-3443
-3232
-2936
-2763
-2793
-2911
-2983
-3036
-3209
-3529
-3862
-4088
-4273
-4588
-5064
-5519
-5761
-5827
-5932
-6218
-6602
-6890
-6999
-7013
-7035
-7081
-7105
-7087
-7060
-7039
-6988
-6871
-6736
-6678
-6756
-6917
-7060
-7126
-7138
-7172
-7281
-7444
-7583
-7627
-7559
-7412
-7238
-7058
-6855
-6587
-6213
-5711
-5083
-4357
-3579
-2805
-2050
-1259
-353
675
1721
2653
3440
4182
5002
5909
6798
7574
8242
8868
9468
10001
10425
10770
11094
11386
11576
11615
11547
11459
11383
11257
11003
10634
10246
9915
9630
9329
9022
8805
8746
8779
8738
8525
8219
7993
7918
7856
7576
6999
6291
5700
5323
5027
4637
4161
3794
3704
3836
3976
3978
3901
3919
4097
4333
4491
4555
4629
4806
5086
5401
5688
5929
6114
6233
6283
6269
6194
6027
5744
5371
4990
4682
4467
4310
4186
4101
4055
4011
3922
3782
3632
3501
3365
3172
2894
2556
2202
1849
1484
1090
666
208
-289
-836
-1428
-2039
-2648
-3257
-3896
-4585
-5318
-6071
-6835
-7623
-8433
-9232
-9985
-10696
-11404
-12112
-12752
-13241
-13567
-13803
-14028
-14259
-14450
-14557
-14570
-14486
-14300
-14027
-13713
-13406
-13100
-12749
-12332
-11904
-11550
-11312
-11167
-11055
-10930
-10770
-10553
-10265
-9914
-9534
-9155
-8784
-8412
-8048
-7712
-7407
-7118
-6824
-6526
-6227
-5889
-5449
-4886
-4261
-3673
-3171
-2715
-2238
-1740
-1298
-996
-848
-795
-781
-795
-856
-979
-1166
-1412
-1706
-2045
-2431
-2869
-3336
-3773
-4125
-4413
-4717
-5079
-5436
-5709
-5931
-6247
-6744
-7355
-7950
-8518
-9162
-9910
-10628
-11187
-11659
-12258
-13052
-13835
-14344
-14561
-14720
-15015
-15376
-15559
-15430
-15090
-14761
-14581
-14529
-14511
-14469
-14424
-14438
-14519
-14590
-14550
-14370
-14128
-13921
-13758
-13568
-13319
-13074
-12932
-12898
-12885
-12807
-12660
-12487
-12293
-12044
-11747
-11479
-11315
-11222
-11087
-10836
-10533
-10323
-10273
-10303
-10273
-10128
-9941
-9824
-9819
-9882
-9940
-9947
-9881
-9743
-9581
-9484
-9509
-9605
-9646
-9569
-9442
-9375
-9383
-9368
-9238
-9018
-8795
-8603
-8396
-8130
-7836
-7578
-7373
-7176
-6933
-6628
-6276
-5901
-5532
-5198
-4891
-4559
-4146
-3652
-3129
-2647
-2258
-1953
-1656
-1263
-750
-266
-28
-98
-249
-180
154
486
543
381
331
612
1103
1513
1704
1782
1907
2108
2300
2416
2458
2452
2414
2377
2388
2472
2601
2740
2900
3134
3470
3870
4269
4647
5025
5420
5827
6227
6627
7048
7497
7951
8381
8796
9234
9721
10208
10594
10829
10966
11103
11267
11371
11329
11185
11104
11198
11402
11553
11583
11582
11669
11829
11920
11843
11649
11455
11293
11108
10854
10580
10370
10244
10136
9985
9796
9614
9433
9188
8800
8242
7547
6785
6023
5291
4585
3896
3259
2723
2315
1999
1712
1411
1096
772
427
54
-344
-751
-1163
-1570
-1930
-2183
-2307
-2356
-2394
-2419
-2365
-2190
-1937
-1698
-1514
-1347
-1143
-905
-690
-539
-445
-373
-284
-149
55
327
634
935
1233
1577
2008
2507
3010
3462
3857
4247
4690
5206
5745
6200
6475
6579
6618
6685
6759
6726
6514
6187
5872
5599
5277
4829
4305
3832
3458
3105
2673
2186
1776
1540
1444
1367
1215
981
732
537
400
268
68
-232
-593
-947
-1264
-1565
-1887
-2240
-2612
-2988
-3357
-3699
-3986
-4213
-4392
-4530
-4616
-4641
-4617
-4563
-4472
-4314
-4079
-3798
-3520
-3250
-2951
-2597
-2207
-1846
-1556
-1325
-1116
-891
-643
-401
-205
-75
20
134
299
491
649
742
805
897
1053
1244
1402
1496
1557
1632
1724
1798
1842
1885
1952
2022
2047
2023
2001
2002
1985
1893
1747
1627
1562
1506
1401
1290
1249
1288
1330
1315
1284
1304
1362
1375
1302
1210
1184
1222
1260
1257
1247
1280
1362
1467
1583
1698
1779
1818
1847
1907
1986
2034
2033
2030
2061
2106
2133
2161
2237
2350
2426
2456
2533
2734
3000
3193
3281
3384
3621
3943
4197
4334
4455
4657
4894
5046
5090
5121
5205
5278
5244
5126
5041
5036
5014
4871
4643
4452
4367
4342
4303
4241
4096
4210
4221
4203
4150
4065
3929
3751
3592
3507
3454
3346
3175
3055
3083
3194
3219
3089
2919
2854
2875
2847
2713
2578
2571
2689
2800
2844
2873
2937
3001
2994
2936
2931
3000
3034
2941
2766
2667
2732
2880
2976
2972
2931
2915
2930
2972
3059
3166
3204
3079
2830
2608
2500
2441
2286
1997
1697
1523
1472
1429
1304
1101
886
685
479
246
-4
-257
-501
-743
-1006
-1350
-1826
-2399
-2931
-3309
-3567
-3857
-4283
-4783
-5209
-5475
-5638
-5793
-5969
-6133
-6255
-6321
-6302
-6136
-5802
-5377
-4996
-4750
-4597
-4390
-4040
-3614
-3287
-3168
-3171
-3095
-2826
-2452
-2151
-1965
-1774
-1479
-1145
-933
-877
-843
-700
-484
-339
-318
-324
-249
-134
-73
-64
15
238
523
711
741
710
746
871
996
1029
961
846
754
725
745
756
682
503
285
138
105
122
89
-6
-71
9
261
616
975
1289
1593
1967
2473
3098
3755
4345
4847
5336
5881
6467
7019
7496
7947
8430
8917
9321
9611
9872
10200
10568
10829
10881
10772
10642
10556
10451
10238
9908
9536
9191
8859
8499
8112
7744
7425
7123
6788
6412
6043
5726
5424
5051
4564
4014
3500
3067
2639
2101
1423
686
1
-599
-1171
-1772
-2379
-2920
-3354
-3709
-4023
-4286
-4481
-4626
-4763
-4895
-4961
-4908
-4777
-4662
-4596
-4500
-4292
-4000
-3737
-3559
-3405
-3184
-2915
-2703
-2579
-2459
-2250
-1986
-1808
-1789
-1845
-1834
-1719
-1605
-1616
-1754
-1896
-1923
-1823
-1697
-1651
-1706
-1802
-1854
-1841
-1812
-1816
-1849
-1864
-1829
-1761
-1703
-1672
-1652
-1631
-1632
-1677
-1760
-1857
-1949
-2034
-2119
-2216
-2331
-2463
-2591
-2679
-2729
-2793
-2924
-3113
-3277
-3358
-3391
-3470
-3650
-3888
-4103
-4272
-4431
-4627
-4863
-5117
-5374
-5620
-5832
-5978
-6054
-6096
-6140
-6172
-6142
-6022
-5830
-5601
-5356
-5106
-4849
-4557
-4174
-3667
-3085
-2538
-2086
-1659
-1138
-526
15
322
392
367
372
405
406
356
263
88
-233
-684
-1132
-1450
-1670
-1950
-2393
-2901
-3262
-3351
-3240
-3104
-3036
-3001
-2913
-2759
-2601
-2502
-2453
-2384
-2236
-2022
-1780
-1526
-1227
-830
-319
259
797
1203
1500
1828
2323
2965
3580
4025
4339
4676
5107
5516
5742
5790
5802
5863
5892
5760
5482
5212
5046
4926
4748
4524
4373
4344
4325
4187
3942
3726
3632
3587
3444
3163
2859
2666
2585
2509
2384
2259
2204
2202
2169
2071
1993
2039
2211
2398
2509
2571
2688
2926
3247
3530
3696
3761
3807
3923
4128
4361
4548
4671
4793
4991
5248
5462
5554
5571
5650
5856
6101
6256
6331
6499
6900
7441
7884
8097
8195
8383
8705
8982
9049
8973
8991
9222
9538
9728
9746
9744
9871
10094
10283
10390
10478
10580
10605
10413
9994
9455
8860
8141
7175
5964
4684
3530
2552
1650
722
-205
-1025
-1706
-2330
-3036
-3875
-4762
-5561
-6212
-6732
-7133
-7353
-7320
-7044
-6612
-6117
-5611
-5134
-4756
-4508
-4326
-4097
-3821
-3636
-3654
-3796
-3855
-3713
-3471
-3326
-3349
-3443
-3506
-3548
-3645
-3819
-4008
-4141
-4207
-4230
-4246
-4275
-4320
-4386
-4484
-4628
-4853
-5181
-5597
-6046
-6480
-6887
-7274
-7619
-7887
-8065
-8176
-8245
-8262
-8206
-8103
-8029
-8036
-8103
-8155
-8143
-8089
-8052
-8069
-8136
-8250
-8427
-8684
-8997
-9325
-9658
-10032
-10459
-10888
-11246
-11529
-11823
-12219
-12690
-13105
-13349
-13415
-13386
-13344
-13285
-13128
-12795
-12290
-11747
-11344
-11167
-11150
-11151
-11094
-11013
-10957
-10888
-10736
-10514
-10334
-10254
-10172
-9943
-9583
-9287
-9200
-9225
-9103
-8669
-7987
-7230
-6505
-5820
-5172
-4587
-4070
-3585
-3103
-2667
-2344
-2103
-1819
-1375
-784
-166
379
860
1354
1898
2434
2857
3130
3330
3565
3856
4110
4226
4214
4199
4314
4580
4911
5209
5446
5662
5909
6203
6509
6761
6903
6936
6913
6876
6820
6725
6605
6508
6449
6379
6248
6078
5946
5878
5793
5581
5253
4950
4796
4749
4637
4368
4041
3856
3883
3978
3953
3789
3636
3621
3691
3687
3546
3370
3286
3293
3272
3154
3005
2947
3025
3186
3350
3495
3641
3817
4026
4257
4481
4662
4779
4862
4986
5197
5460
5689
5847
5984
6173
6422
6656
6814
6930
7104
7369
7651
7859
8014
8227
8552
8912
9183
9357
9575
9962
10488
11015
11463
11889
12382
12940
13458
13857
14125
14278
14305
14212
14073
13978
13936
13856
13670
13433
13276
13241
13203
12986
12549
12023
11562
11183
10761
10178
9461
8758
8200
7784
7410
7001
6573
6182
5829
5440
4953
4399
3876
3452
3079
2663
2166
1690
1372
1246
1180
997
634
182
-229
-578
-963
-1471
-2085
-2698
-3222
-3647
-4024
-4406
-4814
-5214
-5532
-5705
-5756
-5779
-5853
-5948
-5941
-5742
-5404
-5066
-4817
-4629
-4426
-4196
-3979
-3797
-3626
-3445
-3293
-3223
-3222
-3215
-3167
-3132
-3172
-3252
-3229
-3001
-2638
-2329
-2179
-2083
-1822
-1288
-625
-96
208
469
936
1617
2229
2487
2413
2275
2256
2254
2061
1668
1298
1132
1100
993
758
554
536
664
773
778
736
749
853
1036
1294
1636
2024
2384
2692
2981
3288
3593
3828
3970
4066
4174
4331
4535
4757
4956
5089
5134
5118
5092
5068
4977
4738
4337
3849
3370
2923
2442
1856
1177
477
-180
-803
-1445
-2134
-2846
-3545
-4221
-4890
-5547
-6159
-6721
-7286
-7918
-8619
-9307
-9892
-10363
-10790
-11231
-11648
-11934
-12013
-11921
-11760
-11608
-11459
-11266
-11018
-10761
-10538
-10334
-10085
-9754
-9369
-8979
-8590
-8160
-7663
-7131
-6621
-6155
-5702
-5229
-4745
-4294
-3915
-3599
-3313
-3033
-2759
-2508
-2298
-2129
-1975
-1800
-1590
-1368
-1177
-1037
-927
-810
-694
-637
-682
-810
-948
-1051
-1144
-1271
-1437
-1588
-1675
-1707
-1734
-1781
-1838
-1876
-1892
-1891
-1873
-1838
-1796
-1775
-1784
-1793
-1757
-1669
-1561
-1467
-1382
-1271
-1110
-913
-728
-589
-494
-408
-302
-170
-24
127
294
501
756
1044
1337
1611
1845
2025
2149
2239
2307
2344
2312
2197
2030
1869
1727
1558
1324
1046
776
541
306
19
-320
-661
-952
-1185
-1391
-1605
-1845
-2109
-2355
-2538
-2646
-2729
-2858
-3046
-3235
-3350
-3370
-3351
-3349
-3377
-3407
-3424
-3455
-3537
-3671
-3819
-3921
-3946
-3930
-3930
-3971
-3992
-3898
-3678
-3451
-3366
-3446
-3563
-3562
-3422
-3258
-3175
-3186
-3220
-3199
-3088
-2892
-2665
-2522
-2565
-2761
-2923
-2866
-2582
-2239
-2008
-1881
-1703
-1362
-900
-472
-204
-107
-131
-249
-456
-731
-992
-1170
-1301
-1498
-1833
-2236
-2542
-2668
-2693
-2765
-2922
-3070
-3087
-2953
-2751
-2540
-2287
-1940
-1505
-1075
-749
-543
-356
-75
283
544
544
349
286
656
1416
2197
2662
2847
3097
3643
4319
4718
4617
4193
3802
3603
3454
3148
2679
2234
1959
1788
1554
1208
849
584
383
137
-179
-449
-550
-472
-319
-171
-13
210
490
738
886
959
1058
1275
1603
1960
2260
2477
2639
2809
3025
3274
3499
3646
3710
3742
3807
3935
4101
4265
4421
4600
4822
5085
5360
5628
5873
6091
6281
6456
6612
6736
6808
6837
6866
6923
6988
7008
6969
6932
6975
7121
7308
7433
7442
7360
7254
7149
6994
6720
6317
5868
5470
5142
4816
4402
3889
3338
2805
2300
1785
1228
620
-9
-621
-1197
-1759
-2359
-3023
-3730
-4437
-5128
-5824
-6530
-7192
-7740
-8153
-8461
-8700
-8862
-8914
-8852
-8735
-8633
-8562
-8475
-8314
-8071
-7796
-7535
-7274
-6952
-6542
-6100
-5720
-5419
-5135
-4819
-4516
-4320
-4242
-4178
-4026
-3807
-3639
-3592
-3590
-3508
-3321
-3125
-3009
-2958
-2905
-2829
-2778
-2773
-2773
-2727
-2668
-2676
-2774
-2882
-2916
-2884
-2868
-2923
-3036
-3147
-3213
-3216
-3182
-3174
-3255
-3400
-3483
-3392
-3191
-3074
-3142
-3249
-3165
-2839
-2470
-2287
-2294
-2298
-2145
-1872
-1624
-1469
-1360
-1237
-1083
-890
-627
-270
127
452
645
779
997
1385
1881
2336
2656
2908
3253
3770
4335
4722
4830
4778
4745
4768
4725
4544
4321
4193
4112
3884
3434
2952
2681
2618
2517
2219
1873
1771
1998
2334
2533
2597
2704
2944
3195
3291
3233
3182
3266
3452
3622
3712
3757
3812
3880
3916
3900
3835
3723
3551
3341
3172
3113
3131
3109
2979
2795
2670
2624
2559
2391
2169
2023
2006
2036
2010
1917
1825
1783
1768
1737
1698
1676
1663
1631
1561
1477
1421
1414
1437
1454
1438
1394
1365
1410
1535
1684
1779
1803
1806
1833
1877
1893
1868
1833
1826
1843
1852
1834
1811
1814
1857
1914
1941
1915
1844
1767
1709
1638
1513
1333
1136
945
741
491
206
-79
-341
-589
-829
-1035
-1214
-1395
-1599
-1786
-1892
-1921
-1960
-2072
-2217
-2300
-2295
-2269
-2289
-2350
-2410
-2460
-2514
-2552
-2535
-2482
-2466
-2509
-2530
-2438
-2268
-2164
-2214
-2336
-2393
-2385
-2450
-2683
-3011
-3288
-3466
-3615
-3805
-4000
-4114
-4136
-4138
-4179
-4254
-4344
-4456
-4572
-4623
-4570
-4482
-4495
-4613
-4656
-4440
-4005
-3585
-3346
-3187
-2882
-2357
-1733
-1151
-596
43
808
1620
2408
3202
4072
5011
5932
6769
7534
8250
8911
9507
10039
10509
10850
10967
10860
10668
10543
10472
10288
9876
9317
8826
8499
8200
7706
6951
6103
5384
4840
4313
3647
2855
2113
1557
1144
725
210
-337
-809
-1191
-1585
-2095
-2694
-3259
-3704
-4065
-4442
-4860
-5241
-5479
-5550
-5549
-5590
-5700
-5771
-5671
-5378
-4991
-4640
-4342
-4002
-3531
-2979
-2502
-2209
-2078
-2006
-1952
-1942
-1990
-2028
-1990
-1948
-2051
-2345
-2654
-2740
-2568
-2373
-2420
-2712
-2972
-2952
-2668
-2357
-2200
-2175
-2143
-2036
-1898
-1793
-1723
-1665
-1620
-1612
-1629
-1629
-1598
-1568
-1578
-1636
-1740
-1880
-2042
-2187
-2285
-2346
-2425
-2558
-2735
-2921
-3093
-3251
-3397
-3536
-3670
-3793
-3872
-3866
-3788
-3717
-3733
-3839
-3949
-3983
-3938
-3878
-3858
-3871
-3857
-3759
-3570
-3327
-3082
-2853
-2622
-2371
-2109
-1868
-1662
-1465
-1240
-976
-689
-394
-97
201
511
855
1226
1588
1889
2111
2292
2477
2659
2809
2924
3037
3159
3247
3276
3301
3405
3590
3749
3784
3718
3668
3706
3791
3834
3809
3746
3672
3570
3420
3242
3063
2870
2613
2302
2030
1890
1865
1829
1682
1467
1314
1288
1298
1200
960
685
507
437
383
274
128
19
-16
-5
3
-3
18
92
187
231
178
58
-36
-64
-100
-244
-490
-727
-888
-1025
-1205
-1368
-1367
-1188
-1031
-1077
-1254
-1294
-1066
-749
-627
-722
-800
-667
-367
-82
115
318
614
958
1238
1435
1627
1869
2108
2220
2131
1906
1713
1672
1740
1764
1652
1509
1539
1811
2135
2239
2058
1763
1553
1456
1342
1089
690
234
-171
-451
-627
-813
-1127
-1573
-2038
-2453
-2911
-3571
-4429
-5262
-5877
-6320
-6793
-7377
-7911
-8202
-8252
-8232
-8241
-8191
-7927
-7426
-6788
-6064
-5191
-4106
-2886
-1721
-729
149
1058
2070
3119
4063
4771
5212
5453
5588
5642
5517
5044
4141
2885
1440
-72
-1604
-3090
-4387
-5378
-6129
-6821
-7530
-8085
-8233
-7949
-7508
-7226
-7161
-7080
-6752
-6202
-5682
-5413
-5437
-5664
-5991
-6353
-6686
-6934
-7096
-7229
-7358
-7433
-7389
-7241
-7094
-7019
-6984
-6931
-6874
-6888
-6967
-6972
-6761
-6351
-5905
-5557
-5301
-5027
-4683
-4335
-4085
-3947
-3836
-3670
-3443
-3222
-3073
-2999
-2958
-2918
-2893
-2926
-3034
-3181
-3303
-3369
-3395
-3405
-3394
-3334
-3212
-3050
-2881
-2717
-2540
-2345
-2134
-1915
-1691
-1471
-1265
-1072
-868
-629
-369
-123
95
329
624
949
1228
1426
1612
1891
2270
2630
2858
2963
3066
3259
3509
3726
3879
4033
4264
4569
4893
5200
5490
5769
6013
6207
6372
6531
6661
6718
6715
6730
6827
6966
7036
6985
6886
6845
6862
6829
6671
6441
6259
6179
6148
6103
6056
6062
6137
6214
6231
6202
6188
6221
6270
6288
6281
6275
6279
6261
6194
6075
5914
5717
5499
5293
5128
4985
4822
4631
4470
4398
4401
4401
4340
4241
4172
4163
4180
4183
4163
4138
4121
4113
4102
4072
4009
3911
3790
3656
3500
3327
3169
3064
3005
2934
2825
2736
2749
2866
2991
3065
3151
3354
3667
3978
4208
4408
4664
4975
5259
5492
5739
6040
6329
6517
6635
6814
7123
7473
7719
7834
7926
8101
8337
8528
8609
8613
8614
8650
8708
8760
8801
8842
8879
8883
8826
8733
8673
8691
8746
8750
8639
8451
8289
8240
8308
8427
8526
8579
8630
8760
9007
9302
9504
9527
9431
9359
9389
9453
9422
9254
9034
8865
8761
8640
8426
8138
7866
7666
7497
7273
6970
6675
6505
6484
6537
6578
6592
6626
6699
6774
6812
6841
6921
7071
7249
7417
7611
7904
8313
8757
9117
9348
9502
9633
9708
9620
9279
8713
8035
7323
6558
5695
4759
3856
3046
2259
1399
489
-339
-1015
-1651
-2427
-3344
-4173
-4676
-4868
-4995
-5257
-5616
-5891
-6008
-6109
-6396
-6938
-7657
-8458
-9308
-10158
-10893
-11394
-11649
-11776
-11888
-11957
-11870
-11575
-11159
-10768
-10485
-10269
-10026
-9695
-9272
-8779
-8228
-7626
-6980
-6286
-5523
-4673
-3752
-2820
-1928
-1080
-239
611
1424
2134
2732
3277
3825
4357
4805
5143
5435
5752
6087
6334
6398
6267
5993
5612
5131
4559
3946
3349
2768
2150
1454
705
-35
-729
-1408
-2126
-2900
-3686
-4414
-5040
-5557
-5976
-6298
-6520
-6648
-6693
-6673
-6581
-6404
-6140
-5812
-5442
-5033
-4571
-4037
-3434
-2781
-2115
-1478
-907
-409
47
497
943
1357
1713
2020
2302
2543
2705
2779
2815
2876
2953
2966
2850
2638
2421
2242
2038
1715
1252
717
176
-374
-988
-1684
-2416
-3135
-3836
-4555
-5311
-6078
-6816
-7520
-8211
-8895
-9553
-10146
-10649
-11063
-11404
-11675
-11865
-11969
-12003
-12006
-12005
-11976
-11863
-11643
-11356
-11078
-10837
-10582
-10250
-9835
-9408
-9034
-8714
-8412
-8104
-7801
-7522
-7262
-7007
-6769
-6561
-6359
-6115
-5802
-5454
-5135
-4877
-4654
-4413
-4119
-3778
-3416
-3068
-2755
-2471
-2186
-1896
-1653
-1540
-1588
-1745
-1947
-2187
-2500
-2876
-3235
-3519
-3774
-4104
-4527
-4930
-5185
-5301
-5405
-5603
-5876
-6106
-6205
-6181
-6097
-6002
-5914
-5844
-5794
-5757
-5704
-5614
-5499
-5406
-5352
-5286
-5132
-4870
-4582
-4390
-4340
-4357
-4349
-4305
-4303
-4402
-4563
-4685
-4718
-4699
-4688
-4691
-4659
-4564
-4432
-4308
-4196
-4078
-3966
-3919
-3961
-4015
-3955
-3720
-3384
-3091
-2925
-2859
-2824
-2796
-2809
-2901
-3064
-3252
-3427
-3579
-3706
-3798
-3862
-3917
-3987
-4089
-4213
-4341
-4445
-4502
-4489
-4423
-4359
-4339
-4317
-4162
-3786
-3242
-2673
-2178
-1721
-1197
-573
99
761
1417
2088
2752
3370
3978
4665
5465
6297
7046
7694
8328
9019
9716
10290
10673
10911
11101
11289
11427
11448
11338
11172
11036
10940
10810
10578
10266
9973
9768
9607
9385
9079
8789
8619
8562
8501
8350
8156
8032
8036
8110
8151
8124
8069
8056
8124
8252
8390
8487
8540
8603
8738
8925
9053
9021
8853
8690
8648
8708
8765
8782
8837
9025
9337
9671
9948
10179
10405
10616
10756
10807
10822
10875
10982
11095
11175
11242
11352
11534
11755
11973
12171
12366
12558
12709
12785
12802
12821
12885
12980
13048
13053
13010
12955
12896
12803
12658
12476
12293
12103
11861
11532
11136
10739
10354
9904
9280
8456
7504
6510
5490
4387
3179
1918
695
-458
-1576
-2684
-3748
-4700
-5533
-6323
-7160
-8051
-8898
-9595
-10141
-10651
-11233
-11871
-12446
-12859
-13117
-13301
-13464
-13594
-13664
-13666
-13617
-13526
-13413
-13327
-13328
-13448
-13657
-13879
-14022
-14048
-13978
-13893
-13874
-13912
-13893
-13708
-13358
-12940
-12545
-12173
-11771
-11294
-10734
-10090
-9391
-8707
-8124
-7676
-7312
-6962
-6622
-6342
-6153
-6037
-5958
-5887
-5815
-5721
-5601
-5501
-5477
-5534
-5613
-5639
-5590
-5511
-5457
-5440
-5431
-5375
-5259
-5142
-5097
-5137
-5188
-5160
-5039
-4897
-4812
-4784
-4750
-4666
-4540
-4402
-4270
-4141
-4021
-3909
-3794
-3653
-3495
-3353
-3237
-3113
-2928
-2696
-2470
-2301
-2172
-2037
-1858
-1639
-1417
-1219
-1058
-916
-751
-526
-244
41
261
403
513
644
797
944
1057
1143
1224
1319
1428
1569
1758
1994
2246
2474
2658
2819
3002
3234
3494
3717
3862
3944
4040
4221
4486
4768
5016
5252
5522
5826
6112
6347
6556
6782
7017
7193
7266
7276
7329
7472
7650
7775
7823
7855
7945
8100
8254
8338
8349
8340
8382
8514
8716
8916
9041
9094
9154
9293
9482
9598
9558
9410
9277
9215
9162
9029
8815
8595
8395
8153
7819
7422
7052
6722
6352
5856
5270
4709
4237
3812
3344
2795
2202
1633
1114
622
114
-428
-980
-1497
-1941
-2308
-2628
-2927
-3211
-3481
-3727
-3929
-4049
-4080
-4076
-4103
-4159
-4154
-4016
-3783
-3559
-3406
-3270
-3070
-2816
-2608
-2510
-2492
-2484
-2469
-2507
-2662
-2932
-3262
-3614
-3995
-4435
-4958
-5558
-6209
-6886
-7579
-8277
-8954
-9589
-10181
-10750
-11276
-11671
-11844
-11784
-11598
-11425
-11288
-11079
-10671
-10053
-9334
-8633
-7956
-7204
-6283
-5223
-4160
-3234
-2460
-1756
-1033
-278
474
1240
2077
3009
3969
4864
5687
6524
7430
8335
9094
9622
9967
10227
10446
10610
10693
10702
10621
10395
10004
9508
9018
8573
8103
7496
6742
5933
5168
4453
3717
2892
1968
971
-65
-1099
-2083
-2977
-3797
-4588
-5385
-6153
-6815
-7334
-7741
-8088
-8374
-8532
-8516
-8379
-8246
-8190
-8167
-8064
-7837
-7574
-7382
-7274
-7163
-6963
-6696
-6447
-6283
-6198
-6143
-6080
-6004
-5923
-5859
-5814
-5779
-5731
-5656
-5562
-5469
-5391
-5341
-5330
-5364
-5415
-5433
-5391
-5319
-5271
-5266
-5265
-5208
-5088
-4961
-4883
-4855
-4829
-4759
-4643
-4510
-4367
-4197
-3982
-3743
-3526
-3350
-3175
-2962
-2720
-2508
-2369
-2286
-2227
-2183
-2178
-2206
-2226
-2236
-2296
-2457
-2673
-2835
-2892
-2924
-3043
-3249
-3428
-3486
-3461
-3457
-3512
-3548
-3469
-3279
-3074
-2926
-2803
-2598
-2264
-1872
-1551
-1358
-1217
-1007
-678
-304
-1
194
346
540
787
1022
1189
1284
1353
1428
1506
1572
1628
1702
1818
1966
2102
2194
2247
2301
2378
2467
2538
2578
2601
2629
2680
2768
2883
2985
3023
2986
2915
2869
2850
2803
2679
2495
2312
2160
2019
1856
1666
1458
1234
993
749
516
284
40
-217
-458
-658
-844
-1055
-1284
-1459
-1519
-1491
-1463
-1461
-1440
-1347
-1206
-1095
-1058
-1067
-1087
-1114
-1161
-1216
-1246
-1234
-1198
-1143
-1060
-967
-909
-894
-851
-715
-527
-405
-414
-480
-464
-305
-56
194
382
499
579
684
866
1094
1251
1241
1103
980
949
949
886
761
642
534
364
113
-115
-212
-215
-266
-444
-668
-795
-780
-693
-605
-522
-443
-412
-448
-486
-432
-297
-209
-283
-471
-616
-616
-525
-466
-498
-568
-588
-542
-468
-405
-366
-335
-292
-237
-180
-138
-116
-108
-109
-118
-123
-80
66
351
762
1239
1707
2109
2465
2869
3410
4052
4628
4986
5132
5229
5415
5674
5875
5922
5822
5640
5444
5305
5287
5372
5430
5345
5153
5038
5150
5438
5710
5837
5871
5978
6275
6756
7344
7973
8619
9279
9942
10563
11077
11424
11561
11455
11076
10425
9545
8537
7483
6390
5213
3935
2623
1390
311
-642
-1565
-2541
-3581
-4602
-5467
-6075
-6413
-6562
-6636
-6697
-6748
-6767
-6762
-6780
-6877
-7085
-7389
-7732
-8039
-8226
-8244
-8089
-7802
-7427
-6982
-6471
-5905
-5301
-4672
-4025
-3364
-2695
-2012
-1301
-563
170
853
1464
2004
2455
2775
2949
3036
3125
3224
3251
3134
2924
2743
2659
2601
2463
2225
1960
1722
1475
1124
619
4
-644
-1282
-1920
-2579
-3252
-3906
-4504
-5041
-5529
-5976
-6374
-6714
-7010
-7274
-7494
-7634
-7674
-7640
-7587
-7533
-7443
-7267
-7001
-6711
-6464
-6254
-5999
-5624
-5138
-4611
-4082
-3505
-2820
-2072
-1388
-847
-377
166
828
1494
2030
2440
2855
3358
3887
4315
4613
4857
5119
5387
5616
5829
6088
6396
6673
6843
6927
7009
7141
7293
7417
7509
7587
7662
7745
7848
7957
8005
7914
7681
7387
7102
6804
6430
5989
5568
5208
4851
4414
3904
3405
2966
2553
2133
1749
1485
1364
1344
1385
1471
1586
1682
1728
1754
1817
1927
2048
2156
2277
2437
2606
2728
2800
2869
2951
2990
2911
2733
2570
2538
2642
2779
2854
2875
2934
3088
3301
3491
3615
3699
3784
3859
3884
3854
3808
3789
3793
3782
3747
3712
3701
3706
3700
3671
3624
3556
3462
3346
3228
3137
3087
3080
3104
3159
3247
3376
3542
3735
3929
4101
4254
4412
4597
4812
5038
5254
5452
5650
5886
6178
6478
6705
6832
6942
7144
7441
7707
7830
7849
7915
8100
8314
8409
8361
8276
8250
8252
8201
8083
7972
7923
7895
7818
7696
7606
7592
7598
7536
7408
7323
7386
7573
7759
7851
7877
7942
8087
8228
8243
8096
7869
7674
7535
7372
7090
6677
6200
5746
5336
4915
4425
3861
3258
2660
2078
1520
1015
589
249
-18
-217
-338
-396
-459
-604
-837
-1101
-1338
-1555
-1793
-2031
-2155
-2061
-1760
-1357
-927
-429
233
1052
1909
2714
3521
4462
5575
6746
7841
8875
9985
11275
12686
14042
15184
16057
16698
17200
17655
18082
18403
18494
18327
18027
17777
17651
17596
17507
17348
17168
17016
16899
16792
16651
16430
16097
15659
15160
14649
14152
13689
13286
12956
12667
12356
11995
11628
11336
11132
10933
10596
10008
9153
8095
6909
5598
4113
2428
630
-1130
-2752
-4255
-5695
-7047
-8205
-9135
-9954
-10809
-11703
-12502
-13115
-13629
-14183
-14773
-15245
-15497
-15608
-15711
-15784
-15648
-15179
-14469
-13720
-13017
-12272
-11366
-10302
-9199
-8181
-7314
-6605
-6025
-5482
-4887
-4216
-3540
-2939
-2405
-1826
-1101
-235
665
1486
2195
2836
3446
4010
4455
4717
4801
4772
4682
4516
4229
3817
3342
2888
2485
2091
1664
1191
690
173
-364
-911
-1437
-1903
-2300
-2649
-2984
-3314
-3613
-3848
-4013
-4136
-4255
-4393
-4555
-4740
-4933
-5089
-5169
-5179
-5202
-5324
-5564
-5866
-6157
-6396
-6581
-6710
-6782
-6792
-6730
-6567
-6294
-5966
-5693
-5564
-5572
-5652
-5776
-5978
-6296
-6698
-7085
-7396
-7656
-7923
-8202
-8422
-8505
-8439
-8287
-8134
-8007
-7856
-7599
-7197
-6715
-6296
-6062
-6012
-6042
-6052
-6043
-6087
-6233
-6435
-6602
-6694
-6759
-6881
-7102
-7418
-7804
-8248
-8730
-9216
-9663
-10063
-10432
-10795
-11153
-11482
-11771
-12036
-12312
-12623
-12964
-13312
-13646
-13957
-14231
-14446
-14593
-14690
-14775
-14857
-14911
-14919
-14891
-14851
-14792
-14673
-14484
-14266
-14068
-13888
-13685
-13441
-13194
-12981
-12798
-12600
-12352
-12050
-11693
-11275
-10817
-10371
-9983
-9630
-9242
-8796
-8352
-7996
-7730
-7459
-7089
-6631
-6202
-5907
-5745
-5625
-5458
-5240
-5040
-4924
-4888
-4858
-4755
-4562
-4332
-4139
-4021
-3945
-3851
-3727
-3625
-3613
-3694
-3801
-3867
-3911
-4015
-4226
-4488
-4696
-4816
-4907
-5043
-5228
-5399
-5516
-5593
-5650
-5663
-5603
-5500
-5430
-5432
-5448
-5385
-5197
-4918
-4616
-4350
-4157
-4038
-3929
-3758
-3538
-3415
-3537
-3877
-4240
-4477
-4636
-4854
-5137
-5348
-5416
-5461
-5618
-5818
-5830
-5559
-5208
-5049
-5089
-5061
-4748
-4222
-3732
-3385
-3053
-2580
-1979
-1408
-965
-572
-95
479
1042
1492
1861
2262
2745
3224
3573
3771
3911
4095
4333
4555
4706
4822
4964
5128
5257
5295
5241
5128
4977
4786
4551
4287
4024
3799
3633
3534
3494
3496
3549
3668
3846
4041
4206
4356
4573
4906
5324
5739
6104
6472
6909
7391
7796
8030
8134
8245
8461
8743
8969
9073
9109
9184
9334
9504
9598
9574
9486
9436
9490
9649
9859
10076
10307
10599
10997
11478
11975
12424
12819
13206
13618
14033
14403
14713
14989
15256
15491
15641
15693
15683
15665
15635
15552
15391
15188
14994
14830
14672
14483
14239
13939
13617
13320
13070
12841
12574
12237
11880
11602
11447
11351
11203
10958
10671
10416
10188
9886
9409
8744
7959
7118
6215
5189
3985
2618
1160
-317
-1784
-3247
-4729
-6227
-7691
-9045
-10222
-11204
-12011
-12671
-13202
-13635
-14012
-14368
-14700
-14982
-15211
-15439
-15727
-16069
-16377
-16550
-16547
-16409
-16216
-16036
-15874
-15677
-15368
-14936
-14458
-14037
-13686
-13299
-12765
-12091
-11388
-10761
-10202
-9619
-8969
-8322
-7775
-7358
-7012
-6658
-6271
-5877
-5513
-5209
-4971
-4775
-4567
-4295
-3974
-3691
-3532
-3494
-3482
-3417
-3338
-3339
-3440
-3535
-3502
-3339
-3149
-3017
-2936
-2851
-2738
-2605
-2465
-2336
-2269
-2315
-2441
-2508
-2397
-2135
-1851
-1644
-1495
-1305
-1008
-630
-261
-11
55
-23
-114
-107
-27
-7
-107
-241
-290
-287
-386
-643
-902
-971
-867
-810
-954
-1178
-1236
-1035
-726
-514
-450
-432
-363
-253
-168
-135
-121
-100
-78
-72
-87
-88
-37
66
166
196
147
99
143
277
386
367
256
181
204
232
139
-69
-250
-286
-214
-145
-128
-96
11
161
276
331
376
452
532
561
533
497
486
493
493
487
492
511
533
556
587
635
696
770
870
1000
1153
1314
1484
1678
1908
2186
2515
2876
3214
3487
3711
3955
4239
4496
4639
4676
4693
4745
4774
4711
4585
4495
4473
4440
4301
4066
3834
3651
3463
3193
2827
2416
2006
1605
1213
825
424
-18
-491
-948
-1356
-1749
-2181
-2649
-3087
-3426
-3668
-3856
-4017
-4159
-4292
-4417
-4496
-4466
-4336
-4222
-4254
-4426
-4585
-4577
-4423
-4285
-4273
-4346
-4377
-4302
-4167
-4034
-3906
-3759
-3599
-3442
-3263
-3003
-2648
-2283
-2000
-1795
-1573
-1260
-905
-625
-487
-455
-430
-363
-281
-259
-348
-532
-724
-866
-986
-1183
-1519
-1913
-2229
-2404
-2519
-2682
-2877
-2969
-2855
-2590
-2322
-2138
-1986
-1762
-1439
-1087
-796
-599
-434
-211
97
443
744
975
1189
1443
1745
2036
2267
2451
2649
2889
3144
3353
3498
3617
3751
3895
3986
3966
3842
3704
3630
3593
3487
3238
2911
2663
2582
2605
2579
2419
2181
1996
1966
2067
2174
2180
2092
2032
2101
2241
2276
2094
1780
1512
1363
1232
1010
726
502
379
256
34
-255
-483
-598
-677
-817
-1002
-1119
-1081
-905
-667
-437
-249
-102
45
233
454
640
724
734
773
912
1122
1322
1486
1637
1792
1928
2019
2095
2199
2334
2451
2514
2536
2544
2538
2492
2410
2311
2210
2084
1899
1664
1430
1242
1100
960
772
538
313
154
67
5
-83
-208
-337
-436
-504
-557
-586
-581
-547
-512
-491
-451
-356
-195
-4
170
309
438
609
846
1114
1341
1486
1585
1730
1964
2229
2424
2520
2593
2723
2903
3035
3050
2988
2937
2931
2925
2867
2757
2646
2564
2488
2365
2174
1953
1761
1626
1517
1385
1227
1105
1094
1196
1308
1329
1265
1217
1251
1323
1325
1216
1072
991
989
997
967
919
892
880
837
745
649
614
639
658
618
528
466
489
587
699
775
819
876
984
1142
1325
1503
1676
1860
2067
2288
2505
2717
2948
3202
3465
3710
3924
4115
4297
4461
4595
4716
4842
4957
5016
5026
5073
5240
5498
5691
5691
5549
5436
5452
5515
5460
5240
4972
4793
4713
4628
4461
4258
4124
4086
4057
3930
3695
3446
3286
3233
3198
3085
2889
2676
2504
2352
2157
1909
1674
1502
1358
1145
836
527
346
328
376
350
198
-18
-179
-206
-125
-50
-107
-321
-592
-762
-738
-562
-378
-298
-331
-403
-439
-439
-484
-651
-962
-1390
-1887
-2421
-2940
-3380
-3720
-4035
-4446
-5000
-5583
-6013
-6218
-6314
-6488
-6802
-7102
-7171
-6951
-6611
-6382
-6340
-6354
-6266
-6074
-5892
-5776
-5668
-5501
-5317
-5218
-5195
-5099
-4818
-4422
-4100
-3950
-3874
-3677
-3272
-2758
-2336
-2128
-2089
-2052
-1912
-1734
-1690
-1866
-2175
-2465
-2705
-2982
-3340
-3693
-3937
-4113
-4360
-4728
-5086
-5255
-5207
-5071
-4975
-4907
-4773
-4514
-4156
-3755
-3347
-2960
-2618
-2329
-2064
-1787
-1511
-1285
-1137
-1024
-879
-696
-538
-447
-383
-279
-127
1
33
-31
-139
-246
-333
-394
-447
-545
-742
-1004
-1223
-1332
-1388
-1509
-1704
-1832
-1758
-1532
-1322
-1202
-1045
-686
-125
441
827
1041
1254
1604
2046
2414
2614
2712
2853
3119
3454
3753
3979
4189
4456
4786
5127
5439
5750
6113
6545
7004
7422
7745
7970
8131
8287
8482
8691
8821
8782
8572
8285
8009
7727
7321
6695
5892
5050
4286
3610
2971
2350
1775
1287
894
557
245
-54
-334
-584
-784
-924
-1020
-1092
-1142
-1154
-1111
-1029
-940
-880
-879
-943
-1043
-1116
-1119
-1094
-1141
-1309
-1528
-1674
-1707
-1705
-1767
-1896
-2004
-2029
-2001
-1991
-2027
-2074
-2094
-2087
-2061
-2007
-1909
-1754
-1546
-1282
-959
-585
-179
239
656
1052
1407
1723
2043
2394
2745
3029
3235
3429
3688
3994
4264
4449
4581
4725
4878
4969
4957
4894
4882
4978
5143
5282
5338
5345
5400
5538
5660
5591
5252
4749
4253
3806
3305
2677
2004
1424
917
305
-492
-1303
-1879
-2193
-2465
-2875
-3314
-3513
-3354
-2992
-2638
-2327
-1956
-1476
-959
-498
-85
345
808
1262
1683
2105
2566
3061
3576
4131
4737
5347
5877
6312
6732
7218
7740
8178
8448
8586
8693
8807
8877
8842
8703
8518
8336
8145
7904
7599
7273
6977
6720
6468
6185
5895
5665
5525
5422
5258
4982
4637
4319
4078
3888
3690
3464
3242
3068
2945
2860
2819
2835
2884
2899
2836
2745
2740
2873
3055
3129
3042
2911
2900
3033
3163
3127
2908
2650
2486
2407
2303
2094
1805
1520
1299
1142
1050
1027
1056
1096
1126
1193
1377
1679
2006
2259
2457
2712
3116
3673
4342
5102
5954
6858
7751
8616
9497
10422
11336
12156
12880
13592
14341
15069
15669
16118
16474
16740
16804
16554
16029
15404
14822
14267
13639
12937
12290
11816
11514
11304
11158
11112
11157
11188
11115
11003
11036
11321
11783
12250
12659
13111
13730
14499
15276
15944
16506
17033
17545
17972
18236
18341
18356
18347
18331
18276
18161
17999
17823
17654
17497
17347
17186
16994
16765
16477
16080
15508
14730
13792
12760
11637
10359
8888
7319
5832
4558
3474
2450
1377
252
-852
-1857
-2744
-3608
-4621
-5913
-7444
-9014
-10440
-11734
-13051
-14445
-15745
-16692
-17203
-17437
-17609
-17759
-17772
-17585
-17319
-17177
-17254
-17474
-17704
-17865
-17944
-17913
-17705
-17287
-16700
-16008
-15223
-14174
-13316
-12326
-11457
-10699
-9930
-9038
-8006
-6887
-5738
-4592
-3501
-2527
-1665
-843
-2
799
1426
1814
2057
2319
2653
2951
3065
2951
2690
2363
1949
1359
554
-393
-1369
-2330
-3328
-4413
-5558
-6685
-7771
-8874
-10059
-11302
-12535
-13730
-14933
-16172
-17397
-18542
-19637
-20774
-21948
-22976
-23609
-23734
-23433
-22842
-21998
-20849
-19387
-17737
-16114
-14702
-13581
-12733
-12086
-11570
-11153
-10825
-10563
-10308
-9988
-9567
-9063
-8522
-7980
-7468
-7015
-6654
-6412
-6282
-6247
-6279
-6366
-6518
-6765
-7129
-7603
-8137
-8661
-9129
-9537
-9909
-10261
-10586
-10860
-11082
-11300
-11580
-11964
-12419
-12862
-13226
-13503
-13720
-13885
-13966
-13915
-13703
-13330
-12830
-12261
-11678
-11086
-10450
-9745
-9021
-8382
-7867
-7399
-6868
-6248
-5622
-5069
-4570
-4042
-3453
-2858
-2326
-1871
-1447
-1021
-610
-253
47
342
683
1056
1383
1597
1701
1741
1714
1546
1160
580
-74
-714
-1359
-2066
-2818
-3496
-4019
-4410
-4761
-5108
-5409
-5620
-5762
-5901
-6081
-6301
-6545
-6790
-7031
-7277
-7549
-7853
-8145
-8347
-8418
-8400
-8372
-8357
-8305
-8167
-7963
-7760
-7593
-7440
-7270
-7080
-6879
-6641
-6311
-5877
-5416
-5020
-4698
-4360
-3929
-3446
-3028
-2730
-2468
-2098
-1584
-1044
-630
-350
-61
364
874
1286
1487
1570
1739
2101
2571
2989
3289
3537
3818
4111
4313
4350
4251
4101
3937
3722
3417
3055
2738
2543
2432
2293
2066
1821
1671
1631
1592
1459
1275
1201
1312
1516
1673
1776
1950
2274
2666
2977
3165
3308
3486
3707
3954
4242
4566
4849
5011
5088
5233
5556
5987
6350
6561
6690
6843
7053
7297
7594
7992
8477
8954
9354
9723
10157
10666
11125
11370
11342
11122
10824
10502
10135
9672
9092
8434
7774
7186
6704
6305
5942
5570
5182
4799
4427
4035
3593
3111
2646
2248
1881
1463
961
433
-6
-313
-552
-832
-1191
-1559
-1829
-1978
-2077
-2218
-2416
-2587
-2630
-2515
-2305
-2092
-1918
-1756
-1555
-1292
-981
-653
-330
-20
283
588
903
1230
1559
1871
2158
2427
2684
2938
3187
3417
3615
3791
3986
4239
4536
4809
5002
5151
5364
5698
6083
6386
6554
6661
6826
7056
7246
7295
7202
7034
6829
6566
6219
5806
5359
4873
4319
3697
3053
2432
1827
1205
548
-116
-743
-1317
-1853
-2376
-2890
-3380
-3826
-4228
-4594
-4918
-5185
-5376
-5491
-5538
-5528
-5471
-5377
-5267
-5145
-4997
-4811
-4609
-4431
-4278
-4100
-3841
-3520
-3213
-2966
-2733
-2428
-2042
-1655
-1333
-1047
-711
-302
107
437
698
958
1247
1506
1657
1690
1671
1674
1702
1700
1615
1443
1229
1015
811
597
346
51
-274
-610
-942
-1266
-1588
-1919
-2259
-2605
-2962
-3339
-3735
-4114
-4435
-4684
-4894
-5114
-5341
-5530
-5637
-5673
-5684
-5716
-5773
-5831
-5868
-5883
-5885
-5869
-5828
-5765
-5693
-5638
-5587
-5475
-5251
-4937
-4632
-4402
-4213
-3983
-3679
-3344
-3027
-2725
-2405
-2066
-1732
-1406
-1078
-769
-553
-477
-497
-545
-601
-687
-781
-820
-803
-832
-1003
-1259
-1421
-1398
-1308
-1338
-1552
-1825
-1975
-1923
-1716
-1458
-1240
-1120
-1093
-1075
-965
-768
-592
-545
-607
-663
-608
-431
-197
15
148
190
183
200
281
375
403
354
310
335
391
359
196
-13
-145
-182
-224
-369
-602
-812
-909
-915
-922
-996
-1099
-1147
-1119
-1085
-1116
-1216
-1318
-1367
-1358
-1328
-1306
-1290
-1268
-1227
-1129
-947
-702
-477
-339
-256
-109
175
528
804
932
980
1077
1266
1471
1581
1575
1517
1483
1501
1538
1540
1478
1378
1292
1259
1265
1261
1231
1206
1203
1199
1171
1136
1136
1169
1167
1069
919
820
822
873
891
862
841
861
890
863
750
566
341
101
-147
-395
-628
-796
-849
-804
-751
-770
-849
-895
-852
-774
-761
-849
-958
-979
-875
-708
-557
-452
-363
-229
-45
97
88
-79
-293
-429
-490
-591
-803
-1052
-1194
-1185
-1127
-1136
-1189
-1176
-1063
-927
-839
-745
-522
-151
249
579
905
1383
2086
2916
3726
4483
5268
6148
7098
8047
8964
9870
10733
11465
11999
12345
12559
12671
12670
12524
12224
11768
11184
10535
9914
9352
8793
8161
7479
6862
6370
5934
5451
4920
4446
4084
3758
3371
2970
2692
2586
2523
2346
2071
1857
1808
1849
1849
1774
1694
1665
1691
1790
2022
2408
2877
3366
3915
4641
5553
6466
7142
7539
7821
8134
8438
8580
8534
8447
8445
8472
8353
8047
7738
7628
7694
7710
7513
7187
6968
6973
7080
7063
6826
6453
6082
5759
5418
4972
4414
3818
3270
2818
2443
2090
1712
1294
852
420
12
-367
-706
-998
-1226
-1366
-1390
-1296
-1131
-974
-874
-809
-700
-486
-186
109
339
516
698
908
1096
1196
1200
1160
1121
1078
1005
893
766
649
525
358
132
-130
-389
-624
-857
-1130
-1449
-1770
-2030
-2215
-2373
-2560
-2779
-2977
-3114
-3215
-3341
-3512
-3680
-3815
-3944
-4124
-4361
-4582
-4720
-4795
-4898
-5089
-5340
-5564
-5711
-5821
-5977
-6229
-6543
-6838
-7054
-7195
-7304
-7410
-7493
-7525
-7488
-7393
-7261
-7100
-6919
-6735
-6563
-6397
-6235
-6090
-5982
-5903
-5817
-5699
-5577
-5492
-5438
-5350
-5193
-5023
-4934
-4956
-5013
-4996
-4891
-4789
-4773
-4821
-4820
-4684
-4425
-4136
-3891
-3694
-3518
-3345
-3166
-2973
-2752
-2507
-2250
-1956
-1560
-1028
-417
182
741
1329
1994
2667
3226
3660
4104
4678
5331
5883
6247
6523
6853
7249
7603
7852
8050
8261
8465
8613
8758
8986
9274
9461
9434
9301
9261
9357
9436
9348
9144
8990
8946
8910
8803
8689
8665
8705
8664
8484
8273
8172
8172
8126
7905
7526
7114
6784
6556
6373
6154
5856
5493
5112
4749
4384
3946
3357
2615
1793
969
168
-626
-1401
-2085
-2612
-3001
-3334
-3682
-4034
-4324
-4524
-4668
-4823
-5025
-5259
-5469
-5581
-5582
-5546
-5580
-5688
-5740
-5628
-5427
-5342
-5439
-5535
-5397
-5010
-4593
-4319
-4114
-3762
-3185
-2509
-1886
-1341
-837
-387
-29
263
563
880
1104
1120
928
609
204
-321
-992
-1764
-2572
-3428
-4385
-5416
-6369
-7107
-7662
-8210
-8869
-9546
-10033
-10248
-10323
-10435
-10597
-10653
-10487
-10187
-9946
-9831
-9726
-9513
-9249
-9113
-9185
-9352
-9446
-9434
-9435
-9548
-9747
-9940
-10087
-10208
-10312
-10368
-10389
-10452
-10606
-10776
-10819
-10697
-10536
-10467
-10458
-10341
-10004
-9527
-9073
-8708
-8346
-7889
-7354
-6852
-6451
-6127
-5827
-5557
-5364
-5254
-5174
-5068
-4931
-4794
-4661
-4503
-4298
-4067
-3853
-3692
-3590
-3541
-3538
-3567
-3620
-3695
-3785
-3860
-3883
-3848
-3797
-3785
-3815
-3841
-3845
-3887
-4064
-4410
-4854
-5292
-5660
-5965
-6246
-6524
-6787
-7000
-7124
-7141
-7081
-6991
-6890
-6761
-6573
-6325
-6037
-5711
-5335
-4922
-4530
-4206
-3930
-3629
-3266
-2886
-2593
-2447
-2402
-2363
-2260
-2115
-2017
-2035
-2156
-2281
-2304
-2199
-2042
-1936
-1914
-1926
-1905
-1862
-1869
-1982
-2176
-2370
-2497
-2541
-2516
-2432
-2293
-2097
-1828
-1466
-1020
-556
-161
152
460
859
1342
1799
2150
2425
2720
3080
3462
3812
4124
4413
4661
4836
4938
5006
5052
5045
4950
4797
4653
4543
4423
4251
4062
3938
3911
3915
3851
3691
3510
3397
3357
3321
3228
3091
2970
2903
2883
2904
3002
3208
3492
3797
4106
4445
4814
5126
5283
5285
5220
5142
5006
4768
4492
4315
4273
4251
4120
3908
3775
3839
4046
4231
4315
4368
4519
4806
5145
5422
5593
5716
5876
6086
6290
6445
6571
6726
6920
7080
7132
7090
7049
7077
7113
7035
6809
6557
6461
6575
6779
6907
6919
6912
6991
7182
7426
7670
7913
8176
8480
8833
9248
9721
10208
10623
10898
11035
11104
11210
11405
11635
11762
11689
11462
11246
11168
11174
11083
10783
10348
9951
9661
9387
9025
8585
8179
7847
7496
7015
6428
5893
5521
5245
4904
4440
3990
3735
3715
3808
3884
3936
4045
4279
4652
5180
5873
6693
7556
8426
9389
10550
11860
13109
14135
14991
15874
16852
17769
18450
18933
19416
20016
20627
21079
21349
21556
21774
21927
21887
21616
21173
20588
19816
18802
17531
16037
14375
12597
10729
8727
6498
3993
1293
-1414
-3979
-6368
-8575
-10515
-12043
-13104
-13778
-14180
-14344
-14236
-13881
-13417
-12993
-12625
-12199
-11617
-10896
-10147
-9467
-8864
-8283
-7673
-7018
-6342
-5666
-4990
-4298
-3548
-2691
-1706
-610
526
1623
2626
3519
4292
4918
5398
5815
6307
6953
7696
8394
8970
9496
10093
10760
11341
11668
11726
11635
11504
11330
11072
10771
10550
10476
10454
10291
9885
9311
8702
8060
7219
6016
4472
2803
1254
-68
-1217
-2310
-3414
-4520
-5570
-6519
-7377
-8227
-9138
-10096
-10986
-11693
-12191
-12511
-12638
-12502
-12086
-11505
-10921
-10391
-9854
-9270
-8708
-8259
-7916
-7595
-7262
-6978
-6769
-6547
-6202
-5772
-5414
-5222
-5106
-4931
-4706
-4566
-4580
-4647
-4600
-4405
-4172
-4000
-3856
-3645
-3352
-3087
-2992
-3101
-3317
-3514
-3644
-3775
-4012
-4392
-4837
-5236
-5552
-5839
-6171
-6550
-6907
-7177
-7347
-7437
-7449
-7370
-7211
-7031
-6906
-6852
-6809
-6698
-6496
-6259
-6034
-5803
-5500
-5104
-4674
-4285
-3939
-3588
-3219
-2887
-2649
-2477
-2281
-2024
-1761
-1566
-1427
-1264
-1038
-801
-628
-516
-388
-198
5
141
193
223
286
356
352
229
25
-180
-342
-494
-695
-975
-1294
-1589
-1831
-2066
-2367
-2753
-3165
-3520
-3795
-4034
-4291
-4572
-4843
-5095
-5361
-5677
-6050
-6442
-6818
-7175
-7525
-7858
-8134
-8334
-8485
-8635
-8797
-8938
-9016
-9052
-9119
-9255
-9403
-9455
-9371
-9234
-9145
-9090
-8941
-8608
-8160
-7775
-7565
-7470
-7348
-7138
-6926
-6824
-6840
-6866
-6797
-6619
-6412
-6239
-6094
-5937
-5757
-5590
-5459
-5353
-5242
-5138
-5082
-5095
-5135
-5131
-5053
-4932
-4840
-4842
-4946
-5081
-5132
-5028
-4812
-4625
-4567
-4583
-4512
-4269
-3957
-3769
-3792
-3910
-3943
-3810
-3583
-3387
-3278
-3186
-2994
-2658
-2281
-2052
-2052
-2148
-2097
-1797
-1415
-1204
-1202
-1183
-924
-455
-3
268
416
597
866
1160
1447
1788
2223
2672
3029
3315
3669
4170
4707
5106
5339
5547
5858
6234
6538
6700
6758
6784
6819
6890
7044
7275
7493
7607
7652
7782
8068
8379
8494
8341
8053
7772
7510
7187
6795
6415
6072
5668
5102
4444
3896
3561
3328
3008
2552
2101
1822
1732
1714
1667
1589
1537
1549
1621
1746
1947
2229
2557
2890
3228
3609
4059
4551
5033
5469
5869
6265
6665
7054
7410
7734
8042
8341
8626
8895
9164
9444
9717
9958
10157
10343
10542
10744
10900
10959
10912
10794
10669
10573
10482
10337
10088
9754
9394
9051
8693
8260
7732
7148
6541
5871
5058
4086
3041
2034
1077
65
-1086
-2311
-3428
-4325
-5085
-5903
-6866
-7856
-8662
-9212
-9623
-10060
-10564
-11022
-11326
-11497
-11641
-11831
-12028
-12140
-12147
-12100
-12039
-11913
-11635
-11210
-10762
-10415
-10155
-9832
-9327
-8710
-8175
-7813
-7505
-7056
-6429
-5786
-5311
-5015
-4748
-4395
-4016
-3767
-3719
-3791
-3836
-3799
-3747
-3776
-3921
-4144
-4363
-4520
-4588
-4603
-4636
-4739
-4890
-5001
-5010
-4971
-5019
-5229
-5531
-5774
-5899
-5987
-6140
-6340
-6473
-6477
-6417
-6406
-6471
-6521
-6457
-6295
-6148
-6093
-6092
-6019
-5801
-5505
-5260
-5121
-5019
-4855
-4625
-4417
-4291
-4196
-4051
-3868
-3728
-3652
-3557
-3378
-3163
-3017
-2977
-2957
-2890
-2807
-2784
-2825
-2858
-2848
-2850
-2923
-3018
-3024
-2913
-2789
-2774
-2857
-2909
-2836
-2689
-2606
-2636
-2686
-2612
-2382
-2094
-1852
-1656
-1420
-1105
-763
-454
-161
167
536
907
1251
1598
1991
2399
2802
3237
3746
4259
4645
4877
5095
5438
5811
5957
5767
5426
5197
5094
4918
4541
4063
3643
3254
2744
2102
1541
1255
1166
1025
713
390
295
494
812
1031
1083
1051
1068
1186
1365
1541
1690
1848
2057
2327
2610
2879
3153
3434
3685
3860
3969
4076
4222
4381
4484
4501
4467
4418
4337
4182
3943
3663
3391
3140
2888
2614
2295
1922
1509
1091
689
285
-142
-580
-976
-1304
-1600
-1917
-2244
-2520
-2717
-2883
-3078
-3283
-3412
-3437
-3433
-3476
-3544
-3562
-3492
-3395
-3338
-3302
-3209
-3016
-2746
-2470
-2234
-2037
-1851
-1649
-1426
-1200
-988
-774
-513
-175
202
573
949
1371
1798
2106
2210
2170
2136
2159
2141
1978
1725
1544
1491
1448
1291
1057
899
852
767
499
99
-238
-399
-489
-670
-953
-1178
-1213
-1102
-988
-937
-878
-726
-507
-309
-168
-15
242
622
1082
1588
2135
2724
3328
3910
4460
4988
5486
5904
6190
6338
6373
6334
6230
6042
5750
5338
4824
4250
3662
3090
2545
2024
1524
1036
565
120
-281
-635
-963
-1293
-1630
-1932
-2146
-2265
-2348
-2457
-2612
-2767
-2875
-2948
-3056
-3247
-3471
-3618
-3615
-3503
-3403
-3378
-3386
-3343
-3224
-3088
-2990
-2928
-2860
-2758
-2632
-2488
-2300
-2052
-1769
-1514
-1313
-1124
-896
-635
-391
-193
-30
121
251
346
427
518
617
693
735
787
897
1046
1159
1176
1115
1058
1065
1133
1197
1189
1096
988
947
969
944
682
12
-344
-648
-926
-1164
-1350
-1538
-1823
-2200
-2539
-2716
-2773
-2870
-3074
-3279
-3323
-3177
-2959
-2771
-2612
-2440
-2262
-2130
-2072
-2052
-2036
-2022
-2031
-2054
-2055
-2022
-1993
-2009
-2062
-2100
-2089
-2063
-2081
-2159
-2240
-2258
-2219
-2197
-2247
-2338
-2394
-2398
-2413
-2500
-2615
-2646
-2552
-2430
-2417
-2534
-2660
-2669
-2575
-2497
-2511
-2556
-2532
-2424
-2312
-2255
-2202
-2071
-1871
-1708
-1659
-1659
-1570
-1341
-1075
-901
-835
-756
-568
-306
-101
-16
18
96
219
292
239
107
6
-8
30
49
25
-8
-24
-31
-42
-58
-103
-228
-441
-666
-791
-794
-780
-863
-1024
-1135
-1109
-1007
-956
-1000
-1061
-1050
-978
-909
-865
-796
-668
-522
-414
-327
-185
46
288
431
457
461
537
676
778
787
734
683
666
685
749
863
992
1069
1066
1051
1117
1243
1289
1164
955
851
926
1081
1169
1182
1225
1368
1555
1704
1812
1929
2059
2138
2139
2153
2297
2579
2873
3053
3120
3186
3339
3538
3648
3572
3329
3033
2789
2624
2498
2375
2246
2114
1988
1883
1806
1749
1676
1538
1304
1014
743
523
331
134
-49
-140
-94
28
68
-93
-392
-619
-638
-534
-529
-723
-960
-1003
-801
-532
-396
-409
-436
-402
-396
-514
-713
-863
-919
-966
-1098
-1283
-1384
-1280
-957
-504
-68
220
362
482
699
978
1128
1011
719
491
458
529
566
606
809
1203
1588
1758
1730
1719
1838
1943
1822
1484
1166
1068
1114
1071
844
563
378
257
32
-379
-876
-1328
-1766
-2353
-3157
-4015
-4661
-4978
-5082
-5144
-5175
-5023
-4563
-3869
-3159
-2618
-2282
-2083
-1972
-1969
-2119
-2414
-2790
-3162
-3470
-3699
-3872
-4028
-4176
-4255
-4157
-3831
-3341
-2839
-2435
-2121
-1801
-1418
-1004
-648
-415
-308
-273
-219
-40
324
827
1328
1687
1875
2004
2208
2508
2804
2982
3041
3098
3267
3569
3944
4333
4710
5065
5376
5625
5828
6023
6217
6380
6482
6525
6533
6520
6487
6449
6437
6466
6515
6555
6570
6552
6480
6332
6125
5908
5700
5461
5125
4685
4200
3744
3336
2943
2523
2056
1558
1083
699
433
234
3
-314
-659
-925
-1061
-1129
-1230
-1400
-1592
-1741
-1829
-1889
-1944
-1981
-1988
-1975
-1968
-1969
-1948
-1882
-1777
-1664
-1560
-1455
-1327
-1165
-979
-792
-630
-500
-366
-173
104
422
708
945
1193
1525
1935
2336
2646
2866
3055
3253
3440
3586
3700
3822
3981
4166
4353
4545
4759
5000
5231
5394
5461
5458
5436
5415
5373
5278
5141
5011
4925
4861
4766
4606
4401
4188
3977
3747
3469
3142
2797
2464
2161
1870
1560
1206
818
432
70
-268
-602
-944
-1265
-1525
-1710
-1828
-1900
-1944
-1989
-2069
-2169
-2205
-2080
-1796
-1480
-1259
-1114
-908
-560
-158
135
255
282
314
361
406
488
651
849
946
902
862
1023
1403
1820
2138
2411
2793
3310
3802
4120
4306
4509
4795
5061
5176
5145
5126
5293
5681
6174
6610
6910
7113
7299
7485
7610
7613
7526
7450
7460
7576
7780
8072
8456
8889
9293
9613
9843
10012
10166
10371
10666
11002
11247
11310
11280
11379
11718
12157
12440
12469
12393
12428
12614
12806
12855
12757
12616
12524
12482
12437
12341
12176
11957
11711
11439
11110
10697
10223
9736
9229
8639
7937
7205
6574
6080
5623
5097
4527
4012
3565
3089
2497
1832
1209
670
158
-365
-834
-1146
-1287
-1346
-1409
-1461
-1416
-1230
-941
-611
-263
118
550
1029
1550
2123
2752
3417
4069
4671
5212
5692
6095
6412
6668
6924
7211
7503
7763
8024
8365
8831
9361
9833
10183
10454
10710
10962
11149
11219
11170
11024
10790
10450
9996
9435
8779
8040
7218
6302
5287
4189
3053
1938
880
-129
-1118
-2094
-3025
-3860
-4559
-5087
-5427
-5607
-5699
-5776
-5860
-5941
-6036
-6214
-6511
-6866
-7170
-7371
-7520
-7675
-7789
-7770
-7617
-7469
-7470
-7615
-7771
-7848
-7897
-8007
-8164
-8263
-8217
-8020
-7702
-7258
-6681
-6036
-5435
-4924
-4449
-3935
-3390
-2892
-2470
-2068
-1626
-1152
-696
-270
173
666
1174
1643
2066
2478
2893
3265
3540
3734
3905
4071
4200
4280
4370
4553
4825
5085
5232
5261
5232
5145
4878
4281
3320
2087
685
-862
-2564
-4367
-6124
-7731
-9223
-10711
-12230
-13676
-14926
-15979
-16945
-17899
-18782
-19473
-19920
-20192
-20360
-20411
-20289
-19989
-19581
-19124
-18590
-17917
-17104
-16240
-15398
-14566
-13691
-12779
-11911
-11158
-10500
-9858
-9193
-8536
-7940
-7401
-6867
-6289
-5664
-5022
-4405
-3840
-3324
-2833
-2339
-1829
-1323
-850
-434
-80
212
450
648
819
957
1033
1024
936
794
609
373
81
-246
-591
-968
-1401
-1893
-2407
-2899
-3383
-3917
-4538
-5195
-5790
-6266
-6649
-6984
-7259
-7397
-7352
-7167
-6939
-6721
-6493
-6238
-5996
-5843
-5793
-5785
-5749
-5671
-5591
-5529
-5463
-5350
-5163
-4912
-4638
-4397
-4233
-4144
-4091
-4050
-4043
-4104
-4220
-4333
-4417
-4508
-4638
-4761
-4784
-4691
-4582
-4565
-4642
-4712
-4703
-4642
-4592
-4569
-4545
-4507
-4470
-4435
-4355
-4197
-4007
-3879
-3847
-3846
-3790
-3669
-3541
-3445
-3352
-3213
-3047
-2912
-2829
-2742
-2591
-2392
-2218
-2109
-2015
-1856
-1618
-1376
-1206
-1107
-1018
-886
-723
-594
-546
-571
-593
-529
-379
-242
-236
-366
-489
-459
-294
-171
-233
-434
-599
-639
-640
-742
-972
-1233
-1446
-1635
-1859
-2129
-2421
-2758
-3195
-3724
-4239
-4633
-4932
-5255
-5680
-6133
-6463
-6609
-6650
-6708
-6829
-6961
-7038
-7039
-6982
-6892
-6779
-6660
-6543
-6412
-6236
-6004
-5745
-5502
-5277
-5021
-4684
-4269
-3844
-3442
-3014
-2472
-1793
-1060
-368
293
1021
1866
2732
3469
4015
4446
4857
5238
5504
5632
5706
5835
6021
6162
6168
6080
6020
6052
6110
6065
5893
5721
5703
5868
6097
6260
6352
6460
6646
6882
7066
7119
7030
6842
6628
6457
6351
6258
6107
5906
5747
5699
5715
5689
5587
5478
5413
5323
5101
4735
4332
3995
3708
3380
2977
2567
2252
2065
1946
1797
1557
1232
878
548
251
-45
-367
-693
-956
-1107
-1147
-1110
-1019
-876
-681
-452
-216
13
237
451
646
824
1016
1264
1593
1972
2339
2651
2923
3216
3561
3919
4210
4410
4572
4780
5061
5346
5538
5597
5552
5462
5345
5165
4873
4459
3992
3576
3269
3020
2701
2232
1652
1077
572
88
-485
-1193
-1957
-2633
-3104
-3362
-3486
-3572
-3672
-3772
-3840
-3875
-3933
-4077
-4310
-4591
-4886
-5200
-5537
-5844
-6061
-6197
-6339
-6546
-6769
-6904
-6923
-6909
-6949
-7014
-6990
-6822
-6582
-6373
-6211
-6022
-5752
-5424
-5094
-4781
-4469
-4157
-3864
-3594
-3328
-3067
-2868
-2794
-2815
-2824
-2766
-2712
-2777
-2980
-3216
-3376
-3474
-3591
-3757
-3894
-3912
-3831
-3750
-3732
-3730
-3647
-3464
-3269
-3173
-3187
-3220
-3187
-3093
-3007
-2978
-2979
-2968
-2934
-2901
-2867
-2783
-2639
-2504
-2466
-2508
-2514
-2404
-2240
-2163
-2204
-2253
-2190
-2052
-1973
-2006
-2036
-1907
-1631
-1386
-1310
-1346
-1301
-1063
-714
-427
-284
-208
-64
208
552
860
1081
1251
1469
1775
2091
2285
2305
2252
2247
2278
2195
1921
1576
1368
1324
1254
998
619
340
274
306
251
62
-148
-259
-258
-173
-10
208
396
457
405
376
468
606
616
426
165
29
68
162
174
95
38
91
234
362
396
336
240
158
114
80
5
-127
-261
-314
-260
-164
-103
-77
-33
41
72
10
-86
-101
-3
104
111
49
43
163
328
395
333
227
164
130
49
-116
-295
-401
-431
-467
-572
-704
-755
-670
-498
-345
-267
-223
-154
-47
40
55
14
-29
-46
-46
-50
-42
10
107
218
310
381
464
574
699
817
909
974
1027
1090
1191
1346
1525
1662
1714
1702
1698
1772
1927
2105
2223
2244
2208
2184
2220
2299
2348
2319
2231
2157
2137
2139
2092
1970
1790
1585
1360
1113
863
650
498
392
315
282
323
431
558
671
806
1010
1263
1476
1592
1670
1816
2052
2284
2430
2550
2761
3100
3461
3724
3890
4067
4319
4600
4828
4967
5043
5073
5091
5143
5259
5397
5453
5367
5188
5031
4949
4873
4698
4384
3969
3518
3073
2654
2269
1892
1476
991
476
18
-322
-567
-782
-1004
-1217
-1386
-1511
-1611
-1686
-1718
-1713
-1714
-1751
-1804
-1808
-1733
-1614
-1522
-1487
-1464
-1367
-1147
-832
-498
-198
80
393
787
1244
1711
2150
2551
2945
3357
3780
4171
4473
4650
4717
4708
4665
4613
4579
4586
4628
4638
4545
4362
4192
4130
4159
4149
3985
3699
3439
3335
3383
3458
3445
3321
3151
3006
2897
2782
2612
2373
2071
1747
1457
1234
1066
911
742
573
433
316
193
59
-58
-137
-216
-348
-518
-644
-679
-671
-713
-820
-898
-854
-699
-531
-444
-434
-415
-330
-204
-102
-56
-33
6
47
37
-38
-124
-164
-174
-233
-369
-507
-544
-473
-378
-345
-353
-321
-212
-55
99
235
389
588
812
1022
1203
1375
1571
1787
1964
2064
2100
2129
2186
2244
2255
2202
2118
2028
1926
1809
1692
1576
1414
1147
800
479
258
88
-141
-468
-817
-1096
-1296
-1493
-1745
-2037
-2317
-2566
-2791
-3005
-3205
-3377
-3503
-3583
-3635
-3688
-3752
-3801
-3816
-3816
-3833
-3847
-3812
-3723
-3667
-3716
-3805
-3776
-3579
-3380
-3384
-3575
-3719
-3631
-3402
-3271
-3331
-3430
-3384
-3207
-3038
-2953
-2888
-2761
-2582
-2419
-2278
-2114
-1915
-1714
-1522
-1317
-1085
-858
-665
-472
-222
85
391
673
958
1277
1593
1847
2055
2298
2600
2894
3104
3264
3474
3773
4070
4259
4349
4435
4569
4690
4735
4747
4838
5029
5204
5247
5204
5254
5487
5755
5812
5588
5269
5107
5152
5223
5126
4844
4523
4301
4186
4093
3960
3783
3605
3496
3503
3639
3885
4223
4661
5211
5841
6473
7051
7608
8186
8722
9055
9057
8749
8266
7701
7039
6222
5250
4175
3022
1791
531
-621
-1544
-2238
-2819
-3364
-3825
-4087
-4099
-3920
-3671
-3430
-3215
-3019
-2824
-2618
-2388
-2128
-1876
-1699
-1657
-1759
-1980
-2314
-2797
-3460
-4248
-5019
-5622
-5992
-6149
-6142
-5983
-5689
-5340
-5085
-5059
-5300
-5746
-6298
-6878
-7445
-7967
-8397
-8681
-8796
-8768
-8646
-8459
-8205
-7884
-7554
-7290
-7112
-6951
-6712
-6378
-6024
-5712
-5423
-5111
-4779
-4459
-4146
-3768
-3258
-2649
-2031
-1440
-827
-148
554
1183
1696
2129
2525
2876
3163
3415
3682
3948
4122
4154
4095
4041
4003
3894
3642
3261
2817
2336
1787
1146
441
-301
-1095
-1959
-2862
-3719
-4482
-5194
-5936
-6717
-7431
-7953
-8266
-8473
-8682
-8896
-9018
-8963
-8752
-8474
-8201
-7927
-7599
-7182
-6687
-6145
-5589
-5039
-4502
-3978
-3466
-2982
-2536
-2121
-1713
-1294
-888
-527
-196
169
626
1172
1747
2300
2822
3338
3859
4368
4843
5283
5712
6173
6679
7200
7677
8097
8505
8952
9418
9820
10093
10268
10416
10572
10698
10754
10753
10755
10797
10874
10943
10972
10939
10856
10771
10733
10733
10686
10505
10211
9930
9760
9661
9494
9181
8785
8439
8207
8033
7836
7613
7430
7323
7243
7120
6946
6807
6782
6847
6878
6785
6595
6418
6333
6320
6287
6168
5988
5829
5757
5779
5851
5928
5992
6049
6104
6150
6190
6251
6359
6513
6685
6849
7013
7209
7446
7673
7794
7736
7516
7209
6875
6510
6058
5212
4920
4661
4286
3762
3233
2875
2698
2533
2236
1854
1570
1516
1656
1870
2081
2295
2522
2734
2886
2974
3044
3132
3207
3210
3131
3042
3040
3161
3359
3560
3729
3884
4029
4148
4224
4252
4237
4165
4018
3813
3607
3452
3351
3254
3117
2935
2746
2577
2387
2101
1688
1215
802
501
239
-99
-521
-915
-1183
-1355
-1542
-1802
-2084
-2321
-2525
-2760
-3038
-3315
-3579
-3872
-4226
-4606
-4941
-5216
-5478
-5754
-6027
-6265
-6472
-6648
-6732
-6656
-6432
-6159
-5900
-5582
-5098
-4453
-3778
-3171
-2571
-1861
-1029
-182
605
1381
2219
3070
3794
4308
4675
5004
5312
5520
5565
5469
5296
5051
4683
4142
3422
2545
1525
373
-871
-2122
-3303
-4389
-5393
-6337
-7217
-8045
-8875
-9759
-10690
-11591
-12384
-13088
-13781
-14475
-15060
-15397
-15476
-15466
-15576
-15867
-16230
-16525
-16690
-16724
-16593
-16204
-15479
-14431
-13138
-11674
-10074
-8390
-6742
-5286
-4103
-3142
-2274
-1397
-481
470
1474
2555
3692
4827
5911
6936
7908
8781
9486
9990
10325
10537
10641
10631
10528
10385
10198
9879
9339
8606
7821
7101
6422
5665
4765
3776
2790
1808
745
-458
-1778
-3162
-4609
-6158
-7807
-9481
-11078
-12531
-13809
-14882
-15704
-16245
-16512
-16545
-16396
-16126
-15810
-15516
-15275
-15080
-14921
-14791
-14666
-14488
-14182
-13723
-13161
-12573
-11977
-11327
-10559
-9690
-8817
-8045
-7373
-6703
-5957
-5189
-4536
-4079
-3757
-3452
-3143
-2919
-2828
-2779
-2638
-2410
-2250
-2269
-2386
-2415
-2300
-2183
-2218
-2380
-2502
-2482
-2382
-2313
-2288
-2254
-2209
-2227
-2356
-2541
-2686
-2775
-2872
-3007
-3122
-3141
-3054
-2906
-2735
-2556
-2397
-2303
-2273
-2236
-2118
-1941
-1817
-1819
-1880
-1850
-1675
-1455
-1342
-1370
-1416
-1345
-1163
-1010
-1006
-1117
-1197
-1145
-1004
-898
-894
-946
-966
-921
-845
-779
-724
-644
-506
-315
-109
71
205
289
322
301
226
119
15
-80
-191
-336
-491
-580
-558
-464
-392
-388
-402
-360
-257
-176
-194
-286
-349
-315
-236
-222
-302
-391
-399
-349
-350
-456
-598
-673
-670
-667
-726
-814
-869
-892
-920
-951
-924
-822
-722
-725
-843
-990
-1071
-1074
-1044
-1025
-1024
-1019
-974
-869
-713
-568
-500
-526
-610
-701
-778
-833
-853
-819
-749
-679
-612
-519
-401
-297
-227
-168
-93
-37
-65
-168
-240
-180
-12
162
275
347
432
531
634
749
895
1041
1125
1144
1170
1261
1397
1520
1622
1744
1896
2040
2150
2285
2514
2824
3122
3345
3525
3741
4017
4312
4601
4892
5179
5415
5559
5637
5707
5795
5851
5833
5769
5715
5687
5646
5560
5452
5344
5199
4949
4593
4220
3909
3636
3312
2907
2505
2218
2065
1962
1826
1658
1523
1456
1430
1398
1355
1309
1249
1135
960
785
685
685
741
803
868
957
1065
1168
1242
1279
1249
1098
830
542
337
196
1
-311
-630
-776
-702
-548
-472
-476
-434
-258
2
240
423
590
778
985
1204
1446
1699
1919
2084
2252
2532
2978
3504
3957
4240
4362
4401
4410
4390
4325
4214
4066
3894
3726
3604
3557
3562
3536
3405
3172
2915
2699
2509
2274
1949
1567
1182
796
363
-137
-664
-1169
-1680
-2283
-3011
-3772
-4409
-4872
-5265
-5707
-6185
-6581
-6835
-7054
-7376
-7804
-8191
-8420
-8542
-8697
-8948
-9196
-9308
-9256
-9112
-8941
-8728
-8421
-8022
-7590
-7189
-6834
-6500
-6170
-5855
-5586
-5370
-5165
-4916
-4606
-4276
-3972
-3703
-3450
-3199
-2958
-2741
-2525
-2302
-2101
-1957
-1859
-1738
-1551
-1357
-1246
-1250
-1310
-1344
-1328
-1301
-1307
-1342
-1374
-1380
-1361
-1335
-1321
-1331
-1378
-1456
-1551
-1624
-1634
-1583
-1528
-1538
-1625
-1718
-1725
-1624
-1490
-1421
-1428
-1444
-1391
-1252
-1078
-923
-806
-720
-651
-584
-496
-366
-211
-96
-64
-81
-63
40
179
272
313
379
528
721
881
1004
1169
1430
1741
2010
2220
2439
2724
3047
3334
3559
3767
3994
4223
4414
4553
4668
4797
4950
5121
5307
5507
5726
5960
6188
6393
6586
6809
7086
7362
7536
7551
7482
7467
7563
7669
7632
7437
7229
7156
7199
7196
7022
6732
6491
6375
6309
6198
6043
5912
5834
5778
5756
5865
6149
6486
6688
6733
6805
7035
7293
7301
6971
6535
6253
6112
5889
5479
5028
4693
4412
3979
3357
2761
2387
2185
1950
1594
1250
1087
1110
1199
1290
1420
1606
1778
1853
1846
1869
1983
2122
2175
2109
2012
1958
1918
1800
1554
1212
838
453
40
-385
-789
-1164
-1552
-1991
-2468
-2912
-3275
-3563
-3793
-3968
-4090
-4181
-4275
-4377
-4473
-4575
-4714
-4887
-5026
-5055
-4974
-4846
-4711
-4544
-4304
-4006
-3710
-3452
-3226
-3029
-2904
-2879
-2891
-2833
-2672
-2473
-2303
-2133
-1892
-1592
-1349
-1249
-1239
-1210
-1160
-1227
-1510
-1918
-2237
-2356
-2371
-2467
-2704
-2984
-3169
-3238
-3288
-3415
-3636
-3896
-4137
-4324
-4441
-4479
-4432
-4291
-4040
-3673
-3199
-2637
-1976
-1174
-218
823
1849
2829
3829
4918
6060
7135
8069
8914
9780
10681
11523
12217
12797
13391
14067
14756
15308
15645
15826
15992
16224
16481
16637
16609
16438
16266
16205
16215
16124
15794
15250
14637
14045
13397
12515
11330
9959
8574
7211
5755
4119
2365
655
-933
-2475
-4065
-5673
-7165
-8463
-9618
-10722
-11779
-12716
-13478
-14096
-14619
-15035
-15295
-15391
-15378
-15305
-15145
-14843
-14404
-13909
-13444
-12994
-12467
-11809
-11084
-10405
-9792
-9162
-8458
-7718
-7031
-6421
-5840
-5251
-4706
-4257
-3881
-3516
-3184
-2989
-2978
-3052
-3065
-3005
-3009
-3181
-3443
-3623
-3664
-3668
-3752
-3908
-4050
-4148
-4238
-4342
-4406
-4365
-4254
-4190
-4240
-4334
-4332
-4186
-3980
-3853
-3874
-3963
-3975
-3861
-3719
-3703
-3868
-4113
-4309
-4420
-4505
-4604
-4685
-4718
-4754
-4893
-5136
-5343
-5375
-5264
-5190
-5277
-5429
-5429
-5176
-4785
-4441
-4208
-4015
-3816
-3664
-3616
-3636
-3632
-3571
-3531
-3577
-3637
-3576
-3359
-3105
-2965
-2959
-2973
-2896
-2731
-2554
-2418
-2314
-2212
-2114
-2053
-2026
-2009
-1998
-2007
-2037
-2058
-2033
-1947
-1825
-1687
-1524
-1318
-1087
-885
-748
-654
-581
-535
-541
-577
-591
-566
-557
-601
-637
-560
-381
-241
-254
-345
-332
-151
63
149
123
140
268
410
465
504
685
1021
1320
1391
1267
1190
1338
1653
1917
1981
1882
1759
1736
1844
2012
2127
2115
2024
1979
2053
2192
2280
2265
2216
2203
2210
2177
2109
2086
2142
2186
2098
1890
1723
1717
1804
1812
1657
1459
1393
1490
1602
1583
1474
1445
1601
1857
2039
2080
2071
2127
2241
2301
2233
2093
1993
1960
1923
1823
1706
1677
1793
2000
2205
2356
2459
2554
2691
2911
3230
3603
3947
4237
4533
4924
5407
5848
6117
6193
6162
6110
6026
5834
5483
4987
4396
3726
2970
2128
1212
233
-788
-1793
-2673
-3318
-3711
-3921
-4028
-4058
-3979
-3797
-3591
-3456
-3420
-3409
-3334
-3182
-3032
-2969
-3023
-3160
-3361
-3666
-4138
-4797
-5553
-6255
-6802
-7188
-7464
-7635
-7646
-7469
-7160
-6835
-6542
-6244
-5937
-5730
-5739
-5901
-5974
-5755
-5285
-4806
-4483
-4240
-3871
-3291
-2609
-2011
-1574
-1221
-841
-389
84
494
799
1047
1327
1692
2108
2499
2842
3191
3568
3900
4076
4090
4088
4215
4468
4728
4925
5137
5495
6016
6589
7089
7486
7818
8103
8300
8354
8252
8019
7672
7222
6688
6102
5502
4915
4333
3713
3013
2234
1442
720
83
-546
-1254
-2045
-2829
-3514
-4081
-4580
-5044
-5459
-5779
-5982
-6076
-6080
-6018
-5920
-5830
-5774
-5743
-5699
-5599
-5431
-5215
-4991
-4792
-4611
-4416
-4180
-3899
-3592
-3302
-3081
-2958
-2909
-2858
-2735
-2558
-2405
-2312
-2209
-1986
-1624
-1230
-928
-726
-529
-265
36
282
436
555
710
908
1102
1269
1441
1656
1883
2060
2188
2368
2694
3127
3517
3765
3933
4163
4501
4851
5108
5279
5441
5622
5779
5890
6021
6242
6510
6706
6777
6808
6911
7084
7214
7210
7098
6976
6904
6859
6793
6683
6537
6382
6257
6185
6162
6174
6224
6364
6637
7017
7427
7832
8292
8886
9589
10251
10747
11119
11517
12028
12562
12953
13139
13234
13400
13689
14002
14197
14227
14168
14139
14198
14297
14350
14305
14194
14081
13994
13893
13720
13468
13193
12947
12719
12438
12081
11722
11468
11337
11213
10962
10575
10185
9913
9730
9504
9158
8767
8479
8357
8342
8349
8372
8470
8689
8999
9317
9580
9770
9911
10046
10207
10366
10438
10344
10096
9793
9550
9403
9275
9056
8715
8316
7955
7676
7435
7132
6694
6112
5433
4723
4038
3395
2769
2126
1464
817
201
-427
-1116
-1862
-2617
-3359
-4128
-4945
-5723
-6325
-6738
-7125
-7640
-8220
-8631
-8727
-8617
-8524
-8512
-8403
-7971
-7179
-6194
-5185
-4185
-3116
-1926
-678
486
1481
2335
3145
3967
4766
5475
6080
6636
7199
7751
8224
8588
8877
9122
9298
9338
9207
8920
8480
7846
6968
5865
4640
3398
2165
889
-466
-1838
-3126
-4302
-5451
-6685
-8012
-9326
-10505
-11539
-12505
-13457
-14345
-15067
-15578
-15927
-16202
-16459
-16704
-16914
-17055
-17085
-16945
-16583
-15975
-15135
-14094
-12879
-11508
-10017
-8485
-7026
-5731
-4617
-3639
-2747
-1937
-1223
-572
108
895
1767
2661
3578
4601
5788
7066
8280
9347
10330
11314
12259
13024
13528
13862
14190
14557
14866
15018
15030
14987
14912
14742
14421
13977
13474
12926
12298
11576
10808
10057
9322
8539
7618
6515
5233
3821
2342
833
-718
-2333
-3985
-5593
-7088
-8469
-9792
-11102
-12391
-13635
-14829
-15962
-16997
-17885
-18605
-19174
-19598
-19841
-19861
-19657
-19262
-18696
-17966
-17104
-16170
-15226
-14269
-13277
-12271
-11323
-10477
-9680
-8854
-7989
-7179
-6508
-5942
-5374
-4741
-4096
-3529
-3067
-2652
-2222
-1769
-1327
-921
-549
-213
55
215
252
197
104
8
-106
-266
-459
-625
-695
-659
-572
-493
-431
-354
-238
-84
82
228
321
328
255
145
43
-51
-177
-354
-553
-728
-869
-995
-1120
-1233
-1322
-1406
-1517
-1660
-1814
-1988
-2214
-2493
-2744
-2860
-2810
-2698
-2656
-2712
-2755
-2688
-2578
-2606
-2888
-3354
-3855
-4331
-4835
-5403
-5954
-6405
-6809
-7308
-7944
-8569
-9015
-9292
-9573
-9958
-10334
-10492
-10343
-9992
-9588
-9187
-8778
-8384
-8076
-7908
-7862
-7877
-7921
-7992
-8066
-8085
-7996
-7799
-7543
-7273
-7005
-6741
-6506
-6347
-6285
-6293
-6302
-6261
-6177
-6098
-6075
-6108
-6151
-6154
-6104
-6047
-6030
-6046
-6017
-5882
-5680
-5520
-5467
-5455
-5360
-5152
-4940
-4840
-4836
-4812
-4698
-4550
-4448
-4367
-4216
-3973
-3736
-3608
-3551
-3429
-3180
-2892
-2711
-2675
-2668
-2546
-2288
-1999
-1802
-1706
-1601
-1390
-1103
-876
-791
-797
-765
-625
-451
-350
-345
-353
-274
-82
154
353
481
556
634
773
1000
1292
1594
1867
2147
2522
3049
3656
4184
4534
4783
5080
5483
5878
6100
6131
6123
6221
6408
6532
6494
6320
6105
5887
5633
5320
4966
4609
4279
3999
3795
3682
3639
3635
3666
3760
3930
4152
4381
4582
4761
4937
5127
5322
5504
5663
5827
6028
6281
6545
6774
6984
7254
7632
8068
8448
8720
8947
9225
9569
9885
10071
10119
10108
10115
10151
10186
10196
10175
10141
10123
10158
10283
10516
10848
11251
11694
12149
12613
13103
13640
14216
14771
15235
15590
15881
16177
16516
16903
17310
17701
18050
18349
18610
18837
19011
19090
19046
18894
18651
18335
17980
17639
17354
17076
16675
16057
15265
14423
13568
12587
11349
9878
8357
6960
5673
4329
2793
1082
-659
-2292
-3804
-5306
-6920
-8647
-10345
-11857
-13167
-14420
-15751
-17141
-18466
-19648
-20714
-21695
-22540
-23186
-23699
-24232
-24840
-25383
-25681
-25720
-25662
-25631
-25554
-25254
-24657
-23873
-23049
-22213
-21303
-20293
-19277
-18394
-17679
-17017
-16263
-15375
-14439
-13549
-12690
-11763
-10713
-9614
-8614
-7790
-7114
-6531
-6037
-5658
-5353
-5040
-4723
-4531
-4583
-4807
-4955
-4855
-4604
-4465
-4552
-4691
-4619
-4306
-3977
-3850
-3895
-3899
-3746
-3530
-3404
-3381
-3343
-3224
-3100
-3073
-3130
-3160
-3102
-3018
-3005
-3056
-3087
-3037
-2926
-2799
-2663
-2496
-2302
-2111
-1946
-1817
-1710
-1611
-1505
-1375
-1206
-1025
-873
-759
-644
-483
-287
-123
-38
18
151
418
751
1031
1221
1393
1625
1888
2095
2217
2307
2431
2571
2656
2670
2684
2757
2866
2924
2889
2812
2774
2812
2887
2933
2908
2808
2670
2556
2500
2481
2428
2290
2098
1931
1865
1912
2014
2088
2093
2053
2047
2128
2283
2438
2526
2551
2590
2700
2863
3016
3104
3143
3199
3316
3468
3586
3640
3657
3676
3704
3722
3720
3725
3751
3782
3785
3760
3748
3786
3829
3784
3607
3366
3182
3095
3017
2836
2538
2236
2025
1875
1687
1415
1116
866
663
445
196
-30
-186
-322
-521
-799
-1088
-1312
-1480
-1663
-1867
-2013
-2040
-1990
-1965
-1979
-1943
-1775
-1506
-1259
-1118
-1051
-949
-746
-487
-308
-306
-442
-567
-579
-537
-584
-748
-872
-794
-549
-355
-332
-358
-220
112
447
612
643
718
939
1238
1469
1553
1513
1436
1384
1346
1257
1080
877
745
696
599
328
-59
-377
-511
-559
-685
-905
-1053
-971
-677
-308
30
356
740
1197
1669
2084
2422
2722
3049
3435
3867
4313
4756
5213
5698
6202
6683
7097
7408
7597
7684
7733
7788
7833
7783
7591
7299
7015
6789
6550
6199
5711
5165
4642
4145
3624
3060
2500
2001
1558
1133
694
254
-167
-565
-968
-1391
-1815
-2205
-2509
-2706
-2806
-2863
-2915
-2941
-2881
-2713
-2497
-2319
-2209
-2137
-2073
-2013
-1960
-1906
-1855
-1849
-1898
-1919
-1799
-1526
-1219
-998
-846
-639
-310
73
412
699
992
1320
1653
1977
2328
2713
3073
3330
3492
3630
3783
3905
3951
3945
3946
3961
3927
3822
3704
3631
3574
3448
3214
2927
2665
2441
2206
1923
1618
1344
1119
909
653
329
-15
-299
-494
-670
-930
-1297
-1662
-1888
-1946
-1945
-2025
-2201
-2352
-2365
-2244
-2107
-2057
-2095
-2150
-2162
-2140
-2140
-2202
-2310
-2411
-2469
-2513
-2591
-2714
-2836
-2905
-2926
-2965
-3071
-3211
-3310
-3343
-3366
-3464
-3647
-3842
-3962
-4000
-4019
-4068
-4125
-4134
-4074
-3985
-3915
-3865
-3802
-3713
-3630
-3580
-3549
-3484
-3369
-3222
-3073
-2923
-2754
-2564
-2376
-2215
-2085
-1961
-1821
-1662
-1513
-1396
-1290
-1136
-881
-550
-233
-6
154
334
581
862
1098
1262
1370
1444
1504
1582
1736
1968
2191
2306
2336
2427
2711
3155
3600
3947
4257
4657
5162
5632
5895
5907
5761
5570
5356
5088
4782
4499
4285
4095
3832
3466
3079
2788
2608
2416
2094
1683
1359
1279
1432
1657
1826
1946
2093
2293
2488
2615
2692
2780
2892
2992
3045
3077
3146
3267
3398
3480
3477
3391
3265
3155
3093
3058
2998
2898
2804
2758
2728
2623
2431
2266
2262
2382
2429
2268
1990
1813
1826
1892
1817
1577
1325
1182
1111
1035
975
1022
1161
1255
1216
1167
1309
1667
2024
2151
2088
2086
2335
2758
3118
3292
3375
3549
3871
4219
4422
4407
4237
4022
3830
3683
3594
3586
3663
3788
3938
4157
4511
4959
5335
5487
5427
5322
5306
5347
5316
5174
5005
4879
4749
4522
4206
3897
3667
3478
3263
3039
2912
2974
3215
3552
3898
4217
4524
4867
5271
5692
6016
6158
6154
6107
6055
5892
5471
4787
3990
3212
2422
1513
484
-486
-1193
-1587
-1790
-1930
-2031
-2058
-2025
-2010
-2089
-2299
-2639
-3083
-3561
-3982
-4293
-4545
-4837
-5194
-5523
-5707
-5741
-5730
-5767
-5840
-5863
-5782
-5614
-5399
-5132
-4772
-4312
-3796
-3281
-2778
-2262
-1703
-1107
-507
64
604
1130
1660
2192
2696
3116
3407
3580
3697
3824
3968
4080
4101
4035
3944
3867
3762
3546
3207
2808
2422
2038
1569
975
331
-241
-695
-1114
-1588
-2119
-2608
-2978
-3254
-3544
-3911
-4302
-4598
-4742
-4784
-4802
-4821
-4797
-4671
-4429
-4088
-3658
-3147
-2590
-2018
-1415
-732
23
739
1287
1660
1958
2276
2602
2886
3139
3404
3650
3761
3692
3569
3563
3691
3790
3728
3578
3537
3697
3960
4175
4298
4380
4442
4444
4362
4245
4159
4103
4013
3856
3684
3573
3517
3437
3269
3023
2746
2452
2126
1790
1514
1344
1227
1073
869
713
694
780
841
826
822
945
1185
1406
1498
1508
1578
1804
2158
2557
2955
3377
3861
4425
5041
5667
6270
6843
7411
8016
8681
9388
10099
10790
11460
12102
12685
13169
13535
13799
13996
14165
14330
14486
14610
14682
14704
14691
14648
14547
14353
14073
13759
13452
13147
12829
12506
12207
11911
11520
10919
10089
9132
8174
7259
6326
5308
4228
3176
2233
1422
723
132
-365
-824
-1323
-1872
-2374
-2704
-2821
-2811
-2800
-2842
-2907
-2929
-2878
-2776
-2685
-2687
-2818
-3007
-3108
-3030
-2828
-2655
-2599
-2591
-2503
-2289
-2029
-1825
-1693
-1583
-1457
-1330
-1247
-1211
-1183
-1111
-973
-799
-626
-451
-231
60
388
688
936
1187
1522
1968
2492
3059
3689
4423
5268
6180
7121
8080
9063
10046
11003
11945
12932
14049
15325
16729
18206
19703
21196
22658
24047
25319
26437
27380
28158
28804
29352
29829
30226
30494
30547
30312
29764
28932
27859
26558
25046
23395
21721
20094
18468
16728
14816
12795
10778
8792
6735
4465
1956
-662
-3200
-5571
-7845
-10149
-12496
-14775
-16857
-18746
-20558
-22367
-24109
-25664
-27005
-28226
-29430
-30618
-31681
-32475
32630
32577
-32702
-32235
-31601
-30742
-29578
-28125
-26528
-24965
-23528
-22220
-21033
-19934
-18807
-17461
-15802
-13951
-12146
-10491
-8859
-7070
-5122
-3223
-1557
-153
1091
2250
3325
4331
5334
6378
7391
8252
8940
9576
10288
11062
11751
12214
12437
12488
12411
12189
11780
11166
10375
9449
8428
7345
6216
5047
3862
2693
1554
413
-789
-2105
-3561
-5150
-6846
-8626
-10479
-12393
-14308
-16111
-17706
-19082
-20273
-21222
-21771
-21822
-21510
-21110
-20759
-20315
-19546
-18469
-17368
-16498
-15824
-15101
-14177
-13147
-12192
-11364
-10579
-9776
-8985
-8260
-7573
-6853
-6090
-5352
-4706
-4132
-3546
-2902
-2223
-1576
-1015
-555
-169
175
495
782
993
1087
1071
1003
929
837
671
400
62
-271
-573
-868
-1183
-1501
-1787
-2044
-2319
-2648
-3006
-3329
-3585
-3797
-4012
-4235
-4422
-4523
-4521
-4433
-4289
-4111
-3909
-3688
-3452
-3210
-2960
-2696
-2410
-2100
-1782
-1488
-1243
-1047
-875
-717
-594
-543
-575
-650
-715
-742
-748
-768
-824
-908
-1001
-1096
-1191
-1299
-1440
-1620
-1832
-2056
-2283
-2525
-2808
-3150
-3551
-3994
-4435
-4833
-5191
-5549
-5927
-6260
-6424
-6371
-6201
-6078
-6058
-6037
-5897
-5673
-5514
-5488
-5483
-5333
-5030
-4725
-4533
-4374
-4075
-3606
-3133
-2844
-2725
-2576
-2240
-1763
-1316
-981
-677
-292
177
638
1044
1423
1782
2051
2145
2104
2079
2171
2307
2311
2111
1826
1648
1658
1755
1766
1623
1422
1329
1440
1696
1944
2063
2053
2001
1981
2019
2078
2092
1975
1679
1260
880
680
647
613
443
180
7
52
251
441
514
506
531
683
967
1299
1578
1787
2000
2317
2730
3092
3292
3379
3499
3710
3914
4014
4042
4126
4318
4519
4638
4705
4814
4968
5059
5011
4884
4797
4792
4791
4708
4539
4348
4183
4030
3830
3533
3126
2647
2167
1728
1303
813
240
-339
-825
-1200
-1571
-2039
-2576
-3057
-3433
-3811
-4323
-4968
-5618
-6167
-6656
-7189
-7784
-8361
-8864
-9329
-9797
-10219
-10501
-10627
-10670
-10686
-10629
-10423
-10068
-9647
-9227
-8811
-8374
-7936
-7526
-7133
-6724
-6277
-5801
-5295
-4737
-4131
-3529
-2979
-2474
-1984
-1524
-1174
-976
-850
-658
-318
142
640
1121
1576
2003
2392
2730
3019
3253
3407
3485
3534
3636
3847
4136
4397
4552
4613
4662
4745
4805
4761
4596
4388
4220
4089
3940
3754
3567
3401
3211
2944
2612
2279
1982
1697
1412
1189
1097
1093
1047
880
648
466
351
208
-32
-321
-543
-636
-632
-575
-462
-300
-148
-71
-64
-62
-31
-40
-191
-480
-787
-990
-1089
-1184
-1323
-1434
-1421
-1285
-1130
-1047
-996
-860
-610
-366
-271
-328
-394
-343
-242
-276
-514
-798
-921
-874
-862
-1065
-1416
-1711
-1856
-1966
-2210
-2608
-3015
-3313
-3524
-3728
-3959
-4165
-4303
-4421
-4608
-4887
-5173
-5350
-5383
-5360
-5384
-5478
-5552
-5489
-5247
-4860
-4404
-3927
-3484
-3086
-2686
-2215
-1682
-1210
-948
-908
-932
-852
-654
-448
-320
-248
-190
-162
-186
-207
-138
23
171
204
165
218
480
900
1327
1655
1902
2152
2456
2787
3089
3346
3570
3784
3982
4168
4365
4607
4887
5142
5298
5367
5443
5605
5829
6011
6075
6055
6066
6168
6308
6373
6318
6224
6217
6349
6540
6661
6652
6573
6539
6591
6665
6677
6606
6499
6411
6344
6267
6176
6083
5996
5913
5833
5775
5756
5742
5690
5595
5510
5494
5554
5620
5626
5583
5575
5688
5898
6087
6163
6163
6223
6397
6575
6601
6467
6350
6413
6616
6786
6828
6825
6906
7071
7185
7144
6972
6758
6538
6256
5877
5430
4969
4527
4081
3589
3051
2503
1984
1507
1054
586
75
-464
-965
-1346
-1596
-1800
-2077
-2454
-2835
-3094
-3220
-3334
-3539
-3793
-3954
-3943
-3822
-3702
-3621
-3520
-3343
-3104
-2835
-2544
-2214
-1849
-1476
-1095
-699
-296
80
404
692
970
1224
1401
1477
1500
1545
1627
1671
1595
1415
1235
1162
1198
1233
1180
1078
1072
1250
1563
1878
2147
2451
2891
3460
4060
4644
5276
6025
6841
7603
8267
8922
9657
10435
11134
11693
12158
12602
13039
13437
13800
14150
14470
14698
14799
14797
14735
14603
14329
13839
13133
12283
11368
10425
9432
8343
7157
5929
4745
3633
2552
1429
250
-932
-2063
-3098
-4013
-4805
-5486
-6063
-6492
-6709
-6700
-6576
-6486
-6469
-6422
-6248
-6013
-5885
-5945
-6111
-6247
-6316
-6369
-6409
-6371
-6235
-6114
-6138
-6293
-6420
-6373
-6179
-5993
-5927
-5941
-5885
-5621
-5127
-4516
-3948
-3530
-3230
-2927
-2545
-2152
-1864
-1694
-1524
-1245
-878
-529
-244
49
419
806
1050
1062
916
777
735
736
680
543
405
358
409
493
532
524
523
570
650
716
746
750
744
727
700
673
660
647
593
461
265
53
-129
-266
-394
-555
-771
-1034
-1327
-1639
-1965
-2297
-2642
-3020
-3439
-3878
-4284
-4625
-4918
-5215
-5544
-5871
-6151
-6386
-6603
-6800
-6938
-6994
-7002
-7026
-7077
-7094
-7019
-6870
-6727
-6635
-6574
-6502
-6397
-6259
-6089
-5877
-5650
-5468
-5366
-5303
-5213
-5088
-4989
-4977
-5035
-5093
-5100
-5075
-5074
-5121
-5197
-5267
-5313
-5340
-5355
-5372
-5400
-5424
-5412
-5360
-5316
-5335
-5398
-5424
-5349
-5204
-5090
-5048
-5000
-4849
-4601
-4359
-4202
-4080
-3886
-3606
-3333
-3154
-3030
-2841
-2542
-2232
-2025
-1933
-1844
-1667
-1429
-1244
-1176
-1182
-1169
-1094
-991
-930
-950
-1041
-1170
-1295
-1394
-1475
-1557
-1644
-1699
-1662
-1517
-1349
-1265
-1284
-1312
-1251
-1146
-1151
-1328
-1556
-1648
-1573
-1489
-1522
-1597
-1541
-1324
-1107
-1027
-1001
-838
-503
-196
-110
-205
-250
-100
165
363
418
402
415
491
614
772
938
1051
1062
1016
1019
1114
1232
1274
1237
1202
1216
1252
1296
1421
1700
2064
2338
2450
2550
2830
3255
3553
3527
3276
3059
2999
2993
2889
2692
2490
2286
2021
1704
1457
1358
1325
1221
1046
948
1059
1377
1815
2293
2750
3106
3345
3588
4010
4622
5209
5538
5632
5757
6131
6699
7198
7434
7416
7283
7120
6886
6494
5892
5113
4235
3317
2376
1432
531
-277
-1007
-1726
-2493
-3282
-4026
-4709
-5410
-6236
-7210
-8235
-9166
-9899
-10429
-10815
-11109
-11295
-11299
-11094
-10772
-10474
-10251
-10043
-9780
-9475
-9191
-8927
-8613
-8213
-7789
-7396
-6993
-6497
-5918
-5368
-4917
-4511
-4075
-3654
-3383
-3304
-3315
-3303
-3290
-3374
-3556
-3723
-3792
-3810
-3861
-3940
-3970
-3941
-3945
-4067
-4261
-4399
-4432
-4433
-4464
-4462
-4299
-3919
-3415
-2928
-2503
-2073
-1581
-1078
-681
-446
-305
-135
102
341
494
555
606
741
966
1205
1375
1466
1553
1717
1968
2226
2389
2428
2427
2497
2659
2820
2868
2796
2704
2686
2719
2692
2526
2246
1943
1668
1418
1188
1015
944
978
1067
1189
1382
1674
2013
2282
2420
2496
2630
2875
3187
3511
3861
4274
4734
5184
5605
6051
6569
7120
7617
8042
8475
9004
9610
10182
10646
11043
11442
11826
12089
12178
12175
12219
12347
12447
12404
12251
12130
12127
12174
12136
11966
11741
11536
11342
11110
10834
10559
10291
9958
9507
8971
8434
7925
7393
6819
6280
5862
5541
5183
4703
4184
3782
3515
3219
2743
2157
1706
1551
1598
1628
1575
1595
1852
2285
2647
2774
2748
2768
2897
2996
2913
2694
2540
2576
2703
2719
2561
2370
2317
2412
2513
2511
2454
2469
2602
2768
2879
2934
2983
3043
3067
3025
2987
3062
3284
3557
3753
3839
3884
3975
4111
4208
4202
4127
4083
4154
4344
4601
4884
5195
5541
5905
6231
6468
6610
6697
6771
6835
6852
6788
6654
6503
6373
6247
6073
5835
5574
5349
5173
5010
4820
4617
4460
4393
4401
4427
4422
4375
4310
4263
4256
4277
4284
4241
4149
4043
3957
3886
3791
3662
3527
3399
3231
2941
2509
1993
1461
911
301
-351
-938
-1352
-1577
-1666
-1650
-1507
-1226
-863
-490
-141
207
578
986
1460
2023
2640
3202
3619
3895
4082
4181
4100
3747
3127
2352
1556
834
242
-196
-523
-846
-1278
-1863
-2578
-3382
-4255
-5198
-6214
-7309
-8443
-9504
-10339
-10862
-11127
-11278
-11393
-11404
-11184
-10694
-10031
-9350
-8731
-8156
-7576
-7000
-6511
-6192
-6045
-5971
-5839
-5587
-5236
-4815
-4289
-3592
-2707
-1697
-660
331
1236
2029
2706
3323
3975
4706
5465
6152
6724
7218
7671
8031
8194
8091
7742
7232
6626
5945
5214
4507
3929
3525
3230
2936
2620
2377
2295
2307
2228
1938
1512
1128
876
684
443
151
-103
-265
-386
-541
-724
-857
-892
-885
-942
-1113
-1349
-1568
-1734
-1904
-2157
-2510
-2907
-3284
-3631
-4007
-4483
-5092
-5825
-6657
-7554
-8481
-9388
-10225
-10944
-11510
-11906
-12134
-12199
-12089
-11798
-11377
-10934
-10558
-10247
-9940
-9624
-9382
-9299
-9339
-9346
-9179
-8832
-8390
-7901
-7325
-6610
-5784
-4944
-4162
-3430
-2726
-2070
-1506
-1023
-558
-57
481
1032
1608
2234
2866
3395
3755
4012
4283
4573
4753
4723
4554
4427
4431
4475
4425
4284
4178
4206
4348
4530
4738
4996
5285
5507
5569
5458
5223
4892
4439
3841
3122
2344
1579
873
243
-326
-867
-1393
-1881
-2296
-2635
-2918
-3149
-3296
-3339
-3308
-3260
-3209
-3112
-2941
-2742
-2607
-2579
-2609
-2617
-2582
-2556
-2602
-2737
-2943
-3208
-3535
-3928
-4369
-4835
-5323
-5844
-6384
-6889
-7314
-7671
-8027
-8429
-8850
-9227
-9544
-9851
-10181
-10483
-10681
-10776
-10865
-11020
-11183
-11221
-11091
-10898
-10782
-10766
-10758
-10686
-10576
-10499
-10454
-10375
-10221
-10044
-9921
-9859
-9780
-9608
-9371
-9171
-9083
-9083
-9081
-9016
-8927
-8899
-8961
-9055
-9101
-9098
-9116
-9211
-9347
-9441
-9469
-9501
-9609
-9781
-9934
-10000
-9976
-9892
-9775
-9639
-9498
-9357
-9168
-8869
-8459
-8018
-7634
-7306
-6957
-6528
-6053
-5600
-5210
-4868
-4536
-4193
-3844
-3503
-3189
-2910
-2639
-2348
-2036
-1725
-1409
-1037
-572
-52
443
890
1337
1829
2316
2729
3076
3461
3945
4455
4872
5171
5471
5893
6406
6852
7107
7209
7304
7494
7750
7966
8073
8100
8099
8071
7959
7728
7400
7009
6570
6076
5540
5013
4529
4060
3571
3094
2729
2554
2524
2530
2522
2599
2912
3481
4127
4619
4877
5005
5133
5263
5312
5262
5219
5273
5372
5413
5421
5566
5953
6450
6797
6902
6927
7102
7459
7825
8050
8162
8285
8467
8655
8793
8921
9119
9403
9705
9970
10231
10574
11053
11650
12297
12929
13510
14041
14562
15142
15842
16675
17572
18433
19199
19894
20604
21399
22254
23079
23798
24411
24982
25545
26053
26406
26539
26464
26231
25869
25358
24658
23733
22562
21127
19421
17474
15349
13092
10701
8157
5509
2879
369
-2017
-4351
-6674
-8924
-11022
-12955
-14778
-16509
-18109
-19551
-20896
-22200
-23380
-24251
-24711
-24879
-24988
-25144
-25227
-25071
-24671
-24207
-23858
-23633
-23380
-22944
-22300
-21551
-20802
-20040
-19140
-17992
-16629
-15203
-13861
-12636
-11469
-10324
-9246
-8305
-7529
-6877
-6286
-5709
-5147
-4627
-4180
-3804
-3456
-3110
-2784
-2552
-2452
-2444
-2452
-2454
-2502
-2666
-2936
-3251
-3555
-3839
-4112
-4376
-4631
-4920
-5273
-5665
-6019
-6303
-6591
-6985
-7473
-7915
-8166
-8230
-8254
-8355
-8499
-8549
-8440
-8255
-8115
-8050
-7966
-7775
-7500
-7257
-7121
-7045
-6911
-6635
-6265
-5918
-5660
-5438
-5121
-4617
-3977
-3352
-2838
-2400
-1916
-1340
-767
-337
-85
82
265
476
656
785
913
1080
1254
1392
1511
1668
1878
2083
2237
2355
2480
2601
2668
2678
2704
2807
2931
2981
2948
2936
3034
3199
3315
3323
3256
3159
3022
2853
2742
2778
2918
2983
2860
2665
2665
2996
3511
3915
4056
4059
4174
4518
4968
5278
5308
5130
4933
4836
4820
4782
4665
4500
4320
4120
3881
3625
3420
3286
3154
2930
2612
2316
2162
2159
2210
2197
2099
1983
1922
1908
1864
1710
1456
1186
979
853
763
669
570
495
463
445
417
401
463
619
784
868
865
884
1003
1142
1136
931
669
546
590
644
570
391
256
246
303
316
237
95
-67
-238
-432
-630
-782
-872
-939
-1031
-1154
-1240
-1226
-1137
-1070
-1104
-1209
-1280
-1241
-1115
-989
-903
-837
-765
-700
-654
-608
-526
-413
-316
-264
-236
-178
-77
33
132
232
361
522
691
844
990
1143
1305
1471
1623
1720
1709
1588
1454
1444
1583
1727
1709
1534
1404
1496
1748
1907
1824
1613
1498
1534
1561
1414
1145
949
937
1022
1058
1042
1108
1362
1738
2078
2295
2444
2624
2846
3031
3103
3072
3001
2940
2904
2883
2846
2761
2613
2423
2239
2104
1986
1813
1554
1264
1043
935
882
796
643
479
385
396
472
524
502
441
434
511
599
597
510
447
484
562
568
499
459
528
638
659
568
473
470
509
471
320
143
52
47
21
-105
-310
-502
-596
-608
-632
-764
-1007
-1265
-1430
-1497
-1569
-1750
-2035
-2318
-2499
-2574
-2616
-2690
-2803
-2921
-3013
-3068
-3088
-3091
-3090
-3095
-3099
-3098
-3094
-3093
-3073
-2998
-2848
-2674
-2549
-2460
-2325
-2093
-1852
-1756
-1847
-2007
-2107
-2169
-2302
-2513
-2679
-2717
-2735
-2900
-3206
-3446
-3462
-3352
-3356
-3554
-3762
-3741
-3462
-3118
-2877
-2723
-2523
-2221
-1892
-1662
-1560
-1508
-1411
-1256
-1110
-1016
-943
-809
-584
-327
-129
-13
64
141
219
286
349
437
536
599
602
599
670
831
1003
1106
1136
1156
1217
1308
1385
1424
1444
1471
1515
1573
1630
1664
1643
1549
1402
1260
1157
1080
990
885
806
811
913
1071
1248
1427
1601
1763
1925
2121
2362
2597
2736
2775
2820
3011
3363
3743
3993
4080
4110
4229
4496
4847
5165
5365
5470
5598
5852
6219
6583
6845
7012
7155
7313
7458
7563
7665
7795
7913
7953
7909
7876
7955
8140
8324
8404
8350
8211
8071
8008
8053
8172
8289
8349
8374
8439
8601
8850
9104
9269
9295
9218
9114
9029
8942
8796
8578
8358
8216
8165
8161
8176
8235
8354
8504
8638
8751
8884
9042
9140
9068
8777
8300
7685
6906
5904
4669
3296
1934
675
-485
-1593
-2647
-3565
-4271
-4764
-5133
-5465
-5762
-5951
-5983
-5890
-5746
-5574
-5329
-4944
-4428
-3894
-3460
-3183
-3066
-3101
-3266
-3518
-3805
-4119
-4503
-4968
-5410
-5692
-5809
-5931
-6268
-6854
-7543
-8174
-8729
-9288
-9879
-10417
-10787
-10935
-10875
-10635
-10252
-9794
-9345
-8956
-8620
-8314
-8020
-7699
-7317
-6868
-6379
-5877
-5332
-4698
-3995
-3303
-2667
-2036
-1357
-668
-62
459
1005
1649
2303
2805
3102
3306
3537
3792
3993
4122
4227
4297
4213
3885
3396
2971
2760
2709
2645
2466
2245
2137
2213
2407
2558
2525
2272
1878
1457
1071
699
297
-126
-501
-777
-977
-1151
-1273
-1267
-1143
-1064
-1220
-1613
-2035
-2278
-2361
-2496
-2825
-3225
-3440
-3340
-3024
-2658
-2263
-1713
-916
64
1066
2006
2933
3932
5001
6054
7039
7991
8972
9968
10887
11653
12277
12820
13311
13726
14039
14259
14407
14495
14530
14527
14483
14353
14077
13654
13160
12680
12210
11682
11066
10423
9854
9405
9045
8727
8446
8216
8035
7864
7679
7491
7314
7126
6886
6587
6275
5998
5763
5538
5300
5069
4880
4740
4624
4508
4397
4316
4284
4298
4345
4413
4495
4582
4660
4719
4769
4827
4890
4929
4905
4808
4668
4532
4425
4330
4216
4072
3910
3753
3614
3487
3349
3172
2944
2679
2418
2191
1990
1772
1507
1209
911
631
356
63
-241
-526
-778
-1002
-1210
-1395
-1539
-1643
-1728
-1812
-1894
-1963
-2020
-2083
-2162
-2248
-2326
-2408
-2519
-2657
-2780
-2848
-2877
-2931
-3055
-3216
-3329
-3341
-3290
-3251
-3254
-3257
-3206
-3085
-2911
-2685
-2381
-1987
-1532
-1053
-550
24
693
1419
2137
2821
3511
4256
5062
5894
6717
7510
8254
8929
9549
10154
10763
11320
11731
11956
12054
12121
12190
12194
12052
11772
11433
11084
10672
10120
9436
8727
8077
7434
6655
5679
4627
3669
2815
1891
734
-609
-1923
-3049
-4015
-4940
-5848
-6652
-7281
-7751
-8086
-8222
-8049
-7562
-6893
-6169
-5366
-4370
-3130
-1757
-408
854
2067
3274
4439
5501
6442
7299
8100
8818
9393
9801
10083
10291
10435
10458
10267
9804
9093
8220
7258
6184
4903
3336
1513
-462
-2508
-4623
-6838
-9113
-11347
-13457
-15455
-17393
-19248
-20903
-22251
-23305
-24172
-24916
-25490
-25792
-25805
-25635
-25412
-25170
-24838
-24343
-23698
-22990
-22285
-21584
-20843
-20036
-19166
-18254
-17318
-16373
-15431
-14484
-13503
-12464
-11398
-10376
-9450
-8605
-7796
-7015
-6302
-5680
-5115
-4545
-3957
-3390
-2871
-2366
-1819
-1224
-657
-210
93
300
470
596
619
483
195
-174
-572
-1010
-1545
-2200
-2928
-3651
-4333
-5008
-5735
-6530
-7348
-8119
-8802
-9411
-9996
-10595
-11180
-11665
-11955
-12035
-11956
-11778
-11503
-11090
-10543
-9946
-9401
-8947
-8536
-8110
-7679
-7303
-7002
-6716
-6337
-5818
-5212
-4617
-4080
-3567
-3028
-2467
-1941
-1498
-1121
-754
-375
-14
284
515
716
913
1079
1159
1133
1035
926
833
747
676
651
695
785
880
979
1124
1340
1592
1816
1969
2046
2040
1928
1713
1444
1174
895
562
190
-126
-288
-299
-247
-200
-150
-67
19
29
-73
-240
-402
-553
-744
-1006
-1305
-1563
-1744
-1864
-1971
-2105
-2283
-2498
-2716
-2897
-3033
-3161
-3318
-3483
-3584
-3571
-3479
-3398
-3394
-3450
-3482
-3420
-3256
-3052
-2894
-2804
-2725
-2577
-2365
-2214
-2257
-2507
-2856
-3191
-3487
-3768
-4022
-4210
-4349
-4525
-4782
-5025
-5102
-4984
-4823
-4781
-4850
-4846
-4615
-4187
-3740
-3413
-3192
-2969
-2682
-2373
-2135
-2012
-1938
-1819
-1626
-1415
-1248
-1129
-997
-816
-622
-488
-441
-438
-425
-392
-363
-358
-377
-416
-485
-576
-664
-737
-813
-910
-996
-1011
-959
-930
-1002
-1129
-1180
-1096
-961
-895
-895
-839
-665
-482
-454
-601
-762
-783
-684
-633
-724
-850
-805
-521
-140
133
238
295
437
649
812
879
941
1110
1362
1565
1648
1716
1917
2266
2638
2936
3202
3552
4011
4502
4980
5509
6149
6809
7310
7574
7741
8033
8513
9044
9467
9755
10005
10296
10606
10856
10973
10890
10566
10028
9393
8790
8246
7671
6996
6296
5709
5291
4964
4642
4346
4147
4038
3916
3692
3373
3017
2617
2096
1420
659
-100
-856
-1697
-2670
-3692
-4605
-5327
-5907
-6463
-7055
-7640
-8139
-8515
-8802
-9053
-9298
-9535
-9764
-9981
-10168
-10304
-10386
-10436
-10463
-10430
-10286
-10009
-9630
-9190
-8695
-8129
-7489
-6809
-6130
-5464
-4790
-4082
-3336
-2584
-1882
-1252
-652
-11
699
1404
2017
2533
3042
3622
4240
4796
5248
5650
6069
6499
6878
7167
7381
7528
7602
7615
7622
7669
7735
7743
7668
7585
7591
7706
7862
7985
8063
8134
8250
8443
8706
8992
9216
9317
9315
9280
9269
9284
9317
9389
9526
9710
9881
10006
10119
10260
10393
10401
10201
9824
9383
8975
8612
8239
7774
7167
6430
5645
4906
4249
3620
2938
2193
1470
898
521
281
77
-160
-434
-698
-936
-1194
-1556
-2059
-2631
-3134
-3513
-3877
-4372
-5009
-5639
-6133
-6540
-7026
-7649
-8265
-8697
-8941
-9152
-9450
-9771
-9979
-10037
-10017
-9985
-9912
-9752
-9517
-9251
-8942
-8561
-8144
-7793
-7559
-7349
-7030
-6611
-6235
-6014
-5864
-5617
-5228
-4835
-4570
-4390
-4127
-3709
-3254
-2919
-2711
-2485
-2146
-1746
-1408
-1181
-1010
-825
-629
-468
-350
-241
-98
95
332
592
854
1101
1336
1565
1782
1980
2169
2368
2577
2773
2941
3104
3302
3543
3769
3914
3991
4074
4223
4413
4565
4622
4601
4583
4646
4799
4963
5022
4917
4733
4643
4732
4897
4923
4707
4374
4137
4060
4002
3792
3444
3094
2816
2544
2218
1907
1735
1674
1528
1182
749
464
387
343
152
-160
-418
-519
-525
-522
-494
-395
-253
-129
-11
197
528
871
1083
1176
1310
1582
1870
1959
1793
1514
1318
1246
1209
1128
1007
906
858
859
893
927
898
767
539
276
29
-194
-417
-635
-838
-1030
-1234
-1451
-1657
-1847
-2076
-2368
-2681
-2959
-3209
-3493
-3819
-4089
-4211
-4229
-4288
-4443
-4582
-4567
-4413
-4271
-4243
-4258
-4178
-3968
-3713
-3515
-3375
-3214
-2965
-2615
-2201
-1784
-1434
-1179
-970
-711
-331
142
604
990
1339
1740
2222
2716
3116
3372
3510
3580
3589
3530
3457
3458
3535
3576
3452
3155
2822
2593
2476
2374
2214
2031
1907
1908
2068
2392
2842
3309
3673
3912
4117
4373
4661
4889
5017
5119
5300
5562
5830
6066
6309
6617
6968
7289
7541
7754
7970
8191
8408
8644
8897
9086
9112
8986
8865
8881
8980
8975
8776
8509
8355
8310
8221
7992
7692
7424
7156
6765
6222
5650
5166
4743
4294
3833
3509
3404
3409
3349
3185
3071
3127
3260
3272
3091
2883
2869
3079
3332
3460
3493
3607
3878
4192
4375
4389
4349
4361
4407
4405
4328
4235
4172
4112
4011
3879
3750
3606
3369
3005
2578
2195
1883
1577
1218
823
465
167
-110
-403
-700
-962
-1215
-1512
-1844
-2121
-2257
-2296
-2382
-2594
-2853
-3018
-3042
-3022
-3076
-3202
-3297
-3284
-3189
-3092
-3018
-2932
-2809
-2686
-2625
-2655
-2725
-2759
-2740
-2723
-2766
-2865
-2928
-2885
-2775
-2717
-2773
-2889
-2955
-2933
-2895
-2925
-3005
-3050
-3021
-2973
-2984
-3066
-3178
-3270
-3344
-3437
-3596
-3835
-4110
-4352
-4525
-4679
-4891
-5157
-5360
-5403
-5346
-5376
-5602
-5927
-6164
-6253
-6322
-6517
-6823
-7094
-7227
-7269
-7315
-7396
-7453
-7436
-7370
-7311
-7255
-7143
-6936
-6671
-6425
-6216
-5996
-5695
-5313
-4922
-4604
-4386
-4210
-3988
-3672
-3292
-2925
-2625
-2365
-2074
-1709
-1310
-983
-803
-739
-649
-410
-29
355
602
712
825
1068
1395
1610
1575
1367
1176
1099
1036
859
600
420
374
300
17
-446
-864
-1076
-1177
-1372
-1712
-2042
-2185
-2114
-1938
-1739
-1555
-1433
-1433
-1542
-1656
-1685
-1662
-1719
-1921
-2181
-2373
-2485
-2613
-2824
-3078
-3282
-3418
-3543
-3697
-3843
-3902
-3850
-3753
-3717
-3788
-3936
-4078
-4156
-4168
-4146
-4112
-4044
-3906
-3670
-3356
-3020
-2729
-2513
-2350
-2185
-1977
-1735
-1497
-1285
-1073
-812
-487
-139
173
395
511
547
563
628
772
951
1086
1156
1239
1430
1723
1992
2138
2204
2322
2539
2752
2832
2799
2812
2972
3197
3323
3303
3249
3289
3414
3519
3543
3518
3484
3441
3401
3439
3608
3839
3994
4043
4124
4366
4680
4833
4725
4539
4566
4897
5370
5815
6279
6963
8324
9161
9326
10216
11742
14322
16175
16870
17922
20884
24735
26762
26556
27434
31906
-29287
32467
17468
-1142
-11111
-7999
232
2315
-3788
-9170
-4518
9579
23601
28777
24241
15279
6972
717
-4372
-8842
-12393
-14577
-16125
-16700
-15899
-14349
-11640
-9844
-9960
-12091
-15389
-18423
-19864
-19182
-16894
-14180
-12171
-11375
-11620
-12359
-13022
-13203
-12705
-11591
-10214
-9098
-8665
-8972
-9728
-10550
-11215
-11708
-12065
-12284
-12387
-12496
-12788
-13316
-13933
-14434
-14739
-14919
-15045
-15078
-14935
-14636
-14312
-14054
-13793
-13379
-12770
-12094
-11492
-10955
-10339
-9554
-8679
-7858
-7139
-6440
-5667
-4840
-4082
-3469
-2952
-2403
-1751
-1046
-407
80
442
781
1152
1498
1683
1620
1354
1001
633
246
-162
-544
-865
-1185
-1612
-2164
-2700
-3074
-3311
-3605
-4088
-4670
-5117
-5292
-5266
-5210
-5193
-5181
-5134
-5074
-5040
-5018
-4959
-4864
-4801
-4816
-4856
-4808
-4622
-4348
-4091
-3915
-3794
-3672
-3508
-3293
-3039
-2772
-2512
-2256
-1973
-1636
-1245
-828
-401
48
532
1032
1495
1886
2210
2498
2755
2958
3087
3156
3206
3282
3397
3528
3634
3694
3725
3770
3841
3891
3847
3691
3492
3324
3193
3039
2814
2558
2349
2232
2167
2092
1994
1908
1850
1789
1688
1568
1489
1471
1455
1363
1205
1075
1059
1126
1179
1154
1070
979
896
801
676
534
389
243
98
-22
-102
-153
-199
-248
-278
-258
-176
-49
85
209
346
543
808
1070
1231
1276
1310
1444
1664
1839
1885
1867
1928
2111
2320
2451
2512
2585
2702
2812
2863
2896
2991
3161
3322
3393
3381
3361
3378
3400
3374
3305
3245
3243
3300
3401
3544
3747
4010
4280
4496
4638
4752
4899
5089
5256
5329
5306
5265
5295
5403
5518
5564
5527
5460
5412
5383
5352
5295
5190
5034
4860
4724
4657
4614
4502
4256
3883
3461
3084
2796
2567
2309
1960
1580
1321
1284
1397
1480
1451
1396
1422
1499
1528
1502
1541
1721
1927
1971
1835
1702
1726
1853
1913
1841
1760
1836
2106
2513
3028
3657
4350
4996
5524
5984
6446
6830
6944
6709
6277
5872
5510
4989
4163
3163
2275
1626
1074
441
-246
-843
-1360
-2027
-3069
-4431
-5841
-7139
-8404
-9770
-11154
-12269
-12873
-12979
-12787
-12467
-12057
-11550
-10985
-10432
-9922
-9406
-8838
-8236
-7654
-7094
-6461
-5639
-4611
-3499
-2455
-1522
-596
439
1596
2800
4011
5301
6766
8363
9843
10912
11439
11527
11377
11076
10539
9643
8422
7113
6020
5300
4900
4652
4449
4301
4247
4276
4317
4321
4281
4207
4089
3924
3771
3726
3831
4014
4145
4147
4050
3907
3705
3379
2921
2423
1987
1600
1146
547
-124
-730
-1220
-1672
-2171
-2706
-3198
-3596
-3928
-4245
-4574
-4921
-5290
-5699
-6177
-6756
-7461
-8266
-9087
-9831
-10486
-11106
-11723
-12279
-12680
-12902
-12998
-13032
-13008
-12908
-12754
-12588
-12408
-12157
-11794
-11377
-11018
-10772
-10574
-10299
-9880
-9365
-8851
-8388
-7927
-7381
-6709
-5952
-5190
-4482
-3836
-3227
-2627
-2025
-1422
-821
-220
392
1011
1604
2142
2627
3085
3525
3903
4160
4288
4360
4473
4661
4873
5027
5085
5083
5076
5076
5035
4901
4677
4406
4139
3883
3611
3298
2944
2576
2215
1865
1517
1181
901
716
600
453
171
-256
-725
-1126
-1448
-1771
-2156
-2557
-2862
-2999
-2996
-2919
-2834
-2768
-2739
-2751
-2803
-2879
-2972
-3071
-3159
-3227
-3258
-3239
-3157
-3021
-2899
-2882
-3020
-3269
-3524
-3704
-3810
-3881
-3941
-3986
-3991
-3942
-3845
-3722
-3617
-3577
-3606
-3663
-3683
-3625
-3483
-3288
-3089
-2907
-2718
-2479
-2211
-2023
-2028
-2217
-2461
-2660
-2866
-3200
-3654
-4042
-4221
-4296
-4535
-5048
-5620
-5935
-5939
-5905
-6124
-6565
-6919
-6943
-6722
-6549
-6610
-6835
-7041
-7137
-7168
-7187
-7195
-7182
-7169
-7184
-7192
-7117
-6926
-6645
-6339
-6057
-5811
-5588
-5348
-5037
-4642
-4225
-3880
-3646
-3469
-3256
-2954
-2575
-2158
-1736
-1328
-934
-547
-160
208
521
764
959
1146
1336
1495
1594
1663
1782
2022
2367
2715
2959
3092
3231
3500
3906
4317
4595
4732
4830
4960
5076
5077
4929
4701
4464
4209
3869
3413
2897
2402
1945
1454
878
268
-259
-668
-1053
-1541
-2143
-2740
-3216
-3594
-3989
-4456
-4918
-5267
-5487
-5660
-5875
-6142
-6406
-6620
-6763
-6826
-6795
-6649
-6230
-5678
-5270
-4809
-4265
-3650
-3019
-2429
-1877
-1300
-646
73
791
1471
2143
2852
3571
4230
4781
5251
5703
6177
6658
7134
7639
8209
8831
9422
9908
10295
10657
11048
11434
11735
11906
11980
12026
12075
12101
12046
11874
11598
11268
10942
10654
10398
10134
9835
9504
9163
8819
8460
8083
7714
7360
6981
6533
6031
5555
5186
4925
4685
4395
4067
3761
3517
3322
3151
2998
2867
2745
2601
2421
2235
2077
1953
1831
1670
1452
1204
988
886
947
1128
1306
1378
1353
1330
1387
1496
1548
1465
1271
1053
885
790
747
715
660
590
543
553
613
650
614
524
467
501
595
665
663
644
704
864
1014
994
757
405
73
-222
-579
-1082
-1701
-2341
-2974
-3656
-4413
-5169
-5801
-6277
-6679
-7091
-7474
-7687
-7659
-7473
-7288
-7159
-6990
-6686
-6302
-6019
-5916
-5834
-5552
-5088
-4715
-4646
-4749
-4662
-4227
-3675
-3369
-3392
-3468
-3312
-2925
-2541
-2334
-2257
-2175
-2028
-1870
-1769
-1707
-1596
-1381
-1101
-832
-603
-364
-43
341
702
1004
1323
1725
2133
2385
2441
2466
2656
2997
3275
3322
3232
3254
3534
3975
4368
4582
4635
4628
4640
4670
4648
4498
4221
3907
3652
3493
3379
3263
3171
3149
3164
3127
3000
2846
2764
2766
2790
2786
2763
2769
2812
2857
2877
2854
2797
2715
2628
2557
2504
2438
2321
2160
2008
1903
1823
1693
1476
1187
878
579
306
71
-132
-337
-618
-998
-1403
-1695
-1811
-1851
-2002
-2361
-2814
-3137
-3221
-3174
-3227
-3497
-3865
-4118
-4154
-4069
-4022
-4062
-4091
-4007
-3820
-3618
-3472
-3373
-3264
-3113
-2924
-2710
-2463
-2183
-1880
-1566
-1224
-846
-468
-136
137
387
630
822
905
908
937
1078
1286
1433
1461
1442
1502
1670
1872
2024
2100
2125
2126
2119
2139
2209
2275
2232
2042
1777
1526
1265
877
307
-361
-1005
-1615
-2280
-3041
-3806
-4454
-4957
-5384
-5783
-6140
-6407
-6562
-6585
-6452
-6148
-5698
-5129
-4420
-3518
-2434
-1284
-178
910
2108
3486
4958
6365
7629
8812
10040
11382
12821
14267
15618
16820
17911
18986
20061
21005
21632
21876
21851
21690
21402
20908
20203
19397
18566
17639
16481
15109
13715
12471
11322
10047
8530
6893
5362
4017
2734
1356
-121
-1580
-2945
-4247
-5532
-6768
-7881
-8868
-9785
-10628
-11303
-11738
-12011
-12272
-12568
-12787
-12840
-12811
-12854
-12988
-13052
-12898
-12575
-12273
-12090
-11930
-11638
-11153
-10553
-9945
-9358
-8742
-8049
-7280
-6500
-5788
-5180
-4648
-4139
-3642
-3197
-2854
-2631
-2513
-2479
-2535
-2693
-2949
-3280
-3670
-4108
-4582
-5076
-5564
-6037
-6501
-6974
-7452
-7904
-8299
-8647
-8989
-9341
-9658
-9875
-9976
-10023
-10082
-10123
-10056
-9841
-9546
-9276
-9048
-8785
-8432
-8037
-7694
-7441
-7223
-6984
-6740
-6551
-6443
-6390
-6358
-6336
-6325
-6317
-6305
-6294
-6287
-6279
-6259
-6232
-6209
-6174
-6106
-6016
-5948
-5891
-5784
-5576
-5290
-4993
-4721
-4417
-4037
-3620
-3234
-2878
-2499
-2073
-1665
-1341
-1075
-785
-450
-147
48
181
365
630
874
977
961
979
1135
1350
1453
1385
1278
1313
1506
1691
1728
1663
1643
1727
1804
1739
1544
1347
1214
1089
899
670
497
426
396
342
274
240
242
217
139
73
87
166
228
216
170
178
249
295
238
104
-1
-31
-67
-220
-481
-726
-868
-942
-1064
-1270
-1473
-1586
-1615
-1652
-1749
-1871
-1970
-2051
-2140
-2227
-2272
-2278
-2291
-2333
-2345
-2255
-2077
-1901
-1787
-1702
-1533
-1214
-811
-475
-308
-264
-173
116
599
1105
1455
1635
1782
2018
2315
2557
2669
2669
2597
2453
2252
2074
2017
2087
2168
2142
2043
2043
2279
2702
3123
3418
3659
4046
4703
5557
6422
7177
7872
8641
9530
10446
11291
12086
12933
13869
14784
15534
16088
16543
16954
17209
17095
16538
15687
14777
13902
12965
11846
10577
9332
8253
7352
6562
5850
5217
4633
4026
3384
2801
2378
2068
1720
1247
739
369
221
223
251
241
208
188
168
93
-114
-537
-1207
-2071
-3031
-4014
-5000
-5978
-6893
-7663
-8249
-8657
-8890
-8933
-8803
-8596
-8415
-8278
-8127
-7944
-7816
-7837
-7983
-8132
-8203
-8245
-8349
-8523
-8684
-8768
-8783
-8772
-8740
-8659
-8540
-8433
-8386
-8399
-8437
-8476
-8525
-8586
-8643
-8665
-8622
-8480
-8223
-7872
-7492
-7143
-6841
-6556
-6284
-6067
-5931
-5828
-5676
-5455
-5238
-5086
-4937
-4671
-4268
-3858
-3572
-3387
-3150
-2772
-2337
-1988
-1752
-1523
-1220
-889
-624
-438
-256
-24
224
413
542
682
903
1199
1494
1717
1850
1944
2065
2252
2483
2700
2866
2991
3117
3273
3446
3593
3678
3719
3768
3864
4006
4169
4348
4582
4897
5258
5593
5872
6124
6384
6633
6822
6930
6961
6932
6846
6726
6617
6553
6522
6501
6501
6535
6572
6547
6456
6372
6342
6294
6103
5747
5352
5048
4827
4585
4274
3968
3756
3628
3505
3337
3148
2994
2884
2788
2669
2518
2368
2271
2246
2255
2226
2150
2102
2161
2296
2398
2417
2414
2459
2513
2465
2284
2074
1950
1904
1850
1755
1668
1613
1508
1278
977
753
674
641
519
331
253
417
768
1133
1435
1766
2239
2825
3351
3664
3794
3906
4120
4387
4566
4575
4488
4452
4536
4684
4787
4781
4684
4551
4419
4279
4103
3870
3581
3273
2991
2757
2578
2457
2414
2464
2587
2718
2797
2815
2823
2889
3042
3258
3484
3677
3843
3998
4157
4313
4439
4512
4530
4512
4483
4456
4428
4376
4284
4167
4070
4031
4052
4093
4105
4083
4078
4154
4302
4428
4425
4300
4205
4287
4508
4669
4629
4479
4441
4619
4880
5038
5079
5141
5313
5516
5650
5763
6005
6415
6856
7196
7480
7870
8439
9065
9560
9863
10052
10203
10285
10188
9847
9280
8543
7662
6627
5456
4239
3082
2017
987
-79
-1151
-2118
-2896
-3527
-4110
-4672
-5142
-5440
-5578
-5619
-5607
-5545
-5447
-5381
-5385
-5401
-5320
-5100
-4818
-4552
-4241
-3725
-2896
-1802
-592
633
1883
3216
4653
6149
7638
9088
10490
11864
13231
14608
15981
17318
18600
19805
20877
21730
22322
22723
23043
23310
23437
23359
23183
23105
23203
23309
23128
22488
21410
19984
18245
16169
13770
11123
8331
5488
2697
66
-2351
-4598
-6753
-8834
-10793
-12567
-14147
-15529
-16657
-17432
-17807
-17846
-17647
-17247
-16639
-15862
-15066
-14420
-13974
-13627
-13266
-12873
-12503
-12162
-11791
-11326
-10775
-10174
-9522
-8802
-8047
-7329
-6676
-6054
-5461
-5008
-4835
-4952
-5214
-5492
-5797
-6207
-6712
-7201
-7598
-7961
-8391
-8879
-9307
-9596
-9803
-10028
-10304
-10566
-10730
-10773
-10742
-10698
-10678
-10667
-10595
-10396
-10090
-9779
-9533
-9292
-8936
-8437
-7914
-7505
-7203
-6862
-6382
-5824
-5325
-4928
-4552
-4100
-3570
-3034
-2550
-2121
-1728
-1355
-979
-568
-123
300
623
829
985
1155
1323
1411
1378
1279
1222
1257
1333
1362
1331
1315
1374
1461
1452
1289
1047
856
762
700
596
467
398
434
526
592
615
660
789
979
1135
1157
1027
818
614
433
209
-131
-577
-1020
-1351
-1558
-1713
-1882
-2075
-2264
-2439
-2623
-2827
-3043
-3264
-3507
-3794
-4098
-4365
-4562
-4718
-4878
-5059
-5236
-5387
-5518
-5655
-5816
-5995
-6162
-6268
-6286
-6238
-6179
-6162
-6180
-6183
-6137
-6064
-6012
-5996
-5985
-5958
-5932
-5955
-6037
-6148
-6251
-6338
-6449
-6641
-6942
-7325
-7712
-8053
-8373
-8740
-9188
-9661
-10065
-10373
-10646
-10961
-11313
-11635
-11885
-12081
-12262
-12420
-12520
-12565
-12608
-12689
-12760
-12719
-12532
-12289
-12112
-12002
-11826
-11461
-10943
-10424
-10009
-9664
-9298
-8890
-8497
-8125
-7707
-7196
-6653
-6187
-5796
-5371
-4848
-4305
-3879
-3596
-3370
-3133
-2917
-2765
-2633
-2420
-2101
-1774
-1535
-1365
-1167
-891
-570
-246
112
562
1104
1674
2204
2707
3253
3893
4590
5257
5835
6336
6810
7297
7787
8220
8524
8656
8652
8609
8579
8527
8340
7978
7526
7097
6668
6075
5181
4034
2825
1684
589
-523
-1620
-2604
-3427
-4138
-4767
-5239
-5459
-5451
-5370
-5340
-5326
-5175
-4793
-4237
-3642
-3095
-2595
-2085
-1518
-885
-189
557
1329
2101
2853
3618
4438
5333
6269
7186
8042
8835
9585
10308
11020
11744
12474
13155
13705
14092
14372
14633
14908
15148
15285
15293
15201
15034
14793
14458
14022
13485
12843
12107
11310
10501
9714
8942
8151
7311
6436
5566
4734
3937
3137
2309
1467
652
-127
-891
-1651
-2376
-3024
-3605
-4183
-4789
-5379
-5862
-6201
-6459
-6715
-6978
-7172
-7225
-7154
-7044
-6952
-6853
-6700
-6492
-6273
-6068
-5850
-5602
-5367
-5196
-5068
-4910
-4689
-4470
-4330
-4224
-4060
-3826
-3642
-3594
-3597
-3495
-3275
-3101
-3109
-3226
-3259
-3141
-2995
-2952
-2974
-2917
-2717
-2460
-2260
-2133
-2028
-1928
-1880
-1930
-2065
-2246
-2427
-2598
-2774
-2974
-3207
-3450
-3661
-3845
-4052
-4334
-4682
-5027
-5324
-5591
-5880
-6194
-6475
-6668
-6775
-6836
-6881
-6913
-6924
-6902
-6852
-6790
-6727
-6657
-6562
-6445
-6355
-6325
-6315
-6237
-6046
-5811
-5645
-5578
-5522
-5365
-5117
-4882
-4759
-4754
-4797
-4807
-4742
-4613
-4467
-4343
-4254
-4175
-4087
-3992
-3878
-3724
-3527
-3338
-3221
-3165
-3071
-2850
-2537
-2265
-2107
-1997
-1810
-1515
-1188
-918
-724
-558
-381
-173
66
320
545
703
821
980
1237
1578
1920
2189
2385
2565
2805
3131
3492
3781
3942
4030
4173
4417
4636
4676
4535
4365
4299
4296
4247
4132
4051
4049
4041
3925
3742
3629
3618
3578
3388
3131
3003
3085
3264
3374
3413
3496
3666
3822
3853
3766
3640
3508
3318
3048
2782
2612
2499
2324
2031
1716
1497
1373
1234
1005
716
446
235
58
-95
-225
-349
-486
-617
-664
-592
-443
-321
-258
-220
-179
-163
-237
-380
-524
-650
-812
-1057
-1310
-1462
-1498
-1511
-1565
-1590
-1461
-1212
-1029
-1059
-1210
-1248
-1071
-837
-761
-867
-981
-939
-778
-631
-535
-424
-243
-39
123
246
396
591
796
968
1111
1255
1403
1556
1740
1958
2167
2311
2394
2481
2600
2695
2710
2680
2709
2812
2886
2832
2702
2642
2712
2807
2805
2731
2697
2737
2763
2684
2574
2581
2723
2849
2831
2739
2779
3047
3409
3640
3661
3588
3585
3687
3801
3812
3694
3532
3440
3485
3640
3813
3938
4037
4202
4466
4762
4987
5099
5146
5193
5252
5287
5261
5183
5066
4932
4805
4716
4659
4579
4417
4180
3948
3796
3707
3572
3304
2940
2604
2393
2291
2196
2035
1822
1641
1533
1469
1385
1267
1155
1059
943
760
541
389
355
357
273
84
-74
-80
36
102
12
-164
-282
-291
-300
-421
-635
-826
-939
-1027
-1157
-1325
-1468
-1558
-1638
-1755
-1886
-1970
-1991
-1980
-1967
-1956
-1947
-1954
-1955
-1905
-1772
-1611
-1520
-1523
-1520
-1408
-1229
-1156
-1314
-1647
-1989
-2243
-2457
-2718
-3043
-3363
-3625
-3851
-4094
-4357
-4594
-4753
-4844
-4924
-5027
-5110
-5075
-4880
-4589
-4314
-4116
-3975
-3837
-3700
-3609
-3586
-3603
-3632
-3679
-3755
-3820
-3812
-3708
-3557
-3428
-3337
-3259
-3161
-3039
-2904
-2756
-2606
-2489
-2427
-2386
-2293
-2113
-1890
-1717
-1626
-1554
-1413
-1184
-937
-748
-624
-517
-390
-250
-123
0
142
285
379
421
488
665
928
1159
1265
1271
1287
1382
1524
1625
1634
1587
1558
1594
1694
1827
1960
2090
2225
2364
2504
2641
2784
2939
3113
3303
3509
3737
3974
4207
4439
4700
4997
5281
5479
5574
5637
5753
5918
6044
6057
5976
5905
5927
6034
6165
6250
6257
6173
6016
5836
5685
5581
5478
5311
5049
4745
4478
4270
4074
3840
3565
3299
3072
2849
2612
2407
2297
2269
2220
2063
1821
1581
1367
1114
780
427
182
96
84
38
-45
-70
47
273
505
662
736
794
907
1124
1432
1766
2053
2266
2463
2742
3151
3644
4113
4482
4771
5055
5375
5719
6055
6396
6787
7234
7694
8107
8465
8796
9112
9380
9552
9610
9576
9490
9385
9277
9162
9002
8752
8394
7935
7409
6834
6208
5536
4837
4146
3516
2993
2588
2258
1926
1531
1070
595
167
-198
-546
-938
-1354
-1686
-1805
-1687
-1467
-1323
-1317
-1336
-1219
-922
-547
-233
-42
66
165
311
480
565
426
3
-609
-1241
-1824
-2439
-3200
-4100
-5014
-5840
-6587
-7301
-7959
-8491
-8888
-9212
-9503
-9706
-9748
-9654
-9524
-9412
-9284
-9083
-8828
-8597
-8419
-8244
-7996
-7654
-7244
-6787
-6287
-5748
-5188
-4619
-4046
-3480
-2952
-2472
-2000
-1505
-1019
-622
-364
-204
-75
41
99
55
-61
-186
-293
-410
-575
-777
-982
-1179
-1376
-1572
-1741
-1864
-1951
-2031
-2104
-2142
-2114
-2022
-1905
-1804
-1736
-1692
-1664
-1655
-1672
-1700
-1722
-1737
-1762
-1817
-1900
-1996
-2094
-2200
-2322
-2437
-2512
-2531
-2494
-2389
-2178
-1836
-1385
-886
-376
151
722
1331
1939
2520
3090
3683
4297
4883
5393
5820
6178
6457
6603
6542
6247
5752
5133
4465
3788
3101
2405
1732
1149
718
453
309
212
118
38
23
113
284
466
616
768
1002
1345
1726
2050
2311
2606
3003
3438
3782
4005
4216
4530
4916
5229
5399
5533
5787
6177
6558
6790
6893
7020
7286
7658
8007
8241
8386
8537
8782
9120
9458
9679
9725
9638
9515
9418
9318
9133
8835
8481
8143
7851
7563
7242
6891
6520
6125
5684
5203
4720
4267
3850
3449
3046
2629
2199
1766
1343
926
479
-20
-532
-978
-1330
-1636
-1976
-2361
-2710
-2952
-3108
-3274
-3520
-3817
-4071
-4207
-4228
-4181
-4100
-3988
-3832
-3630
-3386
-3094
-2743
-2317
-1839
-1373
-979
-644
-266
233
802
1283
1577
1778
2082
2552
3038
3347
3497
3696
4083
4574
5018
5428
5968
6706
7475
8077
8529
9037
9717
10425
10920
11148
11262
11409
11559
11560
11314
10841
10183
9348
8331
7165
5919
4650
3390
2147
924
-278
-1432
-2491
-3430
-4310
-5257
-6327
-7412
-8324
-8991
-9542
-10152
-10808
-11314
-11498
-11403
-11204
-11011
-10783
-10447
-10039
-9669
-9393
-9198
-9083
-9105
-9293
-9579
-9850
-10073
-10327
-10679
-11058
-11275
-11195
-10847
-10373
-9846
-9156
-8090
-6572
-4809
-3162
-1855
-825
122
1019
1665
1838
1541
997
445
-27
-436
-775
-1002
-1090
-1074
-1008
-924
-825
-726
-658
-655
-735
-898
-1117
-1355
-1588
-1828
-2093
-2358
-2580
-2748
-2897
-3051
-3180
-3232
-3209
-3176
-3189
-3244
-3312
-3401
-3555
-3806
-4149
-4557
-5015
-5513
-6033
-6565
-7103
-7635
-8132
-8575
-8990
-9440
-9949
-10476
-10965
-11419
-11902
-12457
-13042
-13569
-13992
-14341
-14661
-14941
-15120
-15151
-15036
-14809
-14491
-14080
-13578
-13014
-12415
-11788
-11132
-10481
-9911
-9473
-9117
-8718
-8192
-7586
-7033
-6610
-6266
-5897
-5459
-5008
-4602
-4228
-3828
-3391
-2967
-2601
-2261
-1880
-1454
-1053
-745
-502
-226
151
582
971
1280
1561
1884
2242
2564
2798
2959
3093
3221
3341
3456
3577
3721
3873
4007
4096
4119
4047
3869
3600
3276
2941
2642
2432
2334
2294
2194
1962
1651
1381
1196
1022
764
443
188
108
186
333
484
627
762
880
972
1056
1148
1226
1263
1276
1319
1406
1482
1470
1353
1168
940
639
244
-182
-531
-771
-991
-1308
-1715
-2081
-2304
-2441
-2645
-2973
-3315
-3505
-3525
-3510
-3582
-3712
-3786
-3776
-3767
-3848
-4001
-4140
-4229
-4309
-4414
-4518
-4568
-4561
-4547
-4567
-4612
-4641
-4629
-4581
-4510
-4407
-4252
-4050
-3850
-3712
-3650
-3631
-3627
-3650
-3749
-3931
-4115
-4199
-4147
-4001
-3825
-3635
-3415
-3151
-2842
-2490
-2109
-1754
-1497
-1346
-1215
-1002
-684
-328
-2
296
616
994
1422
1876
2335
2770
3146
3439
3661
3867
4134
4498
4907
5239
5409
5485
5645
5968
6330
6514
6446
6257
6089
5922
5633
5202
4765
4417
4071
3564
2907
2313
1960
1785
1566
1190
768
477
364
323
221
5
-297
-632
-953
-1244
-1521
-1822
-2169
-2535
-2873
-3160
-3421
-3715
-4096
-4586
-5145
-5682
-6126
-6486
-6817
-7132
-7352
-7398
-7281
-7075
-6814
-6461
-6014
-5563
-5194
-4852
-4384
-3738
-3077
-2602
-2321
-2026
-1541
-916
-348
49
350
676
1038
1354
1567
1711
1844
1966
2061
2166
2366
2697
3090
3433
3696
3934
4198
4446
4576
4537
4383
4202
4032
3842
3616
3406
3288
3283
3338
3394
3437
3495
3586
3704
3834
3982
4163
4375
4601
4828
5049
5255
5428
5567
5690
5816
5943
6061
6174
6294
6437
6593
6727
6804
6824
6829
6858
6898
6902
6841
6756
6733
6810
6914
6945
6882
6820
6878
7064
7272
7395
7439
7490
7601
7719
7741
7617
7382
7083
6737
6334
5898
5481
5083
4626
4029
3332
2668
2119
1616
1005
238
-557
-1203
-1644
-1990
-2361
-2770
-3145
-3418
-3594
-3746
-3964
-4292
-4684
-5043
-5305
-5503
-5726
-5986
-6198
-6269
-6224
-6175
-6197
-6239
-6198
-6033
-5800
-5593
-5464
-5406
-5375
-5310
-5168
-4954
-4731
-4554
-4416
-4255
-4043
-3815
-3640
-3545
-3481
-3376
-3209
-3021
-2867
-2748
-2619
-2461
-2321
-2245
-2224
-2186
-2079
-1942
-1869
-1870
-1867
-1779
-1628
-1487
-1369
-1210
-968
-691
-473
-322
-162
63
322
535
687
820
970
1149
1352
1602
1897
2168
2347
2466
2645
2956
3300
3490
3473
3386
3410
3565
3694
3637
3400
3133
2947
2824
2682
2475
2229
1999
1807
1647
1496
1321
1091
794
453
115
-182
-429
-639
-801
-899
-907
-841
-728
-569
-370
-180
-74
-101
-205
-281
-297
-325
-442
-622
-746
-734
-645
-587
-588
-591
-553
-528
-581
-696
-810
-924
-1109
-1392
-1682
-1866
-1932
-1986
-2113
-2274
-2382
-2418
-2448
-2515
-2568
-2514
-2339
-2122
-1948
-1843
-1747
-1582
-1313
-989
-718
-602
-640
-701
-639
-436
-238
-211
-357
-502
-462
-240
-8
89
78
122
342
692
1019
1236
1393
1592
1836
2032
2102
2082
2054
2038
1977
1845
1714
1661
1659
1598
1427
1233
1153
1227
1376
1498
1556
1577
1628
1799
2145
2612
3051
3358
3620
4021
4624
5280
5787
6135
6488
6974
7532
8041
8497
9007
9611
10174
10531
10696
10858
11171
11562
11793
11720
11452
11251
11277
11426
11461
11243
10852
10470
10185
9901
9475
8874
8207
7611
7086
6519
5818
5054
4415
3975
3577
2998
2217
1465
968
687
382
-67
-527
-793
-866
-922
-1062
-1205
-1230
-1156
-1110
-1149
-1192
-1149
-1023
-884
-775
-692
-622
-559
-475
-369
-295
-299
-351
-338
-188
19
143
152
155
265
440
548
528
454
432
488
562
590
568
530
513
525
541
491
312
19
-292
-517
-642
-761
-988
-1335
-1701
-1971
-2140
-2316
-2609
-3008
-3404
-3709
-3956
-4247
-4618
-4988
-5273
-5497
-5765
-6136
-6534
-6847
-7051
-7238
-7485
-7756
-7944
-7989
-7942
-7880
-7806
-7661
-7413
-7129
-6921
-6815
-6736
-6596
-6388
-6189
-6056
-5965
-5836
-5636
-5414
-5253
-5190
-5200
-5240
-5294
-5380
-5512
-5685
-5874
-6038
-6150
-6213
-6260
-6324
-6419
-6521
-6590
-6605
-6590
-6591
-6623
-6639
-6561
-6358
-6078
-5795
-5528
-5226
-4839
-4386
-3935
-3532
-3158
-2776
-2398
-2080
-1861
-1711
-1570
-1411
-1258
-1146
-1086
-1043
-988
-926
-878
-863
-876
-906
-955
-1019
-1077
-1098
-1062
-1001
-982
-1040
-1128
-1160
-1100
-1000
-933
-916
-893
-808
-656
-479
-316
-176
-40
102
243
371
486
609
758
924
1066
1179
1313
1526
1787
1978
2043
2086
2271
2634
3019
3256
3345
3441
3639
3862
3973
3947
3876
3821
3732
3544
3288
3049
2845
2583
2163
1605
1041
612
370
256
162
12
-138
-147
68
426
738
895
967
1100
1315
1493
1549
1560
1681
1935
2168
2240
2183
2161
2271
2445
2551
2570
2632
2883
3328
3839
4278
4626
4998
5506
6133
6743
7234
7649
8143
8820
9632
10417
11071
11625
12196
12861
13573
14192
14601
14801
14878
14888
14761
14342
13555
12475
11225
9840
8270
6505
4678
2986
1533
284
-835
-1837
-2697
-3425
-4080
-4717
-5355
-5986
-6598
-7165
-7626
-7918
-8044
-8059
-8004
-7883
-7679
-7416
-7165
-6991
-6921
-6956
-7081
-7261
-7458
-7656
-7889
-8196
-8540
-8813
-8950
-9031
-9208
-9541
-9911
-10159
-10260
-10342
-10523
-10778
-10999
-11129
-11203
-11273
-11342
-11401
-11485
-11624
-11789
-11889
-11877
-11804
-11747
-11705
-11585
-11302
-10868
-10367
-9872
-9414
-8990
-8599
-8262
-7986
-7753
-7535
-7342
-7209
-7152
-7120
-7019
-6807
-6550
-6347
-6197
-5987
-5621
-5132
-4642
-4230
-3862
-3465
-3029
-2609
-2256
-1973
-1736
-1528
-1345
-1179
-1039
-931
-829
-676
-450
-211
-61
-33
-57
-34
36
66
-18
-197
-394
-559
-694
-817
-934
-1058
-1217
-1420
-1618
-1732
-1751
-1757
-1834
-1955
-2014
-1945
-1804
-1688
-1610
-1488
-1240
-892
-543
-241
71
478
999
1555
2055
2475
2855
3240
3633
4007
4335
4624
4902
5196
5502
5793
6038
6220
6373
6564
6836
7163
7457
7668
7847
8108
8472
8812
8962
8882
8695
8538
8421
8257
8005
7741
7534
7346
7084
6737
6421
6236
6127
5937
5604
5242
5041
5061
5168
5208
5157
5117
5162
5246
5267
5187
5065
4972
4913
4861
4816
4800
4793
4716
4528
4294
4122
4024
3900
3684
3475
3442
3610
3804
3837
3731
3673
3783
3978
4088
4054
3971
3956
4013
4060
4042
3978
3915
3872
3828
3764
3700
3690
3774
3931
4087
4188
4279
4459
4765
5098
5309
5352
5326
5380
5550
5750
5868
5870
5808
5767
5792
5863
5922
5911
5815
5673
5538
5433
5347
5243
5091
4894
4685
4514
4417
