-1953
-1730
-1564
-1415
-1271
-1161
-1121
-1151
-1217
-1277
-1308
-1311
-1295
-1262
-1214
-1159
-1115
-1102
-1125
-1166
-1197
-1200
-1173
-1133
-1096
-1067
-1043
-1027
-1025
-1035
-1047
-1048
-1035
-1019
-1008
-1001
-991
-977
-959
-936
-904
-862
-819
-786
-766
-752
-737
-719
-706
-707
-716
-719
-700
-667
-640
-633
-632
-609
-559
-515
-516
-562
-612
-626
-601
-571
-560
-558
-539
-497
-454
-431
-426
-424
-416
-407
-412
-435
-467
-494
-506
-505
-505
-519
-545
-569
-583
-592
-612
-648
-688
-717
-735
-750
-774
-805
-838
-868
-891
-906
-923
-956
-1002
-1041
-1049
-1031
-1023
-1052
-1099
-1122
-1105
-1082
-1093
-1133
-1167
-1180
-1190
-1210
-1219
-1194
-1154
-1151
-1198
-1242
-1225
-1156
-1107
-1128
-1191
-1226
-1202
-1151
-1115
-1101
-1088
-1067
-1053
-1057
-1066
-1056
-1025
-1005
-1025
-1072
-1105
-1098
-1077
-1081
-1113
-1127
-1087
-1016
-977
-998
-1050
-1085
-1103
-1147
-1238
-1352
-1447
-1515
-1574
-1630
-1663
-1658
-1634
-1622
-1627
-1630
-1619
-1614
-1643
-1696
-1728
-1711
-1664
-1641
-1667
-1709
-1717
-1684
-1654
-1673
-1731
-1771
-1755
-1705
-1675
-1680
-1687
-1668
-1637
-1623
-1622
-1609
-1588
-1589
-1603
-1563
-1408
-1173
-946
-757
-539
-249
5
28
-255
-703
-1101
-1393
-1699
-2128
-2598
-2906
-2922
-2704
-2410
-2154
-1945
-1622
-1448
-1380
-1373
-1405
-1454
-1497
-1521
-1515
-1473
-1394
-1292
-1199
-1147
-1139
-1149
-1141
-1101
-1045
-996
-962
-934
-906
-889
-901
-941
-984
-998
-980
-947
-923
-909
-895
-871
-843
-820
-803
-782
-746
-696
-647
-612
-594
-579
-553
-509
-460
-421
-401
-390
-371
-334
-287
-245
-210
-170
-113
-47
5
25
26
33
60
95
115
109
85
59
43
41
51
74
103
131
148
151
145
143
153
167
171
156
130
106
87
69
49
30
16
-4
-44
-106
-172
-226
-271
-322
-385
-444
-479
-497
-525
-583
-655
-706
-723
-728
-754
-807
-863
-892
-893
-883
-875
-871
-867
-866
-875
-893
-914
-926
-929
-925
-916
-908
-911
-920
-917
-886
-834
-788
-773
-782
-786
-773
-760
-774
-813
-852
-871
-873
-877
-888
-892
-881
-862
-848
-840
-831
-822
-830
-867
-929
-1002
-1071
-1125
-1157
-1171
-1189
-1234
-1305
-1372
-1401
-1392
-1379
-1396
-1442
-1489
-1512
-1516
-1518
-1525
-1529
-1520
-1499
-1477
-1458
-1449
-1452
-1473
-1503
-1523
-1521
-1512
-1526
-1568
-1618
-1637
-1622
-1596
-1575
-1551
-1515
-1490
-1503
-1539
-1529
-1424
-1250
-1078
-932
-766
-557
-397
-436
-725
-1139
-1499
-1754
-2007
-2352
-2727
-2951
-2905
-2647
-2342
-2109
-1947
-1802
-1654
-1542
-1357
-1323
-1314
-1322
-1330
-1326
-1311
-1294
-1273
-1241
-1196
-1154
-1132
-1129
-1129
-1111
-1073
-1024
-969
-897
-809
-730
-696
-712
-741
-734
-677
-601
-539
-501
-469
-425
-368
-299
-222
-145
-85
-49
-31
-11
21
69
131
212
305
388
431
432
417
422
457
512
570
618
652
672
690
721
769
816
839
833
814
794
766
722
673
641
636
642
640
631
621
611
589
554
521
503
483
436
354
263
197
168
167
182
208
234
242
224
198
193
224
270
295
286
263
262
301
362
413
441
456
476
502
523
530
531
531
532
534
548
580
617
631
614
588
581
595
602
582
536
481
428
388
375
400
445
473
457
402
329
252
175
102
39
-25
-113
-227
-333
-387
-388
-381
-412
-478
-550
-619
-705
-825
-953
-1037
-1057
-1052
-1076
-1143
-1219
-1266
-1284
-1299
-1324
-1337
-1323
-1302
-1318
-1383
-1456
-1485
-1467
-1460
-1511
-1595
-1641
-1622
-1585
-1581
-1570
-1451
-1180
-840
-538
-269
66
480
801
804
456
-39
-467
-824
-1270
-1876
-2480
-2832
-2834
-2611
-2350
-2135
-1937
-1724
-1526
-1398
-1358
-1372
-1407
-1449
-1489
-1504
-1465
-1371
-1246
-1131
-1054
-1017
-1007
-1014
-1028
-1039
-1025
-967
-872
-777
-725
-731
-774
-818
-845
-860
-876
-896
-909
-908
-896
-883
-874
-864
-843
-804
-754
-704
-662
-626
-588
-547
-509
-485
-473
-466
-461
-468
-504
-566
-626
-652
-635
-595
-565
-557
-557
-544
-510
-469
-442
-436
-437
-428
-404
-381
-371
-366
-347
-312
-276
-261
-275
-302
-325
-340
-352
-360
-363
-362
-364
-377
-399
-419
-436
-452
-477
-506
-527
-542
-568
-618
-677
-714
-713
-694
-694
-725
-772
-812
-840
-867
-889
-899
-897
-902
-931
-976
-1009
-1012
-995
-974
-953
-927
-901
-895
-915
-944
-957
-946
-935
-949
-985
-1021
-1039
-1044
-1042
-1030
-999
-956
-926
-931
-967
-1012
-1042
-1049
-1043
-1040
-1051
-1080
-1118
-1148
-1150
-1122
-1080
-1050
-1045
-1051
-1049
-1034
-1028
-1059
-1128
-1200
-1239
-1242
-1245
-1289
-1365
-1426
-1423
-1352
-1255
-1183
-1155
-1154
-1146
-1111
-1057
-1007
-978
-965
-954
-938
-926
-924
-923
-906
-872
-841
-830
-838
-845
-835
-812
-781
-742
-698
-654
-614
-575
-539
-523
-536
-535
-447
-250
-19
152
260
400
608
752
639
233
-281
-704
-1028
-1393
-1842
-2208
-2274
-2018
-1631
-1312
-1099
-913
-708
-530
-443
-450
-515
-609
-713
-787
-792
-728
-633
-541
-457
-380
-338
-357
-422
-484
-503
-480
-442
-406
-374
-354
-351
-350
-322
-254
-175
-124
-102
-78
-30
22
47
42
41
74
134
192
223
793
867
946
1030
1115
1191
1243
1270
1292
1337
1404
1465
1493
1496
1492
1484
1454
1389
1314
1271
1265
1267
1245
1196
1132
1056
964
869
792
738
672
554
380
197
63
-4
-38
-86
-173
-285
-391
-462
-497
-519
-554
-607
-671
-738
-811
-893
-977
-1051
-1110
-1161
-1207
-1244
-1269
-1293
-1332
-1386
-1432
-1448
-1443
-1454
-1502
-1564
-1598
-1588
-1562
-1556
-1566
-1551
-1491
-1418
-1378
-1381
-1385
-1348
-1269
-1186
-1123
-1075
-1023
-958
-886
-824
-787
-780
-789
-782
-735
-675
-650
-679
-707
-654
-512
-360
-292
-319
-360
-341
-273
-231
-262
-335
-376
-364
-343
-356
-385
-367
-270
-136
-38
-3
3
22
56
64
21
-59
-146
-228
-321
-441
-580
-710
-805
-854
-875
-895
-926
-955
-953
-915
-859
-811
-779
-752
-716
-670
-634
-632
-675
-721
-685
-514
-255
-30
105
208
355
488
428
65
-491
-1015
-1396
-1719
-2095
-2468
-2649
-2528
-2195
-1839
-1575
-1383
-1212
-1069
-1000
-1019
-1085
-1150
-1200
-1236
-1251
-1234
-1183
-1119
-1069
-1049
-1059
-1098
-1159
-1228
-1280
-1291
-1256
-1200
-1163
-1171
-1228
-1320
-1430
-1538
-1616
-1638
-1599
-1537
-1505
-1526
-1564
-1548
-1448
-1306
-1210
-1209
-1277
-1338
-1337
-1277
-1201
-1145
-1111
-1079
-1035
-984
-947
-948
-979
-1011
-1022
-1012
-999
-1000
-1015
-1033
-1040
-1012
-935
-841
-797
-852
-958
-1009
-939
-804
-722
-743
-795
-774
-665
-550
-507
-533
-571
-574
-553
-534
-535
-561
-613
-688
-765
-819
-837
-829
-817
-820
-853
-1389
-1368
-1320
-1254
-1198
-1187
-1232
-1380
-1365
-1400
-1431
-1468
-1482
-1438
-1352
-1283
-1270
-1291
-1280
-1200
-1087
-1008
-1002
-1040
-1064
-1035
-966
-892
-842
-809
-776
-736
-704
-683
-643
-552
-422
-318
-294
-324
-322
-245
-141
-85
-90
-87
-27
56
78
16
-71
-110
-102
-103
-152
-221
-267
-278
-272
-261
-233
-183
-134
-118
-144
-193
-240
-276
-297
-298
-282
-265
-261
-261
-246
-226
-231
-273
-313
-302
-251
-226
-279
-373
-425
-396
-339
-329
-372
-404
-390
-369
-394
-444
-427
-295
-109
30
103
191
342
459
373
27
-439
-821
-1057
-1261
-1546
-1851
-1975
-1796
-1401
-997
-722
-553
-404
-254
-157
-147
-185
-211
-215
-231
-269
-287
-231
-108
18
89
97
76
52
32
25
39
75
120
160
183
168
85
-59
-199
-258
-237
-218
-272
-371
-430
-425
-438
-547
-707
-792
-751
-679
-703
-823
-902
-819
-594
-355
-208
-160
-156
-143
-102
-36
40
96
113
113
146
241
365
447
448
391
332
284
194
12
-238
-454
-529
-442
-261
-67
108
266
393
450
423
379
410
547
722
848
921
1030
1241
1502
1670
1635
1412
1113
845
639
466
304
168
91
86
124
154
138
71
-18
-96
-146
-161
-147
-105
-42
39
125
198
234
214
145
62
15
40
135
274
422
565
704
832
921
939
882
793
728
701
669
580
437
302
229
220
232
239
256
313
409
512
585
614
608
581
535
467
375
271
181
116
55
-26
-124
-205
-247
-292
-398
-569
-724
-781
-750
-707
-704
-716
-695
-656
-662
-737
-826
-879
-930
-1056
-1257
-1426
-1454
-1353
-1222
-1113
-965
-695
-326
10
175
130
-69
-338
-617
-854
-1000
-1021
-912
-696
-385
26
533
1071
1526
1817
1962
2050
2108
2042
1727
1178
592
170
-70
-287
-614
-980
-1173
-1066
-740
-387
-134
25
154
276
365
390
348
253
126
0
-89
-119
-82
13
135
237
263
197
86
6
-10
5
-5
-43
-68
-60
-49
-76
-138
-190
-200
-178
-143
-103
-78
-135
-334
-646
-939
-1078
-1042
-930
-838
-769
-644
-405
-88
205
385
420
337
185
15
-129
-218
-249
-243
-223
-192
-134
-42
68
165
225
253
269
291
314
330
346
384
448
507
523
490
445
424
425
427
419
420
448
492
527
541
541
532
512
491
484
485
453
354
219
123
98
97
55
-26
-83
-72
-33
-30
-77
-129
-149
-140
-132
-138
-152
-173
-204
-232
-238
-223
-216
-248
-309
-361
-374
-349
-307
-278
-279
-301
-308
-273
-215
-193
-245
-344
-421
-443
-443
-461
-491
-499
-483
-484
-523
-560
-543
-473
-415
-410
-437
-449
-435
-431
-454
-475
-469
-464
-512
-639
-789
-871
-855
-803
-811
-905
-1008
-1026
-952
-866
-825
-773
-595
-241
193
546
718
734
690
652
592
391
-80
-835
-1709
-2433
-2831
-2961
-3044
-3240
-3491
-3597
-3443
-3112
-2807
-2668
-2645
-2594
-2440
-2228
-2035
-1857
-1626
-1312
-984
-729
-530
-312
-79
13
-198
-684
-1211
-1580
-1816
-2080
-2428
-2696
-2667
-2312
-1818
-1400
-1122
-915
-720
-560
-485
-486
-514
-547
-615
-724
-806
-779
-640
-490
-438
-505
-609
-659
-632
-578
-546
-538
-519
-455
-348
-230
-150
-132
-151
-146
-79
34
134
172
153
123
123
159
215
272
317
335
317
270
218
171
104
-20
-193
-348
-407
-356
-254
-166
-103
-25
88
195
243
228
194
177
170
160
155
178
233
295
346
408
507
634
734
772
770
782
843
939
1029
1083
1092
1066
1025
1010
1051
1143
1229
1243
1167
1060
1000
1022
1078
1093
1041
957
891
854
830
805
787
785
782
746
677
613
590
617
666
710
746
778
809
832
855
906
993
1080
1106
1057
991
986
1051
1110
1098
1039
1021
1079
1157
1176
1138
1105
1112
1113
1051
942
858
825
790
692
551
446
421
441
431
366
294
265
276
272
206
85
-48
-150
-225
-303
-409
-530
-636
-705
-742
-761
-774
-786
-806
-834
-853
-850
-834
-837
-878
-940
-987
-1012
-1035
-1072
-1112
-1136
-1149
-1183
-1258
-1364
-1475
-1572
-1650
-1711
-1760
-1798
-1826
-1817
-1747
-1617
-1476
-1375
-1306
-1205
-1038
-850
-725
-671
-607
-485
-397
-516
-914
-1453
-1929
-2269
-2584
-2985
-3413
-3677
-3653
-3417
-3153
-2978
-2871
-2762
-2643
-2572
-2589
-2680
-2788
-2876
-2934
-2951
-2911
-2808
-2676
-2566
-2503
-2463
-2404
-2311
-2202
-2094
-1986
-1873
-1764
-1671
-1591
-1510
-1431
-1379
-1362
-1345
-1290
-1206
-1135
-1091
-1041
-960
-885
-871
-917
-952
-921
-852
-814
-819
-809
-726
-592
-472
-397
-334
-241
-123
-9
100
230
387
540
655
740
838
969
1103
1196
1242
1286
1364
1476
1592
1695
1799
1919
2049
2166
2255
2327
2403
2483
2548
2579
2587
2599
2618
2613
2540
2401
2250
2143
2068
1952
1755
1516
1325
1219
1147
1036
870
689
527
365
162
-89
-360
-627
-893
-1173
-1455
-1709
-1912
-2069
-2202
-2327
-2450
-2571
-2670
-2725
-2735
-2731
-2762
-2839
-2921
-2941
-2893
-2827
-2800
-2808
-2798
-2743
-2664
-2595
-2539
-2472
-2388
-2307
-2247
-2192
-2122
-2043
-1976
-1917
-1828
-1689
-1527
-1392
-1304
-1230
-1126
-989
-849
-748
-699
-687
-681
-651
-594
-526
-462
-397
-320
-237
-176
-148
-122
-59
43
131
161
143
121
117
105
56
-17
-74
-95
-111
-164
-264
-376
-454
-481
-475
-472
-501
-569
-658
-737
-794
-846
-903
-946
-943
-902
-877
-900
-915
-815
-558
-218
92
342
570
770
840
689
373
55
-167
-358
-630
-955
-1148
-1034
-627
-79
478
1007
1502
1926
2263
2575
2945
3361
3732
4046
4451
5103
5932
6636
6951
6900
6717
6551
6287
5707
4780
3753
2956
2545
2425
2380
2254
2042
1848
1765
1787
1823
1791
1690
1573
1483
1419
1377
1379
1443
1526
1542
1447
1280
1110
982
901
870
899
973
1042
1053
1002
938
905
904
908
897
886
899
940
988
1025
1052
1081
1115
1147
1173
1190
1197
1191
1186
1205
1261
1325
1346
1291
1193
1120
1111
1146
1167
1138
1064
975
885
780
646
493
354
243
135
-8
-199
-401
-558
-653
-717
-788
-871
-940
-984
-1027
-1103
-1207
-1292
-1321
-1300
-1281
-1310
-1385
-1463
-1499
-1482
-1436
-1395
-1376
-1376
-1384
-1394
-1400
-1390
-1350
-1275
-1188
-1121
-1092
-1083
-1053
-976
-863
-761
-711
-718
-749
-762
-755
-763
-821
-921
-1015
-1059
-1056
-1050
-1073
-1123
-1174
-1221
-1289
-1404
-1565
-1744
-1905
-2028
-2119
-2201
-2287
-2364
-2411
-2417
-2400
-2401
-2442
-2514
-2597
-2674
-2736
-2774
-2788
-2789
-2798
-2824
-2858
-2887
-2915
-2951
-2991
-3018
-3028
-3045
-3089
-3147
-3183
-3175
-3137
-3097
-3071
-3059
-3065
-3091
-3130
-3158
-3148
-3079
-2942
-2748
-2522
-2287
-2031
-1698
-1254
-761
-381
-261
-408
-679
-905
-1032
-1121
-1234
-1326
-1271
-993
-552
-103
231
444
596
727
820
853
829
774
704
633
600
664
838
1051
1190
1201
1128
1063
1062
1120
1202
1285
1360
1428
1484
1529
1570
1626
1713
1819
1907
1948
1957
1987
2063
2151
2188
2149
2076
2021
1993
1966
1930
1913
1936
1983
2007
1983
1929
1879
1856
1863
1890
1925
1954
1961
1944
1916
1902
1923
1988
2078
2150
2167
2125
2065
2035
2045
2067
2062
2017
1949
1872
1792
1711
1635
1577
1539
1502
1430
1303
1141
995
907
877
866
832
765
677
581
487
403
348
325
303
246
150
56
5
-2
-3
-23
-49
-57
-54
-76
-145
-238
-307
-328
-313
-297
-300
-322
-348
-366
-366
-345
-303
-253
-213
-199
-214
-244
-263
-254
-227
-205
-203
-205
-196
-181
-187
-222
-256
-249
-198
-151
-157
-222
-293
-321
-300
-278
-304
-386
-491
-579
-642
-705
-787
-885
-973
-1039
-1092
-1151
-1219
-1286
-1341
-1382
-1424
-1474
-1534
-1590
-1627
-1639
-1640
-1652
-1685
-1722
-1741
-1736
-1723
-1720
-1730
-1741
-1744
-1739
-1727
-1707
-1676
-1638
-1606
-1585
-1571
-1557
-1547
-1550
-1551
-1515
-1426
-1322
-1259
-1233
-1162
-961
-644
-301
9
314
640
897
919
641
198
-204
-505
-827
-1285
-1799
-2141
-2146
-1866
-1499
-1200
-983
-789
-600
-467
-429
-463
-505
-519
-523
-541
-557
-525
-429
-313
-243
-243
-285
-331
-368
-403
-428
-424
-382
-316
-254
-214
-202
-209
-218
-208
-173
-131
-100
-77
-46
-1
44
70
92
140
224
316
377
390
376
364
367
384
412
449
492
530
561
595
644
717
805
887
945
971
970
962
969
997
1034
1068
1089
1097
1097
1093
1093
1107
1139
1170
1180
1164
1140
1123
1100
1048
972
917
922
968
984
928
840
794
822
879
895
849
777
712
660
607
558
532
531
527
492
434
382
354
343
332
315
300
285
261
227
205
213
243
264
254
227
217
229
235
218
195
205
251
296
297
254
212
207
231
252
247
229
216
206
190
160
130
118
133
165
193
200
185
164
156
162
166
144
87
7
-77
-151
-220
-285
-340
-373
-384
-380
-376
-383
-399
-414
-424
-425
-422
-415
-409
-412
-430
-456
-473
-466
-440
-422
-432
-460
-478
-476
-466
-471
-485
-485
-456
-413
-398
-433
-489
-504
-452
-371
-329
-338
-325
-209
3
237
445
650
877
1046
1001
683
218
-210
-543
-887
-1328
-1778
-2032
-1981
-1711
-1395
-1132
-909
-694
-506
-393
-371
-419
-510
-620
-714
-750
-722
-661
-600
-551
-510
-486
-505
-562
-617
-631
-606
-576
-560
-543
-501
-439
-386
-363
-365
-372
-364
-332
-285
-248
-238
-242
-228
-181
-127
-104
-121
-142
-139
-114
-89
-80
-82
-87
-98
-108
-97
-54
-1
30
26
20
47
113
183
219
215
207
233
301
381
431
437
424
433
484
550
584
567
526
506
525
555
559
529
501
504
532
546
520
463
412
383
367
338
284
215
149
92
36
-22
-72
-99
-105
-118
-163
-235
-297
-311
-291
-283
-320
-383
-428
-435
-427
-427
-429
-407
-359
-323
-332
-377
-418
-425
-411
-408
-430
-463
-477
-455
-402
-341
-293
-265
-245
-215
-179
-158
-170
-211
-255
-278
-275
-256
-237
-223
-212
-193
-160
-115
-79
-74
-99
-143
-194
-253
-320
-379
-419
-438
-452
-472
-493
-501
-497
-490
-487
-489
-498
-510
-516
-505
-491
-496
-525
-552
-546
-508
-473
-467
-482
-489
-472
-443
-417
-399
-384
-375
-380
-398
-413
-419
-409
-373
-303
-218
-172
-192
-221
-155
44
294
483
596
713
863
933
774
386
-63
-419
-703
-1040
-1445
-1765
-1823
-1605
-1258
-938
-685
-460
-249
-85
-6
1
-26
-59
-97
-138
-167
-164
-117
-39
35
68
50
4
-33
-40
-17
22
64
109
156
195
212
200
173
155
165
200
240
262
259
242
230
236
262
293
314
316
308
302
299
292
283
284
304
337
367
386
399
414
432
457
496
544
581
582
550
525
541
596
651
675
672
673
696
732
760
772
774
776
781
790
800
799
778
737
702
697
721
736
711
651
590
552
520
467
389
319
285
270
238
178
124
107
121
122
76
-2
-75
-122
-156
-197
-241
-271
-282
-288
-301
-314
-313
-296
-279
-275
-273
-258
-233
-221
-236
-260
-265
-237
-198
-174
-173
-179
-171
-141
-101
-78
-91
-138
-188
-217
-221
-221
-234
-254
-251
-208
-141
-87
-73
-92
-114
-124
-131
-158
-218
-294
-353
-377
-387
-415
-466
-516
-529
-508
-492
-516
-571
-622
-644
-645
-647
-652
-650
-638
-629
-629
-627
-612
-590
-581
-594
-615
-627
-623
-615
-608
-601
-583
-551
-512
-486
-491
-516
-533
-520
-491
-476
-471
-425
-296
-105
84
251
437
658
814
752
428
-25
-416
-689
-940
-1265
-1608
-1803
-1742
-1476
-1154
-890
-709
-579
-480
-412
-385
-405
-471
-567
-658
-700
-671
-588
-492
-420
-388
-390
-415
-445
-469
-475
-459
-420
-370
-325
-301
-297
-294
-271
-228
-191
-188
-209
-223
-203
-163
-138
-141
-144
-117
-67
-32
-41
-74
-85
-53
-2
29
24
2
-9
7
48
104
156
188
198
198
207
225
246
264
287
322
361
389
404
420
454
500
539
563
580
601
623
636
641
651
672
691
695
688
681
672
650
608
563
540
539
531
494
436
386
362
357
349
328
298
264
225
187
157
138
122
102
74
44
12
-26
-66
-90
-82
-54
-34
-40
-62
-71
-59
-40
-32
-29
-16
7
24
25
22
33
59
85
101
112
125
130
113
83
65
74
95
99
78
52
45
60
83
100
112
121
119
95
44
-24
-87
-131
-159
-188
-231
-283
-323
-339
-334
-326
-327
-331
-335
-338
-345
-352
-352
-340
-323
-309
-302
-298
-292
-285
-287
-304
-331
-349
-344
-317
-290
-288
-307
-316
-293
-256
-239
-245
-243
-207
-158
-133
-120
-55
104
316
512
680
861
1043
1107
933
543
107
-230
-489
-791
-1177
-1514
-1623
-1459
-1145
-850
-645
-501
-369
-254
-198
-219
-293
-375
-436
-471
-484
-470
-417
-332
-245
-197
-206
-256
-311
-338
-329
-298
-263
-234
-213
-201
-198
-202
-205
-199
-186
-173
-161
-144
-119
-91
-77
-80
-88
-84
-69
-53
-40
-24
-3
15
19
15
20
45
77
99
104
104
109
122
135
151
176
209
239
257
268
280
296
315
337
366
402
430
438
432
431
447
474
495
507
520
536
546
542
529
523
529
533
522
492
452
415
383
353
324
297
274
253
230
199
161
125
100
87
76
53
18
-17
-41
-58
-80
-107
-126
-127
-120
-120
-133
-147
-147
-133
-118
-109
-105
-101
-98
-98
-94
-73
-30
17
46
52
52
64
91
116
128
128
124
120
112
97
78
67
71
89
111
123
116
92
65
42
17
-28
-97
-175
-237
-278
-318
-368
-414
-425
-394
-349
-331
-347
-372
-381
-379
-383
-398
-409
-405
-394
-392
-398
-394
-367
-326
-298
-296
-315
-336
-347
-347
-343
-335
-320
-301
-292
-301
-310
-292
-247
-214
-216
-211
-126
56
266
438
602
842
1142
1333
1237
859
397
31
-248
-577
-1010
-1414
-1597
-1497
-1225
-943
-730
-566
-408
-257
-152
-122
-165
-247
-329
-380
-390
-366
-314
-245
-180
-142
-143
-175
-211
-228
-217
-183
-136
-90
-54
-35
-32
-37
-44
-43
-29
-5
20
33
27
13
9
25
51
70
76
77
82
99
127
160
189
203
200
188
183
192
210
227
243
269
305
343
369
387
413
458
511
550
572
588
609
631
638
634
640
667
700
708
685
655
651
675
700
699
676
654
644
637
618
585
551
524
502
478
448
413
374
333
293
263
240
212
170
116
62
15
-28
-73
-116
-146
-161
-170
-187
-215
-240
-246
-229
-203
-184
-180
-182
-182
-180
-182
-187
-187
-170
-138
-106
-87
-80
-73
-50
-6
48
91
103
82
45
21
17
21
13
-6
-20
-13
12
37
48
49
53
63
69
47
-16
-109
-202
-265
-292
-307
-336
-383
-429
-455
-457
-451
-450
-458
-471
-479
-479
-475
-469
-462
-452
-431
-405
-383
-377
-388
-401
-404
-395
-384
-376
-372
-373
-381
-393
-396
-383
-372
-380
-399
-397
-361
-325
-322
-324
-259
-94
122
322
506
725
952
1044
870
464
15
-329
-606
-953
-1397
-1776
-1891
-1705
-1363
-1047
-819
-634
-445
-271
-172
-175
-248
-334
-395
-418
-416
-397
-360
-301
-229
-163
-128
-130
-159
-189
-197
-178
-144
-109
-83
-66
-63
-73
-91
-103
-91
-51
4
49
65
54
39
40
59
78
86
86
95
116
135
139
129
120
125
140
155
169
189
220
252
279
305
340
386
432
462
474
482
502
542
592
636
665
682
694
704
712
715
712
709
710
717
723
718
702
681
665
658
650
633
606
567
519
466
418
389
374
352
306
241
182
141
106
57
-1
-47
-69
-89
-133
-203
-265
-291
-282
-265
-266
-286
-311
-322
-315
-295
-272
-256
-246
-233
-214
-196
-186
-184
-178
-161
-137
-120
-112
-107
-92
-67
-40
-21
-14
-15
-17
-24
-41
-75
-111
-128
-114
-75
-36
-14
-8
-4
6
16
6
-41
-122
-215
-293
-345
-383
-427
-479
-514
-510
-470
-428
-416
-436
-466
-480
-475
-463
-457
-460
-470
-480
-485
-478
-454
-419
-387
-370
-368
-374
-380
-382
-378
-367
-350
-333
-321
-327
-349
-368
-356
-309
-260
-242
-239
-191
-61
120
293
457
658
893
1039
944
586
122
-271
-563
-864
-1245
-1620
-1808
-1720
-1432
-1100
-828
-614
-418
-234
-97
-46
-81
-161
-239
-281
-283
-250
-193
-122
-60
-29
-34
-58
-77
-83
-81
-71
-47
-4
44
70
64
42
30
41
60
69
65
62
76
103
126
137
137
136
137
138
142
158
189
220
234
232
234
256
291
319
333
347
379
424
461
477
482
499
538
586
630
664
694
723
748
770
792
820
850
873
881
872
856
843
840
846
855
862
863
856
841
818
792
765
741
715
676
617
539
457
388
342
312
279
235
183
138
103
70
32
-3
-20
-19
-21
-51
-105
-155
-173
-164
-155
-169
-195
-208
-198
-180
-172
-179
-186
-180
-168
-166
-179
-194
-194
-173
-139
-106
-79
-56
-31
-5
13
14
-3
-24
-35
-31
-20
-16
-22
-26
-13
19
59
87
94
76
37
-18
-88
-162
-230
-287
-331
-374
-419
-462
-486
-482
-459
-439
-438
-454
-470
-477
-483
-497
-516
-521
-507
-487
-481
-491
-499
-492
-479
-474
-473
-461
-434
-414
-422
-449
-461
-435
-389
-366
-381
-400
-385
-340
-302
-294
-274
-182
-15
164
303
435
623
838
932
766
371
-73
-420
-693
-1009
-1392
-1705
-1778
-1589
-1268
-969
-744
-562
-393
-254
-179
-179
-239
-337
-450
-543
-587
-578
-535
-487
-453
-438
-449
-483
-526
-553
-549
-519
-482
-449
-423
-407
-410
-437
-469
-475
-440
-381
-334
-318
-319
-310
-287
-269
-269
-278
-274
-251
-227
-218
-216
-200
-161
-111
-67
-36
-14
5
20
35
60
97
135
159
169
180
207
251
298
343
387
434
480
517
547
575
607
637
660
670
671
669
668
667
663
655
646
639
634
623
597
552
495
437
388
344
301
252
194
128
63
13
-16
-32
-52
-89
-141
-193
-235
-273
-318
-365
-402
-426
-448
-481
-521
-550
-558
-551
-542
-540
-544
-551
-560
-569
-573
-570
-568
-570
-573
-566
-543
-519
-511
-522
-531
-517
-481
-450
-455
-500
-554
-584
-580
-566
-567
-589
-615
-624
-616
-604
-600
-602
-604
-609
-632
-685
-767
-857
-930
-976
-1005
-1041
-1095
-1148
-1174
-1167
-1151
-1156
-1187
-1219
-1229
-1227
-1239
-1275
-1317
-1335
-1321
-1293
-1277
-1279
-1290
-1298
-1300
-1301
-1300
-1296
-1289
-1279
-1276
-1279
-1277
-1263
-1245
-1238
-1243
-1241
-1225
-1216
-1236
-1261
-1227
-1102
-933
-780
-635
-437
-199
-65
-191
-572
-1022
-1373
-1639
-1964
-2405
-2824
-3008
-2883
-2565
-2236
-1983
-1788
-1611
-1458
-1369
-1365
-1427
-1518
-1609
-1682
-1723
-1724
-1685
-1620
-1555
-1513
-1503
-1521
-1554
-1590
-1624
-1645
-1647
-1628
-1598
-1573
-1573
-1600
-1640
-1663
-1655
-1625
-1599
-1592
-1599
-1602
-1601
-1608
-1632
-1657
-1661
-1641
-1620
-1612
-1605
-1580
-1541
-1510
-1495
-1476
-1431
-1370
-1325
-1310
-1301
-1270
-1212
-1151
-1103
-1061
-1014
-969
-935
-909
-873
-820
-764
-727
-712
-704
-690
-671
-658
-657
-663
-670
-679
-692
-711
-733
-759
-785
-805
-818
-834
-869
-925
-989
-1042
-1083
-1127
-1182
-1244
-1299
-1350
-1404
-1465
-1520
-1559
-1586
-1615
-1645
-1664
-1670
-1679
-1710
-1757
-1793
-1803
-1800
-1811
-1849
-1900
-1940
-1953
-1946
-1930
-1921
-1921
-1920
-1909
-1892
-1883
-1892
-1907
-1904
-1876
-1839
-1822
-1834
-1854
-1855
-1825
-1781
-1756
-1769
-1809
-1848
-1862
-1856
-1847
-1845
-1847
-1835
-1802
-1754
-1708
-1676
-1664
-1670
-1687
-1715
-1761
-1831
-1916
-1996
-2056
-2104
-2153
-2199
-2221
-2212
-2193
-2195
-2219
-2244
-2248
-2236
-2234
-2252
-2280
-2298
-2300
-2294
-2285
-2274
-2253
-2222
-2195
-2190
-2212
-2242
-2250
-2228
-2193
-2173
-2170
-2162
-2138
-2115
-2105
-2084
-2027
-1958
-1936
-1985
-2029
-1975
-1816
-1646
-1530
-1419
-1235
-1027
-980
-1222
-1671
-2109
-2421
-2691
-3052
-3478
-3785
-3820
-3611
-3307
-3019
-2757
-2498
-2262
-2095
-2014
-1995
-2013
-2065
-2139
-2193
-2188
-2127
-2046
-1980
-1937
-1908
-1891
-1888
-1893
-1888
-1867
-1843
-1827
-1815
-1791
-1760
-1742
-1753
-1774
-1772
-1735
-1684
-1643
-1619
-1595
-1564
-1536
-1534
-1562
-1602
-1627
-1627
-1613
-1605
-1608
-1613
-1609
-1592
-1568
-1540
-1505
-1467
-1437
-1419
-1409
-1387
-1349
-1306
-1274
-1253
-1223
-1171
-1103
-1043
-1005
-980
-948
-900
-848
-811
-793
-787
-790
-802
-823
-836
-828
-800
-782
-797
-838
-875
-878
-859
-855
-886
-944
-997
-1028
-1047
-1079
-1129
-1182
-1218
-1242
-1268
-1307
-1354
-1395
-1424
-1443
-1457
-1468
-1481
-1502
-1532
-1560
-1576
-1583
-1590
-1604
-1619
-1623
-1615
-1602
-1590
-1579
-1561
-1535
-1505
-1481
-1469
-1469
-1471
-1465
-1440
-1398
-1349
-1304
-1266
-1234
-1210
-1196
-1191
-1185
-1175
-1166
-1178
-1212
-1244
-1251
-1234
-1222
-1233
-1257
-1266
-1255
-1253
-1288
-1348
-1398
-1416
-1424
-1456
-1523
-1597
-1646
-1665
-1679
-1704
-1736
-1752
-1747
-1738
-1745
-1772
-1802
-1814
-1807
-1798
-1801
-1812
-1813
-1800
-1778
-1758
-1742
-1725
-1705
-1684
-1671
-1667
-1669
-1674
-1676
-1669
-1647
-1611
-1579
-1570
-1584
-1589
-1554
-1483
-1418
-1395
-1383
-1319
-1182
-1018
-885
-776
-645
-518
-516
-743
-1156
-1585
-1903
-2142
-2410
-2718
-2934
-2915
-2662
-2312
-1997
-1745
-1518
-1308
-1152
-1084
-1091
-1136
-1189
-1240
-1272
-1263
-1207
-1127
-1062
-1032
-1031
-1044
-1067
-1098
-1128
-1135
-1106
-1054
-1006
-978
-965
-948
-920
-896
-888
-896
-907
-911
-908
-905
-902
-900
-901
-910
-922
-926
-914
-889
-868
-857
-845
-817
-778
-742
-718
-698
-671
-635
-603
-577
-559
-545
-537
-535
-521
-485
-436
-398
-383
-376
-353
-314
-283
-278
-291
-291
-262
-223
-207
-219
-230
-211
-165
-134
-145
-184
-216
-226
-233
-263
-315
-359
-374
-374
-386
-422
-469
-511
-540
-563
-584
-603
-619
-638
-665
-697
-724
-739
-746
-756
-780
-816
-855
-888
-915
-938
-958
-970
3976
3939
3928
3928
3922
3908
3896
3890
3877
3838
3774
3708
3671
3662
3652
3608
3539
3487
3482
3504
3508
3471
3420
3399
3414
3429
3415
3383
3376
3413
3475
3525
3548
3557
3578
3615
3658
3693
3721
3750
3788
3834
3880
3921
3956
3990
4026
4064
4102
4133
4150
4152
4151
4163
4194
4232
4256
4259
4249
4238
4230
4227
4229
4233
4228
4204
4165
4127
4105
4095
4085
4081
4093
4114
4114
4080
4033
4013
4027
4042
4020
3967
3920
3901
3897
3887
3876
3887
3923
3961
3976
3969
3961
3961
3952
3920
3877
3853
3860
3884
3905
3921
3960
4037
4137
4225
4278
4299
4309
4321
4329
4320
4294
4265
4252
4259
4276
4294
4308
4322
4335
4346
4349
4347
4343
4343
4344
4339
4323
4301
4287
4289
4304
4312
4299
4268
4238
4224
4224
4231
4236
4225
4190
4141
4109
4116
4134
4105
4005
3873
3764
3682
3591
3500
3504
3695
4051
4438
4742
4975
5223
5502
5701
5698
5478
5153
4852
4624
4437
4259
4103
4010
3999
4049
4119
4168
4177
4148
4100
4045
3997
3962
3948
3957
3977
3994
3998
3986
3964
3939
3913
3895
3893
3901
3909
3906
3898
3902
3918
3928
3911
3869
3832
3819
3821
3816
3799
3787
3794
3799
3771
3713
3666
3662
3687
3700
3677
3635
3605
3594
3583
3557
3522
3489
3461
3430
3392
3358
3333
3319
3310
3301
3290
3277
3258
3235
3211
3193
3184
3183
3180
3170
3158
3151
3152
3151
3140
3121
3112
3119
3136
3147
3151
3158
3179
3217
3269
3330
3389
3432
3449
3456
3478
3528
3593
3648
3682
3703
3723
3747
3769
3785
3797
3814
3836
3857
3868
3866
3862
3869
3894
3922
3935
3929
3912
3901
3898
3895
3885
3871
3862
3861
3859
3847
3826
3802
3776
3751
3730
3720
3723
3723
3706
3672
3645
3652
3687
3721
3733
3725
3718
3725
3735
3736
3722
3699
3677
3666
3672
3693
3715
3729
3748
3797
3883
3975
4035
4056
4071
4113
4173
4213
4218
4213
4230
4264
4283
4264
4230
4218
4237
4261
4263
4247
4235
4235
4235
4227
4221
4227
4240
4237
4212
4185
4177
4186
4188
4173
4160
4173
4202
4204
4157
4091
4063
4085
4097
4026
3879
3732
3638
3561
3438
3302
3298
3534
3945
4337
4580
4737
4954
5265
5526
5557
5335
5002
4722
4543
4412
4278
4154
4083
4078
4114
4160
4203
4235
4238
4202
4143
4100
4096
4115
4125
4115
4104
4108
4108
4077
4016
3960
3937
3941
3941
3926
3915
3934
3982
4030
4046
4024
3991
3982
4007
4038
4029
3968
3893
3852
3857
3872
3861
3830
3818
3842
3877
3890
3869
3827
3778
3726
3681
3659
3657
3655
3626
3574
3527
3508
3510
3512
3502
3479
3446
3399
3343
3301
3294
3318
3338
3319
3261
3199
3173
3188
3220
3239
3237
3231
3240
3273
3321
3365
3397
3425
3461
3509
3558
3594
3611
3623
3651
3700
3755
3789
3795
3798
3829
3890
3941
3938
3898
3902
4017
4212
4375
4416
4359
4307
4324
4362
4332
4208
4054
3950
3913
3912
3920
3946
4001
4063
4094
4076
4026
3967
3906
3846
3797
3767
3752
3737
3714
3698
3706
3737
3770
3784
3780
3765
3741
3709
3677
3663
3676
3701
3716
3715
3721
3760
3842
3955
4068
4149
4183
4196
4238
4337
4459
4541
4557
4548
4569
4625
4657
4608
4479
4323
4186
4082
4000
3939
3914
3941
4016
4112
4199
4259
4298
4342
4394
4426
4401
4319
4236
4206
4222
4233
4208
4184
4218
4297
4348
4327
4286
4319
4421
4466
4335
4050
3746
3511
3323
3127
2965
2957
3167
3531
3929
4300
4647
4988
5297
5512
5575
5463
5199
4876
4612
4463
4387
4308
4198
4113
4094
4114
4115
4100
4121
4179
4199
4130
4016
3971
4039
4141
4173
4121
4065
4044
4024
3967
3892
3864
3908
3969
3978
3930
3870
3846
3871
3917
3944
3929
3887
3869
3916
4012
4072
4040
3945
3883
3904
3964
3974
3907
3833
3824
3882
3943
3936
3868
3797
3761
3745
3700
3627
3585
3630
3748
3884
4004
4108
4175
4149
4023
3893
3863
3895
3814
3525
3195
3107
3339
3638
3698
3523
3394
3496
3696
3728
3542
3369
3404
3574
3658
3591
3539
3662
3906
4085
4096
4013
3975
4051
4200
4340
4422
4456
4501
4621
4818
5008
5087
5047
4998
5068
5286
5535
5643
5548
5362
5303
5487
5775
5864
5570
5042
4629
4517
4540
4421
4109
3812
3708
3745
3758
3721
3791
4055
4344
4370
4080
3769
3798
4224
4760
5095
5229
5426
5865
6367
6567
6298
5766
5287
4949
4582
4041
3431
3012
2938
3134
3420
3686
3907
4063
4140
4193
4307
4481
4607
4583
4484
4546
4891
5386
5767
5935
6055
6349
6837
7322
7643
7876
8223
8740
9233
9466
9420
9300
9287
9373
9418
9330
9155
8987
8886
8850
8867
8900
8861
8691
8475
8420
8628
8934
9039
8837
8540
8435
8522
8541
8353
8177
8321
8772
9204
9406
9563
10037
10863
11604
11789
11401
10841
10479
10344
10257
10152
10156
10361
10652
10844
10934
11123
11516
11886
11818
11123
10072
9162
8672
8454
8177
7700
7196
6935
7004
7269
7549
7750
7852
7837
7705
7528
7437
7461
7477
7336
7055
6803
6702
6678
6548
6269
6003
5897
5887
5775
5495
5203
5096
5188
5314
5320
5202
5049
4913
4787
4653
4512
4366
4192
3972
3741
3574
3501
3458
3345
3135
2920
2829
2891
2979
2923
2710
2510
2479
2560
2514
2171
1617
1092
750
570
460
411
483
660
835
931
993
1116
1280
1348
1214
937
690
608
714
965
1301
1653
1919
2045
2086
2140
2207
2166
1934
1606
1367
1297
1355
1546
1997
2743
3501
3827
3570
3087
2890
3077
3215
2833
1970
1129
749
815
987
1013
923
879
946
1077
1223
1402
1615
1781
1799
1698
1645
1783
2089
2374
2466
2379
2270
2257
2321
2361
2333
2257
2173
2170
2418
3051
3922
4554
4514
3884
3255
3122
3350
3342
2749
1888
1398
1571
2114
2548
2673
2615
2524
2402
2205
1980
1854
1878
1978
2048
2077
2159
2367
2666
2922
2994
2873
2684
2594
2691
2955
3312
3669
3907
3906
3643
3255
2918
2653
2323
1879
1542
1631
2179
2786
2968
2632
2143
1897
1917
1938
1785
1614
1681
2059
2612
3197
3790
4389
4907
5207
5231
5047
4768
4522
4442
4617
4979
5305
5378
5177
4863
4585
4335
4014
3586
3136
2784
2610
2640
2879
3300
3791
4167
4280
4155
3994
3994
4153
4266
4175
3979
3971
4323
4880
5312
5443
5368
5245
5067
4730
4240
3766
3460
3294
3143
2991
2966
3153
3458
3686
3769
3801
3873
3937
3890
3752
3682
3790
3986
4087
4039
3998
4135
4447
4761
4921
4884
4670
4296
3833
3437
3235
3170
3031
2700
2348
2291
2659
3229
3598
3551
3257
3074
3187
3444
3523
3326
3105
3208
3667
4104
4100
3637
3095
2825
2798
2702
2358
1939
1762
1953
2374
2802
3120
3328
3441
3441
3334
3205
3195
3391
3771
4218
4613
4858
4930
4888
4845
4865
4900
4857
4746
4764
5115
5738
6287
6462
6315
6161
6181
6221
6031
5625
5299
5294
5549
5831
6028
6218
6503
6863
7162
7294
7241
7051
6816
6611
6479
6395
6325
6322
6529
6994
7542
7883
7884
7685
7549
7591
7661
7504
7047
6484
6098
6048
6270
6592
6856
6981
6953
6810
6624
6468
6367
6278
6169
6062
6018
6088
6282
6586
6942
7238
7360
7246
6997
6838
6941
7269
7593
7703
7634
7655
7999
8567
8961
8842
8261
7599
7214
7129
7083
6831
6393
6054
6124
6651
7338
7763
7757
7557
7585
7963
8364
8372
7982
7622
7670
8016
8201
7945
7460
7144
7116
7136
6993
6771
6722
6927
7193
7288
7213
7180
7328
7558
7643
7442
7053
6746
6765
7153
7682
8012
7944
7568
7134
6771
6405
5936
5442
5124
5048
5040
4917
4723
4688
4913
5189
5186
4811
4298
3983
3990
4189
4374
4435
4414
4409
4489
4626
4729
4712
4583
4444
4381
4358
4290
4188
4202
4405
4622
4541
4087
3590
3478
3796
4109
3999
3540
3213
3350
3754
3875
3378
2454
1616
1244
1308
1471
1452
1296
1339
1857
2704
3380
3476
3087
2684
2586
2613
2354
1693
999
723
957
1390
1687
1788
1851
1989
2174
2322
2402
2451
2484
2496
2506
2534
2556
2550
2535
2587
2812
3214
3622
3802
3656
3348
3151
3186
3306
3287
3104
2957
3008
3181
3254
3117
2876
2636
2344
1872
1254
719
453
431
514
650
917
1348
1815
2146
2283
2303
2290
2248
2133
1953
1798
1768
1890
2097
2276
2361
2436
2658
3049
3392
3409
3096
2775
2780
3078
3279
3063
2564
2286
2616
3436
4203
4401
3957
3252
2762
2645
2621
2288
1578
882
700
1145
1835
2297
2406
2419
2568
2778
2824
2680
2554
2634
2855
3035
3149
3357
3728
4030
3931
3374
2682
2213
1992
1756
1357
1010
1057
1532
2068
2286
2204
2176
2441
2840
3031
2893
2647
2563
2643
2669
2495
2211
1998
1930
1930
1911
1869
1850
1875
1938
2081
2376
2783
3105
3113
2773
2289
1897
1670
1505
1332
1247
1404
1804
2261
2595
2763
2809
2736
2516
2195
1898
1679
1470
1203
965
939
1167
1449
1544
1420
1277
1305
1479
1610
1562
1399
1293
1354
1541
1707
1752
1693
1624
1596
1563
1475
1356
1290
1318
1374
1364
1265
1142
1044
955
840
716
640
632
642
623
576
520
444
329
205
158
269
527
837
1096
1231
1187
953
589
224
-37
-221
-455
-795
-1113
-1164
-820
-207
378
696
738
677
675
726
706
527
250
51
48
218
472
782
1184
1656
2064
2263
2235
2096
1952
1793
1543
1182
820
633
758
1207
1838
2403
2679
2628
2427
2294
2248
2069
1546
776
174
151
742
1577
2205
2438
2425
2415
2483
2485
2237
1727
1159
788
730
911
1187
1511
1903
2316
2570
2550
2394
2404
2706
3061
3119
2871
2697
2905
3335
3532
3290
2869
2635
2596
2452
2056
1643
1525
1682
1794
1656
1418
1373
1613
1953
2156
2152
2038
1941
1927
1984
2050
2063
2024
1986
1998
2032
2025
1985
1991
2067
2116
2047
1950
2046
2407
2795
2874
2571
2142
1863
1702
1377
733
-6
-420
-298
190
711
1104
1469
1961
2537
2921
2854
2337
1651
1089
735
447
85
-301
-505
-373
55
598
1071
1375
1491
1431
1235
989
800
746
806
878
837
641
405
337
532
810
830
416
-217
-612
-501
-47
343
435
366
438
765
1180
1437
1448
1313
1148
981
806
690
735
938
1147
1200
1128
1128
1324
1590
1674
1468
1153
1000
1094
1285
1377
1305
1184
1207
1499
2034
2629
3032
3117
2985
2860
2865
2912
2822
2532
2169
1970
2119
2655
3437
4185
4649
4779
4760
4820
5009
5178
5170
5005
4875
4980
5392
6067
6892
7737
8486
9061
9439
9673
9848
10030
10243
10472
10698
10944
11270
11708
12206
12641
12908
12999
12992
12987
13032
13122
13227
13344
13512
13761
14072
14372
14607
14787
14952
15096
15159
15107
15018
15047
15248
15509
15672
15720
15807
16060
16397
16627
16699
16808
17183
17767
18209
18213
17876
17602
17668
17911
17912
17476
16877
16604
16878
17478
18011
18296
18461
18693
19011
19287
19437
19511
19601
19713
19769
19741
19703
19765
19938
20125
20248
20307
20335
20288
20062
19649
19205
18923
18803
18624
18190
17601
17186
17149
17322
17341
17060
16699
16558
16644
16664
16385
15912
15576
15564
15726
15770
15588
15335
15203
15178
15074
14771
14377
14119
14060
14020
13822
13559
13517
13837
14299
14517
14329
13929
13625
13557
13648
13729
13656
13339
12804
12260
11976
11998
12027
11696
11006
10375
10196
10421
10636
10534
10212
9973
9966
10064
10088
10016
9949
9938
9912
9808
9684
9644
9695
9714
9581
9325
9100
9002
8942
8780
8560
8548
8949
9622
10190
10427
10476
10595
10757
10628
9978
9010
8179
7717
7462
7159
6827
6735
7035
7569
8042
8320
8473
8569
8544
8336
8026
7803
7750
7742
7604
7326
7094
7064
7194
7286
7178
6882
6532
6258
6125
6114
6161
6163
6006
5656
5223
4903
4802
4839
4826
4660
4415
4265
4315
4511
4715
4837
4875
4874
4886
4969
5168
5452
5682
5713
5565
5449
5558
5852
6101
6160
6141
6242
6499
6747
6832
6773
6693
6663
6644
6592
6544
6592
6797
7132
7458
7579
7379
6937
6475
6147
5884
5509
4990
4536
4402
4617
4967
5217
5295
5271
5208
5126
5012
4859
4663
4422
4176
3994
3931
3973
4045
4096
4106
4063
3968
3862
3829
3916
4060
4123
4003
3744
3507
3431
3512
3604
3548
3334
3114
3075
3265
3520
3595
3395
3044
2799
2820
3048
3248
3252
3119
3061
3211
3457
3578
3497
3347
3288
3349
3437
3517
3647
3840
3961
3901
3785
3884
4281
4674
4661
4190
3621
3321
3262
3108
2663
2107
1752
1692
1798
1987
2358
3029
3857
4504
4813
4968
5267
5750
6115
6057
5597
5083
4844
4899
4988
4928
4768
4687
4764
4894
4921
4811
4661
4544
4471
4457
4556
4760
4922
4869
4637
4492
4666
5051
5258
4984
4305
3642
3337
3400
3582
3623
3476
3282
3230
3383
3643
3837
3841
3660
3420
3285
3326
3511
3716
3816
3829
3882
4059
4274
4316
4074
3729
3618
3859
4174
4161
3737
3247
3082
3261
3424
3247
2805
2450
2427
2625
2767
2755
2732
2878
3156
3364
3363
3211
3070
3007
2963
2855
2731
2736
2959
3322
3634
3786
3843
3930
4095
4260
4350
4385
4475
4682
4950
5182
5351
5519
5767
6086
6388
6586
6716
6920
7341
7938
8466
8683
8590
8454
8547
8878
9173
9181
8953
8792
8929
9299
9640
9789
9823
9942
10242
10635
10963
11118
11099
10990
10923
11017
11264
11496
11502
11258
10976
10916
11111
11316
11281
11027
10831
10917
11213
11439
11405
11186
11009
11006
11108
11177
11170
11135
11095
11033
10955
10922
10972
11033
10988
10836
10724
10768
10867
10792
10429
9925
9533
9362
9300
9187
8985
8785
8674
8638
8605
8518
8361
8141
7866
7557
7259
7024
6865
6722
6505
6191
5870
5662
5605
5579
5420
5094
4721
4432
4213
3940
3573
3243
3111
3141
3082
2719
2101
1504
1124
908
682
416
269
347
530
594
473
328
320
358
172
-377
-1122
-1744
-2062
-2152
-2219
-2372
-2568
-2718
-2780
-2776
-2761
-2772
-2833
-2936
-3077
-3251
-3422
-3499
-3385
-3098
-2830
-2807
-3047
-3310
-3351
-3212
-3152
-3291
-3398
-3178
-2708
-2455
-2764
-3442
-3951
-4008
-3884
-4044
-4578
-5089
-5157
-4783
-4348
-4151
-4123
-4012
-3740
-3502
-3513
-3731
-3909
-3887
-3751
-3723
-3885
-4088
-4103
-3850
-3478
-3236
-3283
-3567
-3862
-3938
-3735
-3445
-3359
-3603
-4001
-4264
-4295
-4272
-4415
-4707
-4900
-4835
-4633
-4537
-4616
-4705
-4657
-4554
-4600
-4838
-5070
-5122
-5071
-5150
-5413
-5638
-5598
-5342
-5120
-5078
-5081
-4927
-4607
-4311
-4178
-4137
-4033
-3830
-3622
-3482
-3364
-3181
-2932
-2699
-2551
-2478
-2426
-2390
-2373
-2333
-2210
-2020
-1876
-1877
-1978
-2027
-1939
-1803
-1765
-1866
-2021
-2146
-2241
-2329
-2374
-2312
-2165
-2054
-2037
-2030
-1899
-1649
-1420
-1311
-1265
-1182
-1071
-1020
-1034
-1008
-879
-741
-734
-848
-925
-873
-776
-758
-816
-852
-823
-798
-834
-869
-810
-676
-580
-575
-587
-516
-375
-263
-237
-255
-258
-248
-242
-230
-180
-120
-123
-197
-257
-213
-90
-11
-49
-147
-184
-127
-83
-178
-400
-603
-640
-519
-418
-488
-671
-746
-599
-394
-414
-709
-1012
-1034
-824
-732
-979
-1397
-1632
-1566
-1418
-1419
-1492
-1369
-943
-408
-16
216
472
848
1202
1315
1138
827
572
435
353
256
151
98
136
246
372
457
491
509
544
588
601
565
517
516
594
716
822
876
883
863
831
800
791
817
871
922
950
962
980
1015
1059
1096
1120
1131
1127
1112
1099
1092
1085
1066
1039
1035
1071
1121
1131
1082
1015
992
1025
1061
1055
1018
999
1019
1039
1020
970
937
944
964
956
921
897
907
932
954
977
1008
1032
1016
960
903
878
872
857
836
841
885
927
922
881
871
943
1067
1151
1136
1069
1048
1125
1241
1292
1256
1220
1279
1414
1519
1535
1515
1543
1607
1617
1544
1479
1528
1668
1757
1705
1587
1550
1648
1787
1841
1770
1635
1517
1467
1498
1586
1677
1716
1693
1664
1685
1745
1769
1709
1601
1529
1530
1557
1545
1501
1498
1587
1733
1848
1873
1834
1800
1809
1848
1877
1874
1847
1818
1809
1820
1838
1856
1882
1922
1978
2027
2049
2048
2047
2063
2095
2131
2162
2195
2239
2293
2339
2360
2353
2340
2356
2407
2453
2445
2378
2305
2283
2315
2356
2357
2327
2310
2326
2346
2325
2266
2221
2235
2295
2348
2361
2344
2320
2297
2278
2271
2282
2277
2206
2052
1861
1682
1506
1293
1076
995
1169
1557
1979
2295
2538
2838
3237
3598
3737
3601
3312
3039
2852
2714
2582
2484
2466
2528
2602
2624
2606
2598
2617
2611
2542
2436
2364
2353
2357
2339
2329
2380
2478
2530
2473
2351
2273
2286
2326
2301
2218
2169
2215
2290
2282
2177
2088
2120
2238
2309
2269
2188
2161
2176
2141
2045
1997
2086
2231
2259
2117
1937
1887
1970
2034
1968
1826
1742
1777
1867
1923
1929
1930
1952
1971
1957
1905
1836
1770
1711
1663
1637
1643
1685
1745
1785
1771
1707
1639
1616
1643
1666
1643
1594
1595
1682
1798
1854
1840
1843
1937
2083
2162
2116
2012
1968
2022
2115
2178
2212
2260
2329
2383
2403
2424
2487
2579
2643
2661
2670
2707
2762
2797
2809
2832
2877
2896
2828
2678
2522
2417
2350
2277
2197
2169
2227
2302
2279
2137
1994
1995
2130
2228
2148
1950
1826
1868
1967
1964
1863
1811
1888
1982
1937
1765
1647
1719
1922
2068
2045
1922
1850
1901
2027
2127
2144
2112
2118
2204
2329
2413
2430
2421
2436
2457
2432
2360
2304
2312
2360
2393
2408
2449
2537
2629
2666
2634
2564
2490
2431
2403
2419
2463
2484
2440
2356
2303
2323
2388
2435
2435
2423
2442
2487
2508
2477
2431
2422
2434
2376
2188
1941
1778
1756
1759
1629
1391
1282
1514
2010
2440
2555
2457
2479
2797
3223
3414
3241
2892
2626
2509
2408
2224
2024
1935
1950
1941
1835
1713
1721
1868
1998
1956
1773
1622
1614
1678
1669
1558
1477
1542
1696
1777
1709
1589
1563
1639
1694
1631
1489
1362
1264
1136
968
855
889
1030
1135
1119
1046
1024
1070
1102
1049
934
840
793
750
672
579
526
516
502
444
368
328
341
356
319
227
128
72
54
39
10
-29
-75
-135
-214
-300
-369
-404
-398
-364
-341
-374
-470
-565
-581
-510
-443
-463
-546
-576
-489
-362
-304
-326
-327
-244
-146
-139
-223
-289
-257
-170
-118
-119
-121
-85
-38
-17
-23
-29
-55
-140
-274
-371
-363
-291
-265
-341
-453
-481
-399
-307
-350
-562
-836
-1034
-1120
-1174
-1266
-1377
-1426
-1396
-1372
-1429
-1537
-1604
-1596
-1588
-1676
-1863
-2059
-2178
-2191
-2122
-2019
-1938
-1945
-2040
-2130
-2149
-2114
-2105
-2141
-2184
-2220
-2307
-2458
-2585
-2561
-2391
-2269
-2316
-2435
-2470
-2456
-2615
-3058
-3582
-3833
-3661
-3303
-3104
-3147
-3164
-2827
-2095
-1279
-790
-806
-1126
-1346
-1222
-878
-665
-809
-1188
-1436
-1331
-988
-739
-790
-1046
-1230
-1175
-955
-791
-804
-889
-903
-839
-789
-825
-927
-1052
-1203
-1397
-1583
-1649
-1596
-1582
-1730
-1945
-1968
-1687
-1279
-1017
-966
-915
-639
-163
257
389
232
-48
-318
-572
-838
-1093
-1269
-1323
-1322
-1388
-1538
-1657
-1609
-1418
-1275
-1335
-1531
-1636
-1516
-1298
-1218
-1353
-1561
-1645
-1585
-1539
-1637
-1835
-1980
-2007
-1985
-2027
-2130
-2182
-2137
-2072
-2064
-2095
-2073
-1984
-1919
-1953
-2027
-2032
-2002
-2056
-2213
-2335
-2294
-2182
-2205
-2422
-2625
-2590
-2361
-2206
-2283
-2466
-2519
-2397
-2281
-2326
-2492
-2612
-2627
-2617
-2676
-2788
-2838
-2784
-2734
-2804
-2967
-3051
-2935
-2729
-2692
-2958
-3330
-3477
-3301
-3035
-2984
-3186
-3383
-3358
-3175
-3061
-3101
-3171
-3138
-3056
-3053
-3103
-3031
-2774
-2521
-2516
-2730
-2839
-2622
-2243
-2073
-2232
-2461
-2448
-2196
-1970
-1961
-2075
-2113
-2040
-1999
-2084
-2199
-2187
-2044
-1925
-1956
-2069
-2082
-1909
-1672
-1549
-1576
-1616
-1535
-1354
-1219
-1221
-1294
-1283
-1126
-912
-769
-722
-711
-648
-480
-217
82
320
436
481
585
806
1031
1100
1011
943
1046
1270
1440
1474
1468
1571
1807
2092
2351
2570
2742
2827
2812
2766
2803
2954
3121
3180
3112
3028
3052
3192
3349
3440
3451
3404
3318
3209
3120
3096
3138
3196
3223
3231
3264
3322
3349
3315
3258
3241
3277
3297
3238
3126
3044
3050
3096
3071
2926
2726
2605
2597
2587
2455
2242
2113
2144
2190
2076
1873
1855
2172
2639
2943
2993
3008
3218
3580
3839
3817
3536
3128
2722
2424
2312
2362
2408
2259
1930
1661
1679
1942
2154
2060
1708
1382
1311
1439
1513
1380
1146
1023
1077
1150
1068
863
703
681
692
596
409
306
378
479
405
145
-92
-114
34
130
38
-156
-294
-350
-413
-528
-598
-538
-420
-400
-512
-617
-584
-468
-435
-572
-796
-974
-1078
-1170
-1287
-1395
-1468
-1530
-1624
-1751
-1879
-1991
-2103
-2226
-2340
-2440
-2548
-2682
-2819
-2909
-2925
-2903
-2906
-2953
-3006
-3016
-2980
-2953
-2969
-3011
-3042
-3047
-3042
-3029
-2985
-2896
-2794
-2722
-2673
-2589
-2444
-2295
-2219
-2210
-2189
-2097
-1964
-1853
-1772
-1662
-1492
-1316
-1218
-1204
-1186
-1079
-901
-746
-671
-622
-499
-268
-6
187
304
422
613
858
1083
1236
1339
1442
1568
1706
1851
2015
2196
2368
2494
2575
2654
2787
2983
3182
3309
3341
3337
3385
3511
3651
3730
3751
3777
3850
3921
3922
3854
3788
3785
3839
3890
3908
3930
4005
4128
4240
4296
4309
4336
4407
4480
4477
4374
4247
4203
4277
4402
4486
4506
4509
4538
4583
4608
4610
4617
4644
4669
4670
4656
4653
4668
4678
4668
4653
4662
4702
4730
4707
4643
4597
4614
4672
4708
4686
4643
4632
4640
4598
4472
4312
4184
4075
3935
3782
3741
3929
4307
4708
5007
5231
5483
5784
6024
6073
5900
5598
5302
5105
5014
4980
4940
4872
4815
4835
4949
5097
5185
5162
5054
4931
4845
4806
4795
4799
4817
4849
4880
4876
4825
4756
4720
4742
4789
4806
4778
4743
4739
4754
4744
4697
4653
4650
4676
4682
4650
4612
4601
4612
4616
4608
4610
4628
4633
4598
4539
4506
4524
4566
4582
4553
4499
4449
4420
4409
4409
4411
4406
4392
4375
4349
4308
4263
4241
4257
4284
4276
4221
4160
4140
4157
4170
4154
4128
4117
4106
4071
4017
3981
3977
3980
3967
3960
3997
4063
4103
4090
4073
4118
4227
4333
4381
4397
4447
4550
4663
4743
4804
4895
5028
5153
5204
5167
5076
4977
4885
4781
4641
4462
4267
4103
4008
3982
3972
3927
3863
3862
3968
4119
4187
4126
4035
4026
4079
4091
4063
4177
4587
5175
5605
5698
5667
5892
6448
6941
6892
6239
5387
4771
4445
4135
3625
3004
2525
2327
2336
2430
2570
2777
3026
3231
3333
3373
3439
3562
3696
3789
3838
3881
3943
4015
4077
4126
4173
4219
4252
4260
4249
4236
4225
4206
4179
4165
4188
4234
4257
4217
4139
4086
4098
4147
4174
4153
4116
4100
4106
4106
4080
4039
4003
3982
3975
3974
3958
3908
3836
3783
3769
3753
3671
3518
3363
3248
3126
2928
2707
2648
2886
3342
3783
4062
4251
4510
4861
5137
5163
4937
4621
4362
4182
4015
3832
3676
3608
3639
3722
3800
3845
3853
3832
3792
3744
3704
3688
3705
3746
3789
3813
3803
3764
3717
3682
3665
3660
3650
3632
3614
3612
3632
3664
3684
3675
3637
3592
3560
3550
3549
3545
3536
3532
3539
3543
3531
3501
3471
3461
3468
3477
3476
3464
3446
3417
3374
3333
3317
3335
3360
3353
3304
3238
3190
3171
3163
3145
3115
3085
3062
3042
3016
2990
2976
2984
3006
3026
3030
3018
3003
2996
3003
3021
3039
3053
3065
3082
3105
3123
3129
3132
3152
3203
3272
3330
3355
3359
3375
3423
3494
3561
3601
3613
3609
3599
3595
3602
3620
3643
3660
3671
3684
3708
3736
3753
3752
3746
3751
3767
3776
3759
3715
3663
3620
3594
3584
3583
3587
3590
3581
3561
3538
3530
3538
3550
3550
3529
3494
3454
3415
3379
3356
3359
3390
3427
3446
3437
3414
3400
3406
3421
3428
3417
3386
3347
3311
3292
3304
3353
3433
3522
3596
3640
3662
3682
3717
3763
3801
3816
3807
3786
3762
3739
3723
3720
3730
3748
3763
3771
3775
3779
3782
3785
3798
3820
3841
3845
3829
3808
3795
3784
3763
3739
3727
3732
3730
3707
3671
3642
3622
3598
3576
3575
3584
3542
3403
3202
3026
2896
2745
2527
2340
2362
2661
3099
3476
3750
4049
4473
4922
5175
5108
4809
4476
4229
4051
3878
3698
3562
3510
3539
3606
3677
3738
3787
3816
3804
3739
3641
3555
3521
3538
3575
3596
3589
3559
3513
3456
3397
3355
3346
3369
3409
3447
3468
3466
3443
3414
3396
3396
3402
3397
3375
3344
3314
3289
3265
3248
3244
3251
3258
3248
3216
3171
3126
3091
3071
3059
3039
3000
2945
2892
2852
2821
2793
2765
2743
2723
2695
2649
2591
2539
2508
2499
2501
2498
2479
2449
2418
2401
2403
2416
2428
2434
2434
2429
2419
2408
2409
2432
2479
2536
2589
2626
2649
2665
2690
2730
2784
2841
2891
2933
2963
2980
2988
3007
3053
3125
3192
3223
3219
3207
3215
3242
3265
3273
3273
3278
3287
3289
3276
3258
3256
3282
3325
3364
3376
3358
3326
3297
3278
3263
3250
3240
3236
3229
3209
3178
3152
3145
3159
3176
3181
3167
3139
3108
3088
3086
3101
3125
3148
3163
3160
3138
3107
3082
3074
3075
3069
3052
3039
3045
3072
3108
3154
3220
3307
3395
3454
3478
3485
3495
3509
3522
3533
3546
3558
3561
3547
3529
3520
3528
3545
3558
3565
3563
3556
3545
3538
3540
3551
3568
3584
3591
3582
3554
3515
3484
3474
3482
3492
3491
3485
3472
3436
3373
3313
3305
3347
3368
3291
3125
2955
2837
2731
2579
2427
2430
2682
3097
3484
3748
3976
4297
4688
4969
4978
4733
4396
4114
3909
3733
3563
3433
3379
3397
3446
3493
3522
3529
3512
3472
3415
3355
3307
3283
3288
3313
3338
3348
3338
3314
3282
3237
3182
3136
3120
3141
3180
3211
3223
3215
3188
3143
3092
3061
3064
3085
3090
3062
3021
2992
2979
2964
2941
2923
2926
2941
2936
2894
2832
2786
2776
2787
2786
2754
2698
2639
2596
2570
2551
2531
2511
2494
2479
2456
2417
2364
2313
2282
2274
2274
2267
2247
2224
2211
2212
2227
2250
2275
2294
2299
2292
2286
2294
2322
2365
2419
2482
2553
2620
2668
2693
2707
2732
2779
2839
2892
2923
2931
2933
2948
2983
3027
3063
3083
3096
3106
3106
3091
3074
3080
3120
3172
3197
3182
3150
3135
3144
3157
3157
3149
3145
3149
3147
3128
3097
3067
3049
3041
3037
3035
3026
3004
2965
2925
2910
2931
2967
2985
2963
2914
2866
2841
2841
2859
2887
2914
2922
2904
2873
2853
2850
2851
2839
2818
2806
2810
2821
2834
2865
2928
3013
3091
3142
3173
3203
3232
3245
3239
3230
3235
3252
3271
3285
3295
3298
3288
3271
3265
3285
3315
3324
3296
3250
3221
3226
3250
3269
3268
3250
3228
3210
3195
3188
3189
3199
3211
3224
3227
3209
3160
3098
3055
3049
3049
3000
2878
2715
2554
2395
2217
2054
2010
2174
2511
2880
3171
3411
3696
4049
4355
4467
4346
4088
3819
3590
3388
3200
3057
2999
3021
3080
3128
3153
3158
3151
3128
3087
3034
2980
2933
2905
2904
2929
2957
2965
2944
2911
2883
2862
2839
2819
2813
2828
2850
2858
2845
2821
2795
2771
2748
2735
2739
2753
2759
2744
2711
2672
2636
2608
2588
2581
2582
2580
2562
2528
2491
2465
2455
2450
2437
2409
2369
2321
2268
2218
2183
2177
2196
2215
2207
2171
2126
2092
2071
2058
2046
2040
2039
2033
2013
1985
1970
1977
2002
2030
2043
2039
2025
2018
2031
2073
2129
2179
2215
2250
2298
2352
2390
2403
2417
2461
2536
2610
2649
2653
2655
2677
2713
2741
2752
2758
2771
2789
2801
2800
2791
2788
2804
2842
2885
2902
2876
2827
2801
2825
2879
2912
2895
2847
2811
2801
2799
2780
2748
2726
2733
2758
2776
2764
2720
2667
2639
2649
2677
2680
2638
2576
2540
2542
2558
2564
2570
2599
2638
2647
2607
2552
2533
2555
2575
2558
2517
2491
2499
2522
2545
2578
2639
2718
2781
2805
2805
2813
2841
2869
2878
2869
2861
2869
2888
2899
2896
2891
2900
2924
2951
2966
2964
2950
2928
2899
2875
2867
2875
2886
2887
2877
2868
2867
2869
2869
2868
2869
2875
2880
2868
2819
2738
2671
2667
2713
2735
2659
2501
2346
2237
2138
2023
1976
2133
2511
2954
3282
3487
3711
4037
4349
4451
4271
3926
3581
3303
3062
2841
2676
2604
2612
2655
2700
2741
2772
2783
2766
2728
2681
2631
2586
2558
2555
2571
2592
2604
2606
2593
2558
2504
2457
2447
2474
2507
2512
2490
2467
2456
2437
2398
2351
2332
2351
2376
2377
2352
2328
2313
2292
2252
2214
2207
2228
2237
2208
2152
2104
2084
2079
2071
2053
2025
1987
1941
1895
1858
1837
1831
1837
1841
1824
1775
1709
1660
1641
1636
1620
1597
1589
1600
1610
1604
1594
1605
1639
1675
1694
1694
1687
1680
1678
1695
1739
1803
1867
1916
1957
2002
2055
2111
2168
2226
2283
2329
2358
2373
2381
2389
2404
2437
2484
2525
2541
2531
2516
2510
2515
2518
2512
2506
2508
2515
2523
2526
2518
2504
2499
2522
2566
2597
2579
2521
2466
2451
2468
2479
2469
2451
2436
2413
2370
2325
2314
2344
2375
2367
2326
2291
2282
2280
2267
2257
2278
2327
2360
2344
2292
2254
2259
2288
2297
2271
2234
2227
2257
2302
2339
2380
2453
2562
2664
2713
2710
2696
2705
2723
2722
2700
2690
2710
2733
2724
2686
2666
2693
2740
2760
2738
2701
2684
2690
2698
2694
2682
2678
2690
2708
2715
2698
2663
2630
2621
2639
2660
2657
2631
2607
2594
2573
2532
2497
2508
2551
2550
2449
2280
2139
2075
2045
1994
1974
2105
2438
2868
3232
3476
3685
3943
4193
4281
4116
3762
3373
3059
2830
2649
2505
2417
2394
2412
2443
2477
2513
2543
2545
2502
2425
2350
2304
2287
2287
2296
2314
2336
2338
2300
2236
2178
2154
2159
2174
2185
2197
2212
2220
2206
2171
2139
2133
2154
2180
2182
2154
2117
2095
2090
2088
2074
2055
2050
2060
2064
2042
1998
1962
1954
1962
1957
1929
1895
1870
1847
1810
1764
1736
1744
1766
1762
1715
1653
1613
1606
1608
1602
1588
1580
1572
1553
1521
1499
1507
1537
1566
1576
1573
1571
1570
1567
1567
1589
1642
1704
1741
1745
1739
1758
1811
1881
1946
1999
2043
2077
2102
2130
2171
2224
2267
2286
2292
2306
2334
2356
2353
2335
2333
2363
2407
2432
2423
2394
2369
2357
2354
2354
2358
2368
2377
2376
2357
2326
2297
2285
2290
2300
2295
2268
2232
2208
2204
2207
2201
2187
2177
2169
2146
2095
2036
2011
2037
2092
2134
2142
2130
2121
2119
2120
2119
2118
2115
2101
2078
2061
2067
2098
2144
2204
2278
2358
2425
2462
2473
2478
2496
2529
2567
2597
2608
2594
2567
2555
2571
2606
2634
2642
2638
2636
2631
2613
2584
2563
2565
2581
2592
2588
2574
2558
2538
2516
2504
2514
2538
2550
2532
2496
2466
2443
2414
2375
2349
2353
2356
2304
2180
2041
1954
1914
1862
1787
1782
1958
2307
2688
2970
3163
3367
3626
3843
3868
3659
3318
2995
2769
2620
2497
2383
2301
2276
2304
2360
2416
2455
2465
2444
2394
2326
2258
2205
2180
2186
2214
2242
2243
2212
2165
2127
2107
2098
2097
2109
2136
2157
2150
2113
2071
2052
2061
2082
2100
2112
2113
2094
2048
1996
1963
1962
1974
1969
1938
1898
1870
1858
1850
1841
1836
1839
1841
1824
1786
1740
1707
1695
1691
1683
1664
1639
1611
1578
1539
1500
1476
1479
1501
1518
1508
1471
1431
1416
1434
1467
1490
1488
1466
1443
1438
1450
1470
1487
1506
1540
1587
1633
1664
1689
1728
1789
1856
1908
1943
1973
2001
2017
2017
2018
2042
2090
2136
2156
2147
2126
2112
2111
2126
2150
2170
2167
2135
2092
2064
2066
2090
2117
2135
2145
2148
2143
2130
2117
2116
2130
2144
2142
2118
2091
2080
2087
2097
2097
2087
2084
2096
2108
2100
2068
2029
2008
2014
2035
2052
2054
2049
2044
2037
2021
2000
1989
1993
2001
1990
1957
1924
1922
1961
2028
2100
2163
2214
2249
2270
2291
2324
2369
2410
2431
2430
2419
2407
2400
2400
2410
2426
2437
2434
2424
2420
2420
2416
2401
2391
2400
2423
2439
2428
2393
2359
2343
2349
2369
2393
2405
2390
2354
2321
2311
2310
2294
2255
2224
2224
2223
2163
2036
1900
1810
1745
1646
1525
1494
1665
2015
2393
2681
2901
3153
3457
3689
3702
-21846
-26
-6
26
61
89
109
130
157
185
209
230
251
277
302
320
330
334
332
321
306
295
290
288
276
251
217
188
171
168
170
168
159
153
158
174
193
208
220
237
257
264
246
214
192
193
204
195
153
91
28
-18
-33
-3
76
183
287
380
481
609
732
792
758
655
545
469
436
442
484
557
639
711
784
884
1009
1115
1146
1095
1013
956
941
950
951
929
893
866
860
860
841
796
750
723
683
581
405
203
14
-195
-463
-738
-859
-708
-343
51
356
623
972
1399
1739
1820
1635
1333
1071
889
735
563
393
285
268
319
390
445
474
478
455
398
320
256
235
249
262
244
205
176
172
168
133
72
20
8
28
43
32
6
-11
-10
1
14
29
49
73
88
87
68
31
-14
-55
-78
-80
-73
-69
-67
-54
-25
3
3
-36
-102
-169
-227
-278
-327
-364
-377
-366
-347
-329
-306
-270
-237
-233
-264
-301
-313
-297
-277
-276
-286
-282
-253
-210
-171
-145
-129
-122
-127
-151
-180
-189
-159
-91
-9
56
104
152
215
274
290
241
147
59
6
-20
-52
-100
-138
-125
-59
16
49
31
-1
-4
26
57
57
27
-4
-11
4
18
18
6
-4
-7
-14
-39
-75
-90
-61
3
64
95
104
118
148
177
178
152
126
121
139
161
175
191
224
282
354
425
482
524
556
579
591
594
599
614
633
641
632
620
623
636
638
613
574
549
550
560
555
538
530
542
561
569
558
537
513
497
494
498
495
482
472
474
459
373
196
-21
-217
-398
-625
-894
-1081
-1035
-742
-354
-26
233
528
911
1278
1467
1412
1193
950
764
635
534
442
366
324
344
427
541
621
621
545
437
338
271
232
210
192
172
156
161
187
217
232
241
270
327
378
380
330
271
244
242
214
135
38
-13
4
49
63
28
-30
-71
-92
-113
-149
-192
-219
-226
-233
-256
-287
-308
-310
-310
-334
-395
-484
-568
-605
-584
-528
-483
-469
-461
-418
-336
-257
-220
-218
-207
-154
-68
28
122
220
329
436
516
552
553
551
569
597
602
568
531
526
541
524
450
372
371
450
518
499
421
391
464
574
613
550
461
421
416
381
288
196
171
211
246
230
198
212
279
349
379
387
422
489
549
558
522
485
468
457
425
377
343
338
352
367
376
384
390
387
377
375
397
443
498
544
555
526
498
534
656
812
918
946
958
1037
1184
1321
1383
1372
1340
1308
1274
1241
1220
1215
1195
1142
1077
1032
1018
1028
1058
1113
1176
1209
1207
1209
1272
1376
1434
1394
1297
1245
1293
1391
1432
1353
1188
1013
862
696
475
256
184
365
756
1201
1595
1969
2411
2912
3326
3493
3387
3137
2913
2800
2769
2750
2716
2706
2777
2949
3180
3377
3481
3503
3503
3551
3669
3828
3965
4045
4094
4175
4338
4562
4757
4856
4879
4903
4976
5058
5075
5016
4943
4909
4886
4803
4655
4528
4508
4587
4673
4683
4625
4565
4535
4510
4453
4372
4314
4301
4295
4245
4143
4050
4017
4029
4015
3933
3819
3734
3692
3638
3529
3386
3274
3218
3159
3024
2803
2561
2370
2246
2155
2050
1900
1716
1525
1352
1207
1075
935
783
638
518
417
305
157
-12
-158
-243
-287
-354
-488
-672
-841
-944
-993
-1038
-1107
-1187
-1249
-1298
-1363
-1455
-1536
-1562
-1538
-1513
-1532
-1590
-1653
-1706
-1763
-1832
-1893
-1923
-1934
-1974
-2067
-2182
-2248
-2224
-2134
-2045
-2010
-2028
-2050
-2030
-1963
-1886
-1821
-1762
-1692
-1622
-1580
-1575
-1567
-1506
-1386
-1247
-1126
-1027
-936
-845
-748
-628
-476
-320
-213
-173
-161
-126
-63
-4
34
74
136
194
213
194
178
188
205
198
165
130
103
64
-3
-88
-167
-233
-293
-347
-384
-410
-462
-567
-703
-803
-839
-873
-999
-1242
-1549
-1848
-2111
-2333
-2461
-2417
-2185
-1855
-1551
-1307
-1052
-745
-455
-339
-498
-893
-1385
-1835
-2177
-2412
-2565
-2652
-2664
-2579
-2390
-2127
-1862
-1672
-1591
-1597
-1638
-1670
-1684
-1701
-1750
-1842
-1970
-2117
-2271
-2446
-2652
-2875
-3076
-3225
-3324
-3386
-3399
-3325
-3143
-2915
-2743
-2680
-2684
-2681
-2648
-2628
-2649
-2683
-2698
-2711
-2768
-2864
-2930
-2915
-2854
-2838
-2918
-3076
-3273
-3484
-3688
-3845
-3942
-4028
-4189
-4452
-4741
-4955
-5082
-5196
-5366
-5569
-5728
-5810
-5860
-5945
-6070
-6185
-6251
-6290
-6357
-6477
-6625
-6757
-6854
-6914
-6937
-6924
-6883
-6830
-6782
-6730
-6648
-6514
-6339
-6153
-5978
-5819
-5665
-5507
-5349
-5205
-5087
-5000
-4938
-4882
-4817
-4746
-4686
-4638
-4572
-4438
-4205
-3894
-3566
-3275
-3036
-2819
-2585
-2319
-2049
-1834
-1718
-1698
-1717
-1715
-1674
-1621
-1581
-1546
-1496
-1432
-1382
-1360
-1339
-1273
-1152
-1021
-933
-897
-875
-821
-736
-659
-618
-593
-545
-464
-383
-337
-308
-239
-98
77
219
296
333
374
429
476
499
518
556
617
682
728
754
784
842
930
1027
1108
1164
1207
1245
1277
1304
1343
1421
1527
1612
1646
1657
1701
1784
1864
1911
1953
2013
2036
1921
1650
1329
1071
859
592
278
87
185
533
926
1236
1537
1969
2501
2920
3041
2892
2649
2438
2250
2042
1845
1734
1730
1781
1845
1941
2092
2253
2345
2347
2311
2295
2288
2258
2229
2270
2391
2495
2471
2318
2160
2112
2175
2260
2289
2268
2259
2309
2413
2520
2585
2606
2613
2617
2594
2526
2454
2470
2610
2790
2886
2868
2841
2923
3098
3237
3244
3165
3130
3222
3402
3569
3660
3690
3726
3815
3942
4041
4070
4055
4072
4158
4275
4360
4418
4527
4747
5027
5239
5309
5292
5319
5460
5660
5794
5765
5591
5380
5255
5267
5348
5359
5217
4970
4765
4718
4796
4861
4818
4705
4630
4626
4631
4595
4550
4540
4528
4412
4195
4034
4064
4209
4219
3942
3499
3139
2951
2790
2459
1920
1296
725
269
-73
-338
-596
-934
-1374
-1825
-2159
-2338
-2427
-2530
-2678
-2828
-2935
-2986
-2994
-2976
-2957
-2964
-3010
-3091
-3193
-3278
-3302
-3235
-3092
-2935
-2819
-2735
-2633
-2496
-2367
-2293
-2258
-2200
-2099
-2012
-1996
-2030
-2024
-1925
-1778
-1674
-1640
-1627
-1574
-1479
-1379
-1285
-1170
-1029
-923
-908
-954
-954
-843
-685
-616
-692
-816
-843
-759
-714
-844
-1104
-1311
-1372
-1421
-1663
-2106
-2535
-2762
-2852
-3004
-3232
-3282
-2911
-2198
-1465
-913
-438
168
890
1470
1696
1620
1465
1381
1346
1271
1151
1069
1102
1250
1448
1623
1743
1824
1903
1984
2029
2013
1969
1944
1931
1860
1683
1448
1248
1109
972
782
567
430
417
483
529
503
429
343
248
119
-49
-224
-373
-496
-621
-750
-850
-907
-963
-1080
-1263
-1452
-1588
-1693
-1831
-2022
-2203
-2305
-2335
-2368
-2448
-2547
-2610
-2647
-2717
-2860
-3039
-3180
-3268
-3348
-3468
-3620
-3751
-3823
-3846
-3851
-3848
-3823
-3770
-3705
-3633
-3533
-3379
-3181
-2991
-2856
-2776
-2714
-2638
-2545
-2459
-2389
-2315
-2206
-2054
-1882
-1723
-1593
-1475
-1339
-1169
-976
-780
-599
-434
-275
-102
95
290
430
472
429
366
333
311
245
116
-14
-70
-41
0
-14
-64
-74
-8
72
74
-16
-119
-153
-123
-98
-120
-154
-137
-73
-29
-48
-90
-78
-3
53
17
-85
-140
-69
88
216
244
208
208
307
479
633
697
680
657
694
794
900
955
956
947
967
1012
1050
1067
1091
1156
1267
1382
1450
1461
1461
1507
1616
1741
1817
1829
1804
1768
1698
1555
1349
1127
910
644
274
-160
-553
-850
-1106
-1375
-1588
-1575
-1266
-799
-389
-94
217
666
1161
1456
1406
1111
805
617
490
311
64
-157
-261
-238
-146
-33
86
206
304
357
375
393
444
523
592
611
578
521
466
408
322
208
100
37
22
27
14
-33
-112
-221
-362
-524
-684
-815
-908
-970
-1015
-1058
-1107
-1153
-1170
-1146
-1096
-1062
-1077
-1140
-1222
-1290
-1320
-1306
-1268
-1236
-1222
-1203
-1150
-1061
-971
-904
-854
-803
-756
-730
-719
-684
-610
-527
-475
-441
-386
-317
-288
-321
-348
-279
-123
3
9
-53
-47
85
253
320
261
178
175
245
285
240
157
129
178
242
259
242
255
323
387
370
273
181
176
244
304
287
218
181
232
345
446
489
480
459
447
438
421
400
382
359
332
321
358
446
541
592
591
587
617
654
628
505
346
246
246
290
289
219
147
152
241
351
421
441
436
429
417
402
417
466
492
446
377
413
584
742
721
560
472
562
679
613
402
307
465
713
814
768
779
909
987
870
695
706
913
1046
909
658
598
812
1051
1022
697
283
-28
-241
-479
-803
-1130
-1279
-1140
-762
-315
71
414
797
1226
1563
1664
1536
1315
1149
1077
1042
983
905
876
951
1109
1268
1367
1428
1509
1608
1656
1631
1617
1719
1922
2074
2049
1884
1710
1572
1386
1094
804
723
918
1219
1387
1386
1425
1712
2186
2540
2522
2201
1884
1789
1834
1769
1489
1143
962
999
1115
1169
1159
1165
1215
1254
1225
1155
1109
1101
1073
974
820
685
622
632
664
676
659
631
609
584
527
428
312
228
205
223
231
204
160
144
171
218
242
219
153
78
36
52
103
133
108
72
115
265
446
541
527
498
547
659
738
729
684
685
743
794
794
774
789
831
837
779
710
692
707
685
592
474
398
369
339
294
267
279
287
219
70
-73
-109
-28
57
10
-190
-418
-491
-347
-105
15
-97
-327
-437
-300
-26
132
23
-254
-441
-358
-53
256
375
301
199
219
379
557
615
530
403
362
455
621
753
798
799
850
996
1170
1263
1235
1176
1192
1310
1446
1528
1569
1650
1834
2094
2325
2433
2434
2441
2554
2725
2776
2579
2229
1951
1839
1762
1535
1215
1095
1406
2065
2777
3357
3869
4463
5128
5697
6028
6125
6089
5986
5831
5640
5465
5338
5250
5175
5102
5036
4973
4898
4802
4678
4517
4321
4129
3994
3925
3870
3764
3593
3415
3283
3192
3092
2961
2825
2711
2609
2494
2373
2281
2229
2169
2040
1864
1727
1677
1658
1565
1371
1152
999
919
837
696
520
373
287
233
172
91
10
-52
-93
-122
-149
-178
-206
-223
-221
-207
-202
-218
-237
-235
-204
-164
-130
-113
-110
-114
-120
-114
-76
-20
16
-1
-53
-81
-37
61
145
172
169
203
297
411
479
483
472
515
629
761
839
847
850
927
1075
1225
1316
1362
1422
1506
1570
1592
1625
1736
1911
2051
2090
2064
2080
2186
2317
2381
2358
2306
2294
2338
2400
2429
2395
2327
2295
2356
2479
2557
2520
2426
2412
2531
2680
2717
2610
2467
2397
2394
2388
2339
2281
2251
2245
2237
2231
2245
2272
2266
2196
2085
1979
1898
1828
1747
1653
1561
1491
1447
1422
1397
1343
1248
1120
979
837
698
569
449
313
133
-78
-269
-398
-487
-594
-750
-945
-1168
-1433
-1748
-2079
-2394
-2745
-3237
-3916
-4691
-5427
-6100
-6796
-7537
-8162
-8443
-8343
-8076
-7884
-7786
-7606
-7239
-6834
-6668
-6866
-7297
-7734
-8076
-8382
-8714
-9025
-9214
-9243
-9177
-9105
-9065
-9044
-9017
-8977
-8940
-8926
-8953
-9012
-9057
-9030
-8916
-8768
-8655
-8589
-8529
-8442
-8334
-8206
-8004
-7635
-7057
-6337
-5603
-4937
-4310
-3637
-2880
-2104
-1444
-1002
-768
-639
-493
-274
-12
237
454
672
931
1228
1515
1745
1901
2003
2076
2121
2126
2087
2014
1925
1848
1812
1825
1864
1895
1900
1896
1913
1949
1970
1959
1918
1861
1784
1668
1520
1371
1249
1152
1062
963
847
703
535
366
229
137
74
34
33
92
196
305
400
497
621
768
903
997
1053
1098
1162
1267
1407
1545
1652
1731
1821
1943
2078
2187
2274
2389
2561
2751
2894
2983
3078
3229
3418
3580
3684
3756
3823
3883
3928
3979
4061
4162
4239
4271
4289
4340
4422
4492
4529
4553
4598
4661
4710
4728
4743
4789
4871
4962
5034
5082
5129
5190
5262
5324
5353
5343
5313
5287
5274
5267
5249
5219
5190
5177
5179
5187
5191
5185
5169
5153
5154
5181
5220
5239
5221
5186
5170
5183
5191
5163
5115
5089
5099
5105
5069
5001
4928
4831
4658
4385
4048
3678
3260
2793
2394
2256
2471
2909
3351
3719
4134
4693
5285
5661
5700
5529
5361
5271
5177
5002
4802
4696
4734
4853
4964
5031
5058
5049
5009
4962
4943
4970
5019
5052
5059
5055
5046
5019
4949
4833
4686
4526
4367
4229
4148
4145
4189
4213
4164
4047
3912
3801
3710
3597
3405
3111
2741
2344
1959
1577
1180
782
437
191
4
-212
-486
-732
-848
-860
-930
-1181
-1551
-1845
-1939
-1888
-1845
-1892
-1977
-1989
-1874
-1673
-1464
-1304
-1212
-1185
-1204
-1237
-1248
-1211
-1135
-1059
-1028
-1051
-1091
-1097
-1051
-990
-970
-1006
-1083
-1162
-1228
-1299
-1383
-1451
-1448
-1349
-1202
-1097
-1091
-1162
-1232
-1245
-1214
-1187
-1202
-1255
-1314
-1360
-1383
-1378
-1340
-1291
-1285
-1388
-1618
-1918
-2183
-2346
-2453
-2623
-2932
-3327
-3655
-3799
-3788
-3746
-3768
-3834
-3849
-3750
-3575
-3418
-3326
-3259
-3150
-2993
-2855
-2797
-2793
-2755
-2628
-2436
-2238
-2055
-1859
-1629
-1380
-1147
-939
-733
-514
-308
-166
-105
-90
-47
100
383
766
1165
1514
1808
2097
2412
2714
2921
2994
2971
2923
2878
2824
2765
2746
2795
2873
2903
2843
2698
2460
2085
1531
809
-19
-901
-1798
-2636
-3305
-3735
-3933
-3933
-3715
-3213
-2427
-1464
-440
597
1618
2511
3111
3361
3387
3355
3270
2985
2410
1673
1022
597
346
123
-146
-424
-634
-736
-744
-702
-662
-651
-654
-638
-581
-491
-376
-236
-69
97
231
334
429
527
613
674
739
850
1002
1133
1199
1226
1283
1400
1531
1612
1640
1666
1732
1809
1838
1802
1747
1736
1772
1800
1769
1691
1627
1620
1651
1667
1640
1592
1563
1572
1605
1628
1618
1574
1516
1474
1461
1451
1403
1311
1223
1202
1245
1277
1219
1081
948
889
883
855
768
667
613
614
626
624
630
678
755
820
850
867
898
935
955
949
931
915
902
888
877
868
849
814
780
770
783
787
758
702
653
628
604
556
490
446
450
488
516
502
465
442
453
483
509
526
549
585
632
689
766
852
920
945
937
937
964
996
991
935
865
825
829
855
876
887
899
921
942
939
897
822
729
623
503
379
279
221
196
175
154
156
198
257
291
290
286
302
317
300
258
239
272
336
382
398
411
441
472
468
430
411
455
542
604
600
561
531
495
378
141
-155
-420
-657
-955
-1331
-1615
-1575
-1168
-612
-160
167
551
1084
1591
1793
1627
1317
1124
1081
1030
870
695
674
849
1098
1266
1291
1199
1043
866
700
560
439
328
248
236
304
402
452
424
337
224
92
-61
-212
-320
-365
-367
-354
-330
-291
-249
-237
-270
-325
-367
-397
-455
-552
-654
-708
-710
-701
-718
-743
-729
-660
-568
-495
-458
-448
-457
-477
-486
-462
-413
-378
-390
-442
-491
-505
-487
-463
-446
-431
-408
-377
-343
-306
-248
-154
-33
70
113
103
89
123
194
244
234
189
168
196
241
257
245
246
288
350
392
403
418
464
528
568
566
548
542
543
523
474
427
412
418
411
382
355
353
360
336
270
197
156
140
107
31
-65
-139
-181
-223
-293
-379
-450
-498
-550
-633
-740
-834
-891
-919
-940
-965
-986
-987
-965
-935
-917
-915
-904
-861
-793
-739
-716
-695
-622
-489
-337
-212
-129
-61
25
137
272
392
440
380
274
263
437
711
898
898
812
828
1007
1235
1356
1313
1154
955
795
739
823
972
1029
903
699
621
740
882
809
479
92
-164
-327
-601
-1066
-1529
-1696
-1476
-1047
-633
-274
152
730
1382
1957
2377
2670
2868
2926
2793
2527
2287
2192
2210
2197
2070
1913
1875
1995
2158
2222
2160
2060
2028
2095
2250
2466
2689
2837
2853
2802
2816
2960
3139
3193
3079
2896
2785
2814
2979
3244
3520
3665
3571
3272
2921
2609
2247
1691
953
248
-195
-328
-262
-99
157
529
939
1252
1402
1454
1512
1595
1639
1592
1481
1391
1377
1429
1505
1576
1628
1645
1625
1596
1612
1707
1858
2006
2091
2086
2003
1867
1684
1445
1149
830
569
443
457
526
547
492
411
369
371
379
377
386
415
418
341
206
104
96
130
91
-75
-296
-452
-506
-521
-560
-613
-623
-589
-571
-597
-613
-545
-395
-252
-173
-114
1
167
285
284
198
127
124
163
209
273
389
546
684
781
875
1007
1157
1259
1286
1293
1356
1496
1673
1846
1998
2128
2230
2312
2393
2484
2553
2567
2552
2574
2676
2814
2895
2884
2825
2768
2716
2662
2620
2573
2454
2235
2008
1912
1943
1927
1724
1442
1308
1337
1277
944
518
374
608
894
866
558
323
393
612
688
542
331
165
-33
-356
-722
-982
-1147
-1429
-1983
-2668
-3126
-3118
-2740
-2297
-2002
-1796
-1466
-910
-269
213
407
360
171
-107
-428
-707
-866
-935
-1031
-1190
-1293
-1212
-1003
-887
-1002
-1244
-1392
-1360
-1272
-1278
-1371
-1422
-1353
-1226
-1160
-1185
-1225
-1199
-1104
-997
-928
-885
-811
-665
-476
-314
-226
-175
-81
81
242
314
301
297
389
556
703
774
812
890
1013
1109
1122
1085
1076
1122
1170
1166
1129
1119
1160
1214
1237
1227
1215
1204
1175
1122
1075
1061
1065
1049
994
932
893
859
788
679
578
519
483
422
329
253
236
269
307
316
312
335
407
508
593
629
638
679
780
873
866
777
776
1055
1615
2249
2758
3170
3681
4390
5152
5705
5950
6034
6166
6395
6603
6694
6712
6776
6934
7126
7266
7344
7401
7463
7502
7478
7404
7352
7380
7476
7573
7603
7558
7486
7444
7437
7397
7234
6921
6524
6146
5829
5512
5120
4656
4203
3855
3650
3558
3524
3497
3453
3401
3376
3395
3421
3369
3185
2907
2648
2493
2451
2462
2455
2401
2320
2248
2210
2190
2138
2012
1821
1615
1442
1317
1222
1148
1113
1116
1115
1063
958
847
755
624
361
-50
-518
-942
-1317
-1704
-2096
-2350
-2313
-2006
-1631
-1377
-1235
-1072
-845
-703
-841
-1302
-1933
-2546
-3061
-3514
-3940
-4323
-4617
-4810
-4918
-4967
-4971
-4966
-4993
-5066
-5164
-5239
-5260
-5248
-5251
-5308
-5426
-5595
-5805
-6063
-6353
-6631
-6849
-6995
-7109
-7231
-7348
-7408
-7386
-7323
-7300
-7365
-7495
-7629
-7724
-7771
-7790
-7819
-7885
-7992
-8111
-8207
-8269
-8326
-8409
-8524
-8652
-8779
-8908
-9044
-9175
-9288
-9387
-9484
-9584
-9688
-9796
-9927
-10090
-10277
-10468
-10652
-10827
-11005
-11182
-11341
-11473
-11576
-11642
-11644
-11571
-11457
-11364
-11306
-11223
-11045
-10789
-10540
-10323
-10008
-9419
-8523
-7489
-6513
-5618
-4665
-3563
-2410
-1422
-735
-298
37
397
799
1191
1512
1756
1978
2250
2576
2885
3099
3220
3326
3465
3586
3615
3562
3519
3551
3623
3643
3573
3442
3293
3134
2967
2835
2797
2859
2956
3030
3091
3198
3373
3564
3702
3776
3844
3942
4037
4065
4004
3905
3837
3809
3781
3716
3627
3559
3532
3545
3580
3627
3685
3755
3840
3940
4039
4111
4134
4117
4087
4058
4021
3958
3877
3810
3779
3773
3762
3731
3696
3678
3680
3680
3658
3616
3572
3541
3519
3498
3475
3453
3440
3443
3456
3458
3430
3373
3307
3236
3123
2927
2647
2331
2014
1691
1361
1106
1075
1334
1780
2222
2569
2897
3314
3780
4117
4173
3973
3675
3423
3250
3109
2964
2836
2763
2763
2805
2847
2864
2859
2844
2814
2754
2679
2639
2673
2760
2828
2825
2756
2670
2598
2539
2476
2418
2392
2414
2464
2512
2550
2600
2681
2767
2796
2738
2642
2600
2649
2726
2735
2659
2584
2601
2699
2785
2789
2733
2678
2645
2602
2529
2457
2439
2486
2556
2608
2638
2671
2712
2727
2689
2611
2533
2473
2408
2304
2164
2035
1936
1814
1610
1332
1058
841
635
352
1
-304
-475
-581
-766
-1061
-1326
-1431
-1430
-1520
-1789
-2079
-2144
-1925
-1620
-1471
-1496
-1487
-1256
-851
-499
-363
-392
-411
-324
-194
-133
-158
-205
-213
-193
-178
-166
-130
-83
-65
-72
-45
46
124
61
-174
-453
-606
-591
-533
-583
-754
-912
-885
-618
-212
149
327
319
235
182
173
111
-112
-528
-1068
-1616
-2079
-2433
-2717
-2997
-3294
-3561
-3711
-3693
-3565
-3445
-3415
-3464
-3531
-3598
-3685
-3790
-3868
-3886
-3880
-3916
-3978
-3956
-3753
-3406
-3059
-2828
-2717
-2649
-2556
-2430
-2301
-2204
-2164
-2184
-2249
-2332
-2408
-2465
-2508
-2561
-2654
-2794
-2941
-3040
-3099
-3196
-3398
-3678
-3968
-4274
-4678
-5155
-5465
-5309
-4648
-3778
-3009
-2346
-1531
-424
764
1664
2120
2294
2426
2575
2651
2609
2542
2567
2709
2927
3199
3532
3899
4238
4509
4734
4957
5179
5345
5409
5370
5260
5110
4944
4764
4554
4291
3999
3760
3658
3690
3758
3762
3697
3632
3617
3638
3646
3616
3560
3498
3437
3387
3346
3291
3187
3022
2832
2666
2538
2418
2285
2158
2063
2001
1943
1871
1804
1775
1794
1824
1828
1797
1752
1720
1699
1675
1639
1595
1555
1531
1533
1567
1624
1679
1715
1737
1771
1821
1863
1873
1858
1851
1869
1891
1880
1817
1722
1630
1561
1513
1458
1362
1212
1032
867
747
665
598
526
445
345
217
71
-60
-151
-220
-312
-452
-614
-756
-862
-938
-992
-1021
-1042
-1090
-1188
-1305
-1376
-1374
-1349
-1377
-1477
-1597
-1661
-1646
-1600
-1580
-1595
-1605
-1578
-1532
-1515
-1546
-1594
-1610
-1581
-1537
-1514
-1514
-1506
-1455
-1354
-1227
-1098
-977
-857
-732
-603
-478
-355
-232
-105
17
126
225
324
435
547
642
716
782
854
930
997
1046
1090
1143
1210
1276
1325
1342
1318
1259
1182
1117
1087
1095
1116
1115
1080
1028
990
968
915
762
474
86
-336
-756
-1172
-1561
-1826
-1834
-1534
-1029
-506
-70
329
793
1314
1734
1884
1758
1527
1365
1295
1218
1090
1005
1092
1342
1592
1691
1651
1644
1806
2112
2415
2596
2632
2544
2329
1989
1562
1121
686
213
-305
-757
-987
-955
-790
-644
-550
-440
-292
-192
-221
-322
-361
-285
-177
-126
-110
-38
117
277
356
351
314
263
173
48
-47
-64
-36
-37
-87
-121
-79
30
145
235
338
492
667
788
802
723
598
467
346
266
256
310
381
422
431
461
538
624
648
589
500
445
442
440
396
304
210
144
108
74
16
-73
-183
-278
-322
-310
-272
-251
-262
-287
-310
-338
-381
-428
-449
-433
-407
-396
-393
-375
-347
-336
-361
-405
-433
-436
-433
-436
-437
-436
-440
-450
-429
-360
-276
-243
-272
-299
-257
-168
-115
-137
-166
-121
-21
32
-14
-81
-57
74
214
270
255
254
312
394
452
484
516
552
567
550
532
546
587
618
617
598
576
554
533
527
553
594
618
614
597
577
536
461
378
319
282
222
113
-1
-61
-72
-92
-152
-230
-302
-396
-560
-777
-987
-1175
-1407
-1738
-2083
-2242
-2095
-1718
-1308
-978
-678
-291
194
655
934
965
801
546
278
44
-9
-195
-185
-139
-92
-38
61
221
393
495
485
397
319
319
399
507
600
684
787
905
1017
1089
1113
1113
1103
1095
1077
1029
930
791
671
636
680
718
693
646
677
820
975
1012
928
854
907
1047
1129
1069
928
831
835
885
897
852
808
805
807
752
633
524
504
556
579
510
397
354
427
538
590
558
503
502
560
613
617
585
570
621
726
831
893
914
918
903
845
750
656
584
512
411
314
289
353
418
386
281
222
281
384
386
251
91
24
51
78
38
-40
-82
-62
-2
76
175
289
387
439
474
550
681
804
852
838
839
914
1038
1140
1199
1253
1344
1463
1561
1621
1678
1751
1807
1801
1766
1784
1862
1894
1774
1553
1414
1460
1580
1610
1535
1507
1600
1680
1614
1504
1581
1857
2043
1905
1608
1555
1877
2239
2233
1888
1634
1769
2119
2276
2094
1819
1746
1897
2072
2127
2093
2045
2007
1976
1984
2080
2233
2317
2248
2083
1946
1896
1840
1631
1224
730
329
148
191
373
611
881
1203
1596
2048
2514
2914
3167
3238
3175
3075
3001
2938
2843
2713
2599
2536
2501
2459
2417
2411
2438
2436
2367
2276
2242
2279
2321
2316
2289
2298
2329
2310
2188
2005
1854
1791
1775
1720
1578
1380
1196
1074
1001
920
788
600
396
201
8
-197
-413
-611
-776
-919
-1066
-1232
-1400
-1553
-1700
-1861
-2041
-2219
-2371
-2504
-2650
-2827
-3017
-3183
-3310
-3417
-3524
-3635
-3740
-3834
-3926
-4020
-4096
-4133
-4145
-4172
-4241
-4333
-4396
-4394
-4334
-4253
-4181
-4119
-4060
-3996
-3921
-3833
-3727
-3608
-3481
-3349
-3214
-3083
-2957
-2819
-2649
-2451
-2271
-2147
-2063
-1961
-1811
-1641
-1492
-1354
-1187
-991
-823
-720
-622
-437
-155
144
382
585
836
1156
1468
1689
1824
1954
2128
2315
2441
2496
2541
2627
2742
2836
2888
2928
2982
3030
3030
2997
2996
3063
3145
3162
3120
3120
3232
3410
3536
3562
3566
3635
3762
3853
3845
3759
3661
3563
3429
3239
3018
2816
2640
2455
2225
1975
1764
1628
1544
1430
1224
941
655
428
263
129
14
-72
-130
-207
-364
-623
-949
-1279
-1571
-1837
-2110
-2420
-2767
-3118
-3417
-3657
-3901
-4253
-4740
-5259
-5649
-5829
-5852
-5815
-5734
-5562
-5294
-5007
-4787
-4645
-4551
-4529
-4672
-5001
-5387
-5646
-5716
-5707
-5748
-5852
-5923
-5896
-5819
-5791
-5844
-5930
-5985
-5999
-6006
-6020
-6006
-5935
-5825
-5754
-5776
-5869
-5947
-5939
-5860
-5774
-5723
-5691
-5646
-5592
-5557
-5540
-5499
-5398
-5262
-5144
-5064
-4987
-4878
-4746
-4622
-4507
-4375
-4221
-4079
-3944
-3717
-3276
-2602
-1824
-1106
-499
77
704
1350
1887
2224
2384
2462
2537
2626
2709
2774
2813
2819
2792
2755
2739
2743
2722
2628
2472
2321
2236
2200
2140
1995
1766
1497
1203
868
494
132
-150
-335
-471
-605
-726
-786
-778
-758
-802
-934
-1106
-1252
-1339
-1377
-1384
-1370
-1342
-1305
-1260
-1198
-1111
-1024
-982
-1017
-1106
-1173
-1156
-1072
-991
-958
-932
-821
-587
-298
-66
65
159
312
543
780
941
1017
1069
1164
1299
1424
1490
1500
1498
1524
1582
1651
1707
1744
1776
1827
1919
2055
2223
2399
2564
2721
2886
3066
3248
3413
3556
3696
3848
4008
4160
4300
4442
4592
4742
4873
4973
5048
5109
5164
5208
5238
5259
5283
5307
5319
5311
5296
5311
5380
5478
5540
5535
5510
5536
5605
5608
5441
5126
4781
4470
4130
3694
3254
3025
3140
3490
3850
4120
4405
4829
5342
5727
5820
5646
5361
5088
4847
4602
4346
4113
3940
3840
3794
3771
3732
3654
3540
3412
3281
3144
3000
2877
2807
2785
2760
2687
2571
2460
2373
2277
2142
1994
1900
1892
1925
1937
1919
1908
1924
1933
1896
1826
1775
1760
1744
1682
1584
1511
1505
1562
1642
1714
1762
1782
1785
1797
1835
1876
1871
1807
1732
1708
1744
1787
1794
1778
1769
1761
1729
1680
1660
1691
1718
1662
1524
1389
1332
1339
1332
1270
1188
1136
1119
1108
1094
1105
1159
1223
1238
1174
1072
1004
1003
1033
1032
978
915
900
939
983
991
975
971
990
1006
991
950
916
909
930
967
1005
1026
1019
988
950
924
914
914
915
912
908
913
934
969
1003
1013
1000
987
986
988
967
916
855
817
814
844
894
937
943
882
786
752
825
933
954
845
690
581
501
367
177
14
-113
-354
-851
-1490
-1938
-1986
-1800
-1745
-1979
-2292
-2351
-2059
-1638
-1375
-1379
-1536
-1651
-1614
-1468
-1345
-1357
-1493
-1637
-1687
-1656
-1648
-1742
-1888
-1993
-2058
-2195
-2510
-2983
-3480
-3893
-4273
-4782
-5476
-6159
-6518
-6411
-6008
-5615
-5374
-5168
-4830
-4391
-4085
-4111
-4439
-4869
-5237
-5532
-5821
-6091
-6224
-6114
-5775
-5333
-4898
-4497
-4117
-3796
-3641
-3730
-4037
-4472
-4977
-5551
-6183
-6796
-7287
-7613
-7803
-7898
-7905
-7819
-7675
-7552
-7502
-7511
-7533
-7547
-7575
-7635
-7706
-7728
-7662
-7505
-7284
-7033
-6782
-6563
-6393
-6250
-6076
-5827
-5527
-5248
-5041
-4899
-4781
-4671
-4577
-4490
-4370
-4180
-3933
-3701
-3559
-3508
-3461
-3305
-2980
-2528
-2039
-1581
-1151
-708
-250
187
571
900
1175
1370
1447
1423
1391
1464
1680
1968
2222
2393
2521
2666
2835
2975
3037
3025
2987
2958
2929
2865
2765
2676
2655
2720
2828
2924
2996
3090
3262
3514
3792
4035
4222
4378
4523
4640
4713
4763
4837
4957
5093
5200
5266
5312
5357
5388
5393
5393
5414
5460
5496
5498
5488
5505
5554
5595
5589
5540
5487
5456
5419
5322
5146
4936
4759
4638
4529
4373
4165
3968
3850
3820
3825
3814
3789
3784
3814
3853
3878
3890
3905
3915
3891
3832
3762
3703
3641
3560
3478
3445
3469
3489
3432
3305
3196
3180
3224
3216
3096
2915
2770
2686
2587
2399
2148
1936
1810
1683
1425
1016
575
231
-10
-237
-478
-621
-532
-213
191
551
881
1266
1696
2008
2033
1773
1390
1053
795
547
260
-13
-186
-222
-168
-91
-31
13
35
23
-29
-90
-121
-105
-58
-8
41
104
172
217
222
209
213
228
224
188
157
169
211
222
175
116
122
212
322
380
379
365
378
424
489
557
597
566
451
310
239
276
352
353
244
108
51
89
127
58
-142
-410
-676
-908
-1110
-1281
-1410
-1486
-1512
-1502
-1463
-1393
-1289
-1136
-942
-745
-609
-555
-522
-423
-237
-37
99
172
240
313
324
214
25
-146
-270
-424
-689
-1025
-1294
-1408
-1412
-1414
-1459
-1492
-1435
-1275
-1073
-910
-822
-801
-804
-795
-776
-772
-804
-846
-852
-798
-714
-642
-590
-529
-440
-354
-321
-362
-450
-541
-612
-672
-737
-811
-885
-938
-952
-924
-871
-812
-747
-668
-571
-478
-413
-372
-318
-220
-83
53
152
218
289
394
522
635
704
739
774
828
887
924
929
923
926
934
928
904
879
863
840
785
695
594
509
439
362
274
215
235
330
436
496
523
577
669
719
634
413
138
-137
-449
-832
-1191
-1334
-1154
-751
-330
9
345
786
1292
1683
1812
1685
1426
1152
903
670
454
278
156
88
70
91
120
108
34
-76
-180
-260
-339
-439
-536
-596
-614
-631
-686
-777
-882
-979
-1059
-1123
-1175
-1244
-1363
-1517
-1658
-1749
-1810
-1892
-2004
-2120
-2231
-2341
-2433
-2469
-2447
-2460
-2613
-2873
-3068
-3060
-2919
-2859
-3000
-3226
-3324
-3216
-3030
-2949
-3018
-3133
-3177
-3129
-3054
-3007
-2993
-2974
-2913
-2813
-2719
-2672
-2687
-2732
-2761
-2764
-2783
-2865
-2990
-3055
-2962
-2723
-2461
-2312
-2295
-2308
-2257
-2145
-2071
-2107
-2219
-2312
-2322
-2257
-2158
-2056
-1961
-1880
-1809
-1722
-1601
-1474
-1404
-1391
-1333
-1088
-607
7
567
930
1057
998
837
645
443
195
-155
-597
-1022
-1296
-1363
-1291
-1196
-1145
-1123
-1071
-941
-738
-515
-343
-266
-263
-252
-171
-36
65
53
-61
-185
-241
-218
-153
-71
38
183
343
476
561
608
637
647
633
622
667
792
954
1073
1104
1086
1106
1213
1377
1521
1602
1652
1738
1887
2042
2124
2103
2035
2001
2020
2043
2013
1943
1891
1889
1915
1938
1956
1996
2047
2068
2008
1854
1621
1341
1056
814
659
610
684
899
1250
1687
2148
2614
3091
3523
3778
3762
3543
3306
3173
3099
2979
2808
2686
2672
2715
2763
2862
3081
3363
3527
3489
3376
3397
3612
3863
3986
3986
3999
4107
4251
4322
4298
4270
4330
4482
4633
4671
4558
4371
4233
4204
4220
4166
4006
3819
3706
3680
3665
3609
3549
3544
3578
3560
3438
3261
3111
3006
2882
2696
2463
2218
1970
1714
1487
1340
1269
1190
1031
816
622
470
282
-15
-384
-722
-987
-1241
-1557
-1911
-2207
-2391
-2519
-2681
-2906
-3159
-3414
-3685
-3983
-4280
-4539
-4762
-4984
-5222
-5455
-5647
-5790
-5896
-5977
-6043
-6102
-6165
-6224
-6252
-6236
-6187
-6126
-6062
-5987
-5904
-5835
-5788
-5744
-5677
-5590
-5511
-5459
-5418
-5360
-5277
-5193
-5127
-5074
-5010
-4918
-4800
-4669
-4535
-4394
-4227
-4016
-3753
-3456
-3156
-2862
-2556
-2220
-1867
-1524
-1200
-875
-526
-161
188
508
821
1152
1500
1841
2156
2438
2686
2893
3055
3179
3278
3353
3394
3400
3392
3396
3412
3422
3411
3384
3364
3371
3400
3425
3422
3388
3348
3327
3335
3356
3362
3339
3303
3275
3258
3232
3178
3098
3007
2899
2744
2520
2244
1941
1607
1217
810
521
503
779
1203
1599
1931
2301
2778
3262
3547
3521
3261
2935
2634
2332
1997
1687
1505
1481
1526
1529
1471
1414
1408
1428
1405
1303
1152
1006
897
832
805
793
757
664
539
459
496
652
868
1079
1262
1430
1601
1766
1888
1932
1895
1809
1722
1663
1623
1588
1561
1546
1503
1358
1062
645
195
-216
-591
-983
-1409
-1823
-2147
-2326
-2369
-2350
-2359
-2449
-2609
-2792
-2972
-3161
-3389
-3662
-3954
-4253
-4570
-4918
-5275
-5592
-5849
-6083
-6357
-6688
-7029
-7310
-7507
-7656
-7820
-8022
-8247
-8465
-8665
-8864
-9069
-9274
-9450
-9581
-9678
-9771
-9893
-10053
-10230
-10395
-10531
-10647
-10766
-10902
-11046
-11189
-11329
-11484
-11657
-11821
-11947
-12029
-12098
-12200
-12340
-12453
-12453
-12321
-12132
-11984
-11883
-11744
-11513
-11253
-11057
-10880
-10507
-9761
-8714
-7636
-6715
-5882
-4938
-3823
-2715
-1847
-1288
-911
-557
-164
250
671
1119
1602
2100
2586
3046
3484
3891
4256
4579
4866
5110
5299
5440
5573
5734
5921
6091
6198
6228
6208
6172
6134
6094
6047
5998
5940
5856
5721
5517
5259
4989
4749
4542
4338
4129
3942
3798
3668
3507
3320
3172
3085
2977
2748
2414
2109
1915
1761
1545
1335
1360
1751
2357
2880
3190
3423
3774
4228
4561
4585
4338
4016
3775
3625
3496
3357
3239
3193
3229
3300
3350
3347
3305
3266
3254
3255
3241
3205
3175
3182
3224
3266
3275
3253
3216
3172
3114
3054
3036
3097
3205
3274
3247
3157
3089
3081
3076
2992
2825
2662
2596
2628
2678
2680
2639
2612
2641
2705
2756
2763
2737
2708
2692
2686
2680
2676
2682
2692
2686
2652
2599
2555
2534
2520
2491
2446
2405
2375
2339
2281
2215
2172
2157
2145
2115
2087
2097
2141
2174
2157
2108
2075
2070
2062
2022
1966
1930
1934
1966
2008
2064
2129
2185
2211
2219
2238
2289
2364
2450
2538
2619
2672
2689
2697
2735
2796
2825
2786
2716
2686
2712
2734
2692
2609
2560
2575
2600
2574
2520
2520
2609
2726
2781
2765
2763
2844
2974
3039
2967
2802
2643
2548
2488
2411
2319
2265
2286
2363
2468
2596
2764
2948
3081
3115
3077
3052
3082
3123
3095
2978
2823
2699
2631
2606
2601
2608
2627
2661
2715
2785
2847
2861
2814
2748
2723
2742
2725
2598
2390
2230
2228
2355
2470
2459
2344
2242
2218
2199
2048
1717
1305
946
649
301
-163
-600
-755
-511
-29
405
674
924
1351
1939
2451
2651
2506
2180
1871
1657
1520
1411
1308
1214
1151
1146
1204
1277
1290
1203
1066
966
921
841
612
226
-207
-588
-963
-1479
-2210
-3061
-3877
-4587
-5237
-5870
-6448
-6910
-7272
-7601
-7918
-8159
-8246
-8189
-8079
-7987
-7893
-7756
-7580
-7411
-7297
-7244
-7240
-7276
-7338
-7397
-7430
-7451
-7486
-7505
-7403
-7085
-6577
-6027
-5567
-5175
-4694
-4006
-3167
-2362
-1745
-1313
-953
-572
-170
200
507
770
1013
1243
1448
1638
1833
2040
2241
2400
2493
2525
2505
2428
2289
2094
1855
1592
1326
1090
918
843
936
1319
2113
3325
4786
6249
7555
8696
9700
10496
10921
10862
10374
9636
8820
8022
7283
6630
6087
5655
5311
5020
4753
4481
4173
3807
3379
2914
2466
2096
1836
1662
1518
1371
1238
1154
1116
1082
1025
965
940
955
971
955
908
856
819
794
776
779
825
914
1022
1113
1166
1181
1178
1166
1153
1146
1170
1250
1387
1540
1660
1736
1807
1907
2026
2113
2133
2100
2054
2003
1930
1826
1711
1603
1496
1376
1255
1160
1088
999
875
749
657
554
334
-61
-576
-1112
-1635
-2157
-2618
-2850
-2716
-2275
-1741
-1265
-797
-209
474
1031
1243
1108
829
606
476
350
181
22
-34
30
153
263
339
396
430
414
338
245
197
212
253
275
271
263
256
226
170
123
128
176
220
234
244
287
339
337
260
165
131
165
195
153
50
-39
-65
-47
-40
-74
-126
-146
-107
-19
93
221
391
629
917
1172
1300
1274
1149
993
809
537
138
-314
-669
-829
-824
-771
-756
-769
-766
-752
-782
-894
-1052
-1184
-1252
-1281
-1312
-1344
-1337
-1258
-1122
-972
-844
-746
-675
-641
-645
-663
-652
-578
-454
-336
-280
-293
-340
-370
-352
-287
-196
-100
-16
49
93
122
148
183
227
258
261
235
194
150
98
38
-17
-45
-46
-56
-100
-152
-133
11
240
446
551
572
590
654
725
723
618
464
342
294
301
323
338
353
377
411
454
505
540
522
429
281
145
81
82
78
-4
-164
-331
-431
-459
-480
-565
-726
-911
-1052
-1110
-1094
-1033
-933
-789
-593
-352
-79
211
494
737
915
1026
1087
1096
1022
845
586
304
44
-185
-347
-348
-104
356
876
1319
1695
2128
2659
3142
3356
3222
2875
2528
2291
2124
1942
1727
1535
1421
1391
1403
1406
1363
1276
1171
1075
998
932
872
828
813
827
844
839
799
736
668
610
576
561
553
541
527
520
524
508
446
350
277
268
303
321
282
205
137
88
41
-18
-70
-99
-119
-155
-209
-257
-286
-314
-359
-411
-443
-455
-475
-515
-553
-565
-559
-565
-589
-609
-621
-650
-713
-789
-830
-823
-798
-774
-731
-649
-550
-470
-411
-337
-224
-103
-28
-13
-12
18
83
152
205
258
327
403
446
435
388
350
352
375
378
329
249
192
194
246
285
272
226
201
231
275
251
119
-77
-248
-323
-304
-275
-332
-490
-645
-677
-578
-456
-420
-448
-439
-373
-357
-463
-601
-606
-451
-308
-343
-497
-546
-373
-111
21
-35
-135
-112
39
187
221
161
129
216
384
510
511
422
346
358
421
460
453
445
494
610
768
942
1094
1168
1140
1023
877
757
668
577
461
348
319
449
705
936
976
805
554
366
227
32
-243
-448
-414
-137
246
634
1052
1540
2015
2326
2420
2378
2303
2204
2044
1848
1709
1704
1790
1876
1923
1966
2048
2164
2269
2313
2292
2234
2176
2136
2100
2054
2006
1977
1961
1925
1833
1694
1554
1451
1393
1350
1291
1203
1090
970
862
764
677
621
622
664
658
508
243
42
67
276
459
449
301
220
326
540
722
834
963
1170
1402
1573
1690
1843
2067
2279
2364
2306
2193
2107
2041
1929
1731
1463
1155
840
557
307
22
-369
-849
-1305
-1652
-1953
-2333
-2798
-3218
-3512
-3791
-4218
-4759
-5200
-5404
-5489
-5673
-5981
-6235
-6303
-6268
-6296
-6425
-6536
-6529
-6437
-6351
-6291
-6215
-6102
-5984
-5901
-5858
-5852
-5902
-6032
-6231
-6454
-6649
-6774
-6819
-6827
-6877
-7009
-7159
-7208
-7110
-6969
-6937
-7065
-7216
-7182
-6862
-6321
-5701
-5086
-4454
-3738
-2925
-2067
-1267
-620
-163
145
402
694
1029
1351
1606
1819
2060
2374
2723
3054
3347
3604
3799
3887
3877
3871
3965
4155
4340
4442
4495
4587
4747
4922
5050
5137
5228
5330
5407
5433
5434
5483
5607
5757
5858
5888
5902
5947
5990
5945
5774
5542
5337
5166
4980
4792
4730
4914
5310
5751
6120
6465
6879
7331
7641
7666
7460
7207
7027
6892
6716
6496
6312
6231
6236
6269
6293
6298
6260
6150
5965
5746
5548
5402
5304
5236
5182
5126
5052
4958
4878
4849
4874
4907
4903
4871
4858
4893
4950
4985
5002
5047
5154
5293
5409
5491
5587
5743
5948
6146
6298
6417
6535
6652
6744
6805
6859
6927
7002
7059
7091
7117
7149
7176
7183
7182
7198
7228
7233
7181
7085
6997
6955
6946
6932
6890
6831
6780
6738
6698
6655
6620
6602
6601
6607
6608
6589
6546
6494
6454
6437
6424
6378
6297
6211
6146
6097
6054
6042
6088
6160
6144
5948
5579
5142
4728
4328
3877
3352
2823
2394
2115
1957
1853
1760
1668
1576
1456
1242
877
374
-170
-645
-1028
-1389
-1784
-2162
-2406
-2472
-2461
-2522
-2700
-2908
-3046
-3117
-3207
-3366
-3547
-3667
-3707
-3712
-3732
-3773
-3806
-3811
-3798
-3787
-3802
-3847
-3913
-3979
-4054
-4191
-4454
-4842
-5273
-5649
-5956
-6258
-6605
-6965
-7251
-7426
-7539
-7671
-7858
-8075
-8299
-8547
-8853
-9211
-9558
-9831
-10034
-10231
-10462
-10706
-10920
-11103
-11301
-11541
-11807
-12083
-12405
-12826
-13335
-13865
-14369
-14863
-15353
-15750
-15919
-15818
-15570
-15336
-15140
-14875
-14470
-14033
-13765
-13775
-13983
-14220
-14366
-14397
-14321
-14153
-13931
-13715
-13510
-13218
-12719
-12012
-11248
-10586
-10043
-9499
-8862
-8179
-7582
-7142
-6809
-6503
-6202
-5944
-5737
-5532
-5264
-4915
-4512
-4087
-3667
-3278
-2944
-2678
-2472
-2314
-2179
-2035
-1863
-1672
-1500
-1372
-1270
-1163
-1050
-960
-912
-886
-851
-813
-804
-833
-868
-865
-826
-792
-798
-835
-862
-847
-802
-759
-740
-732
-696
-606
-472
-326
-179
-9
218
495
775
1007
1179
1323
1470
1626
1777
1917
2048
2171
2272
2341
2391
2452
2552
2702
2889
3090
3284
3463
3633
3807
3985
4156
4289
4364
4382
4369
4359
4375
4421
4484
4550
4605
4649
4686
4722
4752
4767
4772
4790
4844
4933
5031
5113
5181
5257
5361
5491
5621
5720
5782
5830
5893
5972
6045
6086
6109
6144
6195
6228
6215
6179
6180
6247
6344
6403
6395
6352
6325
6329
6340
6335
6309
6270
6222
6171
6129
6098
6052
5957
5818
5690
5623
5592
5519
5365
5186
5080
5072
5089
5040
4910
4767
4672
4623
4576
4499
4405
4330
4288
4251
4150
3937
3635
3318
3026
2697
2233
1663
1205
1102
1378
1809
2164
2462
2914
3617
4369
4832
4888
4737
4655
4702
4719
4579
4361
4247
4310
4471
4624
4759
4906
5046
5118
5115
5109
5159
5244
5303
5335
5406
5552
5719
5824
5857
5885
5962
6089
6236
6402
6591
6751
6782
6620
6302
5942
5614
5285
4881
4389
3900
3550
3409
3424
3496
3564
3619
3655
3650
3605
3550
3503
3419
3247
3026
2905
2990
3208
3358
3318
3165
3075
3116
3181
3104
2843
2512
2274
2192
2184
2108
1902
1634
1428
1326
1234
1023
683
345
154
139
190
178
75
-45
-82
-3
134
215
150
-38
-226
-289
-201
-51
45
38
-30
-82
-88
-74
-96
-173
-265
-340
-411
-486
-544
-557
-532
-521
-551
-597
-649
-765
-990
-1231
-1295
-1113
-880
-887
-1192
-1552
-1713
-1719
-1859
-2323
-2996
-3615
-4056
-4425
-4868
-5385
-5852
-6171
-6346
-6423
-6406
-6265
-6007
-5694
-5385
-5072
-4721
-4333
-3972
-3714
-3563
-3431
-3220
-2907
-2538
-2152
-1725
-1217
-628
-24
508
915
1193
1384
1538
1685
1823
1939
2024
2084
2143
2222
2336
2472
2600
2683
2707
2673
2563
2335
1971
1502
975
381
-315
-1054
-1630
-1829
-1638
-1265
-915
-583
-101
597
1320
1771
1828
1633
1411
1259
1115
903
655
490
480
586
703
758
752
727
697
631
496
310
135
24
-25
-68
-159
-302
-460
-593
-691
-773
-858
-940
-989
-992
-969
-960
-976
-994
-994
-983
-999
-1053
-1115
-1147
-1151
-1167
-1230
-1326
-1414
-1478
-1544
-1648
-1793
-1944
-2067
-2151
-2211
-2263
-2314
-2361
-2395
-2410
-2408
-2407
-2429
-2490
-2574
-2662
-2738
-2811
-2888
-2968
-3031
-3065
-3068
-3063
-3074
-3101
-3130
-3149
-3162
-3185
-3219
-3247
-3252
-3252
-3266
-3290
-3278
-3193
-3049
-2908
-2812
-2747
-2660
-2522
-2346
-2165
-1993
-1820
-1644
-1480
-1341
-1219
-1086
-937
-795
-687
-595
-481
-334
-192
-100
-60
-20
68
194
310
386
448
544
693
877
1059
1218
1348
1459
1558
1644
1702
1718
1700
1691
1731
1826
1938
2020
2072
2141
2264
2430
2578
2662
2683
2688
2714
2759
2791
2785
2751
2721
2702
2674
2617
2540
2483
2478
2505
2500
2425
2311
2230
2216
2236
2229
2185
2154
2184
2274
2388
2493
2580
2644
2669
2618
2456
2160
1743
1253
747
254
-219
-630
-870
-839
-560
-186
141
433
804
1290
1747
1959
1858
1573
1304
1139
1019
859
656
492
446
516
625
681
647
569
526
547
567
498
328
146
85
186
359
461
430
341
310
377
469
488
411
297
210
165
133
88
42
18
17
33
59
99
164
260
372
465
482
403
276
186
162
126
-47
-361
-673
-809
-738
-607
-587
-704
-859
-958
-1023
-1130
-1302
-1486
-1635
-1767
-1931
-2134
-2323
-2449
-2534
-2652
-2855
-3106
-3327
-3471
-3555
-3644
-3774
-3906
-3985
-3994
-3993
-4041
-4117
-4131
-4012
-3767
-3473
-3182
-2890
-2565
-2211
-1876
-1609
-1414
-1262
-1114
-963
-830
-737
-659
-550
-378
-163
31
151
199
229
285
372
477
586
701
825
945
1041
1118
1217
1377
1592
1795
1906
1910
1876
1887
1944
1975
1924
1834
1798
1860
1964
2031
2063
2127
2247
2357
2370
2288
2193
2144
2106
2012
1864
1742
1710
1750
1781
1758
1695
1625
1555
1463
1343
1206
1056
883
689
503
368
300
268
231
174
116
64
-11
-140
-307
-447
-538
-642
-842
-1130
-1405
-1596
-1755
-1974
-2223
-2325
-2144
-1754
-1373
-1127
-919
-590
-134
263
417
326
134
-30
-144
-250
-344
-381
-327
-209
-82
26
116
197
263
291
267
216
185
211
288
369
423
469
551
679
783
795
726
661
670
731
754
689
575
495
479
479
431
322
208
153
182
240
235
126
-45
-175
-206
-176
-174
-246
-362
-453
-487
-469
-422
-381
-378
-429
-511
-577
-617
-662
-750
-865
-948
-964
-946
-941
-951
-950
-927
-910
-928
-971
-992
-964
-917
-912
-974
-1062
-1110
-1089
-1034
-1012
-1050
-1111
-1140
-1118
-1084
-1081
-1105
-1116
-1092
-1055
-1044
-1062
-1059
-989
-871
-773
-758
-815
-869
-859
-798
-752
-765
-817
-844
-804
-714
-631
-595
-600
-611
-605
-595
-622
-709
-835
-931
-934
-850
-738
-661
-620
-556
-423
-259
-139
-92
-63
12
142
271
348
372
379
392
417
471
569
687
764
760
711
697
766
889
991
1022
989
947
949
999
1042
1019
931
860
872
925
923
831
732
737
871
1052
1197
1293
1383
1474
1548
1583
1562
1467
1269
950
525
57
-365
-644
-733
-680
-592
-542
-527
-503
-465
-449
-479
-575
-763
-1064
-1419
-1694
-1803
-1803
-1834
-1964
-2127
-2234
-2302
-2396
-2519
-2607
-2648
-2722
-2893
-3098
-3214
-3209
-3203
-3333
-3618
-3958
-4249
-4457
-4604
-4734
-4863
-4985
-5076
-5121
-5145
-5192
-5279
-5372
-5427
-5450
-5494
-5592
-5710
-5767
-5716
-5581
-5431
-5318
-5247
-5181
-5091
-4964
-4790
-4561
-4292
-4040
-3842
-3649
-3332
-2805
-2132
-1500
-1046
-732
-404
33
519
917
1167
1332
1508
1727
1964
2194
2428
2675
2915
3131
3340
3579
3850
4113
4337
4537
4757
5004
5241
5434
5596
5769
5969
6180
6383
6579
6768
6936
7067
7167
7262
7367
7475
7565
7640
7716
7797
7869
7917
7940
7954
7975
8007
8028
8012
7956
7884
7828
7800
7780
7749
7716
7702
7702
7678
7599
7487
7401
7373
7362
7293
7131
6922
6750
6652
6591
6511
6394
6269
6163
6064
5943
5800
5669
5572
5486
5375
5235
5101
5005
4945
4891
4830
4779
4753
4734
4694
4616
4516
4425
4352
4284
4201
4097
3981
3858
3720
3560
3395
3266
3188
3113
2971
2747
2512
2344
2224
2046
1748
1385
1056
767
437
58
-211
-176
167
608
945
1197
1530
2008
2470
2674
2545
2223
1890
1620
1372
1098
821
594
442
341
250
135
-17
-204
-414
-646
-899
-1153
-1372
-1532
-1649
-1773
-1939
-2144
-2368
-2606
-2868
-3151
-3427
-3660
-3843
-4002
-4161
-4323
-4481
-4639
-4809
-5002
-5215
-5432
-5643
-5844
-6037
-6225
-6413
-6596
-6763
-6899
-7002
-7086
-7169
-7260
-7351
-7433
-7503
-7567
-7624
-7673
-7713
-7753
-7794
-7828
-7851
-7868
-7891
-7919
-7942
-7955
-7969
-7997
-8037
-8066
-8072
-8061
-8049
-8039
-8022
-7994
-7971
-7968
-7981
-7987
-7973
-7957
-7960
-7986
-8011
-8016
-8007
-7995
-7973
-7922
-7854
-7807
-7806
-7814
-7775
-7701
-7690
-7828
-8102
-8403
-8657
-8903
-9232
-9653
-10065
-10372
-10595
-10829
-11111
-11373
-11537
-11627
-11732
-11862
-11885
-11640
-11106
-10424
-9744
-9084
-8343
-7452
-6497
-5665
-5088
-4739
-4473
-4153
-3739
-3268
-2775
-2249
-1647
-940
-147
685
1499
2247
2906
3475
3966
4393
4768
5118
5471
5852
6258
6667
7077
7502
7944
8364
8713
8992
9241
9470
9622
9630
9499
9316
9157
9007
8807
8552
8316
8162
8052
7888
7635
7358
7126
6903
6569
6075
5496
4933
4375
3728
3003
2399
2135
2225
2464
2654
2821
3138
3668
4243
4615
4690
4572
4417
4295
4184
4066
3964
3911
3911
3954
4037
4162
4302
4407
4436
4383
4284
4184
4108
4043
3960
3848
3737
3669
3651
3640
3586
3489
3416
3433
3534
3653
3721
3726
3708
3700
3701
3697
3683
3672
3665
3654
3633
3608
3596
3597
3593
3568
3517
3458
3407
3362
3301
3207
3083
2962
2876
2824
2771
2689
2592
2513
2463
2410
2326
2218
2121
2055
2000
1931
1847
1768
1704
1646
1582
1506
1409
1287
1145
1007
900
825
761
690
611
531
458
410
408
454
505
507
458
416
441
526
601
618
601
611
676
763
827
862
894
948
1020
1091
1154
1211
1269
1337
1421
1520
1618
1690
1716
1693
1635
1550
1432
1271
1078
888
732
616
520
427
351
323
350
403
440
449
462
513
599
673
696
667
628
627
673
730
753
730
692
683
723
796
868
914
932
928
914
901
896
893
877
838
795
773
780
783
755
726
751
836
916
925
878
850
863
832
657
363
69
-160
-409
-777
-1156
-1250
-851
-94
650
1133
1437
1829
2410
2975
3227
3124
2892
2762
2741
2684
2550
2468
2533
2629
2557
2328
2179
2271
2434
2321
1830
1285
1126
1452
1970
2345
2524
2704
3044
3487
3851
4012
3977
3829
3636
3421
3171
2883
2579
2291
2033
1799
1577
1394
1301
1282
1242
1097
866
641
487
396
319
237
158
63
-84
-301
-561
-829
-1087
-1321
-1521
-1691
-1866
-2082
-2331
-2557
-2711
-2800
-2878
-2987
-3131
-3271
-3368
-3391
-3349
-3289
-3264
-3291
-3334
-3359
-3398
-3532
-3821
-4249
-4737
-5195
-5552
-5757
-5788
-5678
-5501
-5304
-5061
-4708
-4224
-3680
-3201
-2862
-2644
-2482
-2335
-2215
-2157
-2164
-2212
-2275
-2350
-2423
-2451
-2381
-2219
-2026
-1844
-1641
-1372
-1094
-959
-1033
-1151
-1040
-604
-46
358
579
854
1372
2004
2424
2450
2208
1944
1746
1531
1231
912
686
569
481
367
262
199
152
54
-99
-249
-351
-418
-479
-522
-510
-451
-412
-447
-525
-569
-548
-502
-476
-453
-373
-212
-10
190
396
653
956
1230
1408
1489
1537
1598
1669
1723
1741
1717
1635
1502
1371
1300
1277
1217
1084
981
1079
1441
1940
2392
2734
3038
3355
3588
3579
3279
2800
2288
1798
1295
771
296
-48
-249
-364
-453
-537
-626
-740
-903
-1100
-1286
-1420
-1501
-1549
-1571
-1561
-1527
-1508
-1542
-1623
-1702
-1739
-1739
-1725
-1695
-1622
-1502
-1371
-1281
-1244
-1225
-1174
-1075
-954
-843
-739
-619
-470
-304
-147
-4
139
285
406
477
512
559
660
803
940
1039
1113
1191
1283
1371
1442
1510
1594
1694
1791
1861
1897
1908
1902
1890
1878
1871
1847
1785
1699
1642
1663
1748
1833
1856
1818
1770
1745
1735
1717
1685
1655
1634
1609
1581
1572
1604
1668
1721
1737
1735
1748
1778
1793
1769
1728
1718
1752
1778
1727
1589
1417
1267
1135
981
795
612
474
380
299
221
166
148
143
109
31
-57
-118
-161
-231
-353
-501
-608
-628
-598
-604
-696
-834
-919
-890
-778
-668
-623
-629
-613
-504
-311
-124
-44
-96
-195
-233
-192
-160
-215
-327
-397
-377
-337
-355
-423
-456
-417
-375
-423
-556
-679
-721
-691
-640
-590
-528
-468
-434
-407
-330
-206
-145
-277
-577
-899
-1143
-1370
-1676
-2017
-2204
-2103
-1795
-1460
-1167
-854
-488
-172
-21
-37
-128
-255
-467
-781
-1096
-1295
-1365
-1395
-1437
-1451
-1403
-1336
-1320
-1343
-1327
-1236
-1133
-1084
-1073
-1022
-892
-745
-664
-668
-711
-736
-726
-699
-667
-631
-582
-530
-489
-465
-454
-440
-413
-380
-363
-371
-381
-352
-268
-167
-111
-137
-231
-346
-457
-566
-684
-801
-895
-961
-1015
-1056
-1053
-985
-875
-774
-720
-700
-696
-694
-696
-692
-664
-619
-593
-605
-628
-615
-550
-469
-415
-388
-356
-297
-221
-160
-112
-56
19
96
137
138
137
172
236
282
286
280
322
420
515
541
498
448
447
494
534
518
459
407
404
436
448
405
339
309
329
347
308
222
156
148
178
200
198
200
222
252
275
293
317
342
347
334
330
335
311
232
137
111
203
359
470
489
478
524
630
706
684
614
587
609
586
462
318
290
389
462
373
166
6
-24
-12
-86
-242
-359
-365
-322
-346
-466
-599
-655
-643
-666
-795
-990
-1118
-1097
-978
-883
-868
-863
-785
-672
-647
-739
-786
-585
-130
344
620
723
863
1174
1552
1774
1730
1518
1308
1188
1126
1037
895
753
689
716
772
780
720
647
603
546
416
227
93
109
228
304
256
159
152
272
415
461
411
349
333
320
239
94
-48
-120
-124
-86
-11
124
314
513
679
813
938
1061
1159
1208
1208
1178
1132
1085
1055
1051
1054
1038
1000
973
988
1034
1076
1096
1096
1094
1097
1091
1048
940
772
581
410
254
53
-228
-547
-813
-990
-1137
-1336
-1614
-1934
-2243
-2523
-2770
-2989
-3206
-3454
-3724
-3942
-4043
-4050
-4048
-4094
-4174
-4236
-4260
-4262
-4238
-4169
-4074
-4035
-4117
-4260
-4304
-4150
-3894
-3766
-3898
-4172
-4309
-4162
-3872
-3728
-3859
-4102
-4209
-4124
-4006
-4010
-4095
-4108
-3984
-3813
-3709
-3677
-3649
-3586
-3514
-3453
-3382
-3295
-3246
-3293
-3387
-3392
-3221
-2908
-2558
-2230
-1887
-1470
-962
-394
193
762
1264
1648
1910
2116
2334
2565
2753
2868
2970
3133
3370
3618
3823
4001
4192
4382
4497
4496
4426
4373
4377
4415
4442
4438
4407
4365
4338
4334
4308
4179
3923
3612
3345
3128
2887
2612
2448
2572
2984
3490
3902
4228
4599
5047
5414
5507
5309
4998
4771
4681
4642
4563
4453
4400
4480
4667
4868
4999
5042
5036
5010
4959
4880
4814
4814
4890
4981
5014
4981
4926
4889
4862
4809
4713
4600
4510
4457
4427
4392
4344
4291
4244
4213
4198
4198
4195
4170
4113
4044
3995
3969
3941
3888
3819
3778
3791
3831
3852
3841
3834
3866
3923
3956
3940
3900
3884
3908
3947
3965
3963
3969
3999
4041
4072
4087
4111
4156
4218
4266
4280
4271
4273
4313
4388
4475
4556
4628
4697
4761
4818
4870
4932
5015
5114
5201
5247
5248
5228
5226
5258
5321
5390
5433
5432
5390
5337
5309
5321
5348
5340
5267
5145
5011
4889
4773
4651
4522
4392
4255
4097
3913
3723
3570
3486
3456
3416
3307
3145
3017
2987
2995
2892
2579
2122
1687
1365
1103
796
423
62
-222
-438
-633
-833
-1055
-1339
-1728
-2203
-2676
-3072
-3401
-3725
-4070
-4395
-4653
-4846
-4999
-5125
-5216
-5283
-5367
-5495
-5644
-5769
-5851
-5922
-6030
-6191
-6387
-6599
-6822
-7056
-7294
-7527
-7744
-7924
-8046
-8128
-8245
-8469
-8791
-9108
-9342
-9542
-9814
-10156
-10390
-10327
-9982
-9570
-9283
-9100
-8861
-8508
-8200
-8154
-8420
-8840
-9216
-9482
-9701
-9944
-10197
-10400
-10518
-10565
-10557
-10503
-10429
-10388
-10429
-10547
-10689
-10802
-10887
-10974
-11085
-11211
-11339
-11469
-11560
-11510
-11208
-10639
-9916
-9197
-8551
-7952
-7368
-6837
-6438
-6202
-6084
-6015
-5960
-5910
-5838
-5701
-5484
-5223
-4971
-4757
-4583
-4455
-4381
-4343
-4302
-4230
-4137
-4047
-3957
-3837
-3660
-3442
-3223
-3031
-2862
-2691
-2501
-2294
-2089
-1898
-1701
-1457
-1144
-796
-500
-306
-182
-54
111
272
371
408
438
508
611
717
826
966
1150
1345
1506
1614
1695
1785
1891
1989
2059
2102
2153
2242
2361
2472
2537
2563
2591
2662
2782
2931
3090
3258
3450
3676
3935
4217
4510
4803
5089
5360
5623
5882
6142
6407
6675
6935
7169
7364
7537
7723
7936
8144
8294
8366
8405
8476
8591
8693
8728
8712
8714
8779
8868
8906
8860
8770
8699
8660
8613
8519
8383
8240
8116
8007
7888
7759
7631
7510
7392
7278
7177
7089
7002
6904
6802
6704
6600
6472
6329
6217
6161
6118
5984
5701
5325
4974
4697
4409
3970
3341
2635
2011
1513
1043
499
-59
-441
-506
-312
-47
155
327
574
906
1191
1267
1102
801
497
229
-46
-357
-661
-887
-1003
-1041
-1045
-1024
-974
-919
-913
-978
-1068
-1108
-1077
-1014
-965
-924
-863
-788
-745
-757
-791
-792
-742
-670
-606
-549
-482
-411
-358
-332
-313
-275
-218
-170
-160
-194
-244
-277
-277
-249
-210
-169
-134
-111
-115
-134
-143
-116
-68
-48
-92
-181
-257
-275
-246
-209
-193
-192
-189
-181
-173
-159
-128
-82
-40
-23
-31
-36
-20
18
61
96
116
122
134
178
259
348
416
478
591
795
1031
1195
1240
1210
1174
1129
1019
823
594
409
297
253
285
428
673
942
1134
1207
1204
1189
1193
1199
1163
1074
972
920
954
1052
1158
1254
1370
1523
1656
1683
1592
1485
1463
1531
1591
1557
1436
1302
1221
1211
1256
1316
1340
1318
1296
1338
1456
1596
1686
1717
1728
1753
1804
1893
2040
2254
2499
2733
2951
3187
3465
3744
3956
4073
4149
4257
4407
4522
4536
4492
4529
4726
4989
5126
5022
4747
4473
4300
4183
4002
3656
3131
2494
1837
1211
564
-217
-1167
-2125
-2818
-3086
-3020
-2832
-2612
-2253
-1629
-811
-60
405
576
609
641
671
619
464
299
249
356
555
745
861
898
871
787
649
478
301
138
-12
-160
-324
-516
-738
-979
-1221
-1458
-1687
-1902
-2097
-2270
-2435
-2585
-2670
-2623
-2410
-2073
-1708
-1396
-1142
-895
-620
-358
-215
-255
-418
-559
-565
-443
-262
-38
308
851
1549
2253
2834
3270
3604
3836
3899
3737
3376
2906
2405
1899
1404
950
565
237
-77
-399
-693
-906
-1025
-1098
-1182
-1294
-1409
-1504
-1578
-1643
-1707
-1780
-1876
-2007
-2161
-2305
-2406
-2459
-2466
-2423
-2318
-2164
-2005
-1881
-1788
-1687
-1555
-1423
-1339
-1310
-1283
-1201
-1071
-960
-921
-927
-904
-817
-714
-665
-677
-686
-639
-566
-536
-574
-626
-634
-609
-613
-676
-755
-796
-803
-831
-905
-986
-1017
-1001
-997
-1043
-1100
-1103
-1038
-971
-975
-1049
-1119
-1127
-1086
-1061
-1091
-1154
-1184
-1144
-1049
-956
-912
-917
-934
-930
-913
-914
-943
-973
-981
-976
-987
-1021
-1039
-1013
-969
-972
-1039
-1113
-1136
-1116
-1109
-1138
-1163
-1157
-1172
-1289
-1520
-1795
-2063
-2356
-2703
-3011
-3089
-2833
-2347
-1824
-1349
-841
-210
469
988
1189
1100
883
682
534
399
249
122
91
197
404
623
786
884
946
975
942
851
757
719
732
738
713
695
726
784
801
745
665
638
681
738
754
724
677
638
621
641
708
796
852
834
763
697
665
635
547
386
199
48
-36
-71
-88
-113
-151
-185
-206
-225
-278
-390
-541
-673
-755
-816
-907
-1027
-1118
-1134
-1107
-1113
-1180
-1257
-1279
-1250
-1236
-1282
-1356
-1410
-1435
-1465
-1523
-1580
-1602
-1602
-1630
-1703
-1770
-1756
-1654
-1537
-1491
-1528
-1583
-1581
-1516
-1453
-1452
-1520
-1602
-1648
-1655
-1659
-1689
-1739
-1783
-1801
-1799
-1800
-1830
-1905
-2014
-2128
-2218
-2298
-2406
-2565
-2743
-2867
-2892
-2843
-2781
-2739
-2702
-2639
-2551
-2468
-2422
-2424
-2456
-2496
-2533
-2573
-2627
-2702
-2779
-2821
-2801
-2732
-2656
-2612
-2588
-2544
-2462
-2363
-2296
-2277
-2282
-2268
-2214
-2134
-2042
-1945
-1835
-1711
-1579
-1446
-1310
-1184
-1096
-1051
-1036
-1018
-972
-907
-847
-808
-771
-701
-601
-505
-443
-401
-348
-308
-350
-506
-719
-902
-1054
-1249
-1513
-1708
-1645
-1289
-818
-433
-149
175
621
1074
1331
1294
1053
778
583
477
402
314
218
161
189
291
390
406
332
233
153
76
-35
-170
-264
-282
-273
-318
-442
-590
-691
-731
-766
-838
-931
-995
-1010
-1017
-1057
-1136
-1217
-1270
-1299
-1329
-1368
-1403
-1424
-1442
-1481
-1549
-1640
-1762
-1941
-2185
-2447
-2664
-2825
-2964
-3102
-3199
-3207
-3157
-3138
-3161
-3135
-2989
-2800
-2734
-2832
-2939
-2889
-2711
-2602
-2679
-2838
-2909
-2859
-2789
-2770
-2757
-2694
-2617
-2578
-2548
-2441
-2249
-2081
-2038
-2080
-2086
-2012
-1927
-1900
-1899
-1855
-1757
-1653
-1565
-1456
-1299
-1143
-1036
-958
-839
-660
-483
-368
-289
-173
-11
113
99
-42
-179
-223
-212
-286
-534
-845
-995
-867
-604
-481
-604
-763
-665
-291
82
203
129
124
301
488
503
412
438
629
784
726
570
583
840
1146
1324
1475
1820
2345
2751
2794
2583
2436
2503
2582
2392
1939
1526
1402
1537
1687
1699
1629
1602
1654
1727
1766
1786
1831
1877
1873
1821
1792
1871
2032
2164
2183
2126
2101
2141
2158
2058
1893
1825
1916
2005
1858
1441
1021
913
1157
1502
1690
1730
1838
2160
2576
2823
2751
2469
2205
2079
2019
1881
1641
1437
1429
1616
1825
1871
1725
1533
1447
1478
1495
1368
1095
818
689
724
794
744
550
323
183
127
50
-108
-288
-394
-405
-406
-467
-582
-696
-771
-801
-781
-693
-547
-393
-263
-137
20
211
395
560
735
929
1108
1242
1373
1598
1955
2360
2675
2856
2986
3169
3405
3589
3647
3602
3552
3542
3543
3533
3516
3514
3496
3417
3288
3185
3142
3069
2842
2480
2208
2215
2382
2351
1926
1366
1142
1395
1730
1649
1132
658
629
896
982
691
332
288
525
664
489
213
198
479
739
691
401
190
264
520
697
666
528
483
645
924
1153
1243
1256
1324
1504
1729
1901
2004
2100
2243
2413
2548
2613
2629
2633
2643
2639
2588
2497
2406
2336
2276
2198
2104
2028
1991
1968
1917
1844
1805
1837
1895
1891
1805
1718
1717
1792
1843
1795
1694
1647
1695
1778
1811
1790
1792
1878
2016
2128
2186
2245
2375
2563
2718
2785
2797
2822
2865
2839
2673
2400
2111
1839
1523
1138
798
691
887
1247
1575
1819
2096
2508
2971
3252
3187
2817
2328
1887
1532
1220
919
650
456
358
328
320
292
226
120
-22
-197
-382
-537
-634
-682
-716
-757
-793
-806
-801
-807
-839
-875
-877
-830
-746
-644
-536
-427
-313
-187
-44
116
282
444
607
778
953
1118
1268
1417
1586
1774
1957
2114
2248
2378
2513
2638
2730
2786
2838
2938
3100
3285
3436
3545
3672
3869
4105
4289
4368
4390
4437
4515
4563
4557
4567
4687
4913
5139
5276
5348
5443
5603
5764
5837
5801
5716
5658
5637
5607
5534
5447
5412
5447
5486
5438
5288
5114
4999
4926
4795
4535
4188
3847
3553
3264
2924
2536
2146
1779
1416
1034
641
261
-108
-485
-866
-1210
-1486
-1716
-1953
-2215
-2462
-2645
-2773
-2913
-3127
-3411
-3721
-4020
-4306
-4592
-4877
-5141
-5362
-5529
-5643
-5717
-5766
-5806
-5841
-5862
-5862
-5852
-5853
-5877
-5914
-5941
-5941
-5916
-5875
-5835
-5811
-5815
-5848
-5902
-5967
-6026
-6069
-6093
-6115
-6161
-6250
-6369
-6478
-6542
-6575
-6624
-6727
-6857
-6957
-7015
-7082
-7196
-7319
-7391
-7439
-7584
-7914
-8366
-8798
-9170
-9581
-10087
-10534
-10671
-10410
-9950
-9554
-9273
-8927
-8383
-7766
-7358
-7328
-7578
-7876
-8075
-8190
-8305
-8448
-8563
-8588
-8516
-8377
-8175
-7866
-7415
-6872
-6344
-5869
-5324
-4502
-3349
-2069
-958
-130
573
1366
2250
2991
3391
3512
3617
3892
4277
4581
4710
4751
4819
4901
4890
4750
4584
4509
4507
4447
4248
3991
3823
3793
3803
3738
3593
3445
3351
3291
3229
3187
3214
3323
3472
3599
3677
3719
3734
3709
3624
3479
3298
3109
2926
2756
2607
2498
2431
2384
2326
2257
2203
2188
2200
2205
2197
2204
2245
2308
2357
2382
2409
2457
2519
2587
2674
2799
2948
3078
3164
3236
3356
3549
3772
3955
4064
4128
4207
4336
4488
4610
4672
4700
4748
4837
4942
5019
5056
5083
5127
5184
5211
5175
5089
5006
4973
4979
4959
4868
4729
4630
4622
4663
4658
4561
4430
4351
4341
4342
4296
4217
4167
4175
4207
4215
4193
4178
4188
4194
4151
4063
3978
3926
3870
3745
3541
3338
3216
3168
3109
2978
2807
2676
2621
2594
2525
2405
2277
2186
2139
2125
2139
2166
2181
2181
2197
2254
2306
2255
2051
1758
1476
1214
894
507
220
259
666
1249
1773
2209
2717
3405
4155
4716
4957
4959
4909
4917
4974
5030
5074
5125
5202
5317
5483
5690
5887
6016
6059
6059
6059
6080
6118
6171
6239
6298
6319
6294
6254
6224
6186
6098
5972
5882
5876
5920
5942
5910
5855
5805
5729
5575
5352
5115
4881
4601
4225
3794
3424
3197
3096
3042
2980
2912
2869
2877
2937
3017
3071
3072
3023
2957
2894
2831
2766
2715
2689
2677
2658
2628
2609
2609
2600
2542
2437
2333
2265
2236
2228
2226
2222
2198
2140
2054
1980
1944
1916
1828
1659
1451
1284
1201
1170
1136
1078
1017
963
875
687
389
60
-197
-346
-425
-500
-576
-600
-530
-374
-182
-29
19
-81
-314
-612
-892
-1122
-1337
-1584
-1849
-2056
-2136
-2077
-1908
-1660
-1367
-1053
-756
-507
-320
-210
-191
-268
-416
-598
-809
-1072
-1395
-1728
-2007
-2217
-2408
-2641
-2945
-3300
-3679
-4075
-4488
-4912
-5337
-5757
-6155
-6513
-6823
-7115
-7404
-7655
-7786
-7732
-7514
-7227
-6941
-6662
-6352
-5983
-5577
-5193
-4889
-4682
-4539
-4398
-4222
-4025
-3842
-3674
-3509
-3369
-3328
-3442
-3686
-3963
-4218
-4461
-4680
-4768
-4590
-4144
-3588
-3097
-2676
-2212
-1654
-1147
-891
-938
-1135
-1282
-1310
-1287
-1294
-1328
-1342
-1305
-1225
-1142
-1089
-1087
-1125
-1166
-1203
-1273
-1440
-1700
-1982
-2216
-2422
-2676
-3011
-3359
-3620
-3752
-3769
-3688
-3493
-3193
-2851
-2558
-2367
-2260
-2185
-2099
-1981
-1830
-1671
-1523
-1373
-1177
-913
-611
-337
-124
51
222
386
511
587
644
723
840
979
1116
1235
1327
1397
1458
1519
1585
1648
1704
1766
1834
1892
1921
1930
1952
2008
2067
2088
2065
2034
2016
1989
1924
1828
1754
1729
1727
1697
1634
1583
1590
1653
1723
1758
1761
1765
1802
1877
1968
2051
2118
2180
2256
2349
2451
2548
2637
2727
2820
2903
2962
2998
3029
3080
3150
3208
3230
3211
3168
3125
3099
3099
3128
3175
3201
3160
3047
2919
2844
2832
2823
2750
2622
2508
2457
2444
2413
2349
2294
2281
2284
2243
2137
2002
1905
1875
1888
1881
1815
1712
1635
1634
1686
1708
1649
1545
1474
1457
1439
1358
1225
1103
1023
948
840
713
610
557
551
587
665
776
902
1039
1175
1262
1234
1080
872
682
505
292
89
53
303
779
1300
1767
2229
2743
3236
3559
3648
3577
3443
3258
2992
2683
2438
2331
2331
2351
2348
2327
2298
2226
2069
1816
1486
1122
764
460
249
141
115
139
199
292
410
534
639
712
753
768
762
752
757
785
826
881
991
1221
1597
2062
2494
2792
2943
2993
2974
2842
2534
2056
1519
1073
789
628
505
399
357
409
500
526
420
211
-14
-188
-305
-396
-488
-582
-658
-701
-729
-788
-921
-1134
-1394
-1665
-1931
-2182
-2390
-2520
-2585
-2652
-2787
-2979
-3147
-3211
-3157
-3034
-2892
-2733
-2539
-2308
-2078
-1894
-1769
-1680
-1589
-1475
-1346
-1221
-1108
-999
-888
-780
-691
-628
-586
-556
-542
-560
-617
-696
-762
-793
-805
-841
-928
-1041
-1129
-1165
-1165
-1177
-1222
-1284
-1334
-1361
-1387
-1437
-1510
-1580
-1622
-1631
-1639
-1675
-1728
-1754
-1722
-1658
-1631
-1676
-1761
-1821
-1834
-1839
-1879
-1949
-2003
-2020
-2028
-2067
-2138
-2208
-2247
-2264
-2284
-2316
-2349
-2376
-2399
-2425
-2449
-2455
-2433
-2400
-2384
-2391
-2402
-2399
-2392
-2396
-2399
-2381
-2360
-2402
-2558
-2795
-3034
-3234
-3425
-3619
-3723
-3596
-3211
-2699
-2221
-1813
-1393
-897
-389
-16
121
52
-107
-241
-289
-272
-264
-329
-434
-455
-302
-38
144
116
-50
-159
-103
26
52
-75
-226
-241
-103
49
86
22
-21
45
191
337
448
549
666
786
887
992
1158
1403
1667
1874
1999
2070
2112
2111
2037
1889
1701
1502
1302
1099
908
755
643
562
514
524
598
689
729
704
682
706
716
607
368
133
59
150
253
232
114
40
85
174
190
109
11
-37
-55
-99
-173
-223
-212
-167
-149
-202
-321
-475
-618
-700
-702
-652
-612
-612
-615
-546
-369
-141
44
138
177
238
356
496
614
704
791
884
941
920
844
803
861
978
1042
999
927
952
1095
1235
1242
1143
1093
1181
1333
1397
1330
1241
1228
1265
1248
1137
999
919
891
856
789
729
715
738
764
766
749
729
721
745
793
832
831
810
813
855
891
872
806
749
728
734
757
812
912
1012
1056
1057
1100
1239
1406
1466
1374
1240
1206
1291
1353
1243
954
599
264
-63
-399
-660
-710
-510
-191
114
423
881
1529
2190
2605
2685
2570
2439
2341
2210
2007
1779
1598
1476
1389
1346
1379
1475
1551
1527
1409
1287
1245
1286
1339
1344
1313
1322
1426
1592
1746
1836
1900
2008
2179
2354
2469
2534
2611
2736
2874
2972
3026
3095
3228
3406
3561
3649
3676
3681
3692
3708
3715
3708
3682
3633
3546
3419
3264
3102
2946
2781
2585
2346
2082
1829
1619
1451
1300
1134
945
748
555
365
170
-27
-213
-378
-527
-684
-860
-1046
-1216
-1352
-1459
-1567
-1695
-1837
-1966
-2065
-2149
-2237
-2323
-2368
-2344
-2271
-2201
-2156
-2106
-2012
-1879
-1758
-1687
-1661
-1641
-1604
-1555
-1509
-1472
-1436
-1393
-1336
-1256
-1155
-1047
-959
-907
-881
-853
-780
-623
-369
-49
280
582
879
1222
1619
2007
2294
2440
2489
2516
2570
2638
2689
2728
2791
2903
3048
3175
3258
3326
3426
3563
3689
3755
3774
3800
3869
3967
4056
4118
4170
4216
4238
4218
4175
4145
4153
4195
4244
4269
4245
4168
4071
3999
3969
3953
3918
3858
3794
3743
3701
3662
3613
3522
3349
3083
2761
2401
1972
1456
974
743
884
1265
1627
1855
2078
2461
2946
3267
3218
2847
2373
1950
1569
1175
785
480
300
206
137
67
-7
-100
-248
-472
-756
-1051
-1309
-1512
-1659
-1770
-1862
-1963
-2093
-2252
-2423
-2590
-2759
-2952
-3168
-3375
-3541
-3682
-3846
-4066
-4312
-4521
-4670
-4793
-4940
-5115
-5295
-5464
-5646
-5887
-6208
-6573
-6929
-7248
-7540
-7825
-8099
-8331
-8500
-8626
-8752
-8908
-9081
-9246
-9400
-9570
-9791
-10072
-10385
-10686
-10938
-11132
-11289
-11442
-11613
-11804
-11995
-12172
-12343
-12523
-12725
-12950
-13186
-13421
-13645
-13847
-14022
-14165
-14269
-14325
-14344
-14364
-14408
-14446
-14415
-14302
-14197
-14201
-14251
-14094
-13477
-12409
-11165
-10014
-8961
-7787
-6355
-4823
-3523
-2654
-2120
-1668
-1129
-526
29
491
917
1386
1909
2424
2861
3209
3485
3683
3752
3661
3478
3342
3340
3433
3514
3534
3527
3546
3592
3625
3646
3696
3801
3924
3996
3992
3952
3925
3939
3980
4009
3970
3836
3653
3516
3478
3466
3343
3069
2775
2637
2697
2810
2817
2717
2635
2672
2797
2903
2941
2939
2942
2959
2978
3002
3058
3173
3330
3468
3513
3437
3307
3233
3249
3264
3160
2972
2912
3189
3783
4456
4994
5399
5824
6348
6857
7154
7155
6947
6688
6483
6322
6170
6016
5891
5826
5807
5790
5743
5665
5567
5436
5260
5059
4888
4784
4704
4588
4446
4352
4337
4321
4197
3978
3797
3755
3801
3793
3668
3495
3368
3302
3242
3160
3069
2973
2843
2675
2529
2476
2514
2563
2545
2468
2401
2399
2444
2486
2491
2472
2458
2461
2458
2431
2391
2372
2388
2417
2424
2411
2406
2444
2520
2601
2669
2731
2794
2851
2885
2904
2929
2965
2980
2950
2888
2850
2872
2939
3013
3079
3157
3255
3344
3395
3419
3460
3547
3657
3745
3799
3855
3954
4091
4226
4319
4371
4416
4487
4590
4695
4757
4755
4717
4693
4723
4788
4846
4860
4836
4802
4787
4797
4825
4850
4850
4817
4769
4735
4725
4726
4700
4637
4572
4544
4550
4538
4462
4342
4234
4193
4194
4161
4076
3998
3976
3974
3887
3683
3458
3335
3282
3103
2630
1934
1306
972
865
680
181
-564
-1258
-1673
-1853
-2032
-2374
-2812
-3147
-3259
-3206
-3149
-3187
-3279
-3327
-3293
-3240
-3260
-3399
-3621
-3848
-4037
-4212
-4412
-4657
-4930
-5176
-5325
-5316
-5131
-4823
-4503
-4245
-4027
-3758
-3402
-3073
-2948
-3100
-3421
-3689
-3776
-3736
-3725
-3819
-3921
-3867
-3632
-3387
-3338
-3507
-3673
-3580
-3207
-2788
-2574
-2585
-2630
-2552
-2410
-2421
-2763
-3417
-4210
-4937
-5488
-5860
-6113
-6289
-6371
-6295
-6006
-5528
-4950
-4379
-3887
-3499
-3215
-3027
-2922
-2891
-2940
-3108
-3435
-3909
-4426
-4829
-5001
-4954
-4807
-4661
-4530
-4383
-4233
-4163
-4247
-4475
-4764
-5042
-5298
-5536
-5728
-5806
-5725
-5505
-5215
-4936
-4710
-4540
-4397
-4252
-4088
-3903
-3698
-3475
-3237
-2992
-2754
-2518
-2292
-2092
-1951
-1880
-1847
-1806
-1727
-1601
-1433
-1228
-968
-620
-142
471
1155
1810
2381
2893
3384
3825
4118
4188
4056
3810
3530
3244
2954
2677
2433
2214
2010
1831
1706
1639
1600
1583
1628
1789
2050
2321
2523
2647
2741
2808
2776
2578
2245
1887
1594
1359
1126
887
706
658
742
886
1002
1047
1046
1065
1165
1322
1446
1464
1412
1405
1526
1725
1870
1889
1841
1836
1917
2020
2070
2069
2084
2163
2294
2425
2538
2654
2798
2960
3116
3253
3363
3429
3441
3419
3387
3323
3163
2895
2604
2397
2265
2104
1893
1799
2029
2571
3161
3528
3663
3758
3921
4024
3871
3438
2902
2449
2128
1894
1732
1694
1812
2029
2245
2398
2497
2570
2622
2635
2600
2536
2476
2442
2436
2456
2503
2571
2624
2613
2523
2396
2301
2271
2281
2281
2254
2223
2207
2200
2172
2121
2073
2054
2055
2044
2001
1940
1878
1819
1760
1710
1687
1688
1679
1618
1494
1347
1218
1101
940
694
399
159
54
73
127
152
165
221
323
403
397
316
221
148
72
-31
-130
-159
-98
-2
48
27
-18
-28
12
66
90
76
50
50
95
178
273
354
395
388
352
327
348
415
492
546
578
610
649
669
646
594
554
544
540
512
461
424
422
442
453
444
428
424
442
480
527
570
598
612
624
634
626
578
497
426
401
420
444
440
417
417
473
577
682
741
750
745
771
840
919
971
992
1018
1080
1172
1263
1322
1349
1360
1369
1382
1387
1369
1314
1230
1139
1061
987
880
724
544
382
236
58
-170
-406
-591
-735
-915
-1184
-1497
-1777
-2026
-2324
-2689
-2977
-2989
-2682
-2240
-1894
-1686
-1461
-1092
-662
-393
-414
-639
-889
-1076
-1230
-1390
-1525
-1576
-1550
-1512
-1492
-1461
-1388
-1307
-1279
-1315
-1353
-1332
-1256
-1177
-1115
-1044
-940
-838
-787
-789
-789
-732
-622
-509
-432
-380
-314
-215
-106
-29
-3
-2
21
89
183
267
328
381
442
506
553
578
598
626
653
655
616
547
474
410
352
289
222
156
99
43
-25
-103
-180
-254
-338
-435
-536
-619
-691
-776
-873
-947
-968
-970
-1028
-1165
-1320
-1407
-1410
-1385
-1381
-1386
-1355
-1279
-1182
-1086
-995
-915
-867
-847
-821
-768
-703
-651
-602
-519
-397
-269
-169
-72
63
217
318
343
353
434
592
749
843
892
954
1052
1159
1259
1367
1494
1615
1689
1731
1789
1884
1969
1988
1957
1961
2057
2206
2325
2383
2437
2551
2722
2886
2995
3060
3121
3199
3284
3364
3440
3514
3576
3612
3613
3572
3490
3387
3305
3260
3224
3131
2968
2807
2741
2769
2774
2634
2363
2096
1942
1873
1798
1694
1619
1609
1613
1558
1447
1340
1244
1092
827
469
69
-350
-752
-1009
-965
-609
-134
244
522
884
1432
2017
2373
2379
2160
1922
1752
1621
1514
1455
1444
1405
1283
1145
1126
1255
1365
1252
914
593
540
758
1021
1144
1177
1292
1542
1785
1861
1786
1707
1724
1797
1829
1790
1721
1657
1598
1532
1464
1396
1310
1191
1060
949
867
806
769
764
789
789
727
615
523
498
509
483
383
244
130
78
80
102
116
94
11
-128
-260
-309
-265
-214
-255
-377
-464
-421
-279
-158
-126
-135
-104
-32
16
11
6
65
189
318
430
561
725
874
952
987
1084
1306
1594
1840
2005
2161
2392
2679
2937
3111
3222
3315
3390
3416
3399
3391
3421
3461
3459
3408
3359
3349
3363
3347
3271
3153
3031
2928
2842
2756
2658
2555
2460
2390
2314
2181
1963
1693
1429
1185
926
620
302
51
-85
-134
-159
-178
-156
-55
100
240
316
348
402
511
645
750
817
891
1008
1154
1280
1371
1454
1555
1660
1736
1787
1871
2026
2219
2371
2444
2490
2588
2747
2900
2995
3053
3116
3172
3155
3029
2840
2646
2444
2212
2020
2026
2308
2750
3149
3446
3780
4276
4813
5114
5028
4678
4314
4050
3822
3552
3283
3117
3081
3121
3174
3237
3320
3394
3410
3346
3232
3123
3048
3013
3002
2998
3005
3040
3102
3146
3110
2989
2848
2763
2746
2728
2639
2485
2325
2219
2179
2187
2214
2219
2161
2034
1886
1784
1738
1692
1574
1395
1238
1169
1165
1143
1055
958
920
932
908
789
618
492
444
420
351
244
158
114
67
-31
-169
-291
-374
-466
-622
-830
-1016
-1121
-1185
-1317
-1590
-1962
-2323
-2613
-2876
-3200
-3604
-4009
-4312
-4483
-4574
-4651
-4745
-4858
-4992
-5151
-5325
-5483
-5612
-5728
-5863
-6022
-6172
-6267
-6292
-6284
-6303
-6385
-6505
-6619
-6717
-6827
-6976
-7132
-7245
-7309
-7375
-7492
-7636
-7732
-7740
-7699
-7676
-7685
-7686
-7640
-7550
-7452
-7375
-7331
-7303
-7262
-7180
-7065
-6968
-6930
-6931
-6903
-6802
-6671
-6596
-6609
-6658
-6672
-6644
-6623
-6649
-6702
-6741
-6754
-6772
-6830
-6917
-6996
-7044
-7070
-7105
-7155
-7199
-7211
-7193
-7175
-7177
-7175
-7130
-7031
-6905
-6776
-6640
-6483
-6307
-6110
-5869
-5562
-5236
-4991
-4864
-4748
-4477
-3989
-3376
-2724
-1974
-988
251
1563
2728
3685
4518
5275
5863
6151
6128
5932
5715
5530
5360
5198
5080
5037
5047
5052
5002
4893
4737
4549
4327
4065
3768
3461
3177
2940
2747
2575
2400
2216
2044
1917
1853
1829
1800
1744
1682
1647
1630
1576
1438
1233
1036
906
846
807
750
666
576
501
462
483
563
672
759
794
809
869
1013
1211
1393
1516
1592
1665
1754
1835
1878
1881
1876
1887
1915
1941
1950
1944
1939
1939
1938
1924
1895
1856
1812
1770
1725
1678
1647
1645
1663
1670
1636
1579
1549
1568
1605
1614
1579
1528
1497
1499
1537
1610
1704
1783
1813
1806
1814
1868
1931
1936
1868
1793
1775
1799
1796
1736
1666
1653
1692
1715
1677
1623
1631
1717
1817
1872
1890
1932
2030
2146
2217
2230
2228
2256
2319
2388
2442
2492
2575
2707
2871
3028
3159
3279
3423
3600
3772
3904
3992
4086
4228
4400
4544
4623
4665
4737
4873
5024
5106
5088
5044
5095
5278
5498
5611
5577
5504
5539
5709
5893
5951
5872
5762
5733
5788
5854
5879
5870
5840
5774
5648
5466
5253
5001
4684
4347
4129
4161
4419
4735
4975
5181
5504
5983
6459
6711
6664
6455
6284
6237
6255
6237
6158
6085
6101
6211
6332
6378
6347
6316
6337
6371
6339
6239
6160
6176
6249
6278
6216
6125
6083
6094
6088
6015
5896
5801
5778
5817
5861
5831
5685
5442
5154
4865
4567
4223
3830
3406
2977
2587
2244
1927
1635
1400
1255
1161
1016
761
473
267
99
-269
-1003
-1928
-2639
-2915
-2987
-3275
-3903
-4541
-4772
-4546
-4206
-4112
-4305
-4542
-4591
-4419
-4134
-3833
-3548
-3305
-3141
-3056
-2979
-2817
-2605
-2483
-2565
-2831
-3127
-3331
-3465
-3631
-3858
-4070
-4217
-4377
-4665
-5075
-5457
-5661
-5689
-5677
-5751
-5917
-6084
-6177
-6192
-6178
-6174
-6157
-6047
-5751
-5236
-4577
-3920
-3387
-2994
-2668
-2360
-2133
-2123
-2417
-2940
-3485
-3846
-3968
-3961
-3989
-4126
-4307
-4413
-4402
-4337
-4330
-4426
-4563
-4630
-4567
-4406
