-1904
-1742
-1908
-2354
-2924
-3505
-4079
-4693
-5368
-6001
-6361
-6285
-5853
-5357
-5005
-4733
-4334
-3782
-3299
-3099
-3121
-3103
-2896
-2623
-2506
-2600
-2756
-2810
-2739
-2635
-2568
-2534
-2510
-2494
-2493
-2488
-2456
-2407
-2373
-2362
-2358
-2358
-2384
-2440
-2475
-2440
-2355
-2312
-2358
-2426
-2419
-2348
-2314
-2371
-2452
-2440
-2315
-2168
-2084
-2054
-2002
-1875
-1680
-1471
-1318
-1254
-1246
-1211
-1104
-958
-836
-734
-613
-524
-611
-920
-1243
-1291
-1025
-774
-924
-1499
-2121
-2370
-2178
-1854
-1753
-1923
-2046
-1713
-803
381
1323
1728
1759
1808
2083
2407
2474
2205
1804
1518
1400
1383
1451
1638
1869
1991
2025
2289
3074
4175
4918
4828
4205
3822
4020
4249
3678
2173
505
-441
-511
-232
-64
63
484
1268
2102
2633
2757
2598
2327
2057
1850
1705
1592
1512
1576
1917
2505
3105
3475
3572
3547
3534
3530
3503
3493
3562
3649
3615
3502
3610
4199
5086
5699
5646
5173
4906
5103
5322
4959
4019
3153
2915
3188
3442
3426
3368
3555
3926
4222
4353
4406
4355
4014
3385
2846
2770
3053
3184
2858
2353
2157
2384
2666
2618
2254
1889
1776
1902
2107
2266
2347
2371
2371
2376
2371
2328
2263
2257
2340
2423
2397
2300
2319
2556
2887
3074
3006
2780
2557
2403
2272
2094
1816
1408
869
248
-383
-988
-1572
-2108
-2483
-2548
-2288
-1884
-1595
-1508
-1449
-1162
-603
-78
-12
-530
-1274
-1720
-1706
-1586
-1818
-2396
-2790
-2519
-1717
-1049
-1063
-1674
-2344
-2688
-2830
-3180
-3944
-4892
-5605
-5878
-5863
-5840
-5902
-5915
-5769
-5621
-5764
-6247
-6733
-6833
-6593
-6504
-6957
-7760
-8310
-8246
-7840
-7685
-8048
-8631
-8951
-8816
-8410
-8004
-7708
-7486
-7302
-7161
-7066
-6991
-6922
-6886
-6896
-6911
-6869
-6745
-6576
-6418
-6311
-6262
-6259
-6286
-6321
-6340
-6333
-6296
-6230
-6144
-6067
-6046
-6105
-6212
-6291
-6290
-6219
-6143
-6107
-6109
-6116
-6103
-6068
-6023
-5988
-5978
-5991
-6002
-5986
-5948
-5902
-5847
-5761
-5645
-5554
-5528
-5528
-5458
-5288
-5113
-5059
-5133
-5206
-5170
-5063
-5010
-5062
-5130
-5094
-4941
-4765
-4648
-4590
-4547
-4499
-4454
-4417
-4382
-4341
-4307
-4294
-4296
-4280
-4224
-4126
-4010
-3898
-3788
-3676
-3602
-3633
-3771
-3873
-3739
-3333
-2890
-2725
-2909
-3185
-3253
-3111
-3050
-3303
-3773
-4151
-4256
-4175
-4097
-4077
-4022
-3857
-3636
-3464
-3384
-3351
-3317
-3283
-3266
-3261
-3247
-3217
-3179
-3137
-3084
-3016
-2952
-2913
-2905
-2910
-2899
-2853
-2783
-2712
-2655
-2605
-2557
-2529
-2545
-2583
-2557
-2398
-2141
-1910
-1790
-1737
-1648
-1515
-1470
-1636
-1987
-2364
-2647
-2848
-3053
-3309
-3591
-3857
-4078
-4223
-4246
-4126
-3910
-3677
-3459
-3220
-2913
-2551
-2192
-1886
-1647
-1470
-1356
-1305
-1294
-1288
-1265
-1221
-1162
-1090
-1003
-915
-845
-806
-787
-773
-757
-742
-725
-703
-680
-673
-684
-692
-673
-630
-598
-600
-614
-600
-549
-498
-482
-491
-480
-427
-361
-320
-309
-291
-228
-131
-42
19
62
113
171
215
243
282
362
469
559
598
594
585
589
596
586
558
526
498
460
397
311
224
160
128
104
55
-35
-148
-242
-301
-344
-405
-491
-578
-646
-708
-795
-916
-1047
-1157
-1230
-1274
-1305
-1337
-1387
-1458
-1526
-1552
-1520
-1461
-1425
-1431
-1449
-1446
-1422
-1403
-1407
-1417
-1415
-1407
-1419
-1458
-1501
-1519
-1507
-1482
-1458
-1432
-1402
-1377
-1377
-1401
-1427
-1428
-1401
-1371
-1359
-1360
-1349
-1312
-1259
-1211
-1176
-1149
-1131
-1137
-1172
-1218
-1239
-1224
-1199
-1199
-1227
-1255
-1264
-1273
-1313
-1388
-1466
-1511
-1523
-1533
-1569
-1629
-1687
-1722
-1728
-1712
-1688
-1679
-1703
-1759
-1824
-1866
-1875
-1869
-1876
-1898
-1918
-1914
-1890
-1877
-1896
-1942
-1984
-1993
-1974
-1958
-1970
-2006
-2031
-2024
-1999
-1981
-1962
-1910
-1809
-1706
-1666
-1676
-1639
-1491
-1299
-1222
-1346
-1597
-1833
-2006
-2188
-2452
-2777
-3093
-3381
-3662
-3922
-4062
-4009
-3810
-3585
-3402
-3206
-2917
-2550
-2207
-1964
-1808
-1677
-1549
-1443
-1390
-1378
-1378
-1371
-1355
-1322
-1254
-1159
-1073
-1036
-1055
-1095
-1108
-1082
-1039
-1013
-1007
-998
-977
-967
-997
-1052
-1084
-1063
-1016
-985
-976
-942
-857
-754
-688
-675
-672
-638
-577
-524
-498
-483
-455
-393
-281
-120
44
146
163
148
176
264
351
376
349
336
374
431
455
441
432
458
495
480
373
208
61
-16
-36
-60
-132
-241
-340
-408
-472
-562
-667
-748
-797
-851
-957
-1106
-1249
-1348
-1410
-1470
-1547
-1630
-1703
-1764
-1817
-1859
-1881
-1887
-1880
-1856
-1814
-1775
-1768
-1807
-1862
-1887
-1866
-1821
-1781
-1762
-1751
-1733
-1699
-1651
-1603
-1572
-1573
-1594
-1621
-1641
-1659
-1674
-1669
-1630
-1558
-1475
-1410
-1376
-1375
-1398
-1413
-1382
-1321
-1295
-1356
-1478
-1559
-1528
-1421
-1337
-1323
-1321
-1261
-1160
-1111
-1173
-1293
-1370
-1369
-1361
-1429
-1571
-1711
-1778
-1779
-1760
-1750
-1742
-1724
-1712
-1732
-1781
-1827
-1844
-1845
-1856
-1882
-1905
-1916
-1925
-1946
-1965
-1950
-1905
-1860
-1842
-1839
-1811
-1751
-1708
114
133
155
192
241
273
253
199
158
157
171
149
85
23
1
-2
-37
-123
-226
-307
-361
-416
-491
-577
-660
-744
-846
-959
-1045
-1077
-1071
-1078
-1138
-1232
-1315
-1356
-1368
-1380
-1401
-1426
-1456
-1495
-1534
-1551
-1533
-1496
-1471
-1465
-1457
-1436
-1434
-1476
-1537
-1547
-1472
-1361
-1305
-1336
-1394
-1399
-1340
-1274
-1259
-1284
-1300
-1290
-1291
-1344
-1430
-1479
-1449
-1365
-1292
-1266
-1267
-1264
-1258
-1271
-1303
-1319
-1287
-1235
-1223
-1269
-1315
-1294
-1207
-1129
-1132
-1208
-1287
-1313
-1313
-1347
-1438
-1538
-1580
-1547
-1489
-1460
-1466
-1477
-1467
-1449
-1448
-1461
-1462
-1433
-1400
-1410
-1468
-1519
-1503
-1426
-1352
-1337
-1369
-1391
-1371
-1332
-1314
-1317
-1301
-1251
-1210
-1234
-1315
-1374
-1337
-1203
-1053
-954
-903
-849
-771
-718
-748
-862
-1011
-1170
-1361
-1608
-1891
-2160
-2401
-2633
-2852
-2997
-3011
-2913
-2781
-2673
-2556
-2362
-2078
-1766
-1496
-1294
-1151
-1059
-1015
-990
-953
-897
-840
-807
-794
-784
-768
-743
-705
-649
-581
-531
-519
-535
-548
-536
-507
-474
-441
-404
-368
-361
-400
-458
-481
-437
-351
-287
-280
-297
-274
-197
-119
-86
-76
-24
95
227
298
304
310
365
453
532
585
630
676
699
679
638
618
637
668
673
640
589
539
488
436
386
339
291
230
156
77
5
-56
-107
-153
-205
-277
-369
-456
-523
-581
-668
-795
-920
-986
-980
-957
-981
-1062
-1161
-1224
-1232
-1200
-1163
-1156
-1198
-1280
-1354
-1374
-1339
-1293
-1280
-1293
-1297
-1279
-1269
-1281
-1282
-1229
-1134
-1067
-1076
-1127
-1140
-1086
-1025
-1025
-1078
-1109
-1074
-1023
-1026
-1087
-1136
-1111
-1030
-964
-960
-1000
-1041
-1059
-1059
-1048
-1018
-967
-914
-892
-910
-954
-993
-1012
-1028
-1058
-1103
-1148
-1179
-1205
-1241
-1280
-1293
-1265
-1215
-1186
-1199
-1237
-1266
-1269
-1260
-1250
-1237
-1211
-1178
-1157
-1162
-1185
-1202
-1196
-1172
-1149
-1127
-1096
-1054
-1014
-997
-1012
-1039
-1040
-987
-893
-807
-774
-785
-787
-734
-645
-599
-660
-830
-1064
-1320
-1573
-1808
-2008
-2176
-2343
-2528
-2694
-2769
-2709
-2548
-2362
-2183
-1984
-1730
-1431
-1147
-937
-806
-710
-603
-481
-379
-340
-370
-421
-438
-399
-327
-255
-197
-150
-114
-94
-86
-80
-59
-18
35
80
96
70
17
-30
-46
-38
-32
-39
-35
2
54
84
80
78
125
216
295
321
313
331
411
535
651
729
777
821
875
929
963
977
989
1020
1065
1091
1069
1012
960
945
958
962
933
879
827
791
754
691
596
495
416
367
322
251
146
37
-35
-65
-84
-128
-201
-279
-346
-408
-483
-563
-623
-647
-655
-676
-716
-757
-781
-794
-814
-834
-834
-812
-788
-791
-820
-850
-852
-821
-777
-741
-725
-735
-769
-816
-854
-863
-842
-812
-800
-820
-854
-870
-849
-799
-742
-694
-652
-622
-615
-633
-654
-646
-608
-578
-584
-615
-632
-619
-603
-603
-603
-567
-499
-456
-487
-575
-662
-712
-749
-813
-907
-987
-1023
-1036
-1068
-1127
-1175
-1173
-1128
-1081
-1068
-1085
-1110
-1129
-1135
-1125
-1094
-1053
-1029
-1044
-1092
-1144
-1178
-1192
-1191
-1179
-1160
-1151
-1166
-1203
-1243
-1263
-1249
-1201
-1130
-1057
-1008
-988
-975
-946
-920
-954
-1097
-1334
-1608
-1874
-2129
-2387
-2643
-2875
-3067
-3210
-3289
-3280
-3176
-3008
-2822
-2626
-2390
-2084
-1732
-1408
-1177
-1047
-975
-913
-838
-762
-705
-679
-677
-679
-667
-633
-580
-519
-465
-428
-420
-446
-497
-545
-554
-508
-428
-368
-369
-430
-504
-548
-550
-535
-525
-521
-506
-465
-407
-350
-304
-260
-195
-101
7
100
155
180
206
262
353
458
549
614
654
677
692
709
732
759
775
770
746
716
690
670
656
645
636
619
575
496
394
293
208
126
29
-86
-199
-291
-365
-444
-547
-661
-753
-807
-833
-859
-908
-980
-1060
-1123
-1152
-1152
-1149
-1174
-1238
-1322
-1389
-1418
-1414
-1393
-1368
-1342
-1320
-1315
-1331
-1355
-1369
-1368
-1361
-1363
-1372
-1380
-1381
-1379
-1378
-1371
-1349
-1313
-1287
-1293
-1327
-1361
-1370
-1350
-1316
-1285
-1261
-1242
-1232
-1234
-1243
-1247
-1235
-1205
-1170
-1144
-1141
-1159
-1185
-1195
-1175
-1127
-1073
-1039
-1038
-1057
-1067
-1060
-1059
-1095
-1166
-1239
-1282
-1310
-1361
-1447
-1526
-1545
-1501
-1442
-1412
-1411
-1414
-1410
-1409
-1418
-1425
-1414
-1389
-1370
-1370
-1390
-1419
-1441
-1436
-1403
-1362
-1343
-1347
-1353
-1343
-1316
-1295
-1288
-1284
-1259
-1199
-1113
-1033
-985
-948
-865
-709
-552
-524
-690
-975
-1241
-1441
-1648
-1945
-2304
-2623
-2851
-3028
-3196
-3313
-3292
-3106
-2826
-2543
-2282
-2000
-1670
-1320
-1014
-789
-633
-512
-401
-312
-272
-289
-328
-336
-288
-206
-138
-104
-93
-87
-81
-79
-72
-43
12
77
126
147
148
142
141
154
188
231
258
257
246
264
324
399
448
459
459
484
539
610
684
761
845
934
1026
1119
1205
1268
1306
1333
1376
1442
1504
1521
1480
1407
1344
1317
1323
1338
3648
3671
3655
3572
3462
3392
3373
3374
3360
3342
3345
3364
3358
3299
3211
3141
3114
3109
3090
3046
2999
2968
2950
2926
2887
2838
2793
2752
2708
2656
2607
2571
2534
2472
2378
2281
2214
2173
2124
2042
1943
1863
1807
1750
1683
1630
1622
1652
1663
1617
1530
1467
1477
1547
1616
1638
1624
1628
1686
1785
1884
1961
2040
2144
2263
2355
2400
2438
2523
2673
2840
2956
3007
3036
3100
3217
3355
3463
3521
3550
3589
3659
3741
3797
3815
3820
3847
3898
3940
3941
3915
3900
3916
3942
3952
3941
3932
3939
3951
3948
3928
3904
3891
3891
3901
3914
3913
3887
3846
3821
3834
3864
3872
3844
3803
3783
3787
3792
3783
3772
3774
3793
3817
3834
3829
3793
3735
3687
3679
3706
3730
3721
3699
3707
3765
3849
3926
3988
4037
4071
4080
4074
4085
4126
4167
4162
4114
4072
4075
4101
4096
4045
3994
3987
4015
4026
3996
3957
3949
3964
3964
3947
3953
4009
4082
4112
4088
4058
4070
4116
4146
4127
4072
4005
3934
3854
3767
3675
3577
3478
3416
3451
3610
3851
4100
4319
4544
4836
5214
5617
5947
6132
6162
6079
5934
5757
5545
5273
4931
4546
4182
3901
3728
3632
3563
3490
3415
3356
3319
3298
3278
3244
3187
3107
3016
2939
2887
2849
2812
2776
2754
2750
2745
2719
2673
2627
2597
2579
2564
2547
2529
2504
2459
2393
2316
2250
2209
2185
2157
2104
2028
1949
1889
1836
1761
1653
1541
1459
1406
1341
1235
1103
993
929
893
853
804
770
769
791
812
822
835
869
925
987
1035
1066
1098
1145
1212
1295
1391
1498
1604
1689
1747
1798
1874
1983
2102
2202
2279
2351
2432
2516
2593
2675
2775
2893
2994
3049
3061
3070
3111
3185
3264
3316
3335
3332
3323
3320
3331
3354
3376
3377
3348
3302
3268
3264
3275
3282
3272
3256
3243
3229
3208
3187
3182
3191
3190
3160
3117
3094
3101
3111
3088
3033
2984
2974
2992
3008
3004
2990
2981
2976
2963
2941
2921
2917
2930
2953
2982
3014
3050
3094
3155
3232
3307
3357
3371
3355
3328
3305
3293
3293
3298
3299
3292
3280
3266
3252
3239
3234
3240
3251
3249
3229
3204
3198
3220
3258
3286
3292
3290
3299
3327
3368
3409
3429
3411
3346
3257
3182
3133
3077
2967
2822
2747
2838
3096
3416
3702
3949
4229
4585
4989
5373
5681
5880
5945
5866
5675
5434
5188
4927
4607
4228
3853
3561
3393
3322
3291
3260
3220
3183
3159
3148
3132
3085
2997
2883
2776
2705
2677
2673
2670
2658
2644
2634
2622
2602
2580
2569
2567
2556
2525
2485
2461
2465
2472
2451
2395
2328
2284
2265
2247
2212
2158
2100
2043
1974
1885
1791
1709
1645
1584
1506
1410
1310
1223
1155
1104
1066
1037
1021
1023
1050
1095
1143
1180
1206
1239
1294
1371
1458
1540
1612
1676
1745
1833
1950
2091
2236
2362
2469
2580
2716
2873
3028
3160
3271
3369
3463
3550
3625
3693
3762
3839
3922
4002
4065
4102
4120
4144
4188
4249
4300
4326
4335
4352
4389
4434
4470
4504
4551
4610
4654
4663
4648
4645
4679
4729
4752
4729
4682
4656
4675
4727
4780
4805
4803
4798
4810
4837
4856
4850
4821
4794
4790
4810
4838
4864
4892
4927
4962
4984
4986
4975
4966
4969
4986
5012
5053
5110
5178
5251
5326
5404
5485
5555
5597
5611
5623
5652
5698
5739
5760
5770
5779
5789
5795
5802
5821
5844
5851
5838
5827
5841
5869
5877
5849
5811
5797
5816
5839
5845
5852
5896
5973
6022
5984
5866
5743
5670
5618
5511
5339
5206
5247
5489
5839
6171
6444
6709
7039
7459
7923
8339
8608
8684
8610
8483
8364
8215
7968
7620
7260
6991
6825
6703
6582
6490
6473
6523
6574
6567
6496
6400
6315
6239
6158
6068
5984
5929
5908
5909
5917
5909
5869
5789
5681
5576
5502
5459
5426
5382
5326
5266
5196
5115
5034
4971
4917
4842
4732
4612
4532
4504
4486
4427
4321
4211
4132
4079
4021
3941
3852
3771
3702
3635
3562
3483
3401
3318
3243
3178
3124
3072
3020
2969
2937
2938
2969
3015
3060
3099
3139
3188
3246
3309
3376
3452
3533
3601
3654
3718
3816
3935
4032
4085
4132
4224
4358
4473
4521
4519
4528
4576
4629
4642
4610
4563
4525
4497
4474
4460
4456
4447
4413
4348
4272
4208
4172
4159
4147
4108
4030
3941
3886
3881
3894
3867
3780
3674
3605
3584
3575
3543
3488
3432
3384
3337
3273
3195
3110
3019
2915
2794
2668
2562
2496
2460
2422
2353
2263
2187
2145
2119
2077
2018
1978
1976
1995
2009
2022
2059
2124
2175
2182
2165
2154
2139
2072
1942
1800
1705
1653
1586
1475
1364
1316
1339
1381
1391
1368
1343
1340
1354
1366
1368
1357
1329
1280
1223
1185
1182
1205
1228
1235
1223
1188
1115
1000
861
714
537
307
58
-111
-114
33
238
433
637
914
1277
1684
2076
2413
2652
2750
2710
2588
2437
2246
1965
1589
1187
837
553
305
87
-63
-124
-135
-151
-187
-214
-219
-232
-289
-390
-491
-553
-575
-577
-585
-605
-643
-703
-790
-901
-1006
-1079
-1112
-1141
-1207
-1303
-1373
-1367
-1314
-1304
-1401
-1563
-1693
-1738
-1744
-1796
-1915
-2058
-2177
-2264
-2343
-2432
-2539
-2671
-2828
-2992
-3128
-3222
-3304
-3417
-3571
-3725
-3833
-3888
-3923
-3977
-4059
-4142
-4189
-4187
-4154
-4112
-4070
-4019
-3949
-3862
-3757
-3634
-3495
-3362
-3246
-3136
-3010
-2871
-2750
-2662
-2583
-2475
-2339
-2209
-2105
-2001
-1876
-1758
-1691
-1674
-1649
-1578
-1494
-1459
-1484
-1508
-1477
-1408
-1358
-1341
-1305
-1197
-1042
-916
-851
-801
-698
-544
-416
-381
-423
-468
-473
-456
-462
-498
-536
-559
-570
-574
-558
-526
-513
-552
-625
-676
-663
-620
-621
-695
-782
-799
-726
-629
-599
-653
-732
-766
-739
-691
-670
-690
-712
-696
-640
-562
-486
-413
-341
-264
-179
-93
-25
1
-10
-24
-8
19
8
-55
-117
-126
-92
-88
-146
-207
-193
-108
-37
-33
-63
-57
0
50
50
20
12
42
74
83
83
97
109
75
-20
-145
-263
-388
-556
-750
-884
-874
-718
-493
-262
-19
270
595
914
1217
1535
1858
2088
2123
1988
1819
1707
1596
1379
1035
682
432
286
179
84
43
79
155
203
197
165
141
130
128
131
131
120
106
114
163
242
316
348
328
274
230
243
322
416
451
409
361
391
482
531
461
330
258
299
378
394
337
285
290
316
298
220
133
77
36
-23
-109
-192
-247
-272
-277
-271
-264
-265
-269
-266
-249
-233
-232
-240
-223
-160
-54
73
202
338
487
634
758
855
942
1045
1172
1302
1417
1518
1628
1759
1895
2010
2099
2180
2259
2326
2367
2408
2487
2604
2708
2749
2750
2787
2899
3034
3095
3061
3005
3016
3104
3186
3189
3135
3104
3144
3223
3267
3248
3212
3216
3262
3301
3292
3255
3240
3262
3296
3308
3300
3300
3324
3352
3359
3343
3314
3277
3227
3174
3153
3187
3251
3288
3274
3248
3270
3340
3392
3382
3340
3331
3373
3413
3402
3368
3377
3447
3520
3542
3526
3544
3625
3720
3770
3782
3822
3920
4025
4059
4015
3962
3962
4004
4018
3967
3894
3870
3914
3974
3994
3971
3955
3972
4000
3999
3973
3973
4027
4085
4070
3966
3853
3817
3841
3827
3715
3576
3545
3685
3916
4127
4300
4513
4821
5169
5468
5703
5927
6164
6342
6374
6267
6116
6000
5895
5732
5494
5240
5039
4907
4816
4754
4732
4746
4760
4737
4682
4626
4596
4567
4508
4412
4311
4243
4220
4217
4210
4197
4191
4192
4179
4131
4062
4012
4011
4039
4042
3992
3918
3874
3875
3881
3849
3778
3703
3639
3580
3517
3466
3448
3451
3441
3400
3344
3300
3265
3226
3172
3108
3033
2941
2842
2773
2758
2778
2789
2776
2764
2782
2821
2851
2866
2898
2971
3067
3149
3207
3267
3353
3453
3536
3599
3672
3779
3899
3996
4077
4184
4340
4508
4622
4672
4716
4806
4929
5018
5033
5002
4985
5006
5045
5076
5095
5112
5137
5170
5213
5263
5311
5346
5367
5384
5392
5383
5355
5334
5350
5404
5459
5477
5453
5423
5423
5450
5478
5486
5471
5451
5441
5445
5460
5483
5504
5512
5497
5464
5432
5420
5433
5453
5462
5455
5449
5468
5503
5521
5502
5472
5483
5551
5627
5655
5638
5647
5728
5848
5927
5937
5935
5984
6078
6149
6153
6125
6128
6187
6262
6300
6287
6254
6237
6248
6264
6263
6239
6201
6172
6163
6164
6159
6143
6133
6143
6169
6198
6222
6238
6235
6189
6089
5970
5882
5827
5751
5614
5467
5423
5544
5774
5994
6144
6280
6485
6775
7091
7361
7554
7667
7695
7636
7515
7367
7200
6979
6678
6331
6013
5782
5640
5550
5482
5424
5373
5336
5321
5340
5379
5388
5328
5214
5109
5065
5077
5094
5088
5069
5060
5062
5063
5059
5057
5048
5023
4981
4942
4928
4927
4904
4838
4737
4631
4547
4502
4491
4473
4400
4259
4110
4030
4035
4053
3997
3860
3721
3652
3643
3622
3549
3456
3399
3385
3367
3317
3269
3277
3338
3386
3370
3315
3299
3361
3453
3499
3488
3483
3541
3646
3728
3754
3764
3815
3914
4012
4078
4140
4242
4376
4491
4557
4607
4692
4812
4909
4934
4909
4899
4941
5014
5070
5092
5098
5117
5154
5189
5199
5174
5128
5084
5059
5051
5041
5024
5008
4996
4989
4989
5002
5035
5068
5066
5018
4957
4933
4960
4997
4996
4950
4896
4869
4870
4882
4883
4873
4866
4881
4914
4944
4937
4890
4838
4815
4815
4789
4713
4625
4591
4634
4713
4779
4829
4893
4979
5066
5136
5199
5268
5326
5343
5324
5312
5341
5388
5400
5362
5307
5276
5274
5275
5271
5269
5278
5287
5284
5287
5320
5379
5429
5430
5378
5305
5249
5215
5189
5162
5133
5093
5028
4939
4856
4804
4767
4703
4607
4549
4615
4813
5062
5287
5493
5741
6051
6366
6612
6780
6910
7014
7047
6952
6749
6527
6351
6203
5998
5696
5355
5087
4956
4918
4878
4782
4663
4587
4578
4591
4571
4503
4419
4351
4304
4264
4220
4178
4153
4144
4136
4106
4048
3979
3925
3897
3878
3852
3829
3827
3839
3830
3773
3683
3606
3567
3547
3510
3442
3364
3297
3248
3206
3161
3115
3070
3027
2985
2937
2878
2809
2748
2715
2714
2719
2703
2664
2630
2628
2653
2676
2682
2684
2706
2744
2780
2806
2846
2928
3044
3155
3225
3265
3311
3385
3474
3553
3617
3679
3751
3834
3927
4029
4130
4209
4252
4271
4298
4348
4403
4433
4438
4446
4480
4534
4584
4622
4657
4697
4732
4746
4745
4750
4773
4810
4847
4876
4892
4894
4877
4851
4833
4831
4831
4814
4773
4727
4701
4704
4726
4752
4769
4774
4770
4759
4744
4723
4699
4679
4666
4658
4652
4646
4649
4670
4704
4732
4735
4711
4675
4647
4634
4631
4631
4637
4658
4702
4765
4836
4910
4981
5046
5099
5140
5168
5189
5201
5203
5192
5163
5123
5083
5060
5059
5063
5052
5025
5007
5024
5073
5127
5161
5173
5178
5185
5191
5191
5185
5173
5156
5147
5157
5178
5169
5100
4996
4925
4923
4948
4931
4877
4880
5027
5306
5617
5885
6118
6370
6660
6953
7206
7393
7486
7462
7329
7148
6975
6809
6590
6283
5933
5629
5427
5313
5239
5175
5115
5054
4990
4929
4893
4890
4893
4859
4768
4656
4586
4591
4640
4674
4658
4614
4581
4566
4539
4480
4409
4366
4364
4378
4371
4339
4303
4279
4257
4215
4148
4072
4010
3963
3910
3834
3735
3631
3545
3475
3402
3314
3217
3132
3072
3034
3006
2981
2962
2961
2974
2988
2988
2970
2945
2926
2916
2902
2873
2843
2828
2840
2874
2926
3007
3121
3251
3366
3455
3542
3662
3809
3937
4017
4071
4148
4270
4412
4530
4615
4697
4800
4917
5021
5098
5154
5194
5220
5236
5259
5302
5359
5404
5420
5418
5422
5441
5464
5474
5468
5452
5428
5398
5368
5354
5368
5398
5418
5417
5411
5416
5428
5428
5405
5372
5350
5339
5320
5283
5243
5224
5229
5239
5231
5206
5181
5160
5134
5095
5057
5046
5068
5101
5117
5113
5112
5122
5127
5105
5058
5020
5005
4997
4974
4945
4950
5010
5101
5180
5234
5284
5350
5426
5487
5519
5524
5513
5501
5499
5499
5480
5426
5359
5330
5359
5402
5403
5361
5332
5358
5414
5435
5405
5366
5367
5402
5435
5441
5428
5413
5405
5413
5430
5424
5340
5176
5004
4896
4843
4771
4664
4615
4743
5045
5394
5672
5887
6135
6475
6874
7248
7531
7700
7747
7692
7579
7443
7272
7023
6674
6269
5883
5577
5362
5220
5129
5062
5002
4943
4898
4873
4856
4823
4767
4699
4629
4563
4513
4502
4532
4571
4568
4502
4395
4299
4239
4200
4154
4098
4058
4061
4100
4136
4134
4095
4045
4001
3965
3921
3865
3804
3746
3683
3608
3520
3431
3346
3260
3173
3087
3005
2921
2829
2741
2686
2686
2723
2763
2788
2812
2856
2904
2925
2908
2884
2887
2913
2926
2906
2890
2930
3038
3172
3287
3375
3464
3570
3682
3783
3871
3952
4027
4102
4200
4337
4496
4632
4726
4804
4903
5019
5101
5119
5110
5128
5178
5215
5208
5187
5206
5271
5327
5324
5276
5246
5268
5319
5349
5342
5330
5346
5389
5430
5445
5446
5459
5492
5519
5509
5460
5406
5372
5358
5335
5294
5251
5223
5203
5167
5111
5065
5063
5096
5124
5112
5068
5034
5037
5067
5085
5076
5055
5054
5077
5092
5069
5014
4972
4970
4989
4977
4914
4841
4825
4883
4967
5020
5035
5057
5117
5195
5248
5261
5260
5277
5308
5329
5329
5324
5335
5354
5363
5360
5363
5381
5394
5375
5332
5308
5325
5363
5378
5357
5332
5331
5343
5335
5293
5250
5245
5276
5290
5232
5104
4968
4879
4813
4701
4526
4371
4361
4538
4822
5105
5353
5618
5957
6371
6815
7231
7555
7725
7723
7604
7457
7317
7132
6832
6422
5995
5642
5389
5206
5063
4949
4861
4793
4745
4725
4730
4738
4717
4651
4563
4488
4452
4451
4456
4445
4420
4394
4373
4345
4301
4252
4214
4183
4132
4037
3899
3739
3574
3408
3239
3070
2913
2787
2706
2669
2658
2642
2598
2526
2446
2381
2341
2313
2274
2203
2105
2005
1933
1897
1882
1865
1839
1813
1793
1774
1754
1746
1768
1819
1881
1939
1995
2065
2154
2251
2345
2437
2541
2659
2778
2879
2962
3050
3159
3288
3416
3535
3656
3797
3948
4075
4157
4215
4285
4382
4480
4548
4587
4621
4666
4713
4738
4735
4722
4722
4741
4767
4777
4762
4740
4737
4770
4825
4872
4890
4888
4882
4878
4878
4881
4889
4895
4890
4875
4863
4867
4878
4888
4899
4921
4950
4955
4915
4854
4820
4834
4868
4878
4848
4803
4769
4754
4750
4753
4757
4758
4752
4746
4742
4735
4719
4703
4706
4731
4751
4734
4694
4687
4749
4860
4963
5022
5054
5096
5161
5225
5258
5255
5234
5221
5234
5272
5315
5340
5336
5319
5318
5338
5360
5358
5330
5300
5292
5309
5331
5344
5350
5362
5382
5401
5406
5393
5373
5368
5388
5421
5425
5356
5217
5063
4944
4842
4699
4497
4320
4287
4436
4697
4975
5239
5526
5872
6275
6703
7109
7424
7575
7551
7424
7288
7161
6976
6673
6287
5924
5653
5466
5327
5221
5153
5109
5059
4993
4928
4882
4840
4775
4688
4606
4551
4514
4474
4436
4425
4446
4463
4436
4362
4287
4251
4247
4244
4235
4232
4233
4208
4136
4042
3973
3934
3886
3798
3702
3649
3643
3637
3585
3494
3416
3371
3333
3266
3168
3070
2995
2938
2876
2800
2719
2656
2626
2620
2609
2574
2522
2483
2482
2510
2545
2573
2610
2677
2772
2864
2936
3008
3116
3275
3450
3582
3648
3689
3776
3936
4125
4263
4322
4349
4415
4540
4679
4772
4814
4851
4922
5013
5085
5120
5138
5170
5211
5243
5251
5239
5219
5201
5199
5221
5253
5260
5231
5198
5213
5274
5315
5278
5193
5160
5227
5330
5360
5297
5229
5248
5335
5382
5327
5222
5172
5209
5262
5246
5168
5121
5176
5297
5381
5364
5282
5222
5224
5238
5198
5105
5032
5032
5077
5095
5060
5021
5030
5074
5088
5044
4985
4970
5005
5045
5063
5076
5125
5215
5313
5380
5402
5383
5346
5315
5299
5288
5261
5224
5208
5227
5247
5232
5204
5227
5318
5402
5393
5302
5238
5278
5370
5397
5329
5256
5273
5349
5377
5316
5246
5256
5311
5281
5103
4866
4703
4633
4565
4436
4311
4306
4452
4683
4929
5190
5489
5806
6110
6418
6774
7149
7410
7452
7323
7179
7099
7013
6797
6439
6049
5739
5526
5373
5260
5192
5152
5099
5021
4954
4938
4956
4940
4843
4692
4560
4502
4512
4535
4522
4470
4420
4400
4410
4418
4410
4402
4417
4451
4468
4439
4379
4322
4293
4263
4193
4078
3967
3926
3964
4008
3970
3848
3727
3695
3730
3718
3593
3424
3329
3329
3310
3182
2997
2894
2930
3000
2970
2833
2717
2725
2822
2898
2900
2879
2905
2987
3078
3140
3186
3235
3292
3349
3426
3544
3685
3804
3871
3914
3991
4121
4261
4357
4406
4455
4534
4624
4680
4703
4732
4807
4912
4988
4998
4976
5000
5098
5215
5273
5251
5215
5231
5292
5325
5284
5206
5167
5195
5242
5249
5215
5195
5225
5283
5323
5328
5319
5322
5336
5335
5301
5246
5192
5161
5152
5146
5132
5116
5114
5135
5163
5167
5138
5106
5098
5100
5074
5018
4986
5035
5151
5249
5262
5208
5161
5166
5186
5157
5064
4961
4916
4947
5018
5081
5115
5143
5198
5284
5363
5392
5369
5335
5322
5322
5301
5261
5236
5242
5246
5211
5149
5118
5148
5202
5219
5199
5184
5199
5213
5184
5121
5065
5036
5024
4999
4965
4947
4954
4966
4947
4885
4802
4732
4677
4606
4486
4343
4254
4296
4472
4700
4897
5054
5226
5469
5786
6128
6433
6654
6762
6771
6722
6650
6556
6394
6139
5830
5543
5324
5159
5009
4879
4804
4785
4777
4729
4654
4601
4592
4584
4523
4428
4366
4372
4399
4383
4324
4286
4303
4332
4314
4244
4167
4121
4096
4063
4021
3988
3966
3938
3894
3846
3809
3784
3763
3740
3710
3661
3590
3511
3449
3412
3373
3303
3203
3102
3026
2977
2935
2884
2817
2738
2659
2595
2554
2539
2542
2555
2575
2596
2615
2643
2697
2781
2865
2913
2926
2939
2990
3077
3165
3231
3281
3340
3422
3519
3621
3711
3784
3848
3914
3990
4067
4126
4162
4195
4239
4290
4336
4376
4429
4492
4541
4553
4541
4545
4581
4624
4640
4624
4600
4583
4576
4581
4606
4644
4667
4657
4626
4609
4616
4632
4635
4627
4628
4638
4647
4642
4628
4618
4617
4623
4628
4627
4617
4614
4628
4648
4639
4581
4507
4466
4465
4453
4394
4312
4274
4294
4323
4317
4289
4282
4293
4276
4213
4160
4179
4266
4343
4357
4331
4335
4398
4481
4530
4530
4508
4491
4486
4487
4490
4500
4512
4519
4523
4532
4547
4552
4527
4479
4441
4438
4457
4467
4458
4451
4466
4494
4505
4488
4466
4470
4503
4528
4493
4382
4240
4138
4105
4087
4012
3872
3753
3755
3886
4066
4229
4389
4596
4863
5150
5425
5686
5929
6108
6177
6139
6041
5919
5757
5529
5249
4968
4721
4517
4362
4266
4226
4205
4162
4100
4054
4041
4033
3989
3910
3835
3800
3794
3791
3778
3764
3759
3750
3714
3648
3569
3500
3450
3420
3408
3412
3413
3399
3368
3333
3301
3269
3228
3178
3127
3072
3002
2921
2842
2778
2719
2652
2572
2492
2430
2386
2341
2279
2203
2147
2140
2178
2217
2209
2155
2106
2106
2147
2173
2153
2115
2108
2139
2176
2194
2222
2305
2439
2564
2630
2652
2693
2792
2926
3047
3127
3180
3235
3310
3401
3493
3572
3637
3700
3775
3859
3931
3976
4005
4055
4144
4242
4291
4271
4228
4225
4278
4339
4353
4319
4285
4283
4299
4295
4268
4249
4262
4286
4282
4247
4220
4232
4260
4261
4223
4184
4181
4205
4216
4194
4162
4148
4155
4164
4160
4149
4143
4142
4131
4110
4096
4112
4163
4214
4215
4153
4076
4049
4082
4118
4104
4059
4063
4156
4285
4367
4388
4412
4487
4583
4635
4633
4622
4639
4665
4926
4878
4841
4820
4820
4818
4787
4729
4672
4633
4592
4534
4476
4448
4437
4393
4296
4184
4110
4071
4017
3926
3835
3779
3732
3640
3504
3382
3325
3306
3260
3172
3089
3058
3062
3059
3040
3036
3068
3117
3154
3177
3215
3290
3394
3499
3593
3682
3778
3882
3993
4113
4245
4382
4512
4623
4726
4833
4951
5071
5173
5255
5331
5416
5508
5595
5668
5730
5784
5829
5869
5910
5953
5985
5988
5966
5947
5960
6009
6064
6093
6088
6061
6038
6031
6036
6038
6027
6005
5989
5988
5996
5993
5969
5937
5913
5895
5875
5853
5839
5836
5833
5815
5795
5803
5843
5871
5840
5753
5669
5634
5641
5642
5611
5572
5565
5598
5636
5640
5603
5553
5523
5518
5513
5481
5422
5370
5364
5408
5470
5517
5546
5577
5623
5676
5716
5741
5759
5773
5781
5780
5773
5766
5761
5761
5768
5784
5803
5814
5812
5813
5832
5870
5905
5913
5891
5858
5838
5838
5845
5843
5842
5866
5923
5978
5974
5882
5741
5610
5499
5357
5153
4939
4828
4893
5098
5351
5601
5879
6241
6710
7245
7769
8194
8453
8537
8504
8434
8347
8189
7896
7481
7040
6675
6421
6250
6123
6016
5922
5833
5753
5693
5651
5610
5546
5457
5370
5314
5295
5298
5307
5315
5319
5311
5287
5244
5192
5143
5113
5108
5120
5127
5112
5078
5037
5001
4965
4926
4883
4840
4801
4759
4707
4633
4530
4406
4285
4189
4110
4016
3891
3765
3689
3667
3651
3585
3477
3389
3361
3364
3343
3287
3245
3259
3320
3377
3406
3435
3493
3578
3654
3710
3777
3890
4037
4170
4260
4337
4453
4613
4776
4901
4998
5108
5244
5379
5490
5588
5696
5814
5917
5995
6069
6158
6246
6301
6315
6317
6336
6375
6416
6445
6460
6466
6460
6449
6449
6468
6499
6519
6513
6478
6433
6413
6446
6521
6586
6590
6544
6512
6544
6609
6629
6567
6468
6414
6428
6463
6467
6436
6410
6413
6437
6454
6447
6415
6361
6297
6240
6203
6185
6175
6165
6151
6133
6106
6075
6046
6014
5971
5920
5888
5897
5940
5979
5999
6026
6098
6211
6310
6348
6327
6288
6271
6275
6283
6290
6304
6331
6359
6366
6343
6305
6287
6298
6308
6271
6183
6102
6088
6142
6207
6227
6198
6160
6143
6151
6166
6179
6190
6201
6198
6164
6081
5959
5825
5695
5547
5352
5129
4970
4972
5140
5385
5619
5845
6146
6571
7072
7534
7876
8101
8248
8332
8319
8176
7923
7620
7316
7016
6704
6382
6096
5890
5775
5723
5695
5664
5621
5568
5522
5494
5467
5407
5308
5214
5173
5183
5181
5124
5036
4972
4951
4935
4884
4804
4732
4696
4685
4676
4646
4579
4477
4367
4287
4254
4237
4195
4119
4043
4004
3989
3952
3864
3748
3646
3567
3486
3378
3252
3147
3081
3035
2985
2934
2908
2920
2945
2938
2884
2811
2769
2775
2803
2821
2823
2836
2875
2933
2990
3045
3119
3216
3313
3387
3441
3502
3593
3713
3841
3951
4023
4052
4066
4113
4209
4306
4339
4302
4270
4312
4424
4537
4597
4604
4597
4591
4588
4598
4622
4641
4621
4560
4501
4492
4528
4570
4585
4578
4565
4552
4538
4532
4543
4557
4545
4505
4460
4438
4432
4415
4378
4346
4335
4336
4332
4329
4336
4338
4305
4242
4192
4190
4215
4208
4141
4058
4019
4038
4081
4105
4091
4040
3969
3914
3898
3914
3927
3916
3909
3945
4021
4084
4107
4112
4140
4195
4232
4218
4163
4108
4095
4127
4175
4200
4191
4185
4235
4328
4388
4353
4264
4219
4246
4266
4206
4110
4084
4159
4252
4269
4221
4190
4211
4244
4246
4226
4190
4114
3988
3866
3809
3789
3700
3510
3321
3259
3333
3448
3547
3683
3920
4225
4497
4715
4965
5312
5675
5890
5888
5758
5631
5544
5427
5217
4938
4659
4424
4228
4062
3950
3904
3882
3831
3741
3663
3645
3654
3612
3489
3343
3253
3240
3260
3270
3274
3297
3323
3306
3227
3131
3078
3077
3078
3028
2931
2835
2778
2763
2746
2694
2607
2503
2402
2312
2249
2225
2229
2218
2159
2061
1968
1907
1854
1773
1663
1554
1467
1387
1300
1238
1252
1336
1402
1358
1215
1086
1068
1142
1190
1138
1051
1066
1251
1527
1742
1822
1810
1804
1859
1960
2057
2108
2114
2112
2155
2266
2418
2546
2620
2659
2704
2785
2893
2988
3041
3044
3030
3052
3139
3249
3302
3260
3179
3145
3178
3212
3182
3095
3026
3009
3008
2974
2914
2882
2901
2934
2932
2898
2891
2948
3027
3047
2994
2939
2959
3022
3031
2941
2835
2824
2923
3021
3010
2898
2787
2753
2786
2813
2788
2715
2637
2589
2584
2604
2623
2629
2637
2655
2653
2613
2557
2543
2580
2612
2586
2533
2544
2658
2803
2875
2860
2847
2916
3042
3143
3164
3132
3099
3074
3036
2982
2927
2886
2853
2810
2751
2706
2704
2756
2841
2902
2895
2833
2778
2786
2832
2832
2747
2658
2675
2807
2944
2966
2875
2774
2732
2709
2618
2438
2258
2182
2235
2362
2490
2602
2744
2959
3235
3532
3799
4019
4197
4337
4425
4462
4460
4415
4304
4106
3850
3618
3469
3381
3288
3165
3061
3035
3068
3072
2993
2888
2849
2890
2912
2833
2689
2617
2695
2847
2929
2900
2843
2851
2906
2919
2844
2753
2751
2853
2968
3001
2952
2912
2968
3101
3197
3156
2995
2837
2797
2863
2912
2847
2697
2582
2581
2656
2702
2668
2586
2519
2484
2460
2432
2416
2431
2468
2498
2511
2514
2516
2521
2533
2558
2584
2590
2584
2599
2668
2782
2890
2963
3020
3091
3157
3186
3182
3199
3279
3397
3495
3556
3610
3682
3767
3845
3916
3985
4040
4064
4063
4067
4103
4155
4197
4224
4253
4289
4316
4317
4300
4298
4329
4373
4390
4363
4317
4304
4351
4431
4481
4463
4393
4327
4315
4344
4363
4330
4247
4172
4158
4212
4288
4328
4310
4269
4246
4252
4267
4262
4233
4190
4145
4110
4101
4124
4164
4195
4212
4234
4271
4298
4280
4221
4167
4172
4237
4307
4326
4292
4266
4305
4410
4515
4549
4511
4463
4475
4548
4621
4633
4587
4534
4530
4583
4649
4667
4617
4545
4531
4607
4713
4763
4726
4669
4677
4751
4812
4791
4705
4636
4630
4656
4662
4643
4639
4662
4673
4631
4549
4471
4406
4321
4199
4091
4079
4183
4348
4523
4718
4972
5273
5559
5798
6005
6202
6354
6399
6322
6175
6017
5868
5720
5575
5438
5289
5121
4963
4874
4866
4873
4820
4711
4616
4578
4567
4521
4432
4351
4322
4344
4383
4407
4409
4398
4379
4354
4317
4266
4210
4171
4160
4169
4173
4169
4164
4163
4153
4116
4057
3998
3949
3896
3818
3723
3641
3589
3538
3453
3337
3235
3183
3162
3126
3052
2963
2896
2868
2866
2868
2861
2839
2818
2820
2864
2934
2988
2998
2984
2999
3072
3177
3264
3304
3310
3325
3381
3490
3632
3771
3869
3913
3924
3944
4002
4089
4167
4204
4203
4199
4229
4301
4392
4472
4527
4570
4620
4677
4729
4763
4776
4774
4766
4759
4756
4759
4766
4772
4765
4741
4710
4690
4688
4694
4685
4663
4656
4689
4748
4791
4790
4761
4746
4756
4771
4763
4737
4714
4709
4707
4692
4668
4644
4623
4592
4548
4504
4482
4491
4517
4539
4543
4528
4501
4477
4464
4458
4448
4435
4430
4445
4477
4511
4546
4597
4671
4742
4773
4754
4720
4711
4731
4750
4747
4733
4736
4755
4767
4749
4708
4676
4678
4709
4739
4738
4700
4649
4625
4649
4699
4722
4694
4650
4650
4709
4776
4786
4727
4637
4560
4502
4439
4354
4254
4165
4121
4160
4297
4507
4731
4932
5123
5337
5567
5766
5903
5998
6077
6109
6029
5815
5545
5333
5211
5098
4897
4611
4352
4225
4223
4245
4206
4112
4032
4001
3977
3904
3788
3694
3668
3678
3663
3602
3539
3524
3547
3558
3521
3452
3392
3364
3353
3334
3295
3245
3197
3155
3118
3082
3050
3027
3006
2979
2950
2929
2924
2920
2890
2817
2715
2617
2546
2502
2460
2395
2310
2225
2163
2119
2074
2016
1964
1945
1958
1969
1954
1931
1945
2006
2074
2107
2119
2161
2253
2346
2382
2363
2361
2430
2536
2595
2574
2537
2570
2691
2838
2949
3032
3140
3289
3439
3543
3598
3644
3707
3774
3823
3855
3887
3925
3955
3962
3947
3924
3910
3917
3940
3971
3995
4013
4044
4101
4168
4215
4234
4239
4244
4238
4209
4175
4173
4203
4217
4171
4089
4047
4080
4134
4134
4075
4030
4048
4087
4066
3973
3885
3876
3923
3948
3918
3887
3918
3996
4049
4035
3991
3980
4009
4024
3983
3908
3860
3877
3942
4011
4060
4096
4130
4154
4159
4147
4140
4149
4169
4181
4182
4179
4177
4171
4146
4089
4011
3940
3906
3918
3951
3964
3948
3935
3969
4045
4108
4103
4035
3972
3961
3988
4011
4014
4010
4006
3979
3917
3844
3785
3725
3624
3498
3436
3512
3682
3824
3875
3917
4090
4432
4836
5149
5305
5347
5362
5406
5477
5527
5486
5315
5045
4772
4582
4478
4401
4295
4158
4021
3905
3814
3742
3677
3597
3493
3389
3329
3314
3287
3189
3035
2917
2902
2939
2914
2777
2601
2493
2462
2424
2326
2233
2237
2314
2335
2237
2147
2255
2579
2905
3000
2861
2692
2669
2764
2809
2701
2494
2303
2170
2059
1937
1822
1744
1688
1610
1496
1387
1342
1370
1421
1442
1431
1433
1465
1488
1461
1418
1437
1532
1603
1542
1374
1257
1326
1553
1795
1943
2004
2045
2127
2287
2537
2817
2995
2976
2842
2817
3042
3404
3655
3690
3648
3732
3958
4151
4175
4077
4003
4005
4013
3977
3955
4053
4278
4523
4678
4721
4699
4646
4559
4423
4247
4043
3806
3541
3317
3255
3435
3783
4085
4162
4055
4023
4285
4766
5143
5167
4917
4722
4805
5070
5237
5161
4956
4821
4815
4844
4824
4758
4687
4631
4578
4526
4441
4265
3966
3621
3372
3300
3352
3391
3310
3075
2734
2429
2359
2616
3053
3391
3534
3742
4385
5500
6676
7422
7620
7565
7583
7698
7688
7397
6920
6484
6237
6154
6144
6151
6157
6153
6113
6033
5954
5925
5956
5995
5988
5952
5961
6044
6115
6056
5855
5618
5451
5353
5262
5182
5215
5429
5762
6074
6283
6440
6666
7030
7483
7900
8193
8365
8498
8641
8735
8635
8246
7612
6905
6330
6025
6009
6157
6275
6275
6275
6476
6884
7250
7309
7058
6745
6559
6434
6212
5920
5779
5917
6206
6423
6509
6613
6869
7216
7483
7594
7618
7632
7612
7459
7148
6770
6419
6068
5630
5159
4904
5091
5634
6173
6437
6503
6640
6893
6957
6515
5667
4900
4585
4592
4478
4020
3468
3249
3480
3855
3998
3850
3617
3436
3230
2888
2523
2418
2711
3196
3525
3586
3605
3838
4234
4450
4217
3639
3090
2846
2817
2708
2391
2101
2211
2827
3648
4210
4271
4008
3826
3969
4282
4340
3859
3020
2409
2537
3353
4269
4718
4683
4681
5160
5984
6569
6487
5890
5297
5055
5066
5026
4811
4600
4602
4814
5029
5081
4977
4809
4623
4427
4276
4221
4178
3963
3500
2998
2788
2984
3372
3656
3762
3842
4041
4334
4597
4733
4692
4460
4126
3906
3976
4244
4415
4355
4310
4629
5276
5805
5859
5579
5384
5426
5452
5229
4923
4903
5235
5585
5658
5585
5712
6112
6453
6411
6048
5717
5653
5762
5795
5667
5509
5422
5348
5228
5140
5228
5459
5606
5506
5265
5108
5042
4827
4343
3837
3681
3918
4197
4208
4065
4110
4467
4914
5183
5236
5177
5029
4758
4468
4370
4532
4777
4938
5118
5525
6119
6547
6511
6127
5750
5544
5313
4835
4186
3663
3444
3416
3349
3161
2913
2657
2391
2132
1937
1792
1569
1176
749
560
683
887
903
754
739
1049
1518
1822
1841
1710
1585
1495
1429
1388
1284
962
407
-88
-203
9
95
-207
-543
-345
355
812
425
-456
-860
-337
496
676
20
-708
-726
-97
441
360
-168
-633
-794
-833
-1000
-1291
-1550
-1738
-1951
-2246
-2518
-2599
-2470
-2309
-2339
-2605
-2960
-3242
-3448
-3699
-4065
-4433
-4594
-4451
-4133
-3888
-3843
-3887
-3815
-3576
-3356
-3408
-3798
-4319
-4698
-4846
-4906
-5057
-5308
-5505
-5523
-5396
-5290
-5318
-5422
-5473
-5465
-5523
-5733
-5982
-6073
-6018
-6044
-6318
-6706
-6933
-6918
-6804
-6710
-6587
-6422
-6425
-6774
-7209
-7163
-6433
-5554
-5274
-5679
-6062
-5724
-4745
-3840
-3558
-3812
-4131
-4210
-4086
-3920
-3776
-3639
-3547
-3596
-3796
-4011
-4055
-3885
-3693
-3716
-3949
-4062
-3738
-3086
-2538
-2328
-2182
-1685
-878
-268
-251
-642
-894
-710
-322
-165
-414
-861
-1157
-1093
-680
-87
508
1038
1574
2202
2852
3329
3533
3579
3642
3742
3766
3681
3625
3731
3958
4170
4342
4576
4883
5086
5030
4845
4837
5118
5461
5606
5609
5722
6012
6224
6107
5777
5611
5812
6169
6324
6207
6112
6382
7067
7921
8657
9156
9471
9718
9970
10190
10263
10079
9635
9064
8554
8251
8221
8442
8777
8976
8808
8301
7829
7812
8266
8749
8808
8498
8334
8719
9523
10258
10592
10568
10381
10108
9747
9370
9109
9004
8958
8886
8842
8923
9111
9265
9232
8919
8331
7636
7132
7066
7370
7667
7663
7487
7511
7864
8206
8050
7290
6337
5738
5688
5918
6008
5808
5547
5570
5952
6397
6518
6195
5697
5420
5501
5722
5767
5545
5272
5241
5547
6001
6294
6237
5875
5422
5094
4958
4925
4875
4790
4772
4932
5228
5465
5521
5513
5656
5957
6142
5962
5518
5184
5179
5317
5247
4904
4544
4392
4391
4353
4275
4328
4578
4832
4836
4556
4210
4032
4088
4277
4422
4370
4135
3937
4022
4386
4713
4710
4443
4232
4201
4095
3666
3107
2905
3230
3691
3811
3619
3581
3985
4572
4840
4590
4033
3440
2912
2501
2370
2630
3106
3461
3563
3614
3862
4287
4627
4671
4388
3858
3240
2803
2794
3168
3540
3598
3520
3796
4590
5442
5793
5649
5523
5735
6020
5911
5407
4983
4995
5296
5533
5624
5797
6216
6742
7128
7335
7528
7795
7969
7786
7214
6568
6305
6589
7079
7195
6727
6135
6114
6835
7723
8030
7593
6937
6689
7004
7570
8060
8425
8738
8980
9116
9270
9672
10382
11102
11405
11175
10740
10536
10676
10862
10720
10186
9512
8987
8686
8506
8370
8297
8290
8242
8049
7754
7507
7367
7212
6892
6444
6096
5996
6036
5972
5733
5507
5510
5693
5747
5390
4678
3960
3520
3312
3102
2848
2766
3022
3450
3716
3719
3689
3812
3916
3658
3014
2367
2048
1947
1741
1433
1388
1824
2458
2796
2688
2440
2347
2344
2151
1651
994
415
40
-128
-182
-240
-380
-537
-564
-390
-138
-22
-131
-403
-777
-1223
-1649
-1899
-1924
-1852
-1800
-1685
-1346
-836
-406
-192
-41
239
544
573
259
-104
-271
-367
-647
-1060
-1255
-1089
-864
-926
-1170
-1130
-622
-54
30
-411
-903
-1037
-916
-950
-1305
-1684
-1728
-1475
-1327
-1491
-1642
-1260
-297
606
753
147
-492
-539
-140
34
-390
-1119
-1646
-1824
-1804
-1671
-1365
-1021
-965
-1246
-1354
-773
225
692
93
-966
-1370
-799
-116
-283
-1164
-1714
-1294
-403
12
-270
-597
-345
352
861
874
671
627
730
739
583
450
510
732
994
1291
1678
2121
2491
2713
2836
2944
3048
3129
3195
3223
3148
3005
3048
3553
4451
5266
5558
5440
5461
5920
6463
6540
6134
5788
5917
6324
6588
6722
7151
7983
8616
8380
7445
6756
6965
7705
8079
7764
7358
7602
8540
9595
10302
10710
11070
11387
11447
11191
10855
10681
10601
10356
9867
9376
9155
9152
9055
8677
8178
7839
7682
7504
7256
7192
7553
8127
8362
8013
709
532
384
264
127
-56
-228
-293
-209
-34
152
321
508
736
976
1188
1362
1504
1583
1540
1364
1130
929
766
566
286
-4
-198
-278
-323
-399
-482
-521
-532
-592
-725
-863
-932
-952
-1010
-1137
-1266
-1319
-1290
-1251
-1260
-1304
-1338
-1349
-1371
-1436
-1534
-1627
-1702
-1783
-1906
-2074
-2247
-2388
-2500
-2618
-2759
-2895
-2971
-2953
-2828
-2612
-2348
-2119
-1999
-1976
-1949
-1842
-1708
-1690
-1879
-2206
-2511
-2701
-2797
-2878
-2975
-3056
-3096
-3098
-3096
-3106
-3119
-3115
-3103
-3122
-3211
-3360
-3481
-3495
-3406
-3303
-3269
-3310
-3345
-3335
-3319
-3367
-3468
-3516
-3435
-3300
-3301
-3543
-3921
-4209
-4289
-4247
-4223
-4197
-3976
-3419
-2635
-1907
-1423
-1126
-865
-628
-573
-830
-1325
-1832
-2180
-2367
-2469
-2529
-2537
-2502
-2484
-2530
-2623
-2735
-2870
-3072
-3351
-3636
-3825
-3861
-3752
-3576
-3465
-3540
-3820
-4164
-4372
-4379
-4335
-4422
-4608
-4657
-4396
-3950
-3617
-3541
-3591
-3573
-3487
-3496
-3675
-3885
-3955
-3890
-3858
-3958
-4094
-4097
-3933
-3742
-3687
-3796
-3967
-4071
-4050
-3929
-3774
-3662
-3618
-3604
-3562
-3482
-3414
-3419
-3502
-3606
-3670
-3683
-3678
-3664
-3600
-3449
-3257
-3146
-3166
-3201
-3087
-2874
-2860
-3276
-3929
-4330
-4246
-4023
-4206
-4845
-5339
-5073
-4130
-3211
-2845
-2872
-2742
-2203
-1532
-1137
-1098
-1190
-1226
-1235
-1323
-1487
-1637
-1748
-1899
-2165
-2521
-2865
-3100
-3213
-3255
-3297
-3369
-3429
-3419
-3326
-3207
-3132
-3126
-3158
-3203
-3262
-3340
-3413
-3445
-3429
-3402
-3407
-3464
-3549
-3627
-3680
-3704
-3701
-3674
-3625
-3557
-3491
-3450
-3433
-3400
-3331
-3301
-3458
-3863
-4362
-4657
-4585
-4281
-4060
-4089
-4225
-4198
-3917
-3567
-3411
-3552
-3874
-4196
-4410
-4496
-4490
-4450
-4437
-4470
-4509
-4491
-4411
-4348
-4359
-4407
-4408
-4344
-4269
-4206
-4126
-4075
-4246
-4774
-5451
-5799
-5576
-5137
-5091
-5541
-5827
-5207
-3757
-2391
-1918
-2230
-2522
-2239
-1614
-1271
-1487
-1979
-2322
-2391
-2352
-2370
-2455
-2526
-2545
-2547
-2554
-2570
-2572
-2525
-2399
-2211
-2028
-1928
-1942
-2025
-2089
-2068
-1971
-1874
-1838
-1849
-1827
-1718
-1565
-1445
-1376
-1312
-1231
-1191
-1247
-1343
-1357
-1264
-1180
-1212
-1299
-1280
-1099
-893
-825
-887
-926
-845
-698
-598
-573
-575
-570
-568
-557
-487
-346
-204
-138
-140
-130
-54
69
191
286
359
414
477
585
751
920
1001
976
931
967
1067
1118
1050
920
839
867
988
1139
1238
1230
1136
1074
1158
1342
1413
1206
816
523
516
706
857
847
777
826
1068
1449
1875
2279
2615
2846
2974
3052
3144
3245
3292
3240
3112
2984
2892
2807
2703
2606
2555
2528
2455
2318
2200
2212
2350
2477
2476
2374
2293
2273
2246
2144
2011
1934
1905
1839
1708
1606
1623
1698
1693
1574
1449
1406
1374
1209
914
666
621
728
793
699
537
481
587
736
762
628
427
266
173
97
-17
-167
-315
-438
-535
-606
-634
-621
-608
-624
-660
-687
-734
-852
-1026
-1151
-1132
-997
-870
-822
-793
-668
-429
-176
-4
79
108
117
141
216
321
358
240
37
-50
90
342
516
574
680
952
1278
1457
1453
1433
1516
1601
1518
1289
1130
1164
1274
1271
1148
1067
1121
1190
1104
861
631
542
543
539
574
792
1225
1721
2093
2316
2510
2741
2914
2891
2676
2437
2341
2398
2499
2560
2592
2640
2707
2760
2804
2879
2991
3079
3065
2946
2819
2791
2888
3064
3256
3428
3567
3667
3731
3803
3937
4128
4275
4246
4006
3687
3485
3491
3616
3698
3682
3691
3858
4153
4407
4483
4404
4300
4236
4151
3936
3526
2916
2150
1370
827
737
1059
1475
1682
1708
1882
2464
3308
3959
4079
3742
3301
3018
2824
2480
1929
1448
1413
1910
2604
3082
3263
3424
3835
4389
4660
4344
3569
2749
2207
1940
1714
1327
777
245
-59
-44
191
426
512
459
380
326
220
-31
-383
-691
-850
-896
-944
-1077
-1292
-1536
-1739
-1819
-1726
-1494
-1286
-1246
-1324
-1332
-1193
-1095
-1265
-1627
-1830
-1697
-1561
-1943
-2897
-3816
-4051
-3624
-3175
-3184
-3436
-3326
-2601
-1619
-924
-696
-706
-696
-639
-678
-910
-1301
-1740
-2119
-2369
-2486
-2528
-2547
-2539
-2459
-2318
-2225
-2270
-2434
-2619
-2764
-2883
-2977
-2967
-2771
-2444
-2158
-2014
-1917
-1696
-1352
-1097
-1130
-1421
-1805
-2191
-2595
-2954
-3045
-2689
-2025
-1422
-1085
-836
-361
346
924
1019
639
73
-414
-753
-961
-1050
-1115
-1326
-1753
-2204
-2376
-2200
-1950
-1929
-2124
-2254
-2118
-1791
-1451
-1168
-909
-702
-667
-848
-1126
-1348
-1478
-1574
-1652
-1641
-1494
-1297
-1141
-983
-684
-237
143
218
5
-227
-253
-163
-262
-689
-1216
-1448
-1250
-895
-764
-919
-1037
-789
-248
149
86
-263
-425
-148
329
569
435
199
173
337
421
299
120
48
17
-117
-271
-165
244
582
490
157
173
783
1493
1617
1106
645
853
1586
2179
2242
2024
2013
2338
2662
2619
2201
1757
1667
1965
2221
1856
739
-506
-954
-265
907
1522
1239
740
944
1993
3132
3495
2866
1693
583
-121
-404
-420
-366
-365
-377
-260
65
491
785
763
354
-401
-1329
-2120
-2474
-2336
-1944
-1590
-1336
-996
-444
171
521
424
0
-466
-756
-858
-900
-1031
-1295
-1582
-1722
-1657
-1520
-1513
-1708
-1988
-2234
-2472
-2779
-3110
-3291
-3218
-2993
-2809
-2727
-2639
-2455
-2229
-2064
-1981
-1948
-1984
-2135
-2366
-2538
-2542
-2406
-2228
-2046
-1862
-1744
-1773
-1870
-1789
-1393
-902
-700
-874
-1057
-827
-201
384
534
283
-23
-133
-87
-63
-155
-327
-500
-617
-652
-627
-596
-591
-580
-498
-373
-338
-460
-648
-778
-882
-1110
-1471
-1709
-1578
-1185
-903
-916
-975
-746
-339
-261
-785
-1516
-1775
-1369
-797
-627
-815
-814
-286
468
870
703
263
-66
-214
-356
-568
-710
-622
-378
-213
-236
-331
-327
-232
-223
-415
-705
-870
-796
-561
-311
-117
29
113
81
-74
-255
-340
-300
-226
-213
-254
-273
-234
-197
-248
-391
-541
-638
-735
-928
-1188
-1367
-1348
-1223
-1199
-1320
-1371
-1107
-562
-22
350
696
1246
1949
2508
2730
2749
2811
2914
2834
2457
1975
1667
1579
1536
1426
1384
1595
2024
2412
2526
2379
2162
2021
1923
1736
1389
953
619
551
771
1140
1472
1661
1733
1799
1958
2190
2343
2242
1879
1461
1249
1313
1492
1634
1782
2122
2657
3103
3152
2827
2476
2366
2360
2095
1435
723
477
868
1530
1925
1877
1691
1766
2126
2415
2308
1853
1365
1074
952
889
906
1129
1567
2006
2195
2115
2010
2139
2510
2891
3056
3014
3002
3187
3401
3289
2763
2231
2201
2679
3132
3132
2964
3350
4529
5835
6361
5940
5272
5061
5242
5215
4676
3974
3650
3813
4128
4313
4432
4680
5060
5374
5459
5360
5236
5192
5223
5285
5352
5405
5422
5389
5304
5195
5112
5117
5242
5443
5649
5806
5902
5937
5898
5774
5601
5435
5287
5136
4998
4930
4976
5106
5230
5278
5245
5160
5051
4926
4811
4730
4645
4483
4219
3938
3778
3806
3927
3966
3843
3648
3546
3616
3777
3834
3633
3174
2636
2271
2225
2407
2572
2579
2579
2860
3504
4217
4616
4601
4406
4251
4079
3704
3155
2723
2623
2728
2773
2744
2906
3428
4131
4675
4969
5239
5698
6248
6621
6721
6716
6784
6906
6936
6809
6630
6519
6457
6323
6048
5699
5418
5292
5271
5199
4977
4671
4447
4371
4305
4067
3648
3227
2938
2694
2330
1867
1536
1502
1646
1704
1588
1479
1569
1818
1996
1953
1743
1522
1373
1284
1230
1200
1162
1081
953
835
791
786
735
612
500
487
544
534
391
223
200
350
504
475
277
92
49
93
96
31
0
67
150
142
80
135
388
706
877
882
937
1237
1689
1971
1865
1491
1164
1040
999
819
465
128
-1
77
238
395
564
775
976
1086
1110
1121
1164
1205
1175
1070
973
969
1070
1219
1337
1379
1349
1306
1323
1430
1561
1594
1476
1308
1257
1373
1547
1644
1673
1753
1951
2193
2373
2465
2475
2342
1995
1548
1301
1473
1936
2319
2410
2363
2479
2841
3221
3346
3176
2884
2642
2500
2426
2392
2402
2417
2351
2160
1923
1752
1657
1518
1241
903
701
728
840
831
691
616
743
945
953
659
242
-4
63
352
645
759
664
486
391
420
448
311
7
-281
-371
-276
-151
-120
-163
-163
-60
114
288
404
438
402
348
303
227
55
-210
-481
-670
-798
-966
-1216
-1452
-1565
-1577
-1629
-1813
-2031
-2104
-1992
-1872
-1945
-2232
-2566
-2744
-2699
-2495
-2242
-2027
-1891
-1821
-1717
-1461
-1063
-719
-648
-859
-1120
-1203
-1135
-1139
-1316
-1469
-1301
-798
-300
-161
-354
-518
-398
-137
-99
-430
-873
-1051
-850
-491
-234
-118
6
254
559
751
727
536
318
161
44
-120
-348
-523
-516
-347
-162
-45
60
236
434
546
595
736
991
1091
767
167
-158
176
920
1445
1453
1297
1523
2209
2889
3083
2788
2382
2178
2170
2172
2080
1939
1831
1787
1786
1805
1838
1883
1933
1970
1955
1864
1721
1600
1563
1606
1675
1710
1687
1613
1510
1413
1356
1355
1393
1438
1458
1437
1377
1308
1276
1296
1321
1312
1303
1381
1555
1696
1638
1361
999
691
463
289
231
393
753
1136
1394
1589
1895
2328
2658
2639
2281
1826
1488
1270
1054
792
560
443
417
403
373
374
425
401
105
-520
-1240
-1649
-1542
-1156
-953
-1133
-1443
-1506
-1274
-1051
-1108
-1392
-1674
-1866
-2065
-2296
-2409
-2281
-2039
-1944
-2061
-2156
-1974
-1537
-1117
-934
-986
-1150
-1326
-1448
-1462
-1400
-1443
-1770
-2309
-2739
-2843
-2810
-3066
-3742
-4441
-4630
-4254
-3825
-3852
-4283
-4593
-4387
-3816
-3371
-3359
-3657
-3943
-4051
-4062
-4121
-4270
-4445
-4576
-4650
-4686
-4691
-4667
-4627
-4610
-4650
-4742
-4845
-4914
-4926
-4886
-4824
-4790
-4828
-4922
-4999
-5009
-4988
-5022
-5135
-5240
-5250
-5196
-5220
-5399
-5625
-5726
-5673
-5631
-5756
-6007
-6193
-6237
-6279
-6485
-6771
-6808
-6378
-5639
-4978
-4613
-4389
-4030
-3502
-3068
-2981
-3219
-3526
-3699
-3736
-3720
-3671
-3534
-3306
-3074
-2917
-2823
-2728
-2612
-2529
-2520
-2560
-2563
-2451
-2221
-1954
-1757
-1682
-1698
-1747
-1805
-1881
-1968
-2024
-2001
-1905
-1789
-1688
-1599
-1519
-1469
-1461
-1442
-1351
-1222
-1186
-1311
-1477
-1468
-1232
-979
-960
-1171
-1348
-1274
-1017
-823
-820
-901
-903
-816
-743
-721
-674
-544
-410
-392
-484
-546
-472
-302
-171
-142
-159
-146
-91
-40
-22
-30
-51
-90
-149
-212
-252
-250
-201
-98
53
237
400
477
445
350
277
268
270
187
1
-206
-347
-431
-533
-686
-834
-914
-946
-995
-1064
-1079
-979
-803
-646
-547
-441
-244
56
386
659
832
930
1017
1129
1219
1181
949
565
149
-216
-552
-919
-1302
-1604
-1752
-1777
-1764
-1748
-1704
-1624
-1560
-1568
-1635
-1698
-1716
-1707
-1694
-1649
-1544
-1417
-1343
-1330
-1300
-1197
-1082
-1073
-1190
-1315
-1332
-1273
-1254
-1315
-1371
-1335
-1249
-1226
-1306
-1409
-1437
-1396
-1358
-1347
-1302
-1185
-1049
-967
-925
-834
-663
-513
-503
-613
-689
-628
-526
-575
-832
-1159
-1369
-1436
-1486
-1625
-1813
-1909
-1832
-1632
-1421
-1275
-1179
-1067
-902
-699
-523
-417
-365
-299
-159
44
238
342
340
307
359
549
792
937
937
918
1051
1353
1646
1759
1721
1703
1808
1957
2020
1992
1982
2055
2145
2164
2125
2113
2168
2233
2223
2122
1968
1814
1686
1581
1476
1341
1184
1064
1049
1147
1295
1452
1640
1885
2138
2301
2348
2367
2446
2548
2556
2422
2249
2191
2282
2425
2504
2498
2475
2513
2634
2790
2897
2889
2775
2646
2597
2636
2672
2622
2525
2502
2613
2778
2865
2833
2773
2787
2866
2897
2825
2735
2750
2897
3064
3138
3111
3057
3017
2968
2864
2696
2470
2205
1976
1925
2134
2501
2805
2931
3009
3277
3787
4332
4654
4712
4678
4706
4785
4790
4647
4384
4065
3720
3386
3121
2975
2909
2835
2727
2651
2666
2715
2672
2480
2229
2051
1985
1969
1946
1930
1964
2049
2154
2225
2203
2047
1788
1555
1473
1508
1485
1302
1084
1039
1167
1217
990
602
377
454
637
651
480
362
487
759
912
790
474
153
-64
-230
-476
-842
-1225
-1481
-1569
-1590
-1664
-1785
-1838
-1787
-1764
-1891
-2086
-2124
-1920
-1682
-1708
-2028
-2359
-2424
-2254
-2085
-2072
-2137
-2118
-1981
-1799
-1613
-1384
-1097
-843
-745
-811
-900
-851
-647
-435
-359
-434
-523
-477
-284
-72
41
38
-18
-71
-110
-131
-113
-37
81
214
359
528
702
814
831
781
733
710
680
614
529
477
499
604
772
963
1110
1188
1245
1358
1530
1659
1638
1484
1348
1374
1548
1721
1775
1747
1790
2005
2326
2580
2636
2520
2359
2273
2284
2315
2272
2128
1945
1831
1860
2009
2190
2322
2372
2352
2292
2232
2198
2207
2246
2269
2234
2137
2031
1981
2007
2046
1995
1817
1579
1401
1334
1316
1224
1011
791
749
955
1287
1541
1657
1783
2097
2569
2975
3129
3086
3064
3186
3348
3360
3160
2875
2661
2544
2447
2284
2057
1820
1618
1470
1374
1312
1241
1135
994
860
769
718
671
600
506
409
351
367
451
537
540
418
225
75
36
71
74
-15
-161
-273
-304
-276
-246
-258
-331
-459
-612
-751
-854
-933
-1014
-1110
-1221
-1338
-1447
-1505
-1479
-1403
-1364
-1418
-1520
-1571
-1547
-1522
-1574
-1704
-1844
-1938
-1971
-1954
-1902
-1843
-1805
-1778
-1711
-1576
-1418
-1327
-1333
-1367
-1338
-1225
-1098
-1039
-1057
-1084
-1041
-919
-800
-794
-911
-1016
-965
-783
-658
-708
-819
-799
-706
-885
-1576
-2513
-3060
-2833
-2089
-1442
-1206
-1107
-678
168
1021
1381
1115
503
-82
-483
-778
-1089
-1419
-1668
-1771
-1785
-1807
-1846
-1818
-1693
-1602
-1732
-2099
-2496
-2698
-2702
-2696
-2804
-2918
-2886
-2765
-2773
-2990
-3171
-2972
-2402
-1908
-1909
-2307
-2551
-2242
-1632
-1370
-1745
-2281
-2250
-1528
-814
-865
-1629
-2313
-2295
-1820
-1641
-2055
-2546
-2453
-1788
-1231
-1324
-1866
-2225
-2066
-1672
-1533
-1850
-2393
-2763
-2736
-2415
-2149
-2257
-2675
-2951
-2689
-2036
-1596
-1751
-2180
-2201
-1585
-814
-500
-644
-717
-415
-55
-105
-468
-492
243
1306
1748
1109
-85
-855
-766
-334
-418
-1324
-2527
-3215
-3040
-2336
-1727
-1573
-1767
-1977
-1968
-1734
-1384
-1048
-824
-786
-910
-1036
-954
-625
-317
-364
-829
-1363
-1534
-1298
-1041
-1092
-1318
-1254
-648
211
754
697
273
-60
-79
70
110
-73
-392
-692
-854
-857
-757
-667
-683
-789
-864
-792
-579
-352
-239
-281
-409
-508
-466
-238
103
416
616
791
1113
1634
2209
2640
2857
2910
2881
2830
2816
2877
2930
2799
2418
1999
1885
2185
2638
2869
2818
2761
2953
3336
3626
3630
3415
3178
3022
2900
2752
2599
2511
2468
2325
1949
1387
869
619
660
794
807
697
676
952
1506
2086
2407
2390
2193
2022
1946
1873
1732
1597
1609
1808
2073
2287
2493
2834
3318
3719
3804
3618
3461
3546
3744
3747
3467
3163
3139
3374
3547
3425
3127
2944
2997
3105
3025
2729
2404
2219
2160
2091
1948
1831
1894
2163
2481
2653
2627
2545
2569
2727
2924
3106
3318
3597
3851
3915
3738
3454
3225
3057
2834
2505
2189
2054
2147
2380
2630
2835
3017
3226
3483
3752
3932
3918
3693
3353
3028
2774
2564
2369
2192
2044
1907
1783
1730
1804
1956
2031
1908
1645
1433
1407
1513
1581
1511
1373
1324
1447
1672
1847
1879
1783
1633
1490
1375
1282
1192
1080
946
832
801
866
942
923
809
711
730
827
873
786
630
541
567
620
576
416
244
192
293
454
550
561
587
732
954
1083
966
621
205
-140
-408
-660
-910
-1081
-1098
-980
-814
-654
-476
-255
-47
20
-108
-316
-406
-296
-114
-46
-128
-195
-76
216
504
639
629
582
591
680
817
955
1031
1016
960
949
1027
1139
1204
1210
1224
1305
1427
1509
1503
1425
1318
1209
1105
1020
979
1000
1077
1171
1227
1212
1146
1086
1063
1034
917
688
427
248
185
164
96
-21
-118
-144
-129
-123
-128
-99
-3
132
247
308
328
337
365
447
597
765
837
736
539
450
595
844
894
578
69
-279
-266
-37
88
-51
-315
-447
-328
-68
145
220
194
143
90
19
-70
-150
-207
-305
-497
-710
-780
-613
-320
-98
-6
124
478
1028
1574
1986
2327
2703
3055
3205
3085
2823
2592
2408
2155
1792
1436
1226
1196
1266
1364
1453
1516
1534
1520
1521
1570
1623
1604
1486
1361
1367
1557
1846
2058
2056
1849
1598
1474
1509
1577
1541
1407
1317
1376
1541
1686
1734
1727
1732
1745
1713
1615
1507
1465
1505
1570
1587
1527
1413
1297
1218
1172
1101
945
705
451
265
177
157
162
169
151
80
-49
-182
-250
-266
-336
-540
-807
-968
-940
-830
-809
-915
-1021
-987
-825
-659
-574
-551
-529
-490
-448
-405
-347
-277
-213
-158
-81
36
171
282
352
396
431
454
455
444
437
448
490
571
671
755
811
878
995
1121
1157
1050
868
748
748
792
767
659
560
552
627
709
748
744
696
598
457
313
190
55
-142
-390
-604
-715
-739
-753
-794
-822
-792
-716
-649
-615
-591
-559
-532
-526
-527
-515
-497
-504
-544
-590
-628
-681
-775
-887
-968
-1004
-1039
-1116
-1209
-1254
-1234
-1199
-1204
-1245
-1279
-1288
-1307
-1370
-1460
-1543
-1636
-1792
-2022
-2252
-2380
-2375
-2297
-2208
-2108
-1957
-1751
-1518
-1261
-956
-620
-347
-226
-242
-280
-270
-289
-451
-758
-1069
-1261
-1361
-1483
-1658
-1774
-1723
-1554
-1441
-1493
-1644
-1738
-1712
-1675
-1787
-2080
-2411
-2594
-2580
-2474
-2401
-2391
-2400
-2409
-2457
-2564
-2672
-2708
-2681
-2688
-2789
-2927
-2992
-2950
-2865
-2813
-2802
-2790
-2753
-2720
-2716
-2740
-2770
-2827
-2959
-3173
-3398
-3517
-3470
-3323
-3198
-3163
-3178
-3166
-3116
-3104
-3211
-3437
-3704
-3946
-4147
-4304
-4389
-4372
-4275
-4165
-4098
-4086
-4105
-4142
-4187
-4225
-4241
-4238
-4223
-4176
-4037
-3776
-3441
-3146
-2967
-2889
-2834
-2740
-2605
-2469
-2364
-2286
-2229
-2181
-2122
-2026
-1895
-1773
-1707
-1685
-1632
-1506
-1376
-1367
-1517
-1714
-1817
-1815
-1843
-1997
-2202
-2280
-2159
-1952
-1840
-1865
-1924
-1915
-1849
-1790
-1746
-1676
-1572
-1508
-1535
-1598
-1584
-1470
-1362
-1360
-1425
-1412
-1235
-961
-740
-643
-603
-522
-390
-298
-339
-501
-685
-799
-834
-835
-817
-730
-551
-365
-309
-406
-510
-447
-242
-120
-249
-518
-629
-438
-126
-1
-164
-417
-507
-377
-161
6
115
217
301
312
242
136
17
-145
-388
-666
-882
-966
-937
-826
-628
-336
17
366
680
975
1280
1565
1749
1767
1628
1386
1114
859
641
458
288
115
-34
-78
41
285
523
621
558
442
374
341
252
71
-141
-285
-352
-401
-471
-523
-529
-527
-583
-704
-816
-854
-827
-801
-813
-836
-837
-839
-892
-1004
-1100
-1067
-870
-602
-424
-421
-511
-526
-412
-309
-414
-748
-1124
-1327
-1325
-1279
-1335
-1463
-1521
-1432
-1267
-1148
-1108
-1093
-1062
-1035
-1020
-979
-868
-701
-533
-375
-187
30
200
265
283
369
525
622
558
420
406
597
879
1107
1273
1478
1762
2036
2203
2253
2250
2235
2195
2125
2045
1986
1965
2005
2134
2336
2528
2625
2638
2669
2777
2902
2932
2840
2706
2626
2618
2634
2634
2619
2602
2592
2612
2690
2809
2900
2899
2828
2772
2776
2810
2813
2792
2803
2881
2993
3105
3213
3320
3414
3475
3514
3553
3599
3631
3641
3647
3663
3678
3671
3636
3602
3588
3599
3628
3660
3663
3625
3589
3636
3780
3928
3951
3828
3677
3620
3660
3696
3661
3591
3566
3628
3754
3866
3875
3739
3469
3135
2803
2490
2168
1839
1572
1444
1462
1570
1745
2024
2429
2898
3293
3516
3591
3598
3567
3448
3212
2930
2703
2541
2355
2090
1829
1701
1705
1692
1533
1288
1124
1116
1158
1098
908
700
596
580
543
410
221
77
26
38
71
116
173
207
161
60
54
255
555
672
447
61
-137
-15
198
195
-61
-327
-420
-422
-531
-783
-1022
-1133
-1189
-1319
-1503
-1587
-1467
-1242
-1082
-1045
-1053
-1028
-978
-946
-929
-906
-904
-975
-1112
-1207
-1157
-989
-829
-751
-718
-662
-586
-543
-544
-554
-552
-553
-548
-490
-365
-255
-237
-246
-118
190
499
596
514
505
718
968
937
594
262
236
439
526
319
41
51
413
835
1000
921
880
1069
1368
1505
1372
1129
1001
1032
1082
1041
966
1002
1180
1375
1450
1414
1394
1474
1603
1660
1586
1433
1296
1228
1236
1291
1352
1381
1369
1359
1417
1540
1632
1601
1479
1399
1457
1598
1668
1593
1457
1415
1529
1705
1801
1760
1655
1605
1661
1776
1847
1818
1729
1673
1697
1761
1801
1790
1750
1705
1662
1628
1621
1634
1604
1457
1217
1002
904
892
859
783
777
945
1242
1530
1751
2001
2383
2843
3210
3367
3364
3320
3272
3163
2938
2624
2287
1982
1735
1584
1557
1602
1608
1512
1371
1300
1329
1357
1251
994
720
571
557
598
631
665
708
702
595
426
268
61
-386
-1116
-1821
-2026
-1580
-875
-465
-488
-560
-266
350
840
830
357
-275
-816
-1207
-1478
-1662
-1806
-1991
-2256
-2513
-2638
-2621
-2631
-2849
-3240
-3620
-3870
-4045
-4227
-4355
-4305
-4143
-4134
-4408
-4704
-4601
-3997
-3290
-3004
-3255
-3717
-4057
-4284
-4615
-5111
-5572
-5787
-5737
-5532
-5231
-4805
-4281
-3825
-3658
-3832
-4169
-4440
-4591
-4715
-4856
-4889
-4667
-4256
-3920
-3790
-3646
-3178
-2473
-2066
-2311
-2825
-2796
-1921
-862
-509
-940
-1377
-1214
-789
-913
-1771
-2632
-2737
-2203
-1805
-1963
-2234
-1965
-1231
-864
-1478
-2690
-3491
-3391
-3012
-3419
-4841
-6271
-6500
-5403
-3995
-3231
-2987
-2410
-1137
240
902
761
378
162
-32
-459
-968
-1165
-984
-800
-911
-1170
-1227
-1033
-921
-1244
-2004
-2885
-3508
-3630
-3272
-2706
-2239
-1892
-1386
-521
462
1037
969
580
301
104
-436
-1466
-2487
-2861
-2580
-2309
-2569
-3069
-3033
-2120
-857
-82
-124
-599
-941
-978
-949
-1127
-1510
-1867
-1954
-1718
-1294
-853
-441
44
658
1272
1668
1779
1731
1636
1456
1140
833
795
1060
1302
1205
914
938
1558
2419
2904
2818
2571
2620
2915
3014
2695
2253
2108
2271
2356
2081
1606
1301
1299
1415
1468
1488
1604
1818
2032
2203
2366
2472
2318
1735
872
137
-153
-38
204
412
689
1186
1863
2475
2804
2824
2650
2360
1911
1264
564
108
96
426
786
983
1103
1335
1701
2005
2049
1804
1368
828
287
-44
31
407
656
497
227
450
1360
2433
2978
2910
2790
3100
3676
3986
3796
3387
3093
2903
2592
2144
1829
1857
2112
2290
2231
2052
1963
2044
2192
2223
2035
1700
1390
1216
1134
1024
834
663
619
686
742
686
514
269
-30
-337
-559
-635
-613
-598
-583
-429
-45
448
814
949
971
1029
1108
1068
862
607
422
262
-5
-364
-587
-472
-103
218
283
189
181
368
616
732
669
534
437
403
392
371
332
296
301
368
454
447
265
-25
-250
-290
-203
-158
-283
-556
-813
-864
-630
-269
-85
-272
-672
-873
-586
57
664
993
1164
1430
1855
2285
2566
2684
2677
2525
2209
1831
1563
1448
1352
1144
871
708
720
784
764
710
778
1010
1243
1318
1286
1334
1509
1608
1418
1010
708
741
979
1098
970
832
1009
1521
2062
2334
2337
2310
2411
2544
2514
2281
2000
1822
1737
1643
1527
1495
1602
1753
1804
1732
1646
1626
1615
1529
1414
1399
1499
1550
1429
1253
1255
1486
1722
1730
1537
1370
1336
1321
1223
1163
1346
1734
2024
1981
1748
1680
1884
2072
1918
1465
1085
1064
1345
1661
1843
1939
2084
2337
2661
2975
3218
3372
3484
3587
3600
3385
2997
2798
3097
3766
4290
4319
4089
4162
4754
5471
5750
5460
4984
4747
4840
5062
5162
5025
4696
4341
4177
4281
4485
4481
4153
3719
3504
3594
3799
3927
3981
4084
4254
4361
4307
4150
4020
3940
3819
3656
3619
3898
4488
5138
5566
5722
5794
5955
6159
6211
6031
5739
5507
5381
5273
5118
4964
4881
4868
4848
4791
4727
4665
4553
4363
4182
4131
4208
4257
4176
4050
4046
4165
4215
4040
3710
3430
3302
3257
3194
3080
2901
2628
2334
2262
2623
3302
3897
4148
4240
4566
5231
5882
6091
5813
5377
5094
4975
4839
4588
4300
4103
4026
4000
3950
3860
3750
3647
3542
3410
3255
3142
3141
3230
3307
3299
3239
3197
3162
3055
2840
2594
2389
2176
1868
1525
1371
1554
1939
2216
2243
2192
2330
2688
3016
3046
2750
2326
1979
1766
1640
1550
1474
1396
1298
1195
1127
1109
1091
998
801
537
273
73
-34
-50
-12
21
13
-28
-58
-50
-23
-15
-28
-43
-32
-1
36
89
166
248
307
342
399
533
745
962
1090
1099
1038
988
987
1018
1048
1065
1083
1114
1141
1141
1113
1088
1084
1074
1025
938
848
792
788
853
995
1184
1352
1429
1431
1441
1497
1529
1451
1283
1153
1129
1131
1052
937
941
1105
1262
1224
1020
856
854
903
822
595
386
308
312
310
335
504
827
1145
1275
1177
945
686
433
187
-39
-195
-230
-115
130
439
741
1017
1282
1497
1545
1332
930
550
352
288
186
-36
-282
-388
-296
-99
65
106
20
-153
-359
-552
-735
-942
-1183
-1397
-1509
-1531
-1548
-1607
-1631
-1511
-1270
-1057
-959
-875
-650
-319
-114
-193
-431
-539
-407
-241
-326
-693
-1092
-1286
-1299
-1326
-1472
-1652
-1751
-1795
-1899
-2088
-2255
-2304
-2295
-2369
-2571
-2792
-2905
-2904
-2882
-2904
-2943
-2961
-2991
-3105
-3302
-3482
-3538
-3468
-3369
-3341
-3394
-3461
-3492
-3496
-3500
-3498
-3469
-3414
-3373
-3389
-3429
-3413
-3316
-3220
-3240
-3389
-3560
-3638
-3610
-3544
-3495
-3455
-3396
-3318
-3250
-3198
-3143
-3078
-3038
-3071
-3171
-3262
-3266
-3179
-3085
-3075
-3138
-3163
-3048
-2829
-2667
-2692
-2861
-2989
-2933
-2720
-2492
-2355
-2287
-2179
-1966
-1688
-1448
-1325
-1295
-1262
-1149
-987
-884
-914
-1021
-1083
-1050
-995
-1009
-1077
-1094
-1003
-863
-761
-704
-624
-503
-404
-392
-446
-480
-451
-403
-405
-473
-559
-604
-572
-485
-409
-415
-504
-595
-602
-522
-447
-448
-492
-491
-405
-286
-194
-133
-70
1
62
104
147
208
267
304
317
319
324
353
430
556
688
776
820
874
970
1066
1093
1039
968
935
929
906
865
852
893
967
1042
1112
1182
1229
1220
1159
1091
1054
1022
929
761
604
574
692
850
921
922
1010
1311
1764
2163
2397
2574
2875
3306
3659
3749
3627
3496
3445
3350
3061
2630
2279
2140
2124
2054
1887
1751
1772
1903
1993
1948
1820
1716
1682
1670
1626
1548
1473
1438
1447
1479
1504
1490
1417
1282
1120
969
847
748
673
659
751
935
1126
1240
1275
1316
1433
1574
1597
1436
1200
1068
1094
1138
1046
832
665
674
786
825
703
504
360
322
330
305
234
148
93
92
131
160
145
105
107
179
260
278
242
241
333
466
549
555
557
642
812
996
1121
1165
1160
1177
1271
1400
1442
1324
1131
1046
1152
1318
1345
1212
1102
1177
1374
1481
1389
1199
1056
971
846
657
519
540
662
724
657
571
622
810
960
914
685
427
264
182
96
-25
-126
-159
-133
-107
-126
-170
-198
-194
-178
-197
-288
-430
-547
-571
-512
-458
-492
-607
-723
-780
-792
-802
-825
-843
-856
-883
-934
-977
-983
-970
-992
-1073
-1183
-1275
-1329
-1348
-1348
-1353
-1378
-1426
-1473
-1483
-1458
-1447
-1498
-1622
-1785
-1950
-2096
-2223
-2345
-2487
-2665
-2861
-3003
-3021
-2913
-2741
-2571
-2410
-2200
-1890
-1475
-1008
-583
-278
-130
-123
-211
-342
-479
-609
-752
-951
-1216
-1485
-1646
-1640
-1537
-1479
-1530
-1636
-1700
-1697
-1695
-1747
-1828
-1874
-1858
-1799
-1706
-1585
-1444
-1323
-1250
-1216
-1200
-1210
-1266
-1360
-1439
-1457
-1433
-1419
-1439
-1471
-1481
-1466
-1450
-1457
-1493
-1553
-1637
-1738
-1851
-1960
-2049
-2103
-2128
-2145
-2168
-2194
-2216
-2253
-2335
-2462
-2583
-2650
-2680
-2745
-2880
-3025
-3089
-3053
-3003
-3033
-3130
-3197
-3164
-3060
-2980
-2983
-3033
-3044
-2960
-2809
-2674
-2606
-2575
-2508
-2376
-2228
-2136
-2106
-2084
-2027
-1953
-1911
-1919
-1954
-1994
-2030
-2044
-2018
-1953
-1884
-1837
-1794
-1724
-1638
-1597
-1638
-1731
-1809
-1842
-1868
-1935
-2044
-2152
-2217
-2231
-2211
-2185
-2190
-2246
-2344
-2457
-2560
-2652
-2736
-2813
-2878
-2933
-2990
-3049
-3091
-3102
-3112
-3177
-3321
-3489
-3587
-3573
-3502
-3459
-3457
-3426
-3305
-3109
-2904
-2763
-2717
-2765
-2881
-3013
-3129
-3264
-3459
-3641
-3635
-3353
-2985
-2862
-3098
-3436
-3530
-3347
-3209
-3410
-3863
-4187
-4149
-3863
-3603
-3487
-3413
-3259
-3043
-2915
-2974
-3162
-3354
-3514
-3721
-4008
-4231
-4161
-3755
-3261
-2937
-2695
-2186
-1305
-474
-236
-601
-974
-828
-300
-21
-339
-936
-1243
-1086
-804
-795
-1102
-1461
-1605
-1514
-1397
-1480
-1793
-2083
-2060
-1815
-1794
-2289
-2983
-3234
-2902
-2628
-3026
-3764
-3791
-2604
-1023
-374
-1025
-2031
-2319
-1895
-1702
-2403
-3636
-4531
-4640
-4214
-3691
-3230
-2797
-2445
-2344
-2530
-2800
-2954
-2971
-2967
-3012
-3057
-3043
-2977
-2860
-2676
-2427
-2186
-2134
-2433
-3042
-3702
-4139
-4261
-4197
-4103
-3985
-3711
-3222
-2673
-2338
-2355
-2602
-2867
-3086
-3367
-3800
-4288
-4606
-4617
-4394
-4119
-3904
-3749
-3606
-3493
-3478
-3591
-3807
-4064
-4315
-4542
-4719
-4809
-4811
-4747
-4619
-4396
-4029
-3508
-2906
-2297
-1655
-904
-67
667
1093
1170
1045
884
708
420
5
-365
-445
-137
385
841
1093
1232
1438
1767
2069
2129
1818
1203
525
106
188
736
1413
1847
1980
2120
2592
3319
3842
3790
3272
2737
2526
2609
2758
2823
2840
2916
3110
3390
3666
3822
3797
3646
3488
3389
3314
3265
3363
3697
4111
4313
4187
3975
4028
4404
4774
4785
4461
4196
4349
4871
5340
5359
4915
4337
3961
3837
3769
3594
3349
3183
3161
3220
3299
3443
3729
4115
4449
4615
4650
4693
4836
5063
5290
5468
5609
5756
5919
6041
6055
5943
5760
5570
5345
4981
4439
3861
3478
3385
3433
3396
3210
3042
3083
3325
3549
3549
3313
3017
2831
2759
2674
2447
2053
1581
1172
913
759
578
281
-71
-332
-432
-472
-619
-913
-1235
-1450
-1570
-1739
-2051
-2420
-2664
-2704
-2622
-2556
-2557
-2578
-2579
-2607
-2747
-2995
-3256
-3438
-3533
-3598
-3661
-3709
-3700
-3596
-3383
-3098
-2845
-2735
-2790
-2908
-2946
-2848
-2674
-2522
-2428
-2358
-2273
-2164
-2053
-1973
-1961
-2040
-2208
-2416
-2629
-2842
-3053
-3233
-3350
-3416
-3480
-3543
-3557
-3491
-3372
-3235
-3064
-2844
-2629
-2511
-2487
-2431
-2249
-2031
-1949
-2001
-1949
-1574
-955
-406
-147
-90
14
273
552
658
538
299
60
-138
-289
-352
-272
-68
169
338
415
479
621
843
1051
1134
1074
974
970
1108
1314
1477
1541
1535
1524
1544
1579
1577
1511
1395
1278
1203
1178
1175
1157
1104
1040
1034
1149
1362
1538
1514
1260
930
735
723
733
600
351
186
224
362
402
297
185
151
65
-255
-745
-1082
-1029
-715
-473
-424
-338
11
485
682
416
-6
-76
367
982
1318
1294
1254
1553
2160
2677
2738
2354
1856
1545
1420
1268
970
648
504
554
593
450
195
58
134
266
217
-60
-362
-451
-282
-31
69
-89
-414
-719
-886
-948
-1013
-1114
-1199
-1245
-1333
-1563
-1917
-2256
-2458
-2508
-2445
-2276
-2009
-1707
-1449
-1224
-935
-570
-274
-219
-385
-577
-645
-640
-699
-836
-922
-862
-706
-565
-467
-359
-227
-164
-256
-467
-677
-808
-893
-1011
-1175
-1329
-1421
-1456
-1475
-1475
-1405
-1228
-990
-794
-717
-752
-819
-844
-805
-758
-792
-945
-1140
-1226
-1147
-1059
-1199
-1601
-1981
-1974
-1500
-852
-388
-169
60
536
1197
1756
1992
1931
1757
1617
1544
1511
1499
1504
1527
1574
1658
1780
1905
1995
2051
2102
2149
2147
2071
1980
1970
2057
2139
2089
1894
1665
1520
1487
1527
1616
1757
1938
2095
2158
2118
2021
1916
1812
1687
1541
1401
1301
1271
1315
1398
1455
1426
1307
1135
964
828
729
640
532
406
307
289
355
437
448
352
196
65
11
18
6
-111
-356
-654
-880
-953
-895
-773
-613
-379
-37
387
843
1317
1800
2225
2467
2454
2264
2050
1896
1736
1460
1061
658
378
243
187
146
118
122
168
241
322
388
424
423
399
384
379
333
192
-27
-226
-321
-329
-339
-399
-465
-467
-416
-398
-461
-544
-541
-446
-361
-372
-455
-509
-476
-404
-363
-350
-315
-253
-229
-287
-398
-497
-571
-658
-784
-906
-962
-938
-865
-778
-697
-655
-680
-760
-847
-908
-957
-1020
-1062
-1017
-878
-720
-617
-551
-449
-288
-131
-55
-79
-166
-263
-321
-319
-297
-331
-445
-547
-490
-248
43
238
355
526
803
1075
1203
1196
1185
1250
1338
1370
1353
1366
1439
1526
1573
1577
1550
1476
1323
1124
979
956
1025
1091
1081
1019
983
1014
1072
1071
975
823
692
628
628
675
763
863
916
870
742
610
518
444
351
262
249
348
515
681
823
952
1058
1094
1036
929
835
767
695
605
539
565
702
900
1073
1154
1138
1083
1046
1034
997
904
798
755
782
801
765
730
782
895
926
768
499
306
269
279
191
7
-129
-116
-16
30
-19
-53
47
263
467
587
705
956
1353
1728
1890
1807
1632
1529
1485
1352
1047
677
431
383
432
436
387
399
528
670
653
423
101
-139
-243
-307
-436
-617
-734
-700
-552
-407
-343
-322
-253
-110
39
112
122
150
234
303
253
85
-78
-113
-45
-18
-120
-285
-374
-345
-299
-358
-519
-660
-689
-653
-669
-778
-889
-878
-742
-597
-547
-566
-547
-436
-300
-242
-266
-283
-210
-70
41
75
81
129
237
375
513
651
789
908
1018
1168
1398
1658
1830
1873
1886
2029
2335
2654
2832
2883
2972
3192
3442
3552
3501
3452
3562
3791
3958
3956
3882
3896
4031
4169
4194
4145
4148
4257
4404
4503
4556
4637
4767
4887
4938
4930
4914
4897
4841
4752
4697
4720
4783
4808
4796
4836
4968
5100
5113
5001
4899
4929
5056
5131
5080
4981
4979
5113
5281
5349
5272
5131
5044
5057
5116
5119
5040
4953
4960
5073
5179
5167
5065
5003
5054
5123
5020
4693
4340
4235
4432
4688
4702
4445
4195
4231
4514
4732
4649
4357
4133
4098
4119
4003
3746
3485
3312
3193
3066
2948
2912
3001
3172
3329
3428
3522
3724
4097
4550
4884
4982
4917
4828
4718
4452
3998
3550
3335
3306
3177
2798
2375
2226
2381
2540
2419
2059
1718
1544
1449
1296
1086
931
891
910
924
925
964
1054
1129
1089
859
484
117
-97
-118
-54
-84
-287
-563
-701
-600
-400
-344
-518
-738
-754
-543
-361
-454
-790
-1115
-1234
-1196
-1187
-1310
-1512
-1686
-1786
-1797
-1724
-1616
-1585
-1697
-1871
-1962
-1922
-1883
-1985
-2170
-2217
-1991
-1641
-1435
-1456
-1545
-1506
-1356
-1286
-1405
-1598
-1647
-1482
-1242
-1102
-1066
-989
-771
-480
-269
-208
-219
-168
-16
154
249
252
234
275
371
440
421
348
301
311
322
269
166
92
91
103
54
-48
-130
-160
-186
-232
-227
-97
82
117
-59
-243
-176
139
405
365
106
-45
81
331
439
333
176
135
222
327
365
345
314
308
328
348
336
275
184
110
76
79
111
179
274
348
377
393
445
547
629
607
465
294
206
237
305
288
157
28
53
243
435
450
305
166
148
179
84
-177
-466
-635
-692
-765
-926
-1079
-1071
-850
-536
-288
-134
61
440
947
1348
1464
1356
1246
1246
1232
1016
598
183
-58
-160
-259
-405
-513
-526
-506
-537
-628
-706
-732
-757
-850
-1018
-1193
-1280
-1210
-998
-764
-683
-829
-1092
-1272
-1295
-1288
-1437
-1778
-2147
-2351
-2334
-2185
-2036
-1962
-1974
-2033
-2079
-2081
-2055
-2056
-2109
-2162
-2157
-2100
-2050
-2057
-2112
-2169
-2212
-2273
-2413
-2644
-2898
-3057
-3048
-2918
-2791
-2744
-2724
-2599
-2292
-1882
-1546
-1421
-1504
-1695
-1884
-2050
-2256
-2540
-2832
-2980
-2914
-2713
-2515
-2350
-2120
-1768
-1423
-1312
-1520
-1880
-2141
-2197
-2174
-2267
-2507
-2689
-2594
-2243
-1889
-1765
-1826
-1831
-1688
-1575
-1666
-1816
-1720
-1381
-1206
-1444
-1731
-1457
-564
230
205
-518
-1032
-1152
-905
-1093
-1832
-2519
-2541
-1928
-1208
-808
-735
-755
-751
-812
-1089
-1650
-2419
-3158
-3578
-3583
-3290
-2897
-2526
-2194
-1915
-1719
-1572
-1390
-1240
-1375
-1878
-2276
-1853
-508
911
1376
815
197
369
1019
1044
-104
-1695
-2531
-2221
-1440
-1036
-1152
-1320
-1204
-962
-904
-1053
-1200
-1314
-1634
-2244
-2778
-2653
-1712
-539
-3
-415
-1257
-1782
-1779
-1688
-2033
-2852
-3719
-4187
-4134
-3712
-3171
-2771
-2729
-3035
-3364
-3342
-2957
-2640
-2829
-3458
-3940
-3741
-2852
-1696
-651
213
1009
1781
2470
3069
3620
4051
4159
3866
3423
3255
3509
3895
4029
3880
3761
3915
4228
4390
4256
3966
3710
3511
3251
2899
2602
2546
2801
3274
3807
4287
4632
4826
4972
5225
5609
5918
5921
5647
5407
5437
5554
5333
4643
3861
3454
3419
3288
2734
1997
1585
1657
1907
2016
2038
2232
2633
2991
3105
3065
3084
3198
3260
3215
3190
3324
3571
3760
3853
3945
4096
4210
4152
3952
3781
3767
3861
3929
3918
3861
3746
3494
3119
2814
2795
3061
3379
3540
3543
3518
3520
3501
3442
3418
3473
3504
3369
3111
2995
3244
3773
4252
4415
4315
4215
4302
4521
4667
4622
4463
4354
4361
4397
4365
4314
4384
4596
4749
4632
4301
4052
4030
3957
3415
2403
1492
1268
1655
1970
1702
1144
1057
1780
2805
3324
3060
2444
2016
1857
1667
1271
849
651
666
677
572
477
569
822
1031
1045
889
698
582
578
661
755
741
573
382
351
450
401
8
-537
-803
-637
-386
-480
-896
-1224
-1246
-1235
-1538
-1981
-1979
-1296
-443
-123
-366
-463
165
1217
1801
1395
359
-516
-825
-806
-889
-1198
-1524
-1673
-1672
-1651
-1653
-1640
-1639
-1786
-2141
-2560
-2794
-2751
-2575
-2440
-2330
-2118
-1826
-1655
-1763
-2051
-2284
-2351
-2331
-2303
-2221
-2067
-2006
-2203
-2514
-2559
-2193
-1759
-1723
-2060
-2202
-1735
-987
-714
-1217
-1965
-2206
-1827
-1454
-1664
-2292
-2626
-2215
-1353
-740
-753
-1129
-1347
-1208
-993
-1108
-1626
-2241
-2607
-2666
-2618
-2640
-2701
-2644
-2390
-2057
-1853
-1860
-1913
-1774
-1392
-1075
-1327
-2321
-3551
-4136
-3600
-2369
-1394
-1211
-1434
-1245
-302
901
1558
1325
539
-217
-629
-766
-821
-874
-897
-879
-873
-916
-937
-842
-696
-757
-1207
-1842
-2139
-1786
-1072
-622
-679
-854
-672
-229
-98
-571
-1253
-1585
-1561
-1649
-2031
-2241
-1755
-783
-122
-199
-556
-425
316
1002
984
325
-380
-682
-637
-518
-447
-376
-311
-339
-453
-511
-400
-201
-70
-58
-78
-45
42
152
274
394
440
350
156
-17
-51
56
198
246
181
122
191
341
299
-197
-1033
-1697
-1730
-1235
-792
-832
-1137
-1103
-476
322
664
398
-40
-197
-93
-84
-334
-581
-471
0
469
618
500
429
574
771
719
313
-255
-711
-943
-1017
-1036
-1037
-1030
-1061
-1159
-1257
-1238
-1057
-803
-641
-649
-757
-817
-742
-571
-421
-370
-393
-404
-364
-313
-311
-348
-374
-377
-384
-398
-391
-368
-400
-522
-633
-604
-518
-671
-1242
-1966
-2297
-1976
-1349
-1011
-1162
-1398
-1180
-438
345
633
326
-224
-602
-675
-608
-621
-765
-923
-974
-915
-847
-827
-813
-755
-704
-785
-1016
-1221
-1193
-912
-558
-316
-189
-56
144
331
401
366
335
385
479
530
508
466
473
542
627
681
694
688
673
641
560
412
229
77
12
26
51
30
-20
-18
99
288
432
443
364
324
393
499
510
397
259
205
208
163
26
-105
-111
-3
80
41
-59
-76
27
151
192
174
199
319
458
521
535
635
884
1175
1312
1224
1048
994
1145
1393
1581
1651
1669
1712
1784
1833
1815
1724
1570
1371
1164
1002
930
962
1074
1221
1360
1466
1529
1565
1589
1602
1585
1520
1392
1204
1001
855
809
850
918
972
1027
1113
1228
1362
1564
1904
2352
2748
2945
2959
2943
2995
3039
2917
2596
2202
1872
1645
1500
1413
1344
1194
894
543
377
519
794
874
601
169
-83
-3
253
410
335
108
-81
-103
28
180
205
46
-222
-446
-519
-449
-319
-197
-103
-27
46
132
250
415
591
685
628
429
172
-54
-215
-348
-501
-656
-754
-758
-696
-625
-572
-528
-494
-521
-648
-846
-1044
-1208
-1366
-1540
-1664
-1621
-1367
-987
-619
-336
-130
15
72
15
-123
-258
-337
-373
-392
-377
-276
-76
151
297
329
309
315
358
389
364
321
340
456
601
680
665
597
540
528
565
632
688
697
691
761
942
1109
1064
755
400
283
455
679
700
530
401
477
678
809
787
691
627
619
635
668
731
808
846
823
777
766
792
795
729
604
468
373
352
407
513
617
667
647
613
662
839
1074
1225
1225
1172
1230
1440
1662
1720
1580
1363
1188
1059
923
783
689
644
565
406
263
292
530
827
972
888
674
466
307
146
-67
-305
-508
-638
-684
-614
-396
-54
311
611
883
1269
1828
2405
2744
2767
2679
2738
2939
2997
2692
2160
1769
1726
1870
1904
1756
1640
1769
2101
2392
2476
2403
2319
2286
2241
2116
1946
1827
1814
1885
1986
2096
2237
2406
2531
2538
2437
2329
2301
2314
2277
2159
2055
2057
2116
2127
2082
2094
2206
2286
2178
1936
1782
1816
1870
1728
1433
1256
1345
1529
1546
1392
1309
1456
1701
1808
1720
1602
1604
1694
1734
1671
1563
1478
1418
1367
1341
1357
1422
1524
1634
1714
1747
1767
1839
1980
2113
2167
2177
2252
2423
2591
2662
2674
2717
2792
2802
2711
2627
2673
2833
2976
3028
3060
3176
3385
3602
3753
3807
3758
3631
3492
3397
3332
3211
2989
2745
2616
2663
2793
2868
2830
2717
2598
2509
2454
2410
2324
2167
1975
1845
1841
1921
1984
1982
1964
2003
2092
2164
2181
2179
2212
2266
2269
2197
2118
2131
2234
2334
2360
2346
2373
2474
2610
2724
2807
2868
2896
2872
2819
2795
2832
2887
2883
2816
2764
2791
2862
2872
2761
2576
2402
2248
2077
1892
1754
1702
1681
1607
1488
1408
1393
1380
1292
1150
1054
1059
1124
1197
1281
1431
1669
1958
2245
2507
2750
2963
3108
3134
3013
2767
2470
2192
1944
1670
1344
1035
878
917
1044
1085
974
818
755
797
827
732
549
424
456
587
678
671
651
728
877
959
877
702
599
651
780
845
789
675
611
641
706
697
561
351
178
106
97
73
4
-67
-108
-141
-211
-307
-380
-420
-484
-614
-762
-845
-853
-874
-972
-1104
-1160
-1104
-1015
-982
-1011
-1057
-1087
-1097
-1086
-1058
-1056
-1140
-1294
-1385
-1284
-1011
-745
-630
-620
-553
-360
-147
-67
-129
-189
-128
19
106
57
-44
-27
188
499
700
671
494
375
435
598
685
613
466
395
459
581
664
674
641
609
598
610
633
630
573
475
387
338
304
229
104
-4
-30
10
35
-26
-156
-269
-311
-307
-319
-368
-404
-382
-328
-306
-335
-351
-300
-224
-232
-368
-546
-638
-626
-611
-693
-843
-948
-945
-903
-935
-1072
-1229
-1308
-1311
-1333
-1442
-1588
-1663
-1619
-1535
-1508
-1551
-1596
-1598
-1603
-1683
-1833
-1983
-2093
-2214
-2421
-2716
-3011
-3207
-3282
-3294
-3307
-3327
-3285
-3117
-2849
-2609
-2496
-2454
-2312
-1993
-1639
-1471
-1520
-1570
-1403
-1087
-922
-1142
-1661
-2181
-2488
-2633
-2818
-3170
-3610
-3941
-4049
-3986
-3901
-3901
-3972
-4044
-4089
-4140
-4217
-4290
-4326
-4355
-4404
-4406
-4255
-4002
-3879
-4018
-4244
-4276
-4122
-4115
-4465
-4886
-4893
-4440
-4032
-4055
-4226
-3959
-3256
-2905
-3590
-4999
-6087
-6261
-6030
-6321
-7283
-8038
-7690
-6362
-5044
-4512
-4630
-4792
-4787
-4933
-5443
-6057
-6465
-6807
-7348
-7690
-6858
-4526
-1888
-783
-1786
-3541
-4290
-3857
-3699
-5050
-7476
-9410
-9835
-9055
-7975
-7104
-6400
-5763
-5250
-4897
-4620
-4415
-4439
-4768
-5205
-5496
-5611
-5690
-5672
-5264
-4391
-3522
-3288
-3742
-4234
-4130
-3545
-3177
-3438
-3969
-4139
-3845
-3569
-3678
-3917
-3749
-3087
-2449
-2365
-2769
-3144
-3175
-3105
-3429
-4277
-5216
-5634
-5334
-4732
-4461
-4730
-5084
-4895
-4112
-3426
-3611
-4678
-5784
-6056
-5396
-4429
-3732
-3233
-2421
-1010
731
2257
3224
3680
3840
3832
3656
3341
3021
2864
2905
3038
3162
3289
3496
3791
4084
4280
4353
4318
4194
4031
3946
4056
4355
4692
4916
5016
5098
5256
5479
5687
5770
5625
5184
4485
3723
3139
2840
2750
2740
2813
3099
3657
4382
5093
5656
6010
6089
5865
5473
5221
5350
5748
6015
5882
5551
5505
5965
6592
6813
6431
5837
5578
5800
6183
6376
6363
6383
6561
6742
6696
6407
6069
5838
5695
5522
5308
5144
5081
5057
4987
4882
4825
4848
4911
4974
5049
5133
5169
5133
5125
5264
5489
5591
5454
5246
5250
5527
5842
5962
5943
6024
6291
6581
6725
6800
6999
7318
7509
7376
7032
6750
6617
6438
6015
5425
4935
4684
4545
4343
4134
4140
4442
4821
4967
4791
4487
4261
4106
3874
3528
3215
3069
3039
2975
2839
2753
2813
2942
2981
2875
2718
2598
2505
2388
2252
2153
2078
1944
1713
1475
1355
1356
1368
1303
1213
1197
1240
1207
1020
785
711
898
1224
1468
1532
1534
1668
1987
2345
2552
2546
2434
2339
2274
2155
1961
1804
1820
1993
2136
2085
1885
1749
1817
1991
2033
1827
1499
1271
1250
1357
1445
1435
1368
1340
1429
1638
1884
2060
2121
2081
1952
1715
1396
1160
1191
1483
1801
1951
2031
2323
2915
3512
3744
3594
3417
3504
3728
3754
3485
3192
3155
3288
3233
2809
2273
2033
2184
2419
2411
2196
2115
2399
2903
3300
3449
3493
3623
3822
3904
3792
3616
3544
3557
3478
3191
2773
2402
2154
1966
1764
1584
1529
1648
1874
2068
2138
2103
2026
1942
1845
1695
1473
1203
942
752
667
680
740
755
649
426
202
139
289
517
608
470
222
75
110
219
239
128
-33
-143
-143
-28
173
372
440
325
120
-30
-82
-123
-224
-333
-340
-215
-56
35
58
89
157
182
53
-260
-650
-920
-920
-661
-304
-26
138
307
593
953
1211
1219
992
702
546
613
841
1075
1194
1215
1267
1446
1722
1957
2053
2035
1987
1971
1982
2003
2039
2099
2169
2233
2303
2379
2449
2507
2564
2642
2728
2771
2743
2673
2615
2582
2514
2345
2103
1896
1811
1818
1804
1692
1532
1427
1402
1366
1216
957
701
528
397
207
-51
-265
-325
-260
-200
-232
-297
-257
-41
273
534
660
709
812
1042
1347
1599
1733
1804
1920
2106
2270
2319
2272
2237
2288
2383
2422
2370
2295
2289
2380
2507
2605
2649
2669
2720
2830
2957
3002
2895
2675
2456
2286
2061
1650
1100
674
615
911
1323
1650
1917
2284
2818
3402
3848
4041
3987
3760
3438
3082
2729
2366
1961
1521
1112
787
532
293
36
-199
-369
-492
-635
-834
-1027
-1117
-1082
-1018
-1053
-1217
-1420
-1539
-1546
-1518
-1549
-1667
-1821
-1941
-2008
-2063
-2141
-2228
-2276
-2257
-2200
-2155
-2130
-2089
-2023
-1975
-2000
-2096
-2191
-2237
-2240
-2230
-2231
-2252
-2311
-2401
-2468
-2460
-2417
-2437
-2548
-2655
-2660
-2601
-2621
-2767
-2911
-2918
-2822
-2774
-2827
-2857
-2746
-2565
-2479
-2548
-2669
-2732
-2744
-2761
-2793
-2806
-2805
-2835
-2867
-2791
-2555
-2284
-2173
-2255
-2360
-2300
-2109
-1987
-2060
-2217
-2250
-2091
-1860
-1698
-1646
-1654
-1676
-1685
-1654
-1563
-1449
-1382
-1399
-1432
-1378
-1251
-1169
-1218
-1370
-1516
-1588
-1600
-1575
-1528
-1485
-1492
-1567
-1661
-1717
-1771
-1935
-2237
-2534
-2634
-2507
-2324
-2255
-2281
-2266
-2169
-2114
-2209
-2387
-2501
-2535
-2628
-2863
-3105
-3164
-3026
-2869
-2816
-2773
-2604
-2359
-2206
-2197
-2196
-2084
-1938
-1929
-2079
-2239
-2275
-2231
-2246
-2374
-2550
-2688
-2756
-2769
-2764
-2799
-2913
-3069
-3170
-3160
-3100
-3084
-3139
-3211
-3252
-3292
-3397
-3605
-3902
-4234
-4495
-4562
-4395
-4119
-3900
-3773
-3602
-3263
-2813
-2433
-2212
-2062
-1875
-1690
-1637
-1765
-1975
-2132
-2209
-2284
-2407
-2539
-2609
-2597
-2541
-2493
-2474
-2489
-2538
-2621
-2758
-2983
-3293
-3602
-3780
-3770
-3654
-3581
-3596
-3593
-3432
-3143
-2922
-2953
-3214
-3486
-3557
-3401
-3176
-3045
-3028
-3015
-2910
-2726
-2557
-2460
-2407
-2347
-2293
-2299
-2369
-2411
-2329
-2149
-1991
-1930
-1917
-1862
-1764
-1708
-1736
-1787
-1772
-1688
-1590
-1483
-1324
-1131
-1029
-1119
-1341
-1533
-1620
-1691
-1861
-2085
-2207
-2158
-2042
-1988
-1993
-1945
-1804
-1674
-1671
-1791
-1917
-1943
-1872
-1769
-1675
-1582
-1454
-1259
-1011
-775
-630
-586
-579
-541
-478
-464
-538
-673
-824
-973
-1108
-1197
-1214
-1220
-1304
-1446
-1480
-1273
-911
-660
-681
-851
-906
-729
-445
-250
-194
-171
-75
94
263
380
446
490
518
520
499
497
558
688
829
919
975
1058
1200
1341
1394
1366
1367
1478
1651
1780
1830
1865
1937
2001
1994
1946
1959
2089
2273
2414
2523
2681
2918
3170
3362
3480
3525
3456
3255
3023
2920
2978
3038
2936
2723
2618
2724
2887
2883
2701
2541
2538
2593
2532
2363
2281
2407
2620
2717
2670
2660
2866
3266
3674
3933
4033
4078
4148
4225
4214
4042
3737
3420
3184
3006
2789
2495
2216
2061
2003
1906
1708
1517
1477
1574
1635
1557
1454
1503
1677
1730
1488
1081
812
833
1011
1097
1014
908
963
1215
1535
1752
1784
1665
1502
1378
1307
1251
1192
1169
1217
1294
1301
1184
1009
887
841
780
634
456
366
399
449
388
220
79
57
78
-30
-323
-653
-795
-667
-410
-243
-261
-370
-401
-270
-48
107
99
-18
-94
-43
61
76
-11
-42
139
483
785
914
964
1109
1376
1634
1790
1891
2018
2123
2092
1940
1847
1952
2151
2205
2036
1831
1827
2032
2227
2240
2129
2079
2165
2269
2249
2128
2054
2096
2137
2032
1800
1614
1589
1640
1623
1544
1558
1727
1887
1829
1567
1348
1358
1487
1471
1233
959
868
975
1126
1213
1268
1362
1486
1578
1621
1653
1683
1652
1494
1222
933
732
679
753
852
856
739
619
643
821
979
962
822
763
889
1052
1031
823
670
773
1048
1216
1137
953
902
1037
1191
1175
970
711
530
460
487
607
815
1062
1286
1501
1804
2273
2837
3313
3544
3529
3398
3268
3134
2911
2549
2118
1760
1546
1424
1278
1051
808
671
692
788
810
683
480
343
339
398
400
309
210
200
276
346
349
313
297
293
235
90
-81
-175
-170
-148
-209
-362
-530
-648
-716
-777
-864
-975
-1095
-1203
-1282
-1329
-1380
-1482
-1642
-1818
-1954
-2054
-2165
-2320
-2484
-2602
-2653
-2685
-2740
-2812
-2843
-2791
-2689
-2620
-2640
-2711
-2725
-2624
-2463
-2368
-2390
-2454
-2434
-2304
-2160
-2116
-2176
-2248
-2260
-2223
-2201
-2214
-2229
-2201
-2131
-2052
-1968
-1853
-1689
-1505
-1360
-1277
-1227
-1166
-1096
-1070
-1114
-1197
-1261
-1278
-1263
-1227
-1154
-1042
-928
-856
-814
-756
-668
-605
-622
-719
-855
-993
-1102
-1104
-928
-612
-338
-269
-375
-458
-378
-236
-261
-539
-898
-1083
-1005
-790
-607
-494
-377
-202
-11
140
257
370
455
461
412
420
527
618
579
503
622
970
1243
1150
848
834
1335
1963
2136
1783
1409
1460
1788
1895
1591
1193
1067
1198
1292
1204
1083
1099
1200
1200
1034
818
681
625
566
457
318
178
26
-146
-274
-234
73
585
1097
1428
1607
1832
2228
2644
2750
2392
1738
1107
648
254
-233
-783
-1208
-1385
-1377
-1323
-1258
-1126
-935
-801
-819
-920
-937
-838
-772
-870
-1037
-1061
-866
-615
-509
-545
-556
-449
-308
-264
-313
-365
-386
-449
-632
-885
-1083
-1157
-1165
-1260
-1544
-1933
-2257
-2413
-2459
-2517
-2623
-2725
-2807
-2948
-3182
-3381
-3392
-3319
-3490
-4082
-4868
-5427
-5621
-5696
-5873
-5987
-5686
-4904
-3966
-3188
-2500
-1586
-353
875
1646
1812
1607
1380
1309
1331
1280
1075
786
615
724
1088
1524
1864
2067
2174
2236
2266
2298
2389
2516
2572
2508
2451
2586
2908
3155
3067
2690
2291
1981
1534
682
-449
-1346
-1581
-1225
-719
-378
-122
306
950
1564
1870
1821
1580
1327
1134
1010
965
1026
1219
1548
1955
2340
2621
2782
2888
2949
2850
2498
2013
1691
1701
1886
1972
1890
1837
1994
2307
2594
2787
2961
3183
3454
3788
4215
4602
4628
4084
3214
2566
2422
2479
2215
1534
896
803
1256
1823
2154
2281
2443
2733
3018
3166
3207
3239
3279
3257
3137
3012
2986
3058
3133
3155
3173
3255
3374
3437
3431
3475
3690
4021
4267
4271
4068
3816
3621
3465
3298
3099
2864
2569
2204
1847
1610
1511
1433
1246
984
829
894
1074
1153
1058
928
918
990
966
798
671
773
1025
1133
932
594
432
519
611
471
162
-42
3
158
213
159
165
345
602
752
733
634
567
543
486
347
147
-55
-203
-286
-335
-409
-529
-653
-712
-700
-699
-798
-997
-1211
-1370
-1491
-1631
-1792
-1902
-1908
-1845
-1800
-1793
-1739
-1577
-1356
-1213
-1217
-1267
-1204
-987
-752
-655
-706
-785
-816
-876
-1084
-1407
-1623
-1526
-1137
-675
-327
-62
284
783
1302
1614
1611
1379
1090
859
705
590
468
315
137
-18
-112
-162
-236
-401
-637
-837
-930
-956
-1017
-1139
-1223
-1162
-1012
-969
-1154
-1444
-1578
-1432
-1165
-1023
-1071
-1149
-1093
-934
-840
-892
-1015
-1105
-1147
-1163
-1119
-982
-820
-755
-814
-859
-756
-549
-427
-527
-823
-1237
-1741
-2278
-2651
-2649
-2307
-1931
-1772
-1729
-1475
-889
-257
2
-220
-649
-981
-1203
-1499
-1926
-2292
-2399
-2311
-2286
-2468
-2724
-2829
-2754
-2685
-2793
-3043
-3228
-3203
-2988
-2690
-2391
-2124
-1905
-1734
-1568
-1346
-1062
-775
-543
-378
-277
-251
-328
-510
-767
-1064
-1377
-1661
-1855
-1940
-1978
-2047
-2153
-2219
-2184
-2075
-1970
-1923
-1932
-1973
-2020
-2041
-1986
-1845
-1679
-1575
-1573
-1624
-1652
-1630
-1602
-1619
-1683
-1751
-1794
-1831
-1900
-2002
-2099
-2156
-2194
-2257
-2347
-2401
-2370
-2292
-2258
-2304
-2367
-2384
-2404
-2530
-2746
-2860
-2699
-2342
-2077
-2084
-2207
-2116
-1696
-1191
-943
-1036
-1236
-1273
-1099
-877
-769
-798
-877
-910
-835
-652
-423
-235
-122
-26
150
431
747
1008
1172
1242
1236
1172
1087
1003
886
684
403
138
-16
-66
-120
-281
-553
-852
-1094
-1256
-1366
-1461
-1553
-1632
-1695
-1744
-1786
-1808
-1782
-1704
-1624
-1618
-1708
-1835
-1906
-1893
-1847
-1831
-1848
-1860
-1841
-1804
-1762
-1716
-1703
-1782
-1960
-2132
-2169
-2060
-1944
-1939
-1999
-1960
-1754
-1508
-1385
-1402
-1437
-1401
-1336
-1333
-1389
-1420
-1381
-1324
-1317
-1347
-1347
-1303
-1274
-1313
-1393
-1447
-1455
-1457
-1490
-1534
-1530
-1457
-1361
-1300
-1290
-1290
-1250
-1163
-1071
-1019
-1015
-1038
-1081
-1152
-1259
-1384
-1489
-1562
-1620
-1693
-1778
-1824
-1773
-1604
-1362
-1138
-988
-876
-703
-417
-77
183
292
309
336
393
395
254
-14
-313
-573
-813
-1061
-1282
-1399
-1394
-1349
-1344
-1353
-1286
-1123
-968
-936
-1024
-1111
-1135
-1169
-1307
-1522
-1668
-1655
-1560
-1509
-1519
-1501
-1417
-1344
-1362
-1419
-1412
-1364
-1435
-1709
-2054
-2258
-2272
-2254
-2355
-2530
-2631
-2602
-2544
-2577
-2672
-2714
-2669
-2638
-2738
-2942
-3087
-3049
-2884
-2766
-2787
-2848
-2760
-2480
-2190
-2119
-2302
-2530
-2572
-2418
-2261
-2264
-2373
-2396
-2228
-1949
-1716
-1596
-1546
-1511
-1479
-1452
-1403
-1308
-1208
-1165
-1165
-1110
-923
-660
-457
-391
-391
-333
-189
-49
3
-12
-11
52
156
254
321
345
307
216
130
110
152
171
95
-48
-142
-108
4
61
-5
-123
-168
-124
-125
-302
-616
-870
-913
-801
-730
-820
-994
-1074
-982
-824
-765
-869
-1054
-1180
-1172
-1073
-977
-920
-852
-706
-488
-285
-175
-160
-169
-155
-145
-201
-339
-498
-593
-597
-546
-487
-430
-359
-269
-188
-146
-127
-100
-79
-128
-305
-562
-753
-763
-616
-454
-398
-457
-550
-592
-580
-596
-727
-986
-1289
-1516
-1601
-1579
-1523
-1445
-1282
-983
-583
-184
150
455
785
1113
1331
1355
1237
1120
1095
1103
1008
768
495
349
382
502
610
696
805
936
1020
1010
936
869
843
842
836
799
721
629
611
757
1012
1166
1047
742
549
663
968
1157
1073
840
701
743
862
940
961
982
1029
1065
1064
1059
1112
1239
1384
1460
1417
1301
1205
1186
1200
1146
986
810
758
873
1075
1255
1391
1549
1772
2020
2212
2328
2416
2502
2549
2512
2433
2427
2558
2765
2912
2952
2999
3182
3474
3706
3762
3708
3715
3857
4037
4129
4121
4122
4209
4335
4392
4345
4272
4269
4353
4457
4515
4525
4518
4517
4520
4527
4545
4576
4604
4610
4621
4689
4822
4976
5079
5097
5044
4957
4875
4830
4817
4779
4655
4469
4340
4379
4555
4716
4734
4622
4495
4443
4463
4489
4470
4395
4295
4226
4245
4350
4469
4519
4507
4505
4540
4552
4478
4361
4329
4446
4625
4732
4740
4750
4849
4989
5034
4910
4672
4434
4238
4038
3804
3602
3532
3615
3739
3763
3671
3604
3700
3906
4009
3837
3448
3069
2853
2746
2592
2327
2041
1858
1807
1836
1903
2015
2187
2420
2722
3089
3466
3748
3890
3964
4071
4182
4134
3816
3338
2944
2752
2651
2449
2126
1858
1802
1907
1976
1902
1757
1682
1699
1682
1521
1267
1082
1050
1102
1108
1039
975
976
1008
996
943
906
900
869
773
668
655
743
814
781
696
690
782
853
794
643
525
485
440
321
183
123
139
125
19
-92
-99
-11
37
-20
-93
-57
71
156
124
63
107
253
366
352
282
310
470
622
613
479
402
516
759
955
1021
1044
1161
1388
1614
1752
1838
1961
2130
2259
2287
2278
2347
2521
2697
2772
2761
2760
2818
2880
2856
2748
2648
2624
2638
2614
2549
2513
2549
2602
2590
2511
2439
2425
2428
2384
2291
2214
2183
2161
2100
2015
1959
1944
1933
1901
1873
1878
1875
1805
1680
1589
1594
1650
1663
1612
1576
1623
1723
1793
1799
1780
1765
1718
1604
1471
1411
1444
1483
1433
1322
1271
1346
1476
1532
1469
1359
1292
1279
1273
1239
1195
1162
1143
1115
1062
986
916
889
897
884
776
577
364
191
16
-236
-545
-788
-865
-810
-710
-586
-390
-138
67
188
340
643
994
1124
907
540
319
286
214
-60
-398
-549
-476
-389
-445
-528
-462
-318
-361
-688
-1054
-1163
-1071
-1134
-1506
-1849
-1690
-1039
-459
-481
-997
-1422
-1372
-1092
-1135
-1731
-2567
-3161
-3323
-3231
-3170
-3268
-3481
-3703
-3866
-3962
-4003
-3998
-3952
-3879
-3831
-3824
-3822
-3759
-3629
-3515
-3493
-3531
-3550
-3547
-3599
-3711
-3753
-3588
-3237
-2877
-2617
-2400
-2145
-1910
-1842
-1975
-2160
-2256
-2304
-2487
-2896
-3406
-3801
-4006
-4144
-4371
-4684
-4935
-5009
-4950
-4881
-4841
-4755
-4564
-4329
-4207
-4246
-4291
-4184
-3949
-3750
-3676
-3618
-3396
-3005
-2644
-2464
-2416
-2330
-2141
-1964
-1943
-2091
-2300
-2462
-2555
-2618
-2724
-2915
-3175
-3413
-3530
-3501
-3385
-3231
-3004
-2659
-2253
-1901
-1672
-1517
-1358
-1198
-1104
-1124
-1192
-1233
-1269
-1355
-1465
-1491
-1381
-1239
-1251
-1472
-1698
-1628
-1211
-805
-850
-1336
-1711
-1471
-798
-416
-699
-1092
-647
774
2132
2259
1204
253
501
1606
2180
1428
95
-380
551
2006
2704
2310
1576
1326
1579
1752
1464
926
570
564
802
1193
1754
2423
2957
3132
2960
2630
2215
1565
556
-636
-1565
-1899
-1681
-1207
-710
-171
557
1489
2433
3143
3481
3479
3282
3038
2827
2628
2371
2088
1997
2346
3080
3766
3964
3680
3363
3381
3579
3483
2891
2161
1824
2017
2418
2686
2818
3025
3374
3704
3867
3908
3946
3988
3955
3825
3678
3576
3509
3503
3648
3939
4171
4133
3888
3752
3918
4171
4139
3767
3399
3355
3550
3645
3498
3324
3383
3662
3926
4013
3964
3877
3771
3648
3564
3560
3557
3425
3193
3056
3179
3471
3678
3655
3485
3348
3302
3248
3073
2776
2457
2225
2160
2264
2439
2494
2292
1902
1555
1400
1355
1217
905
550
346
365
536
739
892
969
1004
1055
1127
1120
919
562
287
306
573
842
956
1019
1238
1643
2041
2236
2218
2124
2067
2053
2033
1986
1955
1976
2032
2053
1995
1922
1963
2169
2402
2430
2208
1957
1931
2112
2239
2143
1970
1986
2224
2439
2413
2221
2116
2208
2352
2342
2150
1921
1799
1793
1824
1818
1772
1720
1676
1612
1466
1205
892
656
574
590
596
583
678
971
1367
1631
1619
1416
1215
1088
937
650
253
-120
-381
-546
-660
-712
-661
-522
-360
-210
-30
261
677
1133
1501
1703
1775
1829
1954
2121
2216
2151
1958
1751
1613
1534
1447
1315
1157
1002
869
776
726
688
618
526
477
511
551
449
160
-188
-425
-531
-645
-892
-1231
-1511
-1629
-1632
-1649
-1751
-1913
-2074
-2210
-2360
-2570
-2839
-3097
-3254
-3304
-3340
-3459
-3635
-3738
-3686
-3566
-3563
-3762
-4042
-4207
-4184
-4077
-4022
-4049
-4074
-4022
-3920
-3858
-3893
-3993
-4069
-4070
-4018
-3976
-3987
-4012
-3978
-3875
-3777
-3775
-3877
-3991
-4023
-3948
-3823
-3694
-3538
-3315
-3031
-2779
-2649
-2643
-2677
-2670
-2624
-2591
-2561
-2433
-2131
-1744
-1492
-1506
-1671
-1720
-1515
-1191
-993
-1002
-1061
-959
-668
-347
-164
-154
-244
-374
-533
-712
-871
-962
-1002
-1041
-1107
-1174
-1206
-1220
-1260
-1353
-1486
-1639
-1816
-2018
-2191
-2255
-2182
-2046
-1956
-1957
-1995
-1979
-1874
-1720
-1581
-1494
-1444
-1383
-1270
-1131
-1057
-1125
-1315
-1502
-1577
-1550
-1536
-1598
-1672
-1653
-1525
-1381
-1296
-1253
-1183
-1079
-1003
-1018
-1107
-1200
-1247
-1256
-1266
-1301
-1343
-1366
-1349
-1315
-1321
-1413
-1570
-1719
-1818
-1925
-2141
-2473
-2792
-2957
-2968
-2959
-3013
-3029
-2843
-2451
-2047
-1780
-1555
-1150
-562
-109
-108
-500
-885
-957
-809
-785
-1052
-1420
-1584
-1460
-1222
-1067
-1021
-996
-964
-979
-1085
-1239
-1364
-1446
-1533
-1654
-1771
-1820
-1802
-1782
-1808
-1864
-1911
-1949
-2029
-2179
-2353
-2472
-2507
-2489
-2451
-2395
-2308
-2217
-2171
-2182
-2212
-2226
-2238
-2274
-2342
-2419
-2505
-2611
-2737
-2839
-2881
-2882
-2903
-2976
-3076
-3132
-3102
-3001
-2884
-2801
-2774
-2791
-2813
-2803
-2769
-2762
-2820
-2918
-2959
-2851
-2613
-2360
-2204
-2151
-2110
-2010
-1876
-1800
-1828
-1925
-2024
-2074
-2064
-2000
-1892
-1772
-1678
-1616
-1533
-1390
-1227
-1130
-1154
-1273
-1412
-1518
-1579
-1608
-1625
-1648
-1675
-1654
-1531
-1349
-1226
-1239
-1340
-1420
-1445
-1485
-1586
-1651
-1548
-1277
-1004
-865
-819
-730
-578
-509
-667
-1014
-1333
-1449
-1384
-1314
-1340
-1398
-1356
-1192
-1047
-1082
-1300
-1530
-1613
-1565
-1539
-1612
-1689
-1626
-1404
-1187
-1163
-1350
-1590
-1705
-1643
-1485
-1358
-1303
-1268
-1171
-1003
-853
-831
-974
-1223
-1486
-1703
-1863
-1966
-1998
-1961
-1897
-1853
-1862
-1936
-2076
-2276
-2509
-2749
-2990
-3242
-3498
-3711
-3826
-3834
-3792
-3765
-3762
-3731
-3632
-3473
-3291
-3107
-2896
-2632
-2317
-1998
-1737
-1585
-1529
-1510
-1472
-1420
-1446
-1638
-1986
-2354
-2593
-2659
-2635
-2626
-2659
-2702
-2718
-2700
-2652
-2571
-2475
-2430
-2490
-2620
-2686
-2572
-2297
-1992
-1787
-1718
-1763
-1873
-1986
-2051
-2054
-2056
-2118
-2210
-2213
-2051
-1786
-1550
-1421
-1368
-1347
-1372
-1477
-1635
-1766
-1822
-1825
-1824
-1821
-1792
-1729
-1636
-1510
-1356
-1223
-1171
-1197
-1231
-1201
-1136
-1134
-1249
-1434
-1598
-1697
-1736
-1713
-1627
-1516
-1423
-1337
-1209
-1033
-889
-860
-929
-1013
-1076
-1159
-1264
-1277
-1103
-826
-679
-780
-972
-990
-763
-507
-475
-682
-897
-897
-674
-399
-227
-189
-213
-227
-215
-184
-150
-127
-120
-120
-86
8
137
248
314
369
448
529
541
465
386
419
569
724
783
758
748
817
951
1100
1230
1319
1363
1393
1472
1631
1813
1901
1865
1802
1829
1953
2081
2139
2160
2218
2322
2399
2387
2307
2237
2237
2294
2340
2298
2165
2032
2029
2189
2391
2466
2372
2245
2235
2351
2462
2477
2435
2423
2469
2548
2634
2713
2745
2687
2570
2496
2533
2608
2589
2475
2440
2626
2946
3156
3148
3109
3325
3848
4402
4663
4598
4493
4603
4853
4946
4710
4301
3998
3880
3803
3624
3416
3336
3390
3412
3285
3093
3015
3083
3133
3024
2798
2630
2620
2713
2794
2805
2766
2716
2683
2663
2624
2558
2506
2538
2663
2775
2750
2607
2514
2583
2701
2627
2311
1989
1934
2126
2286
2207
1987
1870
1935
2025
1982
1840
1734
1705
1636
1444
1212
1112
1211
1383
1435
1302
1117
1076
1237
1445
1465
1228
928
826
990
1236
1337
1278
1237
1363
1613
1834
1966
2097
2280
2430
2435
2328
2268
2348
2463
2468
2374
2344
2465
2638
2713
2686
2668
2715
2741
2661
2507
2390
2345
2312
2242
2166
2141
2143
2099
1992
1894
1886
1964
2033
2003
1875
1745
1728
1851
2033
2145
2107
1971
1853
1801
1770
1686
1538
1394
1326
1342
1395
1413
1369
1285
1216
1202
1231
1249
1215
1155
1136
1190
1265
1280
1222
1175
1218
1300
1273
1076
849
794
928
1045
958
748
660
794
970
971
807
687
726
821
815
714
670
771
939
1017
948
790
632
513
427
344
226
77
-50
-76
15
156
264
355
529
861
1294
1675
1898
1988
2039
2103
2141
2085
1898
1609
1281
988
787
672
592
488
365
285
282
307
290
225
190
248
351
389
335
274
285
345
355
252
67
-123
-269
-367
-437
-485
-502
-483
-429
-372
-360
-414
-499
-566
-612
-686
-816
-961
-1053
-1088
-1124
-1204
-1304
-1367
-1385
-1413
-1501
-1620
-1693
-1695
-1692
-1776
-1953
-2125
-2178
-2099
-1986
-1964
-2081
-2275
-2420
-2429
-2317
-2193
-2153
-2201
-2239
-2157
-1956
-1738
-1604
-1567
-1561
-1530
-1469
-1406
-1357
-1320
-1297
-1286
-1287
-1287
-1274
-1250
-1205
-1107
-957
-830
-827
-949
-1053
-1000
-818
-692
-766
-979
-1139
-1139
-1047
-990
-995
-988
-935
-897
-930
-995
-1004
-964
-985
-1144
-1367
-1498
-1455
-1318
-1240
-1289
-1404
-1468
-1444
-1404
-1428
-1513
-1574
-1543
-1445
-1347
-1283
-1240
-1177
-1062
-888
-693
-558
-525
-518
-399
-113
256
627
1050
1551
1920
1837
1305
794
759
1035
942
111
-989
-1511
-1165
-500
-237
-501
-847
-874
-624
-410
-406
-526
-609
-628
-659
-753
-912
-1092
-1216
-1193
-1040
-901
-925
-1077
-1109
-806
-280
33
-201
-794
-1155
-928
-411
-211
-479
-702
-344
449
952
710
55
-337
-266
-147
-408
-943
-1278
-1169
-815
-526
-346
-129
180
474
641
702
742
837
1044
1342
1565
1483
1079
673
608
790
744
216
-405
-523
-151
36
-439
-1167
-1310
-638
154
293
-147
-387
59
849
1249
955
278
-309
-603
-664
-588
-424
-207
30
319
662
1305
1858
2176
2148
1845
1456
1157
1015
974
954
960
1062
1297
1576
1744
1743
1683
1709
1826
1881
1762
1556
1472
1604
1818
1936
1978
2158
2592
3102
3361
3236
2913
2670
2578
2467
2166
1705
1285
1069
1064
1179
1327
1451
1480
1341
1038
704
533
611
849
1079
1231
1391
1694
2174
2693
3061
3183
3108
2962
2860
2850
2929
3105
3391
3749
4046
4117
3926
3636
3460
3447
3423
3194
2792
2478
2476
2730
2980
3047
2981
2932
2925
2851
2644
2398
2252
2214
2153
2029
2008
2283
2816
3307
3461
3274
3022
2944
3023
3037
2809
2426
2175
2299
2791
3416
3939
4334
4730
5173
5525
5607
5428
5190
5058
4969
4754
4404
4130
4151
4454
4824
5070
5207
5364
5633
5985
6322
6565
6682
6657
6485
6177
5774
5344
4944
4587
4239
3895
3624
3512
3556
3635
3617
3491
3348
3237
3083
2790
2383
1986
1666
1345
897
315
-272
-735
-1065
-1325
-1556
-1756
-1915
-2045
-2139
-2156
-2094
-2051
-2151
-2408
-2695
-2877
-2946
-3007
-3134
-3260
-3272
-3129
-2897
-2667
-2468
-2273
-2072
-1917
-1883
-1989
-2169
-2326
-2417
-2476
-2563
-2681
-2758
-2743
-2674
-2652
-2726
-2833
-2882
-2871
-2876
-2943
-3014
-2990
-2847
-2650
-2448
-2221
-1930
-1597
-1310
-1132
-1035
-929
-749
-507
-268
-91
6
49
90
158
224
223
124
-13
-77
-19
88
121
68
58
226
547
835
936
886
852
937
1081
1165
1173
1198
1313
1473
1585
1627
1674
1788
1935
2021
2006
1947
1922
1939
1948
1924
1909
1958
2066
2153
2146
2069
2023
2095
2257
2368
2285
2011
1711
1559
1565
1564
1402
1108
855
756
755
723
611
479
380
285
145
-31
-191
-312
-415
-503
-549
-541
-515
-516
-535
-507
-410
-308
-279
-323
-361
-347
-330
-407
-584
-743
-765
-673
-609
-665
-760
-735
-532
-263
-75
-10
4
60
192
392
634
852
945
867
706
614
644
680
569
303
25
-131
-179
-235
-347
-439
-406
-256
-117
-94
-121
-26
264
603
741
595
345
243
336
440
387
235
195
374
653
852
944
1042
1211
1356
1334
1122
840
605
421
233
37
-98
-129
-109
-134
-239
-373
-475
-560
-704
-944
-1231
-1469
-1612
-1713
-1849
-2021
-2155
-2191
-2163
-2167
-2242
-2326
-2342
-2301
-2267
-2276
-2300
-2298
-2289
-2333
-2452
-2606
-2730
-2797
-2803
-2759
-2679
-2585
-2474
-2304
-2041
-1738
-1527
-1505
-1629
-1758
-1803
-1791
-1797
-1834
-1843
-1777
-1655
-1528
-1420
-1331
-1279
-1303
-1391
-1465
-1462
-1400
-1336
-1280
-1191
-1070
-997
-1046
-1183
-1299
-1344
-1383
-1476
-1550
-1464
-1182
-822
-524
-305
-96
108
219
191
95
25
-18
-91
-192
-228
-146
12
163
267
324
307
182
-22
-207
-340
-503
-751
-976
-1005
-815
-600
-565
-697
-804
-764
-671
-695
-877
-1111
-1287
-1392
-1472
-1552
-1625
-1695
-1787
-1896
-1977
-2000
-1979
-1963
-1988
-2056
-2142
-2222
-2299
-2405
-2564
-2755
-2918
-3006
-3005
-2928
-2780
-2564
-2304
-2035
-1774
-1508
-1232
-989
-844
-826
-898
-1008
-1119
-1229
-1358
-1532
-1777
-2082
-2363
-2523
-2559
-2583
-2701
-2892
-3009
-2960
-2810
-2713
-2732
-2781
-2750
-2643
-2538
-2473
-2390
-2231
-2046
-1959
-2029
-2177
-2288
-2341
-2411
-2555
-2716
-2795
-2775
-2739
-2748
-2759
-2678
-2495
-2319
-2274
-2369
-2486
-2509
-2453
-2452
-2611
-2892
-3134
-3202
-3121
-3037
-3063
-3161
-3213
-3171
-3118
-3146
-3251
-3339
-3343
-3286
-3217
-3117
-2926
-2658
-2424
-2307
-2245
-2095
-1843
-1672
-1795
-2186
-2576
-2718
-2638
-2576
-2689
-2852
-2827
-2554
-2253
-2195
-2402
-2647
-2717
-2640
-2610
-2743
-2921
-2921
-2641
-2198
-1795
-1532
-1361
-1206
-1065
-996
-1026
-1107
-1177
-1226
-1283
-1337
-1312
-1146
-876
-627
-510
-530
-604
-644
-640
-639
-679
-736
-741
-663
-535
-422
-352
-303
-251
-217
-231
-283
-313
-276
-190
-116
-81
-56
13
146
295
398
412
351
275
245
291
381
444
426
336
232
181
217
320
434
492
462
386
350
419
560
672
676
587
498
472
495
522
544
585
647
670
592
444
318
252
191
52
-163
-360
-449
-414
-288
-99
130
379
654
1019
1519
2095
2586
2861
2937
2926
2894
2810
2626
2366
2119
1946
1865
1872
1939
1998
1967
1834
1674
1560
1469
1319
1066
765
520
371
298
279
290
279
189
20
-148
-239
-273
-362
-583
-874
-1093
-1177
-1203
-1291
-1473
-1668
-1802
-1865
-1899
-1924
-1921
-1898
-1909
-1994
-2116
-2197
-2199
-2157
-2136
-2182
-2300
-2434
-2486
-2393
-2200
-2057
-2085
-2224
-2289
-2171
-1958
-1817
-1791
-1770
-1640
-1425
-1222
-1070
-912
-702
-468
-266
-111
36
181
309
425
574
780
986
1116
1170
1245
1438
1710
1908
1929
1846
1830
1985
2248
2475
2596
2669
2760
2866
2935
2952
2956
2963
2934
2841
2749
2771
2927
3096
3139
3054
2989
3069
3245
3358
3318
3203
3168
3267
3397
3430
3366
3348
3465
3616
3632
3506
3435
3586
3859
3972
3815
3608
3628
3870
4038
3923
3659
3558
3722
3982
4143
4206
4301
4467
4600
4623
4566
4481
4369
4225
4100
4042
4015
3934
3820
3807
3943
4085
4053
3864
3725
3768
3884
3893
3790
3741
3850
4016
4061
3950
3804
3725
3662
3506
3217
2883
2619
2486
2497
2617
2777
2922
3075
3347
3814
4381
4828
5027
5088
5208
5421
5534
5354
4919
4467
4174
4018
3879
3701
3531
3418
3360
3348
3381
3408
3313
3047
2732
2549
2528
2493
2273
1937
1718
1757
1931
2004
1892
1705
1562
1457
1330
1170
1029
910
743
496
280
247
402
575
603
503
423
436
455
362
168
-13
-148
-328
-632
-974
-1167
-1130
-1018
-1068
-1344
-1669
-1826
-1775
-1669
-1662
-1757
-1851
-1871
-1826
-1729
-1583
-1422
-1357
-1476
-1724
-1902
-1856
-1648
-1478
-1467
-1533
-1492
-1257
-936
-708
-651
-680
-668
-593
-549
-598
-654
-571
-337
-111
-46
-104
-104
45
226
268
168
67
68
121
130
94
95
182
300
369
369
337
321
354
439
530
547
445
279
168
180
256
268
175
60
42
156
330
457
479
411
311
232
187
158
122
84
62
77
111
144
182
241
308
340
309
238
186
186
207
207
191
192
214
214
177
167
254
412
533
555
544
610
761
867
824
689
601
603
595
490
352
317
398
425
234
-121
-414
-518
-543
-675
-911
-1038
-884
-518
-148
146
475
949
1472
1806
1846
1712
1580
1463
1241
859
426
136
69
142
205
163
39
-40
36
225
312
106
-319
-648
-649
-440
-372
-616
-984
-1178
-1159
-1163
-1378
-1715
-1961
-2050
-2111
-2232
-2314
-2189
-1855
-1517
-1374
-1427
-1528
-1572
-1587
-1649
-1786
-1943
-2069
-2175
-2292
-2416
-2497
-2499
-2456
-2444
-2510
-2625
-2728
-2780
-2796
-2810
-2839
-2883
-2937
-2986
-2997
-2941
-2841
-2765
-2754
-2758
-2684
-2527
-2409
-2447
-2610
-2730
-2711
-2644
-2687
-2827
-2861
-2633
-2264
-2043
-2093
-2240
-2233
-2068
-1989
-2188
-2548
-2777
-2735
-2543
-2404
-2383
-2398
-2343
-2186
-1984
-1858
-1888
-2017
-2093
-2033
-1952
-1988
-2009
-1642
-762
173
492
75
-467
-501
-159
-173
-926
-1965
-2529
-2401
-2009
-1778
-1664
-1440
-1147
-1013
-1050
-977
-652
-376
-561
-1198
-1780
-1893
-1622
-1386
-1362
-1343
-1164
-1001
-1194
-1730
-2143
-2097
-1870
-1989
-2396
-2308
-1175
414
1207
781
171
652
2053
2771
1605
-735
-2352
-2269
-1419
-1442
-2800
-4388
-4895
-4147
-3036
-2439
-2425
-2513
-2324
-1905
-1499
-1287
-1316
-1549
-1939
-2405
-2817
-3103
-3268
-3302
-3132
-2683
-2028
-1375
-897
-565
-191
322
825
1050
899
564
346
372
502
476
138
-436
-982
-1252
-1234
-1195
-1424
-1916
-2324
-2266
-1694
-928
-308
130
619
1368
2322
3228
3866
4193
4286
4226
4078
3916
3820
3850
4003
4179
4263
4253
4312
4619
5141
5592
5708
5580
5612
6103
6890
7501
7625
7379
7088
6928
6849
6744
6585
6378
6144
5964
5964
6162
6392
6488
6486
6550
6669
6574
6096
5481
5194
5398
5737
5762
5454
5231
5438
5977
6462
6630
6520
6324
6162
6056
5993
5952
5889
5801
5749
5818
6020
6304
6652
7093
7584
7920
7885
7513
7104
6927
6942
6896
6663
6398
6315
6401
6452
6353
6199
6102
5995
5726
5290
4844
4506
4215
3885
3598
3502
3589
3646
3528
3351
3351
3549
3697
3574
3281
3137
3321
3672
3873
3824
3739
3861
4161
4368
4339
4238
4315
4516
4477
3977
3327
3099
3484
4049
4214
3917
3680
4004
4813
5529
5638
5083
4209
3431
2991
2887
2917
2832
2548
2238
2182
2475
2902
3131
3005
2624
2179
1766
1380
1008
694
460
246
-52
-457
-849
-1066
-1098
-1071
-1100
-1179
-1215
-1162
-1046
-877
-606
-246
32
25
-254
-532
-547
-351
-247
-419
-719
-855
-762
-653
-733
-949
-1098
-1129
-1194
-1412
-1654
-1678
-1442
-1173
-1102
-1201
-1234
-1058
-784
-608
-609
-705
-780
-806
-816
-828
-843
-873
-923
-971
-1004
-1046
-1140
-1292
-1461
-1621
-1767
-1868
-1854
-1698
-1508
-1431
-1479
-1516
-1426
-1283
-1265
-1448
-1720
-1913
-1979
-2000
-2045
-2096
-2086
-1972
-1780
-1584
-1467
-1487
-1622
-1755
-1780
-1718
-1700
-1828
-2029
-2116
-1975
-1682
-1433
-1375
-1478
-1605
-1655
-1638
-1616
-1600
-1542
-1423
-1304
-1255
-1239
-1114
-799
-408
-170
-199
-354
-381
-190
61
139
-15
-249
-392
-410
-388
-403
-464
-545
-638
-727
-754
-676
-540
-458
-491
-586
-655
-685
-719
-759
-742
-627
-471
-396
-458
-592
-706
-791
-886
-989
-1061
-1120
-1229
-1354
-1312
-950
-397
-9
-28
-320
-541
-524
-418
-430
-534
-532
-335
-85
60
135
284
523
668
536
159
-245
-489
-552
-536
-533
-559
-588
-593
-574
-544
-510
-473
-432
-403
-423
-500
-581
-602
-575
-605
-781
-1065
-1308
-1375
-1252
-1028
-784
-527
-227
116
471
823
1169
1467
1633
1598
1410
1210
1096
1029
887
618
305
96
49
101
149
142
108
81
39
-74
-268
-473
-594
-616
-611
-651
-716
-710
-572
-358
-177
-89
-77
-89
-81
-32
51
117
79
-99
-323
-428
-353
-202
-137
-185
-205
-56
240
509
601
512
337
169
29
-107
-255
-406
-537
-629
-672
-664
-612
-546
-514
-564
-693
-840
-922
-915
-880
-899
-985
-1065
-1059
-971
-881
-868
-937
-1017
-1032
-976
-901
-861
-865
-876
-860
-805
-720
-600
-449
-296
-191
-157
-164
-165
-154
-183
-289
-427
-504
-472
-380
-324
-344
-393
-399
-344
-281
-266
-297
-317
-280
-191
-92
-4
83
176
239
224
136
36
-23
-60
-133
-246
-337
-359
-347
-366
-416
-434
-388
-336
-352
-416
-431
-344
-204
-98
-37
32
136
236
288
304
331
377
388
319
188
62
-14
-67
-152
-290
-442
-553
-611
-669
-771
-891
-955
-946
-935
-1004
-1136
-1222
-1173
-1022
-895
-898
-1030
-1193
-1279
-1270
-1277
-1444
-1791
-2144
-2286
-2184
-1999
-1883
-1793
-1584
-1250
-953
-784
-610
-253
201
437
279
-50
-173
-1
175
60
-297
-597
-683
-691
-808
-1015
-1144
-1137
-1114
-1181
-1256
-1157
-857
-561
-484
-622
-779
-800
-770
-887
-1235
-1674
-1983
-2081
-2067
-2074
-2119
-2118
-2008
-1826
-1678
-1630
-1681
-1778
-1853
-1856
-1780
-1682
-1642
-1693
-1774
-1815
-1825
-1894
-2070
-2301
-2490
-2613
-2739
-2920
-3111
-3240
-3316
-3444
-3707
-4043
-4304
-4403
-4390
-4386
-4438
-4477
-4384
-4125
-3799
-3560
-3489
-3551
-3660
-3768
-3874
-3964
-3974
-3846
-3609
-3366
-3178
-2997
-2748
-2466
-2283
-2295
-2453
-2621
-2733
-2832
-2941
-2980
-2849
-2568
-2278
-2082
-1952
-1800
-1632
-1567
-1689
-1934
-2140
-2211
-2164
-2062
-1925
-1722
-1437
-1107
-797
-582
-515
-588
-723
-811
-809
-787
-850
-1010
-1160
-1173
-1055
-923
-877
-917
-976
-1030
-1111
-1225
-1317
-1339
-1318
-1296
-1247
-1097
-844
-616
-552
-633
-694
-620
-473
-405
-478
-571
-529
-337
-131
-57
-119
-176
-90
138
365
444
379
324
402
573
692
677
603
608
733
910
1068
1201
1315
1372
1331
1225
1147
1133
1106
964
694
408
254
299
500
750
950
1106
1326
1734
2311
2859
3159
3192
3177
3324
3591
3710
3484
3029
2663
2566
2618
2596
2433
2281
2296
2451
2582
2585
2502
2434
2410
2381
2309
2228
2220
2334
2540
2744
2859
2873
2852
2879
2943
2958
2868
2729
2659
2698
2770
2774
2734
2745
2851
2979
3033
3017
3010
3033
2995
2820
2571
2394
2357
2376
2327
2215
2157
2227
2351
2390
2296
2176
2163
2262
2330
2243
2052
1952
2077
2321
2428
2301
2174
2355
2855
3330
3458
3312
3262
3524
3923
4151
4147
4111
4189
4302
4331
4341
4499
4798
5019
5013
4888
4867
5008
5156
5167
5074
4991
4969
4981
5037
5186
5395
5534
5501
5348
5212
5166
5154
5109
5038
4998
5026
5085
5132
5134
5094
5036
4974
4899
4805
4695
4576
4456
4328
4213
4180
4263
4388
4396
4216
3971
3851
3900
3979
3947
3822
3720
3691
3704
3753
3868
4018
4069
3924
3676
3525
3554
3642
3627
3514
3420
3395
3363
3255
3152
3165
3238
3186
2927
2606
2451
2514
2607
2545
2383
2350
2545
2771
2741
2410
2019
1811
1743
1547
1080
534
249
351
642
835
860
887
1116
1554
2041
2418
2658
2837
3024
3207
3309
3265
3110
2920
2737
2539
2279
1950
1622
1394
1304
1280
1211
1064
935
950
1112
1286
1332
1252
1167
1156
1157
1060
860
661
523
382
162
-77
-180
-92
76
168
151
133
192
282
303
215
88
13
18
67
108
103
65
35
28
-16
-188
-492
-809
-967
-917
-773
-693
-722
-759
-687
-501
-304
-216
-268
-396
-514
-563
-526
-426
-326
-287
-293
-256
-110
103
247
205
21
-139
-159
-78
-21
-39
-56
16
165
315
424
522
627
701
702
641
576
531
474
383
302
284
314
327
300
303
405
571
674
628
471
326
292
371
471
485
398
303
320
475
636
653
528
430
501
667
709
517
240
131
247
379
299
31
-177
-151
-4
-2
-249
-543
-601
-379
-105
-22
-130
-222
-137
69
203
143
-57
-264
-401
-481
-543
-595
-627
-629
-612
-580
-550
-562
-644
-768
-877
-960
-1083
-1301
-1531
-1592
-1387
-1056
-877
-994
-1290
-1553
-1709
-1855
-2084
-2374
-2638
-2829
-2913
-2821
-2514
-2086
-1728
-1536
-1404
-1166
-844
-638
-681
-884
-1069
-1178
-1280
-1412
-1542
-1654
-1800
-1963
-2021
-1910
-1803
-1956
-2328
-2508
-2192
-1633
-1431
-1775
-2110
-1745
-746
10
-237
-1275
-2133
-2178
-1783
-1823
-2641
-3674
-4129
-3828
-3272
-2951
-2824
-2544
-2019
-1583
-1553
-1822
-1972
-1797
-1572
-1681
-2129
-2534
-2557
-2207
-1705
-1257
-998
-1011
-1252
-1401
-1052
-202
568
608
-146
-1095
-1634
-1746
-1835
-2156
-2608
-2978
-3194
-3235
-3012
-2496
-1951
-1796
-2139
-2622
-2788
-2610
-2459
-2616
-2957
-3184
-3180
-3061
-2898
-2653
-2348
-2161
-2180
-2204
-1965
-1460
-1041
-1036
-1335
-1530
-1407
-1209
-1313
-1723
-2026
-1853
-1305
-835
-754
-959
-1134
-1174
-1308
-1773
-2435
-2881
-2832
-2459
-2189
-2226
-2337
-2148
-1608
-1088
-981
-1275
-1591
-1606
-1345
-1091
-1040
-1114
-1097
-886
-574
-333
-219
-157
-56
105
285
485
742
1032
1230
1200
950
652
489
503
585
614
598
648
843
1116
1325
1406
1448
1593
1830
1980
1869
1541
1226
1106
1126
1078
870
641
611
839
1153
1334
1319
1233
1201
1224
1206
1102
984
966
1086
1281
1461
1604
1752
1954
2204
2474
2740
2990
3211
3384
3512
3621
3717
3762
3698
3489
3138
2695
2241
1897
1769
1872
2105
2322
2452
2545
2699
2946
3210
3363
3339
3183
3025
2998
3132
3351
3536
3635
3679
3707
3722
3721
3720
3747
3787
3794
3750
3699
3694
3739
3805
3894
4025
4144
4129
3930
3675
3547
3564
3524
3237
2758
2336
2143
2107
2043
1893
1755
1721
1761
1780
1749
1723
1740
1756
1686
1527
1362
1279
1288
1322
1318
1285
1280
1332
1403
1446
1451
1465
1514
1590
1672
1749
1826
1907
1993
2103
2246
2390
2468
2453
2405
2416
2496
2562
2547
2480
2461
2554
2710
2834
2888
2908
2936
2972
2998
3020
3059
3109
3116
3011
2790
2533
2328
2172
1983
1704
1381
1119
980
945
972
1047
1143
1190
1136
1027
974
1012
1038
939
750
626
660
767
796
708
606
579
593
541
387
205
93
79
110
129
132
160
235
332
397
393
342
293
268
242
183
91
1
-60
-83
-64
1
90
159
174
148
116
89
35
-89
-286
-525
-748
-890
-918
-856
-753
-624
-424
-115
255
608
940
1309
1699
1948
1914
1710
1664
1969
2425
2631
2437
2131
2093
2371
2629
2555
2184
1812
1651
1639
1582
1404
1200
1088
1059
983
771
471
225
137
176
173
-22
-407
-822
-1084
-1154
-1168
-1305
-1625
-2014
-2276
-2322
-2229
-2160
-2209
-2346
-2477
-2556
-2597
-2621
-2615
-2589
-2609
-2759
-3036
-3310
-3441
-3422
-3370
-3363
-3338
-3141
-2722
-2192
-1724
-1391
-1149
-948
-827
-859
-1040
-1264
-1416
-1460
-1436
-1385
-1303
-1186
-1054
-958
-933
-985
-1099
-1268
-1466
-1646
-1773
-1848
-1875
-1844
-1745
-1621
-1565
-1621
-1713
-1721
-1618
-1499
-1474
-1536
-1589
-1571
-1507
-1441
-1369
-1277
-1195
-1166
-1180
-1179
-1146
-1130
-1179
-1253
-1269
-1213
-1169
-1202
-1284
-1316
-1259
-1182
-1169
-1235
-1325
-1402
-1480
-1606
-1784
-1956
-2051
-2051
-2003
-1957
-1890
-1716
-1390
-989
-657
-475
-398
-324
-225
-154
-149
-161
-105
26
160
256
356
511
692
804
801
757
767
831
859
785
640
482
311
94
-156
-377
-538
-675
-826
-939
-942
-892
-983
-1342
-1843
-2210
-2311
-2310
-2444
-2693
-2769
-2471
-1980
-1701
-1798
-2003
-1906
-1426
-878
-601
-589
-550
-270
147
434
432
191
-160
-543
-935
-1315
-1640
-1893
-2084
-2211
-2257
-2231
-2186
-2183
-2234
-2304
-2379
-2482
-2640
-2820
-2931
-2920
-2841
-2818
-2924
-3100
-3217
-3211
-3135
-3081
-3067
-3040
-2976
-2931
-2972
-3074
-3147
-3141
-3102
-3099
-3123
-3104
-3013
-2916
-2893
-2934
-2964
-2960
-2985
-3108
-3292
-3427
-3465
-3472
-3546
-3692
-3808
-3824
-3772
-3739
-3766
-3809
-3824
-3805
-3794
-3824
-3872
-3889
-3839
-3734
-3615
-3502
-3361
-3147
-2883
-2660
-2544
-2503
-2459
-2382
-2312
-2275
-2246
-2197
-2138
-2061
-1882
-1535
-1129
-921
-1034
-1275
-1325
-1128
-967
-1117
-1505
-1799
-1803
-1650
-1577
-1603
-1548
-1340
-1127
-1089
-1194
-1246
-1146
-1042
-1137
-1417
-1644
-1610
-1367
-1150
-1114
-1171
-1110
-824
-405
-43
130
116
39
73
328
727
1025
1021
787
633
798
1169
1376
1186
747
422
429
661
872
942
962
1069
1273
1445
1452
1273
990
721
522
374
227
89
33
123
328
539
647
628
526
393
261
160
124
155
216
259
268
261
242
188
78
-69
-200
-280
-291
-200
38
416
842
1179
1363
1441
1504
1552
1487
1236
842
438
122
-101
-276
-418
-515
-569
-611
-672
-740
-793
-837
-890
-925
-886
-756
-600
-511
-500
-477
-353
-152
19
69
-25
-223
-431
-531
-457
-287
-206
-333
-559
-631
-443
-207
-247
-635
-1100
-1331
-1305
-1273
-1438
-1709
-1841
-1754
-1638
-1702
-1918
-2048
-1933
-1690
-1571
-1685
-1864
-1860
-1623
-1354
-1273
-1405
-1574
-1608
-1500
-1364
-1282
-1228
-1147
-1034
-926
-835
-735
-615
-519
-516
-622
-758
-823
-786
-707
-660
-658
-649
-585
-484
-417
-429
-494
-569
-637
-725
-845
-959
-1019
-1019
-1002
-1017
-1069
-1132
-1176
-1204
-1236
-1279
-1319
-1328
-1289
-1201
-1065
-881
-649
-382
-112
132
346
543
739
919
1051
1115
1128
1141
1205
1317
1430
1499
1533
1596
1742
1962
2191
2363
2476
2586
2750
2963
3158
3257
3250
3212
3225
3302
3375
3369
3288
3200
3163
3176
3208
3257
3340
3442
3508
3501
3465
3490
3609
3750
3805
3751
3684
3703
3796
3864
3842
3773
3749
3777
3776
3700
3613
3603
3646
3621
3486
3355
3379
3568
3787
3931
4037
4206
4475
4802
5142
5486
5812
6062
6209
6295
6365
6384
6255
5966
5636
5403
5266
5101
4818
4477
4215
4104
4091
4063
3963
3810
3644
3494
3394
3375
3432
3500
3504
3448
3411
3459
3552
3579
3480
3319
3203
3148
3087
2993
2944
3008
3107
3057
2783
2443
2273
2326
2410
2317
2040
1776
1694
1757
1796
1703
1520
1348
1226
1113
958
775
619
534
491
428
322
217
186
222
220
93
-91
-138
46
295
359
201
79
235
584
811
740
531
464
607
776
809
778
858
1053
1162
1054
874
891
1136
1302
1061
496
116
355
1087
1696
1699
1258
963
1151
1534
1572
1125
565
297
329
388
368
440
720
1022
1057
829
642
694
821
713
330
-32
-90
113
296
272
128
68
141
185
54
-205
-400
-405
-297
-254
-352
-512
-618
-668
-754
-910
-1059
-1124
-1151
-1247
-1409
-1492
-1405
-1261
-1248
-1378
-1454
-1318
-1064
-945
-1098
-1385
-1568
-1568
-1510
-1547
-1685
-1809
-1829
-1745
-1599
-1418
-1210
-1014
-912
-951
-1075
-1177
-1208
-1232
-1344
-1526
-1647
-1593
-1384
-1125
-875
-581
-196
233
609
910
1219
1586
1937
2123
2078
1882
1653
1444
1236
1007
756
479
189
-56
-169
-125
-14
22
-57
-155
-158
-74
-24
-95
-247
-370
-411
-407
-409
-418
-390
-309
-214
-152
-141
-152
-137
-68
24
53
-70
-328
-591
-717
-688
-620
-646
-773
-905
-949
-904
-838
-825
-895
-1029
-1177
-1279
-1323
-1357
-1436
-1565
-1687
-1756
-1793
-1856
-1957
-2047
-2092
-2116
-2159
-2215
-2238
-2206
-2146
-2092
-2040
-1976
-1905
-1859
-1850
-1857
-1841
-1784
-1709
-1646
-1604
-1583
-1581
-1600
-1638
-1676
-1684
-1645
-1576
-1509
-1449
-1380
-1283
-1166
-1063
-1011
-1030
-1111
-1205
-1245
-1205
-1148
-1172
-1301
-1423
-1407
-1266
-1160
-1230
-1443
-1637
-1701
-1692
-1734
-1871
-2021
-2087
-2067
-2038
-2064
-2141
-2215
-2265
-2305
-2363
-2443
-2521
-2589
-2634
-2634
-2571
-2463
-2378
-2363
-2359
-2233
-1913
-1514
-1264
-1294
-1494
-1617
-1516
-1265
-1075
-1085
-1255
-1424
-1433
-1232
-908
-641
-581
-744
-982
-1092
-994
-798
-702
-789
-970
-1067
-980
-764
-565
-475
-464
-471
-482
-548
-722
-964
-1170
-1311
-1481
-1725
-1858
-1550
-726
166
505
166
-254
-38
803
1460
1211
232
-582
-590
-17
426
363
33
-162
-167
-227
-474
-767
-925
-980
-1082
-1261
-1365
-1242
-913
-549
-279
-130
-99
-199
-418
-670
-762
-510
69
711
1077
1051
851
744
684
350
-431
-1384
-2079
-2456
-2865
-3491
-3939
-3632
-2604
-1647
-1500
-2056
-2520
-2359
-1849
-1671
-2097
-2768
-3161
-3142
-2953
-2844
-2874
-2956
-3037
-3140
-3258
-3344
-3373
-3371
-3387
-3441
-3511
-3627
-3901
-4394
-4974
-5380
-5498
-5500
-5580
-5590
-5082
-3837
-2253
-1028
-452
-124
518
1511
2340
2570
2366
2297
2726
3505
4242
4726
5038
5351
5690
5941
6008
5899
5705
5509
5327
5157
5013
4924
4933
5055
5253
5430
5477
5323
5007
4674
4499
4563
4742
4780
4520
4083
3774
3737
3752
3445
2758
2102
1952
2335
2804
2978
2948
3077
3481
3902
4063
4007
3983
4071
4114
3980
3762
3668
3764
3932
4040
4055
3994
3863
3722
3693
3840
4071
4226
4291
4417
4725
5101
5273
5085
4638
4157
3753
3366
2919
2468
2169
2139
2348
2648
2885
3010
3081
3182
3317
3387
3300
3060
2785
2590
2505
2514
2615
2782
2914
2919
2883
3067
3612
4290
4669
4563
4242
4112
4260
4409
4296
3969
3675
3539
3505
3520
3621
3792
3859
3657
3267
2959
2866
2833
2609
2148
1641
1269
1045
877
733
655
647
629
551
464
462
573
730
851
898
874
795
690
586
485
363
214
96
78
120
64
-207
-601
-896
-986
-989
-1090
-1313
-1510
-1546
-1443
-1319
-1267
-1337
-1572
-1970
-2396
-2651
-2662
-2586
-2632
-2783
-2802
-2504
-1982
-1528
-1322
-1297
-1290
-1245
-1240
-1342
-1512
-1665
-1754
-1785
-1768
-1687
-1548
-1411
-1343
-1352
-1403
-1465
-1540
-1644
-1771
-1880
-1942
-1951
-1924
-1881
-1850
-1849
-1877
-1896
-1874
-1815
-1744
-1641
-1454
-1171
-863
-614
-416
-172
153
446
544
422
247
203
296
369
299
134
32
84
248
432
580
698
808
916
1027
1143
1251
1340
1428
1530
1588
1526
1363
1234
1235
1284
1185
823
269
-335
-921
-1453
-1817
-1897
-1752
-1632
-1697
-1782
-1561
-979
-405
-311
-786
-1449
-1846
-1863
-1764
-1860
-2227
-2666
-2920
-2889
-2691
-2554
-2622
-2858
-3103
-3224
-3226
-3204
-3201
-3169
-3045
-2847
-2654
-2541
-2515
-2491
-2362
-2093
-1701
-1227
-691
-124
397
794
1065
1260
1352
1159
497
-566
-1639
-2293
-2407
-2219
-2044
-1948
-1750
-1286
-613
3
291
144
-332
-900
-1342
-1583
-1686
-1710
-1640
-1446
-1158
-855
-588
-368
-240
-309
-607
-1001
-1322
-1557
-1834
-2151
-2288
-2044
-1546
-1162
-1106
-1213
-1186
-951
-718
-729
-1005
-1392
-1721
-1909
-1966
-2002
-2181
-2546
-2908
-2981
-2710
-2394
-2383
-2660
-2838
-2603
-2063
-1607
-1468
-1527
-1535
-1414
-1296
-1315
-1458
-1624
-1736
-1730
-1541
-1167
-727
-382
-172
27
320
630
792
751
632
581
605
620
605
626
713
790
786
739
764
891
1018
1061
1070
1165
1366
1548
1595
1531
1459
1402
1264
981
636
383
247
113
-109
-354
-508
-586
-726
-991
-1236
-1283
-1155
-1070
-1166
-1319
-1279
-978
-617
-442
-514
-699
-854
-941
-999
-1054
-1107
-1148
-1175
-1179
-1154
-1120
-1111
-1126
-1136
-1116
-1075
-1042
-1014
-966
-884
-780
-684
-624
-621
-673
-740
-759
-699
-601
-544
-577
-661
-710
-691
-649
-653
-725
-828
-917
-1007
-1147
-1343
-1527
-1616
-1605
-1570
-1567
-1547
-1409
-1131
-831
-648
-570
-439
-137
254
507
489
298
151
143
158
25
-294
-667
-944
-1092
-1161
-1205
-1249
-1306
-1398
-1492
-1499
-1375
-1189
-1082
-1123
-1232
-1250
-1107
-876
-695
-637
-666
-689
-643
-533
-428
-421
-562
-819
-1082
-1222
-1173
-990
-823
-786
-854
-880
-729
-442
-214
-202
-403
-691
-954
-1149
-1256
-1272
-1245
-1246
-1289
-1289
-1159
-970
-903
-1000
-1087
-989
-779
-707
-862
-1026
-940
-649
-470
-567
-713
-547
-38
473
681
678
787
1113
1399
1351
1003
668
565
609
587
467
416
573
868
1114
1234
1323
1477
1650
1721
1656
1556
1538
1609
1680
1675
1612
1555
1532
1523
1512
1505
1509
1505
1481
1469
1520
1620
1676
1616
1484
1404
1442
1528
1542
1447
1327
1281
1333
1443
1559
1650
1695
1692
1690
1750
1859
1923
1863
1727
1662
1758
1953
2096
2119
2101
2163
2328
2501
2567
2503
2390
2327
2345
2400
2429
2412
2396
2451
2599
2786
2919
2970
3003
3098
3251
3366
3367
3291
3245
3274
3316
3290
3208
3157
3178
3195
3097
2867
2609
2460
2463
2539
2583
2542
2439
2338
2293
2323
2406
2482
2485
2377
2190
2009
1901
1842
1730
1470
1048
542
67
-308
-593
-861
-1186
-1579
-1965
-2245
-2404
-2511
-2619
-2699
-2685
-2595
-2521
-2492
-2403
-2149
-1800
-1589
-1673
-1942
-2127
-2081
-1910
-1820
-1868
-1914
-1784
-1465
-1104
-861
-764
-731
-687
-631
-602
-616
-630
-606
-560
-539
-544
-519
-422
-296
-247
-313
-416
-443
-381
-330
-388
-537
-673
-727
-733
-771
-862
-947
-964
-937
-951
-1054
-1168
-1155
-960
-697
-546
-555
-573
-410
-68
245
344
269
235
384
630
793
819
812
871
994
1119
1234
1362
1491
1574
1626
1732
1927
2111
2145
2045
1999
2143
2401
2598
2675
2760
2985
3312
3594
3766
3889
4011
4068
3977
3792
3666
3676
3731
3702
3596
3556
3664
3834
3899
3784
3544
3286
3076
2933
2866
2881
2955
3034
3093
3177
3353
3615
3860
3955
3847
3613
3405
3329
3353
3366
3289
3149
3046
3045
3105
3142
3127
3100
3100
3098
2993
2752
2503
