-2445
-2391
-2260
-1930
-1387
-727
-74
467
815
931
849
714
634
546
271
-301
-1010
-1543
-1717
-1585
-1366
-1233
-1208
-1238
-1285
-1347
-1418
-1449
-1374
-1219
-1127
-1203
-1396
-1524
-1440
-1194
-1002
-1037
-1261
-1474
-1504
-1352
-1187
-1167
-1301
-1466
-1509
-1370
-1121
-906
-823
-873
-936
-907
-768
-590
-492
-521
-619
-691
-702
-675
-607
-461
-290
-267
-558
-1098
-1621
-1901
-1974
-2080
-2374
-2730
-2910
-2773
-2358
-1814
-1288
-921
-857
-1107
-1477
-1686
-1649
-1609
-1883
-2479
-3002
-3040
-2627
-2231
-2210
-2374
-2228
-1634
-1058
-1057
-1640
-2253
-2442
-2313
-2297
-2544
-2774
-2705
-2431
-2267
-2307
-2294
-2039
-1736
-1807
-2390
-3117
-3489
-3415
-3274
-3428
-3738
-3669
-2918
-1839
-1114
-1068
-1386
-1537
-1384
-1293
-1653
-2434
-3260
-3761
-3854
-3740
-3713
-3942
-4347
-4646
-4584
-4190
-3764
-3562
-3536
-3415
-3056
-2629
-2374
-2309
-2242
-2051
-1864
-1882
-2074
-2158
-1903
-1408
-1020
-977
-1145
-1179
-917
-551
-425
-662
-997
-1060
-749
-282
58
210
348
553
658
455
9
-336
-319
-55
129
76
-12
112
391
527
390
189
171
254
104
-414
-1019
-1266
-999
-499
-193
-271
-587
-838
-828
-632
-498
-652
-1075
-1494
-1656
-1537
-1299
-1120
-1013
-923
-875
-893
-923
-866
-702
-549
-519
-609
-748
-908
-1119
-1347
-1494
-1514
-1512
-1614
-1774
-1803
-1579
-1196
-876
-746
-757
-817
-892
-999
-1116
-1175
-1175
-1199
-1302
-1402
-1352
-1125
-883
-808
-933
-1105
-1179
-1151
-1103
-1076
-1030
-938
-858
-880
-1002
-1113
-1132
-1095
-1128
-1300
-1531
-1672
-1621
-1430
-1276
-1299
-1467
-1606
-1543
-1289
-1039
-999
-1175
-1357
-1364
-1240
-1183
-1321
-1555
-1669
-1597
-1521
-1646
-1931
-2099
-1945
-1579
-1289
-1217
-1238
-1176
-1034
-952
-1013
-1161
-1309
-1477
-1730
-1988
-2099
-2001
-1826
-1741
-1759
-1776
-1711
-1607
-1555
-1569
-1608
-1655
-1700
-1741
-1737
-1624
-1426
-1271
-1258
-1317
-1270
-1059
-885
-1013
-1431
-1769
-1679
-1245
-934
-1092
-1543
-1816
-1694
-1419
-1378
-1667
-2093
-2420
-2589
-2628
-2518
-2262
-1927
-1662
-1531
-1447
-1280
-989
-680
-586
-908
-1615
-2339
-2521
-1890
-845
-170
-309
-925
-1261
-957
-413
-335
-977
-1922
-2549
-2614
-2360
-2127
-2023
-1971
-1899
-1831
-1793
-1778
-1773
-1785
-1813
-1804
-1737
-1668
-1653
-1650
-1586
-1502
-1520
-1666
-1776
-1696
-1515
-1515
-1800
-2089
-2008
-1561
-1174
-1219
-1598
-1882
-1818
-1561
-1402
-1428
-1502
-1551
-1678
-1883
-2032
-2033
-2024
-2223
-2613
-2950
-3104
-3225
-3441
-3583
-3352
-2768
-2229
-1971
-1693
-921
319
1397
1778
1650
1662
2092
2513
2350
1603
803
364
180
-108
-622
-1144
-1453
-1548
-1556
-1524
-1392
-1188
-998
-861
-766
-707
-747
-905
-1084
-1149
-1091
-1032
-1068
-1159
-1188
-1138
-1069
-1016
-929
-773
-636
-654
-820
-964
-931
-759
-661
-796
-1089
-1283
-1195
-899
-637
-556
-584
-545
-393
-246
-254
-420
-636
-801
-932
-1093
-1284
-1443
-1510
-1480
-1419
-1398
-1434
-1497
-1519
-1469
-1374
-1311
-1338
-1446
-1572
-1650
-1679
-1711
-1787
-1872
-1865
-1713
-1503
-1407
-1494
-1642
-1664
-1504
-1342
-1373
-1589
-1788
-1814
-1716
-1666
-1724
-1773
-1706
-1590
-1587
-1756
-1934
-1921
-1754
-1677
-1834
-2058
-2059
-1800
-1575
-1638
-1870
-1932
-1713
-1491
-1585
-1918
-2111
-1955
-1670
-1604
-1794
-1956
-1886
-1713
-1680
-1820
-1934
-1878
-1744
-1705
-1782
-1843
-1781
-1627
-1475
-1363
-1279
-1230
-1237
-1307
-1382
-1358
-1198
-981
-853
-862
-865
-683
-358
-164
-297
-593
-677
-408
-88
-81
-358
-527
-297
172
471
404
158
30
99
224
246
145
7
-75
-51
78
239
345
365
323
284
283
296
292
238
99
-94
-234
-251
-194
-206
-320
-399
-294
-49
124
102
5
18
131
139
-83
-397
-555
-491
-426
-588
-920
-1088
-837
-303
117
165
-28
-77
245
731
916
554
-123
-646
-785
-735
-838
-1168
-1451
-1406
-1050
-694
-590
-686
-726
-533
-251
-176
-409
-700
-611
19
845
1280
1037
412
-65
-193
-262
-652
-1342
-1939
-2155
-2062
-1920
-1785
-1452
-854
-306
-198
-521
-821
-724
-395
-331
-738
-1305
-1584
-1442
-1142
-944
-847
-780
-803
-1044
-1437
-1726
-1763
-1655
-1609
-1680
-1754
-1725
-1555
-1179
-553
161
626
623
315
22
-189
-576
-1292
-2059
-2428
-2338
-2172
-2232
-2348
-2160
-1646
-1210
-1167
-1386
-1575
-1716
-2014
-2440
-2600
-2202
-1541
-1250
-1529
-1872
-1680
-985
-412
-463
-992
-1476
-1642
-1631
-1633
-1635
-1546
-1412
-1393
-1511
-1601
-1544
-1423
-1427
-1648
-2005
-2361
-2615
-2710
-2630
-2459
-2348
-2378
-2453
-2392
-2136
-1824
-1681
-1779
-2015
-2188
-2181
-2083
-2076
-2218
-2340
-2226
-1894
-1596
-1464
-1297
-849
-259
-6
-363
-967
-1223
-1025
-866
-1161
-1690
-1892
-1619
-1345
-1538
-2075
-2438
-2368
-2153
-2224
-2653
-3105
-3269
-3144
-2926
-2847
-3005
-3327
-3620
-3667
-3397
-2957
-2609
-2454
-2309
-1871
-1047
-124
439
451
211
238
685
1146
1078
403
-393
-808
-854
-975
-1467
-2152
-2611
-2622
-2326
-1993
-1726
-1441
-1103
-857
-917
-1290
-1665
-1707
-1478
-1386
-1708
-2182
-2246
-1671
-906
-607
-918
-1363
-1451
-1233
-1160
-1482
-1968
-2219
-2124
-1893
-1757
-1740
-1705
-1535
-1244
-951
-771
-726
-780
-921
-1183
-1582
-2018
-2282
-2303
-2259
-2387
-2660
-2736
-2330
-1554
-851
-591
-764
-1037
-1081
-870
-678
-774
-1134
-1410
-1313
-973
-819
-1063
-1398
-1368
-961
-700
-1015
-1696
-2136
-2078
-1894
-2045
-2449
-2630
-2394
-2075
-2078
-2381
-2589
-2445
-2101
-1878
-1915
-2060
-2066
-1803
-1321
-838
-590
-661
-923
-1162
-1269
-1265
-1226
-1238
-1395
-1703
-1987
-2027
-1791
-1557
-1602
-1911
-2237
-2427
-2553
-2716
-2818
-2710
-2476
-2387
-2571
-2804
-2729
-2264
-1693
-1330
-1223
-1185
-1046
-818
-620
-534
-529
-553
-647
-912
-1349
-1723
-1731
-1347
-925
-872
-1190
-1478
-1350
-851
-369
-232
-430
-716
-833
-686
-343
-54
-67
-387
-727
-788
-615
-557
-819
-1170
-1185
-734
-145
182
187
104
137
270
376
390
282
-5
-474
-954
-1117
-841
-397
-161
-195
-200
77
484
628
350
-77
-312
-346
-466
-801
-1101
-1059
-752
-591
-789
-1093
-1109
-792
-503
-545
-808
-986
-997
-991
-1063
-1072
-882
-639
-581
-713
-776
-595
-359
-367
-607
-779
-683
-468
-433
-636
-848
-870
-772
-755
-874
-982
-944
-800
-705
-726
-774
-732
-567
-370
-284
-379
-594
-777
-836
-798
-763
-764
-727
-606
-442
-324
-264
-232
-258
-390
-586
-704
-710
-795
-1145
-1612
-1773
-1384
-729
-351
-457
-723
-719
-376
-2
114
-62
-406
-775
-1013
-966
-623
-231
-101
-309
-563
-570
-352
-196
-304
-596
-868
-1039
-1151
-1217
-1164
-961
-720
-614
-707
-858
-886
-754
-601
-627
-903
-1284
-1495
-1343
-925
-608
-685
-1015
-1131
-763
-194
39
-214
-544
-543
-331
-349
-710
-973
-724
-144
209
117
-58
71
375
388
-65
-652
-958
-957
-918
-1055
-1300
-1443
-1361
-1064
-707
-514
-604
-842
-931
-754
-508
-458
-596
-666
-534
-368
-391
-578
-722
-773
-924
-1296
-1723
-1930
-1867
-1719
-1619
-1452
-1057
-509
-68
126
210
392
694
911
890
692
497
431
467
516
507
424
290
133
-20
-175
-348
-508
-618
-682
-718
-727
-668
-526
-397
-421
-618
-795
-734
-478
-371
-659
-1150
-1381
-1110
-612
-372
-554
-849
-881
-612
-314
-211
-286
-439
-680
-1022
-1310
-1327
-1091
-919
-1098
-1520
-1761
-1562
-1097
-759
-742
-890
-951
-862
-758
-752
-830
-890
-871
-805
-792
-898
-1069
-1142
-996
-725
-568
-657
-873
-958
-818
-631
-632
-843
-1051
-1057
-883
-730
-744
-884
-995
-967
-819
-677
-648
-742
-879
-986
-1045
-1088
-1136
-1164
-1163
-1152
-1152
-1140
-1066
-925
-792
-753
-802
-882
-984
-1147
-1350
-1445
-1326
-1103
-1025
-1187
-1370
-1305
-1029
-870
-1031
-1281
-1227
-828
-492
-588
-994
-1252
-1137
-903
-932
-1275
-1626
-1712
-1573
-1423
-1348
-1256
-1054
-799
-608
-514
-454
-377
-310
-302
-350
-403
-383
-254
-65
86
122
98
146
298
411
344
178
176
460
793
804
455
126
184
542
756
573
233
157
444
786
849
635
411
354
407
428
388
361
366
362
328
321
385
474
504
461
416
402
350
184
-44
-172
-106
54
121
63
33
170
405
541
503
400
372
387
326
148
-60
-211
-314
-411
-465
-426
-319
-241
-234
-231
-166
-70
-9
-25
-86
-127
-137
-147
-184
-239
-263
-220
-125
-84
-184
-371
-449
-244
159
448
433
243
183
341
504
437
152
-157
-372
-503
-545
-398
-72
149
-11
-420
-588
-204
442
681
217
-503
-787
-431
94
202
-182
-606
-643
-339
-52
-15
-118
-118
35
179
202
184
269
419
415
107
-382
-727
-758
-627
-602
-754
-895
-820
-537
-254
-155
-196
-203
-82
108
208
136
1
-55
-14
27
8
-8
47
108
45
-103
-110
182
600
766
529
162
42
205
305
65
-399
-753
-833
-748
-651
-511
-220
170
425
378
129
-71
-75
18
-47
-360
-691
-692
-242
336
564
344
103
274
734
903
430
-321
-673
-406
30
83
-271
-567
-472
-153
-28
-240
-526
-545
-267
11
35
-157
-284
-140
194
441
394
93
-248
-430
-411
-295
-226
-292
-451
-513
-321
43
248
24
-479
-780
-589
-151
14
-279
-667
-700
-385
-131
-212
-459
-553
-464
-441
-615
-866
-758
-540
-385
-406
-489
-483
-408
-372
-386
-361
-282
-232
-241
-210
-78
38
-12
-204
-370
-434
-522
-776
-1121
-1331
-1286
-1091
-929
-865
-851
-822
-756
-664
-589
-572
-623
-694
-696
-636
-611
-664
-700
-569
-299
-100
-122
-302
-454
-475
-431
-406
-424
-463
-521
-589
-605
-539
-454
-463
-581
-688
-693
-657
-681
-769
-802
-712
-585
-544
-589
-609
-571
-565
-664
-840
-1012
-1192
-1496
-1959
-2432
-2692
-2675
-2537
-2448
-2384
-2176
-1718
-1068
-357
338
997
1509
1679
1460
1083
892
967
999
662
23
-507
-630
-485
-424
-581
-751
-719
-556
-496
-626
-769
-724
-523
-388
-487
-768
-1023
-1087
-968
-816
-760
-795
-808
-725
-607
-571
-640
-744
-814
-867
-961
-1100
-1233
-1293
-1264
-1160
-1016
-899
-871
-905
-901
-806
-699
-686
-745
-753
-660
-585
-660
-850
-999
-1026
-1007
-1043
-1117
-1141
-1090
-1045
-1065
-1125
-1165
-1162
-1126
-1074
-1033
-1034
-1085
-1143
-1143
-1067
-971
-904
-880
-891
-941
-1013
-1038
-965
-861
-869
-1039
-1237
-1279
-1175
-1120
-1234
-1391
-1363
-1126
-913
-915
-1042
-1037
-815
-573
-552
-758
-978
-1040
-972
-914
-939
-1017
-1087
-1118
-1122
-1142
-1224
-1389
-1598
-1761
-1831
-1832
-1827
-1853
-1849
-1762
-1618
-1487
-1425
-1405
-1348
-1226
-1090
-1040
-1120
-1253
-1299
-1185
-979
-829
-826
-928
-998
-923
-731
-583
-617
-788
-871
-701
-372
-165
-250
-474
-522
-281
22
95
-76
-218
-108
164
326
266
123
95
194
269
235
161
151
195
234
267
353
484
559
514
430
414
429
362
210
129
213
317
217
-80
-294
-209
27
54
-248
-590
-632
-389
-175
-189
-288
-214
26
144
-63
-421
-568
-389
-159
-199
-486
-693
-588
-296
-128
-215
-379
-387
-238
-128
-193
-350
-388
-217
54
264
342
358
396
430
378
231
86
18
-67
-336
-779
-1123
-1102
-781
-529
-609
-899
-1048
-884
-574
-396
-417
-531
-619
-662
-668
-606
-459
-331
-364
-564
-772
-775
-538
-240
-119
-254
-456
-446
-126
318
594
570
371
205
142
102
-1
-153
-299
-444
-617
-795
-903
-902
-831
-734
-634
-564
-562
-636
-705
-649
-477
-342
-375
-511
-572
-451
-200
18
55
-128
-399
-535
-386
-38
205
94
-275
-534
-396
46
401
377
39
-296
-372
-216
-58
-108
-369
-657
-805
-797
-778
-869
-1022
-1095
-1038
-945
-923
-930
-829
-584
-315
-176
-185
-216
-178
-115
-132
-248
-376
-403
-301
-140
-4
62
62
37
39
97
170
142
-66
-378
-572
-494
-232
-44
-114
-359
-549
-565
-496
-509
-648
-830
-967
-1044
-1044
-901
-612
-332
-265
-420
-565
-474
-214
-69
-189
-407
-472
-354
-244
-258
-286
-183
-11
13
-170
-344
-293
-102
-67
-328
-675
-812
-737
-737
-1005
-1356
-1419
-1087
-654
-516
-740
-1016
-1014
-743
-511
-588
-909
-1161
-1137
-916
-755
-777
-822
-679
-368
-130
-121
-195
-112
89
106
-185
-456
-274
286
622
296
-396
-727
-396
133
212
-250
-733
-777
-481
-275
-379
-634
-779
-754
-682
-665
-699
-730
-733
-703
-676
-723
-925
-1274
-1634
-1885
-2063
-2293
-2581
-2723
-2525
-2059
-1587
-1214
-714
155
1202
1876
1863
1520
1532
2097
2624
2382
1380
411
187
598
912
619
-70
-585
-665
-537
-518
-631
-696
-654
-665
-857
-1058
-965
-525
-79
-47
-458
-895
-919
-543
-194
-246
-623
-925
-911
-724
-634
-687
-693
-544
-347
-281
-364
-446
-403
-263
-137
-114
-249
-522
-811
-932
-826
-673
-749
-1094
-1414
-1373
-985
-605
-541
-757
-947
-888
-651
-478
-505
-666
-813
-888
-942
-1007
-1035
-966
-834
-772
-833
-912
-848
-655
-538
-627
-741
-593
-203
74
-68
-509
-843
-862
-738
-764
-1005
-1315
-1583
-1773
-1786
-1488
-940
-503
-510
-850
-1042
-794
-356
-250
-678
-1335
-1735
-1677
-1358
-1110
-1108
-1288
-1442
-1394
-1146
-896
-868
-1053
-1235
-1247
-1161
-1153
-1249
-1303
-1219
-1119
-1169
-1323
-1350
-1124
-809
-667
-751
-866
-820
-640
-492
-470
-525
-590
-652
-712
-715
-629
-532
-566
-760
-954
-961
-782
-594
-562
-635
-624
-427
-131
106
218
279
364
452
435
289
167
203
328
350
219
131
305
654
814
587
238
215
591
921
737
103
-411
-366
108
496
469
174
-1
135
403
503
321
17
-186
-250
-323
-513
-708
-661
-349
-50
-54
-318
-474
-263
120
255
12
-315
-357
-94
158
131
-110
-288
-246
-83
14
-49
-194
-264
-146
154
489
661
590
398
287
317
335
167
-172
-478
-592
-566
-575
-670
-730
-645
-486
-417
-482
-526
-389
-15
78
33
-174
-325
-294
-150
-46
-50
-123
-203
-250
-247
-186
-90
-27
-31
-59
-39
39
108
116
81
57
69
83
53
-40
-181
-316
-379
-322
-191
-124
-206
-357
-388
-213
38
152
39
-170
-266
-191
-68
-26
-65
-77
-15
66
112
159
269
390
370
139
-171
-350
-358
-359
-517
-792
-972
-915
-702
-489
-364
-283
-210
-178
-227
-328
-405
-416
-384
-330
-261
-178
-100
-45
27
165
321
343
179
-8
10
246
429
302
-52
-274
-155
86
57
-346
-813
-976
-785
-499
-367
-414
-520
-572
-527
-361
-114
97
145
37
-78
-68
40
133
182
262
400
487
417
261
241
416
575
442
-12
-521
-804
-815
-739
-772
-921
-1055
-1019
-736
-281
138
309
185
-44
-144
-74
-4
-120
-387
-600
-619
-489
-342
-236
-164
-147
-222
-349
-397
-292
-151
-173
-371
-516
-410
-143
-1
-123
-327
-356
-208
-120
-239
-408
-384
-192
-89
-242
-480
-529
-374
-258
-354
-548
-626
-590
-619
-746
-745
-405
115
392
219
-141
-244
21
316
268
-116
-494
-588
-418
-178
-1
97
112
36
-69
-66
71
169
40
-274
-540
-557
-396
-282
-325
-459
-594
-731
-917
-1139
-1378
-1675
-2053
-2404
-2496
-2199
-1671
-1217
-949
-669
-128
640
1324
1665
1716
1751
1932
2143
2150
1874
1456
1098
881
762
682
602
459
207
-118
-364
-376
-174
45
106
2
-127
-156
-72
46
108
56
-112
-336
-507
-544
-488
-463
-547
-687
-764
-718
-588
-458
-379
-355
-358
-358
-336
-305
-301
-333
-369
-359
-300
-270
-319
-375
-342
-227
-158
-232
-371
-411
-311
-220
-280
-442
-523
-451
-352
-381
-515
-582
-494
-356
-328
-424
-505
-467
-351
-277
-288
-323
-322
-300
-304
-332
-339
-302
-250
-235
-264
-303
-332
-347
-345
-330
-328
-371
-449
-506
-481
-386
-318
-350
-428
-435
-326
-192
-163
-259
-382
-440
-444
-470
-528
-555
-506
-444
-470
-590
-686
-653
-522
-436
-487
-624
-722
-722
-675
-651
-653
-630
-568
-507
-501
-542
-566
-524
-437
-369
-368
-430
-498
-505
-433
-312
-186
-70
41
153
267
380
494
596
664
687
690
708
747
783
810
861
964
1095
1191
1217
1202
1198
1214
1218
1187
1142
1118
1120
1136
1153
1166
1168
1157
1157
1198
1271
1326
1322
1265
1205
1177
1177
1190
1210
1225
1208
1151
1093
1087
1137
1188
1195
1166
1140
1124
1097
1049
1007
994
1001
997
975
955
953
963
969
973
987
1011
1033
1047
1053
1043
1004
945
909
935
1007
1053
1017
923
858
878
953
1003
991
951
940
964
986
987
987
1004
1024
1018
989
967
968
974
965
947
939
944
942
932
931
943
944
924
909
938
1006
1066
1078
1049
1013
994
993
1006
1023
1022
984
925
900
935
997
1034
1042
1064
1112
1126
1051
928
876
955
1084
1115
1000
843
783
845
928
933
871
826
844
891
912
906
911
947
984
988
965
941
923
890
830
770
745
758
774
764
734
712
710
722
738
759
790
818
827
814
807
822
846
851
836
833
861
893
883
828
784
804
885
959
969
925
885
884
899
889
845
807
808
829
810
728
637
617
689
788
829
810
795
826
869
859
788
721
712
745
756
714
653
625
642
675
694
695
688
677
650
597
537
505
526
576
594
544
459
402
401
429
431
400
372
378
404
414
389
352
338
362
409
448
443
396
341
322
346
377
383
366
352
341
309
254
215
237
300
335
303
241
213
235
259
247
221
218
236
228
171
101
71
87
98
62
-1
-37
-27
-6
-13
-36
-26
42
124
158
129
87
82
106
106
54
-15
-58
-78
-112
-177
-234
-240
-199
-162
-160
-181
-200
-215
-243
-269
-255
-179
-73
6
32
34
56
109
169
204
214
214
213
197
153
99
71
91
136
164
154
118
76
43
34
60
114
162
178
157
126
96
54
-13
-97
-194
-330
-537
-820
-1149
-1492
-1830
-2114
-2243
-2128
-1797
-1393
-1033
-675
-172
545
1348
1983
2282
2282
2165
2080
2031
1919
1677
1350
1055
872
782
709
601
483
394
334
269
177
80
10
-23
-38
-54
-69
-78
-81
-86
-99
-117
-139
-163
-180
-175
-149
-123
-130
-176
-227
-244
-221
-182
-153
-148
-168
-202
-227
-211
-149
-82
-72
-132
-209
-235
-217
-221
-289
-376
-396
-324
-233
-215
-291
-389
-425
-376
-283
-207
-180
-192
-218
-231
-219
-188
-154
-138
-151
-197
-263
-321
-345
-329
-291
-259
-244
-238
-227
-218
-223
-247
-278
-297
-305
-315
-339
-367
-381
-373
-355
-346
-348
-351
-347
-346
-366
-410
-456
-475
-457
-420
-398
-412
-461
-525
-579
-609
-614
-599
-578
-565
-568
-585
-601
-601
-577
-542
-520
-532
-581
-643
-688
-692
-656
-604
-563
-543
-536
-531
-523
-517
-509
-488
-445
-387
-333
-296
-268
-230
-168
-85
11
113
214
299
347
359
364
404
488
582
644
659
652
659
685
720
747
767
780
779
753
708
668
654
673
713
762
803
819
805
774
747
736
729
710
677
645
622
598
561
520
501
519
562
593
588
548
498
468
466
483
500
507
503
489
463
432
412
424
465
500
493
438
367
321
321
348
376
386
380
373
376
385
387
374
359
364
396
433
439
405
360
344
370
412
434
419
382
347
328
323
325
333
352
380
400
394
362
325
305
313
336
355
355
338
317
303
304
320
348
379
400
401
378
340
306
297
312
335
347
345
336
330
326
321
314
316
331
346
340
309
273
258
272
301
325
342
353
348
310
239
168
145
181
236
260
232
182
157
181
245
319
378
402
389
349
305
283
294
328
356
354
326
299
304
340
387
417
421
410
400
395
384
360
332
318
328
352
367
360
342
328
321
314
308
318
351
392
411
392
358
347
373
415
437
427
402
387
385
379
364
358
385
427
440
398
326
281
289
324
345
344
346
364
377
367
345
341
369
403
411
390
363
355
359
357
344
331
333
347
350
323
272
226
214
239
277
303
309
305
297
282
266
263
280
300
293
247
180
123
94
86
91
97
94
71
31
-10
-34
-37
-26
-11
5
18
26
33
53
94
154
224
304
384
443
453
414
365
352
386
430
439
403
349
309
297
309
337
366
376
359
325
302
298
306
316
332
358
379
354
250
71
-135
-325
-496
-690
-961
-1318
-1691
-1943
-1941
-1661
-1218
-778
-404
0
567
1291
1973
2388
2489
2431
2398
2414
2349
2101
1722
1373
1162
1061
977
856
719
605
516
428
344
294
289
303
300
270
226
176
119
63
28
32
58
69
48
6
-28
-35
-17
11
31
26
-11
-62
-102
-118
-122
-133
-149
-153
-143
-141
-162
-191
-198
-174
-145
-142
-164
-183
-185
-184
-197
-215
-212
-187
-168
-177
-206
-218
-199
-165
-142
-124
-96
-65
-61
-99
-155
-187
-182
-163
-152
-152
-157
-172
-209
-250
-258
-217
-162
-148
-197
-268
-307
-298
-274
-259
-248
-226
-208
-227
-290
-359
-391
-383
-365
-362
-372
-385
-398
-417
-435
-439
-428
-419
-429
-461
-510
-563
-605
-618
-601
-582
-590
-623
-644
-631
-604
-605
-631
-643
-610
-558
-537
-567
-616
-639
-619
-566
-492
-415
-358
-337
-337
-318
-250
-146
-43
30
78
120
177
248
329
411
494
581
675
766
831
859
865
884
937
1010
1077
1117
1129
1110
1067
1027
1027
1075
1126
1120
1047
961
926
948
978
974
947
940
965
988
971
915
867
865
897
914
884
825
778
762
762
762
765
780
792
770
709
646
624
650
692
716
715
700
681
660
639
626
626
634
643
642
629
603
570
547
546
564
590
608
602
571
526
495
501
538
570
570
547
530
527
514
476
434
426
463
506
511
468
418
400
422
458
479
477
465
458
461
461
449
432
432
457
491
504
484
447
428
442
472
494
494
472
437
396
358
337
343
374
405
413
392
359
335
330
343
365
390
405
396
363
321
300
306
322
325
307
280
257
239
224
223
251
306
355
363
330
285
262
270
292
312
326
338
354
373
388
389
374
355
356
380
408
409
373
328
313
342
391
425
424
401
375
362
356
351
346
354
380
411
415
375
312
268
271
309
347
355
336
301
265
245
257
305
361
383
357
313
293
309
335
343
335
328
328
322
299
272
269
296
334
360
371
374
368
344
303
271
277
314
342
327
283
254
261
279
277
264
274
313
343
320
250
197
211
276
329
320
259
196
168
172
186
195
207
227
243
241
225
213
214
212
187
147
119
114
112
88
51
41
88
174
251
279
254
197
144
127
153
197
217
197
161
145
153
155
136
115
123
139
114
28
-61
-72
8
107
147
130
115
138
162
136
63
-1
-13
9
17
-10
-49
-71
-77
-83
-90
-80
-49
-25
-35
-73
-90
-43
63
177
245
260
257
268
294
311
306
294
303
335
369
379
359
334
330
344
348
318
261
206
174
161
160
162
170
191
216
226
204
138
37
-84
-211
-348
-527
-778
-1104
-1476
-1841
-2131
-2257
-2153
-1833
-1409
-1006
-626
-144
549
1368
2057
2405
2428
2332
2277
2238
2084
1769
1390
1091
912
793
675
556
473
428
377
301
226
191
191
184
136
65
15
12
47
89
117
126
114
88
64
56
61
61
38
-2
-48
-91
-129
-147
-124
-65
-20
-30
-81
-117
-108
-79
-73
-92
-104
-95
-88
-108
-146
-164
-145
-107
-71
-52
-62
-101
-152
-182
-169
-135
-117
-126
-139
-141
-151
-187
-225
-219
-164
-110
-109
-164
-229
-259
-248
-216
-187
-175
-186
-211
-230
-233
-231
-236
-244
-241
-228
-231
-264
-312
-342
-339
-324
-315
-313
-311
-319
-355
-418
-468
-471
-430
-385
-374
-403
-450
-493
-523
-537
-531
-511
-496
-507
-540
-572
-583
-574
-562
-557
-555
-548
-542
-550
-582
-627
-656
-643
-584
-512
-470
-478
-513
-528
-494
-422
-347
-286
-241
-206
-178
-150
-100
-13
102
214
293
334
361
400
461
537
607
653
675
686
707
743
783
812
830
852
888
927
948
941
915
886
867
863
874
894
904
885
837
788
770
791
830
858
857
829
788
748
723
722
737
748
737
706
668
636
614
601
601
616
636
642
626
597
574
568
584
616
649
661
633
570
505
478
493
524
539
534
524
516
498
466
440
451
498
539
529
474
423
419
456
488
479
440
412
410
411
382
322
275
283
344
414
448
442
418
404
409
434
470
504
521
510
478
446
438
460
497
526
529
513
495
484
476
468
470
495
536
561
548
507
471
465
485
515
546
568
566
531
478
443
445
470
490
493
481
461
434
414
421
459
506
527
517
494
482
481
481
479
483
497
516
525
512
475
432
407
418
456
488
484
445
402
395
431
485
524
528
508
486
477
476
466
441
411
397
405
421
424
408
382
367
378
415
460
484
473
439
407
400
419
449
477
492
485
457
420
399
412
445
468
463
443
429
423
405
366
324
319
360
411
425
392
347
330
352
390
416
420
404
374
342
320
320
343
377
409
431
429
396
343
306
311
351
390
401
386
362
341
327
320
328
352
375
380
361
335
317
311
312
313
308
296
277
258
249
258
282
314
348
376
392
387
354
290
215
166
178
237
277
238
131
37
29
97
162
163
114
86
118
190
255
293
327
389
475
544
557
514
461
448
486
545
585
589
568
539
510
483
465
460
466
469
460
443
427
415
413
427
450
454
415
334
235
127
-8
-187
-396
-607
-824
-1089
-1416
-1711
-1809
-1604
-1159
-659
-240
141
634
1302
2002
2490
2641
2553
2437
2399
2362
2193
1871
1516
1274
1179
1158
1109
992
832
673
541
450
403
385
369
336
287
238
207
198
200
201
198
195
191
182
159
122
88
80
103
138
151
124
67
19
9
33
62
70
55
38
31
28
15
-6
-16
0
29
38
4
-57
-98
-86
-37
-1
-9
-47
-77
-82
-76
-75
-74
-56
-22
1
-5
-28
-46
-56
-71
-93
-104
-91
-73
-84
-132
-181
-191
-159
-120
-113
-140
-178
-203
-211
-211
-208
-204
-197
-192
-196
-214
-248
-287
-315
-316
-289
-256
-252
-292
-361
-421
-444
-430
-400
-375
-370
-384
-407
-428
-443
-454
-469
-484
-492
-494
-503
-524
-548
-549
-517
-465
-421
-399
-401
-431
-484
-537
-554
-520
-460
-421
-421
-436
-420
-358
-270
-185
-115
-56
-5
37
72
116
177
248
312
367
426
504
594
668
710
732
770
841
923
973
966
926
896
906
951
1000
1032
1039
1027
1001
973
957
959
975
992
999
989
958
913
873
859
875
905
917
900
862
818
779
756
756
773
781
758
711
673
670
689
707
712
719
732
734
708
666
637
633
635
626
615
621
636
631
594
558
565
614
655
641
583
530
509
504
490
473
482
517
544
537
508
494
511
541
567
590
618
643
638
600
563
568
617
670
684
652
600
558
539
543
562
588
611
610
580
535
508
514
540
561
565
564
573
584
577
551
527
530
556
576
572
550
523
496
472
466
493
540
572
560
516
485
495
529
548
533
507
500
512
510
478
439
433
473
520
531
500
460
434
419
402
385
387
411
436
435
409
387
393
425
459
473
463
433
389
343
317
329
375
417
415
374
338
350
402
441
435
410
415
457
482
444
359
296
299
344
371
344
286
241
233
256
295
337
371
381
357
314
278
268
271
268
254
250
271
295
287
250
229
264
332
367
333
265
229
242
263
254
229
233
278
317
304
251
214
231
281
311
297
268
268
300
328
316
274
254
286
344
373
339
272
228
239
286
329
348
347
333
305
267
245
254
287
309
300
273
255
253
263
280
311
350
367
341
282
223
185
159
139
134
160
204
233
227
207
211
252
303
322
291
220
136
65
25
15
23
30
23
1
-25
-44
-55
-66
-73
-63
-21
43
102
144
181
230
291
346
384
409
425
419
426
303
336
397
439
438
409
378
360
353
360
383
409
414
392
360
347
355
359
344
317
286
223
78
-163
-452
-727
-996
-1324
-1740
-2143
-2353
-2262
-1932
-1525
-1133
-688
-51
803
1705
2396
2727
2774
2743
2767
2790
2662
2319
1870
1485
1250
1113
993
862
760
708
669
594
478
367
321
353
412
424
352
228
123
85
101
130
140
133
117
98
83
83
98
109
97
70
50
42
24
-23
-79
-105
-82
-24
30
52
35
-12
-62
-84
-65
-29
-12
-32
-69
-92
-94
-84
-75
-73
-77
-84
-87
-86
-91
-120
-165
-191
-169
-115
-83
-109
-187
-270
-317
-318
-288
-247
-221
-228
-267
-311
-326
-298
-256
-234
-248
-283
-310
-323
-332
-346
-363
-366
-355
-343
-345
-367
-398
-422
-425
-405
-372
-350
-352
-374
-398
-413
-423
-430
-423
-402
-390
-421
-497
-574
-598
-564
-512
-490
-512
-555
-591
-604
-591
-564
-542
-537
-543
-545
-539
-536
-549
-563
-553
-504
-434
-379
-359
-365
-366
-328
-240
-122
-11
63
106
148
213
297
379
449
519
600
686
754
784
788
795
833
898
961
990
984
968
973
1006
1042
1057
1045
1027
1022
1024
1004
951
893
875
910
963
988
969
926
889
872
870
874
872
843
781
713
678
684
701
697
689
709
756
786
756
680
610
580
585
597
599
589
567
548
555
607
687
755
779
765
733
692
641
591
563
566
586
602
607
606
603
598
597
615
655
687
672
600
508
453
458
504
545
555
543
536
551
573
579
566
559
577
602
595
539
464
422
435
480
514
517
501
484
477
481
499
522
539
543
535
520
497
464
441
449
488
531
548
538
522
511
489
450
424
441
485
497
443
362
327
369
439
474
464
449
455
465
448
401
363
369
419
470
480
435
369
327
333
369
399
402
384
365
348
333
327
341
371
396
396
374
344
316
300
304
332
365
369
334
290
274
290
307
305
305
333
376
389
349
287
254
269
297
299
268
241
249
284
312
309
298
313
356
383
353
277
211
192
206
216
213
221
256
290
287
251
226
242
289
327
332
307
269
233
215
229
270
308
310
277
237
218
216
217
220
249
307
360
362
304
240
230
278
324
310
245
185
166
171
167
160
185
245
293
279
219
173
177
210
234
241
256
282
288
252
201
184
215
254
256
223
193
182
174
152
130
143
181
186
119
13
-47
-16
67
123
122
104
119
161
171
115
27
-30
-27
6
17
-12
-60
-94
-103
-93
-73
-38
3
27
18
-14
-26
23
125
232
297
320
330
351
370
361
322
297
320
374
395
348
265
234
296
397
444
405
343
330
366
380
320
225
171
178
200
184
129
66
-1
-101
-251
-427
-623
-872
-1224
-1641
-1964
-2016
-1761
-1345
-954
-632
-245
353
1132
1865
2311
2421
2353
2295
2286
2216
1980
1611
1252
1020
913
861
796
705
608
508
412
343
322
332
320
250
150
84
82
111
118
91
68
72
85
67
15
-39
-65
-70
-75
-86
-97
-114
-148
-185
-190
-140
-69
-38
-69
-127
-159
-149
-133
-145
-176
-192
-172
-138
-127
-156
-207
-235
-212
-148
-93
-89
-136
-197
-228
-221
-193
-162
-140
-137
-162
-205
-233
-218
-169
-127
-125
-150
-170
-179
-212
-283
-348
-350
-292
-247
-272
-343
-378
-338
-263
-223
-233
-256
-268
-285
-324
-366
-379
-356
-329
-330
-349
-362
-366
-372
-386
-391
-377
-355
-344
-352
-374
-404
-441
-475
-490
-478
-457
-457
-484
-518
-533
-528
-512
-489
-455
-421
-415
-454
-516
-553
-535
-485
-445
-431
-424
-390
-339
-310
-316
-321
-278
-181
-79
-28
-27
-30
17
118
245
361
454
522
559
563
555
567
616
684
728
722
676
630
622
663
727
785
820
840
860
881
894
893
879
859
834
806
786
779
777
761
737
735
781
859
919
923
879
824
782
761
755
767
785
785
745
677
628
635
690
746
758
721
660
612
592
594
603
607
608
610
608
592
565
540
534
551
579
597
598
588
576
570
573
588
611
622
603
557
500
456
437
442
468
506
540
550
535
512
502
510
524
532
534
537
540
535
522
515
524
546
568
574
557
520
473
441
440
474
527
575
598
589
550
499
461
458
492
534
546
512
453
412
417
456
496
510
497
471
444
415
391
378
379
387
395
398
395
385
380
392
431
486
522
511
460
397
426
332
337
342
346
358
385
420
439
433
417
422
451
466
433
364
312
310
338
358
359
360
375
389
372
330
296
300
343
396
424
408
358
306
283
302
353
409
441
440
412
377
366
393
440
469
461
426
393
371
351
326
313
331
367
376
336
270
229
238
277
310
322
324
326
325
310
288
274
279
291
284
239
169
111
91
108
130
137
130
129
135
130
100
70
73
122
190
249
296
342
392
434
458
478
512
555
574
547
480
409
372
387
434
474
472
432
383
358
363
380
391
391
388
391
397
398
385
351
297
224
130
3
-173
-406
-686
-996
-1303
-1541
-1607
-1424
-1029
-572
-194
128
555
1204
1958
2526
2699
2550
2344
2270
2279
2194
1939
1610
1358
1223
1139
1032
904
798
722
645
551
459
398
360
328
297
285
299
318
310
269
220
189
176
166
149
135
135
144
137
100
53
34
69
140
195
192
135
64
19
8
19
44
76
100
95
55
11
1
37
86
114
111
91
68
40
9
-7
5
43
79
86
62
24
-4
-7
13
42
59
48
11
-36
-79
-112
-136
-152
-149
-127
-103
-103
-136
-174
-186
-162
-131
-128
-161
-210
-254
-285
-301
-300
-280
-254
-247
-267
-297
-314
-313
-309
-309
-304
-287
-277
-298
-346
-388
-397
-390
-399
-428
-451
-450
-447
-475
-529
-566
-556
-515
-482
-475
-483
-490
-499
-510
-507
-472
-415
-374
-381
-421
-447
-425
-357
-277
-210
-155
-99
-32
36
92
141
207
309
432
532
583
597
615
659
722
787
855
930
994
1018
997
977
1006
1082
1148
1148
1092
1033
1007
1005
998
984
987
1018
1053
1054
1017
973
959
979
1001
996
958
907
868
846
828
807
788
783
796
807
798
761
706
656
632
642
669
684
666
622
579
562
576
607
642
674
691
678
638
600
600
639
684
695
666
624
596
589
585
580
584
607
640
658
650
628
619
632
650
656
649
639
630
616
590
562
551
568
600
626
635
624
599
572
563
583
627
666
677
660
639
633
640
647
646
642
641
636
614
571
529
524
573
653
707
696
636
583
576
606
624
605
564
541
545
552
532
493
471
496
557
611
620
582
529
504
520
557
582
585
579
574
559
519
470
456
501
573
597
539
446
399
432
500
532
507
464
444
444
430
391
353
353
393
436
447
425
395
380
385
401
424
449
468
468
443
410
392
395
404
403
391
374
356
331
306
303
332
379
411
410
397
395
399
385
355
345
388
461
500
466
389
335
339
382
417
418
393
359
327
302
297
319
362
404
420
405
379
369
381
396
393
376
361
359
355
331
288
255
252
277
308
323
310
264
201
157
170
235
303
327
308
285
287
296
282
241
199
173
149
102
38
-12
-23
-1
34
72
105
122
103
60
32
60
141
226
277
292
306
342
397
450
486
508
521
524
512
482
436
396
386
412
452
469
446
396
349
321
318
339
379
423
449
439
402
370
354
332
253
76
-184
-470
-732
-988
-1294
-1644
-1901
-1880
-1522
-985
-511
-174
192
792
1600
2338
2727
2750
2629
2566
2556
2458
2200
1865
1586
1406
1264
1101
930
801
735
696
637
558
483
435
408
386
359
336
327
330
324
292
241
201
196
221
243
234
196
157
135
121
99
73
67
97
141
157
127
68
20
2
5
8
5
5
8
4
-17
-38
-32
10
60
80
59
19
-10
-20
-25
-34
-39
-33
-25
-30
-54
-83
-101
-102
-93
-86
-86
-94
-117
-158
-210
-252
-257
-221
-170
-149
-176
-231
-270
-272
-252
-240
-243
-249
-251
-261
-289
-323
-330
-294
-242
-220
-248
-309
-364
-390
-395
-399
-409
-420
-426
-433
-451
-482
-509
-512
-489
-456
-432
-430
-454
-498
-547
-574
-563
-525
-493
-495
-525
-556
-559
-535
-501
-474
-456
-444
-437
-437
-439
-433
-411
-371
-314
-242
-167
-106
-63
-27
28
117
226
331
413
471
513
547
584
638
714
801
872
916
941
959
975
984
991
1011
1047
1076
1070
1026
980
972
1015
1077
1113
1100
1051
995
961
951
953
952
947
942
935
918
887
849
820
810
810
806
785
752
715
685
666
663
680
717
754
767
739
678
620
601
628
680
720
724
693
650
626
634
666
695
700
684
665
656
651
638
627
639
681
731
746
708
640
586
570
587
613
627
619
593
562
549
572
616
651
652
631
618
621
618
589
549
540
576
624
631
588
533
506
513
533
547
559
571
570
541
496
474
501
559
603
607
584
567
571
584
589
586
585
587
576
549
513
488
486
503
524
539
546
552
556
548
523
487
465
474
504
527
527
506
480
457
438
436
462
506
531
509
456
419
433
486
534
538
494
426
367
339
347
380
419
450
466
468
457
435
413
403
409
425
437
434
411
376
352
361
403
454
480
470
437
401
380
379
397
420
432
424
400
372
347
326
319
343
395
445
457
426
384
367
375
388
389
383
376
364
335
300
288
318
376
421
425
398
369
364
382
403
411
410
411
415
411
391
362
340
340
362
394
414
409
379
347
339
360
392
418
432
439
436
411
370
345
363
414
454
453
417
378
349
328
321
345
395
441
444
406
366
363
396
438
463
463
440
403
366
345
352
380
411
428
426
412
397
401
426
457
470
459
443
446
461
461
437
415
427
475
527
554
555
542
526
510
505
524
554
556
503
420
372
396
460
507
516
514
530
553
544
492
432
405
413
419
398
358
324
302
279
251
235
249
278
282
245
191
171
209
287
372
447
514
571
607
623
629
635
640
640
635
621
585
524
472
476
546
629
656
615
558
537
545
537
493
448
446
474
475
418
339
290
266
200
36
-214
-487
-764
-1084
-1468
-1826
-1987
-1843
-1465
-1045
-709
-386
103
836
1661
2304
2600
2623
2580
2590
2583
2419
2070
1675
1399
1274
1191
1041
825
651
602
642
669
612
492
385
339
343
347
319
268
227
214
224
232
216
180
142
121
117
117
109
95
83
69
49
32
34
56
73
61
26
-3
-11
-13
-17
-12
16
50
43
-27
-112
-135
-72
25
75
48
-19
-70
-79
-63
-50
-57
-79
-103
-119
-128
-131
-126
-109
-82
-60
-60
-88
-127
-154
-162
-167
-182
-197
-194
-170
-147
-150
-175
-199
-206
-200
-194
-192
-192
-202
-235
-287
-326
-325
-286
-247
-246
-286
-339
-372
-373
-353
-333
-326
-337
-364
-401
-442
-470
-474
-459
-444
-446
-466
-485
-498
-522
-559
-590
-585
-547
-522
-549
-614
-656
-633
-566
-509
-491
-495
-485
-461
-448
-462
-484
-472
-407
-310
-220
-165
-138
-114
-64
26
152
286
388
430
431
441
503
607
707
770
801
824
847
863
874
898
942
991
1020
1023
1009
984
945
898
872
889
938
980
984
957
928
922
932
936
925
906
888
868
829
773
726
720
758
808
829
806
761
722
701
692
697
714
730
717
666
600
564
573
596
592
557
519
505
502
480
439
413
431
477
506
499
482
491
526
555
559
557
574
597
587
523
441
399
416
454
463
433
393
375
374
370
359
363
392
418
406
359
315
314
347
377
390
400
421
436
419
375
343
352
388
416
419
409
403
404
405
405
410
423
437
440
428
401
363
327
311
330
383
438
458
426
368
334
353
409
455
457
422
386
370
368
363
356
362
388
413
401
348
290
278
323
386
421
416
396
382
369
346
319
315
342
371
370
342
315
313
331
354
380
407
423
409
364
313
282
273
274
279
294
314
319
295
259
254
299
367
404
377
306
245
230
255
286
302
309
322
342
351
335
304
282
286
307
323
319
300
279
261
244
233
242
275
313
324
289
228
193
220
296
373
404
381
330
287
276
297
332
358
361
345
322
306
297
297
309
333
357
363
346
326
326
350
378
390
387
382
380
370
344
308
290
303
338
372
385
376
353
328
317
326
354
386
404
393
356
315
290
294
318
342
345
320
278
239
218
206
187
159
147
174
228
264
250
207
196
251
344
403
382
298
204
138
110
107
109
96
53
-9
-56
-58
-18
29
55
66
87
131
187
232
259
280
310
361
427
482
494
454
394
366
394
451
483
466
420
379
360
353
352
361
373
371
346
309
279
263
250
226
199
189
190
170
81
-93
-320
-551
-760
-979
-1264
-1616
-1932
-2050
-1874
-1468
-999
-579
-153
424
1183
1950
2461
2608
2526
2445
2458
2453
2268
1884
1450
1139
1006
980
951
862
727
583
460
375
325
299
288
282
273
248
200
144
111
113
137
154
147
119
84
49
24
20
44
84
112
107
75
36
6
-13
-24
-22
1
36
54
33
-18
-60
-66
-44
-25
-29
-44
-58
-73
-97
-120
-114
-69
-11
12
-15
-68
-110
-124
-116
-97
-69
-44
-39
-66
-109
-134
-124
-90
-62
-63
-94
-143
-193
-232
-249
-243
-220
-200
-201
-232
-274
-301
-295
-268
-248
-255
-287
-322
-348
-359
-360
-355
-346
-331
-307
-278
-256
-264
-309
-370
-407
-396
-352
-317
-328
-381
-446
-485
-482
-448
-417
-419
-458
-509
-540
-537
-506
-467
-432
-411
-410
-427
-448
-456
-449
-440
-432
-414
-374
-322
-290
-291
-298
-267
-182
-70
25
82
122
171
241
326
423
530
636
716
755
766
785
833
896
951
993
1037
1078
1085
1039
974
952
1000
1071
1094
1050
992
980
1012
1033
1011
981
997
1060
1103
1066
962
871
852
890
922
906
859
821
809
808
803
797
797
803
806
795
765
714
656
618
624
666
696
680
628
584
583
610
626
620
613
622
637
630
597
563
559
587
618
621
589
542
506
497
517
550
580
595
594
579
551
520
502
513
548
584
597
576
534
498
493
521
557
570
548
514
495
495
496
484
475
491
524
541
516
464
424
419
435
450
463
483
508
519
501
468
454
477
529
578
594
568
517
472
458
478
510
526
515
485
451
419
392
383
407
459
507
513
473
428
425
472
527
546
524
488
464
448
424
397
391
415
448
452
421
384
371
387
406
411
409
418
439
445
416
363
325
328
363
395
400
384
367
360
362
370
385
412
439
450
435
398
359
340
350
391
441
471
462
421
378
366
394
449
499
514
482
422
372
370
414
464
478
457
432
426
427
410
378
365
393
437
456
435
406
409
449
493
515
511
494
478
461
434
396
362
354
386
442
480
470
424
382
377
402
430
440
439
435
423
387
341
319
349
410
451
434
379
338
346
393
447
478
475
443
397
361
355
367
372
355
341
362
412
442
410
333
270
260
285
290
254
204
182
203
248
290
325
363
404
416
368
269
170
122
126
138
121
79
45
35
38
38
40
57
85
96
74
37
24
64
145
236
313
372
419
451
461
454
450
466
492
507
497
469
440
420
411
416
439
469
478
445
381
324
303
320
355
384
386
361
314
252
160
8
-217
-485
-756
-1041
-1393
-1823
-2212
-2370
-2193
-1768
-1292
-881
-461
125
912
1733
2338
2614
2658
2652
2667
2616
2391
2012
1622
1345
1186
1062
923
783
677
598
517
432
375
360
361
346
308
263
216
168
132
127
149
163
133
63
-7
-43
-44
-29
-18
-17
-32
-61
-95
-116
-115
-96
-74
-57
-44
-39
-54
-90
-129
-145
-128
-96
-83
-106
-161
-215
-237
-212
-156
-108
-98
-126
-162
-178
-175
-168
-162
-146
-120
-105
-126
-173
-206
-193
-145
-108
-115
-150
-176
-178
-175
-194
-232
-259
-251
-217
-188
-193
-231
-274
-290
-269
-229
-204
-215
-259
-313
-356
-384
-400
-399
-378
-354
-366
-431
-518
-566
-542
-478
-436
-441
-473
-497
-507
-520
-539
-551
-548
-545
-558
-582
-600
-606
-616
-634
-644
-629
-597
-585
-608
-644
-656
-630
-589
-558
-534
-505
-472
-458
-476
-499
-478
-391
-270
-174
-128
-102
-48
51
164
260
338
419
507
575
605
618
658
739
821
861
856
846
855
865
854
838
860
930
1003
1024
991
944
916
899
880
877
908
950
949
882
802
784
843
918
937
888
816
764
734
710
693
699
730
758
755
721
690
686
701
706
688
657
633
616
584
530
478
465
509
587
654
675
652
615
596
606
627
627
587
523
470
450
453
457
460
481
532
591
615
582
516
469
469
502
530
531
510
488
478
478
483
490
497
505
512
514
510
494
470
457
478
525
561
548
491
443
448
491
520
510
490
502
536
538
479
400
370
409
466
478
438
390
371
386
415
448
481
508
512
486
446
414
401
400
408
429
451
442
380
294
249
293
394
468
464
414
391
425
474
482
445
411
410
426
415
369
316
299
333
399
461
493
484
452
418
401
399
404
411
422
433
434
416
391
378
389
413
429
424
399
363
325
297
293
322
367
392
372
321
274
263
287
322
350
368
373
360
331
301
296
320
346
348
326
302
292
294
292
286
292
317
348
360
341
300
257
232
234
256
283
292
274
242
217
218
252
306
357
378
359
312
269
255
275
305
323
330
333
333
320
293
275
287
315
323
292
242
210
208
212
209
216
254
305
331
312
270
240
232
228
222
230
251
256
212
129
62
58
110
170
194
174
135
112
128
183
246
276
255
197
141
112
101
81
43
13
18
50
67
37
-22
-61
-48
-10
-1
-39
-83
-80
-26
36
72
105
181
304
423
475
452
403
382
394
415
426
428
415
375
304
240
232
285
352
374
336
276
236
223
224
235
253
268
256
202
111
-10
-159
-339
-540
-761
-1026
-1358
-1728
-2023
-2096
-1887
-1482
-1037
-640
-221
351
1096
1841
2346
2508
2449
2370
2352
2300
2086
1708
1305
1015
875
825
782
703
590
460
344
273
252
260
259
231
183
126
67
11
-32
-46
-27
17
57
60
21
-27
-33
18
89
112
61
-24
-77
-69
-31
-6
-2
11
57
114
138
105
41
-4
3
42
70
51
-12
-88
-133
-130
-93
-63
-68
-100
-132
-142
-133
-119
-108
-96
-79
-59
-46
-56
-88
-130
-157
-152
-119
-91
-99
-145
-201
-238
-242
-221
-188
-155
-137
-144
-174
-211
-235
-236
-221
-210
-218
-246
-279
-298
-298
-288
-283
-288
-305
-329
-355
-380
-407
-439
-463
-459
-415
-350
-314
-347
-429
-498
-507
-468
-434
-444
-488
-530
-550
-553
-549
-537
-506
-469
-456
-486
-541
-580
-579
-550
-519
-498
-482
-463
-452
-455
-457
-423
-344
-245
-161
-101
-45
26
107
182
247
320
411
510
587
626
640
665
726
816
897
936
936
923
919
917
902
885
898
945
990
988
938
882
861
877
903
922
938
953
954
928
887
861
864
880
877
838
774
713
678
674
693
722
752
771
766
732
678
631
612
615
623
620
600
570
540
529
549
591
628
632
612
595
593
582
542
494
482
523
577
586
534
461
424
446
501
549
560
531
482
441
426
434
452
465
471
473
469
455
436
425
434
455
472
470
456
446
445
446
444
450
483
542
600
620
591
538
502
505
537
574
590
579
547
513
490
489
509
541
570
575
551
510
475
467
488
520
537
525
487
448
430
441
460
469
465
463
474
488
483
453
415
396
412
453
494
509
491
462
453
475
510
528
521
500
474
440
405
396
435
503
542
518
456
414
416
436
438
426
432
462
485
465
415
385
407
457
490
482
457
442
441
435
420
417
445
489
509
481
418
364
349
371
408
440
460
465
453
419
371
335
336
374
409
400
348
301
307
356
399
404
389
391
406
397
341
274
255
304
377
414
395
351
320
310
306
297
293
305
324
322
288
243
229
262
319
362
373
359
333
299
270
266
293
327
328
284
230
209
228
262
283
293
312
342
359
333
263
183
132
125
140
145
124
83
39
4
-9
9
47
76
71
41
22
45
104
173
241
314
394
455
470
441
406
407
446
495
517
498
455
416
402
414
434
449
452
440
409
364
319
298
309
341
377
391
371
317
242
160
62
-79
-280
-518
-765
-1036
-1362
-1706
-1917
-1829
-1430
-902
-461
-135
246
839
1574
2188
2472
2453
2333
2258
2205
2063
1800
1499
1269
1133
1044
959
873
787
689
568
449
378
363
365
335
275
217
184
165
142
123
126
145
144
102
41
6
20
58
81
71
37
-1
-30
-41
-27
5
32
34
15
0
0
0
-16
-39
-46
-28
-6
-7
-33
-58
-59
-43
-35
-46
-62
-67
-67
-88
-134
-170
-148
-68
7
8
-67
-152
-179
-154
-134
-150
-172
-155
-110
-90
-129
-188
-206
-171
-129
-131
-176
-224
-249
-255
-253
-234
-185
-129
-113
-160
-241
-300
-310
-298
-305
-345
-392
-412
-405
-397
-411
-441
-458
-441
-409
-407
-460
-547
-616
-632
-606
-575
-569
-589
-619
-646
-669
-686
-690
-671
-631
-589
-572
-601
-662
-714
-717
-666
-601
-569
-581
-601
-589
-534
-455
-372
-287
-195
-106
-43
-8
20
72
151
243
333
417
496
565
613
645
675
721
786
857
917
954
961
953
954
985
1034
1069
1069
1043
1018
996
966
929
915
949
1015
1057
1035
964
906
902
941
978
976
934
876
826
786
755
742
757
797
829
819
761
691
657
672
702
707
679
649
637
636
629
619
623
643
660
662
657
655
646
615
573
555
575
601
591
542
491
466
456
440
434
471
540
577
535
446
395
426
499
534
505
451
420
417
424
437
470
529
593
631
632
610
581
557
547
555
572
576
551
504
467
464
495
540
583
619
642
637
602
556
533
550
583
600
584
553
531
524
523
523
529
547
568
568
534
480
438
437
468
501
510
501
494
496
495
480
466
480
520
549
529
470
421
418
451
482
494
496
495
478
439
394
375
392
423
439
433
419
408
395
381
380
403
446
481
483
451
410
386
388
402
410
405
391
379
372
361
347
340
360
408
456
462
414
341
289
283
315
351
364
349
322
300
295
303
317
334
353
363
349
303
246
211
220
263
308
325
306
265
229
220
246
290
323
323
291
250
224
222
236
256
277
298
314
318
305
283
263
252
253
261
274
284
285
268
236
214
226
275
331
354
329
282
248
240
249
260
273
289
297
283
245
208
207
251
311
343
327
278
231
210
214
234
269
314
351
358
340
323
331
351
349
313
270
245
231
198
147
119
151
228
288
283
232
184
169
173
171
166
184
228
259
238
176
129
145
205
249
237
184
127
91
80
93
126
160
176
175
183
207
221
199
157
141
169
204
194
138
81
58
61
74
92
120
139
121
67
26
43
109
178
219
255
317
398
455
460
438
439
481
531
537
484
413
376
391
431
464
481
491
500
491
458
419
410
443
487
499
465
420
396
387
367
330
291
241
135
-70
-353
-645
-912
-1196
-1541
-1885
-2070
-1975
-1646
-1249
-891
-506
66
868
1722
2355
2626
2632
2584
2589
2576
2420
2107
1750
1464
1264
1094
927
797
740
734
705
618
498
394
335
322
343
377
393
358
276
188
146
161
196
206
181
141
111
89
58
22
7
34
85
111
87
33
-6
-10
7
20
20
15
6
-16
-56
-93
-105
-83
-40
2
27
24
-4
-45
-77
-85
-68
-43
-31
-39
-65
-94
-109
-102
-80
-61
-56
-69
-92
-120
-156
-197
-224
-219
-184
-151
-155
-197
-244
-261
-246
-231
-241
-263
-271
-259
-252
-275
-319
-343
-316
-247
-186
-179
-233
-312
-363
-362
-329
-307
-323
-369
-413
-438
-451
-467
-482
-483
-467
-458
-483
-545
-609
-629
-597
-549
-533
-559
-592
-601
-589
-578
-575
-555
-502
-434
-397
-409
-444
-465
-467
-470
-489
-505
-485
-425
-352
-304
-285
-256
-176
-42
96
179
196
183
193
251
352
479
615
732
804
823
826
866
960
1067
1127
1113
1053
998
978
990
1016
1046
1078
1108
1127
1131
1123
1112
1107
1107
1108
1106
1101
1081
1040
987
946
939
965
995
999
971
927
890
873
876
893
916
933
933
907
859
807
776
770
770
753
716
692
712
776
840
855
812
751
727
754
788
763
659
539
492
547
643
687
660
621
627
666
682
664
663
724
808
827
754
652
610
650
718
761
766
752
716
657
602
605
687
801
860
822
725
647
645
711
785
809
762
672
593
566
598
661
715
742
744
743
748
749
726
672
603
552
541
558
569
552
517
497
513
564
635
712
767
768
699
592
515
518
578
625
615
570
537
529
523
499
475
484
516
526
484
421
398
447
537
612
638
623
590
556
524
495
469
448
435
445
489
555
606
611
569
517
499
520
535
500
427
391
452
586
694
711
674
663
693
695
618
515
488
555
623
600
516
472
512
573
578
540
523
549
568
538
478
440
438
447
452
467
501
530
520
486
479
-21846
283
249
239
258
270
245
205
195
221
238
218
180
166
183
191
163
112
78
77
86
70
17
-51
-92
-82
-39
-8
-28
-86
-130
-112
-35
50
101
119
138
178
226
256
270
292
341
394
411
384
350
350
385
418
420
404
396
402
401
377
343
329
336
339
315
264
202
150
113
80
30
-65
-217
-406
-605
-812
-1069
-1399
-1735
-1911
-1791
-1394
-895
-462
-90
383
1077
1890
2544
2826
2758
2553
2390
2275
2094
1789
1435
1156
1000
913
815
682
559
486
449
401
313
201
117
94
124
163
167
134
94
76
72
58
16
-37
-72
-75
-57
-50
-64
-88
-100
-94
-85
-90
-110
-128
-128
-120
-125
-155
-190
-198
-170
-133
-128
-167
-227
-270
-277
-256
-229
-215
-221
-237
-251
-256
-254
-253
-253
-251
-256
-282
-330
-377
-385
-349
-311
-309
-341
-367
-361
-341
-342
-371
-401
-405
-382
-354
-342
-351
-376
-409
-430
-423
-392
-362
-359
-385
-420
-443
-456
-462
-462
-461
-469
-500
-548
-591
-608
-603
-594
-596
-610
-624
-633
-640
-650
-665
-676
-675
-660
-642
-640
-665
-708
-741
-749
-735
-717
-711
-720
-733
-747
-758
-762
-753
-730
-698
-673
-669
-685
-701
-689
-636
-564
-507
-481
-466
-428
-356
-271
-196
-126
-40
68
176
256
308
363
440
532
611
661
693
720
740
752
765
794
834
865
867
852
845
857
875
884
884
891
909
925
922
891
840
794
776
791
812
801
749
688
659
668
684
681
672
679
692
681
642
608
608
630
635
617
609
630
651
627
562
510
513
555
583
570
535
510
500
494
489
498
524
542
519
455
388
370
412
472
500
483
451
446
474
504
507
483
458
451
455
450
426
391
367
369
397
433
448
435
410
408
442
484
497
476
453
457
473
454
385
303
265
284
310
285
204
121
105
175
294
397
440
443
443
452
439
382
313
281
287
276
218
157
159
223
282
294
289
299
297
240
159
148
237
331
324
242
219
323
464
504
413
293
250
291
343
349
302
235
175
143
143
160
174
177
178
173
153
122
111
144
202
236
219
175
152
172
213
236
234
226
230
243
241
212
171
151
166
199
219
213
197
196
212
225
216
194
183
187
183
153
107
82
108
168
218
225
209
205
225
246
240
212
188
181
176
151
109
80
84
117
150
161
158
157
159
139
81
10
-22
6
48
42
-19
-72
-56
21
89
104
83
66
58
34
-15
-59
-63
-30
8
19
-5
-60
-128
-172
-158
-92
-36
-44
-103
-137
-95
-13
22
-28
-119
-179
-191
-194
-223
-264
-287
-282
-273
-275
-274
-256
-233
-241
-288
-327
-298
-191
-61
26
51
56
88
144
182
171
131
107
115
120
81
20
9
85
195
236
174
80
49
89
123
91
27
2
32
57
21
-60
-122
-142
-166
-261
-452
-704
-969
-1234
-1522
-1843
-2126
-2233
-2060
-1641
-1152
-742
-377
109
806
1578
2153
2370
2312
2188
2118
2060
1909
1638
1315
1032
831
696
582
453
308
183
108
75
34
-53
-159
-213
-185
-127
-110
-150
-196
-208
-203
-221
-266
-302
-310
-306
-320
-353
-388
-415
-427
-415
-368
-303
-268
-291
-347
-387
-393
-387
-385
-375
-346
-325
-346
-400
-437
-425
-399
-405
-443
-463
-436
-400
-411
-471
-522
-514
-464
-424
-430
-472
-521
-555
-563
-540
-494
-461
-477
-541
-601
-613
-583
-559
-572
-601
-604
-572
-543
-545
-565
-573
-564
-566
-594
-631
-651
-660
-679
-714
-736
-716
-670
-640
-655
-699
-734
-741
-731
-726
-733
-744
-755
-767
-784
-803
-823
-842
-861
-879
-890
-887
-885
-904
-948
-981
-959
-882
-806
-793
-846
-910
-933
-917
-900
-902
-912
-914
-917
-928
-935
-904
-828
-731
-647
-578
-514
-451
-395
-348
-291
-217
-142
-94
-71
-33
54
175
279
341
386
460
561
638
653
624
608
635
684
719
731
745
769
780
755
714
704
742
792
800
759
712
702
724
743
735
718
715
722
714
675
624
586
569
561
554
541
520
487
449
427
438
479
526
551
542
511
481
463
456
453
450
447
448
446
430
400
377
378
396
400
372
328
302
304
314
313
307
316
337
343
319
278
253
256
276
295
315
340
364
370
351
323
308
318
340
347
324
277
233
220
240
272
291
296
303
316
317
289
245
226
253
304
334
320
282
251
245
266
303
342
363
345
294
248
250
301
365
396
385
357
342
346
355
356
352
349
342
329
313
307
310
310
298
286
290
312
328
313
274
239
230
244
260
267
266
258
243
221
212
233
276
313
323
307
291
288
290
284
270
263
271
283
278
245
195
161
168
210
249
250
220
196
208
242
254
227
195
203
252
287
264
199
159
187
258
304
287
228
180
167
175
180
181
197
229
252
240
200
165
163
190
217
222
199
160
119
87
70
59
42
11
-23
-39
-29
-3
27
58
91
122
141
133
89
13
-80
-157
-187
-162
-116
-97
-123
-164
-175
-142
-102
-97
-131
-165
-157
-108
-51
-6
37
105
201
288
327
312
270
234
214
207
205
205
203
198
187
172
159
154
158
170
180
178
153
109
68
59
80
106
105
62
-18
-135
-292
-489
-712
-938
-1171
-1449
-1772
-2042
-2091
-1816
-1298
-746
-294
131
699
1442
2151
2558
2594
2447
2339
2303
2201
1931
1566
1256
1062
923
776
638
556
519
446
297
137
56
70
104
89
28
-26
-52
-74
-117
-167
-185
-161
-132
-131
-162
-202
-230
-243
-247
-242
-226
-213
-218
-246
-280
-298
-291
-265
-235
-214
-208
-217
-235
-253
-261
-248
-221
-198
-200
-233
-277
-298
-278
-228
-183
-168
-183
-205
-220
-225
-233
-245
-253
-251
-246
-248
-259
-276
-284
-276
-250
-224
-214
-227
-254
-275
-282
-285
-296
-310
-310
-294
-286
-309
-358
-395
-389
-352
-328
-346
-393
-430
-443
-442
-451
-468
-471
-451
-428
-436
-486
-552
-593
-600
-597
-612
-646
-677
-691
-698
-718
-744
-749
-716
-666
-638
-654
-698
-734
-743
-729
-709
-701
-720
-764
-814
-835
-808
-744
-676
-624
-578
-526
-473
-436
-411
-369
-285
-172
-74
-14
31
98
200
309
392
448
502
571
644
700
734
767
820
892
963
1010
1026
1022
1014
1010
1009
1008
1003
999
999
1002
1005
1006
1010
1026
1063
1110
1143
1143
1111
1073
1048
1035
1024
1011
1004
998
976
929
878
864
897
944
956
919
864
832
834
846
838
809
780
769
771
763
728
679
645
646
676
708
720
701
652
585
526
506
533
582
608
592
555
536
550
581
603
604
585
552
510
473
455
460
477
491
504
521
539
540
517
482
460
458
467
471
466
452
426
389
358
354
385
430
452
441
414
404
419
446
462
457
438
412
385
361
343
340
353
375
386
379
362
355
369
386
381
357
342
356
389
410
405
397
412
447
480
492
483
464
439
415
410
436
485
522
529
511
485
457
437
438
469
505
495
425
344
314
342
369
350
309
304
348
387
373
332
328
379
432
431
379
338
341
359
348
318
322
379
443
454
404
345
324
336
346
331
300
277
274
280
278
261
237
233
270
330
360
324
244
191
208
265
295
269
223
210
232
252
241
219
225
264
302
298
252
193
160
169
217
277
316
310
271
239
250
291
319
307
264
221
196
186
181
176
160
129
99
92
111
120
90
42
28
68
114
109
51
5
16
64
96
92
80
94
124
135
105
50
-2
-33
-49
-64
-84
-108
-139
-181
-229
-264
-268
-244
-222
-229
-257
-262
-215
-125
-32
45
120
205
280
312
292
253
231
236
247
245
226
201
178
161
157
175
208
238
240
207
155
112
94
104
134
153
137
84
12
-62
-156
-309
-535
-799
-1060
-1327
-1657
-2052
-2380
-2445
-2165
-1671
-1192
-817
-404
249
1125
1948
2421
2501
2415
2385
2406
2300
1963
1511
1149
965
872
756
610
501
451
399
289
155
74
68
79
55
3
-40
-68
-105
-148
-155
-116
-83
-126
-235
-316
-296
-204
-133
-134
-169
-175
-143
-118
-132
-165
-175
-152
-130
-144
-196
-255
-282
-269
-244
-244
-277
-311
-305
-261
-211
-188
-194
-198
-178
-143
-127
-159
-231
-298
-315
-280
-249
-275
-354
-416
-411
-357
-320
-332
-355
-345
-313
-301
-319
-334
-327
-328
-363
-401
-373
-277
-207
-259
-406
-534
-553
-498
-467
-507
-577
-631
-653
-653
-626
-561
-484
-450
-486
-552
-588
-585
-587
-621
-658
-652
-605
-585
-644
-746
-797
-745
-646
-603
-661
-765
-825
-805
-741
-688
-672
-687
-716
-736
-735
-705
-668
-654
-662
-671
-664
-658
-675
-701
-700
-652
-577
-510
-448
-368
-264
-163
-91
-44
6
87
190
290
369
434
500
574
649
715
771
814
838
838
823
818
841
887
932
958
973
994
1017
1017
983
935
905
908
922
915
875
812
750
713
717
754
789
786
746
713
731
798
854
843
762
672
629
629
620
558
465
421
479
608
710
703
595
473
419
434
453
424
360
322
344
398
432
434
439
480
536
550
492
395
337
359
433
492
494
463
447
454
450
413
374
377
422
456
431
362
313
323
369
403
406
393
376
343
295
262
276
316
326
291
263
300
385
432
389
305
271
311
365
369
319
254
201
171
184
258
365
426
403
358
388
502
595
565
436
328
315
349
331
238
146
136
206
295
346
362
369
381
385
365
331
316
330
340
306
226
160
166
241
325
353
321
260
208
190
219
286
351
365
322
278
279
311
313
265
219
235
291
313
271
211
206
261
307
289
225
180
189
224
234
208
183
211
291
362
368
312
266
283
343
370
326
257
230
250
261
225
168
160
217
286
301
255
200
195
248
314
357
364
346
313
272
231
201
180
146
90
42
50
105
145
125
73
73
162
279
321
258
159
112
141
189
186
119
42
16
57
109
105
47
8
52
151
215
191
123
85
86
68
-5
-93
-143
-159
-190
-243
-273
-240
-176
-147
-167
-189
-176
-155
-174
-223
-236
-175
-87
-45
-58
-63
-16
58
102
115
144
205
249
221
147
108
149
219
240
199
161
172
202
187
119
58
63
121
163
139
68
11
1
20
31
9
-56
-183
-394
-677
-976
-1239
-1484
-1770
-2092
-2314
-2264
-1902
-1389
-923
-536
-65
629
1460
2153
2497
2526
2447
2408
2370
2211
1895
1516
1188
940
734
549
408
331
298
257
183
95
24
-19
-50
-78
-96
-96
-93
-115
-172
-239
-273
-254
-206
-180
-201
-248
-280
-277
-252
-230
-215
-196
-176
-174
-209
-272
-322
-323
-281
-237
-228
-254
-282
-291
-286
-284
-286
-277
-255
-242
-264
-318
-366
-372
-342
-308
-302
-318
-330
-322
-309
-311
-323
-316
-273
-221
-204
-241
-300
-335
-333
-320
-322
-345
-375
-395
-401
-400
-403
-414
-428
-431
-418
-404
-417
-463
-524
-566
-579
-577
-572
-559
-535
-516
-524
-560
-597
-600
-570
-542
-558
-623
-700
-742
-735
-708
-700
-722
-751
-764
-768
-781
-807
-823
-809
-783
-779
-807
-852
-891
-923
-955
-975
-961
-920
-894
-915
-965
-979
-917
-804
-711
-680
-688
-682
-628
-539
-454
-397
-351
-281
-168
-29
93
168
217
284
391
507
588
622
639
667
697
707
706
729
801
896
952
938
888
863
890
942
968
947
900
859
840
833
827
830
854
884
890
851
790
749
744
757
762
754
743
728
699
669
662
681
690
658
605
579
599
621
590
518
479
525
617
659
598
483
409
424
489
524
496
446
434
474
519
513
458
406
412
468
511
482
393
324
344
438
520
521
459
407
409
434
423
367
316
312
339
352
332
294
262
245
245
270
312
334
310
258
235
270
329
357
342
324
334
355
342
295
264
287
348
387
380
359
366
400
422
410
386
385
404
412
389
356
340
346
355
357
359
365
369
356
332
316
327
358
382
373
335
297
289
309
328
320
298
293
316
338
324
277
232
216
228
249
270
285
286
262
226
214
239
276
285
258
225
216
232
256
281
317
361
383
364
318
291
303
330
339
327
317
316
298
253
208
211
260
307
309
281
272
300
338
347
326
309
318
336
331
291
235
199
210
261
322
358
356
330
300
280
271
268
264
248
210
159
121
115
137
170
202
239
276
289
254
187
135
135
175
203
187
145
131
173
253
321
337
307
267
248
252
247
208
152
126
159
226
271
268
242
236
253
257
223
174
151
158
146
75
-21
-60
-1
99
142
95
22
6
46
73
45
5
31
131
239
291
299
316
367
431
476
495
494
473
432
390
374
391
425
457
475
474
448
405
370
362
367
358
329
302
290
281
253
214
197
210
212
140
-28
-248
-458
-648
-867
-1183
-1580
-1919
-2022
-1814
-1403
-977
-616
-208
417
1268
2117
2665
2798
2667
2524
2494
2496
2366
2040
1616
1252
1040
959
924
872
785
670
543
428
346
302
281
263
244
235
228
201
140
69
32
49
91
110
85
40
11
3
-3
-27
-62
-85
-83
-68
-61
-65
-56
-16
49
111
141
141
135
132
110
53
-18
-54
-31
15
21
-29
-83
-79
-14
48
46
-16
-75
-87
-67
-62
-86
-108
-97
-66
-51
-71
-98
-102
-86
-82
-102
-118
-102
-61
-43
-76
-138
-176
-167
-130
-109
-126
-174
-227
-265
-277
-267
-249
-233
-222
-219
-232
-268
-311
-333
-320
-294
-288
-314
-354
-386
-412
-434
-443
-426
-398
-402
-463
-547
-591
-562
-502
-486
-537
-605
-624
-588
-555
-581
-650
-702
-695
-651
-618
-615
-627
-633
-625
-608
-573
-515
-446
-389
-356
-333
-295
-229
-133
-10
119
228
296
337
391
480
584
671
729
777
825
858
857
844
863
931
1018
1069
1071
1054
1057
1081
1098
1093
1079
1071
1058
1025
979
952
958
972
957
915
886
896
918
906
860
827
840
876
884
848
804
786
784
762
716
686
706
751
767
730
673
644
653
668
662
640
617
598
571
537
516
528
566
596
595
565
532
511
503
498
500
516
546
570
561
511
455
443
489
557
587
559
506
477
483
496
493
489
503
522
510
451
389
383
446
520
539
499
450
439
457
467
457
456
489
533
540
500
449
429
438
440
416
383
370
386
414
434
437
422
406
409
440
480
493
470
440
440
476
524
561
580
582
555
495
433
409
435
477
495
481
452
432
431
449
479
500
496
474
460
465
476
470
452
451
471
487
466
416
370
358
375
403
434
458
458
427
381
358
382
428
454
440
411
407
433
454
441
403
382
401
433
429
372
298
266
303
376
425
422
383
349
342
351
357
353
354
365
377
381
381
388
400
403
389
368
352
337
306
263
240
258
296
313
300
291
317
351
342
278
211
206
262
317
318
270
220
205
217
225
215
198
187
177
163
152
162
198
242
265
253
219
185
157
122
75
35
36
83
136
154
130
104
116
158
192
189
151
99
44
-7
-36
-28
3
20
-3
-51
-82
-81
-74
-93
-131
-149
-117
-55
-3
26
49
87
145
212
278
341
389
398
362
308
281
297
336
359
348
317
280
252
239
249
268
265
218
144
89
78
100
125
139
149
157
134
51
-106
-320
-564
-818
-1082
-1385
-1748
-2117
-2342
-2277
-1912
-1406
-938
-536
-54
629
1419
2059
2364
2382
2316
2306
2302
2160
1824
1393
1038
847
766
680
518
314
160
99
97
90
46
-8
-30
-8
32
53
38
-4
-46
-64
-50
-22
-3
-2
-12
-36
-85
-148
-184
-166
-118
-105
-161
-238
-262
-222
-178
-177
-196
-181
-136
-116
-155
-205
-199
-133
-74
-71
-106
-129
-132
-154
-209
-247
-209
-126
-96
-178
-312
-377
-324
-222
-176
-210
-262
-273
-252
-246
-265
-274
-254
-234
-254
-304
-338
-326
-291
-277
-293
-303
-283
-250
-254
-316
-396
-438
-423
-381
-359
-372
-408
-451
-491
-518
-516
-489
-466
-485
-542
-597
-615
-601
-590
-600
-623
-650
-686
-729
-760
-760
-746
-759
-805
-827
-767
-656
-606
-688
-838
-905
-814
-663
-619
-736
-908
-986
-941
-869
-853
-875
-863
-797
-731
-709
-703
-641
-505
-351
-247
-199
-155
-71
42
141
206
268
367
489
575
593
584
621
731
851
909
903
897
932
974
966
909
863
872
904
896
843
802
816
867
905
905
899
911
929
922
887
859
861
869
843
781
728
722
741
728
667
608
610
666
704
671
594
539
532
540
523
496
502
546
580
564
522
505
528
560
556
524
498
494
484
442
393
387
435
490
489
424
353
338
381
426
428
406
407
452
506
518
481
436
417
416
399
359
325
326
349
361
354
362
412
479
494
419
293
211
224
285
299
220
110
73
143
253
312
304
294
345
435
481
432
327
263
295
388
460
461
408
359
357
398
451
482
481
458
424
388
352
322
311
330
369
404
411
393
374
371
378
377
364
350
346
346
336
317
305
313
337
365
386
395
387
363
336
326
339
349
327
276
234
233
263
284
273
251
257
294
322
303
244
190
179
204
236
260
281
305
329
338
333
320
306
290
270
246
214
174
137
129
170
252
332
362
328
255
191
169
188
219
230
207
164
137
151
199
240
242
208
176
182
220
251
245
212
191
208
251
275
241
155
66
28
57
114
148
145
131
134
155
176
197
232
265
258
193
108
64
74
89
66
22
11
49
95
102
77
60
79
119
143
130
85
24
-34
-64
-55
-22
6
13
5
-2
-3
-8
-25
-49
-68
-74
-58
-19
34
75
93
111
169
277
385
424
378
305
274
294
311
282
234
228
273
311
288
226
199
242
303
308
245
164
121
126
152
170
163
111
6
-140
-307
-493
-709
-958
-1224
-1489
-1737
-1914
-1916
-1656
-1175
-640
-189
208
701
1349
1992
2381
2427
2285
2176
2159
2101
1875
1513
1169
947
820
703
567
450
372
297
172
17
-95
-117
-81
-62
-96
-156
-189
-184
-176
-198
-237
-248
-203
-123
-72
-99
-192
-290
-335
-309
-248
-200
-192
-217
-249
-262
-249
-219
-183
-160
-165
-202
-256
-300
-306
-275
-240
-234
-260
-289
-294
-285
-288
-321
-364
-384
-372
-352
-353
-377
-393
-378
-339
-307
-306
-328
-339
-321
-285
-266
-283
-327
-361
-367
-361
-374
-414
-457
-470
-440
-378
-298
-223
-183
-206
-281
-352
-366
-335
-328
-396
-504
-572
-563
-527
-523
-549
-549
-497
-452
-485
-592
-685
-691
-626
-573
-585
-640
-679
-681
-675
-691
-721
-736
-723
-712
-733
-789
-850
-884
-886
-868
-851
-850
-867
-885
-883
-852
-808
-770
-739
-700
-644
-585
-542
-518
-489
-437
-358
-253
-128
-7
75
102
110
160
278
418
509
526
515
536
602
678
727
748
766
797
834
851
844
835
851
893
929
925
880
829
807
812
819
818
817
822
839
859
873
869
841
799
769
765
761
717
634
563
551
584
604
584
558
572
608
599
521
436
433
516
598
592
508
432
423
454
462
428
393
392
405
385
312
229
193
222
292
368
419
425
382
316
280
310
373
401
355
286
278
358
462
515
521
541
596
624
558
430
354
388
458
434
285
119
58
119
212
251
237
230
267
335
400
444
463
459
431
385
343
336
380
468
560
603
586
549
561
632
691
651
502
334
245
253
296
310
299
309
360
419
439
412
379
390
457
539
568
512
405
328
334
399
447
433
397
401
450
493
480
430
400
401
387
321
227
162
156
190
238
301
376
433
436
391
341
325
341
360
364
356
343
324
312
334
398
459
458
378
268
199
197
228
239
222
217
266
347
390
345
256
214
266
352
369
293
199
171
212
258
267
255
247
239
213
184
184
214
236
222
203
227
296
348
335
271
218
217
255
299
341
372
367
315
263
294
430
562
542
349
136
77
167
238
168
33
0
113
248
273
208
175
231
312
346
342
352
366
328
231
151
153
195
192
123
65
94
183
259
296
332
386
411
366
277
221
219
217
169
120
149
259
352
345
261
185
163
162
141
107
95
103
107
115
169
269
343
311
185
61
9
14
6
-36
-71
-60
-27
-18
-42
-63
-56
-25
-1
-5
-38
-79
-97
-66
12
99
152
178
221
305
389
421
396
357
343
349
355
362
383
396
363
286
224
233
288
311
257
156
65
14
2
37
129
238
275
203
90
36
38
-20
-235
-558
-865
-1112
-1384
-1743
-2084
-2200
-1989
-1562
-1116
-720
-266
365
1135
1859
2368
2632
2719
2697
2577
2349
2044
1721
1428
1177
966
793
660
554
456
365
296
261
234
177
93
25
14
46
70
51
0
-36
-30
6
33
21
-21
-55
-46
-8
-11
-95
-224
-305
-291
-227
-207
-264
-345
-374
-325
-247
-208
-237
-316
-378
-369
-297
-236
-262
-356
-416
-365
-251
-195
-253
-336
-330
-242
-189
-245
-347
-366
-266
-148
-138
-247
-372
-419
-385
-335
-315
-325
-338
-332
-320
-327
-377
-469
-574
-658
-704
-730
-768
-832
-891
-882
-769
-581
-428
-413
-536
-664
-645
-461
-258
-214
-346
-484
-451
-246
-52
-34
-183
-328
-328
-227
-190
-311
-499
-577
-497
-382
-383
-509
-625
-634
-596
-632
-769
-892
-894
-802
-737
-759
-817
-824
-763
-689
-645
-624
-605
-595
-622
-687
-749
-758
-704
-625
-564
-524
-484
-419
-327
-230
-147
-79
-10
72
162
237
283
313
352
428
530
627
689
716
743
799
871
919
917
880
841
803
732
599
438
337
357
453
512
470
383
366
459
590
644
592
506
458
458
464
454
444
440
417
362
312
315
368
395
321
171
51
46
143
244
262
185
78
18
42
127
206
205
101
-40
-104
-32
115
213
190
102
64
110
160
135
68
65
163
265
254
141
60
98
191
220
159
97
97
100
24
-92
-107
43
233
278
149
4
-2
108
186
145
52
21
70
122
110
59
38
69
116
136
130
116
108
105
110
126
132
107
66
56
96
138
115
25
-53
-43
44
131
162
147
118
90
63
48
58
83
87
48
-13
-52
-47
-19
-1
-2
-2
18
61
96
101
91
102
150
197
202
164
129
123
120
90
51
50
94
132
120
77
56
72
84
56
12
-6
5
-11
-94
-217
-298
-288
-215
-164
-188
-254
-274
-191
-39
97
169
197
225
255
249
191
102
15
-70
-162
-253
-318
-342
-335
-296
-228
-147
-84
-41
20
114
184
164
74
19
71
165
167
42
-103
-144
-75
-3
-4
-62
-109
-112
-92
-83
-97
-122
-130
-98
-36
10
-2
-50
-65
-4
100
175
182
148
122
123
140
142
106
52
36
97
184
181
50
-92
-80
96
255
227
62
-24
84
272
342
257
157
158
218
225
163
130
180
243
226
147
113
180
264
255
154
74
107
225
320
329
278
229
198
156
84
4
-52
-84
-112
-157
-215
-262
-263
-191
-53
98
191
201
176
195
296
443
564
611
596
557
516
477
444
423
398
334
245
211
295
452
551
519
435
438
550
649
620
497
418
452
527
544
491
414
322
167
-74
-358
-616
-846
-1098
-1407
-1735
-1976
-2006
-1759
-1281
-718
-214
214
685
1300
1981
2491
2662
2557
2399
2327
2290
2145
1837
1469
1193
1069
1040
1003
900
755
619
512
417
303
175
90
107
202
280
253
128
11
6
114
230
249
162
72
92
221
341
345
250
167
168
190
130
-22
-159
-187
-125
-75
-86
-111
-87
-26
6
-32
-118
-198
-223
-183
-118
-99
-157
-241
-249
-134
32
116
65
-49
-129
-150
-159
-186
-210
-213
-229
-283
-336
-312
-202
-95
-84
-157
-205
-168
-100
-97
-170
-248
-278
-289
-332
-380
-359
-286
-266
-356
-466
-448
-291
-158
-204
-392
-522
-460
-271
-136
-163
-303
-443
-523
-558
-578
-598
-626
-670
-721
-732
-670
-573
-531
-591
-682
-679
-559
-438
-453
-605
-756
-782
-692
-588
-548
-571
-613
-640
-647
-636
-608
-572
-537
-492
-437
-403
-410
-426
-373
-226
-60
25
23
29
132
317
488
567
563
538
559
650
759
805
760
707
777
988
1197
1228
1079
947
1009
1217
1344
1247
1035
935
1046
1243
1317
1209
1049
1007
1116
1241
1236
1099
964
949
1023
1061
1007
945
987
1118
1200
1154
1057
1042
1120
1161
1068
897
786
777
797
780
769
851
1007
1122
1123
1058
1041
1096
1135
1082
956
839
775
749
740
755
793
815
789
752
765
828
855
785
683
690
839
993
1000
878
790
837
939
938
799
640
597
672
759
778
743
715
731
778
827
853
840
789
722
678
675
701
729
745
762
792
830
861
875
871
855
825
774
701
619
551
517
522
557
604
640
643
616
582
571
594
629
646
635
600
551
504
477
481
510
534
526
485
440
414
414
426
436
444
456
465
443
380
299
243
227
227
208
170
157
201
277
329
334
323
345
407
461
459
399
328
290
298
328
349
347
322
291
272
266
255
231
213
227
269
295
267
210
190
232
277
246
143
59
61
116
132
79
25
53
152
242
271
258
242
233
219
211
227
259
262
209
133
104
153
252
341
375
347
281
224
212
248
295
303
256
177
96
33
-3
10
71
128
117
34
-39
-32
38
76
23
-69
-105
-71
-43
-81
-152
-178
-140
-104
-126
-179
-192
-151
-125
-175
-265
-297
-223
-102
-20
9
50
148
261
310
279
238
259
338
406
411
364
314
306
338
380
394
356
291
244
237
242
218
175
165
226
298
284
162
17
-45
-30
-54
-232
-575
-989
-1380
-1734
-2105
-2510
-2860
-3003
-2855
-2485
-2032
-1544
-912
-21
1058
2042
2648
2831
2791
2741
2728
2632
2348
1907
1436
1057
824
732
726
736
700
599
475
373
308
259
203
144
89
32
-34
-91
-106
-71
-25
-19
-49
-61
-20
39
40
-49
-177
-265
-279
-258
-255
-285
-315
-305
-250
-177
-124
-104
-104
-101
-101
-136
-220
-325
-381
-362
-308
-278
-295
-322
-319
-299
-304
-348
-387
-385
-354
-336
-342
-350
-337
-319
-320
-329
-318
-293
-294
-330
-355
-330
-283
-278
-319
-343
-308
-275
-336
-487
-615
-624
-550
-502
-531
-592
-627
-626
-606
-568
-501
-426
-399
-448
-527
-566
-549
-520
-518
-541
-566
-609
-704
-833
-901
-838
-694
-624
-724
-917
-1028
-982
-872
-844
-933
-1045
-1078
-1027
-958
-915
-902
-910
-925
-920
-870
-797
-766
-805
-863
-868
-820
-785
-795
-780
-671
-510
-407
-415
-441
-348
-126
79
127
35
-31
57
259
415
435
395
447
637
849
933
870
791
824
948
1029
981
863
800
836
900
901
838
789
803
853
879
853
807
792
825
887
937
941
898
852
835
842
828
767
687
646
675
735
769
751
709
685
704
746
762
723
648
582
557
561
567
575
611
682
745
749
700
662
684
739
758
699
597
522
510
537
557
560
576
617
651
631
568
532
580
669
696
610
482
430
490
580
603
557
520
549
613
645
629
597
584
586
590
606
643
680
674
611
533
500
524
559
553
508
472
483
536
585
597
587
591
621
652
643
589
523
486
482
489
484
460
428
393
366
371
418
485
536
555
562
569
553
503
449
446
494
526
478
380
324
353
411
422
379
343
349
356
316
257
249
302
341
298
201
156
201
271
278
229
212
275
361
390
353
300
276
261
231
210
234
277
267
179
90
91
176
243
221
148
112
133
147
110
61
66
133
202
219
181
118
59
25
44
100
122
37
-142
-304
-344
-270
-194
-214
-312
-374
-306
-133
23
49
-42
-130
-92
57
186
187
105
82
174
303
361
340
318
326
296
183
46
-13
17
41
-11
-95
-116
-60
-3
-1
-16
6
49
53
-2
-68
-84
-55
-38
-83
-193
-352
-556
-817
-1132
-1495
-1904
-2323
-2642
-2718
-2477
-2013
-1533
-1156
-773
-147
791
1779
2397
2453
2176
1981
2041
2146
1983
1509
989
701
662
683
611
475
391
396
418
380
278
165
101
103
140
142
74
-28
-82
-59
-10
-21
-114
-218
-264
-254
-237
-231
-219
-190
-168
-171
-180
-161
-126
-133
-204
-298
-352
-339
-296
-267
-265
-278
-292
-293
-283
-281
-303
-345
-377
-370
-336
-319
-340
-370
-365
-322
-282
-283
-325
-384
-439
-471
-467
-417
-342
-286
-277
-308
-344
-365
-368
-367
-370
-386
-427
-490
-538
-537
-489
-430
-395
-385
-387
-406
-455
-524
-579
-595
-590
-604
-641
-668
-656
-630
-638
-692
-750
-767
-756
-766
-828
-919
-996
-1040
-1069
-1107
-1151
-1179
-1174
-1148
-1123
-1117
-1121
-1113
-1086
-1048
-1022
-1029
-1071
-1133
-1188
-1196
-1138
-1038
-958
-944
-967
-958
-884
-790
-744
-747
-745
-695
-615
-549
-500
-434
-331
-208
-86
29
131
198
222
240
304
413
504
522
495
498
551
616
658
695
757
827
849
813
776
786
820
823
799
821
924
1039
1059
967
859
834
882
913
862
753
658
619
630
652
658
639
614
609
627
627
585
533
537
611
681
668
588
534
550
579
544
455
395
402
430
419
370
330
322
326
334
366
425
470
464
426
406
410
394
332
262
232
237
226
179
141
166
245
312
317
269
215
182
172
179
211
269
323
329
283
246
277
350
366
265
118
78
210
402
490
437
373
435
606
740
721
578
425
348
345
370
394
400
370
303
231
199
219
260
279
264
223
181
159
180
252
340
387
363
302
267
271
282
262
220
193
201
236
276
302
292
239
188
210
314
400
358
200
67
72
165
193
87
-57
-102
-30
58
81
62
75
144
226
287
333
376
387
332
236
174
190
233
215
108
-21
-78
-49
-13
-51
-147
-203
-149
-22
64
43
-21
-8
127
306
409
401
337
273
213
151
116
141
198
209
155
110
159
291
418
458
411
327
253
206
184
156
99
31
17
88
168
141
-3
-129
-132
-97
-221
-573
-989
-1258
-1385
-1590
-2019
-2508
-2704
-2411
-1791
-1194
-805
-477
73
926
1852
2505
2733
2663
2537
2482
2451
2341
2110
1789
1451
1165
977
874
779
608
357
119
-1
9
50
13
-105
-194
-159
-20
99
81
-78
-261
-361
-364
-347
-380
-461
-545
-600
-619
-599
-532
-428
-348
-338
-384
-428
-440
-440
-459
-497
-531
-557
-579
-572
-504
-402
-353
-423
-559
-629
-559
-415
-331
-366
-455
-495
-462
-415
-419
-468
-514
-518
-507
-537
-624
-717
-738
-661
-547
-486
-518
-588
-608
-543
-442
-393
-421
-476
-483
-437
-412
-462
-550
-582
-513
-415
-396
-485
-607
-659
-622
-555
-528
-571
-666
-759
-801
-784
-748
-730
-724
-710
-696
-728
-819
-899
-893
-824
-811
-918
-1069
-1128
-1062
-972
-953
-986
-982
-920
-869
-885
-928
-928
-897
-922
-1034
-1136
-1106
-946
-796
-777
-859
-886
-762
-557
-414
-378
-366
-279
-137
-35
-9
23
151
344
479
484
434
471
632
818
910
908
901
955
1037
1070
1039
999
998
1034
1058
1041
997
961
954
968
973
956
930
922
944
967
955
916
898
922
955
952
920
909
918
886
780
655
605
642
671
613
508
460
499
557
577
578
603
640
627
559
504
519
570
575
509
436
435
505
557
518
419
358
395
483
524
481
417
428
514
595
596
534
477
460
442
378
274
186
162
200
258
285
262
211
168
156
161
163
156
152
148
130
112
137
230
355
430
407
326
266
270
319
364
371
342
302
293
339
421
476
448
344
225
157
166
225
264
234
154
112
184
339
456
433
305
196
179
206
192
131
95
110
117
65
-9
-14
77
189
232
192
136
117
132
155
171
189
205
205
177
130
88
72
86
114
119
86
53
67
124
153
103
12
-25
44
156
204
148
54
13
46
105
135
132
124
128
130
113
77
53
60
77
61
2
-59
-68
-22
33
55
55
71
107
121
86
25
-17
-50
-114
-217
-311
-351
-359
-374
-392
-364
-275
-172
-102
-56
3
85
150
180
201
245
288
281
219
147
106
99
97
84
66
58
64
82
100
105
98
86
74
67
70
74
45
-30
-110
-110
-1
117
99
-61
-213
-247
-256
-452
-881
-1346
-1646
-1794
-1943
-2104
-2086
-1742
-1167
-604
-160
280
857
1516
2034
2259
2238
2131
2048
1960
1775
1464
1104
812
636
530
428
333
271
219
112
-35
-130
-106
-34
-59
-198
-320
-305
-196
-154
-243
-356
-349
-212
-76
-55
-148
-271
-346
-333
-228
-88
-15
-69
-198
-269
-191
-30
55
-11
-141
-197
-152
-116
-191
-338
-419
-370
-264
-238
-327
-422
-390
-232
-85
-78
-208
-340
-357
-281
-234
-296
-427
-500
-439
-307
-229
-262
-343
-370
-312
-238
-233
-306
-376
-350
-236
-145
-175
-296
-381
-342
-231
-185
-279
-440
-538
-519
-442
-407
-444
-503
-527
-504
-474
-472
-498
-525
-526
-495
-473
-518
-630
-744
-763
-666
-555
-577
-754
-934
-948
-798
-656
-665
-771
-811
-728
-643
-698
-872
-993
-950
-824
-780
-877
-1021
-1074
-1001
-876
-779
-720
-667
-606
-544
-489
-431
-359
-272
-189
-133
-92
-30
80
230
369
433
415
379
393
471
562
613
624
620
629
667
737
831
911
931
896
862
870
891
884
860
889
986
1063
1037
922
832
847
922
952
899
806
721
662
645
702
821
919
903
778
656
630
687
751
773
759
715
631
530
490
576
744
856
821
673
527
464
475
498
480
407
304
235
270
413
568
620
559
484
503
597
648
577
426
298
263
312
395
467
496
474
441
449
509
551
508
389
276
235
240
217
143
82
91
160
221
231
213
216
252
281
271
242
242
290
360
402
392
345
280
216
173
170
203
243
241
192
151
183
304
447
518
464
327
222
230
308
333
228
70
26
155
345
442
411
362
376
424
433
395
354
318
252
162
118
164
245
273
252
252
290
305
267
226
245
291
278
198
152
218
343
422
425
412
426
432
394
344
348
414
476
475
417
342
277
232
221
243
271
272
244
223
233
258
269
260
254
266
273
259
246
271
325
349
311
248
230
264
279
221
119
46
26
16
-18
-38
5
79
101
52
24
105
250
330
293
233
248
311
310
215
126
135
204
225
188
191
288
387
373
273
229
308
392
321
107
-55
-22
147
259
216
102
49
73
102
92
69
40
-76
-356
-749
-1083
-1252
-1351
-1571
-1935
-2196
-2061
-1506
-832
-363
-120
177
770
1540
2115
2239
2012
1753
1662
1668
1583
1340
1039
811
680
578
454
312
179
68
-16
-49
-35
-31
-85
-179
-220
-163
-76
-88
-248
-459
-566
-499
-326
-182
-144
-192
-267
-310
-291
-233
-215
-322
-545
-744
-751
-558
-351
-322
-457
-541
-417
-184
-82
-215
-441
-552
-519
-476
-520
-597
-602
-541
-511
-539
-540
-450
-333
-299
-353
-382
-320
-240
-259
-368
-446
-423
-363
-373
-451
-494
-452
-406
-457
-580
-637
-552
-416
-393
-532
-710
-769
-679
-554
-511
-562
-630
-650
-625
-597
-598
-640
-709
-777
-803
-768
-700
-669
-708
-775
-788
-714
-618
-598
-691
-842
-941
-931
-852
-801
-833
-918
-975
-955
-909
-923
-1006
-1082
-1078
-1018
-995
-1045
-1101
-1077
-982
-897
-875
-881
-850
-781
-735
-750
-780
-747
-640
-537
-516
-552
-540
-405
-197
-42
2
6
80
236
360
348
247
201
288
450
556
553
500
504
609
769
894
927
880
827
836
903
951
902
761
619
566
613
694
722
654
529
447
493
654
807
830
722
610
603
683
749
741
702
703
731
711
630
567
605
701
739
672
580
576
662
728
690
579
490
458
434
373
325
372
507
628
656
625
627
691
744
707
601
504
459
438
412
407
449
490
433
290
206
298
496
596
499
330
280
376
480
480
427
427
460
420
276
147
169
319
430
395
263
187
249
387
476
447
364
325
366
428
442
400
346
304
266
229
221
252
278
241
163
130
181
249
259
233
241
276
264
194
159
236
356
371
253
138
152
266
344
316
238
197
210
231
216
172
127
105
112
124
114
97
100
122
131
97
61
82
150
193
174
145
162
196
167
68
-7
18
104
139
84
9
3
89
212
293
284
193
84
37
74
149
194
197
194
202
205
205
219
254
263
194
70
-30
-62
-47
-33
-31
-24
8
80
194
317
372
322
230
200
253
286
207
58
-29
16
121
187
194
190
208
250
301
337
309
185
24
-44
56
225
286
185
48
33
155
283
308
238
157
118
112
117
130
153
172
163
126
80
48
41
65
104
125
123
118
141
169
146
56
-24
-2
100
154
76
-60
-93
36
204
240
124
-9
-32
40
91
51
-39
-93
-77
-22
16
11
-34
-91
-118
-89
-22
42
69
68
80
134
221
308
347
320
263
243
284
348
361
303
244
261
349
431
440
393
349
325
298
253
221
233
276
293
253
191
169
206
256
264
209
114
-9
-181
-410
-664
-892
-1085
-1312
-1629
-1961
-2110
-1914
-1420
-863
-430
-72
415
1120
1863
2354
2475
2380
2301
2291
2218
1965
1602
1305
1148
1052
897
695
553
522
533
467
301
122
33
64
145
181
134
35
-53
-88
-83
-75
-82
-90
-80
-65
-80
-133
-195
-223
-201
-163
-158
-223
-325
-376
-316
-183
-99
-153
-294
-375
-319
-204
-173
-266
-383
-409
-349
-298
-312
-356
-383
-392
-388
-344
-246
-155
-173
-307
-432
-423
-311
-254
-341
-490
-554
-500
-413
-374
-359
-317
-260
-245
-272
-290
-268
-254
-302
-388
-435
-414
-384
-421
-512
-571
-548
-501
-521
-602
-641
-560
-415
-345
-406
-493
-480
-387
-351
-451
-624
-742
-773
-799
-869
-934
-908
-789
-672
-639
-678
-722
-716
-671
-624
-621
-685
-800
-915
-970
-950
-896
-862
-875
-918
-952
-943
-888
-818
-780
-780
-785
-750
-669
-570
-492
-449
-429
-409
-365
-273
-148
-45
-9
-14
12
109
233
306
312
317
379
474
544
576
619
691
755
772
761
766
773
726
623
570
645
775
807
710
643
747
945
1022
899
738
721
814
814
629
424
411
570
685
626
504
509
662
795
776
662
602
662
765
806
761
676
601
550
528
542
592
630
581
437
285
266
432
663
759
621
370
230
300
465
552
521
449
413
409
412
446
540
627
595
453
350
398
520
552
449
358
423
598
690
577
353
233
338
595
809
805
604
403
387
553
685
597
346
179
257
475
585
496
379
416
555
574
374
121
50
190
332
310
200
193
321
447
466
446
487
539
467
254
100
176
385
469
350
207
234
399
524
529
509
547
573
483
305
185
201
249
208
91
19
70
214
363
461
499
486
433
364
299
232
157
87
61
89
124
138
141
154
180
214
250
293
328
324
289
278
309
321
247
116
47
110
232
275
195
85
69
157
253
278
253
254
301
335
291
209
175
211
240
173
29
-70
-46
62
152
174
160
172
211
222
193
150
118
101
100
127
167
184
157
108
80
94
129
134
93
32
-6
8
61
107
102
59
22
16
18
-18
-97
-168
-185
-145
-98
-79
-93
-110
-97
-58
-4
71
185
315
382
331
219
200
329
459
407
187
15
53
224
312
238
144
166
242
219
90
2
44
124
110
38
54
198
323
298
183
151
259
356
275
38
-206
-371
-512
-712
-983
-1284
-1582
-1843
-1976
-1858
-1489
-1030
-643
-315
142
839
1640
2241
2436
2333
2208
2194
2180
1972
1558
1126
848
709
593
482
465
567
642
523
279
154
251
390
317
33
-206
-200
-38
40
-58
-201
-232
-152
-64
-28
-16
-7
-24
-74
-120
-110
-69
-44
-43
-55
-80
-136
-195
-186
-88
21
32
-70
-184
-220
-198
-200
-265
-327
-295
-166
-37
-16
-120
-241
-240
-107
-14
-150
-481
-739
-707
-464
-293
-339
-446
-375
-120
94
73
-133
-325
-397
-385
-375
-400
-460
-536
-564
-469
-259
-64
-34
-184
-367
-429
-345
-228
-205
-341
-577
-754
-711
-463
-237
-270
-562
-843
-839
-575
-322
-299
-467
-622
-629
-516
-395
-355
-425
-587
-781
-916
-948
-926
-916
-949
-971
-938
-884
-849
-808
-712
-596
-552
-608
-685
-672
-580
-524
-574
-643
-588
-422
-318
-410
-616
-698
-514
-187
12
-55
-238
-249
45
465
689
571
286
161
344
675
865
804
634
559
627
723
746
717
722
772
778
704
620
646
804
965
981
849
702
665
728
767
727
661
644
670
665
593
516
514
603
713
766
751
696
626
572
559
585
579
490
350
274
349
511
615
592
534
578
728
845
814
693
637
695
767
735
597
481
455
462
416
323
266
285
342
391
427
459
475
461
455
505
590
612
522
410
377
420
452
413
355
341
373
395
383
372
378
380
369
380
441
514
532
505
500
559
620
606
530
474
476
470
388
266
211
265
356
392
377
396
491
591
595
493
395
402
486
536
491
401
370
429
503
513
458
406
402
429
443
434
415
388
353
328
338
375
372
284
163
135
259
440
511
407
225
136
212
369
469
433
307
196
180
255
351
403
390
348
318
312
321
340
369
405
426
426
415
412
409
381
322
256
203
160
119
96
112
157
188
182
159
160
207
285
375
454
494
472
419
407
491
622
681
607
452
329
305
363
442
493
481
421
375
417
539
633
589
431
303
307
377
371
255
151
168
276
351
323
227
120
-2
-173
-390
-622
-863
-1147
-1468
-1725
-1786
-1598
-1238
-828
-423
11
528
1114
1670
2067
2230
2193
2073
1979
1911
1786
1530
1183
883
749
766
806
747
587
410
290
231
188
138
99
90
92
60
-15
-87
-95
-46
-15
-64
-169
-246
-234
-164
-116
-145
-224
-277
-253
-175
-124
-172
-306
-427
-431
-310
-170
-125
-173
-216
-175
-83
-25
-40
-75
-66
-8
33
6
-70
-121
-88
12
89
62
-68
-213
-285
-264
-209
-187
-220
-282
-338
-357
-332
-288
-253
-226
-192
-165
-198
-308
-408
-374
-206
-61
-92
-269
-400
-351
-190
-102
-165
-280
-319
-274
-243
-290
-372
-406
-381
-370
-426
-509
-536
-486
-436
-466
-564
-638
-627
-561
-521
-542
-593
-637
-666
-690
-709
-727
-768
-837
-903
-920
-886
-843
-820
-799
-756
-715
-726
-787
-835
-823
-776
-760
-788
-798
-732
-602
-474
-392
-332
-255
-149
-47
11
32
57
122
215
281
287
264
282
369
467
500
456
407
428
520
615
659
654
631
602
564
523
502
513
541
551
522
469
425
411
420
428
407
359
308
274
261
253
248
271
346
454
531
526
453
373
343
358
368
338
283
242
244
275
296
270
207
158
170
226
246
171
45
-12
70
222
305
260
164
125
160
197
185
155
149
152
113
32
-23
7
96
163
165
123
90
96
136
187
220
215
177
135
115
114
104
75
47
42
63
91
106
101
75
49
53
105
181
230
226
203
219
290
369
404
391
365
360
378
397
397
361
292
224
212
271
339
337
255
178
187
263
315
294
259
295
399
472
436
337
296
355
431
406
270
122
55
71
107
131
160
191
191
152
137
222
381
490
456
332
262
318
420
435
326
185
122
152
210
234
221
205
196
186
172
168
174
158
99
10
-60
-81
-68
-56
-57
-61
-61
-65
-75
-69
-20
74
178
258
295
289
259
237
249
277
276
217
127
76
95
140
156
134
116
127
145
142
119
102
101
105
113
136
186
237
244
200
146
120
101
16
-177
-448
-724
-969
-1226
-1569
-1988
-2340
-2434
-2188
-1726
-1263
-889
-471
191
1083
1917
2370
2392
2230
2150
2166
2091
1807
1421
1130
1006
951
855
715
601
543
489
389
251
129
69
60
71
77
75
79
92
94
54
-23
-92
-105
-69
-41
-57
-97
-117
-107
-100
-123
-155
-162
-135
-90
-37
22
68
59
-14
-102
-130
-89
-49
-84
-187
-274
-276
-210
-140
-104
-85
-62
-48
-80
-152
-206
-188
-116
-68
-93
-159
-196
-166
-99
-60
-85
-149
-221
-281
-309
-296
-264
-264
-310
-333
-241
-49
92
47
-133
-251
-190
-71
-101
-321
-564
-679
-699
-736
-791
-759
-625
-547
-666
-888
-964
-811
-617
-611
-787
-938
-909
-762
-664
-671
-720
-771
-883
-1111
-1385
-1560
-1561
-1452
-1348
-1302
-1272
-1191
-1047
-891
-779
-758
-817
-868
-805
-604
-386
-291
-316
-305
-141
88
169
28
-168
-224
-171
-224
-467
-715
-704
-399
-26
201
297
433
684
929
1044
1046
1046
1074
1050
926
773
706
742
783
764
740
813
1004
1211
1299
1232
1065
916
900
1061
1311
1450
1326
998
714
695
913
1117
1117
937
770
776
944
1138
1217
1132
928
714
610
675
860
1024
1052
953
850
852
936
965
833
594
436
489
676
773
631
321
45
-61
-43
-9
2
29
86
151
254
470
841
1241
1430
1293
975
749
745
871
934
835
634
455
372
367
389
398
372
322
264
210
207
317
527
682
596
243
-186
-479
-625
-779
-994
-1077
-785
-144
529
929
1066
1183
1440
1737
1827
1575
1082
590
280
180
213
289
350
363
323
248
148
19
-188
-495
-818
-1016
-962
-646
-226
69
142
125
244
572
877
810
288
-351
-642
-448
-53
166
133
84
235
540
786
835
716
510
261
-9
-229
-284
-94
270
600
691
470
84
-207
-288
-270
-350
-591
-860
-1010
-1029
-967
-779
-414
33
313
230
-91
-271
-62
381
644
509
190
76
289
557
547
264
22
-12
-16
-243
-627
-832
-660
-351
-314
-616
-890
-763
-288
131
188
-14
-143
-12
229
311
165
-29
-77
15
102
94
20
-57
-156
-301
-411
-379
-245
-212
-384
-560
-449
-53
278
225
-120
-387
-390
-328
-421
-590
-563
-274
28
80
-69
-143
9
239
293
111
-133
-258
-218
-80
42
76
17
-96
-205
-299
-408
-572
-768
-949
-1146
-1428
-1782
-2057
-2106
-1939
-1698
-1469
-1229
-878
-357
307
1054
1750
2220
2369
2241
1996
1745
1473
1175
941
877
994
1191
1387
1532
1591
1497
1242
945
704
469
131
-234
-357
-97
319
475
233
-84
-82
178
200
-426
-1487
-2335
-2491
-2055
-1545
-1326
-1304
-1134
-637
15
495
627
429
13
-455
-790
-853
-727
-671
-868
-1168
-1225
-879
-338
28
91
12
-39
-78
-205
-404
-552
-592
-589
-570
-451
-187
65
81
-138
-311
-220
-30
-113
-622
-1255
-1576
-1505
-1344
-1416
-1675
-1820
-1630
-1220
-878
-762
-785
-762
-600
-400
-299
-291
-298
-292
-317
-429
-584
-683
-703
-720
-795
-866
-816
-634
-468
-482
-666
-870
-956
-926
-887
-904
-934
-933
-886
-824
-741
-675
-742
-1082
-1679
-2259
-2468
-2195
-1682
-1308
-1198
-1106
-713
46
874
1317
1155
557
-61
-392
-474
-588
-928
-1351
-1499
-1199
-658
-256
-137
-135
-43
124
190
60
-136
-214
-130
3
86
136
220
357
482
536
549
610
754
898
912
787
657
655
771
878
883
821
783
794
794
745
679
643
640
639
634
630
629
619
601
610
659
710
720
694
680
706
734
716
641
541
461
431
452
497
527
530
533
590
712
856
954
978
948
906
888
903
939
975
996
1016
1063
1136
1202
1220
1188
1142
1106
1062
978
861
772
769
829
862
787
631
517
541
652
693
575
401
385
624
987
1239
1280
1220
1235
1369
1512
1528
1399
1223
1107
1073
1076
1055
1000
951
944
960
952
903
860
885
971
1037
1012
915
829
803
805
787
746
729
754
784
777
747
744
794
860
882
839
766
712
697
700
702
694
683
679
675
664
650
638
631
627
629
643
666
683
675
650
639
656
672
648
584
524
510
539
571
570
526
452
374
320
298
283
240
162
89
70
106
154
177
192
235
313
396
458
498
527
553
568
569
558
532
498
475
482
506
510
473
422
410
445
482
471
423
392
404
423
402
351
321
338
373
368
300
205
132
87
32
-83
-272
-517
-784
-1059
-1353
-1685
-2018
-2233
-2190
-1842
-1319
-822
-430
-7
642
1513
2326
2749
2716
2480
2358
2427
2492
2338
1963
1562
1317
1242
1225
1156
1013
837
658
480
305
146
31
-17
-3
43
75
80
82
111
167
216
220
166
69
-39
-121
-154
-142
-119
-122
-150
-164
-139
-99
-100
-163
-244
-274
-226
-136
-61
-29
-18
5
47
85
86
37
-44
-119
-166
-186
-196
-215
-245
-272
-278
-251
-201
-157
-141
-146
-145
-125
-112
-138
-197
-246
-255
-244
-248
-268
-269
-249
-249
-303
-372
-379
-308
-245
-275
-381
-448
-393
-249
-124
-95
-148
-225
-280
-303
-307
-320
-367
-450
-533
-566
-543
-505
-495
-524
-573
-628
-689
-747
-783
-786
-776
-784
-818
-854
-867
-856
-840
-830
-828
-827
-827
-830
-838
-853
-871
-878
-859
-815
-768
-737
-713
-668
-595
-524
-489
-481
-449
-354
-217
-86
16
111
235
388
537
648
722
772
811
837
851
863
889
928
966
991
1007
1027
1054
1073
1068
1049
1038
1050
1069
1065
1037
1010
1008
1020
1007
953
879
825
807
814
825
832
837
841
839
828
809
783
755
739
740
749
749
732
713
711
724
730
706
655
597
557
543
546
550
544
530
518
516
526
538
543
536
513
481
454
451
479
512
522
503
481
484
509
530
535
531
528
518
490
452
429
437
463
475
462
437
424
431
447
454
448
432
414
398
385
377
378
397
432
464
465
430
387
374
401
437
441
412
381
380
406
432
443
441
433
413
371
311
248
204
197
232
297
366
416
450
487
539
582
583
529
450
392
372
378
392
411
436
466
488
501
510
514
501
455
387
326
292
284
282
280
282
290
297
294
286
282
285
286
283
283
289
291
278
252
227
208
179
130
68
18
-10
-30
-61
-104
-140
-148
-129
-100
-70
-31
28
105
175
218
246
285
350
419
455
446
423
420
437
441
411
363
328
316
315
307
291
277
264
247
229
215
208
197
185
190
218
236
213
154
100
61
-28
-241
-573
-927
-1216
-1474
-1799
-2201
-2515
-2526
-2170
-1613
-1087
-661
-190
499
1370
2154
2583
2630
2510
2443
2434
2317
1986
1532
1150
937
823
702
553
441
411
414
377
289
196
139
115
100
81
56
23
-26
-86
-131
-137
-112
-88
-89
-120
-165
-210
-246
-270
-281
-284
-292
-313
-336
-342
-323
-293
-276
-278
-282
-273
-256
-254
-275
-307
-330
-340
-349
-364
-375
-373
-361
-358
-375
-406
-431
-439
-433
-426
-425
-429
-426
-403
-364
-330
-331
-381
-452
-497
-487
-439
-398
-391
-398
-380
-328
-275
-258
-277
-308
-334
-366
-412
-455
-472
-470
-476
-503
-523
-509
-480
-483
-532
-586
-601
-587
-594
-646
-707
-732
-721
-715
-744
-795
-839
-863
-874
-882
-895
-914
-939
-960
-962
-946
-930
-927
-930
-926
-913
-903
-904
-901
-884
-860
-841
-827
-798
-743
-681
-637
-612
-580
-517
-428
-344
-281
-224
-143
-27
103
212
289
355
436
532
620
680
717
750
796
849
899
939
969
988
998
999
994
987
973
943
892
831
789
789
830
888
931
957
980
1013
1044
1043
995
917
839
775
725
684
663
676
719
768
795
792
772
751
729
692
632
562
510
495
506
527
545
559
565
555
530
503
488
484
475
458
445
453
485
528
567
593
595
568
528
501
501
510
494
445
392
374
398
440
468
471
455
433
415
410
422
448
469
468
448
427
422
429
429
405
364
325
298
277
258
249
261
288
313
326
340
375
429
474
485
465
440
430
432
432
419
393
360
331
316
321
341
358
361
346
325
317
328
348
355
333
288
244
219
212
211
213
222
240
254
253
246
257
299
350
370
343
287
236
200
175
150
125
105
91
89
109
152
205
241
244
225
206
202
205
201
185
167
167
189
219
235
231
218
209
199
170
112
39
-19
-43
-35
-12
1
-12
-46
-76
-71
-25
40
91
120
149
206
295
391
455
469
438
394
369
365
357
318
265
239
266
322
364
376
378
392
410
400
347
271
204
159
127
108
108
118
116
82
24
-45
-135
-277
-491
-759
-1050
-1358
-1697
-2032
-2242
-2188
-1847
-1350
-871
-448
50
753
1600
2329
2691
2671
2489
2372
2346
2259
1984
1568
1186
966
890
857
787
679
571
476
380
276
175
97
53
33
14
-22
-72
-113
-118
-93
-67
-69
-97
-130
-154
-172
-196
-218
-219
-200
-184
-195
-224
-237
-216
-184
-182
-221
-271
-296
-288
-271
-264
-259
-237
-199
-165
-158
-175
-202
-227
-250
-279
-315
-349
-371
-368
-342
-302
-263
-233
-215
-212
-221
-237
-255
-272
-295
-327
-362
-381
-370
-334
-291
-258
-248
-257
-277
-292
-303
-321
-359
-412
-454
-471
-466
-458
-458
-467
-484
-510
-534
-542
-530
-514
-514
-532
-545
-540
-534
-556
-605
-645
-653
-650
-680
-755
-831
-858
-833
-810
-828
-867
-873
-830
-773
-744
-743
-737
-710
-681
-671
-674
-671
-659
-656
-668
-681
-679
-662
-638
-601
-536
-444
-346
-262
-184
-89
30
161
279
373
445
504
557
611
671
742
820
895
962
1023
1082
1134
1165
1162
1133
1105
1093
1089
1074
1046
1026
1033
1057
1075
1078
1073
1066
1056
1044
1038
1039
1030
988
919
856
825
821
821
815
813
811
788
736
689
695
753
808
800
724
637
606
643
708
746
728
673
629
637
689
726
695
606
530
525
573
601
564
505
498
562
633
643
596
557
572
617
633
595
540
519
550
595
605
571
520
480
458
432
397
374
378
395
392
371
378
449
554
619
608
568
569
628
687
683
612
523
464
436
414
383
357
358
386
416
418
391
373
404
472
502
425
261
121
88
152
220
222
185
195
296
443
546
559
514
465
438
431
433
445
455
439
387
333
327
386
469
512
490
430
385
379
404
437
460
465
454
435
411
389
375
377
388
384
350
306
302
364
457
502
456
361
303
323
382
412
389
345
320
319
318
304
291
293
303
301
281
256
243
248
265
288
310
320
309
286
275
288
315
334
328
297
251
205
185
212
274
314
294
239
215
243
279
276
246
238
254
242
168
81
58
102
143
129
80
53
72
115
167
232
287
283
205
102
45
45
39
-21
-98
-119
-69
-13
-1
-9
30
124
202
203
157
150
226
336
408
433
476
593
753
872
897
843
748
630
487
322
165
37
-72
-165
-221
-204
-124
-35
8
9
13
45
89
115
115
97
72
41
9
-29
-100
-262
-542
-901
-1257
-1572
-1860
-2098
-2169
-1943
-1445
-884
-450
-111
341
1003
1695
2109
2135
1983
1927
2011
2029
1794
1364
969
756
664
544
364
217
176
189
144
25
-68
-43
61
120
63
-55
-138
-159
-184
-270
-378
-421
-360
-242
-155
-152
-238
-370
-478
-514
-484
-460
-509
-597
-609
-449
-152
140
311
355
352
356
324
178
-94
-407
-647
-763
-788
-775
-738
-668
-575
-482
-403
-331
-272
-262
-317
-394
-415
-358
-286
-278
-340
-406
-416
-377
-342
-337
-351
-362
-355
-338
-320
-314
-323
-333
-329
-304
-272
-252
-229
-190
-147
-137
-168
-200
-192
-157
-148
-189
-235
-232
-190
-182
-247
-335
-379
-361
-345
-386
-461
-498
-463
-399
-380
-432
-517
-572
-562
-509
-468
-470
-488
-469
-390
-305
-290
-364
-467
-532
-565
-629
-752
-883
-941
-912
-850
-797
-739
-646
-527
-433
-390
-349
-261
-134
-19
52
114
210
338
443
492
512
551
614
668
687
693
719
771
826
868
906
945
969
963
942
932
941
952
946
918
875
828
792
783
779
743
681
676
816
1066
1261
1261
1119
1037
1130
1293
1307
1089
775
569
532
565
548
456
349
277
241
223
212
207
199
181
165
175
223
299
372
409
406
387
391
419
420
353
248
197
259
377
439
406
367
433
602
749
774
703
642
642
650
602
503
412
354
311
281
303
382
455
437
340
269
302
409
493
497
474
516
653
840
989
1032
967
844
724
622
501
348
227
211
268
280
198
142
261
508
643
500
209
59
176
387
438
266
53
10
188
454
613
576
412
293
339
509
640
639
575
586
713
846
861
742
571
422
310
220
131
26
-101
-205
-208
-79
111
239
258
240
283
397
487
453
306
163
128
200
275
272
229
237
315
375
336
235
184
225
285
283
224
178
185
238
326
454
596
685
670
577
482
430
412
406
405
400
380
368
420
564
734
830
814
743
681
636
587
545
539
570
573
497
367
258
230
265
278
163
-125
-525
-898
-1151
-1324
-1524
-1756
-1869
-1707
-1292
-794
-335
165
853
1712
2497
2943
2998
2833
2662
2548
2414
2170
1810
1423
1132
1008
1036
1113
1121
1014
844
702
613
528
405
278
219
240
269
239
184
194
292
371
309
112
-93
-187
-180
-166
-197
-236
-213
-112
17
120
171
166
104
11
-61
-77
-52
-50
-97
-157
-174
-149
-135
-166
-207
-214
-201
-225
-312
-407
-427
-358
-278
-264
-312
-362
-364
-335
-315
-327
-358
-388
-404
-403
-389
-370
-358
-363
-389
-437
-492
-517
-486
-414
-368
-398
-475
-514
-470
-389
-362
-423
-520
-577
-570
-527
-501
-522
-588
-669
-725
-733
-719
-736
-798
-865
-888
-867
-849
-872
-926
-979
-1009
-1018
-1025
-1047
-1090
-1139
-1160
-1136
-1102
-1111
-1172
-1220
-1215
-1200
-1247
-1346
-1382
-1281
-1112
-1001
-994
-996
-905
-728
-556
-454
-418
-406
-373
-289
-149
2
90
101
117
233
437
611
677
687
742
866
982
1024
1015
1029
1094
1174
1207
1167
1094
1048
1082
1175
1235
1193
1097
1081
1208
1390
1484
1455
1417
1459
1542
1556
1485
1415
1392
1367
1276
1151
1078
1069
1050
974
898
879
869
769
597
491
545
663
660
504
374
436
639
758
661
448
331
390
498
497
368
233
211
296
394
442
443
421
380
345
354
422
479
424
265
118
112
222
308
278
172
85
63
104
191
264
227
50
-163
-242
-126
31
39
-111
-224
-140
90
269
285
188
84
10
-85
-226
-381
-491
-532
-518
-480
-429
-364
-283
-167
-30
74
77
-15
-108
-99
16
120
90
-39
-126
-99
-41
-81
-225
-336
-299
-182
-145
-218
-270
-171
15
110
25
-146
-247
-247
-246
-324
-437
-466
-366
-239
-199
-237
-231
-97
96
208
192
157
220
367
469
462
421
444
511
502
364
206
183
302
411
377
242
175
260
401
445
357
239
198
223
228
182
143
168
241
293
285
257
252
256
208
62
-174
-448
-728
-1040
-1439
-1933
-2430
-2761
-2783
-2504
-2068
-1627
-1197
-646
142
1107
2015
2625
2871
2886
2855
2841
2770
2544
2170
1765
1431
1196
1044
962
940
929
847
678
495
384
346
322
265
197
146
95
16
-63
-85
-44
-2
-22
-89
-147
-172
-196
-229
-235
-183
-105
-66
-89
-123
-117
-76
-44
-41
-59
-87
-131
-171
-162
-98
-40
-62
-160
-246
-248
-197
-179
-224
-281
-283
-229
-163
-112
-68
-22
9
6
-33
-89
-148
-200
-242
-286
-348
-420
-455
-402
-294
-233
-285
-389
-414
-318
-198
-170
-230
-273
-226
-129
-87
-144
-251
-322
-321
-288
-290
-349
-428
-462
-430
-374
-365
-417
-491
-549
-583
-609
-629
-639
-651
-687
-743
-784
-792
-794
-832
-905
-967
-990
-981
-945
-878
-779
-681
-631
-631
-624
-579
-547
-597
-698
-724
-601
-418
-331
-365
-367
-193
90
260
220
124
179
382
537
528
475
572
823
1039
1089
1067
1143
1319
1428
1380
1277
1277
1412
1570
1645
1637
1607
1575
1546
1539
1586
1660
1682
1621
1525
1475
1486
1503
1478
1414
1331
1228
1118
1067
1142
1298
1383
1277
1038
861
885
1049
1163
1097
899
731
714
843
1006
1079
1029
929
870
851
777
574
306
110
66
123
176
196
226
283
317
284
223
190
163
84
-14
21
285
680
999
1161
1277
1464
1648
1635
1370
1027
785
596
269
-220
-602
-579
-174
300
569
673
828
1100
1327
1341
1189
1044
962
834
590
367
365
588
815
855
765
759
931
1135
1154
947
681
531
497
452
314
150
87
147
214
168
28
-71
-49
1
-87
-338
-567
-572
-353
-116
-33
-62
-14
207
504
705
731
632
495
365
252
170
126
103
75
51
56
84
95
59
5
-20
-24
-70
-180
-279
-268
-143
-21
-23
-143
-271
-317
-307
-323
-394
-480
-528
-534
-539
-568
-640
-771
-960
-1185
-1418
-1666
-1982
-2387
-2796
-3029
-2948
-2582
-2108
-1669
-1234
-643
188
1126
1894
2287
2321
2172
2019
1910
1779
1539
1173
761
433
279
283
327
300
187
59
-12
-27
-30
-49
-81
-126
-195
-286
-376
-441
-480
-518
-559
-601
-642
-683
-712
-703
-663
-635
-648
-676
-673
-628
-591
-606
-656
-679
-647
-589
-558
-571
-612
-653
-669
-657
-628
-604
-598
-595
-571
-525
-478
-439
-395
-338
-302
-335
-425
-499
-492
-425
-385
-424
-506
-540
-476
-355
-271
-285
-371
-436
-420
-359
-355
-451
-577
-617
-541
-444
-439
-537
-625
-609
-512
-441
-467
-559
-634
-651
-633
-627
-645
-673
-705
-751
-812
-865
-886
-884
-891
-923
-951
-935
-872
-800
-763
-763
-776
-780
-790
-833
-914
-1008
-1072
-1087
-1068
-1053
-1061
-1076
-1068
-1034
-1004
-1007
-1039
-1070
-1086
-1093
-1100
-1095
-1065
-1000
-901
-776
-647
-552
-498
-435
-286
-39
225
401
481
551
691
883
1036
1089
1064
1022
1000
1000
1012
1033
1067
1105
1132
1153
1177
1212
1244
1245
1194
1110
1025
963
917
869
800
718
648
613
619
648
660
613
499
356
249
222
271
349
408
439
480
579
745
918
1011
983
872
752
670
624
594
572
556
536
507
487
506
569
630
636
576
507
481
494
501
471
428
415
417
374
264
147
115
164
194
129
21
-16
44
96
48
-57
-96
-21
85
129
126
162
261
346
344
276
233
264
335
385
383
343
300
284
310
360
399
404
388
387
413
446
467
487
527
569
560
473
355
280
275
285
248
167
112
130
186
211
189
174
218
293
325
285
227
234
321
434
503
523
544
612
718
812
848
820
762
724
726
752
770
759
735
725
747
782
801
780
721
642
574
531
505
480
453
435
432
430
407
350
256
108
-118
-435
-822
-1243
-1673
-2103
-2493
-2740
-2719
-2389
-1841
-1235
-653
-31
746
1650
2455
2905
2941
2757
2604
2559
2487
2237
1823
1413
1167
1097
1089
1027
891
744
644
602
585
559
513
456
400
347
292
231
165
97
31
-25
-54
-57
-43
-23
0
27
54
75
83
78
56
16
-34
-80
-110
-123
-121
-100
-58
-11
23
41
58
86
109
98
41
-40
-111
-149
-157
-153
-158
-183
-211
-215
-180
-137
-134
-185
-254
-294
-301
-313
-356
-405
-411
-362
-293
-248
-237
-236
-218
-183
-156
-163
-204
-255
-292
-313
-337
-376
-411
-419
-399
-383
-399
-446
-491
-505
-491
-473
-477
-512
-564
-614
-653
-683
-715
-751
-787
-815
-838
-857
-865
-858
-847
-860
-911
-979
-1028
-1045
-1050
-1065
-1082
-1072
-1025
-962
-911
-889
-894
-914
-933
-932
-903
-859
-815
-766
-691
-581
-460
-351
-253
-138
1
131
213
252
288
353
442
524
587
634
671
698
728
773
834
880
892
882
887
926
974
991
967
934
925
948
976
989
978
943
894
848
825
822
812
770
707
665
664
680
671
632
610
648
723
774
758
700
653
646
658
650
600
527
463
440
466
524
582
620
633
626
599
558
521
511
521
520
484
440
443
506
583
613
582
529
492
469
442
407
386
394
416
429
432
448
480
502
486
440
403
410
451
484
472
417
373
396
483
565
566
482
390
373
434
499
496
441
411
460
560
631
622
553
487
462
465
460
433
411
420
444
444
413
387
411
478
526
501
418
348
337
366
377
340
285
259
268
281
271
250
259
315
389
420
378
294
215
163
111
22
-103
-218
-271
-252
-208
-191
-210
-219
-171
-81
-8
7
-2
34
140
268
353
381
393
427
470
484
458
414
388
399
432
455
447
414
390
401
435
455
437
398
370
365
369
377
406
455
482
452
378
311
261
159
-65
-399
-762
-1111
-1494
-1973
-2486
-2831
-2827
-2469
-1935
-1419
-943
-363
450
1427
2301
2808
2906
2791
2695
2675
2593
2309
1856
1410
1125
1007
955
875
760
652
573
518
478
446
415
373
323
277
232
176
111
65
59
78
85
63
41
50
84
100
77
41
33
55
69
43
-10
-50
-52
-28
-10
-19
-51
-85
-102
-99
-91
-99
-124
-151
-161
-150
-135
-130
-138
-143
-128
-100
-77
-75
-85
-85
-62
-32
-20
-34
-56
-62
-55
-57
-82
-115
-130
-118
-101
-107
-134
-158
-163
-164
-179
-204
-217
-214
-222
-263
-318
-339
-308
-264
-257
-293
-333
-349
-353
-369
-395
-413
-420
-438
-480
-525
-541
-528
-520
-540
-575
-595
-597
-607
-640
-686
-719
-731
-736
-748
-764
-768
-755
-742
-745
-759
-760
-739
-716
-716
-739
-752
-724
-661
-595
-551
-516
-461
-376
-284
-207
-142
-66
36
160
282
381
455
519
596
693
795
872
907
914
927
965
1014
1047
1062
1077
1102
1114
1092
1050
1029
1051
1088
1093
1060
1030
1041
1078
1095
1061
1001
957
951
960
953
918
868
826
807
806
805
792
766
733
703
676
655
640
634
631
621
602
575
547
520
499
484
477
465
441
412
401
418
446
452
426
398
398
421
431
402
356
331
343
368
377
369
357
344
324
305
308
332
345
313
252
213
228
270
290
280
266
270
279
272
252
240
238
229
209
195
205
226
237
236
246
269
280
261
233
234
268
296
289
256
235
235
235
213
180
161
162
168
169
179
214
269
319
333
309
265
229
218
221
207
157
87
42
54
103
134
114
52
-10
-49
-75
-109
-152
-184
-186
-155
-100
-38
18
66
115
178
257
336
392
413
402
377
359
361
384
415
427
403
355
321
324
352
367
349
319
313
336
351
325
274
242
247
267
266
233
191
166
153
127
51
-102
-342
-656
-1009
-1373
-1749
-2133
-2455
-2579
-2400
-1958
-1420
-929
-460
134
919
1743
2329
2526
2439
2309
2267
2245
2097
1782
1408
1115
951
872
813
747
674
584
469
354
279
260
263
239
169
87
39
44
77
93
72
29
-12
-37
-52
-68
-86
-97
-92
-73
-49
-29
-14
-6
-14
-52
-113
-179
-225
-248
-259
-271
-278
-272
-254
-241
-235
-229
-213
-194
-186
-189
-190
-184
-184
-197
-211
-204
-177
-154
-158
-186
-213
-224
-224
-222
-221
-222
-232
-254
-275
-277
-260
-250
-267
-300
-321
-317
-307
-320
-361
-408
-432
-424
-397
-378
-386
-417
-444
-446
-431
-429
-453
-485
-501
-505
-525
-570
-610
-616
-600
-598
-629
-664
-677
-677
-693
-731
-761
-762
-753
-768
-808
-835
-820
-780
-758
-768
-785
-782
-768
-772
-803
-833
-829
-787
-737
-703
-674
-622
-534
-424
-322
-239
-169
-96
-15
71
148
211
268
330
406
490
571
642
705
765
819
858
877
884
892
903
915
919
913
907
912
934
962
976
961
924
888
871
866
857
835
817
820
843
867
870
853
835
828
829
825
806
770
727
693
678
686
700
701
681
657
648
653
652
632
605
595
601
594
563
531
528
553
573
567
555
565
597
620
615
594
580
571
553
531
525
535
532
496
447
436
477
524
530
502
492
523
556
555
539
535
530
481
395
345
400
523
599
566
478
436
492
607
706
725
654
544
493
557
672
699
556
321
154
129
174
174
91
-15
-73
-58
9
103
195
240
200
97
21
37
95
81
-44
-171
-144
58
257
268
128
66
190
321
203
-163
-453
-364
20
327
323
136
35
78
82
-87
-311
-377
-267
-175
-259
-420
-418
-177
106
171
-38
-330
-480
-439
-338
-301
-334
-357
-308
-193
-60
50
101
88
22
-94
-241
-364
-387
-256
-49
91
52
-124
-278
-285
-182
-139
-309
-697
-1177
-1586
-1858
-2061
-2298
-2565
-2709
-2546
-2047
-1394
-827
-419
-58
394
899
1266
1361
1243
1091
1007
941
796
553
306
132
32
-70
-195
-322
-407
-441
-445
-461
-418
-394
-389
-412
-439
-449
-455
-481
-530
-581
-602
-587
-560
-551
-568
-585
-572
-525
-473
-454
-473
-498
-506
-507
-522
-541
-522
-441
-335
-266
-254
-268
-282
-317
-414
-570
-725
-813
-823
-793
-755
-709
-637
-543
-455
-399
-375
-359
-342
-344
-386
-456
-505
-498
-466
-474
-536
-595
-588
-528
-493
-527
-585
-582
-496
-384
-318
-319
-357
-405
-445
-462
-442
-399
-370
-376
-400
-409
-399
-388
-385
-380
-375
-388
-432
-482
-503
-497
-495
-511
-531
-540
-557
-599
-640
-631
-568
-511
-522
-579
-609
-580
-541
-555
-613
-647
-619
-566
-549
-580
-617
-625
-611
-601
-597
-580
-537
-478
-423
-365
-281
-162
-30
80
154
212
283
375
469
541
601
678
778
870
920
936
960
1023
1110
1172
1181
1154
1129
1122
1134
1160
1203
1261
1305
1317
1306
1312
1354
1404
1405
1340
1253
1203
1199
1192
1140
1062
1023
1058
1136
1193
1201
1181
1162
1155
1149
1146
1157
1182
1201
1201
1193
1191
1189
1166
1118
1065
1029
998
944
862
788
768
803
852
871
855
835
843
881
922
933
905
865
850
870
891
875
828
792
800
832
842
817
795
810
846
860
837
815
827
855
852
806
760
759
795
813
786
746
743
782
822
826
808
808
838
869
871
845
822
814
812
802
785
779
793
813
820
802
769
738
723
726
728
709
666
621
602
615
638
641
614
577
557
560
571
569
553
542
552
580
605
603
566
504
439
389
359
339
314
281
257
255
276
295
150
272
371
400
377
373
428
505
528
485
446
476
571
667
726
783
875
988
1074
1133
1199
1282
1327
1298
1261
1352
1634
1999
2230
2198
1971
1730
1602
1558
1465
1230
888
582
456
538
735
899
954
921
878
884
938
992
998
944
862
804
796
822
865
936
1053
1205
1316
1331
1285
1280
1369
1480
1482
1329
1096
885
735
606
472
362
337
430
605
766
835
790
709
705
819
947
934
753
556
536
723
963
1093
1098
1091
1137
1188
1184
1148
1176
1290
1395
1381
1252
1120
1066
1054
981
807
595
435
354
318
291
285
333
427
513
549
554
571
610
628
587
509
465
497
567
610
614
618
651
681
657
576
492
461
475
471
405
306
249
273
337
361
309
231
206
258
317
315
269
253
318
418
465
450
446
509
609
652
604
528
504
539
572
558
521
511
533
542
514
482
484
507
496
424
340
317
365
424
433
393
356
364
399
415
370
243
40
-221
-516
-833
-1187
-1570
-1907
-2070
-1964
-1615
-1156
-696
-223
361
1089
1831
2365
2561
2487
2335
2243
2188
2046
1740
1332
974
781
751
775
734
590
398
243
164
124
70
-2
-61
-89
-112
-157
-208
-221
-197
-185
-222
-277
-280
-218
-157
-174
-257
-326
-327
-296
-304
-368
-430
-427
-373
-330
-334
-353
-337
-284
-246
-258
-301
-328
-320
-300
-290
-284
-263
-240
-255
-322
-403
-435
-411
-383
-410
-481
-522
-473
-354
-251
-235
-295
-361
-383
-380
-406
-480
-554
-578
-540
-479
-424
-376
-332
-300
-284
-270
-238
-207
-227
-309
-400
-437
-421
-413
-456
-531
-584
-585
-545
-490
-442
-423
-446
-488
-492
-432
-355
-346
-430
-540
-586
-556
-519
-529
-568
-596
-613
-677
-810
-955
-1017
-967
-860
-763
-691
-613
-514
-419
-354
-330
-350
-414
-501
-564
-578
-568
-580
-610
-589
-475
-325
-220
-156
-43
156
351
427
402
425
585
797
908
887
863
962
1152
1287
1263
1111
936
814
759
748
740
695
596
490
463
548
690
788
788
709
594
463
325
219
193
231
267
274
307
413
541
569
447
276
213
272
313
214
24
-78
13
216
356
348
268
252
351
500
576
529
406
296
264
286
300
275
230
211
241
304
368
411
429
425
412
402
404
416
427
430
413
380
347
349
408
495
555
555
512
481
495
534
550
516
448
383
348
341
341
327
290
248
236
277
357
421
421
354
270
231
261
321
349
319
265
248
297
393
483
534
553
563
584
612
628
625
613
601
586
548
487
434
417
425
412
362
304
293
333
370
360
322
304
311
276
134
-104
-372
-640
-955
-1381
-1891
-2345
-2578
-2527
-2256
-1880
-1455
-937
-245
619
1522
2262
2697
2822
2751
2618
2485
2319
2062
1708
1332
1031
855
782
752
728
682
587
447
310
245
270
319
306
209
100
53
65
80
60
27
12
12
0
-32
-51
-29
21
63
74
52
14
-14
-13
16
46
44
16
1
35
96
129
109
67
52
71
90
85
68
61
55
29
-21
-64
-82
-93
-122
-159
-156
-104
-51
-46
-73
-63
9
71
32
-95
-197
-182
-76
3
-3
-27
28
164
285
320
313
361
463
512
426
265
182
238
318
264
45
-196
-320
-323
-323
-409
-553
-661
-692
-678
-656
-632
-599
-579
-600
-657
-709
-722
-718
-748
-824
-898
-934
-954
-1018
-1128
-1202
-1162
-1054
-1009
-1105
-1266
-1334
-1255
-1122
-1063
-1092
-1111
-1034
-866
-677
-531
-447
-413
-397
-362
-289
-208
-150
-110
-50
43
134
202
272
387
534
639
650
604
579
600
620
596
536
486
472
479
487
479
461
455
494
578
656
652
549
426
380
426
488
485
420
372
403
493
565
569
527
500
503
490
430
348
322
381
471
505
466
418
420
467
512
521
508
497
494
507
547
603
636
615
564
545
580
621
612
561
533
565
624
656
642
606
568
543
532
540
559
560
528
476
428
394
380
381
373
325
226
116
72
129
230
284
261
210
197
219
216
155
62
-20
-76
-122
-170
-194
-164
-81
18
91
136
190
278
380
434
396
302
234
247
308
339
314
287
321
405
466
453
394
357
365
372
325
238
183
203
254
261
215
176
205
296
376
384
325
237
145
28
-142
-374
-662
-1006
-1415
-1893
-2413
-2888
-3182
-3187
-2895
-2430
-1934
-1413
-731
223
1339
2308
2854
2945
2794
2626
2509
2366
2110
1745
1356
1040
868
844
883
876
767
593
455
402
392
355
270
187
155
169
172
105
-22
-139
-166
-95
5
51
43
58
146
266
319
262
155
77
51
46
34
44
107
200
276
298
274
231
192
176
202
240
234
159
60
15
38
40
-76
-292
-465
-455
-280
-96
-39
-83
-77
84
336
506
477
303
142
85
79
11
-150
-317
-390
-363
-311
-301
-317
-317
-293
-254
-206
-151
-131
-194
-330
-443
-453
-396
-390
-500
-660
-750
-727
-649
-594
-605
-674
-772
-849
-844
-739
-615
-604
-741
-909
-948
-829
-693
-696
-848
-1013
-1060
-1002
-959
-1017
-1146
-1253
-1279
-1230
-1134
-1014
-892
-810
-788
-773
-681
-507
-364
-363
-471
-536
-452
-281
-165
-147
-127
-8
159
230
162
80
141
340
494
466
321
258
366
527
573
487
399
365
249
-115
-666
-1103
-1158
-859
-467
-173
83
477
1060
1686
2158
2374
2330
2082
1726
1387
1155
1028
933
846
814
858
928
962
977
1018
1037
913
615
302
180
283
462
562
585
614
654
632
546
492
539
618
610
507
422
436
482
439
292
159
139
215
290
307
293
324
419
513
511
389
227
159
230
345
359
230
75
48
172
327
389
353
305
307
352
403
464
561
677
752
750
707
684
704
721
688
603
513
477
499
538
540
486
413
363
351
352
335
293
247
215
183
128
34
-112
-311
-541
-747
-870
-904
-901
-934
-1018
-1110
-1173
-1238
-1388
-1664
-1987
-2197
-2169
-1906
-1515
-1079
-558
134
983
1802
2361
2579
2566
2483
2374
2165
1807
1367
977
712
561
473
408
350
289
215
130
42
-32
-75
-70
-24
12
-12
-87
-148
-139
-95
-101
-200
-349
-459
-482
-445
-408
-400
-410
-419
-420
-424
-443
-475
-509
-538
-568
-606
-648
-679
-694
-703
-711
-704
-662
-602
-556
-545
-547
-535
-514
-515
-552
-607
-656
-696
-732
-757
-760
-748
-748
-760
-755
-715
-674
-692
-774
-852
-859
-804
-755
-763
-805
-821
-789
-745
-736
-763
-793
-806
-819
-862
-924
-966
-967
-946
-940
-962
-988
-992
-981
-987
-1023
-1070
-1105
-1129
-1159
-1196
-1228
-1242
-1250
-1267
-1288
-1297
-1286
-1268
-1272
-1307
-1352
-1372
-1358
-1343
-1363
-1413
-1439
-1404
-1336
-1307
-1330
-1337
-1259
-1126
-1044
-1070
-1129
-1102
-963
-803
-715
-688
-637
-512
-347
-202
-96
11
141
271
366
409
426
454
507
563
583
554
514
513
553
581
563
533
550
611
646
602
521
482
499
515
475
407
389
442
513
535
497
451
438
454
461
430
365
296
248
229
224
224
235
260
284
272
220
164
149
173
184
147
91
71
107
165
209
237
272
322
369
402
430
462
492
499
479
455
448
460
469
456
420
374
330
305
318
375
450
490
464
405
375
397
429
411
341
274
253
263
265
257
267
297
307
270
224
236
302
341
295
213
200
273
329
273
145
85
159
277
296
184
48
10
71
129
112
48
9
17
33
25
13
30
71
107
114
106
100
91
49
-47
-205
-424
-713
-1065
-1453
-1854
-2260
-2645
-2914
-2926
-2605
-2041
-1424
-863
-290
436
1309
2105
2558
2614
2468
2356
2336
2271
2020
1605
1199
950
864
842
792
711
631
564
503
452
427
411
360
256
137
68
53
39
-17
-88
-113
-82
-55
-76
-114
-100
-25
42
45
8
-11
1
1
-37
-78
-70
-16
26
27
28
79
155
179
113
7
-57
-56
-51
-109
-217
-287
-233
-55
167
321
348
271
169
105
68
2
-137
-327
-497
-582
-572
-509
-444
-405
-378
-334
-273
-236
-263
-344
-428
-477
-499
-518
-542
-555
-554
-550
-538
-491
-410
-348
-363
-441
-498
-479
-418
-390
-418
-453
-457
-455
-491
-558
-606
-612
-618
-674
-756
-788
-738
-666
-654
-703
-741
-723
-700
-756
-888
-988
-959
-837
-749
-766
-819
-785
-631
-446
-338
-320
-314
-243
-113
16
92
112
111
125
165
227
302
378
447
508
576
664
772
871
929
947
970
1040
1143
1216
1223
1204
1240
1346
1433
1390
1207
1001
896
908
954
977
1019
1151
1368
1571
1677
1697
1705
1730
1716
1617
1461
1334
1295
1312
1320
1297
1279
1298
1327
1300
1201
1090
1041
1063
1095
1078
1026
993
1014
1069
1113
1114
1053
934
793
695
682
715
696
577
432
388
472
588
621
559
491
481
494
471
426
443
567
731
807
738
601
510
506
520
450
273
90
28
107
223
270
259
321
540
829
1007
995
901
892
992
1069
1001
815
654
595
590
565
520
516
571
614
586
522
514
591
681
675
540
353
229
221
305
425
549
656
753
851
947
996
905
606
143
-346
-762
-1137
-1597
-2167
-2673
-2851
-2590
-2041
-1462
-975
-474
208
1064
1883
2420
2605
2568
2493
2451
2378
2187
1870
1509
1212
1038
975
943
866
733
593
512
510
533
516
443
361
315
298
253
158
50
-7
-5
4
-25
-78
-93
-39
42
77
40
-26
-70
-85
-108
-163
-235
-292
-313
-305
-282
-255
-238
-230
-224
-203
-170
-153
-166
-198
-219
-226
-245
-297
-365
-401
-382
-336
-310
-323
-343
-326
-261
-191
-180
-246
-336
-380
-362
-334
-359
-432
-487
-478
-434
-417
-441
-466
-457
-434
-442
-476
-496
-487
-490
-547
-631
-682
-680
-672
-698
-740
-757
-756
-784
-852
-907
-899
-857
-857
-925
-1001
-1018
-983
-953
-964
-993
-1007
-1008
-1020
-1042
-1051
-1042
-1042
-1063
-1093
-1105
-1098
-1094
-1094
-1084
-1049
-995
-930
-854
-773
-704
-654
-606
-534
-430
-337
-288
-261
-189
-49
104
197
229
283
422
603
726
735
685
676
739
815
839
824
832
880
914
878
807
789
856
936
925
810
685
665
755
848
846
755
660
627
652
669
642
590
546
518
474
397
320
284
298
329
349
353
353
350
348
373
441
533
568
510
404
335
331
339
301
234
204
237
283
294
271
252
250
246
231
223
255
328
417
512
612
719
804
822
751
603
414
221
34
-161
-375
-581
-711
-710
-604
-479
-405
-366
-296
-168
-35
24
4
-39
-49
-19
8
5
-32
-78
-108
-117
-111
-101
-98
-103
-108
-101
-82
-56
-40
-50
-103
-192
-273
-302
-286
-263
-265
-286
-288
-262
-241
-276
-401
-620
-926
-1297
-1696
-2119
-2581
-3068
-3469
-3609
-3388
-2907
-2383
-1916
-1376
-566
492
1483
2048
2124
1987
1940
2006
1968
1658
1161
720
489
425
400
328
217
106
9
-67
-117
-153
-182
-206
-204
-169
-138
-140
-176
-213
-234
-238
-248
-283
-360
-473
-566
-563
-461
-367
-393
-519
-580
-453
-216
-81
-159
-336
-419
-354
-263
-278
-394
-494
-496
-430
-376
-358
-345
-334
-356
-428
-507
-521
-468
-418
-425
-458
-436
-334
-226
-196
-245
-298
-307
-301
-327
-379
-402
-361
-289
-251
-272
-323
-350
-327
-285
-280
-336
-404
-410
-345
-295
-345
-460
-517
-454
-368
-399
-549
-667
-630
-494
-432
-522
-674
-742
-693
-620
-634
-733
-825
-830
-775
-758
-838
-984
-1092
-1088
-1003
-939
-963
-1053
-1117
-1085
-973
-861
-818
-842
-872
-840
-738
-618
-531
-480
-434
-368
-296
-229
-153
-49
59
127
148
177
270
421
554
624
644
669
724
785
829
859
890
922
959
1029
1170
1367
1527
1561
1468
1342
1260
1198
1065
830
582
445
453
535
611
679
772
882
954
953
905
847
771
642
490
413
471
607
695
680
635
665
778
870
838
698
557
514
567
643
667
643
640
728
888
1030
1065
987
879
831
831
809
724
616
558
558
590
652
766
912
994
927
766
659
690
792
841
813
796
872
1024
1180
1296
1360
1345
1217
996
768
625
573
556
526
470
396
339
342
419
520
552
496
437
440
474
466
438
518
756
1024
1156
1153
1198
1440
1816
2124
2218
2107
1885
1639
1425
1257
1092
853
530
244
149
275
495
670
788
909
1031
1084
1028
949
958
1043
1062
909
640
397
220
12
-333
-771
-1148
-1365
-1475
-1553
-1541
-1287
-744
-64
560
1115
1747
2504
3193
3544
3511
3318
3183
3070
2767
2204
1594
1226
1166
1221
1183
1064
1024
1127
1251
1237
1076
891
768
658
486
286
192
281
454
552
530
484
539
685
785
728
548
384
338
371
347
169
-122
-373
-436
-273
30
326
490
475
317
104
-91
-260
-424
-564
-602
-467
-158
246
649
984
1203
1262
1151
909
589
227
-138
-425
-550
-537
-539
-691
-930
-1021
-814
-433
-157
-112
-153
-34
304
670
810
623
206
-254
-606
-791
-831
-776
-656
-438
-85
361
752
928
840
575
267
-7
-237
-418
-528
-544
-487
-409
-351
-313
-264
-210
-225
-369
-583
-715
-659
-483
-381
-443
-562
-583
-526
-582
-870
-1260
-1497
-1474
-1316
-1185
-1078
-870
-504
-93
209
372
477
584
639
564
385
236
225
334
464
550
622
729
852
914
866
753
667
642
630
586
536
555
666
802
859
798
683
625
682
803
875
823
693
610
653
770
824
748
607
517
531
593
622
599
554
516
491
478
491
526
553
535
481
438
446
489
509
473
404
354
339
320
252
152
92
113
170
175
105
28
27
90
123
68
-32
-50
-47
2
-14
-101
-184
-198
-156
-127
-157
-221
-253
-221
-168
-162
-212
-256
-230
-152
-103
-139
-228
-298
-325
-344
-389
-443
-456
-411
-345
-306
-299
-292
-244
-144
-24
69
99
77
54
64
99
116
93
55
45
74
113
121
93
54
34
39
43
17
-44
-102
-111
-75
-52
-81
-133
-149
-110
-75
-106
-205
-332
-487
-724
-1076
-1502
-1921
-2306
-2678
-2998
-3128
-2935
-2446
-1839
-1261
-683
24
879
1697
2220
2350
2219
2045
1939
1854
1686
1395
1042
723
514
427
402
354
231
59
-85
-136
-103
-50
-39
-80
-141
-196
-240
-280
-306
-309
-301
-314
-363
-422
-436
-384
-305
-277
-335
-436
-509
-518
-493
-481
-494
-508
-502
-483
-471
-473
-483
-486
-477
-453
-426
-414
-439
-493
-532
-524
-479
-454
-485
-544
-566
-524
-462
-438
-456
-465
-424
-358
-327
-347
-375
-364
-324
-309
-351
-422
-460
-431
-370
-347
-405
-506
-563
-530
-445
-392
-397
-398
-328
-207
-122
-120
-152
-148
-121
-155
-292
-468
-590
-636
-664
-724
-790
-797
-732
-644
-594
-591
-595
-568
-520
-500
-549
-637
-692
-665
-586
-538
-565
-625
-639
-585
-517
-490
-497
-478
-404
-310
-255
-247
-242
-193
-97
20
128
212
264
286
311
384
511
652
750
785
792
813
862
924
975
1011
1031
1042
1059
1093
1134
1154
1144
1125
1119
1115
1082
1019
963
944
944
931
903
883
878
859
804
736
691
673
654
609
557
531
536
555
566
560
543
533
545
570
573
520
430
361
349
365
354
305
267
276
306
309
287
292
353
423
427
358
291
290
333
336
244
91
-38
-87
-63
-8
52
127
237
388
558
712
814
847
813
737
653
583
528
473
407
342
303
307
339
365
350
286
196
114
59
30
13
7
32
102
200
276
300
283
266
267
263
231
184
159
170
193
209
233
287
357
398
383
343
318
306
273
216
177
193
241
263
241
219
246
317
371
362
310
257
217
149
5
-235
-559
-948
-1393
-1892
-2405
-2838
-3058
-2974
-2609
-2083
-1520
-930
-226
639
1546
2245
2556
2529
2387
2308
2267
2109
1751
1299
953
815
816
813
721
580
471
426
421
414
389
355
332
331
339
330
288
226
181
179
196
175
77
-71
-190
-212
-147
-74
-75
-156
-235
-226
-148
-135
-303
-604
-825
-791
-528
-238
-74
16
206
551
892
1018
897
713
641
636
505
176
-183
-330
-228
-100
-172
-417
-607
-585
-440
-369
-425
-481
-407
-218
-31
78
107
42
-165
-512
-877
-1104
-1157
-1132
-1100
-1008
-748
-341
45
256
284
238
186
86
-104
-337
-514
-595
-644
-733
-833
-854
-776
-679
-666
-759
-890
-997
-1070
-1112
-1112
-1068
-1024
-1058
-1189
-1325
-1366
-1305
-1234
-1230
-1250
-1208
-1101
-1016
-1027
-1090
-1113
-1080
-1061
-1104
-1155
-1116
-972
-799
-671
-589
-518
-440
-355
-240
-82
75
170
208
264
389
517
544
470
395
397
437
417
344
328
444
640
778
803
781
793
855
900
871
782
693
656
685
752
812
835
819
793
787
798
801
768
708
659
657
700
751
767
740
700
688
710
728
700
627
549
506
513
552
602
649
682
693
678
641
600
561
519
466
405
338
281
251
263
308
354
367
344
323
333
366
375
330
259
208
196
201
193
174
159
145
112
62
24
25
44
31
-34
-114
-145
-107
-30
45
94
123
141
166
219
304
394
443
434
407
413
465
518
530
504
495
536
596
618
580
518
487
493
494
452
384
341
352
383
394
399
435
497
534
501
422
350
280
129
-168
-574
-990
-1373
-1760
-2170
-2492
-2550
-2268
-1763
-1220
-704
-101
712
1677
2539
3037
3125
3000
2896
2875
2802
2524
2063
1611
1350
1295
1308
1244
1091
933
838
802
786
761
731
711
703
693
667
630
594
575
571
566
551
531
518
519
523
520
514
521
552
580
576
541
510
509
532
539
506
442
385
369
392
417
406
355
309
321
398
474
476
402
327
322
378
429
427
388
353
341
341
345
349
346
318
266
219
205
220
237
235
226
226
227
212
173
123
82
67
71
71
41
-22
-84
-110
-107
-120
-171
-231
-247
-222
-198
-204
-206
-162
-95
-79
-148
-244
-284
-268
-276
-353
-443
-463
-402
-333
-318
-349
-374
-373
-373
-402
-449
-490
-524
-571
-642
-708
-719
-673
-659
-794
-1102
-1432
-1553
-1353
-956
-605
-410
-265
19
485
979
1293
1341
1195
1013
918
935
1001
1036
1019
1000
1040
1141
1242
1290
1298
1301
1297
1253
1158
1065
1043
1104
1188
1228
1202
1130
1043
962
905
888
919
974
1008
1000
971
957
975
1006
1018
1006
983
966
964
982
1013
1040
1035
989
933
903
909
923
914
879
846
846
875
904
907
889
877
892
921
932
906
862
833
827
826
815
800
800
816
830
822
795
769
763
780
796
780
736
702
710
746
759
726
684
687
732
760
731
673
642
645
641
599
537
490
466
445
427
434
479
543
601
647
703
781
869
945
993
1011
1010
1008
1018
1041
1057
1044
1002
963
955
977
993
972
915
854
822
820
818
794
755
725
710
709
713
710
704
699
696
675
591
405
114
-244
-625
-1025
-1474
-1971
-2418
-2644
-2530
-2120
-1592
-1085
-559
145
1083
2058
2740
2963
2868
2741
2709
2654
2401
1959
1519
1252
1159
1122
1052
959
889
834
752
637
526
457
428
410
385
349
307
267
238
225
223
216
197
174
161
153
129
86
58
73
114
124
78
11
-22
-3
39
73
92
109
121
108
65
6
-51
-99
-142
-180
-204
-212
-201
-175
-138
-100
-71
-53
-42
-41
-50
-69
-86
-99
-121
-158
-193
-198
-163
-104
-43
7
56
103
123
95
24
-58
-116
-151
-195
-279
-385
-450
-424
-325
-238
-233
-295
-339
-304
-218
-169
-208
-292
-335
-297
-223
-174
-169
-182
-196
-228
-299
-392
-459
-477
-469
-468
-490
-517
-526
-506
-467
-433
-432
-464
-493
-480
-424
-386
-422
-505
-543
-471
-336
-245
-251
-275
-196
9
226
319
272
196
212
347
521
641
677
669
678
740
859
1003
1102
1100
1014
917
880
922
1032
1218
1489
1787
1996
2056
2046
2075
2113
1987
1610
1147
888
972
1260
1516
1627
1569
1303
780
90
-514
-846
-965
-1074
-1225
-1221
-843
-115
699
1323
1637
1633
1349
902
484
253
184
138
58
81
384
949
1538
1902
1965
1836
1651
1474
1316
1179
1070
975
856
696
503
321
194
141
139
158
203
316
494
624
540
204
-211
-450
-437
-354
-435
-688
-868
-733
-290
231
612
807
892
941
965
956
917
849
737
560
352
177
96
124
225
352
453
499
505
538
664
860
1002
968
761
537
455
523
585
493
287
169
298
603
842
850
708
661
843
1130
1266
1127
854
705
807
1052
1217
1183
1037
951
969
957
743
307
-228
-757
-1323
-2044
-2907
-3682
-4079
-3976
-3515
-2943
-2366
-1653
-604
775
2171
3158
3534
3471
3327
3301
3278
3020
2457
1788
1291
1090
1093
1134
1102
992
848
706
580
468
373
299
256
240
228
202
169
143
119
75
10
-52
-93
-122
-153
-181
-190
-176
-161
-164
-180
-193
-200
-214
-243
-272
-282
-273
-258
-249
-248
-248
-246
-241
-236
-236
-246
-261
-278
-305
-347
-392
-412
-390
-345
-314
-309
-301
-266
-221
-203
-209
-196
-139
-83
-107
-227
-373
-457
-471
-483
-551
-659
-745
-769
-745
-716
-702
-683
-643
-593
-566
-568
-559
-491
-371
-274
-270
-344
-407
-393
-348
-374
-506
-656
-698
-604
-461
-372
-365
-401
-439
-480
-538
-612
-694
-782
-876
-949
-965
-911
-822
-749
-708
-687
-669
-657
-657
-664
-660
-634
-590
-537
-480
-419
-351
-270
-170
-58
49
143
242
372
527
662
733
754
780
843
911
929
896
888
996
1228
1488
1649
1659
1579
1526
1555
1608
1580
1440
1265
1152
1122
1116
1084
1045
1043
1073
1086
1057
1023
1037
1100
1159
1166
1121
1068
1063
1129
1236
1310
1305
1259
1270
1395
1576
1702
1726
1706
1717
1742
1696
1532
1305
1111
991
902
786
633
494
429
465
576
703
796
853
907
986
1075
1127
1126
1098
1093
1120
1148
1145
1120
1101
1100
1105
1089
1046
990
931
871
816
778
777
823
895
959
996
1005
995
978
971
988
1029
1059
1035
963
907
936
1042
1139
1152
1095
1045
1049
1069
1046
971
900
878
895
900
871
843
862
931
1011
1057
1051
1011
980
983
1005
1021
1007
963
890
772
585
323
-6
-391
-829
-1300
-1725
-1984
-1972
-1675
-1195
-672
-165
396
1113
1960
2729
3177
3231
3066
2932
2920
2911
2740
2390
2007
1735
1600
1539
1487
1422
1340
1215
1048
899
830
836
842
789
689
597
543
519
507
509
530
556
570
573
576
572
537
473
419
410
430
425
369
297
255
246
233
194
155
149
173
192
185
170
174
189
181
138
91
79
98
114
105
89
96
126
147
147
148
165
170
112
-13
-138
-190
-161
-115
-108
-136
-156
-151
-141
-146
-151
-130
-86
-53
-48
-53
-45
-24
-13
-25
-52
-99
-188
-321
-446
-493
-436
-338
-291
-331
-405
-441
-414
-363
-347
-387
-459
-514
-520
-476
-417
-383
-383
-395
-388
-366
-358
-392
-460
-518
-516
-445
-344
-272
-254
-256
-217
-123
-29
-5
-61
-136
-164
-139
-104
-85
-61
9
123
230
291
322
371
459
564
645
693
751
859
997
1099
1121
1095
1084
1090
1060
972
898
941
1103
1256
1279
1198
1136
1156
1177
1080
862
650
565
605
680
718
729
763
835
915
960
953
911
876
892
966
1059
1110
1096
1051
1019
991
933
841
780
795
854
880
856
855
946
1080
1110
949
674
459
397
430
438
382
320
325
400
488
534
536
525
520
