42
19
58
56
-92
-407
-827
-1275
-1729
-2211
-2739
-3300
-3870
-4433
-4995
-5554
-6088
-6578
-7017
-7410
-7753
-8039
-8280
-8511
-8754
-8988
-9165
-9276
-9373
-9519
-9705
-9866
-9969
-10063
-10224
-10459
-10703
-10906
-11095
-11337
-11649
-11984
-12291
-12560
-12816
-13078
-13359
-13676
-14042
-14429
-14780
-15054
-15279
-15516
-15784
-16038
-16220
-16326
-16411
-16525
-16680
-16845
-16989
-17104
-17203
-17304
-17420
-17553
-17695
-17833
-17952
-18046
-18118
-18165
-18190
-18200
-18205
-18208
-18203
-18190
-18184
-18198
-18227
-18245
-18237
-18216
-18198
-18170
-18100
-17975
-17831
-17724
-17672
-17645
-17617
-17594
-17596
-17619
-17635
-17616
-17557
-17476
-17381
-17269
-17135
-16984
-16836
-16707
-16606
-16528
-16450
-16353
-16238
-16128
-16041
-15967
-15871
-15732
-15563
-15395
-15253
-15138
-15042
-14960
-14896
-14844
-14795
-14747
-14694
-14633
-14566
-14501
-14437
-14351
-14203
-13973
-13689
-13402
-13137
-12887
-12646
-12433
-12274
-12154
-12020
-11835
-11622
-11428
-11256
-11045
-10741
-10368
-10006
-9721
-9501
-9297
-9081
-8873
-8702
-8565
-8432
-8286
-8133
-7980
-7803
-7567
-7278
-7008
-6864
-6897
-7060
-7260
-7441
-7616
-7808
-7980
-8064
-8050
-8007
-7985
-7930
-7732
-7381
-7021
-6825
-6828
-6899
-6891
-6788
-6677
-6631
-6647
-6683
-6716
-6744
-6756
-6756
-6787
-6902
-7096
-7280
-7339
-7219
-6952
-6595
-6183
-5738
-5263
-4742
-4162
-3551
-3011
-2656
-2510
-2483
-2479
-2510
-2677
-3040
-3526
-3996
-4373
-4684
-4985
-5274
-5497
-5621
-5648
-5592
-5441
-5189
-4865
-4528
-4212
-3897
-3528
-3072
-2543
-1989
-1441
-883
-283
371
1062
1753
2431
3121
3849
4607
5372
6146
6971
7881
8863
9877
10909
11988
13128
14295
15426
16507
17586
18718
19900
21080
22224
23343
24459
25552
26587
27553
28458
29286
29979
30505
30901
31218
31437
31478
31321
31075
30879
30731
30466
29935
29178
28394
27735
27172
26573
25879
25171
24594
24221
24025
23912
23790
23605
23357
23091
22857
22656
22444
22177
21868
21576
21347
21174
21019
20851
20672
20488
20284
20037
19735
19380
18991
18582
18161
17715
17199
16569
15828
15025
14195
13315
12339
11271
10204
9209
8255
7233
6075
4826
3594
2432
1305
127
-1165
-2556
-3948
-5187
-6156
-6890
-7571
-8394
-9397
-10447
-11386
-12184
-12940
-13758
-14623
-15406
-15961
-16218
-16210
-16028
-15754
-15429
-15060
-14679
-14340
-14074
-13839
-13578
-13281
-12993
-12733
-12438
-12032
-11525
-10998
-10489
-9942
-9322
-8754
-8467
-8548
-8784
-8798
-8388
-7721
-7159
-6901
-6815
-6602
-6128
-5565
-5245
-5370
-5860
-6457
-6972
-7413
-7918
-8571
-9312
-10015
-10632
-11239
-11951
-12804
-13750
-14734
-15760
-16858
-18019
-19160
-20173
-20988
-21607
-22079
-22456
-22761
-22975
-23056
-22976
-22748
-22418
-22049
-21683
-21342
-21044
-20821
-20698
-20668
-20674
-20634
-20488
-20218
-19845
-19393
-18873
-18291
-17660
-17001
-16332
-15668
-15022
-14412
-13855
-13358
-12910
-12477
-12017
-11493
-10912
-10326
-9802
-9358
-8948
-8517
-8071
-7678
-7398
-7212
-7042
-6841
-6649
-6549
-6582
-6721
-6908
-7115
-7360
-7674
-8065
-8508
-8959
-9384
-9783
-10186
-10617
-11059
-11460
-11778
-12007
-12167
-12271
-12315
-12309
-12271
-12209
-12098
-11919
-11709
-11553
-11517
-11577
-11656
-11700
-11737
-11843
-12057
-12351
-12669
-12983
-13315
-13701
-14150
-14631
-15114
-15596
-16106
-16664
-17249
-17818
-18335
-18795
-19201
-19546
-19800
-19944
-19979
-19931
-19836
-19725
-19624
-19535
-19439
-19323
-19205
-19122
-19087
-19077
-19058
-19017
-18970
-18924
-18859
-18746
-18573
-18354
-18106
-17837
-17543
-17205
-16807
-16351
-15863
-15367
-14855
-14288
-13647
-12959
-12267
-11582
-10882
-10151
-9394
-8603
-7744
-6798
-5804
-4820
-3851
-2848
-1773
-660
420
1456
2487
3542
4584
5562
6493
7434
8399
9335
10192
10987
11785
12618
13448
14219
14903
15511
16064
16585
17093
17593
18062
18465
18794
19079
19360
19658
19960
20251
20507
20695
20781
20757
20652
20498
20311
20110
19912
19734
19562
19338
19030
18671
18338
18064
17736
17166
16281
15244
14315
13551
12671
11309
9426
7428
5821
4764
4029
3381
2892
2816
3239
3956
4696
5364
5979
6496
6797
6869
6876
6996
7234
7489
7722
8028
8460
8885
9077
8909
8409
7655
6661
5432
4046
2657
1423
447
-234
-671
-995
-1369
-1856
-2363
-2732
-2875
-2826
-2656
-2360
-1850
-1043
412
1323
1897
2923
5069
7161
9050
9896
11451
14544
17742
18873
17821
19624
25397
30828
28117
15162
-1382
-10906
-12093
-10378
-10400
-9595
-3335
5715
10787
6194
-3668
-10227
-9090
-3682
2115
4619
3725
195
-3778
-6937
-6576
-5889
-7074
-9036
-6761
41
7124
9514
4932
-2116
-6992
-7144
-4956
185
5084
6846
4088
205
-1941
-2149
-3289
-8578
-14138
-14252
-5947
4582
12175
11744
4832
-3810
-7650
-6158
-549
1817
-2457
-10453
-13588
-9297
866
8370
9165
4952
31
-3045
-4209
-3859
-1750
1207
3265
3186
1247
-1071
-2159
-1953
-637
377
932
682
148
348
373
-763
-1565
-1491
1046
2199
763
-2390
-1142
2374
3437
-3988
-15654
-20110
-10613
3364
7945
-1399
-13647
-13674
-1706
7309
3571
-7079
-10522
-915
9791
5870
-11936
-28216
-28921
-16184
-1906
3244
-8
-3153
-2646
-889
-182
-3012
-7622
-11674
-10290
-3155
6650
12303
8852
-2287
-13133
-16479
-11630
-1752
6012
7532
2563
-3805
-7819
-5982
-3107
-3432
-6609
-6869
-2613
2952
5474
2753
-1442
-3806
-2980
-1718
1250
3866
4288
1515
-1142
-1697
-365
-1677
-7752
-14422
-15149
-7070
4186
12592
14023
8838
1002
-2984
-272
8010
13601
8389
-7436
-23780
-31740
-28109
-17851
-6481
4353
13509
18724
13785
1270
-12191
-18539
-15125
-3522
10531
23459
30854
31269
24865
16409
11390
12350
16507
19924
16921
6895
-5853
-14231
-13995
-7960
-1443
526
-268
408
3915
6564
5418
184
-5782
-8862
-7053
-2915
559
-542
-7200
-13429
-12623
-3634
7710
13098
9621
1206
-5303
-7722
-7547
-4868
-349
3534
4805
2372
-2604
-6106
-6803
-5894
-3003
356
3990
5094
3645
155
-2037
-2602
-1271
-42
701
542
853
89
-272
-547
-219
-4
810
543
249
-37
-123
-665
55
60
277
457
563
-93
66
-111
-33
-160
-307
328
1052
750
-199
-993
-823
-221
486
76
160
958
939
179
-1022
-1243
445
4074
7834
7236
-1595
-17857
-28885
-21581
3226
26165
27487
6906
-12291
-10894
5849
15431
6116
-11574
-18348
-10879
-3583
-8846
-23530
32338
-31969
-25424
-21924
-23415
-26038
-26590
-25542
-24392
-23665
-22043
-21108
-20842
-22550
-25120
-27476
-28403
-27162
-24251
-21708
-21188
-22081
-22135
-20035
-17132
-15937
-17040
-17484
-14045
-6684
1085
5499
5795
4448
4021
5038
6646
8625
11761
16481
21037
22448
18937
14002
10719
11118
13578
14625
11258
4395
-2729
-5726
-2448
7446
17853
21170
12673
-3674
-16928
-15693
-1508
14087
18966
12409
4312
3864
11681
18073
14153
2901
-6061
-3228
8065
17732
16099
6052
-1611
-9
6059
7770
1621
-4464
-4227
-734
-1604
-6603
-8136
-1356
6879
7081
-1152
-4661
4595
18579
20476
4842
-17836
-29400
-23368
-7410
6415
11332
8266
-146
-9958
-16220
-16841
-10411
-1175
6694
8630
5283
-843
-6413
-8937
-7732
-3866
665
3974
5073
4122
2147
418
-160
639
2416
4464
6126
7063
7333
7300
7374
8117
8380
8303
8622
10009
11304
12371
12425
13345
16107
19339
20786
20130
22173
27877
-32563
29851
16595
-129
-9871
-11440
-10205
-10606
-9939
-3623
5951
9982
5288
-4122
-9640
-8114
-2884
1417
4485
4620
838
-5143
-8775
-6770
-2409
-4572
-14403
-21869
-17689
-1973
12465
16074
8588
-1661
-7391
-8638
-6498
-862
5217
7821
5306
-309
-3654
-2750
-3011
-7576
-13443
-13759
-5752
5398
11623
9873
3248
-2877
-5624
-5366
-3345
-115
3024
4428
3317
500
-2186
-3079
-2320
-446
691
2169
1749
881
-140
-676
-1354
-396
-72
467
743
830
-4
40
-222
-103
-236
-392
-74
1485
1936
1026
-594
-869
341
1608
114
-1560
-640
1975
2809
-1219
-6498
-5055
7088
24035
-32527
26041
5555
-11156
-11799
1945
14090
12003
-2232
-12182
-8319
2379
5375
-2163
-10000
-7270
2491
6309
-1374
-11796
-12173
-347
13373
17109
7918
-7455
-19645
-23100
-18781
-12124
-7864
-8494
-9866
-8831
-4255
-69
-804
-7108
-14671
-17394
-15047
-10051
-6519
-5006
-4223
-3516
-1570
1818
6126
9356
9907
10247
14642
22063
23756
12473
-6812
-19824
-18386
-8874
-3154
-3469
-2519
3270
6281
-1736
-16310
-22785
-12808
6553
20709
21851
15373
8987
5564
2993
572
1045
6169
14086
19363
20764
18873
14882
9994
5369
2215
847
751
-2566
-10058
-16499
-14118
-1453
14602
21481
14810
1478
-7451
-7375
-1303
1991
-826
-6474
-9219
-7137
-1548
2239
3133
1897
1035
742
1148
614
-123
-214
-264
-669
-1261
-1397
-581
725
1932
2225
1751
-396
-2107
-2260
-593
-155
-176
-408
643
1817
937
-1099
197
7284
15521
15685
3030
-16203
-28965
-26936
-13555
-381
3093
-2897
-9849
-9437
-626
10106
14850
11229
3562
-2219
-3707
-2665
-1769
-1538
-1802
-1121
-732
-586
356
1638
2783
3094
1341
-779
-2273
-2466
-2216
-118
1214
2028
2049
1432
-300
-733
-1361
-1206
-454
544
524
1197
730
204
-147
-161
-726
-12
13
145
331
556
-56
190
101
118
-251
-183
-561
357
579
144
-778
-1134
-597
1293
593
-1151
-2243
231
2898
1186
-6479
-11905
-7774
2267
5187
-5093
-20226
-23951
-11315
2697
3004
-7708
-15077
-10663
-2878
-7275
-24047
29259
-29948
-8248
13523
21309
14525
4366
-414
2283
10239
16828
17883
12941
4387
-2583
-6601
-7026
-5738
-3128
259
3377
5362
5911
5005
2495
1270
2289
7023
11564
12381
6359
-5872
-20141
-29479
-29865
-19817
-4520
7474
10031
4946
-2445
-5147
-1053
7863
17275
22808
18638
4717
-13553
-26670
-28231
-19747
-8666
-1608
-223
-2528
-6149
-9594
-11779
-12010
-11090
-9878
-10730
-12734
-14917
-16363
-16699
-16202
-15574
-15530
-16416
-18046
-19831
-21147
-21680
-21534
-21087
-20742
-20773
-21281
-22197
-23299
-24283
-24902
-25093
-24988
-24801
-24694
-24713
-24818
-24933
-24992
-24946
-24778
-24506
-24196
-23943
-23816
-23812
-23857
-23872
-23849
-23846
-23896
-23950
-23910
-23741
-23522
-23352
-23245
-23113
-22881
-22589
-22378
-22355
-22491
-22642
-22674
-22586
-22506
-22572
-22802
-23092
-23329
-23525
-24169
-23970
-23803
-23885
-24559
-25324
-25985
-25567
-26160
-27995
-29531
-29121
-27858
-29548
32021
29600
-30851
-18174
-3638
6799
11360
13386
12693
7843
-393
-6637
-6532
-625
2916
-535
-7387
-9781
-5274
-419
-1072
-8025
-13995
-11649
-2229
8130
13838
11164
2199
-6982
-11485
-8087
-1111
3269
305
-7180
-11586
-9438
-2053
5738
8268
5211
-404
-3271
-2781
575
738
-4861
-12844
-15018
-8964
1265
9161
9948
5770
267
-3274
-5114
-4559
-1208
1990
3045
2889
2269
2511
738
-3749
-9406
-11189
-5765
3245
10513
10816
5910
-247
-1787
1425
7181
10456
8001
574
-5893
-6690
538
10921
16742
14078
5371
-2343
-5113
-1671
5264
12016
14869
10090
-2529
-19443
-31184
-31100
-19500
-3635
7459
10032
4966
-1493
-4930
-4055
-420
3949
7146
8975
9763
9037
5957
2058
1142
8183
22413
-30952
-32284
18865
3249
474
10143
17963
12479
937
-1926
9047
21234
20381
7692
-492
4009
13625
14832
4987
-6375
-9375
-5202
-1726
-3315
-5055
-1786
5926
10261
6589
-3387
-11952
-11758
-4245
3032
5188
4034
6072
13447
20709
18391
5955
-8458
-14607
-9177
3353
13079
15043
8751
-2285
-13440
-18864
-15398
-1504
17350
30920
30808
17964
1609
-7188
-5131
2067
4743
-151
-8235
-13138
-9505
-596
9021
12793
8693
-2085
-14661
-25994
-32117
-30508
-21684
-11344
-7819
-12696
-20947
-22716
-13943
193
10407
11400
4846
-3718
-9184
-8892
-3259
3948
7111
2935
-5810
-11411
-7229
6444
21787
28510
20856
1457
-18698
-29393
-24773
-9039
8233
18669
20460
14949
7420
1908
1004
5232
12216
19089
22037
21574
19249
17086
16573
18124
21085
24204
26338
27007
26504
25559
24841
24669
25011
25591
26028
25988
25382
24468
23714
23491
24181
24414
24172
24145
25055
25855
26503
26195
26652
28640
30677
30176
28690
29355
-32350
-29894
30540
17712
1788
-9289
-13206
-12233
-9674
-6353
-3004
1899
7955
13153
13714
7504
-2213
-7782
-4505
4124
9434
6440
-1726
-9359
-12677
-12502
-9708
-4818
312
160
-5596
-11157
-8243
4580
19728
26045
20809
10587
3874
3756
5340
4339
-957
-6156
-5857
1896
13338
23907
28098
24352
14445
2575
-6197
-7956
-2151
8343
18646
24610
24590
19756
13116
7906
6182
8193
12632
17451
20813
21777
20490
17927
15334
13675
13313
14008
15141
16041
16272
15787
14868
13917
13215
12827
12679
12685
12805
13018
13280
13545
13805
14089
14432
14841
15321
16213
16391
16135
16280
17524
18715
19721
19711
20469
22863
25467
26054
24389
25403
30198
-30961
30888
17120
-97
-10208
-11880
-10454
-10512
-9547
-3097
6044
11091
6431
-3477
-10046
-8906
-3506
2254
4691
3706
95
-3916
-7048
-6613
-5842
-6969
-8892
-6878
-191
7796
10910
5666
-2710
-8365
-7746
-4022
378
3906
6184
6279
3752
-1878
-6288
-5676
494
8017
10781
7084
-1312
-8540
-11364
-9431
-3563
6405
17029
24652
24885
17303
6117
-1637
-3804
-1164
1576
823
-2813
-6106
-6270
-4723
-3782
-6071
-9712
-11574
-11187
-11007
-13136
-16108
-16976
-15351
-14343
-17188
-23121
-27689
-27131
-22148
-16700
-14512
-16692
-21954
-27947
-32451
31735
-31299
-26235
-21008
-17914
-18055
-20955
-24915
-28283
-29725
-28999
-26801
-24266
-22401
-21762
-22381
-23862
-25570
-26568
-26360
-25486
-24717
-24247
-23409
-21834
-20404
-20351
-21029
-20280
-17152
-13854
-13704
-17015
-19864
-18583
-14188
-11255
-12213
-14122
-11774
-4229
3420
4740
-2092
-13027
-21443
-22783
-16319
-4533
8207
17236
19334
14546
5980
-1690
-4808
-2257
4469
12353
18419
20964
20007
16939
13712
11964
12425
14787
18017
20930
22728
23245
22854
22180
21780
21960
22731
23889
25149
26268
27125
27721
28127
28433
28709
29004
29334
29685
30019
30311
30559
30770
30942
31045
31039
30898
30630
30267
29847
29396
28906
28335
27630
26764
25765
24699
23618
22514
21329
20017
18597
17137
15692
14266
12830
11363
9887
8454
7106
5858
4692
3565
2433
1287
156
-916
-1911
-2855
-3782
-4690
-5545
-6318
-7022
-7684
-8315
-8895
-9411
-9868
-10278
-10640
-10940
-11174
-11363
-11554
-11811
-12158
-12574
-13032
-13544
-14150
-14884
-15724
-16629
-17585
-18608
-19693
-20846
-22144
-23721
-25594
-27518
-29086
-30029
-30430
-30575
-30619
-30429
-29796
-28752
-27638
-26862
-26621
-26844
-27340
-27961
-28664
-29457
-30308
-31105
-31675
-31908
-31836
-31635
-31467
-31317
-31027
-30498
-29813
-29145
-28540
-27830
-26793
-25412
-23906
-22514
-21277
-20060
-18753
-17374
-15986
-14572
-13062
-11452
-9855
-8371
-6974
-5554
-4059
-2550
-1124
184
1408
2603
3793
4975
6128
7210
8173
9009
9747
10412
10991
11449
11794
12090
12405
12754
13119
13485
13862
14254
14637
14972
15233
15400
15441
15325
15045
14613
14039
13310
12408
11361
10251
9173
8153
7138
6062
4931
3836
2864
1989
1110
155
-836
-1780
-2646
-3473
-4287
-5039
-5672
-6198
-6691
-7185
-7641
-8000
-8275
-8535
-8832
-9157
-9473
-9763
-10034
-10304
-10591
-10918
-11280
-11619
-11858
-11967
-11992
-11991
-11963
-11867
-11688
-11475
-11299
-11194
-11148
-11142
-11170
-11231
-11311
-11387
-11430
-11415
-11323
-11147
-10893
-10558
-10125
-9590
-8992
-8391
-7809
-7208
-6525
-5746
-4908
-4043
-3123
-2097
-950
272
1511
2758
4039
5350
6625
7782
8800
9717
10564
11327
11976
12522
13018
13491
13912
14246
14509
14756
14999
15179
15241
15212
15187
15252
15409
15616
15846
16099
16387
16708
17048
17374
17622
17726
17674
17537
17403
17309
17235
17185
17555
17266
16576
16257
16989
17676
18246
17873
18304
20414
22844
23422
21900
23162
28306
-32381
30026
16768
-123
-10107
-11759
-10332
-10405
-9521
-3212
5800
10806
6202
-3601
-10067
-8854
-3420
2329
4715
3668
14
-3998
-7099
-6618
-5808
-6917
-8877
-6666
45
7050
9404
4837
-2162
-6978
-7051
-4606
-383
3955
6787
4987
1136
-2609
-3344
-3669
-7407
-13675
-16071
-8048
6365
16481
12388
-3928
-19419
-20354
-7365
7923
11393
-653
-19040
-28873
-23840
-7539
8333
14536
10421
1526
-6424
-14272
-22224
-27946
-26370
-16501
-5381
-2683
-10155
-20772
-24658
-22016
-18279
-16744
-14478
-8512
-2096
-1824
-8866
-16700
-18115
-13790
-10015
-10880
-14314
-14221
-11139
-9712
-13298
-18939
-20094
-14215
-5227
401
2386
3572
8140
15218
19925
17884
9194
-1301
-7167
-5046
2179
6175
1542
-12079
-25344
-29193
-18838
671
17173
19503
6678
-9241
-12370
1227
18674
22692
10533
-2333
-2758
6988
11796
5150
-2023
3474
18241
23905
9853
-15607
-31837
-27021
-9159
7406
13959
10839
3224
-6015
-15634
-23850
-24258
-17064
-6207
-2249
-9007
-19962
-23286
-12889
1709
7828
3398
-489
5487
17614
20313
7161
-10914
-16338
-4442
10678
13859
2085
-11715
-14325
-4242
8500
14789
11172
226
-10602
-14877
-10459
-1000
6590
5877
-1279
-8780
-10818
-6582
772
4905
4469
459
-832
1461
4184
1103
-7315
-13267
-9362
1843
9698
7460
-1206
-7810
-9735
-7454
-4973
-92
7012
11589
8611
229
-5901
-5121
-445
1691
180
-1178
2713
6822
6967
1261
-4032
-5485
-2231
-2074
-6753
-13067
-12699
-4736
6431
12016
9507
2254
-4106
-6608
-5739
-3007
743
4019
5163
3540
191
-2837
-3774
-2788
-545
938
2611
2186
1150
-107
-846
-1625
-649
-218
460
847
985
103
294
-467
-285
19
138
-313
-72
747
1071
494
-947
-1661
-208
869
976
-914
-1226
366
3225
1276
-3578
-6507
-772
9951
14579
3437
-16409
-27871
-19900
-117
13998
11367
-49
-6531
-2832
4900
10490
11770
11076
5403
-7100
-20578
-22915
-7814
15214
30556
28260
14119
937
-3103
1915
10714
19983
25247
25133
18836
10768
4730
4604
9123
15501
20518
22083
20032
15867
11736
9331
9248
10989
13390
15204
15623
14558
12572
10483
8909
8033
7691
7578
7399
6929
6063
4875
3568
2328
1223
243
-592
-1265
-1889
-2721
-3930
-5379
-6674
-7512
-7949
-8293
-8757
-9244
-9467
-9245
-8621
-7772
-6843
-5897
-4961
-4039
-3100
-2070
-915
300
1432
2391
3217
4034
4927
5866
6764
7587
8381
9187
9974
10681
11310
11954
12686
13458
14123
14581
14859
15044
15167
15186
15065
14835
14559
14247
13849
13330
12714
12063
11407
10732
10014
9236
8358
7313
6040
4540
2867
1069
-857
-2938
-5166
-7484
-9827
-12187
-14589
-17400
-19156
-20625
-22031
-23778
-25425
-26820
-27000
-27985
-29874
-31079
-30122
-28412
-29956
31575
29227
-30948
-17765
-2987
6757
11848
13654
12673
7399
-806
-6452
-6054
-786
1975
-926
-6149
-7967
-5148
-107
1402
-1624
-5785
-5154
1186
9324
13123
7773
-3239
-11115
-10649
-2372
7918
11658
6729
-3080
-9233
-8237
-191
6138
4748
-3056
-9026
-9457
-3912
1079
2454
1697
1322
1786
1778
715
-227
-463
-416
-701
-1267
-1471
-666
531
1704
1944
1435
-592
-1989
-1873
-671
-88
82
-172
818
1623
452
-1964
-666
3421
7446
3893
-8960
-24128
-29239
-21374
-4156
10254
12598
2286
-10673
-17389
-10959
3248
14095
13095
2747
-10649
-17616
-16980
-11951
-5943
106
5476
8259
6979
2965
-398
361
3175
4054
2794
3411
8105
14084
11622
338
-11326
-12498
-4571
-375
-9540
-22970
-26780
-13997
4863
14980
10823
782
-6206
-7998
-4921
1243
6592
6683
-1958
-12478
-14842
-3869
10514
15738
6295
-7986
-14658
-8897
1319
5698
533
-11514
-20775
-20048
-9397
3016
6234
-1878
-10583
-6771
6922
16213
8338
-9044
-18796
-12024
-21
3628
-1565
-4706
1055
7353
3097
-7401
-10918
-2073
9410
11999
3098
-7918
-12738
-9939
-4360
1205
6477
9402
10520
9802
8576
6270
4618
5270
8540
11944
9325
1060
-7677
-10250
-8966
-7028
-6525
-4125
751
5492
4547
546
-1945
-36
2400
2694
1258
1040
4872
7760
5621
-1543
-7881
-9631
-5119
200
1655
-2278
-4934
-3334
1871
4566
91
-8366
-12621
-9005
-1137
4959
5589
2428
-577
-1731
-1239
379
1650
1171
-998
-2198
-3784
-4289
-4913
-4150
-2915
-2492
-4574
-6637
-3742
3194
6735
610
-10635
-17418
-13137
-3342
3218
3084
1584
1568
2438
2666
3631
5025
3821
-5259
-18765
-25648
-18496
-3497
7136
4801
-6030
-15210
-17101
-13085
-8046
-3630
-2351
-4280
-10010
-15862
-19234
-17362
-12146
-6354
-2641
-2317
-4966
-8930
-12277
-13697
-12933
-10687
-8171
-6541
-6430
-7762
-9899
-12062
-14136
-14415
-14206
-14359
-15660
-17644
-19556
-22052
-24501
-27408
-29122
-28963
-28606
-30504
30564
29218
-30437
-17101
-2436
6718
7817
2628
-3456
-8021
-9066
-5493
2236
9904
12973
7004
-4742
-15714
-17925
-9835
1639
6128
-890
-11364
-14349
-4344
9683
14782
10588
5618
7696
10729
6383
-4720
-8725
2067
19237
26663
18204
6137
4928
12132
14839
5378
-7528
-12158
-3194
9147
14113
9133
907
-5805
-9203
-9997
-8685
-5410
-1178
2827
5468
7887
7842
5022
-576
-5892
-6492
-3359
-1967
-5499
-11748
-13610
-6276
4823
11716
10019
1777
-4971
-5713
-2240
-753
-5001
-11612
-12994
-5319
2772
2609
-9125
-22066
-23593
-12237
1412
5525
139
-7002
-9359
-4452
7207
19288
24061
16289
130
-10078
-4844
8678
15768
10881
2960
3521
10451
12405
5116
-2015
7
5944
5337
-4838
-12839
-8366
5143
16320
15599
6910
-1556
-2610
2275
8342
8536
1902
-7246
-11174
-7792
-1881
-3672
-13560
-21510
-16605
-1478
12729
15540
7549
-2894
-7983
-8236
-5570
-1446
3551
7047
6881
2064
-2295
-1852
2129
2988
-4881
-19763
-31709
32766
-21602
-6769
1831
953
-3680
-5879
-2215
3733
6350
2683
-4758
-12388
-15077
-11043
-1468
10180
19452
22721
19263
11423
3505
-638
687
6532
14090
20251
23046
22264
19172
15686
13513
13524
15553
18647
21606
23531
24107
23592
22590
21739
21462
21852
22722
23755
24640
25183
25367
25329
25274
25331
25505
25755
26087
26547
27106
27640
28050
28379
28745
29181
29577
29814
29911
30000
30175
30395
30559
30612
30569
30446
30234
29939
29613
29304
28988
28596
28113
27611
27150
26699
26157
25478
24737
24048
23443
22855
22212
21521
20842
20195
19554
18896
18233
17579
16921
16242
15562
14924
14349
13800
13236
12654
12081
11511
10889
10160
9312
8398
7463
6496
5433
4226
2882
1478
85
-1281
-2652
-4060
-5480
-6853
-8132
-9320
-10836
-11381
-11917
-12758
-14227
-15744
-17140
-17598
-19289
-22286
-24764
-24998
-24308
-26764
-31639
30746
-30035
-17416
-2972
7203
11466
13355
12709
7955
-236
-6473
-6348
-405
3134
-380
-7321
-9789
-5334
-494
-1114
-7990
-13867
-11439
-1936
8940
13990
10547
1200
-7525
-11470
-8294
-1448
2884
927
-5900
-10535
-8047
2757
15206
20369
13683
-1739
-16151
-22648
-19298
-11710
-6774
-7046
-8732
-8416
-3426
4792
13063
18473
18866
14818
7320
1045
-913
2150
8574
15381
19741
20188
17071
12145
7594
5038
4941
6645
8855
10269
10100
8305
5492
2564
271
-1077
-1623
-1756
-1875
-2257
-3015
-4110
-5368
-6554
-7492
-8149
-8621
-9033
-9460
-9909
-10358
-10795
-11234
-11686
-12145
-12569
-12911
-13153
-13328
-13486
-13648
-13794
-13910
-14016
-14141
-14284
-14395
-14429
-14397
-14349
-14327
-14326
-14313
-14273
-14224
-14196
-14202
-14231
-14252
-14241
-14200
-14150
-14118
-14115
-14127
-14131
-14125
-14131
-14166
-14216
-14249
-14234
-14166
-14047
-13860
-13583
-13204
-12734
-12183
-11545
-10805
-9972
-9083
-8171
-7241
-6261
-5208
-4098
-2980
-1900
-867
129
1096
2019
2879
3677
4434
5172
5903
6640
7409
8237
9134
10085
11079
12115
13192
14274
15306
16598
17051
17002
17330
18726
20023
21101
21164
21993
24413
26958
27398
25525
26291
30807
-30627
31009
17131
-103
-10195
-11856
-10436
-10500
-9534
-3076
6077
11146
6513
-3377
-9955
-8856
-3509
2210
4629
3655
72
-3904
-7010
-6567
-5808
-6959
-8939
-6720
16
7052
9430
4872
-2131
-6963
-7089
-4901
218
5086
6822
4053
174
-1956
-2147
-3274
-8557
-14121
-14244
-5949
4573
12165
11736
4828
-3810
-7647
-6155
-546
1852
-2644
-10278
-13574
-8710
1124
8184
8466
4401
283
-1571
-3151
-3704
-2077
1312
3392
2626
-111
591
5362
8016
3903
-6442
-12415
-6262
11418
27729
30707
17865
-899
-14506
-13589
-1973
9653
9975
-1899
-15966
-17143
439
22461
31969
20817
2753
-2175
10786
25808
24742
8271
-5019
-918
13517
19041
7868
-7622
-11217
-2692
4137
2041
-2054
3914
16836
21168
7914
-12593
-22660
-15209
-427
7563
2337
-9275
-18498
-20784
-15672
-5413
6822
14547
14526
5865
-6200
-15559
-18035
-13004
-3049
7632
15245
17887
15995
11694
7541
5337
5584
7602
10003
11364
10859
8649
5748
3407
2465
3146
5312
8729
13044
17668
21888
25209
27561
29057
29256
29235
27880
25011
20579
15366
9746
4987
-464
-6334
-11110
-13497
-15312
-20399
-27361
-31620
-27349
-15212
-1581
7670
11543
13702
13240
8072
-596
-6056
-2620
5966
10911
5053
-6742
-13480
-8475
3604
13211
11630
200
-11504
-15084
-8410
2478
6856
1197
-8242
-13251
-9121
-415
5678
6354
3674
1127
-1792
-4143
-4538
-1805
2194
3687
2677
-169
215
1867
-1586
-12044
-25614
-30808
-22246
-3511
11558
13104
2850
-6738
-7566
1374
11197
12702
2526
-11730
-20203
-15200
-1277
10859
13496
9038
5021
7120
11402
13073
11757
11003
12113
12580
12625
13061
14647
13746
9898
6089
9041
16145
16614
6133
-7793
-12756
-7417
-169
-1459
-8536
-11998
-6401
2726
9148
8855
4190
-925
-3993
-2850
403
318
-5541
-13202
-13969
-7726
1764
8764
9985
7249
798
-5334
-8204
-2049
8244
13097
5540
-6324
-10104
-2839
5654
6192
675
-589
6601
13487
12479
4476
-214
1889
6723
6056
709
-2924
-509
6196
9340
4945
-1118
-1752
6014
14652
15630
7424
-2324
-1547
7207
14636
12768
7879
8459
17378
21778
13170
-2817
-11000
-2898
11246
13738
1605
-12562
-14286
-2787
9940
14289
9700
3873
582
-950
-1039
3008
10476
15058
9972
-4445
-17960
-19377
-6583
9978
18553
16603
12711
13495
17482
15770
6306
-1267
4432
18563
25172
13577
-6957
-16938
-8670
5336
8725
1084
-3201
5897
21644
29243
23157
11924
6395
8003
9489
5405
-1661
-4931
-946
6345
12092
12247
8867
4207
-144
-3925
-6722
-6925
-3520
2230
7159
8600
6114
1217
-4248
-8567
-10522
-9552
-6307
-2466
77
556
-960
-3396
-5690
-6863
-6787
-5678
-4280
-3055
-2423
-2541
-3127
-3529
-3468
-3099
-2871
-2710
-2362
-2163
-2953
-4814
-6686
-7387
-7553
-9231
-13069
-16659
-17516
-14182
-11141
-11996
-16441
-20293
-21460
-20554
-22156
-26172
-27956
-23335
-15342
-10000
-12441
-18458
-19455
-11003
1662
10830
11032
4918
-1525
-4388
-4030
-2705
-1558
-388
627
362
-1678
-3849
-3585
-551
2679
3064
912
663
2973
4693
-366
-13221
-27136
32722
-29272
-21480
-15992
-14164
-13013
-9174
-4825
-2545
-4716
-10936
-18169
-20433
-14890
-2866
7248
6767
-4527
-17636
-22921
-18826
-11453
-6157
-2594
1550
4851
2446
-7308
-19097
-24682
-20540
-10405
-953
2530
222
-6958
-14577
-18839
-15551
-5629
3458
2602
-10202
-25778
-31540
-23968
-12543
-8860
-13169
-14608
-5964
6394
9368
176
-9054
-5619
8181
17102
10176
-7559
-21403
-21538
-9964
5109
16556
20772
16887
7545
-726
-2264
3797
10889
15370
16411
17062
16637
12513
5514
1571
6517
18231
27932
26481
16459
6393
5060
10980
16927
18665
19077
21991
24677
20651
10130
3189
8963
22389
27052
13713
-7262
-16425
-7238
7031
10188
2163
-2700
5476
20304
28300
24536
16544
13018
14303
14859
11566
6907
4867
7424
12583
18448
19790
14239
3107
-5657
-4015
7707
20323
24432
18982
10567
4802
1335
-2321
-4955
-1886
8159
19725
24901
20690
10682
1005
-3665
-1309
7171
16893
20345
13978
2442
-4468
-1545
7196
14067
16235
16669
17471
15946
9144
80
-3273
3176
15168
24136
25087
19293
11303
5517
5169
10711
18359
21068
15181
5035
-408
3200
11451
17083
18118
18027
18810
17646
11616
3809
1267
6369
13667
15882
12159
7952
7568
9089
7548
1722
-3719
-3179
4542
15229
23067
24360
18787
8800
-1535
-7998
-7859
-1527
7849
15909
19471
17741
12223
5753
1121
-91
2014
5971
9818
12023
12011
10145
7345
4619
2702
1869
1954
2487
2940
2940
2387
1429
341
-617
-1322
-1807
-2205
-2639
-3154
-3727
-4321
-4908
-5451
-5910
-6270
-6557
-6808
-7034
-7228
-7387
-7542
-7723
-7914
-8064
-8125
-8081
-7916
-7590
-7061
-6326
-5466
-4605
-3821
-3093
-2327
-1430
-384
745
1878
2976
4054
5137
6214
7241
8178
9017
9778
10498
11213
11963
12789
13727
14790
15974
17275
18692
20208
21776
23333
24829
26252
27611
28898
30063
31042
31807
32383
-32709
-32377
-32188
-32182
-32361
-32698
32364
31757
31017
30155
29163
27997
26611
25026
23332
21612
19879
18085
16213
14320
12485
10734
9041
7398
5852
4478
3309
2307
1432
718
265
147
331
695
1115
1541
1989
2824
2949
2684
2897
4248
5527
6639
6940
8387
11813
15571
17267
16732
19070
25381
31222
28689
15740
-837
-10395
-11700
-10223
-10507
-9811
-3765
5701
10630
6614
-3527
-10424
-9680
-3602
2390
4890
4134
294
-3678
-6682
-7606
-8004
-8406
-6646
390
9528
14407
9353
-2618
-11636
-10587
-688
8320
9989
3587
-6808
-16384
-20645
-18024
-6794
9955
24949
30405
23945
10325
-1881
-7990
-8007
-6663
-5898
-4800
-3099
-2533
-5372
-8798
-9863
-7916
-6861
-10424
-16559
-19164
-15610
-11017
-12203
-19250
-25280
-24173
-17566
-12313
-13171
-18284
-22889
-24474
-24035
-23042
-21111
-17717
-13753
-11907
-12392
-15807
-19972
-24178
-26087
-24031
-19947
-19083
-24399
-31096
-30292
-20242
-10326
-10985
-19704
-22501
-10862
6220
11719
732
-12972
-13568
-2151
5502
-1872
-18066
-28116
-25225
-16559
-12133
-13267
-13256
-7550
404
3679
-1199
-9881
-16918
-17439
-13305
-7335
-2069
2214
6108
8469
7063
1530
-4565
-5809
-328
7933
12849
12398
9930
9465
10415
9109
4893
2564
7606
18327
26798
24667
14862
5714
5449
12058
18086
19419
19251
21702
24211
20333
10208
3747
9909
23553
28328
15150
-5490
-14114
-3860
10621
13357
5281
1644
11520
26787
-32192
29628
24417
23784
24221
21451
18798
21546
24403
19642
5922
-5184
-7521
-5755
-12158
-23549
-25753
-11410
8204
16199
11211
5522
9905
18080
17003
3493
-12504
-19800
-16147
-8384
-1316
3371
5446
2384
-5662
-12982
-12412
-2485
7042
5475
-7121
-17646
-13279
3160
14168
9450
-4379
-10310
-5383
-804
-8776
-19687
-18070
225
21462
30297
25445
14555
2520
-9360
-16516
-10132
5798
16179
8654
-7491
-12429
-1998
8256
-584
-21695
-30994
-16616
5883
11211
-3563
-19008
-15483
3097
16287
11612
-1567
-6580
332
6497
2379
-6769
-8480
-568
6972
5579
-897
-3112
1680
2618
-4628
-12856
-8239
7750
21778
17726
48
-15026
-14225
-1613
9806
11082
4107
-3435
-6134
-4789
-2990
-2763
-3336
-2932
-1380
667
2741
5443
6484
4406
-908
-5001
-5344
-2772
-1343
-5112
-10575
-11660
-5059
4048
9984
9168
2902
-4400
-7356
-5126
686
4266
1252
-6248
-9524
-3329
11021
23715
25302
14311
-3411
-18676
-26452
-23528
-11147
6432
22025
29210
23422
8278
-8565
-18581
-17098
-5612
10927
24575
31166
29000
20254
9622
2080
379
4272
11261
18053
22012
22069
18853
14129
9862
7378
6968
8006
9409
10169
9749
8197
5996
3731
1825
418
-571
-1327
-2048
-2863
-3796
-4779
-5714
-6549
-7263
-7834
-8221
-8400
-8397
-8280
-8121
-7960
-7806
-7672
-7575
-7530
-7522
-7502
-7404
-7200
-6912
-6583
-6230
-5842
-5415
-4982
-4584
-4227
-3872
-3498
-3137
-2858
-2698
-2641
-2644
-2678
-2736
-2821
-2935
-3080
-3236
-3354
-3370
-3249
-3010
-2693
-2297
-1782
-1125
-368
417
1189
1962
2756
3547
4276
4918
5504
6086
6692
7316
7931
8508
9032
9508
9980
10504
11106
11762
12446
13177
14015
14979
16005
17004
17963
18967
20082
21232
22218
22888
23297
23658
24148
24745
25286
25671
25992
26438
27100
27879
28594
29152
29578
29920
30162
30266
30255
30223
30243
30302
30362
30436
30588
30838
31110
31286
31309
31205
31025
30784
30486
30191
30021
30068
30293
30558
30765
30950
31220
31594
31943
32107
32046
31849
31597
31296
31259
30379
29003
28006
28067
28023
27788
26621
26367
27924
29865
29897
27650
27965
32041
-29611
32109
18403
1094
-9425
-11637
-10564
-10625
-9698
-3304
7141
11894
6650
-4079
-10585
-8922
-3115
1593
4018
4836
2826
-2953
-9876
-11486
-6293
893
4419
4653
3295
387
-5742
-14590
-17514
-7439
12804
27526
23883
3739
-19844
-31809
-26805
-12711
-376
4340
652
-5621
-8025
-4336
3717
10267
9179
788
-8670
-11512
-5431
4038
10826
10589
5602
-2035
-8812
-11404
-8268
-2559
-292
-3839
-7504
-6905
-3542
-4585
-12677
-16831
-9241
5633
11130
1920
-10009
-5856
13747
30798
27156
8104
-7001
-3739
10302
19665
15358
4701
-2584
-2923
-2420
-5759
-10539
-12386
-7533
-83
7660
12226
12973
9277
1610
-7423
-11441
-8947
-2920
1612
1986
1047
-1721
-5136
-10444
-13460
-10608
-1140
8462
12770
9361
675
-8342
-11395
-7076
1927
6992
1862
-10252
-17216
-12380
-64
6865
2317
-6331
-7368
2739
13330
13949
3093
-10747
-18557
-17753
-14939
-15481
-20892
-28068
-32453
-31709
-25868
-19314
-14453
-14447
-19223
-26285
-32196
31260
-31753
-26255
-20623
-17479
-17972
-21426
-25800
-29184
-30221
-28884
-26188
-23488
-21793
-21508
-22502
-24243
-25971
-26675
-25978
-24782
-23980
-23724
-23370
-22341
-21214
-20729
-20303
-18347
-14261
-9872
-8027
-9671
-11698
-10650
-6592
-952
2603
3475
3180
3343
3835
5691
8084
11132
14916
19321
22976
25214
22626
13968
1257
-9957
-15042
-11361
-2990
4886
8651
7776
3356
-861
-3705
-3956
-1866
1305
3117
3547
1989
-286
-1787
-1929
-1716
145
1063
1442
1214
669
-683
-585
-759
-414
200
815
342
682
123
-248
-290
15
-347
392
284
202
190
306
-335
179
-12
-28
113
381
-175
334
70
-37
72
146
-148
535
-18
-70
146
186
-517
-156
-296
430
612
342
46
844
537
-636
-1233
826
2659
2067
-3235
-8311
-8669
-4995
-1190
1385
6204
14971
20409
12777
-6901
-22702
-20108
-1309
17491
20933
9857
-3284
-9189
-5153
1806
7524
8678
4278
-4367
-10032
-7252
4322
14469
14194
3506
-10674
-19793
-19703
-13177
-1646
7898
9717
-321
-17362
-28410
-23978
-6081
10679
13483
5052
-3481
-2735
3722
5721
2144
-20
5458
12244
7529
-10366
-27203
-25530
-7789
7714
7127
-3795
-8624
-1369
6085
1813
-11797
-20553
-13039
6208
23116
29536
24142
12735
870
-5499
-3533
3873
9743
9421
3938
548
2742
10420
18196
21843
19534
12053
2382
-5341
-7574
-3561
4443
12321
16544
15708
10792
4349
-848
-3024
-1993
1014
4112
5680
4987
2307
-1402
-5010
-7675
-9099
-9539
-9586
-9838
-10641
-12021
-14151
-15375
-16335
-17194
-18353
-19458
-20513
-20699
-22092
-24762
-27012
-27206
-26550
-28888
32133
29448
-30969
-18130
-3483
6980
11555
13619
12938
8022
-326
-6647
-6543
-595
2974
-483
-7358
-9776
-5292
-456
-1114
-8052
-13996
-11631
-2199
8167
13881
11208
2244
-6924
-11387
-7938
-557
2824
-236
-7469
-11215
-8954
-1689
5527
8225
6585
1516
-1917
-1150
3920
6977
1365
-11894
-22027
-19985
-5073
12405
21094
17797
7632
-739
-3557
536
8267
15057
17008
13080
2472
-11714
-25136
-32159
-28748
-16886
-4570
1177
-1738
-7210
-10075
-10031
-9827
-10797
-10090
-7106
-2584
-1495
-2972
-3167
2508
10759
14535
12036
9531
13248
19663
18664
7582
-2799
102
13958
21887
12147
-7079
-16655
-9036
3628
5981
-1509
-4247
6896
24256
-32418
28566
18911
13806
14264
14893
12273
8383
6731
8988
13428
18300
18642
12364
999
-7296
-4837
7467
20043
23706
17920
9704
4510
1623
-1336
-2658
2102
12450
20951
20485
12451
5239
4546
7680
8368
5249
3484
7654
15803
20947
18469
10463
3200
1220
3987
7508
8688
7661
6977
8005
9092
7084
1095
-5524
-7491
-2081
8476
18818
23951
21919
14168
4090
-4083
-7015
-3620
4268
12753
18248
19016
15579
10114
5253
2916
3644
6622
10269
13041
14055
13305
11469
9478
8092
7651
8054
8895
9695
10085
9940
9398
8783
8418
8458
8838
9391
10003
10662
11363
12013
12476
12722
12887
13146
13553
14043
14571
15218
16110
17241
18450
19561
20533
21443
22335
23135
23744
24167
24538
24991
25521
25987
26294
26535
26942
27667
28624
29574
30355
31022
31732
32509
-32356
-31998
-31990
-32213
-32544
32558
31969
31231
30452
29742
29114
28497
27810
27046
26275
25571
24930
24250
23419
22441
21455
20596
19863
19141
18345
17531
16827
16279
15824
15397
15019
14761
14643
14606
14587
14577
14601
14650
14688
14711
14756
14848
14936
14932
14810
14633
14490
14405
14345
14290
14280
14370
14550
14735
14839
14827
14718
14530
14249
13852
13345
12795
12289
11866
11466
10963
10279
9461
8616
7755
6755
5490
3595
2579
1643
429
-1577
-3900
-6253
-7598
-10032
-13803
-17373
-19114
-20111
-24027
-29884
31918
-29318
-17181
-3146
6897
11359
13597
13203
8517
278
-6024
-5951
-66
3392
11
-6805
-9378
-5276
-130
-1101
-8405
-15003
-12856
-2637
9744
16396
14262
6125
-1120
-3216
1982
11264
16128
12084
-933
-16217
-27306
-28788
-20088
-3662
14638
26236
25343
11960
-3816
-11399
-7614
1099
6613
3746
-4151
-12190
-17182
-19131
-19239
-18807
-18916
-20467
-23670
-27590
-30118
-29670
-26841
-24250
-24286
-27057
-29992
-29754
-26439
-21023
-17277
-17093
-20139
-25086
-29859
-32444
-31785
-28344
-23860
-20422
-19345
-20975
-24023
-26195
-26993
-27328
-27659
-26615
-22731
-19805
-20693
-24969
-27311
-24738
-21602
-24139
-30050
-29016
-15499
1161
5251
-7104
-21395
-20234
-2940
13912
14675
26
-15264
-17842
-6702
9385
20723
22959
17428
8202
-137
-4151
-2329
3782
9876
12257
9482
3435
-1922
-5079
-5922
-6987
-8455
-9265
-9471
-10256
-11854
-12362
-10119
-6840
-6523
-11853
-18973
-23488
-22705
-18864
-16286
-18252
-23072
-28859
-32174
-30310
-23225
-15167
-13005
-17772
-24733
-24799
-14288
1673
13897
16539
10323
598
-6901
-8685
-4784
1470
5072
3089
-3033
-8332
-8113
-1359
8489
15327
14207
3964
-10589
-23915
-29935
-27080
-16586
-2158
11308
16275
10364
-3099
-15579
-19957
-15734
-6842
1128
7235
10661
10226
5650
-759
-5231
-5260
-1359
4364
10378
15347
17532
15635
11046
7831
8733
11843
12935
10812
8974
10881
15064
16408
13151
10364
13710
21291
26936
24502
16805
11124
11985
17055
23301
27215
28411
27172
24386
21736
19592
17827
12553
2953
-7630
-13119
-10268
-132
9335
11980
7306
566
-3043
-3916
-4784
-8533
-12176
-10889
-3357
5681
11207
9529
2491
-5180
-7653
-4969
1107
3013
-1869
-10604
-14652
-10529
-427
8672
10216
5737
-909
-3552
-3345
-2739
-2444
-1222
1745
5949
4637
-1525
-8309
-8699
-2107
4223
3928
-3446
-8171
-6040
-159
2072
-744
-4979
-3071
3027
7033
4698
119
-1823
2862
7403
6287
96
-4821
-4045
816
4163
2569
-369
-1300
-334
1737
1541
229
3
-192
-680
-1140
-997
-45
1029
1717
1038
868
-276
-927
-988
-476
-382
727
754
690
471
258
-552
-135
-334
-128
232
620
570
87
-329
-138
973
700
-871
-632
432
1566
912
-1554
-1461
2345
6097
5283
-192
-4551
-2759
4627
8376
5863
159
-1654
1521
6287
5004
-737
-4944
-3269
943
3081
-1140
-6483
-6409
-928
3892
2360
-3171
-6739
-5152
-1428
588
806
841
1599
890
-1518
-697
3703
7209
2448
-9380
-18699
-17026
-5224
6412
10006
4225
-4091
-7883
-3532
6162
17651
25939
27704
22228
12263
502
-7993
-8946
-1463
11434
22425
25326
18426
7721
1139
472
2840
4527
6009
8668
14026
18001
16139
8868
2830
2671
8750
14113
12049
1523
-11577
-18240
-15324
-4469
6635
10976
6367
-3475
-11227
-13407
-9282
-3098
260
-1763
-7031
-9316
-5793
2522
7219
3246
-8775
-19385
-20834
-10836
3424
10671
5777
-8264
-21692
-23124
-11027
4934
13820
10176
-2342
-13469
-17337
-13620
-6623
1743
7060
8856
7256
3111
-291
-1120
1639
6082
8462
7956
6084
5471
5501
5042
2439
2538
7186
13282
13314
7804
3129
7074
16029
18169
6246
-9034
-14209
-7220
-1515
-6902
-17540
-17008
-3377
10590
11787
3123
-3170
1869
11895
17127
15631
13071
13740
16985
16839
13801
9260
6576
6999
9396
11180
11582
12353
15040
17757
16395
10447
5967
9282
16069
15953
5427
-8756
-13121
-6135
1569
-422
-9008
-12936
-6342
3925
8897
7035
3408
594
-2377
-5735
-5372
1210
10170
12477
4491
-8839
-15323
-9185
4436
15099
15582
6645
-7750
-20387
-26488
-24994
-19585
-14800
-14069
-14194
-11945
-9768
-10963
-16825
-21905
-20673
-14857
-10879
-11610
-13145
-10699
-5800
-4551
-9281
-15117
-16376
-11796
-7972
-8837
-12017
-12253
-9025
-6643
-9616
-17030
-22913
-21966
-14455
-6428
-5038
-11947
-20276
-18924
-5062
12926
21548
15869
4938
2348
11278
22561
21263
3416
-20601
31251
-29034
-9171
9252
14415
6836
-2928
-7793
-8387
-13855
-23467
-28096
-19497
-1891
13177
15013
6589
-2038
-4550
-2900
-99
1356
2105
1907
134
-3195
-5001
-3354
-296
2800
4186
3276
1254
-1662
-2727
-2788
-2089
-479
1355
1843
1888
1150
1962
4945
7848
4085
-7848
-19958
-22375
-11953
2978
9005
3379
-4189
-5361
-457
3605
1992
-1197
-83
2601
1754
-3678
-7127
-3817
6337
13121
10852
1759
-6803
-9564
-8409
-4759
-1924
-1224
-1308
-1064
-564
2902
6377
6642
2914
-1758
-3072
-3318
-4449
-9057
-13613
-12844
-4348
6339
12936
11107
2642
-6472
-8889
-5801
-121
1568
-2738
-9388
-10820
-5666
3736
12598
14850
8272
-5949
-20378
-27645
-21806
-7497
3683
2310
-7494
-15984
-16225
-13397
-14158
-16692
-12343
1877
16248
20505
14390
6898
6840
10590
11197
7408
4680
6924
10799
15294
18169
19536
17145
10486
3899
5284
12515
14529
6190
-5943
-10119
-5147
921
-1759
-9858
-13644
-7686
2215
9445
9646
5309
-429
-3778
-3627
-295
32
-5170
-12723
-14696
-8646
2654
10019
10114
4955
-751
-3941
-5588
-4166
-1101
2509
3627
2473
-208
-1010
-1243
-1219
-1407
-248
1269
-1052
-5893
-7332
-294
10541
14146
3367
-12520
-19277
-12797
-3058
370
-1583
916
8659
10870
13
-15719
-20382
-6674
13140
22818
17924
7166
722
-594
534
1272
2964
5232
5190
104
-6011
-9049
-5790
629
6068
7799
5599
780
-4439
-7879
-8068
-5093
-558
3264
4965
4042
1347
-1858
-4123
-4878
-4174
-2857
-1896
-1780
-2368
-3543
-5182
-7061
-8340
-8398
-7581
-7325
-8384
-9968
-10590
-10412
-11132
-13661
-15937
-14939
-10354
-5858
-5187
-8032
-10158
-8450
-4397
-2739
-6393
-13892
-20755
-23264
-20269
-13203
-4775
1772
3978
1214
-4779
-10676
-13611
-12365
-7580
-1233
4366
7591
8080
6646
4674
3440
3700
5559
8491
11540
13752
14665
14496
13857
13264
12886
12644
12408
12062
11479
10552
9285
7814
6296
4789
3258
1653
-49
-1845
-3711
-5598
-7446
-9216
-10926
-12588
-14159
-15549
-16694
-17616
-18400
-19143
-19910
-20724
-21578
-22444
-23286
-24061
-24745
-25332
-25832
-26254
-26608
-26908
-27163
-27366
-27491
-27515
-27438
-27296
-27126
-26943
-26736
-26489
-26204
-25891
-25549
-25163
-24716
-24204
-23638
-23030
-22396
-21750
-21104
-20465
-19843
-19259
-18729
-18262
-17840
-17429
-16997
-16545
-16105
-15709
-15368
-15058
-14765
-14512
-14351
-14300
-14319
-14354
-14406
-14543
-14820
-15219
-15671
-16135
-16647
-17283
-18085
-19016
-20003
-20992
-21961
-23279
-23555
-23670
-23928
-24721
-25539
-25777
-26537
-27363
-28900
-29789
-29572
-29359
-30777
31250
30133
-30980
-19247
-4709
8496
15691
15906
8146
-3477
-12800
-11935
-2259
8267
8923
227
-9105
-8890
-1418
4842
2076
-5980
-12969
-13185
-10699
-7149
-4330
-794
1689
2126
609
-735
-950
-831
-900
648
4479
8810
8639
4717
-135
-1759
-1456
170
2314
5886
6807
2339
-6172
-8363
1672
19779
30664
25285
6752
-10461
-17920
-15626
-11253
-7966
-6650
-5223
-4946
-5342
-6349
-5618
-4411
-3397
-4587
-6610
-8104
-8013
-6134
-3096
52
2350
3304
3039
2215
1709
2196
3831
6242
8788
10908
12339
13134
13539
13863
14385
15272
16520
17960
19341
20473
21304
21902
22391
22878
23411
23976
24508
24940
25255
25490
25698
25902
26096
26272
26434
26572
26656
26653
26544
26305
25910
25365
24740
24136
23604
23103
22571
22006
21469
21002
20560
20050
19439
18789
18188
17674
17240
16880
16962
16378
15407
14898
15590
16368
17076
16817
17339
19555
22120
22813
21327
22542
27620
32447
29347
16136
-705
-10608
-12115
-10496
-10394
-9408
-3072
5927
10941
6122
-3510
-9900
-9190
-3972
1941
4746
4276
290
-4903
-8048
-6990
-4932
-5894
-8859
-7162
951
10166
10676
513
-10810
-12705
-4201
2859
-50
-10160
-15363
-7439
10182
24218
26823
19212
8430
-434
-7305
-11646
-12378
-5615
6638
18338
23151
19243
8570
-3021
-12167
-16161
-14044
-7311
867
6950
8868
6686
2179
-2199
-4435
-3672
-329
4273
8555
11323
12178
11550
10377
9613
9819
11006
12759
14511
15800
16403
16329
15752
14940
14161
13568
13140
12746
12297
11837
11458
11172
10878
10489
10061
9754
9692
9885
10287
10872
11626
12487
13353
14167
14958
15792
16676
17557
18394
19209
20025
20806
21480
22035
22543
23074
23611
24087
24491
25247
25296
24883
24740
25497
26051
26371
25689
25766
27408
29151
28781
26144
26302
30492
-30981
30758
16949
-299
-10380
-11901
-10249
-10136
-9158
-2826
6204
10995
6553
-3236
-10122
-9526
-3397
3139
6248
4758
251
-3912
-5855
-5619
-6172
-8205
-8800
-4423
1898
5644
4647
3207
7431
17437
27878
30862
25624
16080
7985
4911
7341
10319
9734
3815
-3747
-6437
-1172
9974
19701
22691
17375
5794
-7514
-17331
-19895
-15010
-5850
2654
6521
4339
-2538
-10973
-17647
-20525
-19526
-16211
-12779
-11023
-11699
-14475
-18290
-21890
-24351
-25394
-25365
-24940
-24760
-25196
-26286
-27803
-29388
-30694
-31557
-32027
-32257
-32377
-32431
-32415
-32318
-32122
-31802
-31360
-30866
-30407
-30000
-29580
-29067
-28453
-27823
-27280
-26862
-26522
-26162
-25701
-25130
-24509
-23888
-23246
-22504
-21620
-20648
-19684
-18773
-17861
-16878
-15826
-14778
-13802
-12920
-12112
-11360
-10665
-10018
-9399
-8801
-8224
-7670
-7126
-6592
-6102
-5701
-5409
-5184
-4970
-4752
-4563
-4445
-4406
-4418
-4465
-4561
-4734
-5409
-5257
-5193
-5077
-6561
-8642
-9627
-9264
-9810
-13141
-17502
-19348
-18835
-20815
-27900
31786
-29975
-14559
958
4825
-2644
-9077
-4805
7894
15341
9619
-4344
-13606
-10198
3992
16191
16468
5258
-6526
-7695
2178
14395
18776
13304
5563
824
-595
-1114
-3240
-5674
-6059
-4506
-2698
-2608
-4463
-8386
-10368
-8337
-932
7469
12033
9566
-221
-10590
-13647
-6082
5089
8246
-2797
-18125
-20837
-10274
634
-2381
-16118
-24060
-17729
-3207
4083
2173
-1411
-1057
-324
-1436
-4227
-3579
-52
1067
-1112
-2022
1932
6747
7627
2892
-2248
-3309
-1130
700
-1133
-3289
-6079
-7900
-9347
-8912
-9064
-10525
-15888
-24195
-29851
-29213
-23705
-16643
-13305
-12789
-12156
-7255
-431
4467
3617
212
-2212
-837
1692
3372
2419
76
-2326
-4044
-5108
-3750
-889
2291
4317
4467
2070
22
-2328
-3237
-2532
-703
489
2191
2187
1468
462
-304
-942
-991
-1584
-1416
-353
724
369
-316
-809
179
983
18
-1384
916
5848
8556
2814
-11023
-25469
-31462
-28366
-19727
-10399
-2586
1233
582
-4679
-9101
-7490
2371
15798
24966
21719
9566
-2121
-2353
9985
24536
29584
23642
17738
18096
19453
12084
-2298
-10051
184
19213
28093
18090
-76
-10475
-10150
-7126
-9778
-14299
-12422
-2370
8593
14210
11197
3536
-4053
-7535
-5606
-1360
529
-3606
-10388
-12789
-8218
990
8175
9570
4813
-1475
-4662
-4373
-1577
-284
-2839
-9658
-13651
-10545
270
10948
11732
838
-14709
-20860
-14230
81
8667
4563
-5719
-7864
2561
16470
17870
2543
-15874
-20225
-7189
7920
11724
5168
833
4844
9444
4692
-7383
-11647
-660
17799
28437
24865
14974
8737
9474
10793
8555
4621
3281
6725
12301
17341
17595
13332
6424
1737
3231
10628
19208
23037
19496
11182
4011
3221
9542
18611
24099
22199
14769
7528
6029
11167
18843
23394
21619
14698
6958
3487
6837
14613
20273
17922
8160
-1449
-2555
5890
16423
20362
15688
7499
1213
-2375
-5623
-9029
-9518
-4041
6444
16807
21764
19120
10246
-1245
-11101
-15882
-14114
-7226
1365
7763
9528
6425
185
-6372
-10614
-11188
-8467
-4119
-151
1984
1855
-4
-2536
-4701
-5882
-6010
-5464
-4848
-4738
-5430
-6787
-8333
-9561
-10222
-10343
-10026
-9349
-8516
-7971
-8153
-9081
-10657
-10988
-10892
-10998
-11933
-12990
-13577
-12649
-12646
-14235
-16079
-16563
-16795
-20530
-26793
-31279
-27760
-16026
-2279
6876
11812
13786
13097
8060
-12
-5606
-5279
-281
2070
-1068
-6322
-7792
-4336
1461
3688
1252
-2787
-2492
3066
10080
12727
7111
-4633
-13186
-14002
-7546
1245
6091
5601
2107
666
1515
2582
-787
-7039
-11412
-8158
-805
3787
862
-4374
-5558
-1251
4401
6102
5679
4967
4472
7
-7474
-14214
-13783
-6771
2179
5529
1010
-5562
-8860
-4525
4196
8163
2747
-7127
-13669
-11782
-4451
2084
4552
4416
3045
1244
-1006
-15
4554
6705
1092
-11358
-21205
-17115
297
17779
20525
6849
-12356
-23399
-19409
-6222
4810
7760
3288
-3495
-5743
-531
8413
14910
13956
5005
-5431
-10145
-6398
2293
9256
9792
4345
-2295
-4864
-1743
3754
6087
2325
-5236
-9362
-5768
6422
18881
24032
16620
-312
-17315
-25918
-21188
-4536
14756
27467
30092
24920
19947
19098
21650
20983
13643
3327
-4167
-5134
-1847
-1806
-7094
-12793
-11486
-1659
9490
14165
8077
-3920
-13533
-15232
-9555
349
7631
8389
1923
-5562
-9829
-7357
-3346
-2562
-5384
-5799
-1624
4612
6758
3005
-2239
-4174
-1909
236
1386
2446
4055
3799
274
-5295
-5786
2806
17117
28690
31487
27783
22206
18981
15862
11176
4441
224
121
4566
9403
11128
5817
-4055
-13525
-14984
-8330
-1674
-1778
-9154
-15270
-12714
-2094
8817
14751
13440
7205
-616
-6232
-7274
-5120
-4253
-7566
-12389
-12668
-5942
3990
10798
10790
5065
-2939
-8012
-7521
-1018
5388
3882
-7976
-22893
-32441
-31368
-22743
-12085
-2774
3522
6233
3661
-1455
-5154
-4883
-1667
2559
4691
4740
2527
-1385
-4466
-3330
2673
9449
10759
4075
-6776
-14192
-12909
-3630
8247
16342
16818
9720
-1930
-13277
-19839
-19430
-13250
-5182
670
1829
-1771
-8134
-14406
-18245
-18736
-16496
-13092
-10193
-8879
-9361
-11080
-13094
-14527
-14909
-14278
-13066
-11834
-11018
-10782
-11019
-11473
-11895
-12157
-12252
-12244
-12194
-12118
-11985
-11726
-11277
-10610
-9758
-8780
-7716
-6576
-5382
-4179
-3021
-1934
-913
40
889
1612
2236
2853
3539
4308
5109
5878
6589
7253
7889
8514
9128
9721
10280
10813
11347
11907
12497
13082
13633
14146
14641
15134
15629
16135
16680
17286
17921
18514
19025
19485
19952
20429
20832
21065
21087
20940
20693
20377
19979
19483
18910
18312
17728
17134
16463
15682
14841
14045
13357
12767
12247
11822
11549
11427
11374
11301
11163
10952
10640
10177
9544
8761
7836
6745
5484
4125
2779
1489
192
-1168
-2545
-3837
-5001
-6108
-7226
-8302
-9170
-9693
-9874
-9832
-9665
-9370
-8878
-8152
-7239
-6228
-5156
-3982
-2652
-1184
336
1840
3355
4958
6655
8327
9834
11141
12339
13524
14690
15751
16670
17524
18437
19468
20579
21692
22765
23795
24790
25730
26576
27293
27879
28375
28826
29224
29491
29550
29405
29150
28895
28655
28370
27996
27566
27137
26707
26199
25525
24654
23604
22395
21028
19517
17924
16333
14801
13338
11932
10587
9319
8126
6976
5817
4604
3316
1975
628
-682
-1954
-3227
-4531
-5841
-7098
-8278
-9418
-10556
-11664
-12662
-13517
-14276
-15000
-15679
-16251
-16697
-17077
-17462
-17852
-18183
-18415
-18575
-18705
-18795
-18787
-18657
-18452
-18246
-18076
-17926
-17775
-17639
-17557
-17546
-17585
-17639
-17706
-17829
-18049
-18369
-18752
-19166
-19620
-20152
-20779
-21467
-22153
-22787
-23355
-23870
-24348
-24798
-25219
-25606
-25946
-26218
-26410
-26535
-26616
-26667
-26670
-26597
-26443
-26243
-26045
-25863
-25669
-25428
-25140
-24842
-24561
-24278
-23953
-23568
-23135
-22675
-22195
-21693
-21174
-20659
-20166
-19705
-19276
-18874
-18488
-18112
-17759
-17459
-17218
-17006
-16790
-16584
-16435
-16344
-16225
-15964
-15525
-14977
-14391
-13746
-12954
-11989
-10939
-9923
-8986
-8086
-7150
-6159
-5140
-4116
-3087
-2039
-955
157
1250
2249
3112
3851
4512
5102
5560
5822
5912
5934
5984
6050
6026
5812
5411
4909
4383
3812
3100
2199
1207
324
-315
-744
-1113
-1504
-1842
-1994
-1972
-1997
-2328
-3036
-3971
-4937
-5880
-6892
-8043
-9235
-10241
-10898
-11216
-11337
-11385
-11372
-11250
-11022
-10755
-10533
-10382
-10255
-10080
-9820
-9491
-9146
-8831
-8549
-8271
-7979
-7693
-7450
-7253
-7050
-6782
-6443
-6072
-5699
-5300
-4833
-4300
-3747
-3210
-2675
-2106
-1491
-873
-328
102
439
724
937
976
727
161
-654
-1669
-2958
-4656
-6779
-9109
-11316
-13165
-14601
-15627
-16158
-16051
-15249
-13849
-12021
-9942
-7788
-5742
-3932
-2366
-982
235
1253
2079
2810
3496
4044
4332
4469
4799
5564
6592
7425
7774
7769
7734
7772
7654
7093
6037
4665
3188
1736
400
-689
-1421
-1803
-1963
-2036
-2068
-2023
-1877
-1668
-1487
-1395
-1338
-1163
-711
396
961
1194
1922
3841
5756
7468
8154
9654
12859
16296
17714
16969
19110
25207
30839
28149
15132
-1391
-10761
-11781
-10039
-10195
-9577
-3456
5935
9841
5062
-4401
-9915
-8325
-3001
1389
4526
4708
952
-5042
-8726
-6790
-2455
-4820
-14401
-21703
-17772
-2530
13061
16878
9298
-2278
-9006
-9762
-5739
582
5138
6039
4980
1655
-1222
-4986
-7791
-7564
-2477
1483
-183
-9054
-15092
-9755
2679
10856
8873
543
-4742
-5428
-3920
-2143
3708
11578
15520
9642
-1486
-6170
-2164
2009
704
-2037
2892
15585
22332
14947
605
-3671
6612
19415
19857
5551
-10119
-15418
-8783
1696
8761
10221
8901
6509
2385
-2437
-5027
-4674
-1869
635
1914
1655
2054
2622
2088
797
781
3744
6284
5427
281
-5492
-7288
-2788
4798
12608
17001
14693
3809
-12052
-25758
-28313
-18956
-5695
1424
120
-5012
-5536
525
8393
11571
6943
-2456
-12140
-16117
-12095
-1297
12224
23179
27723
23438
14142
5135
1016
2835
9147
17445
24817
30149
30450
26023
21362
20720
24228
26861
23661
15080
4103
-4149
-7504
-5181
1203
6952
6905
1461
-4940
-5769
-2733
-905
-4367
-9449
-8230
2431
16346
20139
8989
-10178
-19953
-12037
6027
15105
7632
-6414
-10805
-2553
3339
-3608
-18632
-24974
-15185
480
5914
-2733
-15604
-21071
-15842
-5137
3720
5603
596
-4986
-6298
722
9187
11262
2705
-10264
-16481
-11556
2099
13270
15627
5576
-9872
-20541
-18613
-5556
9890
14708
4418
-13338
-24757
-21671
-9300
1691
3466
110
615
7712
14366
10396
-4690
-20413
-24604
-12366
8982
26529
29265
18003
-594
-15551
-19036
-8130
10197
24139
25273
12591
-3121
-9167
-2320
8186
11434
5981
75
3429
12980
18126
11702
-1669
-10409
-8363
2056
10777
11683
5083
-3633
-9403
-9168
-5294
-2649
-2208
-1670
1571
4975
5120
-1656
-10607
-14611
-9717
-1312
6210
7983
4830
112
-1465
138
3968
5189
432
-8475
-12233
-5591
8970
18744
14967
1876
-7983
-6709
1015
7713
10348
11579
14137
17015
16556
13838
12687
14478
16129
12942
7506
3161
5437
13119
19972
19580
12125
2645
-144
5799
14671
19257
18470
15802
13674
9725
2621
-3653
-1470
9666
20816
19894
4224
-15797
-26456
-22786
-10008
4317
15991
22786
22590
15717
8228
7796
15857
25350
25573
14538
3182
1225
7204
12284
13950
14392
16030
15426
10301
5438
8988
17367
19093
7823
-8034
-14674
-9603
-1876
-1854
-7619
-10263
-4746
3649
8998
7861
3079
-2101
-4390
-3098
895
1336
-4320
-12539
-14955
-9422
1746
9703
10251
5214
-213
-3558
-5052
-4439
-1905
1462
3858
3485
744
-1553
-2224
-1948
-1416
-159
1515
2543
2227
300
-2181
-4090
-4257
-3355
-2746
-2759
-4173
-6621
-7891
-7062
-1739
4787
8862
6132
-2520
-12893
-16764
-10003
2966
13065
13099
1521
-14658
-25787
-25670
-16032
-2836
4869
2883
-6875
-18481
-25551
-25270
-16783
-4845
3531
1649
-10693
-24052
-25078
-10128
12189
25283
21606
7686
-3396
-3147
5995
17689
24315
22940
14307
1874
-8719
-13040
-8400
1506
11188
15936
13867
6361
-3001
-10353
-13305
-11723
-7370
-2799
-121
-217
-2617
-5960
-8768
-10090
-9789
-8421
-6869
-5907
-5909
-6779
-8127
-9533
-10744
-11686
-12374
-12874
-13314
-13862
-14629
-15554
-16427
-17034
-17303
-17319
-17212
-17045
-16788
-16371
-15775
-15073
-14399
-13848
-13412
-13009
-12578
-12148
-11787
-11492
-11186
-10813
-10409
-10038
-9699
-9304
-8799
-8230
-7650
-7014
-6251
-5429
-4767
-4407
-4215
-3876
-3218
-2351
-1473
-640
211
1037
1629
1860
1901
2090
2571
3140
3501
3613
3710
3980
4286
4237
3126
2272
975
-795
-3218
-5695
-7646
-10178
-12744
-15811
-17946
-18875
-20024
-23556
-27774
-30365
-27680
-18602
-5058
8339
15305
13856
4927
-5312
-10923
-9797
-5013
714
3724
3276
193
-3007
-4240
-4306
-4338
-6575
-9040
-7248
-780
6905
11215
8459
1330
-5050
-5293
-239
6204
7582
1406
-8189
-12802
-8775
2844
14069
18949
16318
8496
28
-3935
598
12959
24821
24786
8798
-14269
-28145
-22917
-4894
9805
9510
-351
-9527
-9220
-2648
2564
2435
-825
-3936
-6013
-7455
-7519
-4170
2277
9827
12808
8710
-92
-7357
-8887
-5320
-2738
-5254
-10195
-10891
-4190
5403
10512
8130
1660
-3828
-5812
-4912
-2430
749
3663
4695
3165
40
-2660
-3554
-2566
-422
897
2452
2107
1051
-100
-759
-1553
-641
-174
421
659
657
990
953
-50
-1519
-1041
980
1681
104
-2607
-1783
2210
3817
-489
-4805
-1880
8694
15608
9346
-5066
-11593
-4362
6733
5736
-9637
-22691
-17801
2774
23340
29164
18182
-151
-14075
-18353
-11701
3683
19308
25811
17034
-1127
-17108
-16960
-1891
16338
23544
16213
3552
-513
6135
15309
17087
10573
2325
-352
613
438
-2932
-6159
-5684
-2821
-243
-64
-2181
-3550
-2840
-448
3839
7326
7006
2576
-2464
-3634
-3375
-3956
-8489
-13335
-12928
-4615
5412
12343
11213
3820
-4761
-8172
-5668
-164
1340
-2743
-9767
-11918
-8707
-1331
6024
10114
8724
1871
-4502
-4231
3870
9789
3200
-12539
-20444
-11234
6678
14400
5500
-6797
-6959
5140
13616
9200
-3230
-12134
-13635
-12366
-14838
-18461
-18109
-12162
-3760
3098
6351
6593
3033
-2629
-9308
-13748
-14648
-12462
-8860
-5754
-4517
-5604
-8528
-12057
-14654
-15099
-13038
-9120
-4609
-730
1871
3267
4021
4777
5939
7572
9513
11541
13480
15221
16691
18204
18684
18535
18721
19992
21159
22019
21731
22139
24195
26501
26784
24762
25401
29911
-31351
30569
16940
-166
-10215
-11832
-10331
-10328
-9376
-3014
6017
11005
6360
-3487
-9995
-8825
-3432
2290
4670
3671
-132
-3883
-6812
-6770
-6171
-7175
-8809
-6566
140
8243
11180
6454
-1984
-8081
-7730
-3446
1969
5473
5771
2409
-2825
-7676
-6750
2248
15985
26848
27934
20593
10886
7028
10170
15197
15967
12158
6629
5252
9268
15567
17985
15003
8492
3658
2837
5649
7932
8915
10120
12301
11889
5613
-6068
-17109
-20703
-12876
939
11639
11946
2881
-7400
-8549
-591
8233
8817
1640
-4014
1436
13964
21714
16467
2384
-8587
-9229
-741
7526
9326
4475
-2674
-7777
-7848
-4717
-2663
-2329
-1599
1751
5284
5736
-872
-9956
-15477
-11083
-582
10338
14561
9546
-601
-6109
-1306
12226
23650
23498
12978
3032
121
2140
42
-7341
-12946
-7232
8760
24251
27432
15316
-7155
-26796
-31927
-18827
3682
19799
16927
498
-13811
-11259
2952
15995
14797
3640
-8555
-12720
-11239
-8408
-7522
-6617
-5839
-4931
-5452
-5463
-4741
-2672
-1948
-2692
-5673
-7699
-9640
-9034
-8127
-5769
-4892
-4168
-5626
-6795
-8888
-9294
-9734
-8395
-7681
-6099
-5975
-5459
-6402
-6531
-7489
-7088
-7276
-6200
-5994
-4797
-4626
-3519
-3028
-2690
-3487
-3287
-1525
629
1063
413
30
2319
4430
5172
3162
4580
9855
14199
8038
-8119
-23480
-25449
-12964
2278
7401
390
-11849
-17920
-13810
-2079
6424
3657
-10848
-24314
-24966
-11892
242
529
-7841
-10583
-2343
5448
-574
-18412
-29079
-20115
2747
21513
24165
13888
487
-7993
-11567
-11057
-6613
229
5945
6458
3017
-2210
-4986
-4732
-1950
1819
4930
6403
6231
5171
4239
4188
5196
6905
8701
10080
10857
11170
11327
11623
12236
13177
14300
15373
16195
16708
17017
17298
17688
18220
18856
19534
20204
20821
21361
21847
22346
22908
23511
24065
24479
24722
24818
24803
24689
24468
24137
23731
23320
22984
22759
22619
22504
22376
22254
22177
22146
22099
21970
21739
21431
21084
20724
20378
20069
19801
19557
19326
19123
18970
18872
18799
18710
18589
18445
18293
18134
17953
17730
17468
17200
16981
16843
16766
16707
16647
16610
16613
16616
16546
16363
16095
15778
15385
14855
14178
13448
12805
12301
11888
11482
11068
10690
10392
10160
9951
9738
9519
9299
9081
8880
8736
8682
8715
8783
8825
8824
8793
8750
8704
8663
8638
8631
8638
8676
8800
9087
9570
10200
10887
11583
12303
13093
13962
14852
16032
16333
16065
16136
17316
18489
19525
19591
20448
22934
25606
26230
24665
25409
30381
-30544
31244
17123
351
-9348
-10538
-9499
-10480
-9823
-2753
7579
11897
5811
-4666
-10288
-8413
-3051
2799
10362
19999
26979
25898
16775
6932
1981
2301
5168
9736
13912
15140
9148
-3561
-15435
-17848
-7705
8592
21988
26164
20015
6982
-6962
-15791
-15772
-7325
5541
17215
23447
23004
17678
11007
6465
6010
9563
15435
21317
25330
26703
25866
24014
22439
21985
22809
24832
26243
26719
26801
27243
27194
26886
25760
25683
27444
29485
29488
27215
27647
31922
-29691
31764
17667
237
-10199
-11699
-10166
-10513
-9624
-3546
6783
12247
6967
-4493
-11621
-9244
-1697
3494
4027
2739
1698
-529
-6225
-12236
-13424
-7578
778
4734
-366
-9394
-13384
-6301
9404
23544
27437
18545
5065
-3689
-4228
-789
708
-2836
-7894
-9191
-4246
4059
12031
14650
10294
245
-11929
-21621
-25078
-21619
-13789
-6075
-2323
-4075
-10275
-18144
-24662
-27872
-27489
-24693
-21391
-19339
-19475
-21687
-25032
-28266
-30410
-31090
-30559
-29445
-28410
-27874
-27908
-28311
-28771
-29037
-28997
-28668
-28137
-27516
-26905
-26375
-25945
-25577
-25203
-24766
-24246
-23657
-23006
-22274
-21434
-20496
-19504
-18510
-17530
-16537
-15501
-14429
-13338
-12236
-11109
-9940
-8731
-7492
-6237
-4970
-3707
-2453
-1188
116
1469
2855
4269
5732
7258
8805
10283
11633
12876
14082
15280
16418
17414
18237
18930
19551
20115
20585
20921
21122
21243
21361
21519
21707
21886
22038
22180
22332
22453
22464
22321
22024
21576
20957
20159
19222
18188
17033
15695
14184
12602
10996
9218
7057
4538
2048
53
-1282
-2153
-2760
-2988
-2515
-1213
636
2546
4193
5562
6771
7863
8785
9503
10084
10651
11287
12017
12854
13820
15258
15984
16176
16600
17968
19213
20298
20111
21217
24017
26531
26361
25044
27347
32721
-29399
30554
15879
1090
-7539
-11154
-13800
-14248
-7776
3937
10486
4167
-8820
-12300
-2315
8924
7167
-4931
-11810
-4621
5480
1956
-16293
-28779
-19089
5544
19762
11512
-8730
-15226
-664
18742
22054
7496
-5219
-2849
10306
16819
10864
4166
8905
20058
22558
9742
-7639
-14549
-9810
-3557
-5665
-11490
-12458
-4302
6320
12635
10803
4228
-3057
-6750
-5766
-916
930
-3334
-10826
-13266
-8461
1785
8933
9138
4397
-756
-3695
-4459
-3655
-1236
1786
3676
3302
1089
-1358
-2423
-1886
-281
544
1769
1386
888
436
308
35
214
-107
452
1690
2758
3105
4466
6578
8811
7456
1468
-4039
-391
12825
26634
27152
10084
-14670
-30645
-31019
-18903
-3953
7124
11894
10960
4344
-2875
-5856
-1407
7941
17124
19965
18665
15087
11318
7676
5386
6790
13143
23631
31362
31250
24141
17136
16175
20543
20279
9558
-6669
-16033
-11686
-371
6468
1876
-8254
-13905
-10215
-1236
7603
10960
8475
2512
-2405
-4224
-2258
-2151
-6518
-12783
-13466
-7223
3622
10481
9842
4188
-1555
-4604
-5083
-3823
-1021
2165
3994
3433
1023
-1553
-2630
-2215
-668
298
1805
1595
725
226
-426
-588
-63
-279
-295
575
859
463
-199
-1072
-621
277
811
-674
-1023
2072
7646
10766
5685
-4025
-9653
-6039
1401
3213
-3789
-12094
-11722
-3864
4045
5789
3666
3168
6317
8423
7560
5913
6268
8318
9176
6007
-1709
-12345
-22187
-22650
-9464
12931
30462
30691
14754
-4855
-14348
-11487
-4051
1351
341
-5954
-16092
-23891
-23614
-11145
8197
24293
29353
23401
12991
4792
1287
1544
3893
6964
9325
9708
8349
5804
4559
4225
4462
4753
4744
4467
4315
4732
5894
7612
9494
11149
12291
12820
12869
12756
12786
13065
13502
13933
14189
14035
13227
11776
10121
8861
8194
7732
6964
5879
4971
4629
4655
4472
3741
2612
1390
79
-1630
-4034
-7151
-10758
-14554
-18283
-21740
-24773
-27290
-29249
-30641
-31451
-31665
-31675
-30196
-28333
-26665
-25770
-25147
-24517
-22963
-22752
-24213
-25738
-25584
-24848
-27345
-32226
30173
-30640
-18111
-3756
6416
10814
12974
12609
8246
288
-6003
-5731
-502
2521
-969
-7415
-9134
-5351
-541
-1337
-8145
-13685
-11205
293
16335
27307
24506
8598
-11423
-23103
-18469
-2818
9662
9698
-1635
-14010
-19888
-14275
573
17401
25325
18507
3011
-8953
-8644
-34
6426
6687
5187
7659
12799
15226
12853
9606
11162
15896
18350
16933
12599
9743
8511
8209
8640
11571
14502
16565
16487
15007
12580
10785
9676
10166
11464
13200
14116
14554
13965
13187
12106
11637
11498
12092
12441
13000
13189
13309
12864
12707
12384
12450
12329
12525
12553
12861
12691
12758
12670
12785
12535
12646
12539
12701
12555
12652
12568
12798
12600
12680
12624
12769
12539
12659
12557
12723
12580
12676
12584
12834
12445
12746
12790
13028
12020
10717
10719
12904
13369
11845
10218
11486
13716
13280
9818
8578
12845
18661
16671
3349
-14565
-24667
-21218
-9241
246
941
-6357
-15659
-20951
-18082
-8226
2962
7971
6788
2903
1535
2369
3321
1379
-4070
-11985
-20356
-24901
-23571
-18955
-15008
-14493
-15282
-13970
-10154
-4240
3620
11997
15155
9140
-4444
-14681
-12447
-310
9875
12698
11775
14082
18046
16140
6650
-2430
-912
7600
12782
7193
-2538
-6300
-2128
4704
5679
1556
-3174
-3344
-759
-623
-6105
-11704
-11602
-2577
10341
18417
15519
3860
-8443
-12437
-6325
6446
16671
15695
2286
-14318
-23081
-17067
-523
15988
24312
21103
10788
-3525
-14555
-17918
-13484
-5944
-1426
1909
6616
15864
24871
26796
20369
13167
9849
10033
7762
2630
-2182
-2400
-1202
-3257
-8744
-12257
-9043
-459
5809
6717
3960
1238
-36
-622
-264
-34
430
-1061
-1663
-1169
439
366
-1147
-725
2121
2885
-4615
-15837
-19862
-11142
2836
10728
8556
2683
80
-1997
-9084
-18170
-20269
-8010
13037
28915
29779
16998
-881
-12929
-15173
-9049
-175
4807
2315
-7792
-19698
-27392
-23866
-8986
11088
25962
28653
20432
8783
669
-1637
445
4605
8842
11416
11328
9534
7222
6956
7857
8986
9551
9307
8542
7824
7672
8314
9596
11066
12201
12665
12456
11868
11323
11158
11468
12097
12750
13167
13237
13007
12612
12195
11866
11665
11540
11363
10987
10343
9472
8461
7369
6200
4966
3716
2517
1373
214
-1041
-2406
-3834
-5273
-6706
-8132
-9533
-10875
-12142
-13345
-14495
-15597
-16657
-17698
-18730
-19749
-20742
-21726
-22739
-23778
-24781
-25665
-26398
-26993
-27448
-27711
-27729
-27547
-27300
-27112
-27002
-26900
-26757
-26620
-26603
-26790
-27155
-27584
-27952
-28210
-28389
-28532
-28624
-28596
-28403
-28079
-27699
-27301
-26873
-26448
-26168
-26201
-26569
-27074
-27420
-27428
-27127
-26640
-25989
-25025
-23556
-21530
-19098
-16509
-13939
-11417
-8883
-6293
-3668
-1061
1485
3943
6282
8460
10445
12226
13792
15119
16182
16987
17600
18116
18612
19109
19577
19968
20247
20411
20463
20398
20187
19803
19242
18522
17659
16646
15475
14149
12696
11148
9527
7846
6131
4418
2743
1125
-446
-2001
-3569
-5135
-6624
-7929
-8988
-9839
-10592
-11325
-12019
-12597
-13027
-13379
-13775
-14286
-14888
-15502
-16064
-16554
-16977
-17335
-17624
-17843
-17984
-18025
-17938
-17720
-17407
-17049
-16679
-16285
-15826
-15267
-14615
-13913
-13216
-12551
-11902
-11224
-10484
-9679
-8827
-7949
-7064
-6191
-5351
-4540
-3744
-2962
-2227
-1570
-986
-419
202
915
1732
2646
3636
4652
5641
6594
7561
8587
9645
10656
11579
12472
13433
14496
15611
16702
17740
18736
19691
20577
21362
22030
22572
22979
23263
23468
23633
23751
23767
23652
23456
23269
23125
22960
22672
22223
21665
21066
20440
19743
18920
17949
16859
15734
14686
13805
13088
12448
11806
11162
10553
9966
9328
8616
7923
7379
6990
6636
6231
5855
5680
5758
5924
5941
5707
5297
4847
4417
3995
3568
3174
2898
2835
3054
3561
4283
5088
5872
6609
7326
8020
8632
9084
9361
9538
9712
9937
10194
10445
10705
11050
11560
12231
12978
13696
14348
14976
15612
16209
16656
16883
16914
16827
16656
16358
15875
15204
14399
13517
12586
11624
10666
9744
8854
7955
7025
6098
5244
4496
3824
3159
2452
1717
1010
396
-83
-412
-601
-667
-624
-468
-178
259
814
1423
2030
2617
3203
3819
4492
5249
6115
7086
8114
9154
10219
11370
12636
13944
15153
16172
17013
17740
18379
18895
19250
19460
19577
19642
19658
19618
19525
19392
19213
18979
18703
18419
18159
17929
17723
17550
17438
17403
17413
17414
17372
17311
17285
17323
17403
17489
17593
18110
17962
17423
17283
18211
19080
19824
19657
20328
22625
25073
25474
23683
24699
29618
-31365
30638
17051
22
-10998
-12544
-10725
-9700
-8650
-3322
5590
11249
8309
-2511
-11599
-11687
-3300
5106
5461
-4319
-15253
-17918
-9361
2776
7658
3782
224
5685
14440
13909
-1551
-21307
-28940
-20617
-6679
85
1244
4822
11848
12587
132
-17274
-23319
-8795
15053
30237
28434
16781
7497
4287
3831
492
-3893
-4004
2305
10115
14649
12881
8329
3660
-565
-5172
-9401
-10429
-7232
-2984
-1777
-3983
-6147
-6576
-7823
-12618
-18600
-19988
-14831
-8961
-9678
-17136
-24098
-23857
-17590
-12135
-12667
-17830
-23054
-25620
-26158
-25901
-24428
-21232
-17208
-14643
-15384
-19220
-23911
-26556
-25860
-22692
-19958
-20189
-23303
-26087
-24602
-17745
-9047
-4379
-7160
-15944
-24955
-28105
-22695
-11397
-406
3757
-1128
-10986
-17689
-15441
-5725
4122
6834
1366
-7122
-12586
-12740
-9156
-3868
2158
8220
12015
10777
4351
-3025
-5228
14
8725
14460
14554
12278
11775
12606
10852
5813
2924
8137
19340
26991
23876
13496
5567
5541
9733
12351
13143
16111
21664
24134
19109
10127
5444
8527
14369
16262
13846
12314
14258
16125
13241
6872
3214
5783
10911
11878
6519
-311
-2035
3582
12768
19523
19819
13290
2550
-8338
-15410
-16080
-10423
-933
8431
14256
15108
11971
7525
4622
4893
8257
13330
18294
21692
22922
22325
20910
19832
19849
21060
22999
24948
26287
26720
26322
25417
24382
23466
22708
22004
21237
20375
19461
18529
17552
16483
15325
14164
13113
12213
11408
10616
9835
9154
8655
8332
8114
7963
7930
8074
8375
8748
9143
9584
10109
10689
11275
11875
12544
13274
13930
14361
14569
14702
14857
14924
14665
13977
12996
11934
10834
9563
8001
6203
4314
2395
390
-1741
-3913
-6015
-8033
-10057
-12132
-14186
-16112
-17915
-19698
-21507
-23265
-24865
-26286
-27957
-28509
-28757
-28936
-29486
-30043
-30512
-29944
-30357
-31863
32675
-31794
-29943
-31225
30642
28573
-31426
-18332
-3581
6847
11301
13245
12515
7640
-597
-6785
-6577
-571
3000
-247
-6900
-9314
-5112
42
-971
-8313
-14954
-12930
-2928
9239
15800
13663
5453
-2024
-4391
766
9760
15568
12796
965
-13839
-25156
-26757
-17887
-1893
14932
24933
23712
10844
-6054
-17808
-18487
-8463
7881
22576
30982
30667
23103
12643
4502
2094
5805
13351
21223
26417
27618
25398
21552
18103
16452
16979
19121
21789
23923
24922
24786
23959
23019
22409
22321
22711
23379
24065
24554
24748
24692
24523
24348
24168
23892
23457
22909
22384
21980
21651
21236
20606
19766
18834
17921
17052
16201
15347
14502
13686
12901
12148
11427
10733
10039
9301
8492
7635
6783
5980
5226
4505
3809
3163
2555
1910
1125
161
-916
-2015
-3132
-4342
-5669
-6993
-8114
-8921
-9470
-9917
-10370
-10820
-11190
-11439
-11613
-11820
-12133
-12523
-12888
-13140
-13256
-13251
-13121
-12835
-12384
-11830
-11272
-10758
-10243
-9651
-8943
-8147
-7317
-6470
-5577
-4604
-3577
-2595
-1759
-1071
-434
237
910
1475
1894
2264
2729
3326
3962
4515
4942
5263
5477
5524
5321
4826
4064
3130
2155
1238
407
-364
-1057
-1595
-1919
-2089
-2242
-2446
-2620
-2632
-2458
-2184
-1838
-1312
-502
496
1442
2251
3132
4347
5838
7203
8127
8771
9638
11042
12768
14326
15457
16345
17330
18496
19592
20309
20554
20471
20275
20103
20002
19988
20086
20332
20758
21379
22184
23128
24139
25144
26080
26896
27536
27969
28202
28275
28228
28076
27800
27368
26720
25809
24648
23324
21888
20193
17922
14907
11486
8406
6254
4996
4115
3276
2694
2801
3584
4364
3928
3283
1725
-713
-4301
-8529
-12999
-16301
-20082
-24358
-27631
-28388
-27798
-29668
32171
30256
-29783
-17023
-2720
7394
11737
13667
12918
8006
-272
-6499
-6334
-363
3187
-103
-6859
-9396
-5255
-77
-1084
-8510
-15213
-13026
-2614
9957
16616
14275
5863
-1547
-3664
1568
10199
15256
11581
-1181
-17002
-29483
-32301
-24525
-9409
7022
15972
13520
317
-15374
-25895
-25684
-15735
1734
19550
31004
30927
20953
11428
9271
13092
14436
8545
-1001
-5494
-4640
-4066
-7652
-11063
-8247
1446
8442
5917
-3196
-9301
-7340
-1670
2300
1766
-171
-826
-136
-39
1401
2750
2509
-185
-2352
-2124
-364
-627
-6238
-12937
-14388
-7061
3134
11007
11213
4967
-3231
-6950
-5614
-302
1771
-2693
-10748
-13835
-9440
833
8423
9268
5070
169
-2701
-4806
-4590
-2549
1341
3904
3520
58
-2301
-1255
-104
-350
-1520
119
3170
3061
-4020
-15210
-19622
-11685
2095
8979
2157
-10258
-13382
-771
15265
18153
2969
-16620
-22836
-11577
2357
5647
-1016
-5643
-2109
2129
-2761
-14675
-18401
-6005
14551
27190
24504
14561
8449
10181
12344
9178
2644
-1097
1869
8434
14269
14878
11800
7284
3366
-326
-4431
-7569
-7078
-2528
2629
3245
-2154
-9999
-15335
-16477
-15641
-15679
-16522
-16533
-15768
-16636
-21095
-27513
-31508
-29975
-24100
-17855
-14835
-16267
-21177
-27331
-32250
31637
-31434
-26281
-21029
-18023
-18288
-21276
-25260
-28580
-29891
-28981
-26647
-24107
-22372
-21914
-22685
-24249
-25914
-26886
-26688
-25640
-24347
-23595
-23488
-23727
-23925
-24182
-24474
-24059
-22083
-19127
-17454
-19408
-24232
-27361
-24028
-13831
-2231
3727
1500
-5643
-12286
-15362
-14699
-11321
-5883
125
4020
3931
1606
88
2129
7041
11865
13643
13875
13113
11912
9570
7112
7362
12363
21985
29652
30175
24013
17803
17155
21278
20410
9075
-7454
-16698
-11934
-156
6962
2370
-7993
-13966
-10529
-1628
7321
10898
8625
2770
-2172
-4112
-2295
-2291
-6680
-12893
-13488
-7165
3751
10421
9976
4393
-1687
-4843
-5699
-3217
74
2727
3085
2417
758
-359
-2569
-4007
-2003
2169
5027
2069
-3029
-4438
2098
10583
13604
6464
-5457
-14508
-16024
-9225
844
6559
5026
-828
-3426
2963
13275
16141
8666
-2738
-7796
-5743
-3264
-6236
-12468
-13526
-6852
3746
11457
12073
5379
-2609
-6140
-3360
1465
877
-6289
-13366
-12318
-5563
262
1965
4867
14398
26104
29354
18300
2397
-5264
-1011
6762
8885
2525
-5478
-10290
-10868
-11072
-11860
-12268
-10411
-5892
-2793
-6784
-18365
-29510
-29945
-18864
-7515
-7375
-16324
-20210
-10030
5697
10446
-240
-13041
-12798
-999
6575
-1101
-17563
-27684
-24580
-15422
-10377
-11040
-10932
-5489
2107
4910
-324
-9167
-16208
-17015
-13651
-8700
-4062
-26
3156
3895
932
-4720
-9839
-11441
-8871
-3784
1641
5529
6838
5356
1686
-2348
-4841
-5133
-3801
-2137
-885
-326
-698
-2588
-5782
-8896
-10318
-10382
-11060
-13559
-16066
-15688
-12069
-8728
-9208
-13014
-15714
-14061
-9577
-7237
-10250
-17266
-23682
-25602
-21860
-14027
-4916
2278
5207
3239
-1997
-7240
-9561
-7659
-2239
4556
10315
13470
13791
12174
10007
8547
8522
9972
12315
14640
16140
16500
15998
15267
14893
15136
15904
16923
17934
18795
19463
19937
20216
20303
20222
20005
19663
19155
18414
17384
16071
14524
12797
10918
8901
6769
4564
2336
122
-2057
-4200
-6315
-8404
-10444
-12408
-14277
-16046
-17695
-19179
-20461
-21550
-22497
-23333
-24020
-24479
-24649
-24530
-24144
-23490
-22548
-21312
-19803
-18081
-16226
-14321
-12420
-10527
-8637
-6785
-5050
-3478
-2044
-709
475
1386
1990
2431
2932
3584
4289
4927
5537
6301
7358
8667
10065
11410
12659
13835
14959
16028
17028
17957
18807
19551
20144
20567
20853
21065
21237
21340
21321
21164
20915
20617
20249
19740
19060
18263
17465
16744
16095
15469
14873
14400
14159
14152
14231
14193
13929
13468
12927
12408
11947
11535
11163
10866
10744
10927
11441
12120
12686
12945
12927
12784
12594
12298
11836
11288
10838
10626
10677
10966
11490
12252
13206
14284
15432
16641
17928
19294
20716
22135
23481
24717
25889
27078
28286
29388
30221
30743
31068
31344
31624
31866
32034
32151
32251
32325
32357
32381
32446
32531
32524
32332
32009
31714
31533
31397
31182
30883
30657
30674
30944
31325
31670
31929
32132
32297
32369
32240
31832
31156
30318
29470
28704
28011
27346
26738
26317
26203
26385
26727
27078
27385
27662
27906
28052
28009
27718
27165
26351
25265
23890
22232
20332
18266
16123
13980
11892
9894
8017
6290
4722
3278
1860
354
-1299
-3059
-4816
-6469
-7972
-9286
-10320
-10916
-10936
-10351
-9249
-7756
-5973
-3979
-1867
245
2252
4096
5764
7264
8605
9808
10907
11938
12919
13844
14687
15423
16043
16540
16906
17127
17193
17116
16919
16613
16192
15642
14965
14172
13274
12278
11216
10157
9169
8268
7417
6593
5849
5281
4937
4775
4721
4761
4952
5344
5920
6632
7456
8395
9423
10461
11441
12360
13256
14110
14828
15322
15594
15734
15815
15834
15749
15563
15344
15158
15022
14911
14823
14783
14814
14903
15019
15155
15335
15574
15856
16133
16363
16546
16700
16837
16947
17007
16998
16905
16717
16432
16071
15657
15201
14681
14067
13356
12575
11757
10908
10004
9021
7956
6808
5571
4253
2898
1553
221
-1145
-2577
-4020
-5367
-6549
-7591
-8547
-9407
-10087
-10533
-10807
-11018
-11225
-11402
-11492
-11494
-11462
-11458
-11494
-11552
-11594
-11588
-11515
-11371
-11149
-10815
-10316
-9621
-8756
-7789
-6778
-5729
-4630
-3508
-2434
-1467
-614
152
854
1492
2059
2572
3073
3610
4205
4844
5500
6164
6849
7577
8359
9174
10004
10840
11688
12543
13387
14199
14976
15727
16458
17156
17811
18428
19021
19582
20067
20419
20609
20655
20603
20475
20262
19948
19538
19054
18511
17925
17313
16664
15926
15065
14115
13149
12182
11132
9924
8595
7230
5770
3991
1774
-629
-2702
-4099
-4904
-5419
-5701
-5449
-4341
-2430
-146
2068
4037
5800
7397
8779
9897
10797
11583
12328
13048
13740
14434
15162
15919
16649
17249
17612
17694
17540
17246
16898
16537
16151
15700
15152
14524
13907
13413
13086
12875
12722
12693
12943
13527
14262
14837
15104
15190
15308
15483
15517
15218
14619
13929
13307
12746
12140
11421
10576
9596
8451
7137
5698
4171
2540
377
-947
-2266
-3805
-5930
-8182
-10438
-11788
-14289
-18027
-21323
-22529
-22833
-26053
-31334
30897
-29980
-17476
-3087
7182
11649
13713
13114
8296
4
-6324
-6271
-397
3092
-441
-7373
-9819
-5338
-488
-1125
-8042
-13969
-11593
-2168
8171
13844
11136
2153
-7026
-11509
-8085
-1087
3301
332
-7168
-11592
-9458
-2074
5736
8293
5261
-336
-3180
-2283
106
187
-5189
-12534
-14556
-8928
1682
9999
10871
5383
-1561
-4352
-3067
432
2123
235
-3657
-5330
-3798
1537
8451
13585
13093
4132
-10551
-24184
-27563
-19337
-6912
-19
-1016
-5619
-5744
357
7845
10335
4928
-5106
-15142
-19206
-15156
-4373
8990
19636
23331
19286
10271
1178
-3729
-2604
3585
11904
19006
22607
22264
19236
15649
13450
13638
16049
19660
23176
25598
26544
26263
25386
24593
24310
24609
25283
26012
26537
26727
26595
26250
25838
25485
25260
25170
25190
25286
25433
25605
25779
25948
26116
26290
26473
26675
26916
27211
27550
27891
28195
28440
28623
28734
28744
28634
28432
28212
28043
27944
27872
27766
27603
27402
27195
26978
26703
26303
25744
25031
24197
23272
22257
21140
19916
18611
17290
16029
14872
13808
12804
11858
11013
10317
9765
9302
8886
8509
8158
7749
7152
6295
5231
4070
2880
1646
355
-916
-2016
-2836
-3376
-3715
-3927
-4038
-4058
-4016
-3959
-3920
-3909
-3931
-3989
-4064
-4125
-4152
-4161
-4179
-4192
-4157
-4053
-3885
-3642
-3258
-2636
-1729
-586
689
2010
3371
5165
6311
7045
8062
9890
11341
12450
12648
13849
16818
19928
20874
19540
21050
26593
31898
29154
16171
-518
-10365
-11949
-10501
-10545
-9600
-3227
6211
10043
5189
-4308
-9837
-8251
-2916
1479
4577
4676
837
-5183
-8824
-6803
-2416
-4557
-14380
-21853
-17686
-1982
12453
16068
8590
-1620
-7522
-8953
-5583
-88
5576
7130
4225
-903
-3166
-2663
-3277
-7040
-11434
-12164
-7015
898
9416
15998
17815
11969
-770
-16989
-25898
-22038
-6163
13945
29244
30803
18891
-2300
-22518
-31838
-27888
-17007
-11353
-13255
-18639
-18890
-11224
-1299
5613
6552
5658
4352
2125
-2126
-6631
-8779
-8833
-9297
-10712
-10027
-4560
3226
6912
2914
-5438
-11531
-10056
-3125
6070
13349
15350
9413
-3596
-19823
-30444
-29532
-18127
-3497
5919
7237
1904
-3353
-5082
-2147
3877
10187
14655
16655
18293
19202
16739
11903
9897
15343
24764
29825
26457
20318
18659
22489
22710
14735
4423
1293
6924
13814
17462
17682
16862
13958
8255
4118
8463
17417
19834
9305
-6481
-13691
-9893
-2839
-3066
-8488
-10540
-4381
4338
9715
8265
3120
-2407
-4799
-3470
744
1367
-4120
-12334
-14781
-9383
1718
9595
10137
5283
-303
-3762
-4914
-4240
-1706
1570
3719
3510
1327
-1184
-2601
-1992
-753
688
1806
1098
-22
-849
-823
-617
-1
-53
-107
806
957
-109
-328
1672
5750
7314
1194
-12227
-24539
-25252
-11775
6612
15851
9901
-2651
-9291
-1544
11619
16503
8110
-2836
-3839
9236
22889
21915
6977
-8905
-13104
-7329
-1600
-3857
-9995
-11653
-5739
2434
8699
8612
4648
-417
-3233
-2524
-535
-757
-5925
-12720
-14098
-8101
2194
11085
12790
7591
-81
-3836
-2446
1373
3198
-872
-7565
-9768
-5137
3796
11913
13400
8680
1603
-2003
-1073
2001
2902
-1701
-8544
-10619
-5677
3706
11984
13565
8811
1592
-2210
-1415
1364
2223
-2213
-8847
-10821
-5862
3954
11374
12995
8498
2567
-1244
-1889
983
3821
2069
-5070
-10503
-7020
6934
20655
21541
8841
-5168
-7525
-410
5181
2187
-2666
1931
17434
30748
28985
13486
-4223
-12639
-12934
-9318
-4345
5426
18916
28440
29618
24330
21489
22497
22883
15537
4884
-1953
-1346
1449
-368
-7335
-12513
-13118
-11161
-9992
-8775
-5162
1422
5847
5569
2674
1211
1622
2594
1536
-1281
-2998
-3612
-3249
-1955
69
2240
3446
3262
1191
-260
-2071
-2587
-1881
-369
524
1948
1766
1141
293
-329
-1066
-1230
-1436
4
1143
1416
163
-425
-238
618
291
-1035
-992
2105
4170
1473
-6034
-12180
-10801
-1821
6264
7335
1310
-5947
-8948
-5404
2296
12915
23496
29462
26361
15210
1410
-6151
-4619
1568
5156
3085
-1679
-3215
684
8761
15134
15903
10167
-240
-11628
-19749
-21481
-16719
-8256
-407
3427
2178
-2777
-8553
-12216
-12060
-8141
-1983
4294
8940
11192
11365
10484
9707
9819
10997
12883
14853
16329
17003
16898
16278
15482
14770
14244
13858
13478
12940
12102
10890
9320
7467
5422
3255
1021
-1229
-3438
-5572
-7641
-9682
-11722
-13755
-15766
-17762
-19762
-21753
-23663
-25393
-26886
-28167
-29293
-30283
-31112
-31746
-32195
-32497
-32679
-32735
-32657
-32466
-32202
-31899
-31573
-31241
-30929
-30666
-30462
-30295
-30120
-29896
-29594
-29203
-28714
-28118
-27406
-26580
-25659
-24671
-23634
-22558
-21445
-20302
-19126
-17887
-16549
-15093
-13528
-11878
-10160
-8383
-6569
-4752
-2956
-1190
541
2230
3862
5420
6900
8311
9662
10946
12132
13198
14153
15034
15847
16540
17053
17404
17693
18010
18345
18623
18806
18955
19158
19424
19680
19860
19962
20041
20154
20340
20625
21000
21408
21776
22072
22335
22611
22871
23006
22919
22606
22138
21585
20956
20232
19423
18594
17823
17159
16601
16133
15749
15448
15212
14996
14740
14398
13943
13368
12681
11905
11066
10177
9246
8305
7420
6665
6070
5611
5239
4929
4694
4557
4527
4590
4723
4904
5115
5343
5569
5767
5917
6016
6082
6138
6193
6231
6235
6205
6144
6042
5879
5651
5388
5122
4851
4540
4171
3769
3377
3022
2691
2358
2010
1652
1290
931
578
228
-134
-523
-947
-1407
-1909
-2462
-3068
-3711
-4362
-5013
-5675
-6367
-7082
-7786
-8428
-8997
-9528
-10071
-10626
-11141
-11572
-11950
-12346
-12787
-13223
-13614
-14005
-14460
-14925
-15207
-15136
-14739
-14194
-13597
-12836
-11714
-10182
-8409
-6629
-4940
-3269
-1500
396
2349
4263
6090
7843
9550
11203
12759
14170
15418
16514
17448
18184
18691
19005
19207
19359
19455
19453
19337
19150
18959
18816
18739
18722
18754
18811
18861
18862
18762
18520
18123
17579
16904
16096
15148
14064
12873
11603
10255
8824
7326
5792
4244
2679
1092
-504
-2081
-3613
-5127
-6708
-8451
-10396
-12519
-14779
-17142
-19530
-21773
-23666
-25148
-26355
-27760
-27809
-27004
-25472
-23959
-22668
-21918
-20744
-20864
-22178
-23170
-22558
-21812
-24785
-30402
31311
-29896
-17424
-2953
7236
11810
12844
11267
6323
-866
-5937
-5322
-728
2123
-263
-5757
-8575
-6786
-2035
970
-1773
-11387
-22986
-29063
-22173
-5637
7908
7382
-3816
-12242
-6526
9448
18729
11991
-4661
-16374
-18905
-17367
-21768
-30632
31350
-26888
-15776
-11373
-18126
-27246
-26955
-13773
4214
17048
18435
10930
1066
-6630
-10121
-8926
-5048
28
3941
4923
2525
-378
-2455
-2613
-1339
220
1050
1543
1388
480
-294
-807
-811
124
282
168
305
985
1317
789
-1256
-1687
1114
6161
10258
11309
7505
557
-7862
-14260
-14121
-3957
11923
25373
28101
19450
6369
-2436
-5054
-3041
190
2994
4898
4266
-389
-8599
-15427
-18238
-16902
-14043
-11739
-9975
-7891
-7059
-8395
-13648
-20361
-24316
-22894
-17980
-13797
-14671
-20938
-28880
-31374
-26900
-19222
-15302
-17756
-21184
-17144
-3530
11457
16541
8885
-2522
-5336
3834
16093
19419
10107
-4055
-12569
-11884
-7417
-6825
-12255
-19419
-22891
-22193
-19867
-19079
-16873
-10131
-441
5123
941
-11428
-22443
-23734
-14758
-4270
2025
3821
4773
6630
6909
2418
-6418
-15059
-18667
-15285
-6227
5251
15341
20790
19924
13803
5648
-546
-2134
1208
7718
14581
19243
20433
18508
15057
12032
10854
11943
14769
18286
21450
23578
24500
24507
24147
23954
24226
24949
25895
26793
27464
27850
27986
27962
27893
27896
28042
28331
28711
29124
29552
29995
30440
30853
31201
31480
31708
31901
32059
32190
32296
32370
32383
32296
32091
31777
31364
30852
30241
29547
28795
28002
27162
26264
25316
24327
23303
22247
21168
20076
18960
17805
16592
15328
14031
12719
11401
10088
8788
7497
6196
4878
3555
2244
937
-393
-1756
-3128
-4473
-5772
-7030
-8241
-9398
-10498
-11556
-12586
-13570
-14463
-15262
-16031
-16844
-17713
-18564
-19338
-20075
-20877
-21783
-22741
-23719
-24820
-26210
-27889
-29574
-30868
-31578
-31813
-31755
-31368
-30389
-28614
-26145
-23335
-20520
-17838
-15280
-12821
-10493
-8335
-6366
-4580
-2962
-1479
-76
1286
2585
3784
4870
5864
6756
7489
8016
8370
8635
8846
8929
8755
8266
7520
6634
5701
4768
3865
3035
2316
1723
1235
805
369
-134
-749
-1512
-2441
-3548
-4813
-6183
-7977
-8805
-9581
-10631
-12338
-14182
-15974
-16773
-18644
-21702
-24315
-24904
-24699
-27492
-32370
30253
-30308
-17635
-3221
7010
11462
13552
12986
8182
-115
-6446
-6389
-504
3004
-493
-7377
-9781
-5282
-443
-1112
-8061
-14011
-11631
-2174
8625
13207
10334
1712
-6507
-10630
-7764
-680
3584
1365
-6959
-13058
-11169
-816
9559
10761
860
-12759
-18273
-11310
4219
17434
19827
11033
-1516
-10889
-11764
-3959
8486
18543
18860
7915
-10383
-26118
32589
-30009
-19580
-5206
8756
14289
7351
-9060
-24118
-27559
-18898
-5820
2212
4462
4436
4419
2726
-3214
-12810
-21760
-25622
-22722
-14432
-3882
5344
10236
9285
3565
-3848
-9185
-9970
-5917
1272
8865
14366
16492
15515
12875
10375
9371
10325
12817
15894
18547
20092
20358
19655
18577
17715
17419
17719
18415
19245
20012
20623
21061
21366
21617
21909
22320
22867
23496
24114
24656
25117
25528
25899
26206
26428
26590
26763
26996
27278
27574
27890
28276
28762
29312
29859
30376
30894
31440
31980
32433
32739
-32634
-32565
-32206
-32684
31809
31066
31399
31741
31984
31238
31188
32648
-31319
-31835
30845
30556
-31529
-28346
32622
18276
632
-9864
-11838
-10518
-10465
-9305
-2727
6425
11427
6729
-3204
-9816
-8751
-3439
2242
4615
3595
-14
-3977
-7035
-6502
-5876
-6778
-8678
-6894
-634
7239
10367
6276
-1421
-7147
-6915
-3016
1853
4751
4995
3801
2976
900
-3055
-7929
-9250
-2833
9607
22343
28665
29258
27085
23093
15341
5410
-1865
-39
11348
22552
24828
16517
3913
-3495
-5134
-6632
-12932
-18804
-17068
-6443
3323
2274
-7528
-14202
-7861
4701
9867
2534
-7862
-9154
-1939
4496
2119
-4093
-3972
5659
17250
19895
11949
-1468
-11446
-12751
-5450
5452
13988
13976
6904
-2315
-6280
-2792
4796
9298
7002
1141
-3679
-3415
2938
12015
20990
24763
18912
1015
-18333
-26190
-15416
5312
19008
15100
-660
-12934
-13054
-5104
2293
3420
1429
-1519
-4145
-7890
-9813
-6969
1791
11393
14705
8193
-2955
-12244
-14797
-12319
-7926
-4691
-1070
2613
6145
5987
2728
-1891
-3734
-3173
-958
824
1472
1549
1127
-551
-1689
-2087
-1035
521
1550
1131
194
328
262
-552
-566
1252
4969
6490
823
-11973
-23865
-24248
-10023
9778
20627
15620
2863
-4831
1722
13995
18200
9040
-2806
-4556
8226
22037
21443
6874
-8729
-12707
-6765
-998
-3372
-9741
-11654
-5948
2113
8401
8460
4656
-101
-2678
-1959
177
-906
-6762
-13743
-14644
-8182
2377
10366
11659
6979
139
-3059
-133
8486
15535
12586
-1164
-16794
-23058
-16412
-2711
9069
15081
15556
11905
5892
1173
1835
8496
16882
22425
24133
23483
20497
13312
2743
-7348
-11568
-11405
-10644
-10538
-8103
-1613
7276
11548
8532
1545
-3672
-5229
-3384
-1097
899
2649
3099
1820
-419
-2085
-2303
-1271
335
848
1719
1096
230
-414
-513
-941
25
264
459
539
560
-276
57
-216
-197
54
440
-50
451
124
-62
-38
209
-284
324
143
66
116
346
3
-363
-656
-693
230
822
152
-461
-811
726
1180
-11
-1792
-614
1807
1402
-4985
-13353
-17379
-11444
-1733
5320
4174
-1618
-5915
-3903
1250
3499
-2532
-14862
-24048
-19865
-4237
11013
12587
-174
-13950
-13908
-408
13416
14385
1410
-15501
-24094
-18372
-184
20205
30829
22637
1249
-15680
-14126
1726
13540
8119
-6197
-13403
-7165
-1113
-8167
-25051
32745
-18828
8603
29584
31937
19395
3489
-7769
-12561
-11368
-4858
4473
12050
12878
7724
-973
-7925
-11205
-10393
-6941
-3070
-500
234
-325
-1135
-1252
-192
1957
4672
7308
9435
10986
12176
13295
14561
16029
17589
19002
20021
20538
20619
20419
20070
19656
19234
18822
18340
17612
16506
15080
13548
12093
10695
9156
7272
4990
2404
-719
-2894
-4976
-7273
-10191
-13197
-16025
-17642
-20079
-23491
-26292
-26879
-26447
-28839
32252
29698
-30630
-17584
-2835
7061
12414
14409
13406
7875
-462
-6166
-5885
-846
1757
-1004
-5899
-7227
-3531
919
2859
555
-2809
-1921
4794
15106
20578
15769
870
-12911
-16961
-6454
12132
26432
26495
11603
-6504
-13890
-3854
13973
23218
17414
6220
102
329
-1643
-7845
-8320
5322
25369
30507
12079
-16641
-32559
-25962
-7798
5684
6731
885
-5993
-12279
-17154
-17687
-11257
-2571
2759
723
-4925
-9576
-11405
-11396
-9833
-5288
2248
8847
9003
621
-12451
-23318
-26907
-22160
-11769
-113
8266
10426
6058
-2258
-10216
-14230
-12911
-7300
-24
6098
9289
9345
7385
5121
4061
4963
7680
11365
14938
17581
19038
19604
19842
20240
21011
22107
23349
24542
25525
26188
26486
26472
26267
25993
25718
25448
25176
24905
24631
24324
23940
23461
22914
22330
21707
21008
20208
19330
18427
17531
16623
15662
14622
13519
12388
11259
10151
9077
8040
7023
5991
4915
3784
2603
1388
144
-1119
-2378
-3602
-4772
-5900
-7026
-8180
-9320
-10333
-11100
-11596
-11916
-12188
-12460
-12664
-12708
-12592
-12436
-12397
-12557
-12876
-13249
-13593
-13897
-14203
-14513
-14753
-14811
-14620
-14206
-13631
-12918
-12041
-10993
-9847
-8712
-7658
-6684
-5752
-4834
-3934
-3077
-2296
-1606
-983
-344
406
1308
2334
3420
4523
5629
6730
7815
8883
9949
11014
12032
12936
13695
14351
14989
15656
16326
16943
17485
18001
18576
19283
20143
21128
22192
23289
24396
25500
26565
27520
28298
28869
29240
29411
29363
29109
28747
28414
28157
27865
27379
26656
25800
24920
23996
22917
21630
20223
18834
17529
16278
15026
13754
12468
11174
9862
8528
7153
5698
4140
2522
934
-574
-2046
-3563
-5106
-6543
-7742
-8703
-9543
-10348
-11071
-11620
-11995
-12321
-12719
-13192
-13677
-14155
-14672
-15252
-15829
-16328
-16758
-17207
-17700
-18133
-18358
-18332
-18135
-17851
-17456
-16838
-15942
-14850
-13725
-12687
-11732
-10772
-9746
-8682
-7656
-6708
-5805
-4893
-3974
-3128
-2437
-1948
-1681
-1694
-2058
-2786
-3770
-4829
-5834
-6766
-7638
-8396
-8900
-9033
-8785
-8236
-7454
-6450
-5220
-3811
-2301
-746
832
2406
3904
5249
6426
7816
8311
8199
8372
9635
10905
12013
12062
12866
15434
18423
19503
18274
19684
25058
30371
27838
15086
-1476
-11182
-12445
-10544
-10247
-9245
-3034
5823
10733
6089
-3749
-10261
-9078
-3633
2168
4628
3665
92
-3863
-6963
-6537
-5813
-7000
-8998
-6772
-6
7068
9474
4924
-2093
-6953
-7108
-4937
183
5100
6682
4162
439
-2138
-2534
-3544
-8496
-13619
-14060
-6709
3630
11321
11745
5332
-3416
-7410
-4813
1067
1762
-6701
-18229
-19984
-8479
6983
10544
-2915
-21155
-26471
-11928
11080
27497
29387
19707
6019
-5287
-12512
-13290
-7411
490
4557
1374
-6913
-15713
-20068
-20665
-18609
-14616
-9927
-7585
-10405
-18416
-27671
32274
32460
-28489
-22604
-18447
-17409
-19498
-23721
-28014
-30309
-29740
-26997
-23735
-21524
-21160
-22390
-24546
-26479
-27408
-27174
-26127
-24782
-23891
-23650
-24003
-24689
-25354
-25676
-25549
-25161
-24857
-24840
-24948
-24865
-24627
-24328
-24308
-24487
-24583
-24546
-24644
-24618
-23694
-21327
-18672
-18104
-20998
-25713
-28171
-24962
-15906
-4836
2452
1596
-7183
-18265
-23335
-17616
-4194
8104
11449
4995
-5506
-13253
-14761
-10697
-2873
4766
10789
13016
12128
7949
1269
-3960
-1612
10670
23569
25387
13303
-1334
-3446
5630
11982
5525
-6524
-10193
-826
9467
10492
4889
3067
7431
10155
5057
-5676
-12717
-12877
-9286
-4942
1064
6905
8804
3591
-5087
-7988
-3366
1378
-1139
-9113
-12971
-7643
1753
5256
-368
-8256
-10773
-4377
1952
74
-10191
-18337
-14330
949
10648
5005
-10959
-18335
-9143
4606
6231
-4184
-8519
1163
11314
3622
-18256
-31336
-19907
2054
10883
1549
-8820
-7332
-180
-3760
-18810
-27074
-16454
6777
24234
27049
17378
3313
-11866
-24385
-27833
-18272
-1175
11599
11370
2597
-5791
-6418
-557
7730
14523
16199
9578
-4802
-20494
-28345
-23670
-10279
3015
9617
8870
4097
-1158
-4716
-5475
-3387
-235
2292
1561
-1191
-4355
-6448
-6844
-5905
-4598
-3934
-4541
-6475
-9272
-12191
-14941
-15881
-16136
-16517
-17844
-19760
-21958
-23260
-25473
-28469
-30448
-29850
-28187
-29671
31859
29399
-30936
-17851
-3023
6928
12292
14301
13376
8045
-221
-5837
-5263
343
3573
1173
-3673
-5342
-2570
2362
3797
705
-3631
-3345
2553
10303
13869
8417
-2660
-10630
-10269
-2035
8309
12180
7404
-2254
-8266
-7153
965
7320
5901
-1744
-7598
-8188
-3077
1529
2846
2441
2513
3534
2394
1313
922
1641
1940
2158
2435
3863
5572
3287
-2083
-7131
-4726
4921
15344
15772
2613
-13066
-16313
-2852
15002
21658
14610
4624
1293
113
-5096
-11217
-7882
6646
20557
20101
9514
2782
5752
9373
4233
-4318
-4739
6371
16853
14234
21
-14255
-19637
-18555
-14539
-10343
-5179
-949
251
-867
-2055
-1507
-1736
-2959
-5348
-6379
-5575
-3033
1147
6215
10070
10780
8780
7175
8074
10478
11637
10077
9125
12052
17844
20820
18327
14792
17299
23643
26269
20168
11767
10997
18401
21436
13544
2138
1447
13014
22833
16818
829
-8761
-4344
4489
4901
-4603
-11482
-7588
2404
7250
2383
-6425
-13065
-13565
-9506
-3826
561
644
-5332
-12036
-12913
-6448
1490
2605
-2067
-7698
-6440
1515
9688
10310
3530
-8197
-17080
-18293
-11139
-863
6833
7146
3675
725
923
1747
2064
794
-1951
-4560
-7336
-8027
-5328
1474
7262
9497
6102
-657
-7931
-10335
-7328
-162
4198
1416
-5907
-11043
-8649
-781
5155
5610
2551
-637
-1886
-1505
-1021
-140
1498
1891
1818
48
-1780
-2793
-2249
-74
1976
2867
1371
187
494
811
-1250
-3460
-2252
5114
12930
11918
-1043
-16620
-23096
-14365
3069
18040
23861
22178
15233
5513
-6445
-18544
-27552
-30325
-28594
-24668
-19062
-14893
-12536
-13942
-18721
-23570
-26431
-27692
-29093
-28255
-24237
-18974
-18423
-24833
-31388
-27946
-13165
2174
6542
863
-2931
3425
14602
18419
10645
-2001
-8193
-4158
4268
7521
2192
-9826
-21235
-26097
-23220
-15880
-6879
4127
17152
27460
27037
14697
-2421
-13577
-15372
-12229
-10981
-9928
-4862
3675
10629
8622
-1561
-11606
-12481
-3645
5209
4760
-6995
-19389
-21821
-11060
4635
14873
13901
4213
-5622
-9017
-3065
6243
9294
2659
-6587
-6865
1871
9662
6554
-4028
-10005
-6499
-2812
-10078
-23052
-26823
-11837
13539
32300
31540
15374
-4912
-18458
-19949
-8143
10631
24448
24553
10107
-7296
-14374
-7751
3260
7595
3539
-1135
2809
12210
16897
10315
-2645
-10656
-8021
2613
11260
11941
5270
-3532
-9533
-9606
-5860
-3025
-2071
-991
2429
6148
5439
-2210
-11747
-15445
-9195
1903
11404
14124
9207
-135
-6308
-3285
10640
26148
29312
13887
-10336
-28107
-29255
-15694
1228
13601
18920
19073
14063
8213
3996
4279
9366
17930
24841
28669
25794
15648
1261
-11015
-16259
-12055
-2941
5210
9221
8157
3491
-2081
-5131
-4813
-1144
2555
3744
2591
1145
185
-1017
-2869
-3139
1248
6460
5883
-4825
-19907
-27167
-18447
-582
13045
13019
2476
-7521
-7289
2155
14993
24521
27176
22364
12384
-5
-8490
-7484
2651
15824
22553
17583
4050
-7019
-8664
-1170
8790
14763
14853
10532
3220
-5724
-13390
-16042
-12639
-6650
-2825
-2865
-4707
-6397
-8634
-12518
-16166
-15533
-8921
-60
4639
1657
-7216
-16507
-21187
-19002
-10992
-315
8846
13155
11537
5762
-472
-3824
-2736
2196
8796
14499
17525
17514
15412
12800
11125
11147
12776
15253
17593
19049
19371
18776
17737
16735
16086
15867
15927
16010
15910
15563
15002
14272
13413
12527
11794
11331
11046
10664
9967
9001
8008
7184
6496
5769
4913
4046
3392
3099
3156
3439
3819
4218
4608
4993
5401
5873
6454
7168
8359
8886
9020
9610
11381
13204
14950
15753
17306
20386
23541
24592
23376
24829
29999
-30898
31110
17430
226
-9980
-11817
-10834
-10685
-9926
-3259
6786
11677
6276
-4438
-10619
-7677
-1600
2286
2922
2642
1092
-3503
-9390
-9216
-459
9731
10685
1701
-7686
-5667
6600
17071
15503
2025
-13925
-24888
-25982
-17148
-1544
13804
21178
15394
1084
-12096
-17993
-15148
-8858
-3789
-2270
-4581
-9574
-14575
-17645
-16448
-12799
-8928
-6830
-7382
-10109
-13594
-16333
-17920
-16972
-15239
-14378
-15548
-18031
-20403
-22465
-25062
-28129
-29630
-28364
-26707
-28501
31976
29611
-29505
-15165
-721
6288
4535
-2446
-11207
-19923
-26236
-26952
-21643
-14925
-12752
-16130
-19901
-18466
-11884
-5682
-5264
-11189
-19703
-24882
-24486
-17564
-6793
3390
8868
7638
676
-8682
-16178
-18913
-16449
-10596
-4293
-171
533
-1718
-5253
-8127
-9012
-7633
-4673
-1282
1471
2985
3233
2636
1790
1206
1139
1574
2308
3081
3681
4022
4158
4240
4434
4829
5403
6058
6696
7268
7773
8219
8604
8920
9177
9403
9615
9808
9975
10137
10327
10546
10736
10816
10747
10566
10358
10196
10107
10077
10080
10098
10128
10181
10260
10354
10435
10480
10485
10471
10457
10439
10396
10314
10197
10060
9918
9768
9600
9408
9202
9001
8821
8671
8537
8394
8224
8027
7812
7581
7307
6967
6561
6119
5672
5228
4780
4339
3941
3624
3395
3232
3117
3059
3088
3211
3398
3610
3830
4056
4277
4457
4552
4549
4468
4340
4172
3960
3719
3480
3265
3069
2867
2650
2434
2257
2125
1994
1819
1607
1423
1321
1259
1122
842
487
201
53
-21
-106
-166
-43
384
1076
1874
2669
3473
4312
5132
5830
6361
6793
7218
7650
8056
8433
8848
9361
9971
10649
11397
12238
13133
13972
14685
15324
16027
16868
17773
18602
19290
19884
20457
21010
21477
21799
21986
22109
22243
22431
22668
22928
23188
23444
23695
23898
23965
23808
23404
22790
22026
21144
20152
19080
18000
17004
16166
15518
15046
14707
14458
14279
14193
14231
14384
14574
14703
14716
14622
14430
14086
13484
12555
11335
9930
8439
6903
5343
3796
2313
913
-437
-1787
-3160
-4538
-5898
-7248
-8628
-10072
-11553
-12972
-14187
-15091
-15666
-15975
-16101
-16091
-15951
-15685
-15335
-14987
-14734
-14619
-14604
-14601
-14532
-14367
-14110
-13764
-13331
-12846
-12375
-11966
-11626
-11352
-11196
-11264
-11620
-12198
-12844
-13454
-14055
-14749
-15585
-16504
-17397
-18214
-18986
-19760
-20511
-21148
-21585
-21799
-21812
-21635
-21241
-20606
-19742
-18691
-17482
-16104
-14525
-12737
-10766
-8671
-6513
-4331
-1795
-30
1240
2831
5417
7842
9997
11093
12931
16358
19900
21281
20259
21828
27190
32204
29166
15926
-958
-10880
-12383
-10754
-10630
-9595
-3190
5872
10887
6255
-3600
-10126
-8959
-3545
2222
4654
3669
70
-3912
-7018
-6573
-5811
-6962
-8941
-6722
16
7055
9436
4879
-2126
-6961
-7091
-4906
213
5083
6821
4054
211
-2092
-2047
-3070
-8687
-14381
-14465
-6257
4408
11443
11493
5819
-1997
-6651
-6268
-1303
2183
-1369
-10460
-15498
-11438
-1911
2387
-2736
-9441
-6973
6296
21306
28158
25036
16489
6943
-2425
-11610
-16422
-13046
-2443
11174
19453
17402
4095
-12453
-22455
-16586
1659
19152
23250
13503
1769
-835
7164
14923
13846
5090
-1968
-648
8184
14703
12293
2867
-5322
-6677
-2324
57
-4784
-12039
-13247
-4774
7760
17683
19082
13599
5255
-1191
-4356
-3262
1030
3532
2360
-465
5
6978
14867
13908
1205
-14087
-16775
-3190
16300
24747
17206
3931
-1930
-1477
-3056
-9305
-10349
2766
23123
29427
11764
-17572
30756
-28558
-9729
3576
2430
-5460
-10439
-10394
-9087
-8587
-5612
1071
9891
13522
8289
-4311
-17531
-24460
-22086
-11956
1512
13116
18687
16487
8257
-1827
-9087
-10752
-6872
219
7260
11550
11945
9050
4670
859
-967
-477
1664
4272
6239
6942
6372
4987
3433
2248
1690
1711
2048
2389
2518
2378
2038
1629
1244
916
638
402
202
25
-171
-428
-773
-1216
-1767
-2436
-3197
-3977
-4706
-5372
-6018
-6687
-7374
-8058
-8748
-9479
-10267
-11065
-11785
-12405
-12998
-13654
-14353
-14974
-15432
-15802
-16246
-16807
-17352
-17758
-18146
-18780
-19738
-20717
-21252
-21104
-20388
-19269
-17640
-15181
-11723
-7489
-2951
1499
5692
9558
12949
15665
17606
18886
19767
20483
21140
21761
22381
23069
23874
24735
25484
25947
26027
25718
25057
24122
23008
21789
20475
19022
17422
15744
14089
12475
10817
9030
7119
5179
3299
1503
-237
-1928
-3540
-5051
-6475
-7853
-9215
-10557
-11876
-13189
-14511
-15824
-17088
-18273
-19383
-20825
-21253
-21576
-22100
-23212
-24393
-25446
-25443
-26487
-28718
-30456
-30033
-28682
-30350
31203
28891
-31248
-18187
-3405
7057
11515
13444
12703
7817
-468
-6745
-6629
-683
2887
-557
-7404
-9779
-5253
-392
-1057
-8031
-14014
-11662
-2219
8583
13145
10436
1934
-6407
-10878
-8276
-1097
3851
1214
-7903
-14448
-11977
-952
8946
9144
118
-10430
-13763
-8972
666
8787
10151
2774
-9781
-22709
-29706
-29083
-23813
-17902
-13605
-9586
-6519
-4894
-7315
-13904
-20534
-21621
-14177
-3328
4008
2461
-6634
-16465
-21056
-19177
-13567
-6835
-488
4170
5119
1353
-5450
-11398
-13150
-10102
-4259
1777
5845
6878
4851
931
-2978
-5067
-4834
-2667
414
3152
4492
4362
3458
2779
2598
2745
3413
5166
7773
9947
10441
10040
10785
13722
17119
16492
12524
9055
9741
13451
16126
16752
16553
19055
22481
22661
17630
10902
7983
8790
10447
8464
1678
-7638
-14987
-15442
-8288
4239
13693
13920
3031
-12819
-22825
-18624
-952
16385
19345
3773
-16232
-24310
-16752
-5052
1798
4453
8937
12813
6709
-10042
-24693
-23314
-10768
-2464
-4892
-8289
-3907
4155
3717
-7887
-16671
-10665
6723
22285
28523
28217
24614
19056
11872
7652
10641
14507
11124
-671
-9852
-9236
-2168
653
-6021
-14963
-16358
-7779
4112
12748
13550
7699
-968
-7185
-7718
-2825
504
-2244
-9608
-12728
-8636
929
8010
8302
4201
1
-2638
-3635
-3368
-1606
1043
2873
2830
1035
-1023
-1965
-1679
-499
165
1455
1241
736
-86
-236
-794
-354
-326
50
378
388
419
213
-255
-306
-309
-648
-1172
-460
723
2107
1529
-1809
-6513
-8791
-7648
-2936
2438
5063
2140
-6377
-18335
-25814
-21880
-5990
13083
23638
17828
610
-17490
-27651
-29391
-25654
-20888
-16374
-12724
-11778
-14880
-21536
-26702
-26958
-21513
-13653
-8692
-10040
-16308
-22300
-22763
-16144
-5952
1487
1184
-6857
-17444
-23681
-21638
-13247
-4849
-2915
-9239
-19636
-26565
-27133
-21878
-15921
-13237
-15362
-20656
-25144
-21926
-9931
5184
12957
7877
-4274
-12350
-11337
-6407
-4484
-4898
-964
9522
20762
21307
8590
-8124
-15655
-9199
3165
8289
731
-11614
-16911
-9546
3886
11636
6982
-4524
-14758
-14855
-4945
9926
21046
22158
13020
293
-10200
-14887
-14294
-9276
-26
9791
13333
6918
-4442
-11019
-8830
-3751
-2979
-7294
-7520
2303
17896
28272
25522
11415
-5436
-16909
-21360
-20908
-19570
-18884
-18708
-18363
-19958
-23450
-28095
-31418
-31420
-28028
-23353
-19670
-17976
-18668
-21387
-25231
-28277
-29095
-27542
-25058
-22936
-21424
-20241
-20740
-23003
-25488
-25576
-23029
-18687
-16134
-15505
-14269
-9383
-801
10359
19305
22880
20676
16422
15082
17342
19907
15463
2791
-11555
-17766
-11975
2067
13302
14510
6813
-2498
-7533
-6822
-5605
-7154
-9500
-7814
-1158
6792
9763
5915
-711
-5158
-5585
-3439
-572
2075
3921
3957
2140
-1712
-4012
-4243
-1806
1118
2121
1636
396
398
609
-583
-2583
-1548
1370
3272
-2387
-13505
-21852
-17365
-3091
8643
6049
-8525
-20612
-15436
1354
13754
9680
-5048
-14345
-7229
5895
10513
1531
-11261
-15865
-11547
-5518
-6442
-11251
-13100
-6605
6249
16537
17197
6598
-5991
-10817
-4195
5865
8534
-924
-13554
-16628
-6547
8076
14560
8759
-2351
-9593
-7994
-5168
-5803
-9641
-8009
1343
12298
11082
-1035
-11014
-3859
16650
30420
23186
1284
-14382
-10431
4780
14007
9450
-524
-5535
-3855
-1190
-726
-789
-369
-2460
-11633
-21497
-23224
-12063
3398
11545
8102
1623
931
4422
6291
2479
-3758
-6858
-4776
-2067
-1368
-3060
-5138
-6044
-5978
-5280
-3651
-1190
1265
2750
2850
2721
2659
2146
1949
3079
4725
5802
5626
4978
4017
3444
3247
3134
4546
7998
11077
11249
6291
-2628
-11755
-16897
-14953
-5571
3208
1434
-10692
-22071
-19010
-109
17514
17545
1973
-8687
-2599
13938
21729
14751
4758
4958
14111
18038
8795
-5114
-11084
-6577
-1324
-4745
-13030
-17304
-8990
6714
17139
13031
-2375
-16487
-16682
-2449
14087
18067
6780
-8917
-14730
-8553
2195
7180
2998
-6993
-15349
-17632
-12504
821
18455
31413
29767
12607
-12509
-30906
32029
-20345
-3104
8343
8480
741
-6696
-7416
505
10039
14896
10926
990
-8694
-12962
-10992
-4142
1852
3030
-791
-5365
-6341
-2180
1334
-140
-5604
-8029
-5507
992
4514
2924
-664
-2284
-701
503
881
1275
2343
2561
1589
-145
1277
5814
9004
6671
277
-2358
2539
12246
16658
8536
-9864
-27510
30212
-28558
-10981
8100
18686
16433
3133
-11580
-19603
-18415
-10899
146
10442
17458
17843
11600
3738
64
1834
5363
7880
10662
15689
20708
20711
14614
8681
10053
18397
26051
26147
19923
14342
14693
19724
24960
27687
28405
28166
26450
22818
18303
15315
15532
18718
23010
25906
25616
22095
17951
16660
19284
22449
20959
13273
3832
-735
1837
7900
12292
13513
13619
13762
11331
3349
-8559
-17718
-17596
-7516
6812
17363
18932
11009
-3067
-17871
-27948
-29844
-23927
-13944
-5166
-1541
-4151
-11323
-19872
-26659
-29755
-28935
-25529
-21703
-19434
-19626
-21885
-25000
-27698
-29168
-29218
-28161
-26615
-25211
-24289
-23773
-23312
-22590
-21509
-20162
-18702
-17241
-15862
-14633
-13586
-12731
-12086
-11672
-11471
-11403
-11353
-11253
-11097
-10929
-10804
-10772
-10866
-11085
-11354
-11540
-11512
-11195
-10582
-9726
-8708
-7622
-6530
-5419
-4243
-3021
-1903
-1082
-615
-339
31
659
1461
2227
3189
3326
3148
3609
5299
6855
8059
8236
9387
12431
15786
17062
16091
18058
24211
30169
27897
15116
-1478
-11085
-12237
-10387
-10301
-9506
-3363
5551
10555
5989
-3778
-10220
-8993
-3556
2201
4615
3630
59
-3855
-6706
-7153
-6897
-6938
-7926
-5870
-676
6112
9576
6300
-1905
-9112
-8854
-2313
4835
5045
-2361
-10180
-9358
-634
8136
7654
-3046
-15939
-21720
-15726
-2239
12276
20676
18945
7556
-7013
-18028
-19384
-12140
-3059
1062
-645
-3903
-4339
-3520
-4508
-9623
-14931
-16006
-11897
-8569
-9520
-12712
-13218
-10466
-8490
-11643
-19074
-25264
-23569
-13655
-2768
-1047
-9955
-19648
-17746
-3457
12594
17339
11230
4882
5738
10493
11828
11505
13892
19352
18482
7918
-2715
-899
11782
19818
13070
-980
-6541
-1955
1944
-3327
-10919
-8469
2210
8113
1771
-7260
-3592
12307
27009
27950
16020
-493
-12571
-16340
-10129
1578
13673
17473
11395
882
-7712
-11941
-12393
-8596
-1486
5396
6805
3328
1367
6750
13714
12796
1896
-9621
-11430
-1646
9101
11628
4944
-2493
-6111
-5399
-5574
-9125
-11966
-9177
-895
8346
11671
7194
-567
-6263
-6934
-4421
-1157
2336
4846
4685
2083
-2256
-3905
-3217
-1152
-370
441
2521
3308
1246
-2530
-3502
-567
1666
-4010
-14082
-18047
-9915
3074
9469
4947
-1763
-3512
-3944
-11243
-23154
-28149
-15727
8455
26875
27036
11462
-8222
-20138
-22271
-17827
-10697
-3728
1081
475
-5780
-16737
-25835
-28447
-23873
-17089
-13887
-15657
-19074
-20150
-18200
-15440
-14517
-16312
-20507
-25766
-30306
-32243
-30500
-26010
-21098
-18180
-18232
-20750
-24405
-27788
-29350
-27949
-23619
-18602
-16315
-18727
-24201
-28161
-26466
-18305
-7287
562
391
-8025
-19247
-24867
-19881
-7158
4643
7578
819
-9553
-16411
-16799
-12273
-5334
2471
9995
14672
13663
6943
-935
-3521
1607
10397
16193
16429
14167
13439
13856
11992
7360
5075
10415
21385
29461
27973
19155
11189
10217
15191
21302
25291
27171
27679
26180
22335
17468
14305
14906
19004
24170
27367
27011
23939
21210
21543
24834
27639
25872
18560
9116
3182
4379
11859
20476
23717
17725
4203
-10251
-17649
-13682
-654
13852
21428
17610
3746
-13874
-27360
-30912
-23243
-7996
8235
18887
20631
14372
4125
-5244
-10246
-9923
-5670
-101
4307
6142
5320
2793
-54
-2056
-2699
-2219
-1335
-787
-975
-1871
-3181
-4595
-5935
-7151
-8261
-9303
-10332
-11424
-13022
-13772
-14531
-15547
-17187
-18969
-20723
-21467
-23166
-25841
-27841
-27646
-26618
-28691
32488
29894
-30486
-17709
-3247
6972
11361
13379
12775
7979
-280
-6568
-6477
-566
2960
-524
-7397
-9789
-5276
-427
-1092
-8047
-14007
-11645
-2211
8153
13856
11169
2186
-7009
-11498
-8052
-647
2767
-274
-7492
-11191
-8851
-1527
5656
8591
5900
-560
-5191
-4546
1052
4123
-1857
-14532
-22587
-18594
-3678
12914
23023
24250
17062
3605
-13463
-25750
-26224
-14876
290
10742
11506
6484
1355
-91
2090
4974
7228
10210
13305
14374
12035
6893
4357
7515
13730
18265
20005
23464
27324
24924
11799
-4775
-10353
2691
21676
28060
15752
-3136
-13011
-11755
-7395
-8182
-11043
-9126
-797
7816
11693
8549
1772
-4614
-6433
-4005
960
2191
-3305
-11916
-14538
-9527
1020
9108
10076
5090
-1297
-4159
-5021
-3189
-321
2004
1848
-758
-4937
-7760
-5677
-403
4582
2764
-6542
-17818
-19626
-7802
7053
10576
-2163
-19392
-25027
-17126
-6562
-2972
-1733
3501
9994
7204
-6925
-20576
-19914
-9157
-2713
-6513
-10719
-5058
4673
5354
-7084
-18671
-14837
2358
18166
21936
18433
14339
11350
4214
-6164
-11146
-3492
13358
26244
27068
17088
6678
1285
-272
-1319
-965
4368
13781
20245
17751
9213
3193
4135
7962
8841
7168
8221
13527
17948
16125
10314
7623
10989
15430
15100
11144
9908
13779
17920
16748
11725
9604
13206
17546
16752
11800
9370
12381
16311
15286
10239
7570
10358
14047
12656
6649
2935
6193
13839
19187
18561
13513
7838
4610
5870
11546
18063
19275
12272
1491
-4399
-780
8455
16374
18293
17430
16633
15199
10922
4900
2717
8469
19122
27678
26631
16874
6077
2660
7693
15161
14644
3389
-11141
-17815
-13344
-4026
-1373
-7659
-14917
-13737
-3909
7391
11207
7109
505
-3471
-4456
-2927
-1008
1523
3100
3420
768
-2140
-3691
-3016
-892
1503
2325
2825
1374
-240
-1373
-1555
-1553
-18
696
1012
1256
655
187
238
-404
-876
-766
144
920
1183
31
-354
535
1162
-385
-2418
-2096
3238
9681
10286
2268
-7978
-12334
-6844
4243
11363
10741
6525
3082
997
-3671
-14980
-28248
32416
-25705
-12457
-4771
-10547
-21652
-25739
-16441
-118
11050
12774
7941
2900
34
-1542
-2513
-2935
-1550
-240
-1214
-2474
-1771
2803
6280
3888
-3219
-9164
-5339
5495
16641
19064
11412
-15
-6150
-3981
2345
6972
6173
2533
639
1703
2335
-82
-3432
-2556
2366
6640
3603
-4796
-12246
-11880
-3167
7316
11696
4857
-6950
-13476
-9926
490
8221
10521
13468
18823
22405
15373
1859
-5433
2843
16084
16983
1712
-16256
-19696
-8953
4278
8383
5896
2054
696
-232
-1974
-2887
-543
3108
4554
1902
-2161
-4279
-2104
3563
9072
11376
7639
-716
-11008
-18529
-18531
-8205
7775
21702
25323
16564
587
-12556
-16717
-10648
-766
4261
-60
-11132
-21361
-25399
-22005
-16495
-13693
-15246
-19895
-25306
-29276
-30443
-28608
-24961
-21534
-20200
-21294
-23746
-26064
-27215
-26999
-25859
-24549
-23641
-23616
-24228
-25031
-25624
-25788
-25496
-24908
-24336
-24105
-24373
-24690
-24578
-24316
-24209
-24330
-24345
-23859
-23232
-22925
-22454
-20652
-17131
-13419
-11536
-12340
-14242
-13212
-7127
1530
6775
7118
5052
5649
9221
11537
10558
10766
17461
28883
32231
19571
-1366
-11789
-2069
18427
27680
16462
-3876
-14726
-11078
-3456
-5913
-17275
-24530
-17459
-279
15212
18755
11541
1207
-6040
-9246
-7822
-3907
1476
5736
7126
3540
-980
-4304
-4787
-2884
103
1916
3326
2376
763
-740
-1426
-1836
-497
213
876
1105
946
-118
-57
-535
-452
-70
454
319
76
-709
-6
573
653
-418
-592
30
1163
1262
-766
-1692
605
2625
482
-6492
-11888
-10408
-909
7665
8891
2897
-3348
-3672
2548
8225
8047
737
-9021
-14638
-11883
-4095
3470
5732
1895
-5487
-12748
-16553
-13228
-1760
15264
28158
28983
17875
3681
-3149
-502
6428
8542
3495
-3890
-6820
-1854
8218
19068
24723
22719
13919
2021
-7805
-11098
-6645
3173
13675
20574
21822
18111
12174
7315
5902
8477
13796
19667
24059
25929
25426
23548
21544
20383
20447
21497
22879
23867
23989
23197
21774
20111
18510
17118
15971
15022
14155
13222
12121
10851
9491
8115
6723
5242
3594
1767
-148
-2019
-3770
-5422
-7042
-8623
-10061
-11252
-12214
-13050
-13833
-14536
-15113
-15617
-16176
-16852
-17948
-17992
-17888
-18052
-18955
-20055
-21083
-21104
-22289
-24834
-27041
-27171
-26385
-28605
32424
29629
-30923
-18164
-3543
6905
11461
13534
12912
8078
-221
-6554
-6504
-613
2921
-540
-7395
-9779
-5267
-409
-1048
-7974
-13917
-11554
-2104
8730
13754
9931
1218
-6785
-9883
-7498
-2009
2301
1995
-3988
-10773
-11607
-1278
13652
18942
6574
-14644
-24575
-14483
5485
15551
8812
-2759
-3285
6274
13574
9471
-1333
-8060
-7693
-5427
-7832
-11928
-11979
-5844
3544
12046
17278
19526
17821
13815
8663
5807
6799
11300
17456
22905
25847
25694
23115
19578
16665
15427
16036
17841
19800
21005
21027
19969
18292
16589
15378
14931
15164
15713
16171
16306
16111
15682
15088
14376
13629
12966
12448
12020
11567
11015
10357
9602
8734
7744
6667
5563
4460
3349
2229
1136
117
-836
-1787
-2807
-3940
-5209
-6631
-8204
-9885
-11602
-13289
-14910
-16459
-17937
-19329
-20609
-21740
-22707
-23565
-24416
-25312
-26194
-26938
-27477
-27837
-28076
-28191
-28148
-27974
-27779
-27639
-27507
-27256
-26841
-26364
-25954
-25599
-25115
-24298
-23106
-21703
-20327
-19112
-18025
-16946
-15820
-14705
-13723
-12934
-12291
-11679
-11006
-10233
-9360
-8388
-7313
-6139
-4887
-3588
-2246
-855
543
1835
2878
3601
4074
4442
4775
5023
5098
5006
4842
4672
4488
4260
4022
3852
3794
3818
3889
4031
4305
4727
5235
5731
6150
6481
6734
6914
7019
7061
7072
7095
7179
7361
7677
8141
8732
9389
10040
10653
11269
11952
12731
13582
14476
15429
16469
17590
18731
19844
20941
22079
23276
24475
25590
26572
27430
28189
28845
29377
29782
30090
30328
30490
30554
30530
30469
30406
30318
30146
29864
29493
29056
28537
27916
27219
26517
25845
25163
24412
23587
22717
21801
20797
19704
18627
17685
16880
16130
15427
14909
14727
14849
15064
15187
15202
15195
15205
15190
15134
15037
14808
14289
13457
12555
11903
11545
11182
10501
9497
8392
7299
6109
4754
3444
2511
2032
1717
1241
568
-106
-694
-1408
-2583
-4367
-6634
-9131
-11667
-14162
-16588
-18921
-21132
-23188
-25040
-26618
-27868
-28802
-29485
-29969
-30264
-30332
-30101
-29501
-28495
-27097
-25386
-23172
-21734
-20838
-19574
-17120
-14532
-11887
-9959
-6928
-1967
3382
6800
8064
12148
20066
27356
26084
14124
-1784
-10945
-12010
-10398
-10683
-10172
-4127
5251
9238
4617
-4661
-10010
-8300
-2907
1492
4584
4694
873
-5148
-8817
-6835
-2476
-4619
-14415
-21844
-17638
-1918
12506
16086
8569
-1699
-7433
-8668
-6507
-851
5275
7660
5502
-290
-3083
-2523
-3229
-8296
-14002
-13494
-4232
6547
11866
9741
3786
-2294
-6078
-7089
-2255
7328
14062
9555
-4204
-15638
-11225
8102
27589
-32724
22294
7489
-1897
-3394
-2281
-1900
-931
3113
5945
2863
-6189
-15086
-14989
-6721
810
-915
-11483
-22228
-25237
-20622
-14711
-12773
-14718
-17511
-19437
-21196
-23221
-23925
-21896
-17740
-14495
-13163
-15194
-19319
-23235
-24676
-23509
-20975
-21528
-25606
-28932
-26069
-17509
-10320
-11485
-17580
-20262
-14264
-2359
9467
17376
19527
13594
107
-12118
-11163
4347
19565
18150
1011
-13686
-12130
-1215
505
-13800
-30905
31809
-19384
-2111
5787
2865
-3956
-8655
-9310
-7977
-4450
-395
1359
-681
-4508
-6861
-5112
-815
4479
9354
12383
12170
8806
4761
3474
6471
11217
13551
11870
8901
8148
9867
10828
8773
5456
5300
10657
19576
27303
30051
26793
19241
10440
3887
2113
5657
12600
19420
23118
22480
18259
12555
7722
5367
5810
8158
10878
12535
12376
10526
7751
4991
2929
1761
1256
980
533
-310
-1592
-3200
-4926
-6535
-7871
-8934
-9866
-11217
-11706
-12221
-13020
-14501
-16219
-18023
-18964
-20812
-23571
-25967
-26614
-26540
-28530
32487
29702
-31339
-18830
-3831
7094
11930
12883
11894
8703
3428
-1361
-3139
-3155
-5491
-11873
-18957
-21894
-19772
-16198
-14663
-14655
-13170
-7561
-105
6876
10715
10480
6501
995
-4776
-7762
-7404
-3189
1890
5271
5183
2106
-2698
-6812
-11071
-14937
-16793
-15731
-14139
-16912
-23519
-29287
-27161
-16508
-3177
6571
10880
13155
13077
8824
822
-5591
-5839
-239
3113
-437
-7324
-9707
-5177
-330
-1036
-8054
-14052
-11685
-2217
8183
13897
11196
2195
-7014
-11523
-8102
-1075
3368
444
-7045
-11486
-9363
-1976
5826
8347
5287
-256
-2934
-1803
822
1125
-4007
-11051
-12732
-6765
4146
12696
13688
8168
1097
-2015
-1206
1954
3673
1914
-2666
-6102
-6454
-1666
5989
11412
9697
-595
-14778
-27177
-32288
-29583
-20757
-8257
4636
10468
4975
-9633
-23328
-26172
-17490
-4559
3484
6085
6833
7972
7611
2888
-5776
-14009
-17181
-13502
-4366
7022
17034
22636
22282
17008
9892
4752
4104
8239
15469
23105
28661
30811
29751
26894
24114
22883
23710
26111
29030
31399
32574
32481
31493
30171
29021
28359
28268
28627
29153
29532
29568
29297
28931
28682
28606
28600
28539
28397
28249
28167
28131
28048
27819
27433
26980
26587
26335
26219
26182
26187
26270
26505
26913
27435
27977
28475
28943
29418
29896
30313
30585
30669
30586
30385
30086
29675
29149
28557
27981
27471
27006
26527
26004
25463
24944
24448
23942
23406
22847
22294
21749
21195
20606
19971
19280
18534
17761
17006
16287
15569
14790
13951
13136
12438
11856
11308
10737
10210
9862
9739
9737
9702
9584
9470
9464
9577
9727
9843
9924
10031
10230
10582
11139
11907
12813
13744
14625
15463
16315
17221
18179
19152
20061
21147
21222
20652
20499
21644
22885
23820
23398
23467
25213
27462
27909
25996
26441
30494
-31211
30504
16888
-181
-10297
-12028
-10558
-10460
-9371
-2925
6129
11126
6495
-3359
-9922
-8835
-3510
2190
4587
3591
37
-4125
-6814
-6516
-5635
-6476
-8071
-5864
586
8063
10355
5365
-2857
-8737
-8561
-4636
701
4809
6674
6810
9562
14092
19905
22038
19304
13334
4976
-6081
-20446
-28655
-22953
-6866
5829
3203
-10559
-18052
-10365
3245
7619
2026
-3175
367
4998
1344
-7917
-11406
-5716
-1078
-4045
-8650
-2286
14312
25638
20488
5369
-2475
1949
7787
4500
-4741
-6475
2844
12531
10811
-88
-5619
1297
12225
13640
2440
-9093
-8039
2242
8276
2417
-6554
-6268
6776
19409
18686
3892
-12487
-17268
-8727
4740
11486
8407
-1079
-11131
-18187
-23169
-27029
-30486
-30350
-26750
-21440
-18330
-19326
-22634
-24957
-26297
-26411
-26458
-24813
-22542
-20692
-21418
-22914
-24576
-24677
-24143
-25101
-26510
-24964
-17824
-7213
2462
6826
4421
-3049
-9033
-6279
6841
21849
28700
23660
15986
16022
22792
25254
16555
5490
3159
10389
16355
14007
7733
9345
15551
15994
4301
-9397
-12731
-3843
3934
1006
-9105
-14564
-9433
1652
8828
8807
5351
1921
-753
-3449
-4988
-4116
-611
2808
3926
1576
-643
-685
255
230
-788
551
5412
10727
8773
-4145
-19525
-22749
-10124
7317
15070
9523
3383
8868
20563
24000
14636
2241
216
8716
14656
11672
5273
5846
11288
11336
999
-11325
-13791
-3104
9636
13498
7563
-239
-4194
-3951
-5460
-10379
-13979
-11058
-1887
8551
12851
8755
668
-5605
-7359
-5547
-2053
1736
4653
5212
3059
-509
-3295
-3950
-2577
-117
1311
2755
2175
893
-367
-990
-1646
-577
-12
586
741
1055
228
69
-474
-531
-213
515
147
-11
-214
473
868
-229
-2565
-1626
1050
3210
1794
-1539
-3204
-702
1319
106
-3057
-3236
522
3615
-3263
-17012
-26331
-20645
-2349
15711
18690
9994
2780
7313
17588
21286
10471
-4144
-8295
365
9293
8028
-3222
-11460
-8359
2255
9444
8490
2191
-3738
-5652
-4176
-997
1877
1241
-3058
-8748
-9376
-4217
3513
5469
-193
-8740
-10156
-469
12951
14573
1673
-14630
-18313
-7529
4658
6409
3176
5168
11797
9917
-6648
-25258
-25931
-9214
5689
4699
-3242
944
18732
31813
21864
-4823
-24996
-23368
-5486
11334
17482
12081
1223
-10988
-19880
-21207
-13517
-535
11233
15708
12747
5053
-2923
-7205
-6077
-563
6533
12287
14991
14569
12214
9657
8380
9040
11317
14231
16731
18172
18437
17776
16593
15318
14290
13634
13195
12641
11696
10318
8666
6926
5177
3398
1581
-208
-1875
-3366
-4697
-6300
-6857
-7299
-7942
-9206
-10672
-12267
-13096
-15146
-18387
-21106
-21792
-21841
-25139
-30684
31329
-29623
-17147
-2878
7158
11408
13401
12887
8216
30
-6261
-6217
-364
3109
-427
-7345
-9757
-5239
-382
-1053
-8012
-13940
-11510
-2006
8815
13787
9952
1276
-6727
-9914
-7578
-1887
2908
3106
-2678
-9618
-10685
-379
14742
20188
7756
-13655
-23656
-13359
7030
17595
11358
306
316
10375
18095
14356
3929
-2380
-1183
758
-2148
-6312
-5375
2536
12247
19638
24306
27990
27966
22599
15104
12569
18253
25791
25231
13536
33
-6274
-4391
-2241
-6387
-15691
-24978
-29563
-29153
-24082
-14303
-726
11198
17261
15220
7567
-648
-4912
-3529
-2060
-3586
-9818
-15421
-14504
-8019
-1142
1890
2103
2606
3185
2108
-1628
-3554
-936
4519
7743
5961
-942
-8234
-11408
-7645
2873
15932
26465
29816
25649
15628
2918
-8635
-12691
-7101
5168
16193
19071
13560
4002
-3600
-8534
-11462
-12041
-8998
-2640
3299
3732
-2612
-11251
-15895
-14513
-11082
-10146
-11230
-10063
-5510
-2703
-7543
-18122
-25242
-21950
-11776
-4263
-4642
-9095
-11807
-12568
-15463
-20997
-23541
-18633
-9678
-5075
-8350
-14182
-15679
-12662
-11010
-13477
-15977
-13377
-7269
-4385
-7784
-12615
-12452
-7318
-3883
-6915
-14158
-19227
-18486
-13341
-7503
-4187
-5386
-10982
-17361
-18447
-11450
-852
4706
949
-7929
-14403
-15525
-14199
-13341
-11524
-5457
4051
10862
9173
-1172
-14349
-23304
-24036
-16783
-4912
6765
13726
13326
6294
-3808
-12232
-15548
-12986
-6360
1082
6286
7660
5456
1268
-2892
-5451
-5753
-4121
-1585
650
1763
1652
822
-43
-499
-463
-75
470
990
1334
1430
1331
1203
1216
1486
2068
2999
4298
5928
7811
9888
12126
14481
16864
19164
21316
23342
25297
27180
28901
30332
31386
32062
32437
32620
32699
32718
32680
32582
32461
32382
32395
32485
32571
32552
32367
32004
31470
30754
29822
28655
27286
25794
24262
22760
21348
20088
19031
18183
17503
16949
16496
16122
15787
15450
15104
14785
14522
14328
14216
14197
14233
14198
13960
13483
12823
11970
10767
9055
6916
4686
2684
956
-670
-2281
-3733
-4815
-5506
-6011
-6545
-7150
-7724
-8170
-8479
-8685
-8792
-8773
-8606
-8297
-7861
-7323
-6724
-6121
-5555
-5022
-4456
-3779
-2943
-1951
-836
689
1446
1711
2357
4117
5829
7313
7742
8985
12009
15409
16895
16204
18334
24445
30240
27841
15067
-1410
-10884
-11987
-10200
-10241
-9551
-3435
5930
9846
5095
-4363
-9905
-8353
-3051
1329
4466
4659
932
-5024
-8679
-6736
-2450
-4667
-14511
-21946
-17707
-1933
12542
16153
8636
-1658
-7428
-8694
-6549
-889
5221
7880
5199
-182
-3425
-2855
-3204
-7893
-13795
-13732
-5660
5118
11451
9434
3131
-2806
-5253
-5768
-4002
74
4346
4347
-1066
-8822
-11182
-6606
-1609
-2869
-8925
-10450
-3724
5805
6916
-3136
-15176
-17050
-7980
4334
9718
5408
-6111
-16548
-22683
-22103
-16235
-9663
-8914
-13687
-22645
-29954
-30284
-24391
-17256
-14069
-18274
-24819
-25014
-14314
2135
15219
17316
10182
437
-6334
-9046
-7580
-4028
330
3496
4033
1644
-865
-2371
-2024
-527
1159
1848
1279
155
-502
79
-188
-1298
-763
1578
4334
3960
979
244
5281
10443
9250
1692
-3479
7
7600
7301
-1992
-9214
-3377
11927
22538
17695
3334
-8262
-11261
-9914
-9316
-10624
-9303
-3936
2977
8336
10717
10937
8133
3772
-1380
-4317
-3741
117
5773
11202
14671
15410
13842
11266
9179
8610
9778
12139
14746
16691
17470
17104
16008
14730
13698
13113
12961
13077
13219
13156
12758
12053
11189
10330
9573
8931
8385
7908
7457
6960
6347
5599
4759
3867
2912
1847
671
-563
-1802
-3065
-4421
-5901
-7470
-9062
-10662
-12290
-13966
-15689
-17469
-19341
-21314
-23309
-25200
-26913
-28450
-29790
-30802
-31291
-31140
-30409
-29256
-27788
-26007
-23886
-21480
-18934
-16395
-13931
-11518
-9112
-6703
-4314
-1971
317
2548
4717
6811
8831
10776
12625
14315
15780
16990
17958
18682
19129
19265
18684
18716
18404
17412
15363
12794
9885
7554
3764
-1505
-6542
-9773
-12443
-18205
-25821
-30922
-27529
-16031
-2563
6997
11225
13562
13479
9068
916
-5470
-5552
166
3477
-237
-7316
-9865
-5433
-576
-1196
-7892
-13623
-11245
-2039
8661
13455
10847
1992
-6398
-11289
-8880
-1212
4909
3435
-4838
-10441
-6190
6401
15253
11451
-493
-7721
-3188
4522
5060
-1498
-3752
5613
19423
20567
3823
-19408
-32208
-28355
-15719
-4144
1661
4362
4557
107
-8373
-15278
-13150
-2386
11271
18014
14303
2766
-9659
-16208
-13836
-3954
9259
20520
25729
23594
16254
8152
3376
3896
9091
16457
22970
26443
26295
23516
19969
17418
16767
17870
19886
21843
23060
23276
22615
21473
20388
19832
19978
20594
21220
21523
21523
21492
21637
21893
22081
22212
22560
23381
24930
25674
25545
25404
26258
27185
27979
27562
27572
28990
30648
30487
28247
28715
-32647
-28924
32358
18180
662
-9731
-11683
-10465
-10585
-9527
-3210
6331
11228
7187
-2969
-9939
-9366
-3524
2237
4573
3363
524
-3273
-6358
-8115
-7902
-6833
-5156
-1057
4829
10016
8348
-2610
-15766
-18979
-6045
12193
19475
8944
-8135
-15012
-7567
-64
-4979
-19656
-28997
-23411
-8413
3243
6247
4295
3719
3130
-1020
-9242
-18114
-24143
-26235
-25955
-23087
-19312
-15218
-13435
-14856
-18913
-23961
-28079
-29918
-29178
-26604
-23535
-21265
-20512
-21235
-22805
-24359
-25138
-24684
-22935
-20227
-17133
-14196
-11678
-9527
-7543
-5557
-3472
-1232
1133
3415
5304
6639
7581
8465
9487
10540
11436
12188
13006
14018
15110
16081
16890
17632
18701
18933
18657
18926
20554
22133
23064
22349
22111
23697
25785
25509
23224
23018
27416
-32703
29653
15865
-1259
-11202
-11742
-9163
-9976
-9977
-3352
7542
12123
4942
-5235
-6384
4561
15762
15168
3000
-9872
-15012
-13003
-10191
-7181
-4210
-1431
-1149
-2486
-3257
-358
3532
4284
233
-2493
281
7913
11854
5579
-8150
-18613
-16192
-3228
7526
4794
-5510
-12254
-8646
-1427
-628
-6037
-9763
-4705
1269
-124
-7470
-10360
-3514
5874
6055
-3513
-13197
-12250
-2882
4176
2128
-5814
-12310
-12841
-8741
-1224
6399
11658
9439
-1112
-16493
-26935
-25671
-13568
1659
11389
13226
9040
5043
2419
2244
4215
8246
12431
11293
3519
-4810
-6985
-1218
5729
6371
945
-2016
503
3750
1388
-3302
-2642
7393
18227
18316
6137
-7918
-12369
-5688
4005
8495
6235
395
-3585
-5145
-4698
-2715
753
3917
1073
-7739
-19591
-23674
-12959
8706
26793
30830
17636
-1696
-14205
-13054
-1494
11405
16963
12053
458
-10251
-14935
-11677
-3379
3540
4875
484
-5079
-6553
-3900
-305
-793
-4315
-6868
-5928
-998
4136
5339
1339
-4356
-5034
346
6900
5740
-4081
-13404
-12206
-2861
3835
372
-7756
-6937
7192
24040
25422
9754
-9653
-14261
-182
18940
23707
11358
-2403
-3499
7474
16546
15920
10275
12135
18166
17247
3930
-11623
-15204
-6848
1845
-147
-8792
-13045
-7701
1975
9294
9724
5259
-222
-3970
-3440
-446
-358
-5754
-12907
-13338
-7042
2604
8659
8769
4861
-277
-5391
-7540
-2839
6724
12280
6870
-3986
-10480
-4543
8299
13677
5443
-11518
-24089
-24906
-14923
-4150
-1218
-8459
-15650
-14665
-2979
8481
9700
2963
801
8174
15991
8483
-12609
-30139
-24647
-2382
15407
12083
-4228
-15529
-9471
4126
11839
10276
7001
7931
8578
5336
-1427
-5743
-3717
-300
-415
-3448
-5238
-4540
-3015
-1999
2784
11701
20338
19941
10308
-1475
-4657
1533
11137
15069
11360
1401
-9535
-18712
-22126
-19235
-10548
-1137
5969
7941
5319
-1155
-8936
-13296
-9961
1619
14271
20391
15264
1250
-14152
-23403
-22821
-13574
-130
11582
16829
14004
5297
-4567
-11125
-12049
-7718
-639
5942
9535
9356
6362
