-174
-392
-587
-450
-121
17
-200
-573
-825
-881
-856
-852
-854
-816
-765
-761
-816
-880
-896
-896
-979
-1220
-1551
-1794
-1800
-1619
-1480
-1554
-1761
-1871
-1781
-1644
-1675
-1879
-2043
-2000
-1815
-1685
-1707
-1785
-1782
-1664
-1509
-1392
-1308
-1220
-1141
-1114
-1149
-1198
-1177
-1058
-913
-855
-894
-916
-790
-520
-278
-227
-347
-469
-480
-455
-539
-741
-889
-818
-557
-301
-222
-300
-390
-390
-336
-326
-411
-548
-663
-712
-700
-660
-620
-588
-575
-599
-674
-782
-877
-916
-920
-964
-1074
-1155
-1097
-935
-859
-1011
-1291
-1442
-1352
-1201
-1257
-1547
-1825
-1864
-1714
-1615
-1704
-1877
-1951
-1876
-1760
-1705
-1709
-1712
-1704
-1730
-1818
-1920
-1965
-1941
-1903
-1902
-1914
-1867
-1732
-1565
-1456
-1437
-1477
-1539
-1618
-1718
-1797
-1795
-1721
-1675
-1745
-1893
-1961
-1832
-1563
-1349
-1335
-1483
-1626
-1642
-1574
-1582
-1763
-2042
-2250
-2275
-2153
-2003
-1892
-1763
-1554
-1318
-1216
-1365
-1717
-2133
-2526
-2895
-3224
-3411
-3374
-3203
-3120
-3211
-3262
-2980
-2389
-1875
-1796
-2078
-2291
-2110
-1622
-1144
-836
-599
-316
-22
174
247
261
208
-25
-522
-1182
-1771
-2153
-2396
-2658
-2981
-3230
-3247
-3037
-2750
-2523
-2345
-2116
-1825
-1605
-1602
-1813
-2102
-2365
-2638
-3014
-3446
-3747
-3765
-3543
-3251
-3016
-2853
-2737
-2636
-2496
-2263
-1985
-1859
-2020
-2346
-2494
-2244
-1737
-1297
-1046
-786
-287
419
1081
1508
1746
1938
2103
2128
1958
1675
1403
1206
1085
1027
995
929
828
841
1141
1723
2372
2825
3004
3086
3258
3499
3628
3543
3368
3269
3173
2812
2156
1699
2063
3274
4571
5098
4788
4392
4580
5163
5351
4688
3534
2630
2416
2814
3514
4251
4813
5023
4878
4620
4486
4398
4026
3189
2136
1318
916
773
713
792
1164
1735
2134
2063
1580
1037
706
567
392
-23
-663
-1286
-1543
-1191
-349
473
746
398
-103
-238
3
123
-340
-1311
-2273
-2769
-2747
-2451
-2078
-1657
-1174
-747
-599
-877
-1496
-2193
-2760
-3214
-3732
-4396
-5049
-5398
-5331
-5046
-4851
-4870
-4989
-5060
-5088
-5177
-5323
-5391
-5272
-5026
-4796
-4632
-4424
-4063
-3598
-3195
-2922
-2633
-2158
-1561
-1143
-1121
-1353
-1504
-1458
-1482
-1894
-2648
-3325
-3586
-3536
-3561
-3847
-4183
-4290
-4217
-4316
-4822
-5585
-6198
-6360
-6075
-5550
-4978
-4379
-3626
-2608
-1406
-320
363
671
976
1657
2723
3847
4798
5731
6974
8582
10195
11427
12269
13045
14004
15064
15998
16781
17636
18709
19848
20791
21545
22411
23564
24708
25281
25000
24144
23266
22658
22113
21235
19895
18358
17022
16100
15560
15285
15236
15414
15751
16066
16151
15906
15410
14817
14147
13161
11517
9162
6611
4666
3724
3314
2443
552
-1882
-3768
-4449
-4314
-4356
-5224
-6742
-8256
-9299
-9906
-10442
-11239
-12392
-13756
-15049
-16012
-16576
-16893
-17193
-17569
-17907
-18049
-18005
-17987
-18227
-18789
-19502
-20159
-20738
-21386
-22148
-22835
-23194
-23240
-23262
-23425
-23495
-23126
-22412
-21943
-22172
-22803
-23063
-22595
-21907
-21811
-22498
-23321
-23469
-22743
-21638
-20766
-20327
-20049
-19509
-18509
-17247
-16158
-15559
-15366
-15161
-14639
-13948
-13514
-13515
-13680
-13617
-13274
-12935
-12804
-12720
-12355
-11589
-10607
-9680
-8916
-8270
-7733
-7408
-7370
-7554
-7800
-7996
-8159
-8358
-8574
-8611
-8205
-7295
-6160
-5260
-4840
-4699
-4434
-3939
-3566
-3747
-4470
-5218
-5445
-5102
-4598
-4300
-4184
-3986
-3596
-3204
-3091
-3340
-3789
-4230
-4583
-4901
-5250
-5546
-5575
-5198
-4542
-3929
-3591
-3469
-3323
-3017
-2676
-2548
-2736
-3123
-3494
-3666
-3532
-3072
-2404
-1759
-1285
-903
-410
258
925
1330
1376
1164
912
831
1038
1479
1942
2269
2577
3177
4211
5412
6321
6764
7009
7398
7901
8190
8125
7974
8078
8403
8592
8434
8165
8203
8612
8971
8805
8103
7322
6900
6829
6732
6297
5557
4829
4418
4357
4415
4331
4045
3697
3425
3163
2740
2196
1871
2069
2643
3051
2901
2375
2030
2113
2280
2054
1396
723
409
424
503
542
688
1056
1519
1810
1807
1643
1502
1373
1065
480
-172
-513
-347
110
431
435
351
489
802
903
508
-215
-812
-1043
-1079
-1243
-1636
-2106
-2491
-2803
-3168
-3604
-3974
-4137
-4105
-4007
-3946
-3894
-3702
-3267
-2687
-2227
-2137
-2461
-3038
-3713
-4444
-5221
-5988
-6699
-7384
-8087
-8768
-9301
-9609
-9731
-9700
-9478
-9097
-8787
-8786
-8992
-8958
-8409
-7679
-7428
-7889
-8535
-8623
-7976
-7102
-6538
-6293
-5992
-5410
-4706
-4146
-3792
-3500
-3183
-2908
-2774
-2740
-2641
-2343
-1833
-1184
-480
238
981
1737
2416
2915
3222
3428
3614
3766
3836
3878
4061
4502
5127
5746
6260
6721
7172
7495
7517
7234
6876
6691
6709
6748
6668
6548
6578
6850
7256
7570
7619
7420
7140
6965
6950
6975
6872
6596
6255
5961
5714
5473
5321
5448
5891
6350
6397
5920
5255
4812
4601
4244
3410
2185
976
132
-249
-233
78
553
1017
1350
1571
1759
1882
1783
1391
847
338
-87
-482
-818
-923
-710
-379
-263
-483
-852
-1115
-1225
-1302
-1400
-1413
-1246
-996
-847
-827
-760
-505
-156
44
-61
-408
-794
-1075
-1244
-1345
-1361
-1262
-1114
-1078
-1246
-1460
-1419
-988
-396
-47
-92
-260
-180
173
432
247
-344
-999
-1418
-1558
-1517
-1367
-1113
-739
-229
435
1205
1939
2478
2780
2887
2776
2348
1629
942
712
1065
1678
2131
2366
2681
3308
4124
4764
4961
4753
4377
4028
3732
3410
3014
2636
2477
2669
3066
3259
2889
1957
782
-362
-1509
-2854
-4381
-5769
-6663
-6991
-6928
-6642
-6189
-5635
-5166
-4960
-4985
-5060
-5086
-5161
-5424
-5811
-6043
-5861
-5196
-4140
-2849
-1486
-167
1103
2403
3778
5121
6235
7015
7544
7987
8395
8686
8786
8732
8668
8733
8991
9404
9853
10191
10324
10235
9928
9346
8427
7197
5802
4416
3116
1906
821
-25
-500
-575
-364
-74
119
168
170
217
270
171
-186
-756
-1415
-2096
-2806
-3491
-4015
-4320
-4549
-4843
-5093
-5005
-4452
-3649
-2913
-2300
-1572
-495
989
2879
5251
8133
11268
14216
16730
18955
21168
23358
25159
26215
26559
26522
26352
25976
25190
23964
22452
20723
18592
15890
12868
10154
8184
6718
5063
2860
502
-1303
-2341
-3157
-4492
-6561
-8958
-11196
-13169
-15068
-17012
-18885
-20532
-21969
-23369
-24807
-26122
-27059
-27546
-27818
-28205
-28825
-29483
-29955
-30296
-30789
-31565
-32365
32766
-32641
-32248
-31918
-31651
-31180
-30381
-29464
-28762
-28393
-28219
-28032
-27698
-27109
-26159
-24898
-23629
-22673
-22027
-21300
-20157
-18689
-17298
-16179
-15088
-13631
-11717
-9580
-7422
-5192
-2805
-468
1390
2540
3202
3794
4490
5129
5570
5966
6606
7546
8536
9341
9993
10683
11435
12040
12314
12345
12369
12472
12513
12352
12030
11675
11301
10836
10283
9773
9407
9153
8928
8769
8794
9036
9351
9542
9532
9370
9097
8664
7964
6927
5642
4381
3515
3240
3370
3473
3272
2881
2588
2481
2368
2080
1712
1473
1356
1143
746
406
416
702
838
498
-185
-791
-1095
-1268
-1622
-2241
-2970
-3660
-4313
-5016
-5816
-6708
-7758
-9124
-10895
-12973
-15102
-17046
-18696
-20048
-21146
-22054
-22846
-23560
-24130
-24370
-24101
-23304
-22145
-20842
-19490
-18024
-16356
-14500
-12579
-10752
-9104
-7632
-6297
-5069
-3949
-2944
-2048
-1239
-470
275
1016
1839
2884
4190
5602
6843
7757
8463
9200
10009
10628
10715
10169
9239
8351
7815
7666
7737
7899
8252
9037
10305
11675
12571
12738
12505
12428
12676
12899
12730
12303
12155
12637
13548
14398
14890
15089
15174
15198
15098
14860
14511
14021
13344
12553
11831
11295
10846
10260
9436
8518
7756
7292
7069
6895
6577
6062
5478
5022
4723
4329
3528
2318
1075
171
-457
-1215
-2331
-3504
-4186
-4150
-3701
-3296
-3077
-2831
-2351
-1708
-1169
-904
-857
-842
-733
-483
-76
483
1154
1878
2647
3544
4661
5959
7240
8325
9211
10047
10892
11591
11942
11962
11914
12028
12259
12375
12248
12025
11978
12245
12725
13190
13432
13358
13005
12530
12095
11732
11329
10800
10228
9815
9658
9635
9557
9358
9086
8774
8377
7863
7293
6761
6277
5762
5129
4353
3463
2530
1657
916
268
-381
-1041
-1587
-1918
-2141
-2497
-3074
-3704
-4178
-4545
-5057
-5822
-6630
-7184
-7437
-7612
-7898
-8209
-8320
-8130
-7762
-7391
-7087
-6837
-6634
-6487
-6342
-6110
-5801
-5573
-5549
-5635
-5574
-5247
-4848
-4665
-4746
-4869
-4855
-4811
-4949
-5269
-5535
-5594
-5561
-5609
-5657
-5457
-4980
-4530
-4392
-4490
-4474
-4154
-3714
-3473
-3537
-3719
-3765
-3573
-3240
-2957
-2865
-2940
-2988
-2830
-2503
-2258
-2293
-2523
-2685
-2665
-2628
-2759
-2993
-3129
-3110
-3083
-3104
-2913
-2193
-1019
106
742
992
1366
2154
3043
3464
3236
2788
2715
3212
3978
4592
4909
5128
5515
6122
6727
7015
6840
6364
5885
5531
5149
4565
3906
3578
3856
4555
5209
5583
5874
6408
7189
7839
7976
7564
6868
6143
5420
4622
3786
3087
2705
2683
2949
3415
4023
4746
5555
6411
7218
7860
8277
8563
8910
9404
9891
10094
9910
9571
9438
9653
10039
10313
10373
10360
10479
10849
11470
12239
12925
13199
12806
11781
10434
9064
7676
6013
3896
1495
-746
-2414
-3407
-3957
-4414
-5003
-5739
-6503
-7190
-7793
-8397
-9096
-9941
-10925
-11978
-12942
-13643
-14011
-14168
-14364
-14779
-15390
-15996
-16410
-16578
-16604
-16633
-16742
-16909
-17047
-17091
-17076
-17092
-17200
-17319
-17276
-16939
-16307
-15497
-14670
-13958
-13451
-13158
-13009
-12889
-12726
-12525
-12327
-12125
-11816
-11259
-10407
-9371
-8340
-7443
-6672
-5940
-5209
-4529
-3968
-3498
-2993
-2322
-1458
-504
408
1219
1983
2763
3505
4070
4365
4463
4515
4636
4907
5442
6303
7265
7837
7694
7119
6781
7008
7362
7108
6055
4791
4056
4006
4210
4247
4080
3903
3824
3809
3799
3742
3511
2950
2107
1316
892
757
454
-353
-1436
-2178
-2194
-1762
-1559
-1943
-2577
-2829
-2503
-2086
-2208
-3004
-4071
-4960
-5581
-6093
-6571
-6921
-7076
-7076
-6928
-6535
-5889
-5210
-4782
-4669
-4677
-4635
-4619
-4809
-5201
-5612
-5899
-6025
-5924
-5454
-4624
-3759
-3260
-3170
-3128
-2822
-2390
-2266
-2669
-3368
-3972
-4313
-4450
-4444
-4279
-4014
-3831
-3862
-4013
-4065
-3936
-3801
-3912
-4341
-4917
-5398
-5650
-5718
-5745
-5821
-5923
-5948
-5839
-5625
-5391
-5199
-5067
-5006
-5034
-5149
-5306
-5445
-5542
-5615
-5687
-5756
-5803
-5818
-5807
-5803
-5846
-5966
-6146
-6349
-6570
-6843
-7191
-7578
-7933
-8204
-8413
-8620
-8857
-9106
-9316
-9430
-9450
-9462
-9571
-9765
-9896
-9847
-9693
-9630
-9715
-9759
-9539
-9105
-8757
-8713
-8849
-8862
-8645
-8393
-8336
-8452
-8523
-8429
-8297
-8337
-8619
-9032
-9434
-9770
-10024
-10138
-10034
-9723
-9357
-9153
-9260
-9670
-10267
-10920
-11532
-12044
-12386
-12455
-12159
-11437
-10273
-8701
-6861
-5016
-3436
-2233
-1294
-459
260
679
692
522
651
1381
2496
3442
3878
4029
4396
5125
5769
5749
5004
4075
3533
3423
3377
3194
3127
3551
4479
5541
6417
7126
7873
8686
9294
9345
8721
7655
6566
5755
5183
4529
3532
2310
1301
860
927
1164
1359
1638
2237
3185
4287
5366
6416
7515
8654
9742
10741
11769
13035
14696
16763
19106
21541
24275
26118
27307
28583
30503
31839
32516
31819
31557
32541
-32163
32043
28601
28135
31729
-30394
30774
16686
-506
-10392
-11800
-10157
-10065
-9035
-2605
6464
11443
6768
-3367
-9749
-9194
-3264
2530
4922
3227
-1116
-4887
-6329
-5495
-5779
-8206
-9708
-6183
-20
4877
6518
7082
7765
3840
-5984
-18828
-22843
-12989
3605
12931
9696
-4382
-19268
-28351
-29659
-25809
-20587
-18367
-19960
-19779
-12323
-199
11746
15289
10825
3345
-2434
-5891
-6618
-5707
-3004
321
2557
2249
1292
83
-390
-400
-57
-56
-573
-1028
-594
764
1699
1173
564
51
307
-347
-2101
-2815
490
4834
5552
-711
-9713
-12619
-3358
12628
25114
24955
11673
-7957
-24243
-32041
-28365
-14952
3358
19015
25620
18918
2900
-14494
-24602
-22802
-10836
6073
19889
26585
24637
16245
5978
-1296
-2818
1213
8270
14981
18721
18556
15263
10631
6540
4238
4015
5296
7040
8273
8469
7592
5899
3748
1578
-111
-948
-979
-694
-645
-966
-1315
-1293
-888
-478
-427
-760
-1216
-1548
-1713
-1804
-1885
-1939
-1913
-1794
-1607
-1380
-1116
-800
-438
-78
193
324
349
361
422
511
556
525
461
419
398
356
284
245
313
490
702
896
1110
1431
1891
2425
2948
3435
3914
4378
4766
5032
5265
5648
6318
7261
8357
9507
10724
12088
13590
15067
16291
17122
17603
17896
18115
18231
18132
17790
17350
17026
16896
16835
16645
16252
15759
15309
14930
14529
14015
13405
12811
12349
12076
11984
12005
12017
11919
11743
11680
11917
12401
12831
12922
12673
12342
12182
12215
12297
12347
12427
12644
13013
13469
13937
14339
14585
14606
14426
14144
13817
13422
12918
12370
11939
11751
11770
11844
11823
11630
11255
10743
10175
9625
9102
8566
8028
7634
7576
7924
8554
9276
9998
10748
11536
12267
12813
13157
13392
13618
13828
13941
13910
13776
13649
13655
13871
14265
14676
14891
14799
14461
14013
13523
12938
12176
11236
10193
9099
7987
6929
6029
5285
4501
3421
1983
421
-936
-1962
-2834
-3808
-4938
-6015
-6806
-7292
-7654
-8075
-8569
-9016
-9356
-9680
-10135
-10747
-11381
-11886
-12265
-12649
-13134
-13665
-14090
-14308
-14307
-14085
-13617
-12935
-12168
-11499
-11008
-10634
-10275
-9951
-9786
-9858
-10086
-10281
-10292
-10068
-9623
-8990
-8237
-7460
-6699
-5858
-4769
-3412
-2040
-1014
-466
-160
270
933
1601
2013
2193
2428
2956
3760
4656
5500
6248
6877
7320
7509
7471
7277
6927
6318
5352
4074
2707
1480
453
-517
-1593
-2750
-3777
-4494
-4960
-5382
-5873
-6343
-6631
-6702
-6682
-6730
-6908
-7171
-7444
-7652
-7729
-7640
-7423
-7178
-6984
-6819
-6558
-6085
-5430
-4786
-4364
-4196
-4068
-3712
-3063
-2304
-1619
-951
-54
1198
2639
3952
4992
5870
6740
7570
8200
8559
8789
9115
9628
10257
10895
11536
12225
12942
13583
14066
14403
14655
14813
14771
14435
13819
13025
12114
11042
9722
8160
6509
4997
3782
2856
2081
1295
412
-557
-1553
-2550
-3632
-4935
-6495
-8148
-9614
-10707
-11472
-12103
-12737
-13392
-14072
-14884
-15937
-17179
-18443
-19643
-20820
-21951
-22787
-22975
-22423
-21456
-20543
-19902
-19424
-18916
-18369
-17967
-17892
-18162
-18581
-18811
-18563
-17791
-16701
-15490
-14102
-12302
-10053
-7727
-5807
-4402
-3179
-1797
-362
678
1068
1063
1174
1656
2297
2694
2661
2351
2061
1976
2057
2132
2071
1913
1828
1962
2273
2591
2803
2930
3026
3060
2977
2828
2759
2822
2863
2712
2447
2348
2566
2894
2950
2570
1973
1528
1410
1521
1663
1714
1668
1566
1460
1397
1400
1455
1520
1563
1576
1574
1572
1589
1623
1611
1419
958
323
-211
-400
-240
53
279
434
635
887
991
756
232
-301
-600
-650
-585
-455
-156
381
1034
1574
1881
1989
1888
1422
516
-504
-1043
-802
-166
90
-440
-1432
-2243
-2643
-3055
-4077
-5868
-7977
-9709
-10579
-10485
-9648
-8511
-7576
-7115
-6978
-6765
-6280
-5766
-5616
-5870
-6125
-6028
-5697
-5470
-5297
-4654
-3239
-1570
-587
-632
-1063
-1051
-573
-372
-984
-2123
-3162
-3928
-4701
-5506
-5819
-5204
-3993
-3019
-2690
-2578
-2065
-1178
-573
-763
-1568
-2390
-2873
-3168
-3586
-4158
-4650
-4938
-5225
-5846
-6923
-8274
-9583
-10623
-11339
-11796
-12088
-12256
-12294
-12216
-12158
-12329
-12801
-13330
-13478
-13010
-12134
-11272
-10588
-9821
-8625
-7013
-5401
-4260
-3726
-3557
-3381
-2960
-2286
-1512
-775
-69
717
1663
2685
3575
4203
4629
5006
5382
5660
5748
5670
5541
5447
5375
5249
5006
4624
4125
3589
3130
2855
2794
2858
2883
2739
2385
1857
1203
484
-204
-759
-1155
-1505
-1949
-2434
-2674
-2369
-1489
-312
831
1841
2867
4076
5467
6885
8157
9208
10068
10821
11554
12338
13216
14182
15163
16058
16800
17407
17988
18639
19370
20083
20635
20929
20957
20786
20541
20374
20381
20545
20760
20917
20964
20914
20799
20605
20260
19634
18588
17091
15298
13467
11755
10118
8398
6522
4583
2730
1043
-498
-1957
-3382
-4803
-6196
-7436
-8366
-8917
-9177
-9295
-9326
-9228
-8980
-8632
-8230
-7742
-7122
-6403
-5699
-5055
-4391
-3624
-2821
-2155
-1735
-1477
-1190
-750
-170
490
1210
2008
2882
3834
4891
6099
7425
8724
9833
10709
11471
12287
13212
14147
14950
15556
16002
16368
16725
17103
17463
17686
17652
17338
16883
16494
16272
16151
16001
15750
15386
14893
14282
13653
13147
12751
12209
11251
9917
8575
7561
6864
6192
5323
4331
3431
2728
2164
1655
1161
638
1
-790
-1646
-2427
-3091
-3719
-4382
-5022
-5536
-5898
-6190
-6495
-6801
-7017
-7088
-7062
-7054
-7165
-7398
-7663
-7857
-7989
-8169
-8508
-8982
-9445
-9752
-9883
-9909
-9901
-9873
-9810
-9695
-9539
-9378
-9262
-9243
-9346
-9526
-9697
-9785
-9766
-9663
-9514
-9363
-9218
-9059
-8864
-8627
-8361
-8090
-7856
-7747
-7867
-8249
-8785
-9286
-9644
-9917
-10236
-10607
-10854
-10782
-10375
-9805
-9278
-8879
-8570
-8312
-8134
-8059
-8026
-7917
-7663
-7290
-6850
-6300
-5534
-4552
-3510
-2550
-1601
-460
897
2193
3106
3664
4242
5108
6097
6804
7071
7151
7387
7817
8171
8204
7934
7531
7108
6642
6084
5432
4745
4074
3449
2878
2315
1692
999
343
-159
-523
-888
-1351
-1818
-2099
-2136
-2079
-2109
-2253
-2458
-2763
-3295
-4053
-4742
-4982
-4706
-4258
-4025
-4023
-3943
-3570
-3113
-3044
-3585
-4475
-5217
-5523
-5507
-5483
-5634
-5868
-5971
-5841
-5604
-5490
-5616
-5894
-6124
-6199
-6154
-6075
-5983
-5838
-5627
-5410
-5277
-5278
-5425
-5705
-6064
-6420
-6698
-6870
-6958
-7004
-7053
-7153
-7378
-7772
-8308
-8922
-9561
-10139
-10491
-10424
-9933
-9298
-8864
-8722
-8626
-8311
-7865
-7695
-8097
-8942
-9807
-10416
-10836
-11274
-11736
-11991
-11866
-11485
-11206
-11276
-11626
-11993
-12214
-12396
-12762
-13367
-14005
-14373
-14317
-13912
-13356
-12819
-12361
-11967
-11593
-11234
-10976
-10974
-11345
-12031
-12770
-13240
-13250
-12779
-11896
-10665
-9135
-7381
-5479
-3479
-1441
470
1990
2932
3357
3546
3740
3924
3924
3676
3353
3195
3290
3567
3966
4503
5179
5895
6525
7012
7399
7709
7878
7846
7641
7355
7036
6673
6285
6009
6039
6464
7121
7640
7679
7187
6460
5875
5541
5186
4451
3292
2070
1227
919
908
808
410
-232
-944
-1609
-2220
-2833
-3489
-4176
-4827
-5347
-5685
-5875
-5997
-6114
-6232
-6303
-6299
-6301
-6438
-6722
-6973
-6942
-6573
-6091
-5775
-5623
-5318
-4557
-3418
-2335
-1701
-1497
-1373
-1045
-594
-323
-410
-742
-1094
-1354
-1550
-1713
-1812
-1879
-2082
-2588
-3338
-4053
-4527
-4860
-5366
-6192
-7105
-7684
-7709
-7387
-7176
-7377
-7893
-8379
-8601
-8660
-8866
-9417
-10204
-10913
-11297
-11346
-11247
-11177
-11158
-11061
-10793
-10433
-10218
-10365
-10906
-11693
-12555
-13410
-14213
-14868
-15205
-15079
-14488
-13564
-12512
-11484
-10548
-9741
-9135
-8875
-9054
-9523
-9894
-9813
-9276
-8575
-7933
-7251
-6258
-4853
-3200
-1508
119
1589
2728
3443
3941
4598
5473
6134
6115
5547
5129
5418
6242
6902
6946
6593
6377
6509
6646
6302
5326
3988
2645
1377
5
-1612
-3353
-4903
-6025
-6733
-7209
-7585
-7847
-7939
-7858
-7635
-7278
-6843
-6523
-6558
-6990
-7581
-8068
-8449
-8958
-9703
-10430
-10744
-10558
-10185
-9980
-9961
-9874
-9574
-9219
-9019
-8927
-8719
-8402
-8402
-9169
-10650
-12281
-13554
-14610
-15744
-17349
-19701
-21247
-20861
-19181
-18763
-19236
-19532
-17304
-13453
-10706
-9597
-4800
5512
17800
22580
16349
6747
5064
13270
21308
18827
6836
-4280
-6800
-3289
-1297
-3256
-4961
-2762
1010
1304
-2661
-5837
-2842
6690
17855
24831
24921
17691
5737
-6250
-12250
-10832
-4063
1576
1675
-2897
-4577
-2123
3062
4562
-489
-8456
-14463
-16197
-14453
-7842
2423
12094
13116
1953
-14474
-21794
-13689
1091
7960
4643
2626
11063
22140
21339
4221
-14099
-16704
-3822
9212
11079
8169
10103
16586
17681
9760
1668
3771
11409
12898
3144
-8626
-9912
-1313
5594
1889
-7833
-13432
-7646
5262
15382
14992
4286
-10786
-21793
-23716
-17247
-8013
-1022
1281
-823
-7825
-15977
-19523
-13742
23
13167
16976
7363
-9492
-24241
-29749
-23971
-9835
6449
18068
20478
13730
1940
-8942
-14358
-12903
-6341
1678
7481
8917
6003
532
-5003
-8559
-9261
-7512
-4575
-1867
-335
-154
-864
-1769
-2321
-2295
-1740
-870
24
671
918
788
440
50
-280
-525
-696
-824
-951
-1085
-1209
-1313
-1440
-1680
-2085
-2611
-3141
-3564
-3814
-3848
-3658
-3321
-3017
-2905
-2969
-3004
-2830
-2508
-2296
-2372
-2638
-2808
-2711
-2455
-2276
-2302
-2462
-2635
-2784
-2966
-3209
-3461
-3658
-3833
-4094
-4486
-4868
-5017
-4916
-4891
-5297
-6032
-6491
-6163
-5296
-4760
-5159
-6129
-6716
-6453
-5902
-5989
-6948
-8095
-8613
-8389
-7957
-7750
-7655
-7309
-6638
-5953
-5559
-5401
-5190
-4777
-4283
-3896
-3626
-3304
-2765
-1991
-1116
-349
166
508
990
1898
3131
4164
4508
4261
4058
4383
5001
5195
4593
3604
3004
3192
3922
4702
5269
5696
6170
6796
7584
8476
9369
10176
10863
11460
12019
12611
13350
14342
15535
16659
17411
17741
17884
18138
18577
19025
19279
19334
19417
19760
20329
20775
20701
20000
18958
17967
17144
16286
15176
13902
12783
12042
11613
11299
11012
10775
10536
10090
9219
7913
6371
4825
3358
1895
361
-1195
-2626
-3816
-4810
-5781
-6898
-8201
-9546
-10675
-11392
-11753
-12089
-12743
-13715
-14607
-15035
-15083
-15271
-15941
-16795
-17159
-16680
-15678
-14764
-14175
-13606
-12632
-11210
-9691
-8462
-7601
-6880
-6030
-4954
-3743
-2533
-1376
-242
918
2145
3473
4907
6317
7416
7948
7974
7890
8063
8431
8568
8146
7297
6472
5980
5778
5627
5365
4962
4428
3756
2988
2177
1273
106
-1458
-3364
-5396
-7376
-9308
-11276
-13278
-15191
-16854
-18159
-19050
-19510
-19602
-19454
-19151
-18622
-17743
-16587
-15444
-14576
-13970
-13420
-12836
-12338
-11991
-11552
-10662
-9319
-7970
-7050
-6482
-5786
-4669
-3411
-2560
-2339
-2460
-2470
-2182
-1737
-1339
-1055
-861
-772
-837
-1072
-1447
-1963
-2693
-3712
-4999
-6429
-7860
-9238
-10635
-12167
-13834
-15485
-16972
-18282
-19497
-20597
-21411
-21799
-21903
-22098
-22659
-23513
-24372
-25097
-25851
-26857
-28067
-29145
-29771
-29913
-29763
-29460
-28955
-28142
-27057
-25870
-24723
-23597
-22380
-21036
-19652
-18322
-17006
-15594
-14041
-12421
-10805
-9142
-7329
-5405
-3570
-1953
-438
1186
2887
4368
5388
6094
6915
8128
9590
10934
11967
12815
13730
14820
15953
16853
17284
17231
16949
16761
16729
16577
16018
15194
14653
14822
15543
16232
16540
16696
17170
18064
18930
19246
18954
18468
18189
18106
17908
17430
16900
16705
16946
17329
17507
17472
17491
17698
17817
17376
16183
14570
13182
12493
12513
12877
13195
13355
13559
14086
14957
15839
16292
16135
15582
14972
14426
13797
12954
12021
11272
10840
10608
10407
10216
10123
10138
10117
9851
9183
8029
6440
4714
3364
2763
2764
2813
2544
2231
2476
3473
4667
5258
4972
4195
3433
2802
2128
1375
781
543
528
427
121
-210
-379
-426
-537
-781
-1013
-1042
-815
-450
-134
-27
-214
-684
-1306
-1914
-2437
-2940
-3483
-3995
-4346
-4563
-4875
-5521
-6520
-7692
-8889
-10113
-11404
-12738
-14030
-15243
-16402
-17504
-18501
-19387
-20256
-21226
-22303
-23357
-24251
-24915
-25301
-25357
-25051
-24455
-23748
-23118
-22673
-22402
-22192
-21929
-21590
-21278
-21133
-21174
-21222
-21024
-20449
-19585
-18617
-17660
-16720
-15749
-14711
-13608
-12461
-11345
-10364
-9559
-8842
-8054
-7109
-6078
-5117
-4305
-3603
-2918
-2180
-1384
-543
304
1074
1643
1930
2008
2107
2461
3132
4001
4938
5996
7361
9122
11091
12936
14499
15917
17392
18893
20141
20892
21179
21243
21255
21166
20832
20211
19400
18523
17635
16742
15879
15160
14715
14589
14699
14876
14987
15025
15058
15087
14958
14445
13437
12043
10510
9049
7709
6385
4938
3339
1707
214
-1032
-2018
-2769
-3316
-3731
-4136
-4632
-5198
-5735
-6217
-6742
-7367
-7943
-8205
-8007
-7445
-6697
-5798
-4637
-3180
-1596
-155
962
1752
2338
2865
3429
4030
4575
4983
5289
5632
6079
6519
6781
6857
6951
7267
7790
8341
8798
9209
9665
10125
10401
10307
9800
8995
8098
7330
6864
6745
6842
6953
6960
6901
6890
6951
6962
6772
6333
5749
5201
4824
4619
4476
4275
3978
3648
3349
3052
2648
2067
1354
608
-132
-914
-1778
-2673
-3507
-4268
-5044
-5889
-6716
-7368
-7787
-8074
-8366
-8671
-8878
-8934
-8940
-9022
-9178
-9279
-9265
-9253
-9408
-9722
-9994
-10047
-9928
-9847
-9929
-10063
-10031
-9742
-9336
-9029
-8906
-8868
-8788
-8642
-8497
-8411
-8359
-8307
-8263
-8259
-8280
-8253
-8134
-7974
-7874
-7866
-7880
-7824
-7671
-7479
-7312
-7184
-7061
-6914
-6757
-6623
-6514
-6401
-6260
-6101
-5966
-5846
-5666
-5342
-4905
-4490
-4187
-3921
-3543
-3023
-2546
-2321
-2342
-2380
-2230
-1923
-1667
-1604
-1666
-1671
-1495
-1142
-690
-239
101
265
328
455
729
1033
1185
1176
1196
1393
1711
1994
2215
2497
2868
3174
3249
3133
3021
3011
3012
2897
2672
2414
2180
2012
2007
2241
2598
2796
2681
2414
2291
2346
2289
1816
937
-77
-986
-1766
-2460
-3019
-3342
-3412
-3323
-3179
-3021
-2859
-2761
-2855
-3239
-3886
-4674
-5476
-6199
-6737
-6889
-6418
-5260
-3683
-2119
-832
266
1390
2511
3267
3294
2581
1460
320
-592
-1159
-1329
-1167
-866
-615
-381
19
633
1225
1473
1271
806
333
-33
-293
-474
-620
-823
-1156
-1600
-2072
-2521
-2967
-3436
-3905
-4343
-4781
-5253
-5710
-6054
-6283
-6528
-6934
-7517
-8166
-8751
-9216
-9545
-9725
-9786
-9825
-9937
-10128
-10348
-10586
-10893
-11310
-11783
-12203
-12504
-12684
-12745
-12673
-12475
-12227
-12036
-11949
-11912
-11839
-11682
-11443
-11151
-10862
-10617
-10396
-10124
-9733
-9250
-8810
-8563
-8553
-8685
-8812
-8845
-8796
-8735
-8711
-8698
-8598
-8332
-7913
-7443
-7029
-6696
-6385
-6026
-5586
-5062
-4462
-3820
-3213
-2715
-2315
-1902
-1373
-770
-271
-51
-130
-364
-540
-491
-169
371
999
1567
1951
2092
2029
1875
1731
1581
1283
706
-92
-840
-1253
-1282
-1158
-1187
-1495
-1972
-2441
-2834
-3214
-3679
-4247
-4862
-5451
-5964
-6379
-6671
-6822
-6847
-6838
-6927
-7187
-7555
-7880
-8045
-8072
-8065
-8106
-8184
-8245
-8267
-8279
-8316
-8390
-8513
-8738
-9134
-9678
-10179
-10361
-10097
-9585
-9229
-9277
-9578
-9741
-9566
-9274
-9294
-9802
-10539
-11060
-11107
-10747
-10223
-9713
-9241
-8726
-8090
-7345
-6621
-6081
-5785
-5631
-5444
-5133
-4733
-4316
-3885
-3390
-2825
-2275
-1855
-1603
-1482
-1446
-1482
-1617
-1886
-2288
-2751
-3168
-3473
-3714
-3979
-4238
-4309
-4023
-3490
-3114
-3261
-3888
-4578
-4959
-5053
-5198
-5634
-6256
-6764
-6972
-6918
-6729
-6476
-6199
-5969
-5860
-5838
-5797
-5693
-5643
-5807
-6151
-6400
-6275
-5751
-5049
-4406
-3885
-3432
-3054
-2858
-2879
-2947
-2805
-2388
-1929
-1720
-1790
-1873
-1708
-1338
-1052
-1090
-1414
-1756
-1834
-1554
-1039
-462
130
873
1863
2934
3688
3865
3646
3455
3419
3134
2107
380
-1451
-2875
-3942
-5017
-6138
-6873
-6823
-6107
-5214
-4430
-3635
-2695
-1885
-1778
-2715
-4481
-6512
-8352
-9870
-11172
-12373
-13474
-14370
-14932
-15148
-15170
-15257
-15583
-16113
-16671
-17101
-17360
-17459
-17362
-17031
-16553
-16149
-16027
-16213
-16577
-16966
-17331
-17688
-18034
-18350
-18646
-18959
-19644
-19251
-18718
-18632
-19717
-21455
-22742
-24035
-24725
-25988
-27153
-27839
-28497
-30105
-32578
31831
-30192
-20271
-5759
8196
16497
14745
5546
-5332
-10505
-6852
2973
12851
19601
20106
13205
-104
-13668
-18629
-9069
7460
16559
11765
-1533
-8778
-3665
7426
14329
10713
2566
-4332
-3810
1193
3320
48
-5647
-5509
878
6595
1800
-10938
-19794
-16843
-5048
3525
3737
-796
-4647
-6649
-5963
-1761
6487
12474
9467
-164
-5183
-1754
2488
-3157
-17467
-25438
-16138
4799
22353
26517
21671
14985
11760
10997
11764
15065
19090
22700
23436
23132
23012
25285
28624
31783
-31804
-31614
32432
30023
27863
26821
26946
27619
28149
28187
27656
26574
25094
23620
22618
22198
21987
21501
20562
19291
17820
16151
14338
12636
11319
10359
9471
8435
7317
6306
5401
4419
3282
2167
1281
584
-170
-1121
-2161
-3135
-4068
-5104
-6204
-7078
-7475
-7469
-7372
-7397
-7469
-7406
-7209
-7082
-7200
-7520
-7866
-8127
-8312
-8452
-8507
-8414
-8196
-7955
-7755
-7563
-7306
-6986
-6712
-6579
-6571
-6586
-6568
-6565
-6659
-6844
-7010
-7063
-7034
-7039
-7122
-7187
-7104
-6866
-6590
-6372
-6193
-5973
-5721
-5559
-5597
-5797
-6006
-6124
-6221
-6464
-6924
-7483
-7943
-8206
-8321
-8365
-8294
-7977
-7351
-6501
-5584
-4702
-3868
-3104
-2497
-2171
-2172
-2453
-2939
-3596
-4411
-5309
-6102
-6563
-6604
-6388
-6234
-6370
-6752
-7135
-7340
-7441
-7687
-8228
-8950
-9556
-9790
-9592
-9085
-8455
-7828
-7216
-6524
-5674
-4730
-3889
-3340
-3085
-2935
-2702
-2352
-1988
-1695
-1443
-1114
-648
-113
393
880
1488
2329
3329
4290
5106
5871
6748
7742
8700
9520
10251
10973
11619
12027
12167
12199
12275
12328
12159
11726
11239
10955
10908
10897
10721
10366
9954
9571
9181
8702
8132
7575
7125
6772
6402
5901
5273
4634
4072
3529
2847
1895
672
-694
-2037
-3259
-4368
-5423
-6466
-7517
-8631
-9893
-11255
-12435
-13111
-13286
-13394
-13881
-14688
-15268
-15208
-14736
-14496
-14828
-15429
-15744
-15587
-15253
-15069
-15031
-14897
-14529
-13998
-13413
-12755
-11939
-10945
-9839
-8646
-7295
-5717
-3946
-2088
-216
1653
3500
5232
6732
7960
8988
9905
10736
11438
11959
12289
12431
12380
12166
11902
11714
11629
11559
11394
11108
10750
10343
9834
9122
8113
6754
5074
3221
1396
-283
-1869
-3499
-5199
-7215
-8051
-8666
-9569
-11287
-13273
-15211
-16131
-18195
-21606
-24637
-25489
-25275
-27857
-32505
30245
-30317
-17506
-2986
6751
12115
14304
13960
7850
-1779
-7653
-4679
2551
4497
-2113
-8367
-7292
-469
2289
-179
-1609
3448
8091
3178
-8071
-9991
4248
21712
23540
5989
-11444
-12502
1297
13166
14177
8647
2427
-2964
-8782
-11081
-7703
-1687
-3297
-11767
-17507
-11967
-847
2516
-2859
-6793
-2560
3724
543
-11153
-18157
-11100
1381
5091
-5330
-17108
-19000
-7762
5559
11065
6932
-1372
-8768
-11428
-7808
-1497
3607
4071
564
-491
4000
11161
13113
7855
-2807
-10278
-10442
-5329
584
4016
6671
6562
4178
270
-2203
-2168
900
2252
1933
1285
1091
-116
-4274
-7387
-5090
3809
13227
15097
6363
-6103
-15013
-16296
-11203
-3372
2117
2756
-2681
-9001
-8048
4157
21367
-31699
-31646
23959
12179
5009
4288
7557
13360
18354
20347
18291
13516
8019
5371
5421
7278
9511
10931
11015
9940
8390
7193
6867
7311
7897
7942
7179
5843
4387
3196
2488
2349
2707
3332
3940
4377
4677
4934
5109
5029
4523
3622
2565
1645
1018
627
336
89
-65
-98
-108
-260
-664
-1363
-2435
-3986
-5948
-7935
-9436
-10243
-10646
-11130
-11895
-12721
-13324
-13749
-14369
-15518
-17214
-19204
-21242
-23264
-25277
-27130
-28576
-29487
-30037
-30490
-30872
-30948
-30580
-29998
-29574
-29356
-28925
-27859
-26217
-24416
-22696
-20850
-18553
-15846
-13140
-10778
-8725
-6746
-4750
-2914
-1462
-428
343
1014
1609
2045
2275
2372
2457
2587
2783
3117
3690
4483
5233
5656
5812
6130
6968
8175
9228
9835
10329
11314
12993
14959
16651
17860
18779
19582
20149
20207
19698
18901
18216
17834
17673
17567
17474
17476
17605
17765
17813
17699
17462
17148
16753
16317
15989
15947
16229
16674
17089
17410
17722
18134
18652
19184
19599
19790
19727
19506
19322
19349
19624
20000
20267
20332
20279
20237
20224
20123
19811
19295
18704
18146
17600
16973
16232
15464
14789
14225
13634
12841
11780
10559
9351
8221
7095
5872
4566
3315
2229
1294
412
-464
-1297
-2042
-2689
-3259
-3762
-4191
-4531
-4781
-4967
-5191
-5602
-6239
-6893
-7214
-7027
-6516
-6024
-5687
-5322
-4692
-3824
-2982
-2401
-2100
-1965
-1857
-1628
-1099
-160
1100
2431
3649
4763
5861
6899
7687
8059
7999
7597
6973
6286
5752
5521
5531
5592
5630
5812
6339
7150
7926
8429
8743
9107
9571
9899
9848
9464
9019
8702
8456
8126
7696
7272
6882
6391
5680
4858
4189
3809
3554
3119
2366
1446
607
-60
-681
-1439
-2384
-3417
-4378
-5135
-5635
-5937
-6171
-6451
-6786
-7070
-7204
-7230
-7338
-7670
-8188
-8705
-9072
-9299
-9515
-9817
-10156
-10407
-10516
-10562
-10659
-10803
-10856
-10690
-10302
-9800
-9271
-8712
-8114
-7544
-7136
-6961
-6969
-7052
-7144
-7233
-7309
-7317
-7189
-6929
-6583
-6167
-5667
-5114
-4606
-4232
-3996
-3827
-3685
-3618
-3698
-3910
-4115
-4213
-4229
-4261
-4355
-4459
-4513
-4523
-4515
-4480
-4381
-4230
-4129
-4156
-4269
-4346
-4343
-4376
-4568
-4884
-5125
-5135
-4946
-4732
-4598
-4513
-4406
-4281
-4229
-4324
-4538
-4775
-4968
-5135
-5340
-5593
-5794
-5836
-5729
-5621
-5650
-5767
-5749
-5443
-4962
-4588
-4449
-4355
-4033
-3457
-2904
-2645
-2633
-2591
-2345
-2004
-1756
-1602
-1360
-921
-376
141
622
1141
1641
1938
1914
1658
1349
1054
734
438
358
638
1195
1800
2310
2781
3310
3835
4171
4199
3979
3685
3461
3339
3261
3169
3074
3052
3158
3321
3384
3253
2972
2668
2399
2113
1780
1484
1345
1394
1539
1683
1817
1955
2029
1911
1561
1104
737
515
295
-136
-821
-1554
-2071
-2311
-2448
-2700
-3107
-3535
-3860
-4074
-4217
-4291
-4271
-4224
-4295
-4558
-4905
-5123
-5136
-5139
-5437
-6205
-7305
-8352
-9035
-9383
-9743
-10431
-11373
-12119
-12268
-11859
-11296
-10901
-10610
-10138
-9367
-8535
-7985
-7839
-7958
-8171
-8439
-8826
-9372
-10019
-10658
-11205
-11623
-11921
-12113
-12196
-12148
-11968
-11702
-11419
-11123
-10759
-10295
-9792
-9373
-9081
-8818
-8462
-8011
-7562
-7144
-6687
-6160
-5677
-5406
-5354
-5328
-5148
-4833
-4549
-4399
-4309
-4152
-3879
-3494
-3001
-2447
-1988
-1796
-1854
-1924
-1773
-1428
-1130
-1042
-1067
-995
-748
-435
-161
74
317
556
746
913
1125
1370
1512
1446
1253
1103
1054
975
719
324
-4
-105
-18
88
103
41
-41
-99
-109
-64
-16
-79
-294
-532
-586
-419
-243
-311
-639
-990
-1163
-1234
-1438
-1886
-2422
-2787
-2887
-2844
-2834
-2909
-2987
-2978
-2860
-2687
-2539
-2478
-2511
-2575
-2599
-2607
-2681
-2832
-2892
-2635
-2050
-1433
-1123
-1159
-1228
-1044
-696
-576
-938
-1609
-2165
-2357
-2333
-2410
-2718
-3098
-3322
-3354
-3364
-3512
-3796
-4092
-4305
-4449
-4563
-4627
-4590
-4446
-4279
-4181
-4161
-4173
-4195
-4249
-4360
-4515
-4673
-4836
-5037
-5291
-5567
-5821
-6024
-6174
-6268
-6297
-6254
-6160
-6073
-6091
-6308
-6720
-7202
-7584
-7791
-7884
-7947
-7963
-7836
-7525
-7136
-6871
-6864
-7077
-7384
-7699
-8004
-8313
-8591
-8752
-8722
-8473
-8035
-7532
-7158
-7079
-7327
-7791
-8369
-9076
-9958
-10878
-11467
-11403
-10715
-9747
-8788
-7784
-6540
-5108
-3898
-3305
-3326
-3668
-4173
-4995
-6272
-7712
-8704
-8922
-8706
-8708
-9146
-9569
-9380
-8571
-7813
-7825
-8688
-9845
-10680
-11040
-11200
-11473
-11909
-12331
-12523
-12351
-11793
-10929
-9917
-8919
-7981
-7074
-6218
-5516
-5068
-4885
-4917
-5132
-5492
-5861
-6073
-6086
-6017
-5926
-5613
-4818
-3635
-2619
-2308
-2686
-3253
-3629
-3959
-4651
-5807
-7064
-7987
-8496
-8843
-9261
-9727
-10061
-10129
-9954
-9673
-9443
-9333
-9272
-9104
-8765
-8452
-8518
-9193
-10388
-11752
-12975
-14038
-15171
-16599
-18262
-19826
-20939
-21501
-21665
-21637
-21504
-21260
-20906
-20412
-19615
-18317
-16539
-14612
-12852
-11194
-9270
-6949
-4657
-3012
-2131
-1458
-368
1187
2759
4046
5295
6991
9280
11815
14179
16274
18234
20092
21669
22802
23559
24152
24697
25464
25224
24300
23710
24297
24924
25385
24785
24873
26539
28437
28065
26951
28121
32435
-30284
30423
17624
1704
-9279
-13028
-12180
-10130
-7502
-3278
2767
9139
13451
13445
7616
-923
-8328
-9367
-5057
882
1565
-4489
-16045
-24259
-22676
-8525
11545
25468
23040
8569
-4104
-4129
4977
10277
3023
-10070
-15967
-10914
-3872
-5264
-11371
-10520
3745
22066
27549
13214
-10765
-27605
-29022
-19412
-8602
-1821
-807
-3024
-7942
-12567
-15071
-12750
-7870
-2936
-1750
-3894
-7772
-11230
-12790
-12235
-10375
-8402
-7288
-7448
-8686
-10297
-11428
-11529
-10657
-9356
-8213
-7514
-7220
-7177
-7279
-7445
-7539
-7450
-7248
-7190
-7489
-8053
-8529
-8631
-8361
-7897
-7307
-6471
-5314
-4038
-3019
-2459
-2210
-2002
-1757
-1600
-1627
-1749
-1819
-1811
-1823
-1885
-1903
-1787
-1615
-1562
-1702
-1946
-2168
-2336
-2514
-2735
-2957
-3139
-3312
-3548
-3851
-4140
-4353
-4527
-4763
-5096
-5446
-5708
-5922
-6281
-6940
-7864
-8870
-9812
-10681
-11539
-12428
-13326
-14172
-14851
-15241
-15341
-15363
-15590
-16107
-16715
-17167
-17445
-17776
-18337
-19042
-19634
-19936
-19967
-19829
-19582
-19240
-18772
-18098
-17143
-15961
-14767
-13756
-12877
-11893
-10661
-9324
-8164
-7318
-6692
-6132
-5543
-4891
-4159
-3447
-2988
-2961
-3219
-3372
-3198
-2912
-2939
-3388
-3919
-4160
-4135
-4172
-4427
-4645
-4491
-4003
-3611
-3664
-4070
-4478
-4718
-4939
-5348
-5943
-6539
-6995
-7265
-7287
-6919
-6098
-5013
-3977
-3090
-2126
-823
734
2155
3179
3978
4933
6150
7318
8072
8434
8779
9404
10216
10880
11203
11297
11422
11727
12167
12582
12815
12777
12500
12144
11901
11841
11841
11697
11312
10766
10223
9752
9263
8615
7765
6814
5917
5150
4468
3767
2981
2117
1212
303
-570
-1370
-2090
-2784
-3525
-4330
-5142
-5894
-6564
-7172
-7732
-8262
-8798
-9377
-9973
-10477
-10785
-10897
-10895
-10833
-10673
-10353
-9882
-9331
-8732
-8040
-7183
-6140
-4947
-3644
-2252
-781
761
2367
4002
5587
7049
8396
9705
10995
12145
13008
13601
14119
14702
15253
15531
15438
15119
14779
14472
14118
13663
13155
12662
12210
11789
11405
11045
10622
10029
9227
8246
7099
5766
4285
2814
1520
414
-631
-1715
-2796
-3778
-4648
-5487
-6362
-7282
-8248
-9285
-10411
-11586
-12743
-13848
-14908
-15917
-16843
-17659
-18353
-18902
-19258
-19436
-19589
-19942
-20569
-21284
-21785
-21948
-21950
-22052
-22244
-22180
-21502
-20226
-18744
-17442
-16358
-15261
-14000
-12683
-11511
-10543
-9671
-8786
-7894
-7036
-6209
-5379
-4538
-3707
-2870
-1991
-1071
-161
723
1627
2606
3641
4660
5612
6486
7268
7958
8616
9340
10146
10896
11417
11690
11869
12072
12197
12027
11503
10845
10334
10038
9790
9432
9001
8626
8332
8026
7675
7411
7398
7635
7956
8242
8566
9086
9816
10560
11087
11298
11223
10916
10434
9921
9602
9641
9977
10379
10675
10928
11355
12062
12869
13434
13523
13159
12556
11927
11325
10662
9854
8919
7983
7156
6429
5702
4916
4133
3489
3067
2821
2650
2490
2333
2194
2077
1975
1820
1439
660
-455
-1547
-2219
-2398
-2382
-2487
-2695
-2718
-2389
-1895
-1589
-1655
-1997
-2429
-2927
-3575
-4369
-5109
-5540
-5577
-5359
-5135
-5089
-5274
-5684
-6321
-7190
-8229
-9309
-10306
-11167
-11896
-12467
-12751
-12577
-11878
-10834
-9824
-9188
-8972
-8915
-8708
-8325
-8073
-8293
-8994
-9811
-10301
-10311
-10026
-9754
-9645
-9625
-9532
-9284
-8900
-8442
-7971
-7542
-7233
-7120
-7215
-7437
-7629
-7627
-7314
-6689
-5918
-5253
-4844
-4588
-4242
-3739
-3345
-3470
-4291
-5580
-6935
-8107
-9069
-9849
-10390
-10622
-10585
-10420
-10208
-9926
-9579
-9324
-9395
-9884
-10636
-11375
-11919
-12300
-12696
-13226
-13846
-14370
-14637
-14694
-14762
-15034
-15461
-15783
-15845
-15792
-15938
-16422
-17071
-17629
-18041
-18446
-18902
-19229
-19197
-18773
-18106
-17287
-16237
-14891
-13405
-12090
-11132
-10443
-9827
-9199
-8629
-8174
-7767
-7284
-6641
-5813
-4811
-3669
-2466
-1309
-250
738
1699
2617
3402
3973
4323
4530
4716
5006
5496
6229
7188
8318
9573
10926
12344
13730
14920
15736
16104
16119
15995
15898
15842
15745
15612
15604
15899
16476
17105
17562
17817
17994
18164
18234
18051
17590
16999
16472
16053
15572
14774
13558
12154
11010
10428
10280
10136
9719
9181
8889
8946
8999
8564
7486
6012
4467
2954
1399
-204
-1706
-2973
-4032
-5002
-5881
-6499
-6722
-6648
-6536
-6560
-6661
-6664
-6487
-6206
-5912
-5598
-5199
-4727
-4312
-4042
-3816
-3366
-2449
-1039
662
2375
3948
5426
6960
8638
10351
11820
12805
13292
13498
13663
13839
13865
13573
12964
12216
11514
10937
10511
10306
10406
10781
11252
11644
11971
12427
13165
14107
15021
15743
16281
16720
17076
17314
17465
17640
17880
18057
17974
17580
17047
16595
16286
16005
15613
15082
14481
13856
13206
12529
11849
11164
10403
9491
8467
7511
6809
6393
6099
5717
5171
4554
4002
3549
3121
2635
2073
1473
862
254
-326
-836
-1264
-1659
-2088
-2575
-3078
-3563
-4028
-4448
-4760
-4913
-4944
-4967
-5039
-5097
-5046
-4913
-4882
-5123
-5628
-6204
-6653
-6914
-7056
-7175
-7321
-7480
-7580
-7551
-7396
-7229
-7198
-7334
-7500
-7546
-7484
-7482
-7650
-7880
-7958
-7825
-7659
-7664
-7832
-7965
-7914
-7724
-7544
-7431
-7307
-7098
-6872
-6741
-6733
-6761
-6739
-6686
-6691
-6785
-6902
-6947
-6898
-6816
-6787
-6843
-6931
-6992
-7055
-7184
-7385
-7562
-7616
-7605
-7690
-7925
-8149
-8176
-8076
-8154
-8600
-9232
-9688
-9838
-9899
-10135
-10548
-10906
-11029
-10941
-10785
-10647
-10556
-10544
-10613
-10663
-10538
-10189
-9760
-9426
-9178
-8859
-8342
-7694
-7095
-6632
-6235
-5783
-5255
-4752
-4379
-4125
-3880
-3565
-3176
-2742
-2252
-1688
-1079
-489
56
588
1138
1681
2164
2602
3069
3587
4069
4426
4674
4899
5125
5258
5221
5079
4990
5023
5113
5156
5145
5165
5288
5510
5788
6052
6228
6267
6195
6102
6078
6110
6091
5954
5754
5593
5502
5383
5111
4645
4094
3633
3344
3138
2827
2319
1738
1311
1105
932
565
29
-401
-508
-391
-356
-606
-1062
-1539
-2016
-2634
-3468
-4358
-5047
-5428
-5582
-5575
-5293
-4528
-3239
-1687
-271
764
1443
1909
2202
2215
1825
1040
36
-944
-1721
-2250
-2614
-2939
-3279
-3582
-3765
-3822
-3835
-3884
-3983
-4142
-4403
-4800
-5268
-5738
-5845
-6083
-6559
-7196
-7631
-7625
-7363
-7259
-7445
-7586
-7298
-6639
-6074
-5950
-6123
-6176
-5914
-5556
-5427
-5576
-5744
-5660
-5329
-5004
-4917
-5039
-5110
-4874
-4331
-3747
-3408
-3345
-3316
-3074
-2614
-2160
-1948
-2007
-2174
-2252
-2176
-2011
-1876
-1867
-1987
-2139
-2171
-1946
-1459
-868
-378
-83
86
246
376
350
159
14
135
447
601
361
-62
-195
180
788
1188
1240
1174
1227
1367
1385
1198
930
678
385
-18
-416
-589
-449
-171
-22
-98
-281
-437
-578
-787
-1080
-1386
-1658
-1960
-2369
-2864
-3339
-3693
-3908
-4010
-4040
-4084
-4274
-4674
-5155
-5444
-5386
-5138
-5026
-5243
-5665
-6007
-6096
-5998
-5871
-5809
-5811
-5828
-5802
-5698
-5539
-5428
-5495
-5778
-6172
-6528
-6783
-6965
-7094
-7151
-7144
-7140
-7177
-7178
-7039
-6800
-6679
-6841
-7169
-7360
-7259
-7075
-7167
-7636
-8171
-8358
-8088
-7640
-7378
-7402
-7519
-7504
-7327
-7138
-7057
-7056
-7038
-6951
-6822
-6690
-6550
-6386
-6210
-6054
-5928
-5831
-5766
-5724
-5661
-5498
-5200
-4825
-4479
-4198
-3917
-3577
-3238
-3044
-3066
-3205
-3297
-3304
-3350
-3552
-3818
-3888
-3618
-3166
-2867
-2881
-3031
-2991
-2619
-2086
-1689
-1564
-1595
-1568
-1409
-1268
-1378
-1833
-2468
-3001
-3279
-3374
-3435
-3448
-3236
-2695
-1986
-1430
-1226
-1328
-1598
-1984
-2501
-3081
-3563
-3829
-3882
-3758
-3426
-2833
-2069
-1389
-1049
-1135
-1576
-2277
-3136
-3929
-4287
-3894
-2780
-1358
-78
963
2030
3331
4643
5409
5273
4466
3601
3135
3071
3132
3124
3060
2985
2844
2524
1976
1207
188
-1135
-2730
-4409
-5901
-7025
-7736
-8082
-8158
-8101
-8060
-8097
-8117
-7929
-7411
-6595
-5592
-4463
-3168
-1617
249
2396
4669
6849
8803
10572
12262
13848
15111
15865
16171
16215
15990
14808
13780
12205
10311
8003
5496
2452
-270
-4207
-8871
-12568
-14194
-15438
-20089
-26848
-31310
-27549
-15690
-2005
7449
11584
12802
11918
7408
-268
-6284
-5691
326
4584
1475
-6428
-10711
-6294
2549
6665
-1007
-15782
-26862
-28111
-20500
-10501
-1232
6782
15804
21276
19708
11350
3222
1100
6217
13004
13116
4577
-8884
-18829
-19848
-10552
3216
13655
15747
9800
590
-5731
-7237
-3711
610
3052
980
-4743
-9722
-8069
16
8099
5757
-7227
-18285
-14477
2316
14906
11795
-1782
-8787
-2502
5648
920
-12263
-16926
-2431
21253
-31250
28618
13031
3484
4601
11074
15584
15383
12101
8602
6266
7320
9895
11805
8848
774
-8538
-13034
-8812
2653
15009
20816
16112
2267
-14846
-28114
-32563
-27326
-15727
-3383
4309
4763
-1150
-10130
-18230
-22506
-21987
-17762
-12247
-7974
-6482
-7807
-10793
-13875
-15853
-16293
-15474
-14071
-12792
-12122
-12221
-12958
-14003
-14949
-15426
-15258
-14529
-13520
-12553
-11820
-11264
-10643
-9773
-8754
-7893
-7346
-6864
-6044
-4855
-3788
-3324
-3322
-3107
-2276
-1225
-702
-905
-1191
-787
343
1493
2050
2125
2300
2852
3432
3541
3160
2802
2952
3522
3917
3656
2828
1933
1315
820
17
-1289
-2797
-3998
-4632
-4856
-4994
-5216
-5468
-5645
-5762
-5951
-6341
-6950
-7687
-8464
-9216
-9854
-10208
-10070
-9339
-8168
-6864
-5614
-4314
-2715
-782
1144
2600
3398
3744
3977
4211
4296
4076
3601
3077
2693
2566
2776
3367
4242
5164
5916
6478
7003
7619
8288
8863
9264
9527
9733
9935
10184
10566
11144
11883
12659
13401
14179
15102
16140
17109
17867
18439
18919
19296
19452
19329
19015
18643
18254
17782
17174
16428
15519
14390
13046
11598
10127
8526
6630
4507
2526
1023
-59
-1118
-2450
-3948
-5284
-6328
-7285
-8399
-9665
-10868
-11861
-12710
-13548
-14351
-14930
-15112
-14878
-14316
-13524
-12546
-11399
-10085
-8583
-6879
-5005
-3071
-1213
510
2121
3648
5080
6412
7700
8999
10234
11201
11721
11797
11569
11150
10542
9708
8678
7557
6461
5491
4735
4243
3962
3727
3359
2762
1934
904
-297
-1645
-3170
-4969
-7096
-9423
-12012
-13239
-14058
-15071
-16870
-18834
-20489
-20773
-21944
-24419
-26681
-26998
-26393
-28621
32594
30024
-30510
-17798
-3346
6439
11889
14103
13352
8062
-98
-5769
-5614
-755
2009
-197
-4722
-6538
-3725
1050
3543
1971
-1671
-1541
5258
17036
24970
21147
7188
-4678
-4637
8112
22448
26550
18018
3109
-9313
-16502
-18217
-16276
-11800
-5975
-456
619
-2944
-8565
-11459
-8754
-2664
2172
1401
-2032
-2823
2012
9921
14920
12873
4864
-4179
-9055
-7241
488
11287
21120
26455
25766
20432
14005
9912
9938
13843
19846
25605
29226
29959
28357
25858
23989
23671
24950
27231
29738
31870
-32249
-31689
-31913
-32592
32316
32151
32499
-32495
-32177
-32324
32638
31905
31389
31381
31858
32428
32606
32258
31751
31564
31727
31767
31234
30222
29209
28501
27957
27321
26667
26320
26343
26341
25880
25015
24208
23769
23492
22910
21847
20599
19633
19214
19290
19617
19959
20227
20516
20982
21582
21954
21678
20696
19408
18282
17415
16536
15399
14111
13035
12409
12121
11822
11202
10217
9084
8022
7004
5834
4499
3366
2876
3051
3407
3443
3157
2963
3163
3603
3888
3787
3368
2832
2293
1754
1206
726
437
347
242
-183
-984
-1779
-2094
-1904
-1725
-2002
-2456
-2307
-1185
366
1432
1668
1501
1437
1426
1056
179
-897
-1852
-2745
-3824
-5123
-6376
-7368
-8211
-9195
-10441
-11759
-12892
-13821
-14781
-15972
-17283
-18334
-18853
-19008
-19292
-20016
-20999
-21776
-22128
-22273
-22532
-22883
-22990
-22676
-22207
-21998
-22128
-22306
-22295
-22225
-22367
-22651
-22599
-21791
-20344
-18826
-17693
-16898
-16075
-15002
-13885
-13159
-13108
-13634
-14350
-14846
-14893
-14485
-13754
-12853
-11862
-10771
-9558
-8284
-7103
-6170
-5520
-5057
-4650
-4240
-3856
-3546
-3328
-3196
-3156
-3240
-3461
-3767
-4062
-4291
-4489
-4738
-5075
-5427
-5660
-5729
-5767
-5937
-6221
-6363
-6116
-5499
-4800
-4239
-3712
-2923
-1752
-430
679
1441
2011
2580
3154
3595
3843
4023
4327
4844
5533
6324
7192
8128
9052
9809
10260
10380
10251
9983
9650
9337
9173
9264
9602
10051
10484
10926
11497
12198
12774
12916
12593
12126
11892
11964
12122
12180
12221
12431
12814
13156
13299
13338
13454
13635
13662
13381
12905
12505
12338
12349
12416
12504
12655
12890
13200
13598
14076
14526
14756
14640
14238
13720
13218
12770
12402
12178
12124
12150
12121
12025
12018
12258
12707
13100
13138
12746
12150
11702
11594
11709
11756
11541
11125
10723
10456
10252
9953
9481
8875
8189
7435
6623
5840
5216
4826
4641
4571
4562
4637
4862
5274
5804
6252
6386
6112
5556
4943
4389
3853
3265
2654
2099
1601
1065
436
-221
-803
-1305
-1829
-2447
-3100
-3639
-3952
-4045
-4010
-3966
-4008
-4163
-4406
-4694
-5043
-5509
-6097
-6705
-7191
-7467
-7541
-7472
-7319
-7164
-7057
-6956
-6752
-6429
-6165
-6178
-6461
-6761
-6847
-6760
-6727
-6840
-6952
-6898
-6708
-6517
-6330
-6012
-5535
-5114
-5005
-5217
-5495
-5618
-5635
-5772
-6158
-6699
-7193
-7531
-7723
-7837
-7922
-7965
-7950
-7929
-8027
-8325
-8727
-9028
-9140
-9213
-9501
-10057
-10637
-10953
-10994
-11045
-11374
-11936
-12427
-12593
-12488
-12423
-12659
-13174
-13677
-13885
-13791
-13675
-13817
-14206
-14511
-14393
-13827
-13107
-12543
-12202
-11905
-11460
-10845
-10183
-9616
-9198
-8894
-8618
-8254
-7722
-7034
-6271
-5544
-4948
-4518
-4203
-3882
-3461
-2988
-2611
-2408
-2241
-1863
-1199
-427
180
513
688
850
1003
1039
873
542
162
-156
-371
-536
-726
-925
-1012
-920
-787
-864
-1228
-1650
-1860
-1874
-1966
-2319
-2796
-3130
-3256
-3329
-3454
-3556
-3556
-3548
-3689
-3989
-4281
-4445
-4542
-4684
-4854
-4942
-4887
-4709
-4444
-4087
-3649
-3187
-2772
-2450
-2228
-2097
-2001
-1837
-1570
-1322
-1256
-1344
-1360
-1182
-998
-1121
-1587
-2082
-2325
-2438
-2775
-3435
-4104
-4419
-4408
-4429
-4726
-5200
-5661
-6118
-6698
-7353
-7858
-8135
-8461
-9163
-10177
-11044
-11406
-11420
-11585
-12177
-12961
-13493
-13596
-13477
-13426
-13499
-13541
-13426
-13213
-13042
-12934
-12726
-12252
-11555
-10876
-10416
-10126
-9753
-9135
-8412
-7918
-7848
-8062
-8213
-8089
-7811
-7616
-7497
-7120
-6146
-4635
-3038
-1737
-647
654
2352
4071
5235
5655
5666
5691
5816
5842
5651
5340
5054
4821
4661
4697
5014
5447
5642
5444
5093
4945
5041
5052
4703
4100
3595
3369
3275
3094
2827
2654
2669
2738
2655
2383
2079
1895
1806
1664
1388
1048
793
704
724
720
622
473
372
351
347
283
179
122
118
71
-109
-372
-587
-720
-890
-1212
-1602
-1829
-1778
-1606
-1576
-1786
-2096
-2310
-2414
-2585
-2997
-3624
-4251
-4637
-4694
-4545
-4404
-4420
-4602
-4905
-5335
-5940
-6715
-7556
-8350
-9062
-9718
-10295
-10676
-10758
-10577
-10302
-10100
-10016
-10018
-10068
-10158
-10265
-10344
-10359
-10324
-10286
-10263
-10220
-10114
-9945
-9756
-9603
-9526
-9516
-9474
-9243
-8743
-8094
-7559
-7251
-6927
-6193
-4967
-3663
-2818
-2523
-2333
-1764
-828
19
420
480
602
1041
1720
2423
3038
3571
4035
4418
4768
5216
5855
6637
7435
8188
8925
9633
10165
10360
10241
9945
9488
8690
7451
6044
4980
4504
4330
4011
3497
3148
3220
3450
3308
2549
1382
73
-1416
-3259
-5310
-7009
-7803
-7597
-6755
-5705
-4628
-3495
-2290
-1163
-401
-301
-1042
-2581
-4618
-6714
-8486
-9756
-10492
-10696
-10394
-9712
-8874
-8064
-7320
-6646
-6230
-6450
-7581
-9498
-11726
-13739
-15209
-16071
-16435
-16481
-16322
-15858
-14862
-13279
-11476
-10056
-9391
-9390
-9769
-10411
-11344
-12458
-13468
-14225
-14909
-15791
-16832
-17692
-18154
-18428
-18897
-19661
-20438
-20912
-21073
-21139
-21211
-21134
-20677
-19780
-18576
-17215
-15693
-13932
-11925
-9786
-7313
-5632
-4395
-2812
-378
1703
3645
5169
8215
12804
17319
18430
18271
20710
27117
32256
28666
15720
-846
-11499
-13772
-11588
-9651
-8321
-4052
2954
10609
13608
11112
4147
-4145
-9620
-8434
-663
7247
6603
-4057
-16024
-16917
-5774
5938
6737
-887
-5864
-608
7114
5138
-8676
-20960
-19788
-5086
12138
22035
24029
21413
17264
9901
78
-8201
-11246
-8582
-3913
875
3045
3005
130
-4627
-9750
-13796
-15946
-16182
-15075
-13441
-12082
-11624
-12320
-13899
-15654
-16878
-17308
-17176
-16896
-16739
-16832
-17295
-18230
-19536
-20824
-21631
-21751
-21357
-20773
-20175
-19541
-18849
-18218
-17841
-17782
-17929
-18156
-18423
-18710
-18886
-18742
-18224
-17584
-17169
-17050
-16923
-16438
-15623
-14886
-14601
-14738
-14951
-14964
-14794
-14574
-14296
-13828
-13150
-12414
-11750
-11078
-10192
-9042
-7840
-6860
-6183
-5657
-5074
-4343
-3532
-2785
-2213
-1859
-1661
-1503
-1295
-1035
-774
-534
-252
145
628
1065
1352
1496
1578
1627
1572
1325
899
434
58
-211
-459
-743
-1051
-1341
-1595
-1833
-2079
-2334
-2583
-2810
-3013
-3190
-3340
-3423
-3373
-3175
-2917
-2747
-2729
-2768
-2714
-2548
-2416
-2462
-2650
-2799
-2786
-2650
-2527
-2472
-2417
-2268
-2012
-1713
-1425
-1161
-926
-765
-755
-920
-1200
-1495
-1741
-1951
-2187
-2509
-2934
-3424
-3894
-4264
-4542
-4842
-5302
-5940
-6605
-7113
-7414
-7619
-7854
-8127
-8351
-8459
-8448
-8363
-8289
-8321
-8507
-8807
-9120
-9387
-9628
-9842
-9883
-9556
-8884
-8197
-7886
-8011
-8218
-8108
-7682
-7375
-7618
-8401
-9260
-9692
-9581
-9240
-9088
-9321
-9815
-10277
-10459
-10294
-9893
-9438
-9051
-8697
-8222
-7516
-6613
-5650
-4752
-4004
-3487
-3299
-3449
-3738
-3841
-3593
-3188
-3011
-3281
-3863
-4454
-4866
-5131
-5397
-5774
-6275
-6785
-7025
-6661
-5558
-4012
-2603
-1735
-1306
-879
-177
631
1143
1182
1000
1038
1555
2490
3600
4685
5685
6628
7503
8244
8814
9273
9737
10255
10789
11265
11669
12068
12548
13109
13640
13988
14056
13900
13688
13540
13389
13043
12416
11669
11025
10503
9899
9059
8122
7396
7019
6841
6638
6367
6167
6141
6238
6341
6409
6486
6583
6636
6583
6452
6341
6320
6382
6465
6534
6595
6672
6742
6721
6547
6255
5937
5632
5273
4796
4250
3766
3433
3214
3041
2941
3022
3343
3856
4486
5234
6148
7225
8379
9538
10702
11876
12989
13942
14750
15583
16621
17871
19158
20312
21329
22293
23202
23905
24251
24254
24037
23631
22917
21803
20448
19193
18237
17436
16466
15188
13781
12492
11323
10023
8396
6500
4530
2605
691
-1238
-3096
-4780
-6314
-7803
-9271
-10610
-11745
-12773
-13878
-15118
-16337
-17328
-18044
-18580
-18997
-19222
-19167
-18881
-18539
-18265
-18031
-17748
-17441
-17257
-17316
-17571
-17836
-17971
-18007
-18108
-18396
-18864
-19392
-19867
-20259
-20596
-20902
-21170
-21348
-21345
-21105
-20665
-20146
-19646
-19149
-18552
-17817
-17060
-16468
-16107
-15860
-15527
-14996
-14297
-13581
-13040
-12789
-12756
-12723
-12509
-12159
-11904
-11909
-12094
-12232
-12179
-11974
-11752
-11623
-11637
-11790
-11983
-12054
-11922
-11679
-11479
-11325
-11034
-10488
-9817
-9262
-8870
-8423
-7744
-6946
-6320
-5978
-5720
-5282
-4594
-3771
-2883
-1836
-528
969
2457
3805
5047
6265
7444
8446
9143
9520
9678
9751
9802
9802
9680
9406
9026
8630
8278
7954
7596
7194
6811
6516
6309
6103
5798
5383
4923
4465
3957
3314
2543
1784
1213
919
881
1064
1473
2066
2660
2983
2872
2387
1774
1290
1083
1183
1512
1936
2371
2898
3683
4722
5699
6206
6077
5487
4685
3779
2839
2073
1719
1735
1779
1675
1725
2385
3597
4698
5090
4892
4705
4844
5020
4846
4451
4382
4951
5876
6670
7186
7656
8280
8921
9246
9094
8564
7804
6860
5758
4688
3965
3786
3983
4133
3932
3479
3109
2948
2681
1844
326
-1457
-2926
-3863
-4524
-5264
-6158
-7002
-7639
-8143
-8696
-9365
-10128
-11014
-12108
-13366
-14492
-15144
-15285
-15268
-15458
-15842
-16046
-15727
-14957
-14179
-13800
-13869
-14105
-14162
-13947
-13650
-13562
-13785
-14131
-14326
-14285
-14146
-14046
-13919
-13574
-12956
-12252
-11655
-11150
-10550
-9787
-9033
-8529
-8302
-8157
-7907
-7560
-7290
-7203
-7223
-7194
-7061
-6885
-6728
-6550
-6284
-5967
-5735
-5654
-5610
-5453
-5212
-5121
-5337
-5709
-5886
-5650
-5078
-4380
-3618
-2709
-1611
-450
589
1424
2105
2656
2991
3011
2760
2427
2190
2065
1932
1723
1555
1631
2017
2519
2840
2870
2802
2915
3258
3531
3372
2724
1932
1443
1424
1657
1814
1776
1721
1877
2286
2768
3133
3309
3332
3241
3061
2853
2750
2869
3209
3652
4064
4392
4679
5007
5437
5934
6385
6669
6767
6779
6857
7089
7453
7868
8262
8617
8964
9361
9843
10365
10808
11057
11104
11062
11068
11146
11177
11004
10596
10080
9619
9246
8836
8274
7612
7038
6690
6524
6398
6261
6195
6282
6482
6670
6770
6799
6799
6760
6645
6454
6242
6061
5925
5819
5725
5622
5504
5404
5358
5353
5315
5179
4983
4847
4846
4923
4957
4897
4793
4725
4698
4672
4627
4580
4531
4429
4236
4004
3842
3797
3770
3605
3252
2825
2501
2327
2179
1907
1514
1171
1034
1081
1161
1172
1146
1159
1214
1234
1182
1116
1095
1079
956
687
367
128
-7
-126
-337
-643
-960
-1202
-1345
-1430
-1517
-1644
-1799
-1936
-2029
-2103
-2207
-2362
-2540
-2698
-2834
-2972
-3122
-3260
-3358
-3422
-3485
-3584
-3740
-3948
-4162
-4329
-4436
-4532
-4678
-4876
-5075
-5234
-5369
-5515
-5680
-5852
-6032
-6216
-6356
-6405
-6382
-6374
-6415
-6425
-6296
-6057
-5873
-5853
-5911
-5878
-5730
-5627
-5698
-5863
-5917
-5762
-5530
-5413
-5438
-5453
-5326
-5095
-4886
-4762
-4670
-4553
-4427
-4321
-4206
-4034
-3877
-3901
-4173
-4525
-4691
-4618
-4533
-4690
-5039
-5257
-5109
-4721
-4442
-4468
-4674
-4808
-4803
-4834
-5072
-5459
-5735
-5704
-5450
-5251
-5300
-5507
-5566
-5262
-4675
-4115
-3787
-3595
-3265
-2654
-1925
-1369
-1100
-971
-789
-556
-424
-456
-505
-367
-4
414
693
799
878
1111
1545
2037
2342
2316
2057
1824
1826
2036
2235
2218
1942
1543
1229
1146
1306
1563
1752
1865
2099
2655
3479
4278
4822
5192
5662
6378
7192
7848
8232
8437
8578
8640
8534
8214
7737
7200
6676
6188
5745
5361
5046
4779
4500
4146
3736
3375
3132
2912
2516
1858
1123
605
389
225
-215
-973
-1754
-2259
-2520
-2843
-3441
-4183
-4749
-4981
-5025
-5137
-5415
-5750
-5995
-6139
-6278
-6472
-6675
-6808
-6858
-6884
-6943
-7028
-7097
-7129
-7144
-7157
-7158
-7143
-7155
-7267
-7501
-7777
-7987
-8115
-8260
-8530
-8897
-9200
-9298
-9211
-9085
-9028
-8994
-8864
-8608
-8335
-8163
-8079
-7971
-7788
-7631
-7646
-7852
-8089
-8176
-8086
-7955
-7927
-8003
-8046
-7927
-7642
-7292
-6987
-6762
-6600
-6480
-6388
-6295
-6173
-6013
-5850
-5726
-5640
-5548
-5421
-5279
-5161
-5083
-5032
-4995
-4968
-4941
-4896
-4841
-4817
-4857
-4953
-5064
-5178
-5326
-5517
-5712
-5878
-6035
-6207
-6360
-6416
-6376
-6369
-6497
-6701
-6819
-6796
-6766
-6868
-7034
-7045
-6809
-6495
-6361
-6469
-6622
-6610
-6446
-6331
-6418
-6655
-6858
-6893
-6788
-6665
-6604
-6567
-6471
-6325
-6239
-6282
-6395
-6451
-6407
-6335
-6270
-6083
-5610
-4902
-4232
-3830
-3617
-3320
-2836
-2384
-2253
-2452
-2679
-2629
-2275
-1825
-1449
-1129
-736
-208
395
985
1533
2055
2542
2952
3284
3636
4110
4701
5267
5666
5877
5985
6039
6006
5883
5766
5743
5740
5588
5219
4760
4401
4191
3993
3654
3178
2707
2350
2064
1731
1360
1177
1448
2163
2921
3244
3054
2781
2894
3340
3559
3086
2070
1103
561
290
-85
-628
-1022
-979
-586
-205
-77
-141
-218
-246
-323
-549
-925
-1379
-1800
-2081
-2164
-2084
-1982
-2010
-2157
-2235
-2054
-1627
-1136
-713
-303
169
595
722
400
-259
-976
-1546
-1960
-2330
-2781
-3356
-3953
-4342
-4242
-3520
-2347
-1154
-371
-120
-142
-18
440
933
858
-171
-1934
-3759
-5122
-6089
-7116
-8481
-9972
-11126
-11725
-11979
-12222
-12579
-12943
-13223
-13478
-13781
-14038
-14022
-13581
-12769
-11786
-10783
-9764
-8651
-7368
-5900
-4310
-2728
-1286
0
1304
2851
4648
6412
7853
9009
10255
12237
13777
14553
15815
17487
20103
21926
22454
23158
25633
29267
29698
27438
26590
30661
-30050
31873
16614
-1529
-9900
-5581
1997
2826
-2188
-3861
2691
11558
12744
3033
-11224
-20400
-18755
-6868
9542
22026
23213
11845
-6263
-20538
-24057
-18000
-6952
2067
5370
2307
-5173
-12822
-17168
-15156
-8913
-1614
3804
5923
5099
2864
995
749
2483
5660
9148
11752
12811
12510
11657
11062
11059
11478
11980
12306
12256
11646
10368
8529
6406
4236
2125
104
-1777
-3503
-5147
-6776
-8336
-9710
-10887
-11997
-13113
-14068
-14593
-14623
-14417
-14331
-14481
-14658
-14553
-14060
-13389
-12908
-12858
-13155
-13435
-13360
-12905
-12384
-12169
-12391
-12898
-13433
-13851
-14200
-14655
-15349
-16205
-16946
-17290
-17169
-16777
-16365
-15997
-15555
-14974
-14426
-14177
-14276
-14465
-14427
-14113
-13745
-13535
-13450
-13299
-12988
-12611
-12311
-12082
-11804
-11415
-10998
-10631
-10292
-9927
-9549
-9202
-8840
-8347
-7755
-7313
-7239
-7432
-7466
-6972
-5991
-4906
-4053
-3428
-2790
-1956
-969
-30
688
1190
1666
2348
3322
4448
5475
6256
6840
7342
7739
7872
7643
7160
6636
6180
5736
5246
4804
4567
4559
4639
4671
4676
4744
4845
4822
4565
4177
3895
3846
3920
3884
3622
3229
2904
2754
2692
2517
2090
1461
811
282
-133
-533
-1002
-1519
-1975
-2234
-2238
-2099
-2068
-2385
-3086
-3965
-4771
-5455
-6177
-7081
-8112
-9069
-9812
-10340
-10719
-10971
-11114
-11238
-11461
-11796
-12125
-12309
-12326
-12299
-12383
-12628
-12960
-13278
-13535
-13724
-13764
-13464
-12695
-11613
-10665
-10241
-10291
-10354
-10048
-9515
-9273
-9621
-10270
-10590
-10199
-9232
-8080
-6997
-5987
-5007
-4145
-3546
-3234
-3088
-2997
-2974
-3076
-3206
-3079
-2430
-1262
153
1556
2960
4543
6318
7994
9251
10084
10806
11663
12545
13144
13321
13283
13386
13802
14410
14974
15377
15655
15848
15862
15535
14821
13887
12969
12175
11419
10543
9489
8308
7051
5730
4378
3061
1808
584
-625
-1691
-2404
-2670
-2625
-2490
-2360
-2177
-1905
-1653
-1573
-1698
-1911
-2082
-2177
-2210
-2152
-1921
-1472
-843
-130
593
1282
1914
2478
2971
3423
3882
4368
4850
5300
5756
6305
6992
7763
8537
9355
10373
11647
12908
13677
13685
13168
12645
12375
12078
11257
9793
8136
6901
6317
6099
5809
5261
4558
3866
3227
2565
1788
859
-209
-1357
-2479
-3472
-4299
-4977
-5520
-5919
-6190
-6435
-6798
-7330
-7905
-8340
-8600
-8836
-9212
-9752
-10373
-11048
-11825
-12678
-13400
-13769
-13825
-13849
-14020
-14190
-14103
-13758
-13404
-13143
-12726
-11903
-10853
-10014
-9467
-8696
-7160
-5017
-3077
-1967
-1536
-1158
-504
144
317
-95
-795
-1453
-1966
-2384
-2736
-2997
-3162
-3284
-3415
-3538
-3576
-3491
-3357
-3306
-3432
-3750
-4233
-4881
-5670
-6428
-6885
-6930
-6809
-6949
-7568
-8462
-9180
-9471
-9505
-9697
-10282
-11042
-11434
-11052
-9987
-8751
-7795
-7137
-6501
-5793
-5293
-5300
-5695
-6016
-5936
-5537
-5062
-4474
-3447
-1782
251
2091
3390
4237
4921
5550
5957
5991
5736
5427
5224
5135
5113
5093
4984
4700
4285
3946
3868
3956
3838
3278
2476
1891
1728
1671
1255
417
-384
-656
-429
-220
-462
-1037
-1482
-1601
-1733
-2335
-3307
-3933
-3618
-2521
-1369
-631
-69
843
2184
3431
4019
3969
3867
4262
5146
6050
6572
6743
6908
7298
7727
7852
7644
7450
7520
7585
7113
6059
5091
4932
5488
5851
5233
3734
2120
982
273
-393
-1257
-2266
-3265
-4096
-4542
-4395
-3718
-2961
-2600
-2638
-2608
-2130
-1416
-1109
-1650
-2849
-4132
-5104
-5766
-6221
-6358
-5957
-5044
-3933
-2896
-1953
-1108
-623
-813
-1579
-2349
-2699
-2867
-3433
-4474
-5302
-5248
-4513
-3988
-4220
-4830
-5110
-4987
-5121
-6062
-7588
-9013
-9968
-10697
-11573
-12558
-13275
-13493
-13385
-13283
-13319
-13372
-13332
-13284
-13366
-13558
-13691
-13652
-13500
-13339
-13138
-12739
-12074
-11304
-10679
-10291
-10005
-9645
-9176
-8695
-8254
-7748
-7044
-6143
-5184
-4271
-3352
-2296
-1097
49
935
1542
2040
2597
3228
3872
4515
5223
6022
6836
7569
8189
8681
8991
9069
9009
9056
9436
10187
11188
12352
13694
15219
16804
18240
19350
20049
20314
20180
19755
19198
18576
17822
16903
15971
15277
14872
14489
13823
12873
11918
11108
10206
8867
7120
5443
4293
3642
3067
2287
1470
994
996
1247
1439
1454
1325
1060
628
98
-352
-617
-789
-1004
-1226
-1283
-1102
-812
-520
-137
476
1190
1612
1518
1161
1032
1313
1640
1527
911
231
-62
63
256
200
-117
-541
-1032
-1683
-2475
-3114
-3241
-2834
-2294
-2013
-1884
-1370
-129
1482
2667
2968
2671
2447
2644
3032
3184
2977
2658
2523
2655
2922
3145
3223
3153
3009
2891
2851
2844
2780
2622
2444
2345
2318
2229
1954
1531
1139
928
870
801
598
285
-11
-206
-318
-391
-421
-393
-337
-305
-280
-163
104
425
615
597
484
449
505
496
293
-31
-268
-291
-162
-25
70
206
454
780
1094
1334
1482
1522
1415
1149
814
577
547
672
820
912
982
1114
1312
1470
1451
1231
919
647
439
216
-72
-370
-560
-566
-455
-377
-449
-672
-938
-1122
-1185
-1237
-1440
-1830
-2246
-2465
-2418
-2295
-2369
-2729
-3227
-3628
-3834
-3918
-3982
-4049
-4063
-3978
-3844
-3772
-3832
-3972
-4062
-4014
-3876
-3777
-3802
-3884
-3854
-3617
-3257
-2940
-2781
-2764
-2797
-2782
-2679
-2517
-2357
-2262
-2240
-2202
-2035
-1721
-1366
-1102
-977
-900
-786
-665
-653
-830
-1148
-1488
-1781
-2040
-2296
-2536
-2693
-2686
-2443
-1910
-1080
-50
971
1782
2366
2901
3559
4303
4870
5033
4834
4565
4469
4504
4433
4143
3782
3573
3525
3439
3202
2963
2933
3100
3228
3177
3111
3282
3678
4044
4253
4553
5248
6187
6789
6680
6237
6261
7084
8120
8458
7858
6989
6661
6957
7234
6926
6151
5472
5230
5267
5269
5173
5155
5312
5506
5526
5318
4999
4715
4491
4226
3826
3315
2836
2531
2383
2235
1926
1409
708
-149
-1057
-1765
-2024
-1902
-1833
-2197
-2881
-3398
-3507
-3574
-4153
-5315
-6537
-7288
-7576
-7808
-8226
-8660
-8840
-8774
-8710
-8793
-8944
-9022
-9050
-9162
-9376
-9567
-9635
-9628
-9653
-9725
-9786
-9812
-9838
-9865
-9824
-9658
-9433
-9290
-9249
-9161
-8927
-8693
-8706
-8994
-9282
-9291
-9034
-8725
-8446
-8049
-7404
-6625
-5947
-5437
-4958
-4401
-3854
-3455
-3193
-2927
-2580
-2217
-1909
-1613
-1268
-896
-555
-256
42
343
621
909
1274
1704
2085
2345
2561
2871
3255
3492
3430
3172
2946
2827
2697
2468
2240
2164
2253
2404
2587
2883
3322
3746
3926
3812
3594
3494
3519
3473
3177
2671
2169
1851
1732
1677
1528
1234
864
531
296
122
-84
-378
-739
-1096
-1381
-1584
-1765
-1990
-2290
-2629
-2926
-3132
-3287
-3509
-3849
-4224
-4507
-4710
-4997
-5445
-5877
-6021
-5868
-5762
-6040
-6620
-7036
-6977
-6642
-6521
-6850
-7402
-7810
-7960
-7990
-8007
-7966
-7837
-7749
-7875
-8197
-8536
-8783
-9050
-9536
-10295
-11177
-11947
-12428
-12507
-12159
-11516
-10813
-10158
-9408
-8356
-7053
-5869
-5161
-4920
-4835
-4694
-4601
-4757
-5113
-5386
-5397
-5282
-5285
-5433
-5511
-5349
-5041
-4811
-4753
-4753
-4660
-4470
-4292
-4212
-4204
-4192
-4146
-4100
-4098
-4159
-4311
-4587
-4992
-5464
-5894
-6196
-6333
-6319
-6196
-6018
-5836
-5663
-5466
-5247
-5137
-5332
-5882
-6590
-7175
-7546
-7868
-8332
-8890
-9278
-9293
-8977
-8526
-8102
-7746
-7436
-7127
-6779
-6412
-6170
-6255
-6722
-7386
-7949
-8279
-8471
-8634
-8670
-8331
-7519
-6424
-5316
-4255
-3072
-1657
-183
975
1569
1689
1658
1769
2133
2711
3420
4177
4905
5587
6300
7132
8028
8728
8927
8542
7867
7404
7492
8058
8713
9117
9266
9422
9780
10231
10452
10189
9451
8412
7208
5853
4360
2845
1460
254
-862
-1994
-3156
-4299
-5415
-6551
-7723
-8871
-9949
-11035
-12288
-13735
-15144
-16216
-16892
-17407
-17987
-18538
-18723
-18374
-17772
-17444
-17648
-18107
-18291
-17918
-17152
-16330
-15543
-14517
-12881
-10506
-7607
-4565
-1675
964
3403
5723
7930
9937
11624
12968
14103
15264
16621
18175
19805
21401
22942
24418
25755
26819
27503
27801
27789
27542
27088
26431
25606
24687
23736
22753
21682
20449
19037
17499
15904
14282
12626
10933
9238
7622
6161
4892
3782
2753
1745
781
-13
-506
-668
-567
-279
211
974
2019
3268
4648
6172
7892
9760
11578
13130
14359
15363
16223
16870
17138
16952
16437
15820
15256
14731
14149
13464
12737
12070
11498
10932
10239
9363
8386
7463
6701
6107
5653
5376
5351
5587
5989
6436
6897
7417
7979
8434
8597
8430
8066
7672
7278
6777
6086
5260
4448
3758
3196
2703
2232
1751
1217
596
-98
-784
-1364
-1815
-2192
-2537
-2823
-2963
-2922
-2770
-2607
-2467
-2315
-2145
-2031
-2060
-2217
-2379
-2461
-2496
-2581
-2728
-2838
-2826
-2748
-2738
-2851
-2999
-3062
-3041
-3067
-3252
-3575
-3926
-4246
-4582
-4996
-5455
-5853
-6125
-6309
-6454
-6517
-6394
-6074
-5683
-5379
-5181
-4980
-4695
-4427
-4359
-4528
-4736
-4694
-4271
-3603
-2953
-2499
-2213
-1922
-1481
-934
-505
-450
-853
-1532
-2168
-2574
-2826
-3169
-3754
-4480
-5102
-5500
-5793
-6195
-6752
-7321
-7781
-8196
-8714
-9305
-9718
-9790
-9708
-9849
-10326
-10824
-10970
-10755
-10548
-10645
-10953
-11147
-11027
-10659
-10236
-9886
-9638
-9407
-9017
-8305
-7347
-6509
-6098
-6028
-5868
-5349
-4742
-4558
-4904
-5269
-5055
-4257
-3474
-3268
-3602
-3930
-3816
-3367
-3069
-3297
-4007
-4849
-5471
-5722
-5668
-5480
-5327
-5293
-5323
-5287
-5114
-4885
-4785
-4934
-5277
-5630
-5842
-5881
-5779
-5555
-5196
-4710
-4156
-3587
-2977
-2230
-1279
-177
932
1962
2975
4101
5360
6594
7644
8511
9337
10202
11027
11692
12210
12703
13239
13738
14068
14202
14235
14292
14435
14632
14762
14663
14253
13651
13110
12772
12509
12055
11312
10470
9779
9279
8792
8165
7412
6627
5829
4959
3979
2916
1828
791
-110
-810
-1340
-1819
-2311
-2720
-2903
-2892
-2958
-3380
-4180
-5122
-5974
-6711
-7430
-8109
-8545
-8567
-8257
-7861
-7480
-6923
-5969
-4735
-3679
-3171
-3125
-3104
-2775
-2230
-1816
-1744
-1892
-1951
-1721
-1261
-799
-521
-410
-248
185
918
1777
2596
3375
4218
5136
5965
6556
6953
7323
7740
8117
8389
8672
9154
9826
10407
10615
10468
10250
10154
10026
9541
8591
7452
6526
5953
5529
4999
4328
3651
3024
2330
1437
368
-732
-1767
-2770
-3808
-4864
-5858
-6729
-7475
-8095
-8586
-9010
-9501
-10136
-10798
-11208
-11174
-10824
-10535
-10590
-10909
-11163
-11144
-10992
-11033
-11424
-11994
-12443
-12655
-12775
-13015
-13435
-13961
-14515
-15094
-15731
-16417
-17113
-17830
-18605
-19401
-20081
-20534
-20800
-21038
-21367
-21770
-22160
-22495
-22795
-23069
-23279
-23424
-23578
-23829
-24158
-24408
-24402
-24069
-23460
-22679
-21793
-20817
-19753
-18620
-17438
-16249
-15144
-14251
-13628
-13159
-12597
-11744
-10631
-9489
-8513
-7650
-6695
-5549
-4340
-3304
-2548
-1974
-1396
-702
108
977
1848
2697
3574
4620
5952
7540
9179
10656
11956
13225
14598
16058
17466
18639
19478
20039
20472
20908
21310
21503
21410
21233
21298
21720
22312
22863
23418
24134
24927
25409
25295
24784
24353
24211
24105
23719
23119
22654
22502
22471
22248
21743
21086
20392
19648
18839
18088
17575
17328
17199
17061
16947
16989
17239
17529
17543
17100
16337
15607
15166
14957
14711
14285
13828
13626
13776
14057
14124
13819
13321
12975
12945
13030
12901
12484
11998
11601
11121
10302
9296
8669
8758
9122
8879
7664
6045
4837
4138
3274
1658
-479
-2342
-3389
-3724
-3752
-3621
-3172
-2295
-1166
-86
809
1577
2232
2597
2444
1796
982
380
92
-67
-273
-477
-519
-415
-378
-541
-762
-794
-628
-515
-669
-999
-1241
-1272
-1244
-1387
-1748
-2179
-2538
-2822
-3128
-3514
-3947
-4371
-4784
-5211
-5649
-6058
-6405
-6706
-7005
-7310
-7587
-7824
-8070
-8395
-8808
-9253
-9724
-10360
-11347
-12699
-14113
-15164
-15675
-15866
-16099
-16487
-16843
-16952
-16875
-16886
-17173
-17674
-18226
-18755
-19273
-19723
-19978
-20004
-19912
-19795
-19606
-19246
-18752
-18303
-17964
-17564
-16905
-16074
-15408
-15139
-15149
-15129
-14896
-14519
-14147
-13845
-13590
-13329
-12970
-12355
-11370
-10131
-8962
-8146
-7680
-7307
-6794
-6156
-5599
-5287
-5176
-5058
-4748
-4225
-3651
-3234
-3060
-3029
-2974
-2868
-2829
-2945
-3091
-2987
-2490
-1754
-1070
-551
-50
599
1363
2058
2596
3090
3690
4387
5019
5452
5706
5901
6135
6402
6583
6513
6079
5370
4718
4503
4835
5456
5960
6158
6227
6491
7092
7849
8438
8665
8590
8455
8496
8790
9255
9739
10137
10408
10534
10501
10344
10179
10107
10096
9977
9629
9149
8791
8699
8713
8510
7925
7097
6285
5588
4907
4143
3368
2770
2461
2371
2334
2251
2165
2192
2401
2736
3056
3243
3306
3395
3664
4144
4694
5134
5414
5639
5929
6278
6574
6790
7079
7634
8423
9156
9568
9714
9891
10282
10730
10940
10841
10670
10713
11017
11415
11747
11981
12126
12115
11859
11364
10743
10109
9492
8892
8366
8046
8023
8246
8568
8876
9145
9377
9496
9359
8889
8162
7333
6462
5476
4306
3013
1784
788
69
-452
-894
-1336
-1796
-2215
-2501
-2638
-2723
-2892
-3186
-3505
-3717
-3788
-3784
-3768
-3745
-3710
-3708
-3806
-3996
-4174
-4246
-4231
-4253
-4410
-4678
-4926
-5023
-4948
-4804
-4738
-4823
-5004
-5154
-5196
-5159
-5121
-5090
-5016
-4919
-4902
-5029
-5174
-5104
-4758
-4354
-4189
-4306
-4447
-4349
-4021
-3719
-3672
-3880
-4148
-4261
-4116
-3788
-3504
-3501
-3836
-4301
-4611
-4688
-4747
-5070
-5702
-6397
-6851
-6969
-6906
-6880
-6994
-7182
-7327
-7369
-7342
-7301
-7232
-7063
-6764
-6402
-6070
-5751
-5339
-4771
-4127
-3552
-3095
-2647
-2091
-1470
-981
-818
-996
-1317
-1513
-1450
-1237
-1099
-1118
-1086
-676
220
1332
2245
2734
2892
2900
2793
2470
1875
1058
147
-724
-1399
-1737
-1713
-1440
-1052
-581
-38
448
684
623
398
62
-586
-1735
-3116
-4032
-3962
-3091
-2120
-1503
-996
-42
1471
2937
3558
3053
1832
518
-541
-1366
-2014
-2286
-1891
-839
510
1788
2998
4391
5984
7340
7965
7878
7631
7729
8128
8400
8329
8142
8150
8322
8347
8071
7704
7546
7582
7509
7136
6603
6201
6022
5884
5569
5042
4417
3778
3118
2466
1952
1679
1585
1482
1220
826
495
429
614
764
507
-277
-1303
-2089
-2398
-2494
-2919
-3967
-5343
-6399
-6718
-6492
-6354
-6814
-7837
-8965
-9826
-10495
-11359
-12679
-14306
-15774
-16636
-16714
-16149
-15279
-14437
-13731
-12972
-11913
-10637
-9646
-9444
-10030
-10886
-11467
-11665
-11799
-12190
-12820
-13404
-13721
-13791
-13802
-13907
-14062
-14084
-13843
-13400
-12902
-12384
-11738
-10909
-10071
-9506
-9302
-9270
-9173
-8993
-8838
-8666
-8257
-7503
-6605
-5899
-5473
-5107
-4589
-4014
-3660
-3621
-3686
-3607
-3407
-3291
-3317
-3264
-2897
-2293
-1815
-1747
-1991
-2192
-2120
-1917
-1938
-2338
-2897
-3266
-3341
-3337
-3497
-3784
-3922
-3788
-3624
-3792
-4312
-4755
-4704
-4252
-3913
-4024
-4361
-4420
-3999
-3425
-3140
-3190
-3238
-3029
-2725
-2695
-3028
-3375
-3301
-2746
-2077
-1694
-1652
-1674
-1473
-1036
-585
-342
-347
-500
-698
-893
-1054
-1151
-1169
-1160
-1216
-1405
-1689
-1925
-1969
-1804
-1574
-1455
-1525
-1751
-2052
-2371
-2658
-2844
-2882
-2827
-2847
-3086
-3498
-3849
-3918
-3703
-3426
-3337
-3496
-3754
-3909
-3913
-3899
-4025
-4318
-4661
-4886
-4877
-4611
-4146
-3569
-2980
-2469
-2094
-1855
-1723
-1690
-1795
-2078
-2443
-2614
-2348
-1676
-939
-468
-252
-5
416
734
502
-347
-1365
-2028
-2215
-2148
-1949
-1463
-560
523
1340
1713
1888
2146
2326
1932
691
-1056
-2614
-3545
-3976
-4337
-4870
-5394
-5565
-5289
-4817
-4477
-4408
-4539
-4811
-5257
-5857
-6421
-6725
-6740
-6664
-6697
-6851
-6992
-6992
-6787
-6324
-5562
-4580
-3586
-2734
-1928
-928
350
1682
2729
3342
3665
3977
4466
5145
5913
6679
7451
8291
9228
10192
11066
11788
12383
12884
13261
13440
13378
13114
12747
12429
12292
12313
12261
11877
11172
10446
10243
9311
7632
5931
5058
4026
2738
494
-471
-62
1771
3193
4503
8042
15052
22307
23307
14524
-27
-11299
-13030
-7816
-3921
-6420
-11432
-10754
-1477
9618
12995
6640
-1136
-304
10862
24097
29487
23835
12331
1819
-2772
-1852
2046
6505
10660
12370
11885
8724
4963
1438
-949
-2843
-5176
-7438
-8295
-7765
-7965
-10394
-13324
-13569
-10252
-6562
-6181
-9066
-11186
-9428
-5269
-3612
-7545
-15497
-22647
-25048
-21633
-14023
-4932
2470
5524
3055
-3651
-11161
-16040
-16577
-13363
-8600
-4753
-3418
-4880
-8267
-12062
-14802
-15693
-14879
-13212
-11708
-11024
-11258
-12075
-13024
-13814
-14401
-14870
-15283
-15635
-15960
-16395
-17078
-17969
-18820
-19352
-19468
-19273
-18943
-18582
-18236
-17945
-17719
-17508
-17240
-16920
-16646
-16492
-16390
-16210
-15932
-15655
-15441
-15173
-14666
-13922
-13191
-12724
-12484
-12195
-11657
-10975
-10413
-10082
-9853
-9545
-9124
-8678
-8266
-7845
-7366
-6854
-6394
-6034
-5748
-5459
-5086
-4565
-3911
-3243
-2695
-2283
-1880
-1379
-835
-432
-285
-319
-373
-359
-304
-252
-190
-98
-18
-24
-124
-237
-290
-311
-366
-439
-412
-215
48
197
159
46
0
20
-14
-161
-328
-383
-312
-174
45
429
962
1419
1555
1370
1117
1017
992
784
280
-318
-678
-657
-385
-77
172
400
635
817
888
865
841
855
841
733
569
456
440
484
584
825
1250
1705
1926
1819
1611
1592
1768
1830
1529
1009
723
1016
1821
2775
3592
4284
5069
6055
7073
7772
7895
7482
6810
6124
5448
4680
3818
2999
2366
1930
1635
1474
1454
1492
1478
1501
1866
2746
3851
4636
4868
4883
5170
5742
6070
5661
4580
3374
2558
2285
2421
2765
3149
3440
3605
3766
4076
4499
4769
4618
4024
3245
2588
2198
2025
1907
1682
1268
671
-29
-754
-1479
-2221
-2958
-3604
-4055
-4297
-4432
-4586
-4783
-4907
-4872
-4764
-4808
-5160
-5727
-6253
-6589
-6829
-7203
-7875
-8846
-9998
-11157
-12139
-12842
-13322
-13730
-14114
-14282
-13972
-13166
-12204
-11517
-11253
-11195
-11038
-10683
-10252
-9882
-9568
-9166
-8512
-7529
-6265
-4867
-3494
-2222
-1019
170
1314
2334
3215
4062
4999
6001
6908
7636
8325
9241
10490
11894
13149
14107
14881
15649
16410
16962
17105
16823
16259
15547
14720
13778
12786
11845
10987
10134
9206
8224
7295
6485
5752
5032
4342
3779
3408
3185
3030
2947
3004
3202
3420
3530
3558
3666
3953
4352
4739
5101
5501
5872
5959
5540
4694
3752
2968
2288
1504
583
-216
-590
-482
-94
348
754
1128
1439
1596
1538
1296
949
551
109
-391
-981
-1713
-2619
-3673
-4805
-5965
-7160
-8423
-9734
-10990
-12050
-12814
-13281
-13543
-13740
-13996
-14359
-14801
-15273
-15760
-16280
-16834
-17403
-17954
-18433
-18755
-18850
-18730
-18501
-18243
-17890
-17289
-16400
-15388
-14464
-13675
-12902
-12076
-11294
-10735
-10468
-10431
-10565
-10882
-11399
-12021
-12576
-12919
-13007
-12862
-12493
-11859
-10913
-9664
-8203
-6656
-5109
-3577
-2065
-626
633
1616
2332
2881
3363
3800
4152
4357
4367
4176
3806
3320
2823
2431
2230
2210
2273
2339
2478
2940
3966
5516
7164
8324
8647
8259
7606
7075
6698
6231
5500
4635
3979
3752
3872
4127
4456
4988
5757
6490
6828
6769
6750
7209
8070
8768
8815
8313
7835
7862
8401
9075
9551
9790
9955
10180
10482
10804
11056
11102
10781
10028
8972
7913
7149
6766
6613
6474
6252
6015
5859
5725
5404
4740
3844
3089
2817
3049
3502
3912
4293
4843
5608
6335
6679
6591
6362
6285
6371
6425
6316
6064
5744
5386
5006
4637
4212
3546
2566
1564
1018
1085
1414
1570
1577
1872
2668
3538
3782
3128
1912
575
-805
-2442
-4445
-6631
-8738
-10636
-12322
-13788
-15054
-16214
-17387
-18561
-19592
-20408
-21143
-21991
-22930
-23721
-24151
-24231
-24139
-24007
-23791
-23385
-22760
-21948
-20948
-19711
-18218
-16548
-14822
-13094
-11323
-9469
-7599
-5898
-4556
-3631
-3007
-2503
-2062
-1784
-1778
-1987
-2182
-2148
-1868
-1493
-1153
-823
-377
282
1131
2061
2942
3649
4107
4313
4347
4318
4309
4378
4575
4936
5454
6087
6814
7662
8609
9502
10103
10268
10081
9768
9495
9263
8966
8526
7945
7268
6561
5906
5376
4960
4541
4002
3337
2671
2118
1666
1228
767
317
-116
-625
-1308
-2120
-2875
-3443
-3884
-4368
-4967
-5559
-5966
-6173
-6347
-6666
-7153
-7644
-7933
-7910
-7604
-7137
-6613
-6056
-5419
-4637
-3682
-2573
-1386
-250
705
1435
2062
2795
3699
4574
5130
5325
5493
6055
7087
8229
9055
9524
10023
10954
12316
13715
14745
15322
15689
16124
16680
17208
17552
17701
17790
17982
18371
18941
19567
20067
20312
20336
20290
20295
20313
20206
19925
19595
19378
19287
19208
19044
18818
18580
18296
17881
17311
16637
15866
14908
13706
12376
11131
10057
9016
7832
6514
5265
4253
3444
2676
1846
972
118
-668
-1374
-2007
-2611
-3235
-3869
-4418
-4805
-5064
-5323
-5684
-6119
-6512
-6794
-6982
-7127
-7269
-7434
-7617
-7743
-7678
-7376
-7011
-6862
-7030
-7255
-7143
-6608
-6000
-5742
-5868
-6012
-5861
-5494
-5231
-5208
-5248
-5159
-4986
-4896
-4893
-4792
-4497
-4177
-4075
-4225
-4434
-4524
-4529
-4582
-4718
-4858
-4940
-4976
-4987
-4962
-4908
-4899
-5011
-5223
-5440
-5606
-5759
-5971
-6238
-6476
-6600
-6582
-6499
-6458
-6492
-6512
-6377
-6082
-5779
-5607
-5532
-5401
-5192
-5054
-5093
-5141
-4904
-4312
-3610
-3074
-2698
-2225
-1512
-711
-53
408
755
993
1002
768
549
673
1193
1816
2274
2663
3356
4582
6113
7458
8306
8747
9072
9423
9695
9700
9429
9129
9084
9369
9728
9780
9381
8800
8467
8499
8541
8198
7542
7135
7436
8257
8964
9182
9109
9136
9296
9217
8578
7474
6269
5209
4302
3469
2715
2150
1860
1813
1866
1829
1556
1008
269
-540
-1358
-2170
-2970
-3752
-4531
-5327
-6087
-6703
-7151
-7579
-8188
-8995
-9715
-10002
-9794
-9396
-9162
-9105
-8880
-8144
-6919
-5597
-4648
-4307
-4494
-4920
-5270
-5377
-5339
-5471
-6043
-7023
-8067
-8816
-9222
-9560
-10123
-10920
-11667
-12039
-11918
-11464
-10949
-10570
-10323
-10079
-9769
-9501
-9432
-9579
-9763
-9801
-9709
-9654
-9706
-9706
-9426
-8820
-8076
-7431
-6966
-6558
-5998
-5166
-4143
-3207
-2632
-2471
-2515
-2500
-2362
-2282
-2444
-2799
-3063
-2975
-2488
-1781
-1089
-563
-220
12
216
393
448
287
-60
-427
-668
-768
-806
-811
-719
-504
-288
-244
-430
-747
-1080
-1403
-1748
-2105
-2421
-2686
-2950
-3254
-3566
-3846
-4107
-4421
-4803
-5166
-5400
-5488
-5495
-5507
-5584
-5769
-6071
-6421
-6704
-6890
-7091
-7461
-7992
-8463
-8633
-8502
-8315
-8310
-8491
-8661
-8686
-8641
-8689
-8846
-8947
-8828
-8534
-8278
-8194
-8188
-8057
-7764
-7497
-7485
-7740
-8040
-8143
-7973
-7617
-7212
-6830
-6489
-6208
-6002
-5854
-5713
-5548
-5380
-5238
-5105
-4944
-4745
-4523
-4298
-4088
-3936
-3903
-4015
-4209
-4367
-4426
-4446
-4515
-4605
-4594
-4428
-4235
-4208
-4388
-4596
-4624
-4466
-4326
-4408
-4727
-5126
-5454
-5675
-5852
-6077
-6431
-6964
-7645
-8330
-8839
-9101
-9209
-9309
-9451
-9554
-9489
-9187
-8660
-7981
-7276
-6709
-6374
-6214
-6051
-5755
-5355
-4934
-4497
-3964
-3264
-2376
-1265
121
1723
3256
4387
5002
5288
5513
5770
5976
6072
6116
6221
6470
6916
7583
8396
9125
9524
9581
9521
9570
9697
9680
9391
8956
8579
8298
7966
7469
6858
6289
5853
5560
5433
5520
5811
6199
6579
6979
7507
8128
8589
8630
8237
7610
6929
6168
5216
4095
2995
2077
1303
520
-308
-1019
-1403
-1456
-1520
-2127
-3602
-5796
-8621
-10408
-12269
-14930
-18730
-22389
-24388
-25573
-26040
-27180
-27897
-27497
-26884
-27883
-30736
-32736
-29905
-20323
-6070
7674
15837
14296
5465
-5189
-11454
-10324
-2542
7929
15169
13186
1500
-14033
-24636
-25811
-18261
-6128
5225
9979
3803
-9828
-20050
-16676
-1279
12652
15267
8716
5386
9578
15615
14705
8646
5763
9893
14918
11279
-3704
-20324
-28521
-21449
-3661
15178
25564
25229
15741
3729
-4165
-3777
2760
7865
5612
-4676
-14651
-16639
-9039
2479
9159
7800
772
-6216
-7255
-819
7211
7820
-1465
-11268
-12167
-4089
1460
-2688
-9041
-4580
11471
24976
19756
-2155
-24459
-31522
-20902
-1260
14329
19291
12185
-3313
-19219
-27094
-21544
-6066
12469
24581
26152
17789
4333
-7761
-13751
-12304
-5430
2908
8830
10231
7373
2293
-2490
-5163
-5193
-3217
-495
1743
2781
2571
1577
473
-158
-26
789
1941
3030
3794
4204
4388
4502
4628
4753
4818
4781
4644
4457
4280
4162
4125
4144
4147
4030
3700
3136
2404
1598
751
-195
-1313
-2572
-3846
-5024
-6114
-7198
-8302
-9346
-10262
-11117
-12053
-13105
-14158
-15101
-15994
-16987
-18087
-19100
-19843
-20363
-20884
-21541
-22243
-22816
-23209
-23518
-23829
-24132
-24365
-24500
-24548
-24518
-24422
-24299
-24187
-24064
-23876
-23620
-23371
-23184
-22992
-22700
-22340
-22085
-22082
-22281
-22496
-22614
-22674
-22735
-22704
-22372
-21609
-20501
-19251
-17982
-16665
-15240
-13754
-12359
-11206
-10335
-9697
-9222
-8847
-8508
-8153
-7776
-7444
-7201
-6986
-6672
-6220
-5761
-5483
-5441
-5482
-5391
-5072
-4574
-3991
-3389
-2815
-2323
-1924
-1543
-1104
-661
-361
-297
-393
-490
-508
-461
-314
48
668
1385
1956
2344
2771
3426
4172
4627
4545
4060
3548
3295
3379
3754
4326
4940
5413
5681
5911
6339
6985
7565
7754
7509
7115
6934
7117
7570
8115
8633
9104
9557
10000
10411
10751
10995
11149
11233
11272
11323
11474
11771
12140
12416
12484
12385
12249
12132
11995
11817
11687
11703
11816
11870
11806
11774
11956
12297
12485
12250
11645
10976
10455
9989
9322
8353
7260
6315
5625
5080
4539
4016
3638
3455
3363
3207
2926
2584
2265
1981
1696
1394
1101
865
772
946
1492
2386
3457
4526
5539
6541
7511
8304
8776
8960
9048
9192
9392
9577
9787
10179
10877
11824
12823
13705
14433
15074
15668
16189
16589
16879
17136
17443
17817
18207
18555
18836
19051
19175
19125
18812
18220
17446
16633
15858
15092
14281
13455
12748
12277
12031
11888
11748
11604
11479
11315
10957
10308
9444
8556
7770
7040
6244
5325
4365
3487
2735
2039
1289
422
-547
-1576
-2667
-3878
-5246
-6687
-8004
-9054
-9896
-10716
-11599
-12377
-12784
-12742
-12463
-12253
-12253
-12389
-12541
-12673
-12826
-13050
-13388
-13895
-14586
-15358
-16029
-16492
-16832
-17251
-17874
-18648
-19450
-20238
-21081
-22050
-23107
-24105
-24902
-25452
-25772
-25894
-25853
-25725
-25610
-25520
-25341
-24966
-24498
-24260
-24501
-25106
-25649
-25792
-25620
-25524
-25776
-26254
-26606
-26649
-26538
-26579
-26908
-27401
-27842
-28134
-28335
-28526
-28689
-28714
-28501
-28063
-27516
-26963
-26395
-25703
-24786
-23685
-22558
-21550
-20648
-19716
-18644
-17443
-16194
-14921
-13559
-12037
-10360
-8589
-6780
-4955
-3148
-1412
205
1687
3029
4178
5040
5567
5846
6087
6497
7168
8049
9004
9896
10660
11338
12011
12680
13217
13435
13276
12918
12679
12784
13190
13669
14036
14257
14414
14574
14784
15090
15497
15863
15928
15543
14897
14427
14490
15055
15770
16308
16643
16990
17541
18257
18869
19065
18734
18084
17485
17163
16971
16582
15915
15315
15235
15701
16226
16313
15954
15593
15564
15712
15594
15007
14200
13563
13237
13088
12974
12934
13035
13147
13032
12626
12112
11650
11126
10308
9202
8043
6897
5519
3827
2373
2009
2939
4288
4846
4225
3062
2145
1527
650
-862
-2747
-4396
-5430
-5864
-5900
-5657
-5135
-4334
-3381
-2546
-2116
-2147
-2383
-2493
-2414
-2406
-2720
-3276
-3714
-3743
-3343
-2699
-2040
-1544
-1296
-1212
-1044
-552
235
990
1354
1224
800
356
11
-299
-655
-1026
-1343
-1629
-2019
-2560
-3113
-3484
-3660
-3806
-4013
-4125
-3910
-3348
-2701
-2235
-1952
-1665
-1267
-862
-638
-686
-969
-1428
-2054
-2827
-3625
-4225
-4435
-4209
-3666
-3002
-2344
-1665
-861
74
933
1379
1249
773
462
677
1299
1867
2085
2176
2636
3648
4811
5512
5508
5083
4629
4201
3574
2676
1787
1266
1141
1104
889
579
460
620
779
577
-25
-693
-1077
-1170
-1255
-1511
-1777
-1748
-1347
-828
-500
-414
-372
-210
16
132
68
-63
-83
73
308
490
583
655
763
852
777
466
56
-158
16
494
1015
1401
1715
2143
2734
3292
3533
3344
2873
2385
2038
1800
1562
1332
1261
1507
2050
2690
3227
3626
3972
4291
4493
4477
4266
3993
3759
3540
3278
2987
2749
2608
2537
2469
2372
2270
2201
2178
2200
2255
2311
2326
2277
2187
2094
2016
1954
1930
1956
2015
2065
2088
2129
2257
2470
2684
2802
2774
2611
2340
2000
1642
1302
982
682
429
283
285
406
582
765
933
1035
998
802
505
202
-64
-318
-572
-800
-977
-1122
-1251
-1313
-1221
-992
-775
-753
-924
-1096
-1111
-1060
-1173
-1496
-1813
-1953
-2106
-2690
-3772
-4778
-4984
-4346
-3638
-3663
-4332
-4792
-4374
-3331
-2536
-2571
-3268
-4034
-4502
-4758
-5073
-5542
-6010
-6235
-6126
-5836
-5640
-5652
-5677
-5455
-4991
-4673
-4891
-5570
-6200
-6370
-6173
-6017
-6129
-6370
-6483
-6393
-6221
-6058
-5892
-5735
-5713
-5941
-6357
-6779
-7102
-7356
-7593
-7740
-7691
-7462
-7213
-7076
-7006
-6843
-6516
-6125
-5817
-5642
-5546
-5468
-5365
-5175
-4820
-4314
-3843
-3621
-3626
-3540
-3040
-2171
-1357
-963
-900
-695
-1
1036
1940
2410
2600
2878
3431
4134
4766
5246
5619
5917
6106
6170
6158
6118
6014
5748
5320
4907
4738
4880
5217
5596
5989
6457
7018
7564
7949
8125
8158
8118
7968
7597
6940
6081
5229
4553
4041
3495
2727
1729
706
-165
-934
-1785
-2769
-3711
-4449
-5084
-5849
-6762
-7527
-7907
-8071
-8426
-9092
-9714
-9872
-9615
-9398
-9519
-9775
-9796
-9535
-9303
-9320
-9395
-9191
-8686
-8246
-8171
-8321
-8268
-7790
-7104
-6602
-6439
-6414
-6246
-5865
-5432
-5125
-4959
-4815
-4584
-4273
-3952
-3648
-3339
-3013
-2707
-2499
-2424
-2431
-2437
-2420
-2450
-2607
-2884
-3164
-3330
-3358
-3304
-3221
-3112
-2978
-2874
-2869
-2956
-3039
-3029
-2956
-2942
-3051
-3204
-3258
-3173
-3057
-3046
-3126
-3152
-3019
-2776
-2571
-2481
-2429
-2307
-2113
-1946
-1882
-1892
-1878
-1789
-1666
-1573
-1510
-1411
-1234
-1028
-894
-874
-904
-876
-750
-607
-563
-653
-779
-812
-733
-663
-727
-906
-1048
-1042
-957
-979
-1185
-1443
-1572
-1548
-1546
-1726
-2027
-2202
-2054
-1633
-1162
-874
-869
-1110
-1469
-1811
-2093
-2442
-3045
-3915
-4770
-5241
-5221
-4974
-4833
-4849
-4794
-4514
-4131
-3872
-3782
-3705
-3517
-3284
-3130
-3066
-2992
-2841
-2609
-2285
-1853
-1415
-1191
-1293
-1535
-1580
-1311
-1024
-1109
-1614
-2168
-2337
-1996
-1378
-778
-301
123
568
972
1173
1064
684
150
-469
-1174
-1949
-2664
-3143
-3307
-3271
-3234
-3305
-3440
-3549
-3603
-3652
-3770
-4026
-4479
-5127
-5862
-6486
-6857
-7000
-7082
-7255
-7527
-7778
-7893
-7878
-7854
-7958
-8246
-8664
-9089
-9413
-9603
-9698
-9743
-9725
-9597
-9358
-9130
-9077
-9216
-9344
-9185
-8683
-8077
-7639
-7360
-6962
-6229
-5277
-4471
-4087
-4145
-4504
-5024
-5550
-5852
-5735
-5230
-4602
-4045
-3425
-2425
-950
677
1971
2732
3153
3555
4070
4603
5044
5398
5767
6232
6809
7418
7890
8043
7825
7428
7168
7236
7551
7904
8200
8510
8917
9364
9741
10041
10329
10544
10460
9953
9237
8728
8624
8683
8516
8025
7498
7278
7430
7784
8205
8745
9494
10400
11329
12227
13154
14153
15146
15977
16547
16881
17097
17317
17592
17901
18169
18299
18242
17995
17539
16751
15431
13435
10792
7717
4514
1421
-1467
-4176
-6734
-9048
-10885
-12020
-12437
-12408
-12333
-12461
-12725
-12835
-12539
-11834
-10932
-10020
-9027
-7656
-5660
-3099
-318
2320
4651
6705
8512
10008
11142
11986
12689
13329
13856
14172
14258
14208
14117
13978
13692
13177
12445
11552
10504
9229
7693
6032
4503
3269
2252
1232
148
-806
-1379
-1570
-1644
-1838
-2112
-2256
-2190
-2090
-2171
-2459
-2841
-3250
-3688
-4120
-4372
-4263
-3820
-3309
-3005
-2959
-3004
-2993
-3030
-3444
-4494
-6040
-7504
-8259
-8132
-7540
-7078
-6932
-6764
-6185
-5283
-4608
-4612
-5254
-6145
-7006
-7852
-8759
-9591
-10114
-10274
-10245
-10193
-10117
-9945
-9720
-9529
-9409
-9401
-9674
-10423
-11520
-12378
-12391
-11572
-10599
-10144
-10153
-9949
-9030
-7647
-6549
-6250
-6614
-7144
-7478
-7601
-7659
-7706
-7655
-7387
-6852
-6110
-5297
-4554
-3977
-3598
-3404
-3388
-3538
-3780
-3984
-4074
-4122
-4285
-4639
-5098
-5503
-5785
-6028
-6337
-6703
-7010
-7175
-7231
-7289
-7428
-7642
-7861
-8004
-8036
-7983
-7915
-7871
-7825
-7722
-7544
-7317
-7042
-6686
-6238
-5782
-5449
-5288
-5213
-5085
-4850
-4556
-4256
-3930
-3531
-3058
-2539
-1964
-1278
-471
347
1005
1411
1645
1919
2416
3144
3890
4371
4466
4356
4395
4769
5285
5530
5273
4690
4173
3947
3909
3858
3730
3620
3613
3728
4003
4480
5091
5619
5874
5879
5796
5701
5535
5315
5227
5360
5456
5127
4381
3672
3389
3361
3041
2163
1033
156
-270
-373
-284
3
441
823
977
972
988
1045
917
428
-342
-1137
-1773
-2243
-2621
-2964
-3266
-3471
-3536
-3495
-3456
-3468
-3398
-3036
-2356
-1593
-1011
-631
-266
170
492
454
57
-463
-906
-1297
-1820
-2571
-3442
-4183
-4596
-4696
-4713
-4919
-5395
-5936
-6262
-6321
-6354
-6626
-7140
-7668
-8041
-8344
-8776
-9328
-9724
-9684
-9221
-8635
-8195
-7849
-7297
-6339
-5123
-4018
-3229
-2603
-1796
-638
736
2079
3304
4517
5792
7018
7990
8620
8992
9224
9330
9248
8968
8608
8296
8050
7770
7374
6895
6399
5854
5146
4257
3411
2962
3099
3719
4584
5574
6740
8123
9608
10978
12077
12842
13227
13196
12827
12351
11970
11656
11224
10600
9964
9553
9393
9293
9085
8787
8485
8121
7544
6716
5794
4967
4218
3371
2306
1093
-93
-1155
-2118
-3044
-3938
-4766
-5520
-6229
-6931
-7632
-8307
-8935
-9508
-10037
-10549
-11081
-11646
-12216
-12733
-13161
-13531
-13912
-14352
-14831
-15260
-15574
-15817
-16111
-16530
-17011
-17419
-17706
-17986
-18407
-18947
-19349
-19322
-18795
-17976
-17135
-16368
-15547
-14509
-13264
-12031
-11076
-10499
-10161
-9813
-9279
-8572
-7854
-7280
-6871
-6532
-6171
-5807
-5548
-5480
-5563
-5651
-5602
-5376
-4997
-4481
-3817
-3046
-2341
-1927
-1913
-2169
-2431
-2546
-2589
-2727
-2981
-3141
-2950
-2348
-1526
-739
-82
542
1279
2160
3090
3966
4786
5648
6639
7751
8931
10144
11402
12738
14133
15455
16490
17060
17169
17036
16953
17032
17139
17078
16858
16713
16840
17153
17348
17185
16670
15974
15232
14490
13765
13077
12411
11739
11100
10616
10372
10292
10165
9825
9288
8713
8234
7855
7477
6982
6333
5619
4978
4429
3842
3111
2403
2095
2406
3116
3781
4169
4393
4650
4861
4707
3977
2804
1550
508
-247
-785
-1179
-1472
-1702
-1878
-1938
-1777
-1364
-808
-302
34
238
462
804
1230
1656
2022
2295
2409
2301
2020
1763
1708
1805
1857
1747
1582
1547
1692
1864
1827
1430
661
-351
-1322
-1894
-1847
-1292
-602
-114
118
295
624
1136
1647
1884
1695
1156
519
21
-286
-553
-999
-1762
-2826
-4051
-5273
-6425
-7579
-8866
-10291
-11682
-12776
-13430
-13719
-13821
-13875
-13892
-13860
-13841
-13905
-14025
-14076
-13957
-13717
-13525
-13517
-13671
-13842
-13864
-13679
-13369
-13078
-12869
-12634
-12156
-11332
-10328
-9473
-8959
-8635
-8160
-7374
-6438
-5625
-5025
-4500
-3888
-3177
-2489
-1938
-1543
-1245
-937
-544
-97
278
472
533
639
892
1169
1222
907
287
-414
-915
-965
-464
431
1373
2130
2813
3725
4927
6046
6581
6383
5794
5307
5147
5198
5264
5299
5369
5487
5571
5527
5336
5026
4580
3978
3279
2622
2080
1530
753
-312
-1474
-2529
-3546
-4765
-6172
-7316
-7716
-7391
-6882
-6647
-6594
-6323
-5776
-5428
-5767
-6704
-7658
-8185
-8356
-8507
-8767
-8949
-8852
-8520
-8129
-7760
-7321
-6739
-6115
-5606
-5239
-4883
-4435
-3993
-3764
-3789
-3817
-3514
-2806
-1941
-1184
-508
345
1516
2828
3950
4725
5253
5683
6038
6264
6382
6500
6688
6890
6987
6957
6914
6982
7144
7236
7089
6726
6364
6199
6181
6062
5698
5263
5092
5318
5717
5988
6102
6310
6830
7569
8207
8500
8461
8249
7982
7692
7381
7076
6793
6499
6140
5716
5315
5044
4946
4973
5041
5103
5148
5169
5143
5059
4938
4789
4541
4087
3426
2719
2199
1967
1950
2049
2228
2445
2582
2531
2342
2186
2099
1849
1203
282
-468
-722
-605
-491
-548
-558
-239
416
1161
1816
2419
3027
3526
3730
3616
3386
3228
3108
2835
2328
1752
1342
1193
1199
1217
1206
1200
1229
1280
1337
1400
1449
1415
1229
918
611
407
278
103
-191
-541
-796
-877
-845
-840
-902
-929
-781
-466
-201
-237
-594
-1021
-1241
-1249
-1307
-1611
-2037
-2270
-2178
-1937
-1824
-1898
-1999
-2000
-1928
-1883
-1894
-1929
-1986
-2087
-2196
-2204
-2048
-1786
-1514
-1247
-936
-585
-266
-16
221
496
764
920
946
938
982
1077
1188
1316
1479
1648
1784
1926
2183
2586
2991
3235
3290
3281
3281
3179
2845
2357
1988
1895
1902
1682
1159
675
636
1014
1286
941
10
-965
-1472
-1485
-1362
-1400
-1527
-1489
-1158
-606
-1
500
760
679
269
-319
-912
-1417
-1783
-1918
-1745
-1337
-892
-507
-35
701
1605
2289
2447
2152
1720
1361
1036
648
243
-56
-234
-384
-523
-516
-218
299
781
999
929
712
468
219
-48
-326
-587
-816
-1025
-1204
-1308
-1315
-1277
-1305
-1459
-1702
-1979
-2317
-2773
-3290
-3656
-3723
-3633
-3717
-4132
-4656
-4934
-4912
-4910
-5225
-5763
-6158
-6197
-6073
-6108
-6356
-6567
-6505
-6251
-6095
-6196
-6448
-6636
-6672
-6644
-6682
-6813
-6926
-6879
-6634
-6301
-6024
-5805
-5473
-4886
-4156
-3607
-3477
-3667
-3858
-3868
-3814
-3934
-4303
-4778
-5174
-5433
-5573
-5593
-5515
-5481
-5676
-6116
-6553
-6671
-6387
-5933
-5577
-5321
-4905
-4132
-3106
-2139
-1442
-964
-536
-119
126
39
-325
-720
-940
-998
-1052
-1195
-1372
-1450
-1347
-1091
-766
-464
-246
-134
-72
51
289
578
795
889
943
1089
1348
1598
1699
1631
1485
1349
1223
1021
682
268
-32
-26
298
708
890
727
425
309
472
656
507
-60
-767
-1238
-1331
-1208
-1149
-1300
-1608
-1924
-2150
-2298
-2437
-2626
-2879
-3198
-3567
-3926
-4201
-4403
-4679
-5197
-5896
-6455
-6565
-6221
-5692
-5239
-4895
-4582
-4336
-4271
-4353
-4380
-4266
-4247
-4655
-5444
-6067
-5930
-5002
-3882
-3272
-3356
-3697
-3692
-3122
-2297
-1743
-1772
-2280
-2874
-3192
-3147
-2954
-2946
-3295
-3881
-4356
-4454
-4237
-4002
-3955
-4000
-3888
-3622
-3540
-3922
-4588
-5022
-4913
-4494
-4267
-4444
-4786
-4955
-4876
-4669
-4390
-3996
-3578
-3409
-3626
-3967
-3974
-3522
-3021
-3014
-3595
-4316
-4658
-4516
-4167
-3868
-3636
-3376
-3111
-2958
-2940
-2986
-3143
-3659
-4731
-6148
-7332
-7841
-7768
-7556
-7444
-7233
-6596
-5525
-4383
-3551
-3119
-2914
-2716
-2435
-2133
-1937
-1903
-1907
-1735
-1299
-781
-477
-471
-596
-687
-800
-1070
-1398
-1494
-1201
-688
-270
-104
-157
-389
-827
-1478
-2243
-2978
-3583
-3976
-4047
-3704
-3015
-2173
-1305
-409
480
1146
1307
909
212
-502
-1195
-2031
-3039
-3968
-4504
-4605
-4543
-4631
-4942
-5337
-5701
-6122
-6788
-7748
-8818
-9790
-10742
-12046
-13974
-16281
-18242
-19271
-19453
-19343
-19252
-18824
-17449
-14992
-11994
-9159
-6793
-4824
-3213
-2094
-1525
-1315
-1233
-1246
-1364
-1348
-750
620
2433
4140
5546
6926
8593
10457
12109
13262
14012
14678
15421
16077
16337
16077
15550
15204
15310
15773
16294
17059
17074
16830
17159
18528
19573
20158
19560
19597
21117
22810
22726
20869
22130
27367
32222
29115
16140
-175
-9583
-11011
-9789
-10225
-9791
-3712
6232
12197
7095
-4000
-11735
-9467
-2002
3862
3902
2094
506
-1390
-6127
-10783
-9774
-909
11639
17997
12068
-513
-8602
-5096
5607
13419
10559
-1133
-10208
-7669
5116
19621
25295
18349
5669
-3345
-5024
-1145
884
-1331
-5319
-4758
-366
5511
6233
2316
-3540
-5915
-4758
-1412
1606
3716
5005
4144
783
-4266
-5941
-2334
3434
5954
2953
-884
-1511
1989
4031
-816
-12176
-23223
-29050
-27117
-19611
-9768
-975
4273
1831
-7565
-19220
-25159
-20078
-6139
5456
5853
-5285
-18596
-23927
-19416
-11237
-5119
-1131
2832
5405
1984
-8506
-20424
-25773
-21568
-11446
-1585
3289
822
-7946
-17883
-21311
-14774
-3349
3221
118
-8354
-14771
-17047
-18189
-19636
-18140
-11241
-3234
-1920
-9021
-17691
-20193
-16923
-14251
-15508
-16864
-13808
-8424
-7231
-12060
-17240
-16564
-11363
-8655
-11621
-15513
-14543
-9706
-7675
-11313
-15922
-15430
-10453
-7442
-9985
-14040
-13224
-7190
-2551
-5002
-12936
-19054
-18143
-11710
-5568
-4009
-6537
-9447
-9995
-8549
-7740
-8975
-10550
-9062
-3234
3804
6578
1923
-8199
-18262
-22885
-19948
-11125
-161
8564
11856
8831
1365
-6765
-12042
-12618
-8836
-2810
2735
5794
5909
4046
1738
221
93
1407
3800
6509
8534
9149
8413
7134
6195
5925
6078
6353
6763
7478
8411
9163
9410
9231
8979
8896
8903
8751
8327
7729
7136
6688
6481
6563
6868
7257
7628
8004
8465
9001
9493
9831
9991
10012
10003
10189
10861
12111
13616
14854
15629
16294
17323
18683
19795
20152
19866
19531
19616
20075
20545
20783
20818
20783
20734
20649
20527
20395
20252
20029
19641
19073
18394
17732
17175
16690
16138
15405
14527
13654
12884
12154
11302
10219
8931
7517
6001
4340
2514
604
-1229
-2847
-4234
-5460
-6597
-7627
-8457
-9050
-9539
-10157
-11034
-12056
-12943
-13502
-13779
-13980
-14246
-14517
-14597
-14316
-13657
-12755
-11836
-11076
-10443
-9695
-8582
-7106
-5554
-4219
-3076
-1810
-142
1890
3997
5961
7794
9620
11449
13154
14610
15805
16786
17552
18038
18227
18195
18026
17726
17238
16545
15725
14880
14054
13228
12377
11491
10558
9579
8630
7849
7292
6805
6093
4963
3485
1892
321
-1299
-3110
-5125
-7216
-9262
-11245
-13199
-15122
-16970
-18719
-20372
-21918
-23294
-24427
-25304
-25972
-26494
-26919
-27278
-27568
-27751
-27784
-27686
-27540
-27426
-27342
-27216
-27000
-26704
-26348
-25924
-25431
-24933
-24531
-24245
-23961
-23529
-22905
-22176
-21456
-20781
-20123
-19448
-18751
-18023
-17228
-16345
-15391
-14399
-13352
-12184
-10843
-9381
-7941
-6652
-5515
-4395
-3156
-1808
-508
602
1567
2593
3848
5292
6723
7998
9164
10370
11672
12988
14179
15169
15962
16612
17177
17695
18189
18646
19059
19430
19755
19984
20024
19835
19532
19306
19256
19302
19297
19240
19302
19654
20243
20817
21147
21187
21053
20882
20724
20559
20326
19951
19402
18752
18169
17791
17570
17296
16788
16084
15427
15041
14926
14869
14703
14472
14361
14458
14643
14750
14751
14735
14769
14806
14762
14660
14634
14770
14995
15149
15140
14956
14609
14074
13333
12472
11695
11180
10926
10758
10492
10115
9793
9709
9857
9978
9706
8801
7324
5628
4142
3090
2390
1816
1329
1150
1539
2431
3409
4025
4161
4025
3832
3538
2925
1918
759
-162
-636
-790
-908
-1101
-1180
-915
-349
191
364
86
-452
-998
-1434
-1792
-2137
-2518
-2927
-3304
-3578
-3762
-3991
-4405
-5008
-5686
-6352
-7041
-7803
-8605
-9395
-10231
-11230
-12360
-13364
-13986
-14271
-14558
-15134
-15930
-16621
-16952
-16954
-16834
-16741
-16678
-16604
-16530
-16502
-16513
-16520
-16522
-16611
-16901
-17334
-17611
-17399
-16643
-15654
-14857
-14440
-14220
-13889
-13352
-12823
-12601
-12778
-13147
-13387
-13337
-13071
-12736
-12323
-11648
-10611
-9444
-8593
-8265
-8153
-7706
-6722
-5597
-4910
-4833
-4963
-4756
-4077
-3261
-2746
-2657
-2767
-2756
-2495
-2085
-1691
-1419
-1257
-1129
-983
-792
-507
-71
526
1192
1784
2235
2618
3032
3442
3691
3685
3576
3691
4196
4900
5395
5458
5266
5171
5272
5280
4810
3797
2611
1721
1300
1148
953
612
300
252
465
671
551
31
-669
-1262
-1671
-2074
-2655
-3364
-3956
-4245
-4269
-4164
-3967
-3586
-2968
-2200
-1420
-673
59
683
993
899
614
483
628
866
1025
1264
1925
3087
4397
5435
6175
6965
8023
9129
9852
10055
9995
10000
10113
10130
9933
9637
9405
9251
9086
8890
8756
8751
8806
8803
8718
8618
8543
8427
8216
7973
7793
7632
7314
6782
6280
6180
6585
7186
7564
7594
7521
7624
7879
8003
7743
7083
6196
5264
4386
3619
3016
2613
2404
2371
2501
2744
2994
3100
2959
2610
2202
1867
1607
1345
1078
941
1081
1459
1827
1954
1852
1739
1762
1816
1642
1126
463
-17
-156
-102
-122
-278
-332
-10
669
1360
1735
1840
1987
2337
2693
2780
2632
2551
2713
2952
3000
2874
2859
3121
3501
3696
3615
3445
3392
3439
3414
3212
2911
2667
2547
2477
2364
2192
2016
1879
1753
1584
1359
1109
850
571
288
57
-93
-230
-462
-794
-1082
-1184
-1128
-1095
-1194
-1339
-1368
-1266
-1173
-1211
-1332
-1393
-1356
-1339
-1449
-1595
-1538
-1132
-494
89
465
743
1140
1703
2228
2486
2476
2412
2468
2605
2671
2633
2635
2788
3004
3085
2974
2859
2983
3348
3693
3766
3612
3509
3649
3927
4100
4074
3956
3852
3691
3381
3035
2940
3226
3639
3793
3619
3471
3722
4310
4793
4823
4489
4151
4024
4030
3990
3856
3695
3544
3346
3075
2872
2922
3231
3558
3626
3384
3091
3066
3322
3523
3348
2856
2443
2379
2503
2419
1983
1452
1126
996
864
739
930
1641
2624
3403
3782
4003
4342
4689
4635
3947
2866
1881
1288
1069
1059
1156
1400
1918
2769
3816
4726
5147
4994
4513
4019
3544
2876
1891
794
-49
-489
-704
-932
-1175
-1261
-1131
-951
-932
-1096
-1300
-1463
-1690
-2139
-2811
-3536
-4161
-4677
-5192
-5755
-6278
-6666
-6954
-7301
-7820
-8445
-8979
-9300
-9478
-9681
-10000
-10367
-10684
-10961
-11290
-11712
-12130
-12413
-12536
-12612
-12750
-12935
-13053
-13020
-12883
-12764
-12733
-12741
-12676
-12465
-12131
-11759
-11413
-11086
-10735
-10338
-9944
-9634
-9418
-9218
-8954
-8624
-8325
-8149
-8086
-8048
-7915
-7589
-7011
-6214
-5354
-4661
-4276
-4100
-3880
-3466
-2995
-2768
-2936
-3312
-3530
-3378
-2955
-2527
-2263
-2130
-1996
-1795
-1574
-1419
-1355
-1348
-1356
-1370
-1404
-1448
-1444
-1340
-1174
-1066
-1133
-1387
-1708
-1937
-2013
-2026
-2121
-2352
-2625
-2790
-2801
-2740
-2713
-2727
-2701
-2612
-2558
-2670
-2960
-3303
-3580
-3799
-4068
-4457
-4902
-5257
-5409
-5372
-5272
-5250
-5362
-5523
-5577
-5446
-5216
-5057
-5056
-5133
-5130
-4984
-4770
-4603
-4532
-4554
-4643
-4773
-4905
-5026
-5200
-5515
-5963
-6406
-6700
-6845
-6964
-7128
-7268
-7290
-7220
-7187
-7257
-7382
-7501
-7640
-7837
-8009
-7989
-7718
-7345
-7085
-7000
-6961
-6829
-6625
-6500
-6554
-6729
-6862
-6822
-6573
-6151
-5610
-4999
-4380
-3819
-3344
-2901
-2404
-1844
-1336
-1027
-929
-878
-684
-306
135
520
858
1251
1750
2286
2734
3043
3261
3447
3597
3655
3592
3451
3322
3284
3364
3538
3734
3850
3774
3462
2985
2459
1925
1315
582
-143
-588
-561
-146
371
781
1130
1586
2148
2533
2400
1673
610
-459
-1461
-2587
-3966
-5417
-6572
-7251
-7636
-8052
-8640
-9281
-9849
-10393
-11072
-11987
-13095
-14260
-15296
-15984
-16168
-15892
-15432
-15107
-15022
-15007
-14851
-14583
-14535
-15088
-16304
-17751
-18726
-18754
-17965
-16956
-16204
-15602
-14634
-13017
-11099
-9592
-8960
-9117
-9678
-10374
-11130
-11847
-12268
-12147
-11478
-10498
-9434
-8315
-7066
-5730
-4587
-4011
-4214
-5097
-6301
-7435
-8308
-8981
-9653
-10434
-11248
-12336
-12316
-12211
-12457
-13442
-14595
-15777
-16206
-17987
-21005
-23295
-23203
-22291
-24813
-30030
31902
-29297
-17017
-2781
7387
12250
13653
12182
6990
-532
-5739
-5054
-352
2560
199
-4987
-8919
-8085
-3075
1804
775
-9458
-21452
-25926
-15650
2329
13895
11418
3628
1818
8417
12192
5314
-6207
-10890
-6403
-1416
-2288
-4351
307
10101
14432
10091
4127
6156
14207
17663
11633
2908
2055
8109
10936
3731
-6410
-8510
-331
8875
8924
1433
-5090
-3976
-206
-1963
-9429
-13230
-7565
2146
4297
-1970
-7791
-1725
15263
31250
32542
17244
-5035
-23725
-30712
-23216
-6889
8922
16417
12301
2476
-4756
-4140
1000
6050
5144
-1676
-9299
-10901
-4846
5263
10873
8323
215
-7546
-11552
-10288
-6412
-1733
1954
2914
827
-2901
-5998
-6716
-5147
-2313
-536
991
34
-1791
-3645
-4692
-5384
-3886
-2646
-1275
-445
-332
-1121
-2360
-3147
-2768
-1434
-496
-761
-1057
-23
1671
2037
551
-286
2615
5796
4565
-3070
-11728
-13571
-5329
6550
15140
16512
11766
4209
-1321
-2258
2942
9334
8668
-3357
-20641
32386
-32727
-21639
-8370
23
1380
-1701
-7446
-12399
-14539
-13040
-9238
-4919
-3415
-4452
-7063
-9709
-11122
-10902
-9524
-7864
-6648
-6172
-6367
-6951
-7523
-7646
-7047
-5841
-4521
-3621
-3339
-3463
-3674
-3845
-4052
-4368
-4730
-5007
-5137
-5145
-5082
-4980
-4884
-4849
-4918
-5100
-5413
-5901
-6576
-7354
-8073
-8600
-8908
-9036
-8988
-8733
-8315
-7910
-7699
-7671
-7604
-7333
-6997
-6946
-7359
-8002
-8430
-8421
-8168
-7996
-8016
-8059
-7934
-7668
-7469
-7503
-7748
-8017
-8107
-7951
-7713
-7698
-8099
-8794
-9449
-9851
-10133
-10599
-11358
-12180
-12734
-12884
-12753
-12524
-12298
-12118
-12024
-12018
-11995
-11833
-11546
-11299
-11209
-11204
-11087
-10735
-10188
-9535
-8830
-8117
-7480
-6997
-6654
-6316
-5851
-5247
-4604
-4006
-3421
-2701
-1688
-327
1269
2894
4425
5950
7654
9558
11400
12839
13766
14363
14881
15404
15854
16160
16349
16492
16640
16861
17250
17807
18341
18587
18464
18198
18101
18248
18403
18292
17850
17234
16606
15994
15305
14473
13500
12415
11251
10058
8902
7803
6672
5365
3829
2171
572
-869
-2196
-3522
-4890
-6217
-7389
-8364
-9198
-9984
-10808
-11736
-12766
-13739
-14369
-14436
-13984
-13261
-12403
-11232
-9455
-7049
-4412
-2074
-288
1091
2337
3540
4565
5231
5530
5682
6014
6757
7891
9160
10290
11208
12055
12977
13902
14558
14698
14284
13464
12405
11209
9954
8776
7852
7285
7042
6989
7020
7128
7327
7537
7567
7234
6523
5599
4671
3860
3187
2655
2253
1935
1635
1326
1061
902
797
576
91
-649
-1480
-2241
-2910
-3600
-4417
-5326
-6156
-6721
-6956
-6949
-6855
-6768
-6676
-6517
-6276
-6022
-5864
-5885
-6119
-6534
-7028
-7457
-7736
-7926
-8186
-8614
-9129
-9543
-9752
-9828
-9892
-9956
-9906
-9642
-9192
-8695
-8280
-7990
-7803
-7701
-7697
-7801
-7966
-8084
-8067
-7949
-7888
-8033
-8387
-8826
-9270
-9804
-10534
-11367
-11990
-12111
-11717
-11023
-10198
-9214
-7980
-6580
-5276
-4274
-3542
-2905
-2284
-1787
-1550
-1532
-1528
-1365
-1073
-815
-682
-593
-416
-138
131
300
421
622
961
1371
1729
1970
2103
2172
2236
2358
2567
2823
3034
3156
3237
3358
3510
3562
3370
2926
2402
2013
1877
1993
2306
2770
3362
4074
4897
5737
6385
6614
6342
5717
5012
4439
4079
3924
3922
3992
4047
4106
4322
4792
5307
5433
4918
4028
3318
3135
3366
3700
4004
4376
4900
5490
6023
6465
6823
6990
6811
6351
5960
5941
6202
6298
5908
5247
4910
5317
6273
7139
7443
7325
7328
7785
8419
8612
8020
6881
5716
4852
4203
3520
2709
1906
1293
909
655
407
78
-385
-1019
-1881
-3037
-4501
-6201
-7956
-9586
-11058
-12493
-14010
-15562
-16917
-17864
-18418
-18794
-19175
-19557
-19786
-19796
-19768
-19999
-20585
-21288
-21743
-21797
-21560
-21206
-20747
-20095
-19266
-18403
-17571
-16660
-15561
-14425
-13592
-13229
-13119
-12862
-12269
-11525
-10933
-10588
-10305
-9798
-8936
-7836
-6703
-5643
-4584
-3385
-2007
-548
919
2446
4113
5804
7210
8073
8402
8426
8320
8056
7512
6647
5541
4333
3185
2256
1642
1324
1202
1226
1428
1799
2209
2513
2726
2989
3358
3690
3832
3867
4065
4560
5171
5592
5724
5713
5681
5523
5043
4248
3400
2718
2124
1356
279
-929
-1966
-2754
-3521
-4523
-5717
-6755
-7338
-7513
-7580
-7731
-7839
-7647
-7116
-6496
-6048
-5784
-5507
-5103
-4685
-4445
-4418
-4468
-4462
-4396
-4316
-4202
-3984
-3648
-3262
-2872
-2419
-1792
-982
-135
564
1064
1490
1991
2570
3077
3395
3629
4053
4854
5945
7029
7891
8592
9364
10312
11279
12014
12464
12802
13219
13704
14094
14285
14351
14392
14368
14151
13760
13415
13276
13192
12819
12009
11023
10278
9904
9639
9159
8445
7751
7243
6807
6256
5592
4985
4523
4083
3521
2902
2432
2206
2097
1921
1658
1429
1325
1289
1212
1063
894
742
604
486
410
367
308
227
191
254
361
369
197
-74
-293
-380
-385
-381
-376
-336
-278
-253
-268
-267
-205
-118
-101
-194
-322
-360
-235
11
260
420
482
502
575
770
1111
1542
1920
2089
2026
1903
1938
2170
2407
2408
2165
1919
1880
2014
2152
2248
2402
2652
2837
2789
2599
2551
2736
2859
2548
1816
1097
772
787
788
555
220
37
65
132
44
-211
-510
-753
-970
-1294
-1832
-2492
-2976
-2988
-2544
-1994
-1686
-1620
-1478
-990
-209
601
1290
1914
2527
3052
3372
3511
3589
3602
3360
2705
1733
772
145
-48
72
285
396
325
172
132
316
587
599
95
-821
-1721
-2208
-2248
-2153
-2254
-2616
-3021
-3204
-3084
-2813
-2620
-2578
-2550
-2347
-1904
-1339
-820
-449
-263
-306
-607
-1062
-1379
-1282
-765
-68
615
1318
2183
3222
4277
5212
6012
6664
7042
6997
6620
6272
6286
6681
7171
7460
7528
7636
8092
8963
10002
10827
11212
11261
11264
11408
11648
11822
11845
11736
11530
11263
11025
10916
10908
10771
10223
9190
7869
6504
5136
3627
1909
109
-1578
-3084
-4444
-5664
-6690
-7536
-8366
-9351
-10461
-11476
-12252
-12902
-13673
-14661
-15704
-16553
-17096
-17405
-17617
-17824
-18037
-18197
-18230
-18127
-17971
-17870
-17847
-17834
-17786
-17738
-17721
-17651
-17370
-16813
-16070
-15287
-14557
-13964
-13615
-13522
-13516
-13377
-13083
-12854
-12852
-12898
-12603
-11777
-10626
-9503
-8546
-7619
-6583
-5528
-4682
-4146
-3804
-3466
-3045
-2557
-2031
-1450
-776
12
932
1992
3146
4244
5097
5631
5982
6367
6858
7328
7640
7829
8018
8218
8305
8225
8172
8387
8803
9031
8762
8139
7621
7505
7662
7750
7587
7261
6959
6797
6803
6914
6910
6521
5678
4652
3814
3223
2585
1674
658
-90
-439
-618
-852
-1063
-1066
-949
-1043
-1518
-2139
-2568
-2794
-3126
-3750
-4447
-4862
-4926
-4903
-5056
-5352
-5571
-5610
-5608
-5777
-6153
-6544
-6719
-6586
-6241
-5868
-5577
-5308
-4904
-4253
-3397
-2482
-1655
-1033
-719
-790
-1210
-1815
-2477
-3238
-4251
-5516
-6777
-7702
-8174
-8362
-8511
-8697
-8839
-8891
-8964
-9210
-9656
-10203
-10763
-11307
-11799
-12200
-12526
-12858
-13225
-13490
-13458
-13159
-12899
-12949
-13192
-13218
-12800
-12165
-11712
-11538
-11366
-10929
-10314
-9811
-9499
-9145
-8514
-7654
-6819
-6159
-5574
-4877
-4036
-3201
-2528
-2041
-1649
-1268
-882
-527
-218
89
494
1057
1737
2429
3029
3438
3544
3285
2715
2002
1301
659
44
-491
-773
-654
-185
409
925
1299
1546
1669
1683
1684
1808
2077
2379
2628
2902
3305
3756
4003
3907
3649
3562
3794
4202
4576
4850
5074
5254
5329
5269
5073
4691
4103
3475
3170
3451
4199
5031
5704
6309
7031
7822
8452
8824
9107
9453
9758
9804
9578
9318
9194
9044
8508
7430
6030
4709
3736
3124
2736
2459
2283
2235
2277
2274
2071
1622
1005
308
-492
-1490
-2692
-3970
-5596
-6274
-7105
-8484
-10685
-13012
-14786
-17121
-19479
-22322
-24181
-24725
-25328
-28145
-31507
32359
-29523
-19421
-4884
9255
16489
14814
5388
-5335
-11231
-10105
-4975
1431
5223
5279
2197
-1341
-2848
-2867
-2703
-5088
-8390
-7932
-2646
5284
9156
6960
514
-4456
-4851
-875
4236
6934
2876
-5862
-12559
-9239
4910
21544
27768
18964
2776
-6013
-1360
9410
14292
7764
-3641
-8805
-5290
1212
4537
4631
4697
3575
-864
-11274
-20291
-19900
-9125
3562
9225
4408
-7430
-17861
-22353
-19076
-9844
1300
8365
9152
4027
-1914
-4281
-2312
1071
3313
3326
769
-1879
-4545
-4643
-2637
755
3259
4531
3439
1064
-1635
-2962
-3227
-1514
255
1800
2304
1478
-293
-1682
-2068
-1055
23
388
753
2696
3444
1056
-3297
-4397
220
5263
-529
-17858
31530
32347
-13993
9296
19536
16336
11644
14754
22434
26594
23814
19562
19211
21212
19612
13047
4910
671
3519
11891
20557
22916
16598
4249
-5917
-7325
-253
9061
14595
14522
10654
4777
-1887
-7569
-9600
-6082
1534
8802
11178
7442
11
-7441
-12543
-14911
-15011
-13001
-9480
-6433
-6371
-9993
-14347
-15325
-11763
-7034
-5203
-6736
-8183
-6785
-3835
-3562
-8457
-16895
-24390
-27188
-24061
-16473
-7380
-375
1860
-1292
-7932
-14618
-18514
-18529
-15375
-10931
-7299
-5946
-7195
-10272
-13776
-16373
-17315
-16626
-14951
-13183
-12082
-11993
-12770
-13939
-14963
-15477
-15406
-14940
-14413
-14113
-14145
-14419
-14754
-15028
-15218
-15337
-15362
-15265
-15094
-14995
-15110
-15453
-15905
-16341
-16748
-17204
-17743
-18274
-18636
-18750
-18678
-18550
-18425
-18254
-17993
-17681
-17411
-17217
-17023
-16751
-16433
-16197
-16131
-16190
-16262
-16291
-16306
-16346
-16388
-16381
-16330
-16322
-16441
-16698
-17034
-17394
-17752
-18078
-18330
-18477
-18508
-18407
-18116
-17557
-16724
-15752
-14834
-14069
-13365
-12537
-11477
-10252
-9026
-7887
-6775
-5594
-4331
-3047
-1785
-537
688
1813
2767
3607
4489
5476
6408
7057
7369
7513
7648
7707
7462
6806
5912
5113
4638
4513
4667
5096
5874
7063
8610
10316
11904
13156
13996
14459
14596
14428
13990
13401
12844
12461
12292
12329
12598
13126
13825
14479
14875
14945
14745
14342
13734
12991
12369
12202
12617
13368
14017
14312
14378
14509
14779
14888
14413
13204
11510
9755
8239
7033
6093
5376
4837
4381
3894
3338
2737
2082
1272
135
-1425
-3322
-5297
-7062
-8467
-9590
-10642
-11763
-12932
-14027
-14964
-15687
-16102
-16123
-15814
-15421
-15121
-14787
-14081
-12832
-11249
-9731
-8507
-7523
-6618
-5671
-4600
-3350
-1986
-700
408
1533
3001
4878
6822
8393
9520
10524
11713
13075
14372
15422
16218
16806
17175
17283
17134
16754
16116
15152
13851
12285
10531
8624
6600
4562
2628
837
-864
-2541
-4201
-5807
-7343
-8823
-10246
-11582
-12853
-14156
-15598
-17165
-18716
-20117
-21363
-22567
-23813
-25053
-26137
-26914
-27296
-27262
-26855
-26160
-25219
-23982
-22358
-20357
-18196
-16184
-14496
-13054
-11662
-10249
-8939
-7881
-7054
-6261
-5304
-4124
-2828
-1586
-562
115
374
221
-284
-1077
-2122
-3386
-4788
-6212
-7530
-8653
-9524
-10135
-10564
-10961
-11457
-12092
-12808
-13547
-14305
-15109
-15948
-16760
-17495
-18158
-18780
-19354
-19827
-20158
-20368
-20515
-20629
-20671
-20560
-20240
-19744
-19168
-18563
-17872
-16986
-15873
-14637
-13414
-12231
-10997
-9636
-8210
-6855
-5637
-4495
-3342
-2181
-1094
-122
779
1675
2583
3478
4344
5183
6003
6814
7639
8518
9464
10420
11274
11921
12330
12566
12730
12919
13165
13415
13576
13597
13525
13473
13491
13508
13363
12920
12221
11495
11022
10980
11346
11942
12574
13155
13722
14342
14977
15407
15305
14477
13087
11603
10487
9863
9525
9279
9247
9734
10837
12259
13533
14395
14834
14895
14548
13825
12974
12302
11899
11617
11336
11176
11370
11934
12613
13131
13390
13432
13280
12912
12373
11790
11250
10735
10189
9620
9069
8513
7834
6924
5736
4253
2524
718
-874
-2078
-3051
-4157
-5571
-7049
-8166
-8780
-9189
-9790
-10643
-11438
-11841
-11791
-11502
-11231
-11103
-11117
-11222
-11379
-11581
-11870
-12299
-12869
-13478
-13971
-14236
-14273
-14172
-14027
-13884
-13735
-13580
-13467
-13440
-13476
-13447
-13236
-12841
-12376
-11926
-11435
-10797
-10019
-9242
-8581
-8011
-7428
-6778
-6092
-5451
-4942
-4666
-4650
-4704
-4467
-3699
-2547
-1418
-570
128
974
2033
3024
3583
3583
3189
2690
2313
2167
2254
2497
2795
3103
3469
3954
4520
5001
5223
5187
5105
5241
5709
6410
7196
8072
9178
10567
12030
13225
13986
14465
14933
15480
15969
16242
16309
16313
16375
16492
16581
16584
16507
16381
16176
15792
15155
14337
13560
13022
12676
12240
11469
10414
9350
8444
7559
6393
4810
2984
1219
-320
-1677
-2966
-4209
-5346
-6342
-7216
-8004
-8691
-9233
-9613
-9846
-9931
-9815
-9453
-8868
-8152
-7387
-6589
-5736
-4842
-3984
-3237
-2594
-1984
-1341
-639
111
891
1673
2419
3109
3743
4319
4839
5314
5763
6175
6482
6614
6606
6602
6708
6861
6888
6702
6411
6207
6150
6128
6018
5861
5833
6057
6459
6843
7090
7279
7583
8046
8501
8715
8602
8285
7940
7618
7235
6693
5999
5242
4524
3902
3380
2911
2429
1886
1318
794
341
-81
-509
-923
-1271
-1548
-1823
-2145
-2489
-2796
-3049
-3273
-3487
-3688
-3870
-4043
-4204
-4314
-4338
-4302
-4255
-4195
-4066
-3861
-3710
-3760
-3973
-4117
-4018
-3787
-3705
-3882
-4117
-4150
-3990
-3895
-4026
-4244
-4303
-4176
-4076
-4147
-4272
-4251
-4083
-3994
-4153
-4485
-4786
-4945
-5031
-5157
-5355
-5578
-5763
-5863
-5855
-5768
-5680
-5667
-5728
-5774
-5728
-5621
-5565
-5631
-5775
-5883
-5888
-5830
-5815
-5910
-6060
-6148
-6116
-6027
-5979
-5968
-5889
-5679
-5427
-5309
-5372
-5465
-5406
-5181
-4965
-4916
-5014
-5095
-5036
-4858
-4670
-4556
-4522
-4531
-4543
-4534
-4495
-4435
-4383
-4376
-4421
-4481
-4489
-4401
-4240
-4082
-4004
-4016
-4063
-4083
-4053
-4008
-3995
-3998
-3957
-3828
-3598
-3301
-2971
-2614
-2225
-1815
-1394
-985
-624
-337
-95
226
754
1473
2189
2714
3091
3551
4231
4960
5421
5509
5471
5625
6013
6361
6424
6274
6210
6424
6825
7155
7275
7286
7375
7618
7915
8107
8151
8150
8193
8248
8209
8049
7872
7785
7731
7563
7254
6965
6862
6910
6891
6682
6411
6294
6381
6522
6588
6625
6760
7021
7296
7453
7441
7278
6994
6648
6343
6150
5992
5704
5248
4826
4723
5040
5599
6134
6485
6648
6660
6504
6120
5449
4477
3245
1885
608
-378
-963
-1187
-1200
-1150
-1090
-972
-740
-462
-349
-621
-1314
-2218
-3039
-3652
-4175
-4805
-5590
-6364
-6924
-7241
-7481
-7800
-8159
-8380
-8364
-8224
-8147
-8185
-8223
-8157
-8065
-8134
-8447
-8870
-9179
-9269
-9222
-9185
-9222
-9284
-9294
-9227
-9090
-8908
-8685
-8436
-8204
-8032
-7908
-7750
-7489
-7167
-6903
-6755
-6634
-6395
-6007
-5604
-5328
-5185
-5078
-4979
-4976
-5138
-5380
-5530
-5522
-5459
-5456
-5483
-5412
-5202
-4973
-4870
-4918
-5027
-5136
-5277
-5489
-5707
-5799
-5715
-5538
-5392
-5306
-5224
-5107
-4991
-4938
-4963
-5016
-5039
-5014
-4959
-4886
-4793
-4679
-4563
-4459
-4362
-4246
-4086
-3897
-3737
-3653
-3638
-3612
-3519
-3395
-3337
-3381
-3446
-3443
-3394
-3405
-3483
-3482
-3271
-2953
-2813
-3008
-3378
-3610
-3608
-3588
-3816
-4305
-4819
-5152
-5316
-5446
-5619
-5802
-5967
-6145
-6363
-6564
-6658
-6643
-6618
-6670
-6780
-6852
-6821
-6699
-6531
-6336
-6102
-5829
-5553
-5320
-5128
-4911
-4575
-4083
-3500
-2947
-2493
-2076
-1571
-933
-260
309
751
1168
1663
2234
2803
3328
3861
4453
5060
5597
6059
6516
6997
7422
7700
7842
7933
7981
7863
7475
6895
6312
5790
5176
4294
3218
2244
1616
1276
943
412
-278
-948
-1492
-1961
-2465
-3040
-3632
-4167
-4605
-4931
-5131
-5185
-5113
-4996
-4928
-4959
-5075
-5250
-5507
-5912
-6466
-7045
-7478
-7696
-7747
-7702
-7555
-7298
-7006
-6822
-6820
-6949
-7157
-7502
-8061
-8769
-9431
-9918
-10269
-10543
-10588
-10072
-8824
-7106
-5442
-4165
-3186
-2216
-1207
-480
-435
-1145
-2276
-3351
-4100
-4547
-4843
-5092
-5301
-5422
-5375
-5031
-4295
-3235
-2080
-998
113
1521
3322
5256
6947
8281
9468
10702
11857
12586
12740
12595
12605
13005
13663
14237
14491
14446
14300
14219
14178
13980
13433
12528
11438
10349
9274
8059
6556
4751
2720
516
-1838
-4395
-7174
-10023
-12652
-14878
-16816
-18725
-20612
-22126
-22983
-23342
-23471
-23016
-21081
-16955
-12716
-9739
-8013
-6194
-4335
-2470
-2475
-3501
-4632
-5576
-5978
-5824
-1535
7322
16077
17296
8512
-3935
-10729
-9178
-5699
-5427
-8215
-7269
1014
12515
18417
14799
2147
-13166
-23679
-24028
-14671
-3171
3045
308
-6839
-10290
-7064
-598
5264
7470
5277
1563
-978
-692
967
-744
-6340
-12552
-12710
-4631
6694
14033
14101
8638
1178
-3685
-3812
2037
8836
8429
-3332
-20228
-32231
-31282
-19709
-5899
3293
5834
4230
-3
-3632
-4660
-2085
2987
8840
11973
12368
10793
8801
7828
8424
10132
11973
13070
13014
11890
10120
8270
6826
5971
5492
4958
4067
2856
1605
597
-63
-438
-682
-951
-1347
-1875
-2443
-2935
-3309
-3605
-3859
-4032
-4051
-3912
-3710
-3553
-3477
-3457
-3453
-3428
-3345
-3189
-2990
-2809
-2670
-2540
-2400
-2318
-2391
-2632
-2950
-3266
-3617
-4069
-4547
-4838
-4823
-4681
-4742
-5156
-5750
-6251
-6600
-6998
-7647
-8502
-9318
-9891
-10201
-10355
-10467
-10602
-10791
-11025
-11220
-11265
-11113
-10826
-10491
-10154
-9794
-9345
-8730
-7902
-6949
-6137
-5759
-5867
-6170
-6290
-6160
-6096
-6432
-7122
-7764
-8050
-8088
-8235
-8668
-9180
-9419
-9281
-9000
-8896
-9058
-9298
-9393
-9326
-9272
-9363
-9519
-9536
-9333
-9043
-8825
-8668
-8434
-8102
-7871
-7954
-8302
-8647
-8790
-8810
-8891
-9036
-9047
-8789
-8369
-7992
-7694
-7325
-6791
-6223
-5846
-5688
-5544
-5187
-4584
-3914
-3374
-3008
-2704
-2312
-1773
-1173
-676
-373
-218
-91
82
277
454
624
850
1183
1652
2286
3114
4116
5225
6379
7550
8715
9824
10828
11755
12683
13647
14580
15397
16115
16845
17664
18517
19259
19777
20048
20116
20054
19896
19615
19176
18596
17945
17280
16593
15853
15059
14201
13179
11849
10220
8555
7164
6083
5024
3700
2172
799
-137
-726
-1333
-2270
-3542
-4889
-6006
-6756
-7238
-7678
-8238
-8895
-9504
-9970
-10359
-10810
-11397
-12086
-12806
-13537
-14265
-14898
-15336
-15590
-15782
-16026
-16319
-16584
-16779
-16914
-17022
-17116
-17224
-17363
-17432
-17204
-16508
-15465
-14434
-13685
-13125
-12433
-11418
-10198
-9011
-7949
-6928
-5852
-4708
-3489
-2126
-553
1168
2851
4360
5705
6995
8305
9585
10706
11559
12115
12449
12694
12934
13147
13247
13178
12956
12626
12210
11709
11136
10521
9892
9244
8555
7827
7098
6436
5898
5491
5128
4679
4077
3355
2567
1678
580
-751
-2156
-3413
-4431
-5264
-5961
-6459
-6683
-6708
-6723
-6835
-6941
-6899
-6745
-6679
-6835
-7118
-7309
-7284
-7077
-6746
-6270
-5610
-4799
-3900
-2866
-1535
180
2136
4022
5589
6771
7610
8144
8364
8252
7799
6985
5816
4407
2984
1730
597
-664
-2275
-4217
-6245
-8099
-9694
-11078
-12295
-13287
-13927
-14139
-13964
-13528
-12970
-12405
-11924
-11603
-11455
-11377
-11213
-10893
-10489
-10109
-9742
-9246
-8533
-7715
-6996
-6433
-5863
-5109
-4190
-3279
-2456
-1590
-523
670
1687
2277
2489
2598
2767
2898
2793
2465
2208
2341
2900
3600
4121
4420
4743
5315
6062
6663
6851
6651
6319
6093
6036
6113
6302
6578
6830
6924
6852
6797
6935
7190
7246
6890
6284
5872
5990
6572
7288
7892
8412
9029
9784
10480
10839
10737
10260
9593
8887
8233
7716
7423
7371
7455
7496
7402
7244
7137
7058
6858
6445
5949
5657
5731
6031
6272
6316
6253
6200
6124
5912
5578
5257
5022
4770
4424
4135
4149
4456
4705
4563
4076
3582
3281
2985
2407
1550
696
-12
-775
-1825
-3023
-3943
-4395
-4706
-5361
-6393
-7283
-7544
-7305
-7172
-7554
-8250
-8755
-8851
-8789
-8922
-9306
-9753
-10179
-10761
-11637
-12639
-13431
-13906
-14327
-14991
-15789
-16203
-15802
-14702
-13451
-12482
-11733
-10804
-9456
-7883
-6514
-5607
-5065
-4611
-4080
-3512
-3064
-2857
-2909
-3153
-3513
-3946
-4420
-4871
-5208
-5401
-5502
-5573
-5592
-5446
-5072
-4572
-4156
-3961
-4004
-4243
-4629
-5084
-5453
-5566
-5379
-4984
-4490
-3873
-3048
-2040
-1061
-380
-99
-59
4
277
761
1355
1972
2601
3287
4093
5040
6052
6964
7629
8039
8305
8524
8647
8508
7974
7076
5964
4755
3474
2090
622
-836
-2147
-3196
-3948
-4478
-4917
-5362
-5832
-6323
-6869
-7508
-8193
-8775
-9108
-9170
-9003
-8572
-7757
-6512
-5015
-3587
-2421
-1429
-420
593
1368
1699
1664
1556
1587
1728
1846
1951
2226
2787
3533
4243
4828
5376
5972
6554
6996
7261
7442
7630
7806
7885
7850
7798
7850
8034
8272
8474
8637
8850
9226
9747
10239
10515
10544
10493
10519
10530
10237
9501
8563
7881
7699
7843
7953
7902
7913
8257
8897
9499
9762
9679
9457
9249
9017
8663
8215
7826
7603
7482
7306
7003
6646
6342
6086
5800
5442
5030
4584
4119
3676
3330
3092
2846
2465
2014
1705
1639
1609
1295
640
-57
-472
-614
-785
-1231
-1891
-2501
-2853
-2930
-2846
-2739
-2697
-2715
-2718
-2650
-2576
-2620
-2786
-2927
-2901
-2765
-2678
-2639
-2424
-1880
-1220
-909
-1209
-1904
-2516
-2751
-2737
-2822
-3191
-3706
-4078
-4131
-3936
-3730
-3686
-3799
-3946
-4028
-4045
-4037
-3997
-3910
-3801
-3718
-3646
-3483
-3174
-2821
-2636
-2736
-2999
-3196
-3210
-3127
-3095
-3151
-3207
-3183
-3104
-3060
-3091
-3128
-3103
-3066
-3171
-3525
-4046
-4521
-4791
-4900
-4991
-5121
-5177
-4980
-4484
-3843
-3314
-3071
-3098
-3245
-3375
-3471
-3605
-3818
-4075
-4319
-4564
-4860
-5196
-5471
-5630
-5783
-6099
-6587
-7065
-7345
-7440
-7525
-7704
-7876
-7849
-7574
-7142
-6593
-5808
-4692
-3357
-2088
-1082
-308
334
751
694
103
-653
-1018
-745
-116
404
682
1035
1827
2986
4005
4392
4074
3376
2696
2226
1900
1541
1081
689
677
1210
2055
2696
2799
2567
2548
3046
3777
4194
4068
3708
3599
3885
4270
4374
4080
3562
3077
2787
2727
2827
2956
2981
2870
2706
2624
2686
2804
2813
2623
2288
1951
1726
1605
1510
1415
1399
1543
1792
1981
1994
1879
1737
1592
1394
1133
904
789
702
455
-23
-574
-965
-1127
-1189
-1298
-1461
-1595
-1674
-1706
-1626
-1332
-885
-543
-511
-680
-730
-510
-204
-85
-149
-151
7
94
-140
-588
-864
-813
-771
-1196
-2065
-2787
-2785
-2133
-1508
-1493
-2005
-2450
-2407
-2063
-1955
-2350
-2963
-3303
-3198
-2901
-2747
-2792
-2841
-2739
-2584
-2600
-2879
-3329
-3796
-4202
-4525
-4741
-4843
-4878
-4942
-5066
-5152
-5065
-4850
-4765
-5066
-5733
-6459
-6939
-7163
-7399
-7859
-8468
-8987
-9296
-9488
-9675
-9800
-9731
-9502
-9356
-9483
-9780
-9956
-9880
-9744
-9824
-10139
-10437
-10491
-10317
-10066
-9765
-9291
-8609
-7936
-7548
-7463
-7402
-7106
-6643
-6347
-6440
-6755
-6868
-6529
-5897
-5324
-4957
-4577
-3892
-2966
-2259
-2158
-2549
-2931
-2970
-2842
-2977
-3490
-4013
-4068
-3551
-2758
-2038
-1505
-1089
-756
-562
-536
-597
-642
-687
-843
-1138
-1392
-1338
-869
-171
406
620
479
148
-261
-744
-1298
-1823
-2170
-2253
-2103
-1809
-1409
-846
-25
1050
2192
3059
3388
3200
2785
2436
2179
1807
1155
323
-380
-676
-499
-11
514
832
849
670
483
377
260
9
-361
-677
-803
-749
-610
-437
-202
104
383
490
347
-23
-540
-1109
-1632
-2031
-2278
-2422
-2543
-2661
-2704
-2586
-2337
-2124
-2135
-2426
-2890
-3386
-3859
-4324
-4748
-5002
-4954
-4588
-4001
-3307
-2569
-1821
-1125
-583
-295
-303
-572
-999
-1466
-1898
-2275
-2580
-2759
-2759
-2605
-2405
-2225
-2039
-1803
-1570
-1497
-1705
-2141
-2596
-2877
-2961
-2994
-3111
-3276
-3294
-3011
-2521
-2101
-1977
-2175
-2599
-3206
-3997
-4838
-5431
-5520
-5091
-4322
-3328
-2073
-546
1102
2622
3859
4812
5518
5951
6082
5964
5710
5426
5202
5148
5323
5645
5951
6146
6300
6531
6780
6793
6273
5061
3246
1180
-621
-1711
-2021
-1925
-1926
-2220
-2552
-2533
-2122
-1763
-2070
-3328
-5269
-7266
-8741
-9432
-9428
-8945
-8092
-6836
-5158
-3202
-1232
575
2239
3877
5783
6621
6583
6778
8046
9970
11192
12214
12958
14879
16617
16922
16823
19277
25167
30365
28474
17224
1523
-10480
-14141
-10856
-4964
182
2787
1149
-5879
-16199
-23595
-21460
-8295
10500
26446
-31789
31973
24446
15345
7042
1977
948
3795
9528
16033
21740
24795
26019
24840
22123
19150
16986
16151
16631
17937
19193
19480
18352
16097
13426
10905
8711
6850
5357
4140
2784
792
-1887
-4686
-6946
-8527
-9775
-10926
-11757
-11907
-11445
-10938
-10960
-11640
-12720
-13920
-15111
-16240
-17260
-18159
-18957
-19609
-19995
-20054
-19911
-19769
-19690
-19547
-19246
-18907
-18724
-18744
-18845
-18924
-19042
-19371
-20025
-20961
-22001
-22886
-23419
-23555
-23402
-23096
-22685
-22140
-21485
-20834
-20299
-19900
-19596
-19305
-18866
-18052
-16765
-15228
-13869
-12921
-12169
-11210
-9980
-8911
-8512
-8830
-9419
-9797
-9857
-9819
-9899
-10090
-10270
-10401
-10537
-10715
-10896
-11005
-11032
-11022
-11005
-10942
-10777
-10525
-10281
