ecg
1413.4902934935023
1367.743623175843
1330.3268091744153
1324.2333119041898
1354.4566441847082
1393.9903712400833
1420.828110698999
1437.96353259471
1459.3903593650425
1484.102365852394
1489.093379303732
1461.3572793705969
1418.8879981090981
1390.6795199799178
1389.7258818483083
1397.021172984094
1380.5595350616688
1331.3351621599995
1277.3423007626225
1265.5752497576466
1316.0283604377505
1390.696036500185
1416.5727340467713
1340.6529615839022
1203.9312800225412
1107.402302678223
1116.0606952710534
1195.9011759257096
1247.9185151714398
1220.107535942063
1158.463113575969
1160.9801758161198
1263.6537028100474
1412.478727109856
1513.4503336722196
1515.5636598583844
1446.813895434167
1378.1962825699557
1357.7061158407096
1373.3387422259584
1370.0895611098035
1309.9540242809176
1219.9276359325436
1176.0059526624966
1229.184583473162
1342.4591897714972
1426.8254853690291
1444.2792364818574
1434.8162617306518
1462.4324321406534
1531.123671141675
1586.8859545680994
1587.7153106588817
1553.6078200575466
1526.5596158121916
1515.566883375484
1501.6258606046624
1487.7328377615381
1502.884157512491
1551.0762149284733
1596.305457485009
1600.5683850621917
1578.8615499446873
1580.1815568217326
1611.5250627871346
1629.8887773392723
1601.2694623810962
1547.6639322201268
1512.069053568456
1501.4817455427476
1483.8989796642352
1446.3177798587246
1420.735222456592
1439.1484361927858
1488.5546022068233
1521.9509540427953
1514.3347776493624
1483.7034113797563
1459.0542459917813
1435.38472464781
1379.6923429147882
1285.9746487642333
1195.2292425722317
1151.4537771194418
1150.645957591094
1152.803541576989
1118.9243390714992
1058.0062124735655
1021.047076586704
1049.0448986189995
1126.9976981831076
1206.903547296257
1264.7605703802456
1329.5669442614421
1456.3208981707876
1663.0207137437956
1895.664725020546
2071.2513184456957
2150.778932868467
2183.2460595426587
2248.6512421266375
2373.9930766833404
2494.2702116802784
2499.481347989531
2344.625238887751
2088.7006900561596
1835.706559580552
1636.6417579512938
1448.5052480633203
1189.2960452161371
830.0132171138247
441.65588386503237
132.2232179829798
-33.28555561454141
-71.87115960516871
-53.534264261966655
-34.27548745343188
-17.09539464348768
27.00550110851077
102.0267391477854
174.96791122412355
198.82866149188612
158.6086865100026
83.30773524197855
1.925609055886639
-91.53783827562796
-212.08270057535145
-336.7090192614944
-401.4167833476987
-369.20592944303826
-275.0763417520087
-197.0278520745419
-173.06023980599184
-173.173231937148
-153.366503054225
-131.6396753388667
-167.99231856814367
-281.4239501145641
-407.93403494605275
-473.52198562597164
-465.18716231311015
-428.9288727616859
-393.74637232134444
-338.63886393715995
-238.6054981496398
-127.64537309471524
-60.757534503748104
-45.940975703530455
-35.19463761628214
3.4825912403495067
33.09186636411573
-16.43567535576136
-144.14515449642454
-278.0294960921244
-352.0838627146334
-375.3073938367566
-401.6974920223421
-449.24414473123466
-491.93380632082796
-507.7589175269127
-516.721991062298
-549.828982101312
-593.0802323247844
-611.4714035085352
-596.0033726723809
-584.6855713769488
-617.5262186466011
-681.5178629323224
-732.6363728435955
-749.8554747400127
-750.1598423732717
-758.5440697836258
-775.0010412913839
-784.5150793718014
-787.0672963145198
-795.6438574268273
-815.2374901695993
-828.8431635145668
-821.4541117678687
-791.0597308433303
-749.6430700526445
-713.1776838269129
-686.629796158031
-666.9663947992616
-655.1620385490007
-648.1964387562464
-649.0469667654281
-657.6870575329447
-667.0946959349395
-666.2607121210656
-646.1863253491238
-612.8719130630149
-588.3108841076898
-583.4949257405859
-584.4216416719879
-566.0919500994128
-529.4989695339054
-500.6218306564947
-501.43343594335056
-512.9151118781623
-494.0619145839865
-436.87368646268186
-381.25562973152455
-369.20007892659817
-393.70460920432663
-411.7813341338063
-396.4581827641317
-367.77168204980404
-360.76053508154513
-380.4664282461465
-396.93539992478463
-394.21220018799175
-383.3297029220498
-387.3047382817415
-401.14416089528095
-406.8529963117736
-389.4346683307923
-362.8828819912544
-345.17687816650357
-345.289221133503
-357.20129841244363
-378.9143012786133
-420.4451777899701
-482.8120686066668
-552.0238083326522
-608.082789236765
-644.9954433181879
-674.7777760070958
-708.4490707165511
-744.0210715772361
-769.4944878135481
-782.8648669014224
-791.1297428605765
-800.2902326791339
-810.3472468881723
-807.2988512463929
-779.1409540522319
-729.8691840417633
-670.4808690900932
-615.9771691132323
-567.3646168012076
-513.6524588502764
-447.84614335759625
-375.94201899743604
-319.9314070679436
-291.8083473229069
-280.57398953189465
-267.2315790723192
-248.77704834475776
-242.19610986368593
-263.4698787752744
-304.5823792056471
-336.5242996852879
-346.29181506295254
-346.88507699452333
-361.3073902496242
-385.5629151116194
-402.65401988066714
-403.5819489437404
-409.3515254773397
-439.97560841259406
-488.47220556715547
-521.8576026315297
-526.1426957291267
-520.3355945896038
-530.4460608959005
-555.4838219769466
-562.4526817214289
-538.3473112524114
-504.1574205835648
-490.8754462671685
-509.50175913098195
-542.04451740719
-564.5163413964867
-569.9311239712106
-565.3003845445303
-543.6329376421522
-473.9396809347623
-316.24048946197564
-66.56671904572624
230.04439642868311
496.56029865581513
672.956770892072
764.2130108177302
835.3035092056475
946.1938466430331
1079.8426515177587
1142.2066777696396
1043.2475267986736
783.9399313181843
474.27704247593414
233.26734449105663
83.92308789584308
-60.74960563993773
-292.74819552538077
-613.0611476658617
-925.6608711297363
-1133.5106235750322
-1217.5789647227639
-1229.8455293402064
-1223.2939819964772
-1204.9040187961855
-1162.6546236718757
-1100.5339126931026
-1045.542526557494
-1007.6850629449445
-979.9609483012616
-957.3670391748985
-955.9074330313481
-999.5948445644942
-1092.4394284423204
-1200.4359849281884
-1281.5630306905887
-1311.7923948818525
-1300.0956928812361
-1267.4411760681944
-1230.7888290740425
-1200.0923658454785
-1179.3089144462883
-1180.406856648164
-1211.3642669664523
-1272.1625555386408
-1345.7822921280479
-1406.2059912620975
-1436.4247562531773
-1443.4400537937595
-1449.2584401471354
-1469.8826752988903
-1503.307401745735
-1537.522358781199
-1566.5191711930859
-1588.2945425796652
-1595.847451836441
-1585.1750316201933
-1561.2715202909255
-1538.1309638705598
-1528.7513866586787
-1526.138463856968
-1510.3080838183994
-1474.2826639944383
-1442.0796938135468
-1455.7017237689738
-1533.1404186911004
-1639.3944031398296
-1721.4811033766352
-1766.425369294002
-1813.236379572305
-1897.8980829316256
-1995.3870817563502
-2041.6990253447598
-2003.8532942305742
-1933.8734699663905
-1912.7679628456967
-1954.5312076436985
-1988.1598473532736
-1934.660163489828
-1809.0403666422148
-1726.300958846784
-1772.4359116200912
-1910.4412633010104
-2009.3159575580144
-1981.0543256195524
-1859.6445436767513
-1744.0780774639532
-1694.3590136085654
-1699.4986240712244
-1717.499968590889
-1705.3522597593014
-1626.0433892001822
-1502.5779020626926
-1455.978057574454
-1622.268467863691
-1995.4606664342145
-2363.553820178177
-2438.5472597155444
-2138.45208495712
-1675.2958298892831
-1308.1190131007072
-1108.965111932252
-976.8644449755908
-816.8222461664595
-642.8235629152872
-507.8570054840784
-449.937114744764
-539.1062178378138
-894.4150598537719
-1501.9035344642348
-2056.599699096004
-2129.5318698522215
-1590.734971880587
-795.2444222989823
-270.0855558489546
-206.26928866701985
-333.7931015617479
-291.63957350533326
-45.77363489228401
102.85439613488614
-139.7031758208434
-749.4056585575746
-1424.2300369369932
-1882.1675207358542
-2043.215955281527
-2004.3743113126322
-1882.6406425125833
-1704.013578503076
-1443.495823836865
-1148.0967689677532
-959.8305730590533
-969.7092724024242
-1093.7362298148012
-1136.9069131710712
-1050.216598812236
-1010.6684655019321
-1196.2742326972418
-1554.0473773076337
-1806.995083851694
-1737.1154430822717
-1441.3995371929682
-1223.8338932836389
-1248.4007071993058
-1395.0797707367665
-1449.8560641786967
-1386.7294079440135
-1345.7175912938196
-1391.8470790986971
-1394.136430556842
-1209.5872424996173
-912.1894098034908
-743.9333040276213
-827.8163086407201
-1017.8387780457484
-1069.994984774578
-920.2686869302725
-709.6367044683208
-614.0776463296926
-688.5816162402343
-895.1541810117349
-1142.8103424218543
-1318.5608818315543
-1302.400812324946
-1073.311386173758
-831.2748671585781
-864.2874611295201
-1234.3557007737768
-1625.4816168832608
-1634.6534451665102
-1185.8522545153212
-637.0652364475472
-442.2894397688498
-709.5211256757325
-1113.7432947439054
-1234.9245769909921
-940.0293188354144
-469.02739051668755
-180.89274811964754
-208.5944230799593
-410.09153562949047
-546.3390874192894
-515.3022801319235
-387.964344004159
-269.31923786263894
-189.3567746017901
-105.05538377365394
24.610521887355844
204.6603208237707
448.10737874872103
767.9662326328165
1111.254990063639
1355.9871735792829
1435.1652966574309
1424.7862222146287
1490.8510286988842
1683.3649713725677
1871.3233054069656
1871.6999525932317
1630.454262707293
1289.55177101121
1023.9810416315601
902.7544392415297
847.8946094965493
724.4146856542243
457.30375097600984
108.5234857131394
-167.9803232131855
-238.2584058272264
-101.3456327708638
112.7354717187668
245.9648099925845
235.32388398371575
158.80760235195862
140.4330337907495
243.23247824850608
399.2374037262871
491.4705017628255
445.9515678380175
274.7027165280344
68.73896732119738
-63.949471128700395
-49.40209039667121
88.32954108835935
242.2081026167465
293.21971572985734
215.360238480416
92.61717600444433
11.966627984116315
-29.61295171028027
-114.12746026600647
-252.57067173753376
-355.93849432492516
-331.2365185852378
-205.47354742226867
-101.65147975948383
-82.76492883555935
-102.80935534445345
-92.78620705342831
-78.69760992040753
-141.53739509053295
-284.29027657535926
-420.9427993352928
-496.4976687782874
-553.9797581671256
-661.4290675259646
-802.8862715690416
-890.3817423878792
-882.9344687134692
-832.5575367434091
-820.2640859112084
-874.0704944579007
-971.9981341448866
-1082.0745417126343
-1167.3313282087177
-1174.7963821283306
-1075.4882467214704
-943.4205417798893
-912.6145714946853
-1033.105007931187
-1193.9286853185986
-1248.1075203475912
-1189.6437877404608
-1177.5317743052988
-1355.771497440057
-1680.370779764912
-1967.3386510956311
-2075.68285081477
-2033.4126914579206
-1960.535075343266
-1914.0438876822382
-1849.9153137120695
-1718.1187576204438
-1564.6342810195852
-1494.4553006458716
-1548.5739818633956
-1656.9698179598831
-1716.616513706411
-1701.4981436028397
-1677.6154855403192
-1694.978735514299
-1721.6005655964104
-1674.4984618718938
-1531.6949126339225
-1352.2063807495913
-1210.0308400086737
-1130.1505581227261
-1100.5503075039187
-1128.2274816292902
-1225.1827417479751
-1346.404910919317
-1388.870784840762
-1302.5602981436869
-1173.4672749359322
-1147.595941447123
-1243.9515153560692
-1327.5387296885738
-1265.3659405437832
-1089.4431806554508
-960.7739924495478
-979.3531210079716
-1091.1745148494315
-1180.2386231212633
-1198.550622939696
-1170.1147056612692
-1115.933097630042
-1031.0114504147682
-954.3574255183865
-955.9709651938338
-1032.8368356571827
-1070.9266363603417
-974.2077097709968
-787.6504251734423
-662.2315735428231
-687.9387748057272
-811.7716756454795
-929.7342462094609
-1015.822552174635
-1086.0236293055427
-1117.3315321175528
-1068.763750285992
-1002.3544435306385
-1045.1262269553224
-1218.0708845485908
-1338.1606726029718
-1198.3794619969583
-832.7377026399188
-517.2538170869916
-479.92604252839374
-662.7252913521247
-790.6162887342363
-696.5781688015186
-481.60034205699174
-351.6613038050249
-369.7191134622918
-414.7265534753517
-365.65312428259665
-259.48773063700173
-226.21972384795146
-288.82201147885394
-318.257362916663
-180.50213064307258
79.43635667754614
253.52857006657536
201.74827816902382
8.091339584074035
-111.42840005415235
-46.800920573885435
107.96374150359304
167.84216738904843
73.81788415658764
-75.10414016993218
-163.90383220330477
-171.5624514684652
-136.07102964057043
-71.42475084893556
41.385057164489524
174.36924835783282
237.53322869829344
167.87629096500882
26.401029489877942
-58.88105996805734
-24.95396650935072
58.19212187675453
69.55607164696085
-21.869251895625723
-150.08869656052525
-247.0990921346483
-292.88848842891565
-304.4424011112706
-263.7577990002178
-113.85432650481494
152.22950313050217
438.45725453720286
615.8134569593293
661.2990076988299
712.9084730615257
922.6148587388151
1277.3799779065234
1573.1764583778058
1610.9946495521558
1388.8305611190772
1092.6725927628859
887.503570891344
754.3109584273263
543.0875881929444
175.82083837541018
-257.5127696839519
-573.9362584408541
-707.45772020049
-757.0721570784249
-852.7787207017458
-994.5921169941297
-1061.5366182609575
-968.6290772558141
-783.8708242700186
-665.2543096954486
-686.7744666657946
-761.4309499623372
-739.223190418696
-585.1431407528992
-399.16945240279705
-327.26552456543845
-404.3841470783524
-547.4811358855053
-655.5281395902782
-683.5132531142933
-647.4260368743358
-602.2425602008607
-603.9221560329903
-681.4155435340147
-817.6722667519207
-940.6415796926315
-971.2732106463391
-906.5239304634604
-832.3631975430643
-844.7720409688984
-932.7394805719955
-970.2650847300083
-867.3680889692093
-697.0906977954033
-621.4875983645588
-727.611874453908
-930.509268112973
-1069.2196972117833
-1077.7762012222329
-1014.1969653528589
-966.4808599419955
-960.6190894076694
-985.6136061898108
-1047.482975170166
-1138.2470336311399
-1181.9109245838827
-1085.466747097417
-892.9124986146439
-790.2655649988217
-919.5534563911829
-1188.791467758117
-1347.9740392378105
-1279.0893175214792
-1144.1421279892938
-1185.1615725571442
-1428.1874983752737
-1675.2527673210338
-1748.3795961527521
-1692.58801770739
-1676.9036172301392
-1763.3550427401215
-1853.9622401021227
-1860.7253407526168
-1843.6235897563017
-1906.6245418091735
-2034.7015806359273
-2105.8466069310825
-2061.0671097541394
-2009.369393105896
-2073.7423763413417
-2205.1587554296593
-2235.590130688836
-2107.0171243594045
-1971.4218438721311
-1999.7738388005555
-2144.0263064755586
-2174.1278370615187
-1974.0353803339567
-1695.7163044601657
-1591.1417276832938
-1711.283715803013
-1849.1201688865187
-1807.6374648406859
-1616.8264860770241
-1457.67445472427
-1442.1615939925127
-1497.2643791937978
-1497.961633426509
-1408.237146721579
-1290.0789814683894
-1209.4788823725064
-1192.4325860495414
-1240.9391512898326
-1331.0171681673828
-1407.689358983437
-1412.9854368840608
-1366.9367286581873
-1366.5716077840843
-1468.9161992613601
-1608.998158656182
-1643.84825679355
-1510.4973779803238
-1307.974308738427
-1180.3077977327407
-1164.529366811058
-1169.6713374329315
-1105.7620842762497
-978.8245696845504
-873.8829583721691
-846.9692057562291
-875.1191110328026
-906.3562572848795
-923.6803886778903
-939.070176912302
-949.5005585244114
-937.9581799224978
-891.4445681613895
-825.9674109683542
-772.5273243143777
-750.1090037122003
-755.6781600538279
-771.1835754689014
-773.564061708332
-750.7597918004471
-705.7245601162817
-656.4341760397552
-613.8858284410264
-557.089186490288
-467.05501913817943
-370.79100392467745
-317.30892843746767
-322.63460527426383
-324.80948168648695
-256.87824765885205
-135.87074629695394
-58.79298996560152
-83.63309026410286
-142.37714447498308
-127.02360703134468
-17.586725697182942
74.90929784358963
48.43779437262219
-67.02541345718441
-156.50223110273532
-151.01587246231225
-105.59412228699057
-113.26835073604525
-203.0682169583058
-296.0140775926035
-307.11247805436926
-232.3590073823632
-161.7492985437582
-183.28914142062217
-286.9969980816684
-369.8993018252677
-339.0252993616102
-218.40782260569767
-138.08513464088958
-203.0973606391383
-364.48032884992836
-472.26443364953025
-445.48134948058294
-345.1718059124514
-291.38681593963975
-318.1823420045341
-335.6124100256029
-227.72237680370063
24.457684854295053
351.9149416363232
652.6456977321421
869.642245451022
998.8902332405728
1084.38423422835
1182.1437301576004
1300.207008296797
1383.6044735274365
1353.3403502377053
1186.4032696041318
933.7933607808052
673.5365965897076
440.6726778408972
222.2359075895015
-4.751675101836554
-232.27531577300783
-444.32005674789457
-648.8668298234746
-854.8900986594127
-1047.35896824329
-1191.2466457525286
-1248.5446400935837
-1203.2658107404932
-1075.4282122790135
-916.0359785558962
-788.0825523363317
-729.5502895704085
-736.4368456245071
-767.745804069864
-784.4746305514035
-772.6140071165865
-759.1568229238676
-791.1037760574492
-905.4556457656698
-1090.2040166749669
-1252.332433122409
-1266.8254034993208
-1105.6738481978323
-880.8730916252159
-780.4181256725993
-884.2990660900791
-1094.497905580617
-1236.985304332769
-1226.723314909259
-1134.677620157864
-1094.8285647219423
-1163.169204490198
-1285.689500629675
-1372.364409653624
-1373.1573942574619
-1308.0342281631852
-1219.9722421717925
-1138.9569915176785
-1084.9754207180645
-1073.01535152486
-1118.070526563331
-1205.1425308723685
-1290.2353122360469
-1324.3467855922029
-1311.465870644007
-1304.5747924088494
-1353.654139840821
-1454.685647725121
-1564.6522727065083
-1659.5357792038337
-1763.315056076197
-1894.9675867346666
-2022.4740051460333
-2093.8239052333242
-2117.0152850374056
-2159.048243670237
-2264.917794820086
-2391.613186925218
-2452.1246524668727
-2423.447731380394
-2373.581032942905
-2364.518988065103
-2385.247844164641
-2383.745210331368
-2354.980162786137
-2333.9140900124294
-2328.504292660752
-2304.7109733814555
-2249.5021594952987
-2210.853402046534
-2244.7459284434103
-2325.170396512384
-2356.1315329754334
-2280.644669531722
-2168.723698816225
-2123.374550768448
-2155.6054642775653
-2184.443349787348
-2137.932232560499
-2040.1089674451748
-1968.9814927544564
-1949.5338245813005
-1929.7533412812913
-1866.6496141238356
-1792.247517323799
-1778.5667727203213
-1844.6128959860703
-1926.3840440996496
-1930.8789953790026
-1821.0985305907127
-1658.0479171754037
-1554.746384533205
-1581.2308653043497
-1699.5415031358652
-1792.6974081846972
-1777.690470729785
-1696.5077764109537
-1677.161838034995
-1801.6956776748493
-2023.1558629227227
-2210.5602395639107
-2285.8894076881475
-2275.107899312068
-2242.195315924388
-2218.161144508176
-2196.0329488306065
-2172.830366491014
-2151.5486627219652
-2105.16650142003
-1990.6705892090033
-1825.0712232033154
-1705.391706974122
-1717.6450468097235
-1826.8221766685347
-1904.9038615772115
-1871.8784548497936
-1795.7428344573668
-1796.486954366452
-1894.083445065687
-1982.4982879062031
-1966.7100284911867
-1872.7143539126682
-1803.509970518498
-1808.0818576984802
-1829.3972354975028
-1795.4185167950764
-1707.1210865352548
-1630.4996447054614
-1593.5594983220108
-1568.3006656882828
-1524.7063851853052
-1479.7476177863505
-1476.399652835896
-1517.6553157309086
-1554.5226937056775
-1544.0098987559763
-1502.1151940912725
-1482.8314196405604
-1517.1577561126028
-1589.10427215125
-1656.6886340378876
-1688.9331524377433
-1688.86910547951
-1674.5391155220177
-1668.9900114560107
-1684.26091199666
-1719.3795990225617
-1759.37039176919
-1780.2626978241803
-1764.0895848375317
-1725.8799625142287
-1693.6531352339512
-1696.4205425471737
-1748.189331435281
-1831.9635350135106
-1914.747137787809
-1972.5480826739308
-2016.3806733592373
-2070.261370004051
-2141.198458537913
-2196.1871693982134
-2201.2152405710226
-2162.2729026710417
-2126.35553768178
-2120.4615364851074
-2120.590722707607
-2069.746715230629
-1939.9411178557395
-1745.1937234098673
-1525.529646402493
-1317.9776948655963
-1155.5700956892756
-1054.3388302330723
-980.3096259998401
-853.4995670650341
-632.922736542516
-391.59745864681685
-280.5428827250976
-385.7635201760011
-643.2385443438862
-898.9327499722672
-1058.822291263737
-1154.9091954130472
-1287.205874107938
-1527.7056159561914
-1872.3695804925458
-2238.1467046251655
-2492.0058516532704
-2533.9491843924798
-2387.997889395775
-2210.169567167045
-2159.468956356614
-2232.8923136981325
-2273.4363343643863
-2149.104836028966
-1918.9138071543177
-1769.8929147846698
-1808.0774087191046
-1962.4897500270504
-2090.127869560484
-2149.975155054989
-2209.023024452447
-2315.285290665365
-2415.789188810151
-2407.55247754607
-2279.570286420745
-2122.82504515729
-2035.3087190490974
-2022.034691219608
-2013.0284371002663
-1956.3122094518362
-1892.881402778568
-1890.7293581253994
-1945.8584782532155
-1977.284212452106
-1929.0224916887053
-1852.076294081485
-1845.437617111246
-1917.1031482056303
-1939.083927601916
-1803.394259331614
-1582.0312595039718
-1478.96918261781
-1587.175949791453
-1757.633959801863
-1759.3440343301475
-1565.3079026682333
-1398.5086926411361
-1461.9087821477237
-1694.4662325261718
-1833.1506762425934
-1732.9455624784239
-1519.8368787132742
-1422.8036977799284
-1502.8183284232612
-1604.8550160371924
-1575.8967849676771
-1439.9342901394293
-1352.962023348474
-1392.9793695753688
-1478.9962458764817
-1510.03327549074
-1501.112645746427
-1549.2466186805045
-1678.4368448753828
-1780.6863318389617
-1741.0114669705324
-1599.4402366601123
-1516.9985977717708
-1589.6985847761177
-1727.5378648621602
-1753.5071139302333
-1619.596122224998
-1469.793700156891
-1472.0858105248496
-1625.4553017443172
-1771.8818348617717
-1775.3403733472337
-1655.7990085115307
-1530.2207448800941
-1469.5723497825672
-1434.8332896596944
-1369.9967078773611
-1274.0599312070271
-1190.0130448646491
-1134.8359083934556
-1090.508361948302
-1054.0244840882415
-1051.3962616621434
-1093.6432886486787
-1138.7794860380359
-1120.810666537767
-1012.7434808443256
-851.5944938447761
-693.388705761093
-558.150456610502
-438.89625700943895
-322.6323705642913
-215.35479218248778
-134.04943779510623
-85.69538688185497
-72.2719527020918
-79.7615827104155
-99.1453001658902
-118.39667629812996
-123.48397385035312
-100.38168811015743
-69.07974407879323
-63.579834261222715
-104.88414687417816
-171.9912038832972
-212.90149650245525
-184.62445901622468
-121.17639502981658
-114.57219685835102
-233.8192222097984
-443.9182737936693
-608.8674446272697
-625.6629358581204
-529.297709316325
-465.75769308137376
-543.0176776178205
-726.0430148227604
-854.7986347444652
-818.2623345017623
-668.4305804867307
-559.3101048469712
-579.9021532544439
-664.1958800429477
-672.178613108867
-555.8506419158839
-408.2210881121822
-358.31031460597967
-417.1208484722154
-478.63852704049077
-455.84195515559827
-393.7117245134466
-413.23060806723754
-541.3764316191499
-655.1187588637333
-606.4247724794232
-389.27061802100377
-151.64670970876182
-47.54977512771694
-86.96832739023728
-161.8775386077628
-183.25146474060975
-162.08047952314206
-180.37531747706308
-292.15268656767563
-464.4171262045822
-610.1593710384598
-682.3723686802246
-700.0679180564404
-703.2765803647318
-693.0343526693741
-629.3701265104119
-493.3044456629999
-334.85610827528416
-234.04636338721855
-225.89710805587947
-254.42631710311122
-239.64790350945077
-191.57577492279745
-191.2262449063408
-288.6161598999515
-427.7592589684575
-490.6666774681288
-432.35344082369545
-297.8430539492972
-142.16598526536887
49.648867356008
328.58103198842946
664.6156593403197
941.735983556362
1067.9183833758198
1074.1365200140528
1096.3714107746684
1219.6154221799072
1369.8658140023958
1388.1134708880234
1195.3394841299994
894.5242759266862
681.6594676570737
644.7470330001076
673.7833223463024
573.7441594070348
284.5877781645472
-58.72662421815323
-268.22675595499464
-303.93351528779624
-294.8766519544847
-368.0973772145876
-498.63344863314893
-557.503761593726
-474.71079447987523
-307.2554377904172
-158.1459165960095
-72.39032092361629
-36.98556844925304
-35.91853007109387
-66.1790412710493
-114.7682336189938
-144.69346908947364
-145.95679000585005
-151.55094422304103
-190.4694143269703
-243.72006454365498
-257.3290313604067
-227.33273435943863
-208.7639267989921
-258.6426686170903
-385.97593624911815
-562.7630260089065
-763.0036583469896
-937.7025760774346
-1005.867142965138
-924.49952459064
-769.5883015773379
-687.1094937604094
-729.0398702228262
-775.374150858597
-682.1320533159351
-483.34792488076994
-375.05042806098754
-482.2500737203826
-688.9464997147184
-786.1466857376712
-729.875280556168
-691.1652640296427
-817.0374198610056
-1038.4882637071214
-1161.4982360456381
-1129.0497368663514
-1080.1369372434256
-1155.7593110436528
-1315.9088602151132
-1400.5669954519126
-1356.7137870068998
-1278.3391270135367
-1267.4422775732733
-1300.0200745521274
-1288.0557465721768
-1221.520528747179
-1181.3884162906238
-1223.6510500672875
-1314.316582121858
-1394.3911986018757
-1465.861861727515
-1566.6991019386
-1677.8800653013539
-1735.4092490439066
-1717.3147288515302
-1673.6234208180922
-1651.3410654752884
-1609.4553022075947
-1472.9552995551883
-1258.8429855664176
-1099.125415863631
-1103.8000535260735
-1242.849555911426
-1386.247531181221
-1448.965990697619
-1485.9759266617334
-1608.2468140214191
-1829.7505919814112
-2022.4658961110238
-2055.3765932727374
-1931.4648001143926
-1771.7064597090475
-1680.0741682582088
-1644.5407993001672
-1582.0800955618377
-1465.6652957842057
-1366.2681607331515
-1361.8606031168601
-1440.4142556051281
-1533.9001206077187
-1608.2919397854134
-1698.5722783618528
-1835.7343860602186
-1984.775102777743
-2061.68588639806
-2035.4553427562014
-1962.0805361444764
-1922.572706357189
-1946.9484646088258
-2001.2150456779016
-2021.3659506408803
-1979.391788572611
-1913.2896168219115
-1898.0591496118616
-1982.6914991146987
-2123.167105179483
-2211.466219695149
-2186.580735242752
-2113.513083884658
-2123.2650594410607
-2256.829394890134
-2410.1933414707405
-2452.3488786702405
-2376.296795352252
-2291.040428980069
-2288.5761507253633
-2342.8906496111154
-2375.967561305612
-2362.7989249480097
-2359.388660338138
-2413.7458627763644
-2504.8727566598413
-2582.759387667105
-2616.389729300498
-2611.7525986641913
-2595.847914100988
-2586.684482906886
-2588.271480922622
-2593.6111870436694
-2579.6964525894014
-2539.513805648643
-2495.052419219834
-2478.310669785995
-2481.293892873245
-2473.0045732030962
-2443.433257847566
-2423.560239461719
-2440.3691529239404
-2465.858756072445
-2451.038788818084
-2395.912866649739
-2367.466151715748
-2410.6716389504495
-2490.5091577829335
-2536.9794064469725
-2537.098762790575
-2548.881591286869
-2617.3286469656996
-2709.431590561222
-2754.186057178032
-2743.5965359457573
-2738.6669917873396
-2787.3884788138257
-2841.739474402124
-2812.6989121840816
-2679.257589351897
-2525.4143335417293
-2455.1625326618623
-2481.4832173674654
-2509.354857646432
-2440.7708866895655
-2281.747521860208
-2120.314369558003
-2023.4985357874536
-1956.3183807285027
-1822.7903574473191
-1578.939590097788
-1294.8035273845894
-1089.4265821344743
-1005.8520290021982
-978.1182700184528
-908.2590820571537
-769.3049243210987
-637.2844794386816
-618.2266967492353
-755.1606117150502
-989.111886746086
-1217.0970355479074
-1371.120274449761
-1473.1775656619907
-1605.2645731279054
-1826.3800715879197
-2106.5227918969567
-2344.6878675619073
-2455.8703043677738
-2441.0728795452733
-2382.3085766599374
-2345.5944935630514
-2327.942955530446
-2287.3592445746644
-2203.8473916369294
-2102.417347702808
-2012.085048009828
-1941.8660335741597
-1884.7698632216798
-1845.8000851325833
-1841.958901661183
-1875.2529350505874
-1914.6953025497583
-1925.3022682173657
-1903.087768092562
-1868.0620991058686
-1837.2346050607275
-1810.6172386644232
-1786.223861811582
-1772.0671013539147
-1790.158462393986
-1838.5120712598705
-1894.1451001136193
-1920.0709731278876
-1908.2936040403606
-1874.8109041632306
-1845.6265935274707
-1833.7538966981701
-1833.2039139896215
-1836.9718239283184
-1844.0382223189765
-1852.3860030423511
-1861.0148751517424
-1865.9375287015653
-1869.1638896192198
-1873.6927664778827
-1877.51842405169
-1878.6400805384242
-1889.0612160132641
-1929.778953329842
-1997.7774630951553
-2062.031283325913
-2083.5136271548126
-2060.1990157872515
-2033.0602598793962
-2046.0666795565635
-2108.187443123493
-2184.398736409257
-2236.6878496727422
-2262.050355424619
-2290.4837732371698
-2362.982022575213
-2489.5330924075474
-2634.1206358526915
-2750.7270751070146
-2818.3368942329357
-2858.9379542316783
-2915.5207392901343
-2992.075835412027
-3050.5898794368077
-3065.0432599688975
-3056.4117932233034
-3079.6721819924314
-3143.806949630655
-3192.804457749074
-3180.6543295971887
-3134.3433775164526
-3136.855181947298
-3226.172287814221
-3340.2792239000846
-3385.165610944773
-3337.8294248595607
-3273.2773743466055
-3269.519277827562
-3327.55891347168
-3379.3905518344154
-3369.005570144732
-3309.4032560847863
-3246.5932670509847
-3212.5859910804643
-3206.382287506231
-3209.975954013439
-3210.366635420571
-3202.567726158104
-3187.5995959895818
-3175.4754425503825
-3179.1968423352782
-3199.764151910178
-3216.189702616114
-3208.499498518626
-3177.7223583773466
-3149.880649813808
-3131.989966554351
-3112.0661612891363
-3066.1289374079356
-3001.199542438614
-2942.297844258976
-2907.4410655685174
-2886.644590785356
-2862.919996111943
-2822.2708252431685
-2762.6921579413865
-2691.1756467223504
-2621.7153981287743
-2577.3099690818717
-2569.956766564002
-2579.6431026507553
-2560.342290724789
-2492.0195961150794
-2401.6431215441557
-2353.1912497801377
-2376.649225368542
-2440.999200655201
-2482.213888100388
-2464.2603201965067
-2407.1089146672207
-2352.7367597281245
-2325.123747904586
-2305.248638318419
-2261.091799741798
-2185.640985654546
-2097.889949392309
-2021.8300482876975
-1955.4462225450734
-1882.723835283222
-1802.6593558719069
-1738.2625148169925
-1712.547035557784
-1714.5213573585295
-1709.1904218128498
-1671.5650331749248
-1609.6674867802813
-1562.5272069587634
-1556.1720434107099
-1580.6218671647018
-1608.8879885531078
-1619.9750827118462
-1606.8854165919786
-1572.622737267126
-1527.1953875591926
-1502.6157962483755
-1532.896971501447
-1613.0510370794386
-1683.0921232237754
-1682.041789435771
-1603.931723752747
-1529.8010463288524
-1541.6908085511982
-1636.6398843335896
-1716.6835062887271
-1681.8541281118958
-1532.1821225247409
-1357.6957218089995
-1261.418189466901
-1276.3653371371288
-1355.546886450943
-1436.9714525389352
-1491.6510182772672
-1525.6008265029009
-1540.8349054191624
-1509.3628041601864
-1384.1940259498447
-1143.3467980150995
-827.852329871871
-522.747870524387
-294.06312364953203
-135.8110420200087
11.008411123751898
166.39467931988906
272.33565584955124
229.81145019604386
7.810426905651809
-312.6582374795622
-610.5679761939928
-836.8925602245956
-1038.622239309785
-1269.7634980918347
-1526.323844395314
-1773.2964477912753
-2018.657754094459
-2309.3777922263494
-2631.4325673003905
-2865.80852370218
-2873.497295624713
-2669.489037241444
-2453.7703693710014
-2408.3279079375116
-2493.154965985292
-2471.2562724810596
-2192.6467847612917
-1810.3445537111193
-1651.3612657951649
-1863.6956231804343
-2249.3364824724435
-2484.2734481122106
-2446.5052622554663
-2291.037986706133
-2206.8746882761693
-2198.009853162976
-2155.4346869366673
-2055.1482082025254
-2002.1612096391673
-2076.487374703986
-2232.1307143043186
-2360.083079617044
-2430.3315366703746
-2500.867498259195
-2610.688977426011
-2710.7970366154177
-2722.190969874729
-2610.8657045467835
-2419.8129073248365
-2247.0251796076855
-2181.5000363329905
-2239.240671541034
-2318.25254137113
-2306.5396358037524
-2227.1051756439265
-2257.9543708785495
-2501.092570458818
-2777.518841549252
-2765.222322640655
-2406.1866094431034
-2056.3982835471234
-2086.8496652857384
-2422.535510922107
-2603.4487160329386
-2382.578817956449
-2047.9114294798617
-2047.4274970045878
-2393.105701192263
-2639.929279204719
-2476.8906250845366
-2141.98681066101
-2098.207684511061
-2413.5297250422955
-2665.922372682755
-2507.3592649143
-2151.821656942363
-2129.293090705862
-2596.751984787824
-3128.1678571892653
-3212.502229349811
-2860.7110520048514
-2571.750599625559
-2728.584102679497
-3176.182885940665
-3442.5205194916025
-3302.5659080478777
-2987.282255396404
-2849.6334220264584
-2941.590164603398
-3017.13003725667
-2915.2339115400378
-2758.886376250558
-2742.0785686599797
-2838.80827630177
-2822.076078206924
-2595.8795991663806
-2329.2094884134935
-2246.048662575443
-2335.3764022554287
-2382.174387839247
-2256.42951324476
-2068.127992129065
-2005.2460279544248
-2093.7484741888757
-2210.602044598865
-2281.7916609719396
-2348.3237516523454
-2430.211904633171
-2433.4613267736427
-2277.0682236358307
-2046.0323734742935
-1940.366136556332
-2023.0890153941261
-2114.2136367093667
-1962.7379658467366
-1542.6505551791138
-1122.9413336719094
-1015.6093214699326
-1249.6627036698715
-1526.113924066706
-1506.972935546165
-1160.2429842686383
-795.9210394971469
-740.0032688241727
-988.4926567045377
-1214.4009223403652
-1141.7408674815615
-836.5154609608674
-632.7138409268639
-763.3211244082572
-1099.3354722499153
-1333.775288837603
-1307.667833617933
-1140.0307730107766
-1037.8652756450242
-1038.166702381866
-1001.9380394537998
-813.1900136358031
-514.9285380900551
-240.14669471273965
-61.83226471482112
56.017580680435
165.3920714815747
248.27501980212992
255.6535679031549
199.51611041141928
148.84382112702906
174.60699207004996
272.7700476512714
379.30054752179285
459.17357101439165
531.3687562433868
628.8636695286418
747.6299138850707
851.6356502448452
924.853231941731
977.2642650120163
1028.8563633089204
1049.6147128367702
974.5176301342995
780.5395895046767
521.6565106995525
318.84844633143825
303.09914938842644
498.3976424534492
765.7375156816734
884.1092059405049
765.490010095737
568.8432464684724
546.1313214460416
755.3292950362196
974.4242796495755
921.4013377564929
561.2355144718152
157.9006604811409
-18.61696548641885
38.6829971226266
112.80427071793542
35.747713274222974
-119.48410156237537
-149.88043523685405
46.57112104106119
362.87141195043694
617.0059642013201
709.9565724147487
700.7154018724997
730.2845327651655
884.6619491066467
1126.829916035124
1314.759104343601
1304.423448057717
1078.8111839941935
774.9232096151235
566.7632334663558
482.3308332937214
369.6233248448443
47.64140840707864
-503.60938586155737
-1094.125249076895
-1497.9119325342106
-1637.9838479775196
-1609.355273314008
-1550.0330005640606
-1515.020005653899
-1467.3255005474034
-1364.9676917229697
-1219.9639059964384
-1095.3167927438105
-1060.0132874371184
-1124.0378527814128
-1215.3864746724
-1248.0677946430349
-1196.0933893276447
-1130.470238467321
-1123.2038991338247
-1135.305858572367
-1055.7959793411592
-856.6979735461109
-675.0333729566307
-672.8189605029081
-839.0653528783768
-990.7766277386525
-996.9538032072257
-950.6013553290387
-1047.7313386850808
-1301.357569610612
-1464.4844045630125
-1309.102706586826
-915.198389700025
-605.7642450713455
-627.8016856050261
-901.3090897758988
-1122.2708046922983
-1086.657391412553
-886.4348854048384
-803.5730294234852
-1009.0449313682648
-1396.823369083926
-1682.8781508078264
-1666.1757129294742
-1438.6791608594283
-1281.350900694755
-1380.1588125247195
-1626.0817884336432
-1753.1085524568823
-1625.2289580056377
-1375.4231193625496
-1253.658230979746
-1345.8945681119123
-1502.0959132063406
-1549.2379491801892
-1478.3083453070776
-1412.300075937626
-1427.2040585640998
-1471.0077618764103
-1476.702058965218
-1466.2891296884914
-1506.7840172595675
-1594.208115053778
-1638.5809786988318
-1590.9172051972675
-1512.22623864685
-1502.5108759528619
-1551.7655416230195
-1536.977090755745
-1373.132151148313
-1150.2232315847518
-1039.248069991008
-1118.2033909993402
-1280.0814387849355
-1336.874233788281
-1223.5784024615816
-1084.1935546600025
-1124.7152809384631
-1372.1320568096105
-1593.4312832288465
-1500.607072078421
-1074.658799010294
-647.5812030295538
-575.3590055350209
-845.9748934636972
-1048.4239767494046
-821.716057457212
-284.8616494654223
88.14417389870471
3.3217150792802386
-342.3089367987766
-526.7412676816514
-416.9782520865583
-274.0186454357229
-351.8514926521448
-556.4670396331414
-584.8703651434653
-334.0825842249457
-23.12835584475556
94.9753583580208
34.21957047983898
18.594864555988067
204.0838975897226
529.6651593922733
787.3265199603377
796.0748092898731
546.9320901621936
210.9202078061436
39.05005716444964
169.32605069266828
467.7585151592847
634.3672398588326
510.1683973835328
280.1599070244383
263.3238239062231
524.6419564636574
790.1060063704183
780.7108997881031
558.4414248744531
428.2698849712945
543.1650563276618
742.1009675539417
802.0574007888263
758.0173464971909
870.9674008924562
1255.8967499491232
1696.7923738112218
1890.6348366132966
1807.4021054669026
1680.0786691495898
1685.657751208156
1734.132897841502
1654.488938095678
1458.7026000530807
1347.7493923453571
1448.605481100094
1630.244318561657
1671.6371572837024
1560.7606209498797
1514.6003255242867
1700.1443938429904
2028.3739982261402
2260.266977473117
2249.8122345629617
2079.014358821189
1940.8791961237785
1960.398604710994
2139.5558805732217
2376.3491304959784
2534.8036772445193
2508.95614282906
2320.8234695850083
2154.39245229697
2182.64042686371
2358.561579180576
2423.168935324347
2201.4703407515435
1859.4481298478122
1740.0679721220843
1979.304189210802
2344.1521129638536
2502.6131673958703
2408.673717588496
2321.3036099809633
2458.476625493732
2765.189317209858
3032.457908092586
3153.300027213258
3210.7219140467496
3296.7214482673853
3387.2997926920257
3407.468233066799
3362.247015683307
3352.6600414342824
3424.7299043802277
3478.4765360153447
3382.9176817898383
3131.069874495751
2851.94672140641
2668.5571252973414
2575.907341006199
2470.0120854981315
2261.9028649528695
1955.6208585168342
1598.198391803833
1239.648282208201
924.9787263983031
731.2190994750952
707.4260936291497
800.6591514273241
862.9495453265035
780.2946596055625
612.6832989749832
543.1225780056266
667.6404785183311
897.26540157775
1057.008641194427
1056.866976801858
940.8410265869552
786.9495931655165
621.2265054712257
459.70359248872694
357.39600675080254
373.3067610120118
458.44497090748314
461.83516739289485
297.50591965971114
75.46843835064158
-6.288088662715836
119.22358256489548
308.01101946688954
368.1013568390843
270.5192478722472
149.2701775641815
128.34769079963127
196.7526128805701
239.500637081435
211.61213375764027
169.1006437535571
177.9748244669376
200.24837777853156
135.94382380647465
-30.913698974825024
-172.30436702791604
-158.21584365575166
-5.640442504003829
115.42505909140209
61.97440243029416
-123.01065284724541
-266.55461189584577
-258.6771819911044
-139.38765582378676
-51.690793260454655
-96.59794473106007
-243.13002073718485
-374.3064457252627
-394.1287385701432
-319.577549023558
-255.62711281989561
-284.26379783963046
-381.4895591442482
-442.3074638849147
-435.7052001247897
-454.65713555529277
-592.1428986982098
-794.1606723319758
-879.7187941621103
-754.8155941841369
-536.4319764858744
-427.5489973972975
-474.170228375945
-509.32040320035344
-366.0180321124115
-80.25429036559746
152.99376237040997
189.72789517940657
60.91413991479544
-97.4902365600853
-193.49776845736767
-236.08861015257347
-282.2486945890746
-357.00402126269256
-436.41001865480814
-469.5082325931985
-420.2995761198806
-297.76184285496197
-153.8860970839067
-29.690508469245486
66.79787916267122
146.5654090279603
203.61210360293808
204.93501828272764
145.5164232437271
74.32860364516591
46.34495315204491
61.54349610491447
76.90106847767292
78.38748094586941
101.96653328400453
185.60499243015477
324.28125150941435
470.9868808429712
597.7157365854503
692.4482474464371
742.1468697498742
749.7693209083532
753.2905972326365
808.7096130065081
933.0305486509499
1071.2362075068515
1155.281916741824
1168.1186860839914
1166.7226723190888
1211.1006025921301
1301.2649182830648
1381.2037071189113
1390.8758573226273
1321.234803280771
1216.2567188575
1131.945357610838
1116.3094376689469
1179.336493604588
1298.9891428672381
1427.228362873949
1509.0397724146776
1526.4348388804274
1526.4276892572864
1572.0113357915375
1674.1617501579453
1751.8630151707312
1699.1213344369698
1523.952346037041
1380.3569932472233
1417.3166204759355
1611.8127443370659
1782.8461072364046
1796.4304142270148
1712.5707849276414
1706.2555529614528
1838.470258555029
1989.2122305029075
2001.485659217205
1859.2830635984396
1689.5761894515663
1610.3257505843212
1625.4955467306236
1672.0545939627025
1719.9722125437265
1786.2177869230234
1873.7671454618792
1954.6044447100617
2004.7164111888317
2031.0891363144349
2048.713949791625
2044.5941636142647
2000.7402896985916
1930.1568462965813
1856.8347885958397
1801.7574355803777
1768.9106592242636
1754.2873877831753
1762.8874686527595
1791.7190568182782
1823.7986725344967
1857.1462802883013
1911.7780781717315
2011.7083525521402
2150.9614014626895
2290.577496774368
2385.6024959516153
2435.0707566110373
2461.9984452375015
2497.3899867424784
2561.246295262746
2658.5660009531352
2754.347981062391
2777.600130101453
2666.3471333149755
2430.6247752061727
2160.4643879969954
1935.8872843537597
1740.9169206792553
1489.5964596145052
1121.9922328048792
682.1798351220871
289.2282210940489
38.19410566323734
-62.87482661176932
-72.93549498994994
-56.94844163676163
-42.875854212153854
-28.679391638482286
-3.3191835426206353
33.24440849882001
72.04896577587516
92.1303943746446
72.52505397927382
-5.730081446088263
-148.59837511988286
-344.04383199339725
-542.0290395997755
-681.5140072477932
-741.4600670950974
-753.8387380381015
-767.6376382419728
-796.8551464288025
-813.4873505675771
-805.5224040266278
-811.9509323856389
-878.7837401940396
-997.0563955818151
-1096.8133429099926
-1134.0873637556756
-1146.8955187433846
-1215.2524857072672
-1340.1822175543166
-1431.7116299780243
-1404.852490708477
-1290.5907568865025
-1219.8952822552646
-1277.7365792590676
-1406.0979034689622
-1476.9683230201094
-1433.3252742254374
-1359.128057183199
-1387.3345941467717
-1553.9259484486374
-1766.9119780331803
-1911.3067317276323
-1971.1017918877708
-2024.2689379308913
-2142.7890942468393
-2307.6716251933417
-2436.938793029041
-2479.5963696219424
-2470.629276478348
-2476.027088451112
-2521.8041454313734
-2573.987496857071
-2587.5892223795045
-2561.599928674029
-2541.0092599843633
-2567.8273975141337
-2642.0829213857996
-2720.804770190306
-2765.011478610974
-2776.7146659149785
-2798.9285970175697
-2862.6755298313674
-2949.9866009933266
-3012.896824363532
-3024.4343362254263
-3003.6129035854146
-2977.44072795694
-2948.941142755251
-2901.162990576757
-2847.1636729400066
-2823.9816270094493
-2842.629368351055
-2843.1130646710235
-2762.4521807613505
-2618.6750567448357
-2512.799389035948
-2504.8267164969056
-2537.757883558758
-2509.6057374369375
-2395.3883902747716
-2288.1167114655136
-2270.799054591428
-2309.461579593576
-2297.1579007902637
-2191.9527010332213
-2068.8942695526043
-2012.0051562494823
-2006.2991600078676
-1966.8006036283425
-1868.5464860999928
-1786.5721548968625
-1796.8985971353613
-1861.5358303145351
-1867.4948031539261
-1756.793665015946
-1601.4518357874751
-1502.4799985541292
-1471.876851522954
-1429.6366914366756
-1318.75988564435
-1177.254194819278
-1077.1238329893124
-1033.3565318332076
-995.92179352614
-937.7852100427003
-899.9244194316695
-933.3308418764323
-1006.9949655480352
-1024.890696448544
-941.9759886289484
-830.2090185445596
-799.560209398921
-878.0070032569479
-969.5203713942252
-963.0609345493112
-851.5947275977417
-742.1111509290129
-727.621616975586
-783.1400164081715
-791.6680498068177
-683.2036270373658
-513.7635930473034
-395.3921379858747
-361.14188172069726
-326.04490514982024
-198.10299153268932
-9.306826625687222
105.33894888533854
72.81036311936418
-25.9151217973955
-44.83479112829855
57.08088255573301
168.86362833352382
172.5222022806734
94.04200874416017
70.41077733792031
175.64119836520263
335.76231598462317
425.78840233133263
423.7035640684661
425.4815031064977
502.1194588509992
602.6433656056657
626.0785251436955
553.42253070692
468.6555108938204
465.7737513272784
530.8044414525185
573.7835315408254
538.7262015072678
457.6260450207085
417.4781044174057
457.29017667045014
541.0661733624318
595.7854808698052
574.4068328941673
493.8942118285006
417.23403210315763
398.4280287384123
419.47501823197126
409.3659626665343
338.09850785148296
274.690537049267
330.1787137352825
525.6029166372176
741.9910345566191
829.3563582929273
780.7074655027774
743.0598186812181
850.4399173890013
1062.8771480782061
1204.3925518169742
1151.9959767005985
962.6952763244624
789.5080667687834
694.4607647804403
603.573757042685
419.8500911699732
152.2815541052248
-99.13683526421124
-267.403387398651
-379.5223478028736
-491.5141197063466
-597.4051360276469
-630.2051141628078
-567.9016582480021
-485.48243261240776
-469.95895028201744
-534.3605943122542
-605.7047007273694
-606.9800478946299
-551.1641401055444
-505.2536194065268
-520.2675163214365
-572.2197116175842
-602.0945619409506
-564.853492669474
-456.46214707954243
-290.90592004031214
-84.17786104900841
147.74143526632145
367.88769163485347
526.2977541903217
597.9921730773652
610.9725634557587
609.2348580825458
593.7853059290576
515.6444228643671
331.83634422154495
79.37459262659746
-128.74026232873712
-204.50533860071164
-158.89842602265185
-94.88143030227945
-96.42326745366074
-152.52060491527936
-186.191238966786
-140.4465785557395
-24.27569245908029
101.3408477722146
172.40324702823364
160.88388157518352
88.75021925126543
17.992909574795476
7.6271027425983675
71.66642496488441
170.09860727041246
245.8903640716752
287.01371578333817
328.4651673799956
408.2553280366617
518.3797393500196
619.8000284095865
684.4544133177479
720.286630771338
748.2659015192751
786.3785774726741
837.6012561528529
883.8837830770848
906.1609468672153
902.3814977966988
886.5251238122171
881.587095897692
895.5482572015816
917.3639729653437
932.9806585947371
949.3574145706459
980.46565923537
1023.2674484348476
1055.700276043431
1068.686486470386
1082.1522607265867
1110.0331200577864
1137.2652627049993
1132.7816523052538
1098.5214694971694
1088.4397984497077
1148.5032216235022
1270.679067359718
1386.9344017498152
1445.2466087510843
1454.6081784034513
1458.016068163653
1480.4598185679515
1506.9258058146434
1514.4130571233923
1504.9382950941367
1496.5225474269
1498.176959702691
1503.9072190255538
1505.7296871361998
1508.679944048357
1525.8025233448693
1556.135403092804
1586.7043986656627
1609.5263846062085
1622.6128426340952
1629.9700177248471
1636.5987638060733
1648.4958409253352
1675.653522971721
1728.0584397603604
1801.696192090505
1881.5613902262273
1949.6621148411057
1995.0126095819662
2023.6248943177006
2039.5118505774237
2043.6990409836103
2029.2268305637872
1992.1363032002232
1926.4543127899851
1852.1963427135238
1807.3834280389674
1838.050619682319
1945.2376859621095
2072.975901291751
2156.286846453756
2198.191888542547
2271.7172685326063
2434.888971850479
2638.728589636382
2745.2572515586235
2662.5037359023736
2444.5050222642612
2228.298383268188
2089.91239404911
1978.3651477380772
1806.6704807315882
1578.8468765865066
1399.9219812258925
1351.9287074017661
1411.8923137642387
1490.816882532235
1535.6848131263807
1574.4724739167036
1642.1700849088425
1708.7898186901948
1698.358011363321
1584.9025035622446
1429.4489030869333
1320.0264468411328
1280.6741231245246
1252.4387261650268
1185.3677812413268
1099.5046553984
1059.8881629302323
1097.5549228499196
1165.5396114854689
1182.8734210691678
1126.5825183787094
1050.6885514207243
1025.21222054584
1051.1791872116842
1069.6247934550445
1026.5927426350258
941.1254684336907
878.2525260557555
881.9879914018038
922.3421072698095
932.3357694384829
889.9993098720159
865.3520032368131
954.3836681015955
1176.0599907871408
1431.3465350491306
1581.2270048857115
1582.6979803594984
1526.750937960518
1555.3654730113913
1721.5199902764894
1933.2021010311087
2034.4052213409195
1941.1182527379317
1706.3239934413436
1460.007751084107
1282.1643033921287
1155.7944414414906
993.8969995658937
735.4655177143511
396.4910027968002
67.96710098737219
-155.10588183446043
-233.71801092087026
-200.85218751008836
-118.49345343405332
-28.63917208033115
60.70359756026801
157.53196324952035
246.85664685141705
314.6951313469042
358.0555364694453
387.9298691894395
401.30189936997374
369.15807783654645
265.48803556867676
126.27816128833547
33.5086375530891
38.15714988861578
111.20091230378102
176.6140781246188
193.36721022088784
189.43326391700305
202.79372467348753
219.4368547998955
193.35123464585786
110.52251780292261
29.935635011616114
23.576004241141845
93.4254935455242
164.46084174177702
170.66030647639968
114.01165246922142
55.51085018456922
33.153098223241386
26.926975055173898
-4.18055102026301
-70.1772767608885
-142.067440063302
-190.85878007895042
-210.56320936141105
-221.18865033642692
-233.7346160136251
-253.19971874232908
-281.5953416086302
-326.94846948898305
-386.29035058238674
-448.6438968127801
-500.02313853583826
-535.4456428991616
-557.9447460286077
-577.5703841343131
-598.380160322351
-621.4277439127677
-647.7559387197074
-677.3980794112657
-704.3828320861783
-726.7368341526962
-753.4839032024182
-795.6432588271808
-862.2305003996341
-937.2612419093095
-996.7528496808843
-1019.7224137390607
-1009.1836375192586
-990.145598227464
-983.6133383128898
-985.5871433854768
-977.0620012012268
-946.0280731205269
-905.4730130382718
-883.3835135293784
-888.7432764987345
-907.5300205034006
-916.7171667920104
-910.2809600291455
-899.2085122567385
-894.4991435038885
-896.1571428551613
-899.1812147244935
-905.56226921949
-918.2925365488405
-932.3775109548702
-934.8360725440696
-923.6866662547034
-909.9332393329883
-903.5661445173555
-902.5768319323012
-897.9689862403741
-883.7530120451928
-866.9318967928665
-859.4967157571361
-874.4342027777096
-916.7340161838729
-975.3854163807246
-1027.3701545040426
-1055.6647627946522
-1065.2523568500797
-1082.1295940277341
-1112.3003592889456
-1137.7631353920888
-1126.5069264093913
-1073.5187682941214
-1009.7910211322566
-972.3219699924329
-977.1106944624546
-1005.1534259066435
-1024.4436452135287
-1016.9743506398036
-993.7399583209105
-987.7371597378168
-1028.9649744565982
-1109.4225318095305
-1185.1074250338183
-1224.0171157632317
-1239.1538090968065
-1273.52714417342
-1341.1508197859928
-1403.0357605519944
-1414.1863704366092
-1381.599885620249
-1354.2672360504375
-1370.1732933943351
-1402.2988205242236
-1389.6232675336462
-1308.1269939668634
-1208.7890802202994
-1167.5829036738926
-1202.4742889556037
-1266.4238618069128
-1301.3899641956395
-1295.3288556043656
-1279.1942903642635
-1265.9371486394812
-1223.5043496827968
-1133.8373190379107
-1052.8724804464655
-1071.5481161495984
-1209.8137629808473
-1363.633058337557
-1404.9773318473867
-1333.816255159294
-1293.1175459555186
-1410.8543069468874
-1643.0097528952567
-1802.5716498801967
-1759.523398441174
-1563.8416226387376
-1378.5006636735313
-1323.4754937141865
-1387.7380746918607
-1485.2538230840617
-1541.9882236818614
-1540.9200250722374
-1502.04741049376
-1459.3787473979746
-1452.9159336176674
-1493.6484238958578
-1556.5644279186324
-1588.665372147873
-1550.9684341353682
-1446.49588633132
-1293.264640253706
-1097.286658432837
-861.5753476422137
-617.1454538516227
-410.00790664197507
-263.1683060864905
-148.63449177501798
-15.422619189057286
149.44800781174285
301.96823479993236
383.14584493283655
366.9973312609343
266.5321381667163
110.74550576472188
-77.37579616581388
-268.84120001680617
-446.6500342089307
-614.7950296496531
-801.2734072493806
-1019.0975135586868
-1224.2961322104427
-1352.9039601586842
-1374.9474282779777
-1320.4395336047273
-1232.387516580594
-1121.8031255830524
-987.7034587065314
-846.1032696439561
-720.0105939615917
-584.431047389799
-400.3723731925709
-178.84357353934774
-20.853650835612143
-24.418291306294122
-159.5685279423899
-275.3474807126713
-255.79289581171042
-142.92313662199695
-83.74218162846773
-151.25785802536188
-274.4908143366124
-335.465383615968
-318.19720359506687
-310.69411521677625
-374.9706873223249
-471.05910131637256
-517.0065894764973
-498.86552883857075
-480.6871607878943
-507.52387794785204
-537.4354928331188
-491.49106625455397
-361.7625476040449
-238.3139289783536
-211.1942163777925
-268.4424323853433
-302.09963305375254
-223.21482883659382
-54.836012717950666
99.00381912964212
150.28825134455815
99.002750893506
16.119512460139845
-30.399521730282572
-20.585402114282033
20.54865242592416
47.00158561699686
29.771756825564466
-37.145891502252766
-125.7518090901018
-193.0352978654838
-204.9776635994715
-166.5588796510758
-114.75897016746637
-92.55646579823087
-112.9308599930414
-151.86932436005725
-180.36887626748296
-197.4286462142852
-219.03822649151743
-252.17581647187376
-282.8162308862942
-287.940382981825
-271.5345395385916
-258.5809508791974
-265.04805590001683
-264.8897013333881
-219.0551529209472
-123.50369596291216
-26.214291838158942
20.816086153445326
8.584864682294892
-25.901604815269366
-27.623938804404247
14.43963121576553
61.296611001883434
62.93303771243609
19.321592738948766
-5.563862893560781
37.25770188598517
119.76881284428532
152.94615206358196
73.76293711066114
-83.80216237614025
-204.761589533593
-216.12394546696657
-160.90125069703038
-155.1068609638029
-249.74536601102886
-358.8045374369108
-356.2586223641739
-207.0810164493504
-19.255899860813656
70.22128163405466
18.35188198560968
-124.85750273391807
-303.3955338830647
-504.2539339946918
-700.4344934102901
-804.9473255514182
-732.7998596916393
-514.9866962717847
-304.48784774185174
-206.27525017779658
-160.3181723119951
-17.584536025144985
265.95868546232896
528.3431255671975
564.5976654142086
344.7518406995041
36.84175008834097
-180.09030518936925
-280.00428718489275
-350.8686318548673
-432.6531391102519
-474.3146532715599
-427.79286449456185
-327.02528877919224
-254.96680782832289
-226.59422096442427
-197.89212541983647
-160.83829535015593
-165.4061614918162
-240.5809847916263
-327.3699314245471
-362.7909325272353
-380.8511272772687
-456.53464581149206
-572.8099597103571
-603.6476197795669
-479.02906062579314
-326.93955274510336
-356.35667524731866
-611.2514937930677
-891.6017640553462
-963.4031411386239
-806.6624292083651
-616.3797443980939
-580.5386301142265
-699.1166139529913
-832.1062479528042
-851.524312583033
-753.4006309709985
-635.7588342212182
-602.609576619704
-677.9589736355784
-789.8185751638598
-840.2056708122092
-797.1364878547049
-718.6225466763783
-680.6720661378491
-693.2897763843978
-710.4723109055869
-722.2083054457995
-766.4886937409897
-859.3195312643236
-931.7221138435139
-914.7188181079589
-822.3191183035675
-741.5202459403499
-707.320866012496
-658.7299324874394
-503.7629323564878
-218.4298355033975
134.27036102401553
460.3443197986551
684.7939453261636
760.6098743805051
699.7731480458497
586.2613582466489
522.0557934135212
534.1443877194739
531.5178411016293
401.1623708088115
115.05766424819626
-238.81831532856313
-535.483457897911
-694.9538418932318
-727.2527159969096
-721.4149006691637
-794.4798479345764
-994.4789972701307
-1228.4322372042948
-1328.357083671011
-1200.2807038592293
-941.2409204766899
-759.2748226688376
-758.4044994513462
-840.6330974481423
-824.9541946592881
-662.3675376886836
-470.89020131250237
-400.5552008732523
-458.4003411552604
-516.4590040561404
-485.7605014746655
-433.33824769122623
-488.2339957558843
-657.4939504233167
-796.1591660726407
-769.2594153977816
-621.813075771284
-516.8301683616698
-553.3150926889892
-660.2691182851579
-708.6950550963495
-668.5993711922397
-601.9903719024833
-545.8752016626323
-483.25990086230644
-422.1521627190908
-455.56344255972505
-628.5071559829976
-827.9953751683456
-879.0378813869186
-757.6450332973226
-643.8316466737144
-712.618211628098
-909.0287153034317
-1025.0873605633178
-971.8152261167575
-878.2308377486371
-901.3539335047624
-1010.2073247369175
-1063.811485739303
-1008.1749220553463
-953.2906090863385
-991.1438866929163
-1092.7241840246156
-1158.0289949581515
-1172.0566010450939
-1221.7990065489357
-1377.2449240232806
-1606.3886633320678
-1826.2316921019053
-1952.7739754637976
-1949.0056385287298
-1838.9103558374352
-1706.4779034152607
-1684.7122670364524
-1802.626101715048
-1921.2285165451813
-1881.5153660598858
-1710.4690655923594
-1627.0632609917188
-1780.2672758570059
-2046.0485290376419
-2204.3730224220703
-2224.2047350482726
-2294.5033372214957
-2530.2231678007383
-2768.3169720593905
-2765.744514663343
-2534.4817616651376
-2354.5232604646503
-2409.874063998267
-2553.536790912581
-2522.5026762147877
-2304.7505437268846
-2150.25178016649
-2220.9773323010695
-2363.901430660274
-2337.0018951329535
-2148.2569538756798
-2044.6420850664567
-2185.129636655345
-2411.6927950848885
-2453.3094261340816
-2258.963071995893
-2096.6409164410506
-2250.329866405121
-2670.0131094751464
-3013.667517365895
-2988.2604164345403
-2649.7501993754704
-2345.09447119184
-2344.2615788895514
-2582.233663325604
-2774.9958395253843
-2731.520201602344
-2546.760433122924
-2432.661832500471
-2438.177382541946
-2423.2744586161507
-2292.930016624623
-2161.1205967661476
-2179.8151321287787
-2273.975794849156
-2212.565528339177
-1958.5577368250501
-1802.9409644612333
-2030.7140178405475
-2524.8736582549855
-2848.40472950208
-2717.281356501746
-2316.4734795796753
-2049.9510644214274
-2059.683056130288
-2125.6370579292943
-1992.783428052613
-1675.099375746744
-1387.56742801065
-1269.1689311168088
-1296.8813450767893
-1390.6841550693098
-1509.567203480557
-1601.5325550182972
-1572.5896013876172
-1367.7470697338053
-1066.0070954449943
-823.3645781032892
-704.8125021917608
-599.3494549953475
-350.9834586227357
20.271347650136704
294.40272301800405
247.40582538124613
-80.71896155138529
-376.9734060390879
-343.3682997946753
9.075148246385424
365.3275105517114
425.35560879185664
233.12673256789094
116.61039411523302
317.77696097808666
701.5950831765588
888.0305363759462
677.0496482521601
267.6234836996596
74.73176793369294
300.3665246053524
761.531413058276
1133.2336942792617
1273.4713990442137
1319.2262393328208
1464.4717051194827
1717.1899139639895
1906.3801008927571
1904.0478221802132
1780.1872814441572
1718.7772636615243
1814.79697720627
2014.2445515174331
2227.1380129755244
2437.4993078243633
2673.3408621327153
2905.66625134119
3058.478908712129
3136.78458749916
3255.5842677029777
3479.868895158944
3686.6223419977423
3652.8260550479904
3327.458179578688
2917.491721944484
2675.900513647803
2641.672084795132
2623.810861049593
2447.323022473509
2136.194610895491
1828.3878585586717
1591.860068668133
1394.5828430562667
1231.5399163639984
1171.7061043901851
1246.0325894949929
1355.4551754224767
1356.9131990016665
1244.3579319554603
1153.7454004027359
1211.0274999107455
1387.1528600524368
1537.0740013220088
1532.7475043322768
1353.127045305875
1049.1608124878971
711.8008232270752
467.01392873089253
416.78039297100406
532.0787131326933
635.8715634867253
565.1077389694497
331.7375272712854
119.72722263865683
90.06130467044443
195.73364674147797
251.73827898762858
152.06819597824295
-50.280157455604694
-228.30404659306987
-320.9964353451863
-365.3495148298279
-425.35667309597
-502.0139172618551
-564.3212580185922
-591.2866155140227
-598.9280250867408
-609.2701337663843
-616.3360573631899
-596.1382084545194
-533.6756410118014
-446.93654621778103
-387.90478257296706
-403.5646366447344
-489.9024340987088
-594.9042482811534
-675.552224146317
-727.8225289964023
-759.6891032006439
-765.1322037678929
-739.1445598466563
-710.7281799366599
-720.8824551898698
-747.593676532088
-692.8373678125615
-488.59198493349516
-216.85328962442065
-58.634894144498276
-107.95544133742385
-249.82337502150108
-279.23300226143476
-147.17339751798
-18.638782113801085
-75.62811509328662
-298.13688191947847
-478.152397549585
-456.6572164151356
-289.634268350865
-143.06467152253697
-91.91985728023758
-84.16180295430536
-49.760042299532756
-6.709489726739662
-12.026345284547688
-71.72241199740859
-129.78280924827368
-164.17321879066174
-216.86984784746733
-326.88154014283725
-466.23784874928253
-559.9544345116724
-569.0104551394761
-525.3560807815259
-468.9391350376213
-397.7223428543774
-295.67977820727947
-154.78489302158732
-6.003990491255536
100.70101853919766
145.36944452170144
146.04218577324082
120.75911458032533
73.55143520610147
10.438003505312963
-50.56677320607707
-92.4376812244343
-100.13393051071739
-85.61322543226981
-68.84946845436764
-56.83336982533842
-31.55380373996661
21.017806797437743
100.92143502150327
177.18662186507459
211.8206161093359
189.820207377781
123.19268583569192
39.96098397851813
-15.85105805404919
-23.23592342382335
11.795237348078444
69.22495197975218
116.04358762580136
129.25268149431872
102.85713958068243
71.8553680808584
96.23592187716986
208.98398009757875
365.09294343647866
459.5690888388997
426.4249106956146
324.66831142014985
300.3007278557768
419.3273606700876
600.7679850155066
718.6538872855588
748.011536552035
784.8461968057584
906.1416548025675
1067.8739788791522
1170.0259358965518
1188.5893111247972
1201.553864512179
1261.8938144786514
1316.5666565724894
1297.5253022122365
1221.7338816389706
1170.1736047971779
1186.8365660446598
1230.716580822283
1251.805825306229
1258.0956442603679
1281.573751072855
1310.2173627926359
1308.9928531043065
1276.867474461779
1275.8204243254518
1354.8378522188223
1483.893156660406
1581.9368334450517
1602.9124930778387
1572.7854864007118
1554.5511644820235
1598.2110875286467
1699.7406659000412
1790.086006889696
1783.1952361589272
1656.0517974286433
1509.6734612105042
1488.0794134373623
1615.2612213202506
1750.1871726992504
1765.830923140429
1741.1892775998647
1904.26915886292
2351.0628694470247
2891.5420436077625
3224.675450961624
3268.447184984301
3233.85414666572
3344.8897790334468
3577.5359758440654
3694.773012089503
3546.5942015655655
3227.006486125865
2929.019579859091
2720.6377478346644
2515.861794173346
2234.696107649517
1908.151853997455
1629.2457300217243
1438.999460216623
1290.439812087438
1150.5951835885703
1050.4863566486515
1047.1205468960216
1138.4950337030555
1252.6079171495091
1317.4660702242272
1338.0827689575103
1369.4662519042088
1449.611065601211
1546.5007842798939
1590.1224156522997
1547.4803091841218
1454.5984974865753
1377.5081375571212
1337.2310334563833
1299.7741411103805
1236.1392583794056
1182.3355143745557
1209.3795260949685
1324.283308108238
1441.0459156752845
1460.6621661312943
1398.139607518732
1365.5024463434502
1443.7728882727356
1558.949707832111
1557.0098179919596
1394.932866889565
1210.7234616172825
1177.4063130989603
1304.9969768144238
1417.4809448936257
1348.8244116121637
1125.0078177182954
934.0462158976925
913.9755310508511
1025.8189936952836
1103.5692029447582
1042.2043729595234
880.7196986926261
735.1416591767743
660.5131764462913
618.8666162658217
534.2103294791056
407.53913979139566
311.8561129997429
298.18437328913035
328.5612635424934
319.02182700517983
263.5861243354112
252.25945806441518
357.04557926243774
501.9567231835348
514.0117918109572
336.227252073729
108.61364234468613
12.183417389915803
64.9563831032151
114.9513506132106
36.170376763841205
-125.4032022858064
-224.78593643225634
-203.97571791905716
-134.95810124733498
-107.73064722974345
-117.31527535583314
-104.7395220762495
-67.00745774495635
-54.09556364710079
-81.97861162314166
-98.65406039118784
-50.13461879131853
55.580778673386476
174.52019199841152
274.7167422807912
344.1770264827078
388.87769397207524
425.79406442544246
482.9295272903905
547.31419018749
541.978942016233
398.93617313869527
167.18773541979942
27.747272387334988
113.65179670023531
343.95086744636137
495.6883468117576
469.8906186678478
391.5609964025498
447.6823903402658
658.2283570988486
856.1803248339002
901.539396006021
837.3181209521535
794.5180752150407
825.1155227593953
865.0740868268181
859.3721261781311
835.0170176070072
855.0296842475203
917.4153486349535
975.1503660467272
996.197266182915
1002.527229252541
1018.1292675130301
1034.0004928023748
1036.1317566935045
1029.50386448553
1022.0945013240748
999.8864167766923
935.872159901274
852.0530088859487
807.4342973754606
832.0166208957478
880.7883922396518
878.726259764296
803.8055844709255
726.0101563416574
742.3311385775053
881.7578169178344
1066.272289287594
1188.8501918506101
1214.4640273929645
1208.0806834242633
1269.6578452240922
1425.1504287947462
1590.5233988903317
1643.7549250886846
1551.823636947944
1411.6937116736717
1360.31766375709
1442.6578195050788
1564.7023493472325
1596.4561335424796
1502.9127449231937
1391.0366579378583
1390.7728791854297
1513.0735792271325
1644.9166640554386
1685.3016285619183
1641.232658268498
1601.7039771973893
1604.697452913229
1609.1901147724238
1579.165070919611
1536.619408065605
1514.5656424546405
1487.0210021985179
1393.992123413448
1255.4678587681205
1179.4289751660147
1235.8653285866535
1360.7821716075525
1410.1898355054207
1331.0938032554268
1212.4984908895408
1184.4165066423889
1279.8633133137605
1432.8395914509258
1588.3220777223034
1755.2796804683037
1955.696424684776
2186.573595209331
2410.908155764034
2592.679182898285
2714.861298127516
2777.4486769086143
2808.45752636648
2835.904968006758
2843.792510218876
2757.113464313436
2510.868376729375
2150.063797680229
1810.695270508669
1594.7425626629015
1454.1903518692657
1250.0523490007383
923.3707151476985
563.1927604871332
322.5544195425115
271.4873345973547
336.03461678827034
396.2531741949439
402.19992016801143
387.9207031954073
414.44917111392397
487.8072179087877
560.9966691711654
586.9927559424772
565.7614090611075
527.2925644035756
481.617912992177
397.78834225492767
260.83084130251757
125.72998316751477
79.45410182368767
150.9998637251001
268.4057825270552
338.72263892501974
342.97429833247554
339.1492821422354
373.2287800879959
408.21675390070607
377.1396959282762
270.0246906616036
151.88219770167836
85.71262562090021
62.52302298517009
30.332312497562953
-40.83650118576281
-130.96426905150867
-204.03323420766503
-252.01882563096018
-289.88998177161784
-328.6153913283102
-365.1653381365445
-390.50513854322026
-412.5935551388088
-437.3951677635413
-465.89810163771307
-495.1165109869409
-527.0704734063652
-566.7610710525255
-614.1695599366956
-667.2801489844214
-718.1000245897303
-759.6541952379769
-789.95775905691
-814.994378309209
-847.720894628601
-892.0926982149421
-938.0855541917318
-966.6958336395558
-970.9235540449298
-967.757117128455
-987.1742358992648
-1027.1557070463202
-1052.6924330501467
-1031.7770284996818
-978.3907291659709
-940.5033885552095
-951.0913741852554
-981.1532184179523
-976.7030080369008
-921.7459562464003
-861.262148496888
-842.2201720917477
-863.6067811415983
-877.4373817396306
-849.7382132165716
-794.5198792123307
-747.7725393362771
-726.4835454483834
-716.6533368063815
-696.2896451977748
-657.3944121169993
-609.964962660669
-567.0103972406957
-529.5601825141372
-499.65229218667275
-465.31334668051403
-416.5539558630448
-356.3810902999797
-309.8096497931714
-302.85986063300777
-331.54844403038516
-365.8844765354846
-377.87335274699285
-362.52223022607905
-336.8455460406518
-323.86928381080463
-335.6308222881554
-358.1658234644504
-373.4908386548465
-355.6017991363891
-292.49531837631037
-207.1906290096669
-143.72510021533657
-123.12693430784813
-125.39623260580564
-111.51884818080089
-69.49549584750767
-20.34995111129001
13.893610595463002
36.23432628684533
55.68809223530627
62.26048068891009
32.93371870859755
-16.31715657729771
-35.49738768217051
1.4137909471895114
58.43862797910316
72.57069542553336
36.76782632690714
12.973437226452319
50.14637308546804
128.27281148821186
184.3524716622914
189.3749274446829
182.30976614082394
211.11850132709532
272.7758709162789
325.27921289260286
348.6377886919779
367.8578195788113
411.93703435663156
475.86948367339767
529.6489101900966
558.2681524265522
571.7186280704574
585.9950817421807
596.1014220154027
586.0490194030504
557.8463838865833
527.4924015572487
505.9779440841055
488.29076542366596
472.41262456135865
468.3139240939033
486.9584523137235
511.3185930258536
513.3846482793601
490.1513787506092
479.59302612040506
514.6570758184707
589.2913721431255
651.4794962214156
657.2470411531442
613.6306010920896
568.6403345968649
559.2529712889245
588.4404865010764
631.2012089276034
658.5615436848752
654.5467458660002
626.153614877966
598.3532056522278
612.1217045166088
681.4649334582583
772.4093435684832
843.9706283549029
902.1341597217678
1008.8704560296833
1205.1690089002172
1445.0524809000503
1621.5547366677822
1677.68923912936
1669.4452663913319
1702.8133315571422
1815.807596138167
1930.4604843437796
1934.798483403474
1798.8289151356475
1585.5496118093306
1385.9627170755452
1227.071909619251
1061.8675385721956
844.3207782935718
576.3999253813349
298.09390901929027
44.41883672331508
-166.5984855605704
-316.9426493063073
-372.615244733515
-324.61851928961175
-225.93393871085186
-159.51696413304077
-161.3168624232462
-186.302600251012
-165.46932159997993
-97.8188472870466
-48.33423838963944
-82.97551103268415
-204.69977273271905
-366.48320933823686
-520.3181934442653
-634.1905536956901
-697.065220005163
-715.8958721826236
-720.647109534545
-757.303239110528
-834.8559382038341
-915.2876833961702
-955.5724913809695
-963.692036994915
-985.6467140752993
-1052.4481046693709
-1135.1045133209834
-1178.6154163883657
-1163.9743630858097
-1104.1735925033881
-1031.2059356103973
-970.0660354311287
-937.7547288824148
-935.2772022365134
-942.6317617936131
-934.7988852331683
-913.745243480054
-909.4405073475633
-940.870749337518
-985.0309430951651
-1013.9046777648397
-1031.4540645031843
-1059.631661625192
-1096.4004441842167
-1100.7434880469448
-1058.6563323415858
-1017.1318202088488
-1039.1516888448132
-1126.691076952814
-1209.72956020701
-1233.2606235166807
-1223.2910962160927
-1254.8320792541117
-1365.8883056414054
-1509.4571125835882
-1602.5350422667843
-1602.1258503713757
-1539.2381267882947
-1464.8781619548809
-1402.0513310612964
-1338.771603922211
-1252.0653794817713
-1143.96032782284
-1032.4691446428014
-936.5875063937508
-859.3136425120165
-792.6681791123196
-733.6900420624229
-689.4131057249933
-667.8491884766391
-663.9968563810681
-652.8655924848391
-608.4882729977594
-532.9091608764479
-455.1612008037813
-406.2557047668147
-390.1916844407353
-376.9713058050521
-329.6057159608546
-245.1084928683955
-160.48788781088467
-119.74527727513231
-125.87759953809575
-135.87836981949653
-107.73726172733888
-46.442463317027205
-0.989799170644801
-2.3885342026995318
-20.658508977604697
-7.821187852958815
42.10470156180912
87.09986915754132
93.13911736654484
97.19350826307937
166.2365940634374
304.2458743763717
441.2023695771709
499.0946761631503
480.9254145251512
461.7091467371585
500.4580557985494
582.169607542267
644.8341647270258
661.4560698086309
668.0604423756856
697.6756006109572
735.311375785146
744.9619153221327
722.629359843235
718.3388058986227
766.1280254502242
842.0294411743606
886.0680976200621
872.2748586677216
840.6916694140633
840.3564658977582
869.2869730343091
886.4830257280612
876.9424190015509
879.6683077185417
929.6591505930537
999.8964619075922
1024.3475857420244
985.9811924855878
952.7749356787331
995.7093002943451
1092.759065842724
1142.8987455596127
1084.1172711590998
978.4196550459109
936.8070071155765
988.2523438768185
1056.7011766057472
1060.100150642777
1013.4245145312643
994.6753478413515
1031.8494324137657
1072.9162558799246
1066.8279123284403
1040.5509224936823
1064.0840724469906
1155.4432882175997
1254.6319320439572
1288.63154264166
1254.4186551581872
1210.9858408500525
1208.3426023628333
1241.498671535838
1268.451090801254
1263.187755716266
1238.700196355473
1221.9888695853933
1237.0566233823376
1282.8996089518187
1338.5039857627455
1372.8511853653074
1372.9222120170812
1363.6983238974983
1385.159761889528
1457.2865727751982
1563.0640585048718
1675.486682611918
1794.5545880786551
1949.2668177154567
2151.61867090953
2370.607395351654
2564.24194105847
2721.5452386839743
2872.5447087670054
3043.259608711117
3196.6976008700894
3255.864698321419
3158.776089373203
2926.457216870609
2640.9351578531437
2379.2322061053364
2155.3690075940513
1916.370021602485
1618.2614686959446
1288.0625706664503
1013.7816081093968
869.4240054963739
847.0030897061033
870.5385341699478
884.0405569702032
902.4971252374537
966.8811844362052
1071.171765047809
1155.3641964271703
1172.4614410320921
1152.459310172046
1159.3478384781868
1204.1258134633676
1221.8087997550856
1151.4166227939631
1020.9556734392356
924.4195651648154
922.806644479663
996.1303162938334
1077.4092897019343
1125.6511035898934
1148.8519368053157
1174.0104197476423
1215.1343529629066
1267.2313118351747
1310.3017778151363
1320.348355114024
1287.3896140584307
1235.4561096466828
1207.569632704731
1214.733164915206
1210.94665684548
1146.2280200826867
1035.6106472664983
960.1184591978871
979.7499583802852
1061.4925933734803
1111.347866336899
1080.3379399535602
1008.4876279843835
973.807405241343
1005.2984091665062
1058.9682046313003
1080.8329673625997
1054.903461720444
1008.1765289157418
972.6444429665326
957.3081894521383
951.1745769470388
936.2352339797521
912.4514549319304
884.7671136730015
864.1410526452669
848.5674030253672
840.0641212324541
836.6430752192312
846.2940881308213
855.9986064031278
844.7566119724315
797.59548106476
733.5509775101351
683.6396529465355
662.8514609187617
649.16835160251
613.5842009189819
559.1048983543777
521.7321619059429
533.4529019326562
590.2473643502199
666.1054267552626
743.0300034313309
808.0209388867993
851.0587700040539
858.1054538033541
836.1212560115855
810.0804278279152
784.9688209310189
742.7715230896422
675.4653740999686
617.0230911501679
620.4225026978008
688.6504929865928
766.7012153333977
800.5747708156864
808.2781623325887
852.8231243603517
957.217175476025
1061.4601952895919
1090.5413602522578
1037.4497169428646
970.1815068523854
945.7388093903157
960.1205882754224
967.3170532182473
946.3147547853396
916.105809634347
901.6908571406082
907.0699291912151
918.231863166777
928.154435729841
934.81544695342
941.2020031983322
950.3064260413275
964.1135715840044
988.5956853537022
1015.723816129372
1030.4828530589689
1023.8714217326817
1006.8874411143008
999.5173561399715
1004.7413459788654
1006.5476992342286
986.9363680831906
945.9082454919754
896.455324919579
856.5653955657917
835.2362464816413
830.4833621185901
842.3323950368498
871.8069899907775
919.9251974542694
967.7055414752838
999.1716638050029
1009.3500101278378
1017.262761882947
1038.9229728256087
1065.333265038787
1069.4871279891277
1045.3715986906832
1020.9724076849719
1022.2809416196296
1039.297861064857
1028.032722457412
971.5008399213873
903.7210254538993
873.7163307033445
880.5150750407712
875.1498107254471
818.6543361413045
732.0602900123346
667.3953381933022
647.6827939396217
647.9407470997344
632.1830147464393
592.4220718184399
549.6726748957708
531.9525145220244
545.2788627534487
568.6661929041136
557.1271459242417
465.6771959957536
310.3389035866718
175.14217025499096
148.1216305833463
219.3104341304844
265.7352988142196
185.4153733984071
20.366158434640624
-61.39689134989101
57.140696835319204
312.9850148502319
536.127901972142
642.5495651009708
710.2275568440566
873.1439249720697
1156.2857568332688
1447.6422082780882
1622.2031178104378
1659.9592963824173
1641.9007374741554
1639.0128998628848
1647.2775784372882
1603.6792145692457
1463.2098171989333
1235.865874213408
971.6404410156048
712.5192953909864
473.48762659322074
238.5386940862885
-14.32337048092404
-279.08749827173574
-516.7394661799012
-670.2616385556487
-715.6321197248734
-675.8263634151015
-609.8220580484061
-556.6005633667176
-507.1427929395686
-426.4310776563134
-302.446425706196
-166.17369422080367
-71.60318647124632
-45.729332539791244
-73.54699453766102
-123.04851797542551
-163.22349093467983
-185.05984357807972
-198.54483236258284
-220.6650299104149
-256.4067350656077
-289.75810957125896
-296.71259768125446
-278.2704055000519
-259.43705507092204
-270.22074938130663
-317.63164684483877
-382.68407629049693
-448.3973091733001
-509.79178222151086
-556.8821150657491
-570.6734016983235
-539.1636345212526
-481.34955551285
-437.2290258476743
-437.79739300303527
-464.0439021112726
-456.95340997316885
-377.51453031719564
-234.72663781748088
-94.59951942049906
-32.14607468371878
-76.3777482370499
-176.30708814847821
-246.9557840286093
-235.35866585395252
-171.55813485341616
-135.59344837135802
-175.49237767430577
-257.27058703672515
-307.9354790693184
-286.4895677552511
-215.93187839847053
-156.25965728895392
-142.47103641797696
-168.56786182317524
-203.55630091365595
-227.4464946862704
-234.2537115395154
-237.0003388467701
-245.71510419573758
-262.4294959894229
-284.1719263659519
-301.9614365128232
-315.80330639100293
-334.68990361896726
-355.6067137767741
-373.5401287111629
-381.4793619918685
-386.4119679577211
-400.3201976892925
-424.1862833361995
-449.00166709236714
-463.7677622912564
-467.484222942213
-464.1384588256192
-461.70962276938826
-465.1836202770611
-472.55872045017986
-478.83467687240545
-487.00027733325135
-500.0379834114897
-514.9412802023484
-520.7224741664188
-516.4014021836949
-509.98948100356233
-513.4913239870529
-525.9213390680483
-529.3140052087881
-517.7142833046112
-501.15996738362867
-493.67605386886316
-490.2854967599433
-472.02127572822724
-430.9267443253781
-387.04582738455287
-359.4135899584609
-342.0556116189749
-316.9930138468147
-279.2477536199898
-253.84485277023919
-261.8090050919058
-293.15813799488564
-318.8995520878126
-329.03388256100004
-341.56260154797656
-370.4910574976076
-320.822736861672
-436.55287449199267
-452.6711172507059
-474.17067605770717
-507.0529312695081
-537.3198359065902
-547.9642557694849
-547.9686362998702
-564.3143968056959
-609.9903706325273
-664.9906339098189
-696.3067883238336
-697.9250607377801
-695.8322422695569
-716.0219441082781
-755.49398256249
-782.2465551838517
-768.2703495937706
-729.5492951851629
-704.0649255143247
-718.7976314912227
-754.7240268352436
-774.8140111289315
-768.0322593854289
-758.344043252122
-774.7194558025584
-802.1343868809088
-796.5692695818361
-735.0093112256013
-650.4459386657039
-592.8784187855333
-577.3016714216589
-569.7133097228448
-538.1095675868432
-495.48599443711134
-486.8375142920704
-531.1571725681554
-600.4378774066719
-653.6759899423815
-679.8715993278126
-698.0231892169684
-721.1214934372548
-742.151946083945
-755.1032899559925
-762.9712801981153
-770.7523157553474
-768.4348408023956
-750.0012407742581
-730.439516926418
-735.7507774696701
-778.94374979462
-846.0245310296394
-911.9935431037376
-957.8506967372044
-980.5992037886615
-964.240667867913
-892.7685346441469
-755.16957117982
-562.432758600295
-349.5554875709719
-155.5401083226035
-15.386013033103268
59.9135822049717
90.3681476173075
114.98668441587677
151.78074747089988
161.7706725957969
69.98654838801042
-158.53890023096744
-477.7789746478426
-783.7136435456035
-1002.3224891161851
-1156.580737782021
-1332.4657392178394
-1600.9642008314634
-1943.069245652221
-2257.769305226229
-2438.045437594843
-2457.8841305438564
-2386.2903045221547
-2325.2797062980762
-2328.8564315481326
-2372.0020972933908
-2392.6938509045453
-2351.9313875522093
-2273.7412186387714
-2218.1523762559586
-2229.174150799048
-2306.8000124617683
-2411.0303784956805
-2499.886892234864
-2541.4048600260976
-2527.6188310278426
-2461.5571995318387
-2355.244045903814
-2246.700263459431
-2174.943728505052
-2148.992788197603
-2145.8689072987663
-2132.592894578688
-2113.1756204929725
-2126.614026079899
-2192.9056166454247
-2270.05762809709
-2310.0907050179103
-2316.0303867222547
-2345.903318525368
-2422.741969593762
-2486.58953840486
-2459.4941240351527
-2346.494498397601
-2252.612670494523
-2258.858227741938
-2332.2382778991873
-2372.7637374311043
-2335.4493897312914
-2272.3089016552485
-2253.3499195646837
-2286.5713555264147
-2344.967247033514
-2415.5349246968053
-2498.2806216793606
-2574.2141909543375
-2603.3355991405215
-2591.6256511360566
-2614.0514586662403
-2728.5832484825505
-2881.2065201260134
-2957.9204762937666
-2906.7269791333097
-2814.624259228269
-2814.607970569237
-2914.6903951399654
-2972.895256327227
-2853.2582079259932
-2582.82417123799
-2352.6466954718944
-2334.783928944148
-2510.2878344826104
-2694.191346823655
-2734.5073865876784
-2658.2415725788346
-2633.4050223743147
-2786.011227636166
-3051.061616236787
-3256.538786226592
-3290.417490684245
-3212.6843013337184
-3179.3447667229093
-3274.4134784129324
-3447.902815916332
-3578.822500692973
-3598.1859623707974
-3530.01222211963
-3429.320770486664
-3343.1272467679264
-3295.444274624077
-3300.2840661810455
-3352.6569383162678
-3397.5678603129577
-3396.015831612894
-3382.9958304384577
-3432.4996299940794
-3574.5171485103965
-3716.0407033113493
-3730.0711546941475
-3604.6169391780627
-3474.6849602602724
-3449.2732946875963
-3452.37443531998
-3342.985549522512
-3146.1126325006453
-3092.762099039235
-3336.928468320474
-3697.589786052145
-3816.7134189568346
-3589.2643092066473
-3306.2070261565113
-3316.5028440920896
-3564.1062458958204
-3629.9661832219017
-3232.0324152597823
-2558.2626523058243
-2060.624421003598
-1976.0871675039582
-2161.610235039991
-2351.1391277504217
-2433.6148508236565
-2470.987555040527
-2522.2207689806387
-2582.2834076744225
-2662.139367347117
-2797.7458271801256
-2966.059499353963
-3046.04286377033
-2938.665632060466
-2718.9030337226554
-2573.732435964808
-2597.129304610027
-2693.0669750938246
-2689.520822019005
-2562.4769273735956
-2443.940441039242
-2448.9313269709965
-2515.4828674645905
-2488.6328089430867
-2319.416410089688
-2149.8593399093547
-2152.97363647401
-2320.7610087158523
-2443.221299113866
-2341.3591583104035
-2094.1832594899365
-1945.7032635873916
-2008.9309467876883
-2128.8828413635165
-2093.5773377879013
-1916.0275805402898
-1799.2381923952894
-1859.2118965245218
-1975.9558407588606
-1973.4761635781713
-1872.7626498599104
-1845.7802994478225
-1965.4814935895909
-2080.830917492276
-2029.821575030622
-1856.4692504627924
-1758.7942482787184
-1838.809110287724
-1985.5213673858875
-2026.944764301038
-1922.106774390832
-1771.0447805117235
-1696.7917589848412
-1747.3629736954322
-1885.7510840397526
-2029.932406381826
-2078.8788393404707
-1980.5655810787998
-1783.9705974785115
-1602.0692532510507
-1498.8326573627578
-1431.2322411926148
-1316.2471235213955
-1125.8663764079329
-902.0848223623316
-671.8977797311668
-426.3009836914481
-166.295664056521
44.10881183938318
142.90190596370928
149.08413580046147
152.67177937898236
205.68796833262343
239.1481668121093
148.0529074779007
-79.60806854304798
-337.84558415991364
-500.66578263929006
-535.0735292945933
-511.0791039879852
-504.7027716541111
-493.9751687790205
-406.9317021829621
-220.60266953577207
-29.005257741251057
57.85424521152828
48.966163181110346
62.303665298906196
173.82302503404532
292.47663935535456
259.22562023577507
30.03899758517116
-256.11628137611444
-424.280165943251
-449.49539308134376
-446.8033948001679
-522.246629064826
-676.8709827172554
-856.7178506462342
-1042.8117342665867
-1239.1584812652718
-1421.7593382852135
-1555.625355968074
-1658.7760323785171
-1795.2231609860432
-1985.960151837479
-2153.9691499847813
-2211.236599123402
-2176.760016329414
-2166.5408070880094
-2252.5757150512145
-2387.856762890521
-2483.375484000276
-2518.1249548920555
-2542.0989647361944
-2596.2919868340414
-2651.701283741449
-2679.3284735136003
-2718.176352252726
-2803.2472537930785
-2903.5451768650873
-2929.0778330581247
-2847.8529292088597
-2737.869519663577
-2694.115039646474
-2723.572199995971
-2745.2284823380332
-2695.07932658363
-2589.1231243347333
-2484.3567438060786
-2412.777824506348
-2365.3906818671785
-2322.208243719207
-2262.248451070441
-2175.528743490497
-2055.06414722633
-1913.867440519734
-1784.9509885971663
-1697.3269201566206
-1648.006700751301
-1613.999687610182
-1584.3142712441747
-1564.9623083599229
-1562.964260757917
-1579.3513829624644
-1618.159940510814
-1669.4212640732355
-1702.154804116924
-1676.371189613024
-1572.0794121664708
-1430.3019287966206
-1316.0589756512204
-1280.361225980027
-1322.2079192127799
-1385.5958378282032
-1406.5296714655701
-1373.0205608764084
-1342.074250762385
-1374.6836642218566
-1470.8347037249828
-1550.51774423758
-1516.7294346950403
-1358.4623908566127
-1173.6963480251277
-1085.4018576380176
-1122.551693440195
-1199.1272405486457
-1224.1147381504422
-1204.4966250136126
-1236.2470273778738
-1402.3324169337086
-1669.716157830031
-1917.3657343080486
-2043.2587469660148
-2042.3826118110026
-1988.7246306092388
-1948.2583585750451
-1912.9422333906525
-1842.7328594935277
-1724.5999870299397
-1603.526817646409
-1511.4953511664269
-1455.473629704865
-1431.4198668204576
-1457.2975012593338
-1562.0834536456262
-1734.7623416641463
-1899.3162431020971
-1981.7220379082582
-1975.9576216132596
-1949.005673812286
-1953.8487288523056
-1971.461595305625
-1938.812445992161
-1827.8744812617679
-1704.6359564641061
-1643.0952454392136
-1650.2444399938518
-1678.0583463513208
-1670.5042003075266
-1622.5624643958236
-1579.2371791614005
-1557.5431499944596
-1517.4829150776932
-1406.036741586613
-1243.1767054500738
-1118.8885161377693
-1112.1785160742993
-1189.0612106648616
-1231.541082452938
-1163.605165865395
-1049.228327137113
-1013.3814391082917
-1095.0390926686337
-1193.1823414489882
-1170.7957638111325
-1020.8616897600539
-861.3579710640048
-819.2632255523476
-894.5686413450671
-985.2837495021254
-986.4292279407898
-884.0221238606904
-747.0664769593238
-662.5557266415723
-665.480089031618
-708.8284416240363
-707.5848897473543
-621.7269642323383
-505.23169878876024
-456.084432648856
-519.2836204255267
-625.8370574140315
-666.7529313470199
-618.0326289494403
-536.6737539563518
-483.680586027539
-424.0728280271594
-251.8795357261173
73.87624847229063
460.1856622382998
752.0415663458523
871.4166833023191
867.2545825559482
873.4849189123943
977.0484861102943
1133.9067403002996
1216.029277709133
1158.3755743969796
1032.8919691383926
978.5206791088864
1042.2209882235047
1099.9596499331115
989.7058903794541
695.4293129875617
359.10414630837914
117.71181649344271
-29.76359525773762
-168.3435647918161
-319.0558335891524
-408.92803060213487
-392.9798303816322
-317.2228704894077
-253.66695480762274
-187.32532224498158
-62.214481790149875
97.64858668224724
192.24913597564964
183.57708042027792
167.62866355941858
251.40439062877573
392.901758083035
449.10913873711354
382.0093996621015
326.5910804792347
412.8545141929203
571.8054874231298
608.4414297439265
462.7473923817669
283.7053233123626
240.3063667681484
301.5533326114223
300.45506486675396
162.0232020134884
0.2758401590430708
-53.760868062563304
-1.0594614103121103
62.401916546706445
89.64341850539915
124.69386621184776
176.59307512290388
181.37857458309645
91.06971611639364
-16.333717207670134
-17.838806037493555
95.55085377853396
173.8309726066808
91.98926002415465
-98.99247983866155
-242.12776790652032
-268.4196604896371
-262.8669369937206
-318.4709931206255
-397.2329175464728
-375.14713455066715
-231.20404621156473
-112.40129921539858
-176.75015974916005
-386.2684988577803
-523.9661439333195
-450.83927538622856
-277.8794549314873
-249.08651468207927
-450.47586010399357
-695.0727881606065
-738.9017939613561
-555.9811098764319
-355.3265915729544
-311.9600167323888
-365.91298376949055
-313.21843188038116
-82.89309164757782
171.07449794939413
251.71926368740765
145.08147509037963
30.19228523194215
58.07481893933641
174.755975461663
193.27379374343565
23.671139856155662
-222.01754793551777
-331.77162013958883
-232.57364023858986
-42.39267760659027
63.81937656619158
50.11129499807794
33.51266745811091
135.0314942028814
332.67286991216605
497.4552765391197
551.4013343778452
532.5117847942977
513.753167325692
513.0773417800383
504.45526700150515
483.8904793155909
485.4017429656913
511.9998407558996
521.6850534247765
497.4616214831407
504.34627303348594
606.3609438895493
755.5236572209086
817.8479894425742
741.3480567475906
631.0363735173855
620.9158034267305
701.9788039150907
735.2183787830429
638.6410407237795
491.2665555742745
441.11659512392214
511.2035598350798
573.5304380480353
529.0974619349338
424.9072241720843
391.9628682487721
477.2622134798413
604.7923973236557
683.5301793150657
697.4483773163854
700.524652858948
721.7465493591285
730.1079146287279
704.601575629003
661.217332070211
639.947436871405
648.7915656921621
659.7551890422374
656.8442465271573
671.0625976544824
750.4140585870435
902.9049705664256
1068.541509272161
1175.3246266232022
1200.2476491520179
1187.3000602024451
1202.4748920893128
1260.7730240768553
1316.1999598239406
1307.75913500499
1229.4456944531885
1143.2475791006154
1121.1526833154917
1174.1548433821567
1251.2535562475778
1295.4482716808689
1301.7372295002501
1291.1194433820988
1278.5950841393685
1254.1621173163276
1210.8126841158578
1163.534126748465
1135.3105440339077
1121.1190205226071
1091.9222237830222
1038.6691280983637
1005.3071722374718
1041.7950467554738
1147.1028614712118
1260.1993176832543
1317.0432414368765
1313.5920876021146
1283.8169759627885
1261.7080867150503
1249.2630277655344
1250.4697051842234
1292.303753217918
1415.7429295629013
1629.7809053118024
1886.427979246699
2122.6980703188938
2309.5962422322536
2457.1186642203625
2595.2622963834947
2737.034593259135
2876.4558061716616
2975.5541220484356
2979.3577453310363
2858.888536134692
2649.1610674977514
2439.1883862474974
2286.9922218336974
2167.6069254448403
1996.0698888868624
1741.4065710028221
1459.625253992118
1226.7260995887964
1046.7143198511912
873.6007116422767
702.3908487558998
598.0790112379585
618.6564693260271
726.1240684656943
808.4949150534312
787.7871049136975
703.0174064109465
665.2036056051015
739.365723913604
866.519503409637
929.6689034012193
856.8097886028047
689.9413734097409
544.0704900407653
522.2026825226661
625.3325264719475
772.4464912071193
868.5356204022066
877.6014091557568
823.6492095187002
761.6773670791008
725.6755527786582
722.6320445217539
730.5376503267062
737.3815004369424
735.145302840454
733.8025907182764
741.3251658891566
767.6907586370327
814.8841305970229
873.8918886704521
933.6950167123221
974.2678456662923
973.5837067694565
918.6216477300907
832.366271121663
754.7995172637188
710.8947384949861
689.6230060847082
650.9650923121401
579.9149180184844
496.47042351269954
436.6249559524649
409.3710428290133
384.7108608991698
326.65722247348504
239.2234791366834
148.41753592290024
60.25094091180267
-45.248180895867335
-186.03691702548485
-342.0734250522669
-474.32710774907866
-581.7684794128611
-701.3540437402872
-864.0281944376081
-1025.7426842324076
-1108.4694496936422
-1094.1934056019227
-1050.8967758087665
-1068.5563594442299
-1161.1579648907727
-1270.7082241917162
-1356.2290825518699
-1445.7426789907067
-1584.2645642612765
-1763.8063238666377
-1915.3782247317142
-1990.9850197986275
-2002.6207282938426
-1991.2692454609235
-1965.907254453526
-1901.5047646501484
-1780.0271357069068
-1631.4423783818083
-1513.7306539351475
-1462.8833550642057
-1469.8883568515157
-1494.719316288058
-1503.344560274641
-1493.745388991391
-1487.921165171584
-1497.8725009236368
-1518.583238984411
-1531.0221844505713
-1520.160862273165
-1497.9856158961964
-1479.49380647734
-1474.6853292961666
-1477.56200877101
-1486.1329322988117
-1510.4138218719786
-1560.4176170229819
-1622.1502693012785
-1658.6167328020886
-1639.829011243938
-1572.8035881770775
-1505.5512264025074
-1477.0718356232112
-1477.3610130374616
-1451.4176343516604
-1369.2434440561801
-1268.8352406439803
-1214.1819724942854
-1221.2751677290255
-1238.0980072266154
-1212.6513663471565
-1166.9391515442994
-1175.9656912809874
-1272.737178358555
-1401.263471225929
-1481.5565077903686
-1495.627110628931
-1495.485340512074
-1518.1434792159434
-1539.6163360316739
-1517.9175589011259
-1454.0555751081074
-1397.0350704327066
-1374.861140658446
-1370.5424390548492
-1359.0880677946748
-1350.504320192365
-1361.7966605011889
-1377.9746998913279
-1346.0545304587633
-1241.0576809288127
-1109.0069656395408
-1015.9271365653785
-972.8493079364375
-934.8122113183654
-861.8566737849924
-777.0169599067447
-740.3187367156623
-778.7842159903455
-860.4374243541747
-927.3021312443069
-949.3938455217058
-935.71460207528
-913.2576160789738
-897.0170573018356
-889.9945317470058
-879.1983200153397
-853.6393515886562
-816.3304375233816
-790.2861420616398
-805.5185460445599
-867.0301245354808
-947.8124445695714
-1008.8554167546297
-1036.158077556369
-1046.7253302830313
-1061.5537244270422
-1069.6222477091337
-1049.9040061211942
-1008.3867711210592
-977.0792616552815
-972.9951003083479
-970.1376032532739
-920.5054695463172
-817.1122398589218
-694.9917941377792
-586.1808520242043
-475.7002918337364
-337.5587978285236
-194.7694331754284
-118.35192993064277
-140.3145483650694
-205.639170217191
-232.29046888325564
-223.23972603478694
-276.4765437088664
-471.99832222322533
-765.7946691163085
-1029.842667348205
-1197.1138542755268
-1329.5809921519467
-1547.2207202976042
-1877.0149954776048
-2212.9495961131915
-2428.0071576685973
-2485.1595848342968
-2469.371685347188
-2477.6157285381696
-2535.8798369143647
-2591.1593748157557
-2579.44183353847
-2501.7053937498827
-2409.93616779077
-2357.1417520258665
-2358.3428651855243
-2386.5507696813866
-2414.7570788971234
-2436.947512827051
-2460.1233687231334
-2475.305327458014
-2462.51520703703
-2404.757759063228
-2311.02151061748
-2209.2945450933817
-2123.5742981042404
-2058.858876057906
-2007.131301785515
-1956.3580354422152
-1906.5064749209487
-1868.5542030624879
-1847.5056914046547
-1834.3493862565942
-1803.0543054830769
-1733.5809291573523
-1637.8992032894787
-1563.991840768127
-1556.8405814708308
-1610.415769009345
-1673.6817967623265
-1692.6100197435374
-1665.182760805223
-1633.3853451251523
-1634.2004044493106
-1656.6119504498388
-1656.6140965683871
-1599.212317702865
-1503.4181986310348
-1419.2446076449648
-1377.7068569265214
-1372.825931034164
-1370.629750734757
-1343.1505181456132
-1285.4200810074133
-1215.4609653176092
-1165.2781496406733
-1157.858849027858
-1177.1847549784927
-1176.2467540904058
-1117.0459393318065
-1003.5806503363793
-888.8347734519135
-823.7801135447935
-816.3901214287694
-828.6501323913562
-826.5570864945391
-802.1132733205131
-761.3219624817357
-716.1843528548386
-667.6963803319777
-609.8464087460306
-541.6185843215846
-456.002045684316
-363.99820625786003
-281.61950839876846
-213.8803400979868
-161.7897446846788
-131.35397152702816
-139.5865096302964
-195.5156629211416
-255.1809681633653
-265.62220330523814
-256.8713361446154
-353.9569307267214
-663.9125850278726
-1143.7786740945116
-1614.5948770793566
-1926.3935038106497
-2063.199550215714
-2077.0338274677065
-1954.9103535370477
-1613.8307106326886
-1038.7862492675517
-357.7699874095478
278.21473914372245
837.1583587646267
1392.0573714574487
1948.9203129338475
2362.759415151976
2473.579022620012
2289.3729848021762
1997.1340274138104
1788.8658589664365
1695.5862807223068
1626.3191738468192
1515.0833457604456
1401.887228667346
1362.735697980538
1405.642270137177
1449.635456759261
1416.751903370179
1291.0211152140025
1119.4549739563265
959.050015149768
816.8011115339236
656.7128560019852
467.79769140900356
293.0630735694557
205.49779264929708
229.07159211509878
306.7517561083316
337.52111746979233
275.38112041804163
164.3376869493447
79.38748555010324
53.52183851021094
67.74333397448109
99.07275909270817
156.5346988817122
251.1387444115438
352.87891406524136
411.7502183575967
422.76177373749863
429.9285933750068
481.25303732610513
578.7189711354422
683.305128505122
768.9999493859002
842.8018163283939
912.7077356570935
973.705621870083
1019.7764141462965
1061.8999856341707
1104.0557548947822
1122.2200827467445
1094.3645519820557
1026.4568173337989
951.4606816010156
888.3341614634253
822.030113479585
746.5013177460561
708.70585626908
754.6103183024002
865.1897154482128
954.4253085832441
970.3011846472779
954.8013418213837
979.9085876473446
1051.6072269412077
1090.8885623204828
1022.753693765136
865.2103049497746
709.2665952805155
625.9254613139725
620.1835594057112
676.0358315766555
800.4839609089694
1015.5410207341679
1308.2274817754055
1615.5605177294399
1874.548813811114
2073.199581235387
2251.5277725068768
2448.554044751373
2665.2910881785406
2856.735318752405
2963.8760692899964
2963.7114605242173
2890.250599291
2807.4959076945456
2754.427273789781
2712.0085344868326
2617.210539842162
2427.0246882385936
2162.4537716211753
1889.4933093872403
1668.1276973920305
1527.3456391850552
1470.1574095667181
1486.5945662379465
1556.6952501602505
1633.4915293557674
1676.008139398585
1681.269829658597
1701.3061968042373
1788.1504246508614
1929.8338861634593
2039.380430224036
2033.8044311203698
1904.1149854106552
1728.326932751794
1596.4696483230543
1532.582967924496
1494.701059852943
1425.8402319159081
1314.0064249236552
1194.2143477047916
1105.4963287913163
1051.8878200890874
1001.4048959760537
936.0367108485293
882.7584756441452
894.5487274737548
978.3942328463667
1074.2842697946435
1100.205964208627
1033.1478626739795
951.1048097574599
950.076854780053
1063.0659219824583
1226.075787270034
1345.1151450710104
1381.1992788820016
1363.3476116411205
1350.5798720073426
1371.9135778195048
1419.362373573312
1451.9353846575304
1423.6384358601085
1314.4774264455916
1155.4658065835686
1022.6029754086913
984.8940780848047
1043.3387656386633
1131.9357211637785
1168.6895188285644
1139.613202521873
1093.7228904145973
1078.0297154397265
1089.5364373879324
1096.2410184703954
1078.142262183915
1051.2414808765266
1037.5369522440194
1034.0167988064925
1031.6564459111087
1046.4243513042416
1105.2915740872083
1201.2364366818272
1279.2430517428115
1291.2963357009112
1259.3807450749473
1262.485557366185
1346.60990429664
1464.7620032851532
1529.9528971536574
1505.1916036343323
1429.4861152372316
1348.8482216329203
1268.2958250149313
1157.8471122342035
1020.5108876279699
898.2827614048995
824.1514080366933
793.1106574163751
776.1661055826199
766.3310643528469
782.6156740738006
844.0216425301344
942.5496329144461
1043.2123547601877
1097.0371977530403
1072.0514206115863
988.2632937983147
911.6575576546855
904.2101672141309
957.9037030336208
1004.7233333187396
997.6392690389329
965.5969341473328
961.530471086006
1001.3850242484397
1044.124317486555
1056.7206682026235
1054.1459318152151
1055.3773035021725
1037.4093460632484
974.2521539931524
894.917447558428
870.4085424182517
929.7262110199376
1020.8775705943299
1063.8727113399543
1043.7129973435897
1009.3887986387006
1002.8936643367663
998.2375009180696
952.4437466834596
869.5352061952917
804.527521122802
795.4378655531985
833.2933932267936
875.1257232586701
894.957144889722
903.7939720467951
921.6333669484089
955.4706151557309
991.2972759687023
1007.0944360643475
997.8339142999554
982.4880267084039
989.0388554423064
1029.4785181299326
1078.804238391515
1095.0175937795498
1058.1270099863584
998.1463123757652
961.0855847746377
960.9434186880117
954.7097997935459
887.3775715752183
748.9492763446963
614.4321241064391
579.8280564095387
671.1316989047416
820.3383792748308
920.4513427539212
927.478475917215
902.4224453415284
934.2773038034281
1035.0382024472337
1116.7058571009309
1085.309200462505
935.8716688134758
751.4050229097717
608.9056296493677
521.3600429621645
461.75356628792383
423.0750415670729
419.31469273523817
450.45648774753283
470.47022877123516
434.3109854546875
345.92751581944634
260.27546367243394
217.3242713080694
205.05351161322744
193.44422109527477
189.47529176746497
239.1286082527651
374.39690393109043
581.2877172206807
814.8187208698641
1044.0097932186964
1272.8772392987592
1517.4337062152958
1764.693239243126
1967.673977886591
2068.3944268009805
2035.8661186462082
1891.090060011266
1690.064879767523
1478.8007211697322
1255.3244951981644
980.6712784140063
636.870814911556
278.94462979540987
-0.0831555517356719
-147.17442010485797
-200.27907609203476
-240.35190414912586
-298.3701490947704
-329.33771134164033
-266.2736265796443
-108.19633299535582
74.88441047806873
207.9628535392203
275.0274461329808
318.05824980947597
382.0352145894473
466.95097269548125
529.8155411104448
533.6502666818002
484.4787914665758
425.3223163110045
397.1982084964083
401.1179308626521
391.084656921293
318.0951689110558
184.14557871649913
46.23528274092007
-47.636287330602386
-96.47245590326304
-138.27472583859662
-187.03157976482498
-216.71474718817353
-203.2882547664426
-162.7213405272363
-142.99219457003983
-154.0808928100314
-162.96399427627034
-148.61925020472177
-130.03456268568073
-150.2102576538856
-202.15313457975446
-227.87038840479772
-188.37003495021963
-119.66120410872759
-91.75028726064534
-127.6349765016081
-167.306143006463
-145.75731084403333
-58.99041045586284
28.990396242137194
46.18932098067148
-27.380718216292962
-161.70899707335911
-305.7937318425436
-414.63304897526746
-469.2092848142313
-487.4871980381972
-516.429721940601
-578.0127222208208
-644.2223568263403
-654.0421493758619
-586.4511569557552
-492.43983209205294
-442.02468742052395
-453.2416141646694
-477.1215478625038
-468.6740571787292
-437.8959468966192
-430.7951089418332
-468.40662682162963
-518.7859916093475
-529.9856336223686
-489.03584734494143
-437.94534086308954
-421.7211384029715
-445.39155098111416
-472.0113250478381
-461.6444033873802
-415.34071378259785
-364.1280041439253
-336.02444595814063
-333.05681785485217
-333.2645063669354
-313.68878896105457
-259.36053979341943
-174.29804111416024
-73.51230285098188
8.989387446643946
36.203845218056244
3.1329086828782238
-50.21978447537788
-62.852148205603726
-13.761904537396845
60.057181770021316
98.61772881970569
76.93666868463333
24.032070175449917
-8.077039222175017
7.630309753428605
49.17609103442396
71.58231624291136
53.871294445889134
24.069336779936293
32.209532357031094
105.32871600512931
209.4583311156092
280.6134550347622
286.7887101676324
250.96319381896546
219.11292981055817
205.22291460827023
176.2930781858936
95.33738157976586
-37.61928246315824
-187.5423292759724
-320.38607350327766
-412.09353774829174
-453.6040580890217
-447.86619251224397
-417.848445013409
-398.54077097011896
-399.94820738144654
-398.0867009888525
-372.98596125404265
-338.69218181592555
-334.259383376311
-380.7295772421753
-462.11802425176484
-547.4160977554707
-617.6082592204928
-671.6837570015489
-704.6349069231528
-710.4493284767759
-700.1093444793871
-707.6006553312179
-752.9209454118509
-815.0808289050469
-859.1015244273369
-872.0120397704309
-871.8472160550714
-885.6436053527727
-919.4343316672575
-960.2470088022287
-1001.1045126460785
-1046.027675157457
-1101.0369194689747
-1158.1527523496707
-1206.3939941913407
-1233.7706183083665
-1250.2743156205627
-1274.8764019878458
-1316.5350038509723
-1356.2057202052567
-1366.8456464649164
-1348.4098832520199
-1335.8513245526624
-1366.1272734832085
-1438.2048696809072
-1515.057281596096
-1561.6570873937096
-1586.9795626121722
-1610.0132980676212
-1614.7642501815074
-1548.2430634290495
-1370.4470203916687
-1114.3577977303867
-863.9581949429883
-690.2484064091236
-599.2443358189314
-547.9602318199222
-484.39454829237775
-392.53252660272506
-306.3614548606529
-294.88341313341493
-414.1153592559174
-653.079027381257
-936.7910987513912
-1170.2611224583848
-1337.496694532836
-1503.5088690796692
-1745.3122699649314
-2059.920236767542
-2362.339552873952
-2567.569612192805
-2659.604844902763
-2684.4368673904837
-2674.055466460941
-2627.449169405793
-2535.6085404799946
-2429.5295577000984
-2352.212760908119
-2305.657694767626
-2256.8565035041884
-2188.79650631851
-2136.471599321776
-2153.8937197043506
-2252.0915955018354
-2372.0946964311233
-2452.916466061224
-2483.552186220006
-2496.9917303845427
-2516.2349876776025
-2519.293380359334
-2486.1813238273703
-2441.9109720583465
-2452.4967555041476
-2539.964761302737
-2638.3541573905522
-2657.709191154196
-2572.0658577617355
-2453.443120719117
-2386.8399536432908
-2387.23915221482
-2393.6144886176708
-2355.9392835387034
-2292.192577046291
-2250.3602670930472
-2246.4348062599347
-2255.415233381214
-2250.308864749589
-2236.1334747841365
-2229.91906465207
-2223.706311194393
-2208.538771445127
-2200.448759290234
-2226.447248979933
-2292.5256002421866
-2359.669065219331
-2391.8665259143745
-2401.107731599082
-2440.3743936031515
-2530.641660346828
-2626.89184829426
-2661.1254022847734
-2630.3570879673707
-2608.6033984770843
-2645.8772440196594
-2686.195286651234
-2628.5830356909914
-2473.0702265192795
-2335.6817522168953
-2324.4365390439816
-2397.3566202041634
-2410.471636459986
-2296.8110192776107
-2156.391372690888
-2118.214568493533
-2166.276999167956
-2177.577509891871
-2093.1155997967967
-1999.885982678033
-2006.8793916790548
-2085.0909679720535
-2129.5264419128107
-2128.1978520156626
-2169.114428683535
-2269.276949028758
-2302.6786326427828
-2152.309932341378
-1918.16309912886
-1812.2339992328557
-1882.520512354931
-1938.0183765181077
-1780.716905430162
-1481.5996369847448
-1301.6517805043677
-1370.8668491470785
-1543.244704725686
-1590.7838112180882
-1470.4789036430893
-1350.329460884634
-1387.34863635441
-1545.5614704393938
-1675.992625325052
-1690.6580867491725
-1636.571638157583
-1613.7570352341772
-1680.2489902906307
-1794.080562798157
-1871.2717471985998
-1852.8319977345107
-1764.772840068279
-1693.1137354521113
-1689.8764209662118
-1723.076027009267
-1698.7210052574933
-1558.8199204169573
-1353.3868326149213
-1181.440650079718
-1122.997006700688
-1173.0616872079786
-1251.6288042425208
-1262.6863245465563
-1177.2276661253036
-1080.258950100645
-1105.7914978727422
-1296.8238725363967
-1533.3302802877301
-1660.270419833248
-1645.6139888885311
-1602.3546717521642
-1610.5016331641564
-1606.058008922164
-1496.0100232946113
-1329.3368810755205
-1250.0273023995192
-1282.0886712688673
-1257.5408022335873
-1028.4013637993594
-695.671612475495
-517.332753471012
-602.353663162113
-772.7048954957351
-780.363497183637
-590.3034296357797
-385.48139059330765
-333.83448668703215
-404.29587095629245
-463.812622288979
-439.349359431724
-364.877798367128
-286.36748250456094
-183.7856701201855
-23.10271472130637
161.70691088596095
278.66923670750657
270.81602479359026
198.18830210543615
194.8384016529867
340.82673714790997
566.2107895148142
703.0321018500971
654.3137160637631
516.0719870384319
474.33122348719803
616.1246182512493
826.4826652781223
922.4229169157502
845.9522723019747
711.07420852628
666.7915651483972
734.1077379518972
818.0340156460563
848.5999725873721
864.8485030313509
970.8109327846253
1213.4845521726168
1510.8421969340984
1723.8673983808947
1795.5775652820882
1818.0090021650662
1932.1809344344108
2172.0793579416836
2417.6735022438174
2511.9413912937734
2442.8759547805557
2340.472228848002
2310.7176850398237
2295.5930445880786
2155.074905654272
1848.132251110357
1496.727035564565
1243.8293209554236
1100.4348715566455
960.5636104218515
775.2374437740666
614.4589400903944
580.2111592806813
665.4717443087379
770.2236892512544
804.4565137513371
776.1634293871805
732.3387329219195
677.9719210490348
584.0389841562192
439.50064627175834
280.31532181377224
149.45611566741468
63.91291894721758
19.677902084429434
2.7317069765897486
14.04579223606288
36.59699187326987
48.376667976998306
37.38882050303573
-5.357388276615666
-95.85111094361673
-236.0802948292071
-384.03266117656835
-462.6963283056316
-437.0613747915588
-371.1212987371931
-384.8763163538724
-507.3354347418118
-629.5130319275139
-619.4228122778616
-505.076373535681
-456.4873892878645
-580.6760668628489
-791.667385592772
-908.4837470526323
-863.1412650420981
-796.6517653668142
-891.0295373462601
-1150.3000717074751
-1400.5045681010668
-1489.6970758862103
-1447.9298609351665
-1432.2353889308806
-1525.6190213327393
-1651.071696864231
-1676.5897966058874
-1580.184034947177
-1462.871519776596
-1443.666788677901
-1528.585470307769
-1633.656880563788
-1673.930094214744
-1650.4647281460786
-1615.3176537245117
-1629.5378757778535
-1706.1693206648579
-1818.2510291744104
-1912.8100057728525
-1946.8545385478562
-1915.3755856714654
-1852.3559884342515
-1802.779830068416
-1773.6387510526022
-1722.9349829135751
-1618.6803445054934
-1483.8911260540735
-1385.580354455233
-1355.7532038874506
-1359.4115149964405
-1339.5623957656135
-1275.22127501775
-1202.405998334691
-1163.1260137883423
-1154.3781274767532
-1145.1495211260265
-1128.4223402957698
-1101.1786181871555
-1045.4064296527229
-941.1052057873999
-817.2804045073519
-759.9242108004759
-824.9971011264793
-956.4333377512119
-1015.170358182598
-931.176151729125
-781.4457104060509
-740.9731289327897
-881.7330742344725
-1078.6922921804294
-1123.834778005531
-970.1705975267146
-788.7199266202899
-767.4948471309345
-876.4970673457537
-897.7261458474396
-713.1801823171653
-487.84898229327433
-493.71324547503576
-741.7558829768976
-927.9742568942129
-775.3791338955097
-387.9820443683165
-154.78482829810002
-311.77771975626257
-658.9468531278721
-786.2854483248982
-534.8028956970599
-160.52452937665487
-32.4771492228914
-229.66976949157868
-480.08688195494676
-494.7040784353642
-290.51267408865726
-126.52637040898571
-169.76284881759267
-321.2200009819115
-358.8695700658317
-215.67322686936637
-50.601207918538876
-42.636731630927784
-160.76779127553175
-204.9789073235287
-49.251856358007444
206.42953842173688
353.0767138791046
307.6953304568847
192.28371969904282
200.83010720405747
402.3161802845867
677.7297282496852
830.0778934167633
763.387323945476
550.6895672383354
398.0085232144503
470.3637783873241
724.7824611999631
951.3011358897243
972.9478326186145
812.7262931413085
654.6264109789792
654.652932226328
810.84118297342
1010.240681990744
1148.8857546595402
1169.784649470011
1042.933760396143
800.3325728145853
584.9803169189648
587.8649666008187
858.9646698894089
1198.2590253012322
1307.7306950744978
1099.3551249343552
799.094851916218
736.9141886170806
1031.8008160001918
1513.7688216846082
1874.8375034757787
1953.007833479388
1829.2622588159486
1718.5856517731324
1787.983887393147
2037.4819815248238
2330.1057082861143
2533.864300795954
2611.7481100560963
2616.741825137514
2601.839648616732
2545.0465961901364
2411.3657709960535
2225.7853619861676
2074.2804548358195
1980.826527063495
1846.405451471499
1538.9991840812595
1081.5823104159556
659.1283521405785
438.628346443932
410.10054547040556
460.57903486838956
545.0937425170662
711.6612745602498
973.2916588086348
1215.9994583098423
1306.8056821712617
1265.732423787359
1258.7959676446226
1359.002295554452
1444.3481770961175
1334.8301492130993
1016.4555176294214
691.2458298365423
578.2259715539315
713.4110876811272
949.8047193276516
1089.4091710298108
1046.2331744377243
910.2887593118156
847.5829552765438
953.1154750158846
1147.8825170017253
1221.8775460198653
1059.0865985321775
775.4848560424314
604.0397127570752
631.7177982027295
701.4888051272085
606.3268998116821
338.21158495225245
122.12543376785197
159.0470844406484
416.94450139923185
661.781786701943
705.5380863309842
573.2191113315959
447.8456063677223
466.42950480633806
606.9623031510304
742.4309760809899
784.8414143602024
748.2208787213668
691.5975853211222
640.9815888171897
574.3677798870334
494.75016203888345
424.1255340960165
343.48366401768317
234.8047322931011
132.07582483521333
123.3088110624276
252.5326769087469
397.7662481484049
360.00402394479204
112.23235044739658
-103.54455217119266
-13.30272879555855
365.9771392802868
711.2891981889737
752.6120094818572
545.9334374507907
371.25877868216617
386.59688888754715
508.9483244419887
586.3131802681409
569.7056395287558
488.15333769586334
347.68142545511773
179.30116409552522
115.01303110678145
289.81168125744125
631.6815773111748
857.5907725347149
782.4967362704145
571.3609229820448
549.1544195917521
802.8503292524513
1082.4166975469525
1125.8232776239222
984.0559085922064
920.1231016652143
1022.0484730618514
1089.8553485278705
945.5522137360338
721.1247987290698
712.5399297970862
975.7645899551666
1228.7837820647187
1171.5968482921312
870.1898979548268
675.514695641251
805.5030148429987
1084.1054256829325
1169.3117288539054
965.1316900493716
727.5649024976701
739.5972581716367
987.2233594151832
1198.4600507930852
1186.3298070653632
1053.8370039651757
1032.9709710314828
1173.7314697402783
1291.1422805230986
1225.2348741161695
1056.0226311695446
1004.494988378578
1122.635881703973
1203.4453061547852
1037.9463929050094
697.1765017356732
463.16961576207495
513.9445069338344
743.5073475998591
894.8716958822403
850.074466199125
714.1701426324317
660.2050850287897
756.1986768004697
954.1513515560011
1151.0672239149035
1272.9623057686972
1291.8528739383191
1233.7423596328135
1172.625902775808
1186.5048033171804
1285.3895278348841
1380.29007162849
1370.2082468699093
1235.1394852894728
1050.0787227831408
924.0228269625336
897.9720246160605
933.9322048275687
982.9135044968207
1017.9196630886861
1035.938738736462
1037.951830376469
1025.9552063631277
1021.9716353004262
1055.0325063679422
1116.1487001627809
1147.303702803476
1081.4750245652351
902.6568576287635
682.8545872126059
543.0619567994618
554.2524339433887
674.395910183645
771.478231588718
735.4987060810785
593.4507701363377
504.3141392191004
593.0670029432699
812.7007377841202
971.2188737886627
939.6201143414467
815.8852174602591
829.979680191837
1084.867719898868
1436.5244136973727
1653.9378654979032
1676.1026814310908
1657.0116335205576
1766.6518711571152
1978.0111601624317
2102.0914347129337
2007.9154858751644
1739.5174419132572
1444.9233861164985
1219.1410561435819
1035.1666608583942
814.9963457218403
528.6279950036399
225.0535143823231
-22.745483365262317
-178.78859849617197
-268.08411470512806
-344.62558063714687
-409.3993442529496
-413.390437498619
-321.58242881590604
-181.9569731477033
-89.4977670087909
-73.19377653625321
-59.03628519711822
13.98482623244115
90.87425545777836
40.61844226683871
-173.81757092009553
-430.4727295860022
-568.3684805986684
-566.505109614706
-537.879616933403
-573.5033047685372
-631.3978412718872
-612.576412980741
-495.03431709803294
-366.7578511239119
-315.7378841899514
-339.9702433128757
-380.44661204707495
-407.153070711209
-448.08223370867336
-534.242601165698
-650.6524745391628
-748.323749825814
-797.2542007240645
-806.4364039662873
-803.8727354269889
-810.5796595948405
-832.5785180822858
-858.8786425443031
-881.4677834314241
-901.3165937061934
-930.3974765649272
-989.7022924611845
-1082.243030070231
-1188.033460997079
-1274.0693252970498
-1323.328424229857
-1348.788581287952
-1371.440799939194
-1414.2833357128975
-1484.307178948979
-1573.4940525000507
-1673.8269965052723
-1773.2952688463054
-1867.885832513807
-1963.575307320164
-2067.3362955761045
-2168.1517231618186
-2230.019394814869
-2233.9398131435373
-2227.900025958907
-2289.871857701568
-2431.8217017901384
-2558.71814876557
-2555.5334657865283
-2449.243698596423
-2403.8313468619413
-2534.286192404242
-2748.599702310932
-2844.7593523085757
-2752.749224809787
-2628.5566341489393
-2661.174335049527
-2835.593582152578
-2954.7965724127157
-2899.7557076520075
-2765.440794671921
-2724.8271646440353
-2798.897934420135
-2847.6407752744676
-2774.0446114041556
-2644.102984243337
-2589.8244693188985
-2629.237319285311
-2650.3788993353655
-2581.2712591787777
-2467.9073684546415
-2396.264981656907
-2380.335695334907
-2363.1358915500796
-2324.6845012717836
-2317.972424278488
-2364.9618113674455
-2392.620825478649
-2313.958385485911
-2167.0240276574473
-2095.8809619425915
-2185.5846875751627
-2345.1827189786336
-2400.7192315273155
-2290.2302617777495
-2134.731697610779
-2093.2168840142635
-2183.6667717085065
-2288.0576378791748
-2304.357942742483
-2246.5213752853256
-2204.493111894084
-2239.2271250518697
-2339.7001141411856
-2459.9115610446815
-2555.8733043577085
-2587.599040437305
-2541.1015103819327
-2449.3952693344545
-2381.4995663140835
-2372.4346673476803
-2378.2159327078484
-2335.8484229210617
-2244.3293696116443
-2183.6550527344325
-2219.8217785059996
-2326.8205701505376
-2409.633498461125
-2408.238415571905
-2354.61845124109
-2321.766041372291
-2330.6786793538868
-2336.3546654092024
-2285.7942450721075
-2179.0020260669035
-2066.9875738310557
-1992.7633307159322
-1952.3466103660078
-1908.7601955869645
-1850.0232935202775
-1822.1363194901105
-1873.0767465056213
-1982.8118575161625
-2059.318189839438
-2040.5868986999803
-1977.614166747918
-1980.3901707949908
-2086.8980292670267
-2205.1195557868887
-2221.0415820152807
-2135.66022335464
-2070.9824929722663
-2128.0226807469016
-2273.7932686894796
-2381.299306062702
-2373.5402959526464
-2293.5146121539237
-2252.217955671974
-2300.6382696868677
-2390.7607751411897
-2436.581634813906
-2405.111720975988
-2336.359652460832
-2282.3090937931147
-2242.923190669657
-2170.1785579216858
-2016.092659533496
-1794.7125196131265
-1581.0770838585177
-1440.1936924978077
-1379.0523344022442
-1343.6559345509563
-1284.028397402855
-1189.1961186895387
-1087.1675123089617
-1026.9332029664185
-1045.4784598700003
-1147.7874280960368
-1307.8374942621056
-1473.6002724389355
-1614.0553195779369
-1745.2022396550678
-1925.0526933839938
-2190.609776378056
-2507.861392483145
-2778.7961260830507
-2915.421184622125
-2912.75744095308
-2854.815443019327
-2832.581212631894
-2863.03234194748
-2872.164047617947
-2788.9943501966072
-2637.5421441864914
-2528.807592157005
-2556.781425017305
-2699.472188082047
-2853.9184949814794
-2953.172896415024
-3043.2756155077836
-3196.246488894067
-3396.0946918819377
-3516.828295009018
-3441.4527853038016
-3180.9670558369644
-2855.36723756923
-2573.6552718458033
-2347.8408204541456
-2125.9324736317694
-1885.9315898644172
-1677.8374024383556
-1577.6616301063095
-1594.4365296272704
-1668.205814745701
-1724.0041076762489
-1749.8414102355557
-1799.708257845348
-1939.6003354552
-2158.5367369754667
-2371.5511134246353
-2496.6627233878676
-2526.860458289509
-2537.119513329594
-2606.435947077505
-2741.839297223906
-2875.36975634434
-2939.0489238365476
-2902.8770164283687
-2781.8576105863553
-2627.019500150831
-2498.411961464413
-2437.0832657710953
-2418.067225998616
-2369.3863263950584
-2249.062269018345
-2110.120755274475
-2054.587604017045
-2120.4803979252756
-2226.799272060364
-2252.525335257933
-2168.630112153986
-2059.0898679977627
-2020.8891997560013
-2066.0115188621094
-2120.429829506379
-2113.113697257716
-2049.0431588227025
-1990.2113241219386
-1979.6113197942127
-2006.2280426132604
-2017.0464667214399
-1968.0645497219175
-1862.2925314236509
-1729.7388989183814
-1578.401537345281
-1406.271249219565
-1239.3395469614643
-1145.6001990863176
-1181.0510904397477
-1298.7019553167638
-1368.5748559891695
-1313.6895828966512
-1218.0477387221308
-1239.639614192099
-1416.4710392558832
-1603.5756561522198
-1621.9892930546503
-1452.7124571697582
-1253.7044609856152
-1164.9175023215041
-1171.330558781212
-1161.945320915245
-1100.754649500654
-1076.7265961678363
-1179.8199584600668
-1385.0076819125188
-1577.2765381849665
-1692.6098766839052
-1774.981137995584
-1893.3674085417952
-2027.7617959281397
-2077.1648605230716
-1986.564145628607
-1809.929485312161
-1639.2325304953204
-1496.4684336402102
-1328.6554023985193
-1121.812102269308
-950.9364289875318
-902.0055690137472
-953.9945695947711
-990.8914232090153
-940.6939178122462
-854.3926842807093
-824.9587568660413
-842.3477483142909
-798.5164437056499
-634.4377425183181
-431.1025959596916
-311.50976458328137
-308.654815338312
-334.5280489373158
-310.12086732549415
-278.43156305722766
-363.46470060507136
-626.2242663007553
-978.7058653284181
-1245.8951420019334
-1310.7731326126002
-1204.3258419194115
-1059.5494362576314
-980.4485474304342
-948.0290193252392
-854.2929161306549
-632.242324004642
-339.8899727748037
-127.26754088772964
-86.42002774126331
-178.3877816583274
-283.19201377596767
-330.83969895682105
-341.3440133393202
-361.7379496689673
-385.06553856052096
-363.3575433730666
-287.6168979855187
-209.82902679420022
-167.98525752858313
-141.09473973819172
-72.17333103634246
40.77571375777734
132.7670340073263
142.81990423701177
97.94220569425147
89.12869693939729
159.373789604492
255.68280595738884
305.0702243187791
297.54785330625646
283.11921367255513
293.78475256128274
287.5564984421899
220.46338030371476
133.53995293248272
139.8090330715736
322.2749357183575
635.9340246884082
937.7898380252516
1102.856410456029
1122.1467181853043
1087.659866497467
1114.3795837522953
1247.2830735661228
1436.3511207706733
1565.5716460698927
1527.9395678351339
1318.4535268204613
1044.109478153568
855.893144756609
827.7808619509078
890.7532641113123
874.8083210903299
653.9582693803625
265.21264418099787
-104.4321548015431
-270.9841194925907
-210.43934353670807
-69.78022198521973
-19.991476198740315
-107.07464843952027
-226.04316002195685
-245.90616863696323
-130.662218646567
47.69104922881479
189.14658039185434
255.69017646321754
267.31135754698215
250.00615807111558
204.76828155789377
138.58119100557684
87.42078581499618
103.26435302009799
203.09426482235003
327.8934713206069
