ecg
614.0
583.0
560.0
568.0
612.0
665.0
705.0
735.0
769.0
806.75
824.5
808.875
778.25
761.625
775.75
793.75
787.75
748.75
704.75
702.75
762.75
846.75
881.75
814.75
686.75
598.75
615.75
703.75
763.75
743.75
689.75
699.75
809.75
965.75
1073.75
1082.75
1020.75
958.75
944.75
966.75
969.75
915.75
831.75
793.75
852.75
971.75
1061.75
1084.75
1080.75
1113.75
1187.75
1248.75
1254.75
1225.75
1203.75
1197.75
1188.75
1179.75
1199.75
1252.75
1302.75
1311.75
1294.75
1300.75
1336.75
1359.75
1335.75
1286.75
1255.75
1249.75
1236.75
1203.75
1182.75
1205.75
1259.75
1297.75
1294.75
1268.75
1248.75
1229.75
1178.75
1089.75
1002.75
963.5
967.5
974.5
945.5
889.5
857.5
890.5
973.5
1058.5
1121.5
1191.5
1323.5
1534.25
1772.25
1952.5
2037.375
2072.5
2142.75
2271.875
2396.625
2405.875
2256.5
2005.375
1757.375
1564.125
1381.875
1127.125
772.125
389.75
86.0
-74.0
-106.375
-81.625
-57.625
-34.125
14.625
95.75
174.875
196.25
149.875
79.375
-12.125
-105.5
-223.25
-340.375
-407.625
-380.875
-281.125
-207.375
-178.875
-198.625
-172.875
-143.625
-171.5
-276.625
-394.75
-452.0
-435.125
-391.5
-348.125
-284.5
-176.375
-56.5
19.875
43.875
63.875
111.875
150.875
112.875
-4.125
-127.125
-188.375
-200.375
-215.375
-251.375
-282.375
-286.375
-283.375
-302.75
-333.75
-339.75
-311.375
-287.375
-307.75
-396.25
-462.75
-469.0
-459.375
-461.5
-492.25
-518.25
-530.125
-548.375
-588.125
-625.25
-627.5
-586.5
-532.625
-493.875
-482.0
-476.125
-485.875
-478.125
-475.375
-497.75
-534.125
-540.0
-520.375
-510.25
-513.125
-498.875
-497.375
-486.25
-471.375
-458.0
-471.125
-474.5
-442.25
-374.0
-316.125
-301.125
-317.0
-327.25
-304.875
-283.125
-273.875
-288.25
-310.375
-306.0
-291.375
-289.625
-294.625
-297.125
-274.625
-245.5
-224.25
-223.0
-230.75
-258.0
-299.5
-370.875
-436.0
-487.375
-521.375
-548.375
-579.125
-609.5
-632.375
-643.375
-654.125
-662.625
-668.25
-663.0
-631.75
-578.625
-517.25
-461.25
-411.25
-354.625
-286.375
-211.125
-152.75
-123.125
-110.5
-95.125
-74.875
-66.5
-85.875
-125.5
-155.875
-165.0
-164.125
-178.375
-206.0
-232.0
-234.25
-240.5
-272.25
-321.25
-355.625
-359.875
-355.875
-367.875
-392.5
-401.125
-379.125
-346.375
-338.375
-362.75
-399.625
-425.875
-436.375
-434.125
-416.375
-348.75
-194.875
51.875
345.5
608.0
781.625
870.25
931.875
1040.125
1171.75
1230.375
1125.875
865.125
544.75
294.875
145.125
2.25
-231.0
-553.625
-865.75
-1085.125
-1167.875
-1184.75
-1187.875
-1167.5
-1123.375
-1064.375
-1013.375
-973.0
-946.375
-923.375
-919.125
-965.25
-1055.625
-1175.5
-1252.875
-1280.25
-1264.5
-1227.5
-1189.625
-1156.25
-1132.0
-1130.125
-1157.125
-1214.125
-1284.125
-1341.125
-1370.0
-1374.5
-1378.75
-1398.625
-1429.625
-1461.75
-1491.625
-1512.0
-1519.25
-1508.125
-1484.125
-1460.25
-1450.75
-1448.125
-1432.5
-1397.0
-1365.75
-1383.25
-1465.125
-1573.25
-1656.875
-1704.75
-1752.25
-1838.25
-1933.375
-1980.5
-1943.125
-1874.625
-1855.5
-1899.25
-1934.25
-1882.125
-1756.5
-1675.875
-1726.875
-1869.0
-1970.875
-1947.5
-1830.25
-1722.75
-1683.125
-1698.125
-1722.375
-1715.5
-1641.25
-1523.0
-1482.5
-1654.625
-2032.625
-2402.625
-2478.25
-2175.75
-1714.0
-1349.375
-1150.0
-1018.25
-859.25
-689.0
-554.75
-500.125
-591.0
-949.75
-1559.125
-2115.375
-2187.375
-1646.875
-851.375
-326.125
-261.375
-390.875
-346.5
-101.5
51.625
-185.625
-793.875
-1463.75
-1919.125
-2076.875
-2035.875
-1910.25
-1725.625
-1464.375
-1166.75
-978.625
-988.0
-1111.875
-1152.75
-1065.375
-1025.25
-1210.0
-1564.875
-1816.375
-1745.25
-1448.0
-1226.875
-1249.0
-1393.5
-1445.875
-1380.875
-1337.625
-1381.375
-1379.25
-1191.25
-891.125
-718.75
-799.0
-985.75
-1034.625
-880.625
-666.5
-567.0
-638.0
-840.875
-1084.375
-1255.125
-1233.5
-1000.125
-756.0
-784.75
-1151.0
-1537.75
-1540.375
-1087.25
-533.375
-332.875
-595.75
-996.5
-1114.25
-815.25
-341.375
-49.375
-69.25
-251.5
-376.625
-335.875
-205.875
-84.875
-2.875
83.125
214.125
395.125
637.625
957.25
1300.25
1544.25
1622.25
1612.125
1684.375
1874.375
2061.625
2069.0
1823.625
1477.5
1206.625
1080.5
1017.75
888.5
622.125
267.25
-17.0
-94.875
41.0
249.75
378.75
367.25
283.25
252.875
345.75
490.125
572.75
518.125
335.25
116.625
-28.75
-26.0
97.25
239.875
277.125
187.625
52.625
-41.0
-91.5
-186.75
-340.625
-457.75
-440.875
-326.375
-233.0
-225.625
-257.125
-257.875
-254.75
-330.0
-485.625
-634.875
-724.375
-793.875
-913.125
-1028.125
-1009.125
-1007.25
-959.5
-948.75
-1013.0
-1097.25
-1195.125
-1288.875
-1305.5
-1213.25
-1084.125
-1062.75
-1190.125
-1357.125
-1409.625
-1354.75
-1338.75
-1521.0
-1839.5
-2132.75
-2238.75
-2190.375
-2095.25
-2025.375
-1965.25
-1816.5
-1649.875
-1583.875
-1631.0
-1740.0
-1802.625
-1788.375
-1759.875
-1770.5
-1798.75
-1752.5
-1611.5
-1433.5
-1292.5
-1213.5
-1184.5
-1212.5
-1309.5
-1430.5
-1472.5
-1385.5
-1255.5
-1228.5
-1323.625
-1405.625
-1341.625
-1163.625
-1032.625
-1048.625
-1157.625
-1284.5
-1311.5
-1291.875
-1254.125
-1165.125
-1084.125
-1081.125
-1153.125
-1186.125
-1087.5
-895.5
-763.125
-780.75
-898.625
-1006.5
-1086.125
-1148.875
-1173.25
-1115.75
-1041.5
-1077.375
-1242.875
-1354.75
-1207.5
-835.375
-511.25
-466.25
-642.0
-760.25
-655.75
-432.25
-295.125
-305.0
-345.75
-290.375
-173.5
-132.25
-187.375
-208.375
-65.0
201.625
384.875
339.375
153.875
40.125
111.125
273.75
341.5
253.5
111.25
29.0
27.5
68.375
137.875
256.125
390.0
455.875
392.375
253.25
174.75
212.0
300.5
316.875
232.5
109.625
16.125
-25.0
-34.5
14.0
168.0
437.875
727.25
911.125
959.25
1018.375
1230.0
1586.875
1881.375
1920.0
1697.875
1396.875
1191.75
1058.25
848.25
480.375
45.625
-269.625
-403.0
-449.125
-542.5
-680.5
-745.75
-650.875
-469.75
-349.875
-364.375
-434.75
-407.625
-250.375
-55.875
17.75
-56.875
-193.125
-299.125
-326.125
-287.125
-237.5
-230.375
-305.125
-438.75
-560.25
-589.5
-524.125
-450.125
-456.25
-543.75
-579.0
-478.75
-310.875
-235.0
-346.875
-552.75
-693.75
-704.75
-643.875
-599.375
-596.75
-625.0
-690.875
-781.5
-826.25
-733.875
-544.875
-445.875
-578.875
-851.875
-1014.875
-949.875
-818.875
-863.5
-1109.0
-1356.625
-1426.875
-1374.875
-1362.875
-1452.875
-1546.875
-1556.875
-1542.875
-1608.875
-1741.375
-1817.25
-1778.625
-1733.0
-1796.25
-1874.375
-1859.0
-1707.875
-1573.75
-1604.0
-1747.625
-1780.625
-1583.625
-1308.625
-1209.875
-1333.875
-1479.25
-1442.25
-1256.25
-1102.25
-1092.25
-1153.25
-1160.25
-1077.25
-966.25
-893.25
-893.625
-951.0
-1050.0
-1141.5
-1154.375
-1118.75
-1128.75
-1243.625
-1398.0
-1447.5
-1327.375
-1138.125
-1022.25
-1017.25
-1034.25
-984.25
-871.875
-777.75
-762.25
-802.625
-848.625
-878.125
-906.5
-932.875
-937.75
-902.5
-848.5
-809.5
-800.25
-819.0
-847.125
-863.0
-852.0
-819.0
-778.625
-747.5
-702.75
-625.75
-540.875
-500.5
-518.0
-530.25
-479.25
-370.75
-311.25
-348.75
-422.5
-421.125
-330.25
-253.375
-295.5
-432.625
-537.75
-547.5
-515.0
-536.375
-637.0
-762.0
-791.875
-733.5
-677.75
-721.375
-838.625
-947.0
-933.125
-828.375
-757.375
-835.75
-1009.125
-1127.75
-1132.0
-1049.875
-1006.25
-1042.625
-1069.375
-974.625
-724.375
-401.5
-106.5
107.375
232.375
300.5
387.875
502.0
580.75
551.625
377.125
121.375
-135.5
-364.125
-582.0
-810.5
-1034.125
-1233.5
-1418.625
-1615.875
-1802.375
-1942.875
-1994.125
-1943.125
-1812.875
-1646.375
-1510.5
-1444.375
-1442.375
-1463.125
-1469.875
-1448.875
-1421.625
-1442.75
-1546.5
-1718.75
-1869.125
-1872.25
-1699.0
-1484.625
-1373.625
-1464.75
-1661.0
-1788.875
-1764.875
-1657.625
-1603.0
-1656.0
-1763.0
-1833.75
-1818.625
-1739.875
-1634.0
-1528.125
-1442.0
-1412.625
-1440.125
-1511.0
-1579.5
-1603.25
-1573.125
-1550.125
-1582.875
-1667.875
-1760.75
-1837.875
-1925.125
-2039.25
-2150.875
-2206.5
-2213.0
-2239.25
-2330.25
-2437.375
-2482.25
-2438.25
-2373.125
-2347.625
-2354.25
-2337.5
-2293.5
-2257.875
-2237.5
-2196.875
-2128.0
-2075.0
-2084.5
-2147.0
-2166.125
-2078.875
-1957.875
-1903.875
-1924.5
-1945.5
-1887.375
-1777.5
-1699.5
-1673.5
-1647.5
-1578.5
-1498.5
-1479.5
-1540.5
-1616.875
-1616.875
-1502.875
-1335.875
-1228.875
-1251.875
-1366.875
-1460.25
-1442.25
-1358.25
-1336.25
-1458.25
-1677.25
-1862.25
-1937.875
-1926.375
-1891.375
-1875.875
-1853.0
-1829.5
-1806.875
-1760.0
-1645.125
-1478.5
-1359.0
-1371.125
-1479.5
-1556.5
-1524.75
-1448.875
-1448.875
-1546.625
-1635.75
-1626.125
-1535.5
-1469.875
-1475.625
-1498.375
-1466.875
-1380.625
-1307.5
-1273.25
-1254.375
-1216.375
-1179.25
-1180.75
-1225.75
-1266.75
-1261.875
-1228.25
-1215.375
-1256.5
-1334.875
-1408.875
-1448.625
-1456.375
-1449.75
-1451.75
-1477.0
-1520.0
-1568.0
-1597.0
-1589.0
-1559.0
-1535.0
-1546.0
-1608.25
-1700.25
-1791.25
-1861.0
-1913.0
-1975.0
-2054.0
-2117.0
-2130.0
-2099.0
-2071.0
-2073.0
-2081.0
-2038.0
-1916.0
-1729.0
-1517.0
-1317.0
-1162.0
-1068.0
-1001.0
-881.0
-667.0
-432.625
-327.625
-438.625
-701.625
-962.625
-1127.625
-1228.625
-1365.625
-1610.625
-1959.625
-2331.125
-2589.125
-2635.125
-2493.125
-2319.125
-2272.125
-2349.125
-2393.125
-2272.125
-2043.875
-1895.25
-1936.625
-2093.875
-2224.5
-2286.75
-2347.75
-2455.0
-2557.0
-2548.5
-2419.125
-2256.25
-2169.125
-2156.125
-2144.375
-2087.375
-2023.375
-2018.875
-2071.875
-2101.875
-2051.625
-1972.75
-1961.5
-2031.625
-2049.125
-1910.625
-1685.625
-1579.0
-1683.625
-1849.75
-1846.75
-1647.75
-1472.5
-1512.375
-1738.875
-1869.625
-1760.625
-1541.875
-1435.875
-1509.375
-1605.375
-1570.375
-1426.125
-1333.375
-1367.375
-1447.5
-1472.5
-1457.5
-1499.5
-1622.5
-1718.5
-1670.25
-1522.25
-1434.625
-1500.625
-1632.875
-1652.375
-1512.0
-1355.25
-1351.125
-1504.25
-1643.25
-1639.25
-1512.25
-1379.25
-1308.25
-1265.125
-1188.625
-1085.625
-994.625
-932.625
-875.25
-826.25
-816.125
-848.75
-887.75
-852.5
-735.875
-567.75
-403.0
-259.75
-123.125
-1.125
114.125
207.875
263.375
282.375
284.125
270.125
256.125
270.375
298.375
334.375
344.375
307.375
244.375
207.375
239.375
306.375
316.375
200.375
-6.625
-168.625
-182.625
-83.625
-17.625
-92.625
-273.625
-400.625
-362.625
-211.625
-101.625
-121.625
-205.625
-213.625
-97.625
49.375
98.375
38.375
-24.625
-3.625
65.0
43.0
-85.0
-202.0
-149.5
63.5
302.875
401.875
369.625
290.125
262.125
276.875
250.875
140.625
-40.375
-195.375
-277.375
-305.375
-319.375
-320.375
-268.375
-144.375
1.625
89.625
84.625
42.625
43.625
77.625
62.125
-49.875
-204.25
-292.0
-250.5
-133.75
2.125
177.0
436.625
756.25
1012.75
1122.75
1110.875
1116.875
1222.75
1354.875
1355.375
1142.25
824.875
595.875
542.875
554.0
438.0
133.0
-226.75
-453.25
-485.125
-412.75
-442.25
-581.25
-652.75
-559.75
-403.5
-265.25
-192.25
-161.75
-172.0
-209.875
-260.5
-302.625
-314.625
-317.5
-363.875
-426.5
-449.125
-426.625
-415.875
-472.0
-606.25
-799.625
-1008.0
-1190.625
-1285.0
-1216.0
-1072.0
-998.0
-1042.875
-1086.75
-998.75
-803.25
-701.0
-811.0
-1017.0
-1111.875
-1044.375
-1000.125
-1131.0
-1349.375
-1476.125
-1443.625
-1374.625
-1451.875
-1617.875
-1702.75
-1656.625
-1579.0
-1564.0
-1593.375
-1576.375
-1507.125
-1465.25
-1499.5
-1581.5
-1653.0
-1715.125
-1807.625
-1908.625
-1955.75
-1938.625
-1890.875
-1856.875
-1802.875
-1653.875
-1426.875
-1261.0
-1255.375
-1381.125
-1521.75
-1584.0
-1618.375
-1729.5
-1937.375
-2124.875
-2171.5
-2067.125
-1905.0
-1797.375
-1750.625
-1686.625
-1571.375
-1473.375
-1470.125
-1551.25
-1646.75
-1720.875
-1811.0
-1955.125
-2124.5
-2235.125
-2195.125
-2109.25
-2058.5
-2088.5
-2135.375
-2143.875
-2094.75
-2029.25
-2025.125
-2106.125
-2248.375
-2324.25
-2291.5
-2209.375
-2211.625
-2351.125
-2494.5
-2525.375
-2441.625
-2342.875
-2332.875
-2376.875
-2400.125
-2379.125
-2364.5
-2409.25
-2496.625
-2564.625
-2593.25
-2582.25
-2555.625
-2538.25
-2538.875
-2534.5
-2514.0
-2467.0
-2423.625
-2428.875
-2426.375
-2422.625
-2385.25
-2357.375
-2367.375
-2386.0
-2363.875
-2301.5
-2267.25
-2305.0
-2380.0
-2421.75
-2417.75
-2425.75
-2490.75
-2579.75
-2621.75
-2608.75
-2601.75
-2648.75
-2701.75
-2671.75
-2537.75
-2383.75
-2313.75
-2340.75
-2369.75
-2302.75
-2145.75
-1986.75
-1892.75
-1828.75
-1698.75
-1458.75
-1178.75
-977.75
-898.75
-875.75
-810.75
-676.75
-549.75
-535.75
-677.75
-916.75
-1149.75
-1308.75
-1415.75
-1552.75
-1778.75
-2063.75
-2306.75
-2422.75
-2412.75
-2358.75
-2326.75
-2313.75
-2277.75
-2198.75
-2101.75
-2015.75
-1949.75
-1896.75
-1861.75
-1861.75
-1898.75
-1941.75
-1955.75
-1942.0
-1914.125
-1886.125
-1862.125
-1842.75
-1839.75
-1860.125
-1910.875
-1967.875
-1997.125
-1991.0
-1961.375
-1942.125
-1931.625
-1932.875
-1937.375
-1943.375
-1950.375
-1957.375
-1960.375
-1961.375
-1963.375
-1964.375
-1962.375
-1969.375
-2006.375
-2070.375
-2130.375
-2147.625
-2119.875
-2088.125
-2097.125
-2156.0
-2227.0
-2275.0
-2295.375
-2318.5
-2388.375
-2510.25
-2649.75
-2761.875
-2826.0
-2861.875
-2912.875
-2985.875
-3039.0
-3048.75
-3037.375
-3056.5
-3116.75
-3164.625
-3148.0
-3097.0
-3095.25
-3181.125
-3292.375
-3334.75
-3284.75
-3216.75
-3211.75
-3267.75
-3318.875
-3305.625
-3229.375
-3163.625
-3131.125
-3125.25
-3130.375
-3141.5
-3135.125
-3130.5
-3122.875
-3130.25
-3191.875
-3236.25
-3227.75
-3195.625
-3168.375
-3150.375
-3130.375
-3084.375
-3029.5
-2975.75
-2942.625
-2932.125
-2911.5
-2874.25
-2824.0
-2760.625
-2682.0
-2637.0
-2629.0
-2634.25
-2611.625
-2537.0
-2444.625
-2382.5
-2385.75
-2435.875
-2461.875
-2439.0
-2380.875
-2323.75
-2296.125
-2272.875
-2226.875
-2152.125
-2036.125
-1881.5
-1805.125
-1733.25
-1639.75
-1579.5
-1548.875
-1553.75
-1558.375
-1523.875
-1469.0
-1430.0
-1432.75
-1462.75
-1498.25
-1523.125
-1519.125
-1494.5
-1456.625
-1447.25
-1487.625
-1585.875
-1664.0
-1670.75
-1599.75
-1532.75
-1551.125
-1653.125
-1740.125
-1711.875
-1568.25
-1399.5
-1308.375
-1329.25
-1414.125
-1502.0
-1561.75
-1599.0
-1618.0
-1591.0
-1468.375
-1231.25
-921.0
-617.75
-389.875
-230.25
-79.0
73.375
179.375
136.25
-84.375
-403.5
-699.625
-925.25
-1124.625
-1355.25
-1609.5
-1852.5
-2096.0
-2383.0
-2697.375
-2925.25
-2929.125
-2719.875
-2498.25
-2446.875
-2526.875
-2499.75
-2223.375
-1838.25
-1681.375
-1899.125
-2286.875
-2517.125
-2477.125
-2328.375
-2257.625
-2266.5
-2241.5
-2161.125
-2131.5
-2228.125
-2371.375
-2485.375
-2542.625
-2597.75
-2693.75
-2777.375
-2776.375
-2650.25
-2444.5
-2255.875
-2174.375
-2206.375
-2269.875
-2242.875
-2147.375
-2157.5
-2384.0
-2644.625
-2615.125
-2238.625
-1868.375
-1881.25
-2193.625
-2355.375
-2110.875
-1757.5
-1736.875
-2063.625
-2291.5
-2109.75
-1754.125
-1691.75
-1987.75
-2218.75
-2041.0
-1666.625
-1623.0
-2070.5
-2578.625
-2644.25
-2273.125
-1961.625
-2099.125
-2529.125
-2778.125
-2621.125
-2289.125
-2135.5
-2212.625
-2274.375
-2165.375
-1994.625
-1964.75
-2051.125
-2022.5
-1785.125
-1506.5
-1413.375
-1492.875
-1530.375
-1393.25
-1197.125
-1124.375
-1206.625
-1314.125
-1376.25
-1436.25
-1510.75
-1512.125
-1350.75
-1115.75
-1010.5
-1090.5
-1174.25
-1016.375
-598.75
-180.25
-72.875
-307.5
-586.375
-567.75
-230.875
130.5
175.375
-81.25
-316.0
-252.625
44.125
234.75
88.75
-255.25
-499.25
-482.625
-325.0
-233.125
-245.875
-228.0
-53.875
230.875
496.5
656.375
765.75
855.75
918.875
902.875
806.375
734.5
740.0
814.375
900.375
957.875
1002.5
1079.25
1175.625
1254.625
1305.75
1336.5
1367.375
1358.75
1261.25
1035.875
755.875
529.25
490.25
661.375
907.625
1005.625
864.5
644.5
599.5
791.5
1001.875
928.875
543.875
128.5
-53.875
-14.875
49.875
-40.5
-209.25
-250.875
-59.75
254.5
509.5
579.125
554.875
568.75
707.625
933.625
1104.25
1077.625
831.625
515.75
290.75
190.5
70.125
-261.75
-825.25
-1423.125
-1837.125
-1980.625
-1954.0
-1909.25
-1891.625
-1845.25
-1732.125
-1598.0
-1491.25
-1461.875
-1534.625
-1656.25
-1700.625
-1659.875
-1603.0
-1597.875
-1597.875
-1507.125
-1291.625
-1090.625
-1055.25
-1200.5
-1346.0
-1357.0
-1320.75
-1419.375
-1677.75
-1844.625
-1693.375
-1303.125
-997.75
-1028.5
-1300.25
-1521.625
-1486.375
-1285.125
-1200.625
-1404.625
-1791.75
-2071.75
-2052.125
-1820.5
-1659.875
-1756.75
-2000.625
-2116.625
-1983.75
-1729.125
-1604.25
-1693.25
-1846.75
-1893.375
-1820.5
-1749.25
-1761.375
-1795.75
-1795.5
-1777.5
-1814.625
-1896.5
-1936.875
-1886.375
-1806.125
-1791.625
-1838.0
-1817.875
-1652.125
-1422.625
-1309.875
-1386.5
-1544.0
-1600.0
-1485.375
-1344.5
-1384.375
-1631.0
-1851.5
-1758.5
-1332.5
-905.5
-833.5
-1103.75
-1306.75
-1080.75
-544.0
-172.0
-258.0
-604.375
-795.0
-685.0
-545.875
-626.0
-832.875
-863.625
-615.125
-305.5
-189.25
-251.625
-270.0
-78.5
244.5
498.25
504.125
251.5
-87.625
-261.875
-135.75
159.625
321.875
194.25
-38.875
-60.0
200.5
461.125
447.375
220.25
85.375
194.375
391.0
447.125
397.125
504.125
883.125
1318.125
1506.5
1420.875
1288.25
1289.375
1333.875
1249.625
1049.75
940.125
1041.0
1221.0
1262.25
1148.0
1098.625
1281.0
1609.375
1845.625
1836.25
1677.5
1544.125
1566.75
1753.375
1990.875
2147.25
2117.0
1930.875
1766.0
1794.0
1971.0
2037.625
1836.75
1509.5
1399.25
1653.5
2030.125
2202.75
2116.875
2037.875
2181.625
2494.0
2764.875
2890.0
2951.125
3042.875
3143.25
3175.5
3140.375
3145.0
3227.0
3309.125
3303.375
3061.375
2828.375
2658.625
2591.75
2524.875
2328.0
2033.75
1686.25
1340.875
1038.75
855.125
843.25
947.5
1023.0
951.25
801.625
746.75
882.0
1141.375
1310.25
1318.5
1219.125
1076.25
915.5
765.0
670.625
706.75
801.0
813.875
658.875
444.125
369.25
502.75
698.0
761.875
669.75
553.125
539.125
614.125
663.125
641.125
606.75
620.75
647.75
587.75
424.75
287.5
304.5
459.5
585.875
533.875
349.875
206.875
214.875
335.75
424.25
379.0
233.75
100.75
80.375
152.375
213.375
182.125
81.125
18.125
21.25
-2.75
-145.625
-353.375
-444.75
-326.75
-115.5
-14.5
-69.5
-113.375
19.5
293.125
513.375
538.0
397.25
228.375
121.375
64.75
-3.625
-91.625
-185.5
-231.25
-210.875
-108.75
16.875
125.375
203.375
266.75
302.625
288.625
208.5
121.25
76.375
65.25
67.25
50.25
55.5
108.5
230.25
354.75
458.0
530.25
561.0
551.625
537.25
576.75
682.25
802.5
837.125
832.875
808.125
830.25
889.375
947.0
940.875
846.375
713.625
609.25
578.0
619.875
706.625
813.375
885.75
894.375
881.625
897.5
948.25
1015.25
944.5
748.5
591.375
622.0
806.625
968.125
974.5
882.375
872.125
996.625
1144.875
1147.375
987.5
814.25
731.125
744.25
789.625
837.75
903.0
994.875
1083.75
1137.5
1166.5
1187.25
1189.25
1162.0
1111.5
1054.0
1010.625
995.875
991.125
1010.0
1056.0
1099.5
1150.25
1224.5
1342.75
1500.0
1653.75
1774.375
1839.125
1883.0
1934.25
2022.5
2137.125
2259.5
2305.75
2214.75
1998.125
1749.25
1545.75
1372.625
1143.875
804.0
396.25
65.25
-163.625
-236.75
-221.625
-180.875
-139.375
-93.125
-43.375
19.5
82.25
123.0
126.375
76.375
-40.125
-208.25
-382.625
-504.75
-548.0
-536.875
-530.0
-544.0
-533.75
-508.25
-500.25
-549.125
-646.875
-734.125
-759.375
-761.0
-817.125
-925.75
-1007.375
-963.5
-840.125
-759.625
-804.375
-925.0
-989.0
-938.625
-857.875
-880.125
-1040.25
-1246.625
-1384.625
-1440.875
-1485.5
-1601.75
-1751.5
-1880.5
-1923.5
-1915.5
-1922.5
-1970.5
-2025.5
-2042.5
-2020.5
-2004.5
-2036.5
-2116.5
-2201.5
-2252.5
-2271.5
-2301.5
-2373.5
-2466.875
-2538.875
-2559.875
-2548.125
-2532.125
-2514.125
-2465.125
-2421.0
-2409.0
-2439.0
-2450.625
-2380.125
-2247.625
-2152.375
-2156.0
-2201.0
-2185.0
-2083.0
-1988.0
-1983.0
-2034.0
-2034.0
-1941.0
-1830.0
-1785.0
-1791.0
-1762.25
-1675.25
-1601.625
-1621.625
-1696.125
-1712.125
-1611.0
-1465.0
-1375.0
-1353.0
-1318.75
-1215.75
-1081.75
-988.75
-950.5
-919.5
-867.5
-835.5
-874.5
-953.125
-976.125
-898.125
-791.125
-763.5
-846.125
-941.875
-939.125
-832.125
-727.0
-716.125
-775.75
-788.75
-684.75
-519.625
-405.375
-375.375
-344.25
-220.25
-35.25
75.75
40.0
-62.0
-83.0
16.125
125.125
126.125
45.125
19.125
122.125
280.125
368.125
365.0
365.25
441.0
540.0
562.125
488.125
404.125
400.25
464.25
507.125
471.125
389.625
349.0
388.0
471.75
525.75
506.75
425.75
358.0
340.875
363.375
357.25
286.25
225.125
281.125
485.75
702.75
790.75
742.75
705.75
812.25
1025.25
1167.25
1115.25
925.125
748.0
647.75
556.75
373.875
105.875
-145.875
-313.875
-427.0
-542.625
-654.875
-689.875
-633.5
-554.875
-541.125
-596.625
-669.625
-672.625
-617.125
-573.125
-590.125
-644.125
-676.125
-641.125
-535.125
-372.125
-168.125
60.875
277.875
432.875
500.875
509.875
503.875
483.875
402.75
220.125
-19.5
-233.125
-315.125
-276.125
-222.75
-234.375
-298.375
-340.375
-303.375
-196.375
-80.375
-19.375
-41.375
-124.375
-206.375
-228.375
-176.375
-90.375
-27.375
0.625
27.0
90.125
185.75
272.625
321.875
342.75
354.5
375.875
411.125
441.75
448.375
429.25
396.125
374.0
371.5
377.5
377.375
377.25
392.875
422.5
440.0
439.25
439.0
454.875
476.125
461.125
422.375
407.5
460.25
578.25
688.25
741.25
746.25
746.25
766.25
791.25
798.25
786.625
778.875
782.875
792.625
798.25
813.75
843.125
887.25
926.0
975.75
1000.375
1021.875
1039.25
1066.75
1108.0
1173.0
1260.375
1355.5
1439.25
1501.0
1546.0
1579.0
1602.125
1605.75
1588.125
1544.375
1490.0
1466.375
1516.875
1645.875
1796.25
1904.125
1970.625
2069.5
2257.625
2487.125
2619.25
2566.125
2373.5
2185.5
2074.75
1986.125
1836.375
1633.25
1480.25
1457.5
1543.5
1648.5
1719.5
1784.5
1878.5
1971.5
1987.5
1900.5
1771.5
1688.5
1675.5
1673.5
1632.5
1562.75
1543.125
1601.25
1690.875
1715.25
1643.125
1566.75
1548.25
1587.875
1612.0
1585.75
1472.625
1422.75
1434.375
1450.125
1469.0
1418.625
1406.125
1479.375
1715.375
1954.625
2109.75
2115.375
2047.375
2085.625
2229.5
2453.0
2525.125
2413.25
2116.75
1864.25
1687.625
1559.75
1368.375
1069.875
687.125
324.75
90.0
12.875
50.5
132.375
222.5
306.75
399.875
473.0
542.5
569.5
598.375
604.0
570.125
463.75
314.375
215.25
214.75
285.25
342.375
354.0
346.875
355.625
368.375
338.25
250.875
165.75
153.375
215.5
277.625
279.25
217.875
153.625
126.125
114.75
78.75
7.5
-70.0
-124.25
-149.375
-166.875
-192.625
-220.375
-255.625
-309.75
-376.875
-454.5
-513.625
-558.25
-595.5
-625.875
-656.5
-686.25
-720.25
-755.5
-788.875
-829.125
-864.0
-909.125
-978.5
-1055.625
-1116.75
-1142.125
-1133.5
-1115.25
-1108.875
-1109.875
-1099.875
-1066.875
-1023.0
-997.5
-999.5
-1013.375
-1018.25
-1005.75
-989.625
-979.625
-975.5
-972.5
-972.125
-983.75
-991.75
-993.875
-976.0
-955.5
-943.0
-939.125
-931.875
-909.625
-890.5
-902.125
-910.625
-957.75
-1025.375
-1088.25
-1131.625
-1130.625
-1145.875
-1214.25
-1226.875
-1208.25
-1182.125
-1106.75
-1060.0
-1061.25
-1076.25
-1086.0
-1067.5
-1047.25
-1043.625
-1074.625
-1144.625
-1205.5
-1230.875
-1231.125
-1246.25
-1307.5
-1357.75
-1361.875
-1310.125
-1263.0
-1257.0
-1263.375
-1221.25
-1112.375
-983.625
-922.25
-933.5
-960.625
-964.75
-936.625
-898.0
-847.375
-777.125
-667.625
-567.0
-566.75
-686.625
-822.375
-846.125
-757.625
-699.875
-801.75
-1018.5
-1163.125
-1105.5
-896.25
-698.125
-628.5
-680.625
-767.625
-813.625
-802.875
-755.125
-704.875
-691.875
-726.875
-782.375
-810.375
-769.375
-662.375
-507.375
-310.375
-74.375
168.5
374.75
516.875
626.625
757.0
917.25
1065.25
1141.25
1115.25
1007.375
845.0
649.0
449.0
262.25
85.375
-111.625
-313.125
-500.375
-630.0
-665.0
-616.5
-538.0
-440.0
-318.0
-189.375
-78.875
46.875
218.0
429.375
575.625
541.0
387.75
251.875
250.125
339.875
379.25
288.625
137.125
51.375
47.375
33.375
-52.625
-170.625
-238.625
-242.625
-246.625
-295.625
-347.625
-323.625
-215.625
-113.625
-107.625
-185.625
-239.625
-180.625
-31.625
103.375
136.375
67.375
-32.625
-95.625
-101.625
-75.625
-64.0
-96.125
-179.5
-282.375
-362.875
-385.875
-360.5
-321.125
-311.875
-344.25
-391.625
-431.0
-455.375
-485.25
-528.375
-567.0
-579.25
-568.75
-561.25
-571.25
-575.375
-532.375
-439.375
-344.375
-299.375
-313.375
-349.375
-352.375
-311.375
-265.375
-264.375
-308.375
-333.375
-290.375
-207.375
-173.375
-251.375
-407.375
-526.375
-535.375
-477.375
-468.375
-559.375
-664.375
-657.375
-501.125
-302.875
-207.875
-253.125
-390.125
-562.125
-750.5
-939.5
-1036.5
-956.5
-730.5
-511.5
-404.5
-349.5
-197.5
95.5
367.5
413.5
203.5
-94.5
-301.5
-391.5
-451.375
-523.375
-555.375
-499.375
-389.375
-308.375
-271.375
-234.375
-189.375
-186.375
-254.375
-334.375
-363.375
-375.375
-445.125
-556.0
-582.0
-452.625
-296.125
-322.0
-573.0
-848.875
-917.75
-758.375
-567.375
-531.25
-648.375
-782.375
-803.375
-707.0
-591.875
-560.25
-636.875
-752.25
-801.75
-763.75
-690.75
-660.625
-678.5
-702.375
-720.375
-769.375
-867.625
-949.25
-939.0
-857.75
-781.75
-757.625
-720.0
-575.875
-302.0
41.125
352.375
564.625
628.125
553.75
427.25
351.5
349.375
332.5
190.875
-23.625
-282.0
-491.0
-625.875
-674.625
-684.625
-779.625
-996.75
-1252.75
-1368.75
-1256.75
-1013.75
-847.75
-862.75
-960.75
-960.75
-813.75
-637.75
-582.75
-655.75
-728.75
-712.75
-674.75
-743.75
-929.75
-1081.75
-1068.5
-933.5
-840.5
-889.625
-1008.75
-1069.625
-1039.625
-976.625
-929.625
-872.625
-819.625
-846.75
-1026.75
-1242.125
-1305.5
-1188.0
-1076.0
-1162.125
-1366.25
-1485.625
-1433.125
-1329.875
-1359.5
-1464.75
-1526.0
-1470.5
-1422.875
-1462.75
-1566.0
-1635.25
-1645.375
-1682.25
-1831.25
-2050.875
-2254.875
-2371.0
-2355.625
-2233.5
-2091.375
-2054.25
-2161.25
-2265.875
-2214.75
-2030.5
-1935.875
-2074.75
-2331.125
-2469.75
-2500.625
-2552.625
-2768.125
-2985.0
-2961.25
-2708.625
-2508.875
-2544.25
-2649.625
-2587.875
-2347.625
-2166.375
-2211.25
-2326.0
-2269.875
-2048.375
-1913.875
-2027.0
-2226.25
-2243.5
-2022.625
-1824.0
-1916.0
-2296.875
-2603.125
-2554.875
-2185.75
-1859.625
-1831.125
-2041.625
-2206.0
-2138.875
-1919.375
-1789.75
-1757.875
-1719.5
-1566.375
-1413.25
-1414.0
-1491.625
-1399.375
-1129.375
-953.625
-1163.5
-1646.5
-1955.125
-1804.5
-1394.375
-1118.125
-1116.5
-1172.125
-1024.625
-698.5
-394.375
-264.875
-286.25
-371.375
-488.25
-577.625
-546.625
-341.25
-42.375
194.375
309.625
412.75
650.875
1011.875
1278.375
1225.5
887.75
583.125
609.125
950.5
1298.75
1347.75
1143.75
1014.75
1202.75
1572.75
1744.75
1518.75
1093.75
884.75
1093.75
1537.75
1891.75
2013.75
2040.75
2166.75
2399.75
2568.0
2543.875
2404.125
2363.875
2453.25
2644.125
2850.625
3042.875
3250.375
3462.5
3581.125
3634.125
3732.375
3941.625
4145.25
4116.125
3801.75
3400.875
3135.0
3073.875
3042.25
2838.875
2501.25
2172.25
1910.125
1684.375
1502.75
1420.0
1467.75
1545.625
1521.75
1379.375
1262.0
1288.125
1431.625
1553.625
1533.875
1356.625
1049.0
702.125
445.5
393.875
511.375
612.5
530.375
282.125
55.75
15.875
114.75
163.125
52.375
-156.25
-333.125
-426.875
-459.375
-514.5
-590.75
-670.625
-714.625
-728.75
-756.125
-779.75
-774.5
-725.5
-648.75
-605.875
-634.0
-732.25
-850.0
-937.625
-1006.375
-1043.75
-1048.625
-1026.75
-1008.125
-1026.5
-1050.5
-1000.25
-799.0
-535.625
-374.0
-416.5
-552.5
-576.375
-444.0
-303.375
-359.375
-575.0
-749.75
-707.375
-525.625
-372.875
-315.625
-302.125
-261.5
-212.375
-208.375
-261.125
-312.875
-342.625
-389.625
-494.375
-627.875
-709.0
-711.375
-661.0
-595.875
-517.75
-406.75
-258.5
-98.875
19.25
84.375
96.875
87.375
48.0
-4.25
-53.375
-79.875
-80.625
-55.125
-32.125
-14.125
18.625
77.125
163.75
246.625
287.25
272.375
215.25
138.625
89.5
94.875
133.0
193.25
245.625
261.375
239.25
215.25
245.625
358.0
514.0
611.875
577.875
480.25
456.5
572.5
750.5
864.5
889.5
921.5
1037.5
1193.5
1289.5
1301.5
1307.5
1360.5
1407.5
1380.5
1296.5
1236.5
1244.5
1279.5
1291.5
1288.5
1302.5
1321.5
1306.0
1263.25
1251.625
1328.75
1448.25
1536.25
1552.875
1524.125
1504.75
1546.25
1637.875
1722.125
1708.25
1573.625
1419.375
1390.25
1511.5
1645.0
1651.125
1634.875
1800.0
2244.25
2777.25
3106.25
3146.125
3111.125
3216.875
3448.5
3560.75
3408.25
3088.75
2788.375
2574.25
2364.0
2083.125
1748.875
1471.125
1280.625
1133.875
993.625
892.0
894.125
987.125
1105.0
1176.5
1197.875
1234.375
1311.375
1410.5
1459.875
1414.875
1323.875
1245.125
1207.75
1167.125
1107.625
1059.5
1091.625
1207.0
1328.75
1358.25
1302.75
1281.375
1363.875
1482.125
1483.75
1318.5
1142.5
1113.375
1248.0
1366.0
1307.5
1091.375
907.125
895.75
1015.25
1103.375
1049.125
894.875
756.625
688.625
653.625
575.625
455.625
366.625
359.625
396.625
393.625
344.625
339.625
450.625
601.625
619.625
447.625
225.625
134.625
192.625
247.625
173.625
16.625
-78.375
-53.375
19.625
50.625
44.625
60.625
101.625
117.625
93.125
79.625
132.875
241.25
362.875
465.375
544.5
592.375
632.625
693.875
763.875
760.0
617.0
385.0
245.0
330.0
559.0
709.0
681.0
600.0
653.0
860.0
1054.0
1095.0
1026.0
977.25
1002.875
1026.875
1010.0
976.375
989.375
1037.25
1086.125
1093.375
1076.625
1080.25
1078.625
1073.25
1057.625
1041.0
1009.125
934.375
833.75
779.0
793.375
829.25
796.0
707.0
616.0
616.625
742.875
914.0
1021.25
1030.375
1012.0
1062.0
1204.125
1356.25
1393.375
1288.125
1125.125
1058.625
1120.75
1230.5
1248.5
1144.375
1019.25
991.875
1102.875
1216.0
1221.875
1139.75
1088.75
1075.5
1074.875
1038.125
980.625
945.625
911.25
804.625
660.5
578.875
627.625
747.5
787.25
706.875
583.125
553.875
640.875
794.0
943.875
1112.25
1315.375
1548.75
1777.5
1963.5
2090.75
2159.5
2194.75
2228.5
2242.125
2163.75
1926.625
1575.5
1241.125
1035.75
906.5
714.25
397.125
48.0
-179.375
-227.25
-148.375
-73.5
-64.875
-81.625
-41.125
47.375
135.125
176.625
170.25
147.125
118.125
51.125
-72.25
-190.25
-223.375
-134.375
0.625
88.625
110.625
124.625
176.625
229.625
216.625
127.625
26.125
-21.875
-27.25
-42.0
-95.0
-167.0
-221.75
-251.625
-274.375
-303.5
-324.875
-332.875
-338.625
-396.125
-408.875
-421.875
-437.875
-461.875
-493.875
-534.5
-570.5
-599.375
-615.375
-626.375
-645.375
-676.375
-709.375
-726.5
-723.0
-715.125
-723.125
-752.125
-767.125
-736.125
-673.125
-626.125
-628.5
-655.375
-646.375
-582.875
-514.5
-489.5
-503.75
-512.75
-481.625
-422.375
-378.0
-353.5
-340.375
-314.25
-270.625
-222.75
-184.125
-150.25
-122.0
-95.25
-51.5
-1.0
40.875
43.5
13.0
-23.0
-49.375
-37.375
-20.125
-9.875
-31.75
-58.875
-90.125
-79.375
-25.25
50.75
109.875
122.75
113.125
116.625
151.125
193.75
217.375
229.625
240.25
227.75
190.375
130.75
98.625
127.375
169.5
171.125
124.375
81.625
103.625
173.875
223.0
218.125
194.125
199.75
252.625
294.625
310.25
309.125
343.125
391.875
435.875
450.75
455.5
461.25
462.625
438.75
393.5
356.0
323.75
298.875
275.625
261.75
275.75
293.125
291.125
263.75
246.75
278.75
350.75
410.75
414.75
369.375
323.375
313.375
342.375
385.375
413.375
409.75
382.625
355.75
369.875
439.0
531.75
602.875
664.0
773.375
970.875
1213.5
1394.625
1451.875
1446.0
1484.5
1603.875
1725.625
1743.375
1616.0
1413.0
1229.875
1081.0
927.25
719.875
462.0
202.0
-41.0
-230.125
-362.375
-408.0
-344.375
-246.5
-174.625
-163.125
-170.125
-120.125
-39.875
25.875
1.0
-106.625
-255.25
-394.25
-493.75
-538.0
-541.5
-534.25
-564.875
-629.625
-700.375
-736.75
-731.875
-745.0
-799.875
-864.625
-895.25
-868.625
-795.875
-710.75
-634.75
-590.5
-575.375
-573.5
-550.125
-506.125
-490.625
-510.0
-542.125
-554.0
-562.0
-578.375
-603.375
-597.125
-546.75
-493.625
-508.25
-591.5
-666.75
-682.625
-656.5
-682.0
-789.75
-929.75
-1019.75
-1016.75
-951.75
-875.0
-808.75
-743.625
-655.125
-544.875
-433.5
-338.5
-262.5
-197.5
-140.5
-98.5
-79.5
-78.5
-70.5
-29.5
42.5
116.5
161.5
173.5
182.5
225.5
305.5
378.5
413.25
400.375
384.375
407.0
456.375
495.25
487.375
461.25
467.375
508.875
542.875
539.625
536.5
591.5
705.5
820.125
871.375
844.25
818.25
849.25
919.75
975.625
984.5
981.75
1005.0
1037.0
1041.0
1012.75
1002.5
1044.5
1114.5
1152.5
1132.5
1094.5
1087.5
1108.0
1118.0
1099.5
1102.0
1150.0
1210.5
1231.375
1193.0
1149.875
1183.125
1272.625
1316.25
1247.5
1132.125
1081.125
1123.125
1179.875
1173.125
1116.375
1088.0
1114.875
1146.5
1130.75
1095.0
1110.0
1193.0
1283.0
1306.0
1259.625
1211.625
1199.125
1224.375
1244.375
1236.125
1207.0
1185.125
1194.125
1234.125
1284.125
1305.875
1300.375
1282.75
1290.75
1357.75
1457.375
1564.5
1678.375
1827.75
2027.75
2244.25
2434.625
2592.875
2741.375
2912.0
3063.875
3120.875
3023.75
2799.625
2514.75
2252.25
2029.25
1786.125
1488.875
1158.375
888.375
745.375
724.25
748.625
763.625
781.375
846.75
952.125
1036.5
1058.375
1044.125
1054.625
1103.5
1129.5
1063.375
937.625
847.0
856.625
931.875
1015.125
1066.125
1092.125
1120.125
1157.75
1212.75
1258.75
1271.75
1241.75
1192.75
1165.125
1159.375
1144.875
1080.625
968.5
892.875
906.625
1003.75
1054.25
1035.375
996.125
963.125
996.125
1051.125
1071.875
1040.125
993.375
958.0
941.5
932.125
914.875
874.75
841.5
819.0
801.875
791.375
786.25
795.25
804.25
792.25
744.25
679.25
628.25
606.25
591.25
554.25
498.25
458.875
466.25
519.0
593.0
668.0
731.0
772.0
777.125
753.125
723.375
695.125
648.125
577.125
511.125
512.75
578.625
652.125
683.625
685.875
729.5
833.125
933.375
956.25
902.0
832.375
806.875
820.75
832.125
814.0
789.125
785.875
798.125
810.25
836.5
849.75
858.125
869.75
886.5
913.375
943.625
961.5
942.625
923.125
917.75
928.375
933.375
912.875
878.875
822.25
783.5
767.0
771.0
792.0
831.0
889.0
947.0
989.0
1010.0
1029.0
1062.0
1100.0
1116.0
1104.0
1092.0
1106.0
1136.0
1124.5
1065.75
1001.625
980.75
1001.0
1005.5
944.0
845.75
783.75
774.625
756.25
747.75
708.125
677.875
659.125
686.375
710.5
706.375
612.875
444.125
296.5
265.875
337.0
376.75
282.75
107.125
26.125
150.0
404.875
639.875
758.125
837.125
1011.375
1305.375
1607.375
1791.625
1836.25
1829.25
1836.25
1858.5
1825.0
1695.375
1478.25
1224.5
975.875
747.25
522.75
279.0
25.25
-201.875
-346.5
-381.0
-331.125
-256.25
-192.625
-134.5
-45.125
88.0
234.5
336.25
369.0
347.875
305.25
271.0
254.75
245.875
228.0
196.125
166.75
163.375
184.625
206.25
198.125
153.25
89.75
25.25
-35.75
-82.75
-95.875
-64.875
-6.5
38.125
37.25
9.75
16.375
93.75
234.0
372.5
429.0
380.125
276.625
197.375
205.0
257.875
285.125
239.125
152.625
96.25
99.0
164.125
214.75
216.0
183.625
138.5
108.5
94.75
85.75
68.875
46.375
21.25
-2.25
-19.25
-44.0
-69.5
-92.875
-106.125
-116.125
-134.625
-160.875
-188.375
-209.0
-217.75
-219.875
-223.375
-232.125
-245.75
-258.25
-272.25
-292.0
-313.875
-325.25
-327.5
-327.625
-338.5
-358.125
-367.75
-363.75
-354.625
-353.5
-356.75
-345.25
-308.5
-270.875
-249.75
-237.875
-218.5
-186.375
-165.0
-176.625
-212.5
-241.75
-255.75
-271.5
-303.25
-255.875
-373.625
-391.125
-412.25
-456.75
-488.125
-518.75
-534.5
-555.0
-600.75
-660.0
-690.75
-692.25
-688.25
-706.625
-743.625
-771.0
-754.75
-715.375
-686.75
-700.375
-740.625
-757.75
-748.125
-732.5
-742.625
-769.0
-762.375
-715.125
-620.0
-556.875
-535.0
-522.375
-486.25
-439.125
-425.5
-464.125
-528.375
-576.625
-598.625
-611.25
-629.125
-646.0
-654.0
-657.75
-661.25
-652.0
-628.5
-603.875
-602.75
-642.5
-706.25
-766.875
-809.875
-828.125
-808.875
-734.25
-592.25
-396.875
-173.875
21.25
164.625
239.75
265.625
292.25
329.375
340.875
249.5
26.875
-296.125
-601.875
-816.25
-956.75
-1112.5
-1349.625
-1649.25
-1959.625
-2142.375
-2165.125
-2095.5
-2036.75
-2043.625
-2094.125
-2120.125
-2095.25
-2022.875
-1979.125
-1997.125
-2081.5
-2193.375
-2289.75
-2339.75
-2334.75
-2277.75
-2179.625
-2080.625
-2017.0
-2001.75
-2008.75
-2005.25
-2000.75
-2024.75
-2100.875
-2188.125
-2239.125
-2256.0
-2296.5
-2382.875
-2457.875
-2441.125
-2338.625
-2249.5
-2265.375
-2348.375
-2398.625
-2370.75
-2317.5
-2308.125
-2350.875
-2417.875
-2497.875
-2589.875
-2674.875
-2712.875
-2709.875
-2740.875
-2863.875
-3024.875
-3109.875
-3065.25
-2989.375
-3002.625
-3106.5
-3193.25
-3077.125
-2816.0
-2592.625
-2581.25
-2761.625
-2951.25
-3001.5
-2929.375
-2919.875
-3071.0
-3336.0
-3544.875
-3578.875
-3503.0
-3471.25
-3566.5
-3741.5
-3872.375
-3890.625
-3821.75
-3718.625
-3631.0
-3581.125
-3583.0
-3631.875
-3672.375
-3667.375
-3650.0
-3695.0
-3832.0
-3968.0
-3976.0
-3842.125
-3702.25
-3670.375
-3661.75
-3543.5
-3337.0
-3270.5
-3502.5
-3850.75
-3958.25
-3718.875
-3423.25
-3420.875
-3655.75
-3708.375
-3298.375
-2613.75
-2102.5
-2003.875
-2175.625
-2350.625
-2414.0
-2438.5
-2477.75
-2515.25
-2579.75
-2705.625
-2861.0
-2921.375
-2800.875
-2567.5
-2406.875
-2412.875
-2498.375
-2485.375
-2348.0
-2222.25
-2216.625
-2281.875
-2243.0
-2067.25
-1892.125
-1887.125
-2045.5
-2165.625
-2054.75
-1807.25
-1647.875
-1702.0
-1825.25
-1787.75
-1609.375
-1505.0
-1588.25
-1704.375
-1697.625
-1598.75
-1568.125
-1686.125
-1805.75
-1749.875
-1572.875
-1477.625
-1566.375
-1717.625
-1759.0
-1655.125
-1512.625
-1441.5
-1497.0
-1638.5
-1786.5
-1839.25
-1752.625
-1558.625
-1381.25
-1281.5
-1215.75
-1105.0
-918.75
-701.75
-479.25
-242.25
4.875
206.375
295.75
291.125
286.125
326.875
344.75
240.375
-7.125
-276.625
-450.25
-497.875
-487.75
-493.75
-497.625
-423.25
-253.0
-74.0
-1.875
-25.75
-25.75
59.125
164.125
114.5
-129.25
-448.375
-634.625
-674.25
-693.0
-782.0
-951.625
-1149.75
-1348.75
-1571.625
-1766.625
-1920.875
-2031.0
-2166.125
-2337.375
-2418.625
-2378.25
-2264.25
-2207.625
-2275.625
-2418.75
-2524.25
-2565.0
-2575.0
-2637.25
-2699.75
-2735.625
-2778.125
-2846.625
-2949.0
-2981.875
-2906.375
-2799.5
-2760.75
-2791.5
-2802.75
-2756.25
-2656.375
-2549.5
-2484.625
-2440.75
-2405.25
-2348.5
-2263.25
-2144.25
-2005.25
-1876.625
-1791.625
-1742.0
-1710.25
-1679.125
-1665.125
-1665.625
-1683.625
-1723.625
-1775.625
-1808.625
-1783.75
-1672.625
-1526.125
-1410.875
-1371.0
-1408.75
-1467.25
-1477.125
-1425.625
-1382.125
-1408.875
-1496.75
-1562.375
-1520.25
-1352.0
-1156.75
-1054.875
-1077.25
-1140.125
-1146.875
-1112.0
-1124.375
-1278.625
-1530.125
-1763.5
-1861.375
-1845.75
-1766.625
-1711.75
-1656.625
-1572.125
-1437.375
-1301.125
-1195.75
-1123.0
-1086.0
-1096.0
-1186.5
-1345.75
-1497.375
-1567.375
-1549.375
-1505.125
-1497.75
-1499.625
-1448.5
-1323.875
-1188.375
-1113.75
-1109.375
-1127.75
-1109.875
-1054.75
-1003.0
-972.75
-922.875
-813.875
-664.0
-534.5
-524.625
-598.375
-637.125
-565.5
-447.875
-409.5
-488.0
-585.875
-562.875
-401.625
-244.375
-201.25
-286.5
-377.375
-382.0
-277.375
-141.375
-61.875
-73.0
-123.375
-128.375
-48.125
62.375
105.125
35.0
-82.0
-131.0
-91.0
-19.0
24.0
73.0
234.0
548.0
922.0
1201.0
1307.0
1289.0
1281.0
1370.0
1512.0
1579.0
1506.0
1365.0
1295.0
1343.0
1385.0
1259.0
949.0
595.125
338.125
175.125
20.375
-145.625
-250.625
-249.25
-188.25
-139.25
-85.375
25.625
171.625
252.625
230.625
201.375
272.25
402.375
445.75
369.0
303.125
378.125
526.125
552.125
396.125
207.5
154.0
206.0
194.875
47.875
-122.125
-184.125
-139.125
-82.375
-62.375
-34.0
12.5
15.375
-76.75
-188.5
-187.125
-79.75
-3.25
-89.0
-283.375
-428.625
-459.125
-456.125
-516.375
-598.125
-580.75
-438.75
-324.0
-391.875
-604.0
-739.25
-669.5
-499.375
-473.625
-674.125
-918.375
-956.75
-770.75
-569.375
-524.25
-578.0
-526.25
-293.5
-40.125
40.25
-65.25
-176.875
-147.75
-30.0
-10.625
-179.25
-422.75
-525.375
-419.75
-226.125
-116.875
-129.875
-139.875
-31.125
166.875
337.5
396.75
382.25
363.25
369.0
364.5
353.75
355.5
387.75
402.125
384.0
394.875
498.625
655.25
719.625
645.875
541.5
536.625
616.75
649.125
551.375
402.5
353.625
423.375
497.75
455.625
350.625
317.875
399.625
529.25
603.875
613.125
613.125
629.375
633.25
603.25
554.25
528.0
532.125
537.5
528.5
536.75
609.75
756.5
915.5
1015.5
1033.5
1013.5
1023.5
1075.5
1123.5
1108.0
1023.5
929.5
900.25
946.375
1016.5
1056.25
1058.375
1041.25
1020.5
988.0
936.375
880.375
843.375
820.375
782.375
724.5
683.25
716.5
814.625
923.75
973.625
963.125
928.875
903.625
886.75
884.25
925.125
1059.25
1269.375
1522.125
1756.0
1941.25
2086.0
2224.0
2372.75
2522.5
2626.0
2630.75
2509.0
2301.25
2092.125
1940.875
1822.625
1653.875
1404.625
1110.25
880.75
703.625
530.625
361.5
244.25
271.25
383.0
464.625
445.375
351.625
314.25
394.5
514.125
581.375
530.25
368.5
215.25
203.25
320.375
475.125
597.25
608.875
592.875
534.125
504.75
496.375
503.625
512.125
507.0
514.25
527.375
549.375
610.625
665.875
728.625
765.5
763.875
705.625
617.375
538.5
500.25
485.75
455.375
391.5
316.875
254.125
235.75
220.0
175.0
105.0
32.375
-41.75
-127.0
-244.375
-373.0
-480.625
-566.375
-675.0
-828.0
-981.125
-1054.625
-1030.875
-978.75
-987.0
-1071.375
-1171.625
-1249.0
-1328.25
-1453.0
-1620.25
-1762.375
-1827.5
-1830.375
-1809.875
-1775.75
-1702.375
-1571.375
-1413.375
-1286.375
-1226.375
-1224.375
-1240.375
-1240.375
-1222.375
-1208.375
-1210.375
-1223.375
-1229.375
-1211.75
-1182.75
-1157.875
-1147.0
-1145.625
-1148.625
-1174.0
-1222.0
-1283.5
-1316.625
-1294.0
-1224.875
-1156.125
-1135.75
-1138.375
-1135.625
-1070.5
-997.125
-950.625
-957.125
-982.25
-958.25
-918.0
-938.0
-1041.875
-1183.375
-1274.25
-1293.125
-1301.75
-1327.75
-1356.5
-1346.375
-1285.25
-1241.25
-1225.125
-1229.25
-1230.5
-1238.5
-1274.375
-1305.875
-1280.625
-1187.0
-1067.0
-1013.0
-988.875
-978.0
-908.625
-830.5
-814.25
-858.75
-945.5
-1082.875
-1159.5
-1146.875
-1126.375
-1110.375
-1103.375
-1092.375
-1065.75
-1026.375
-998.5
-1011.375
-1070.5
-1149.375
-1208.25
-1231.875
-1238.25
-1249.25
-1253.375
-1227.625
-1182.625
-1147.625
-1138.25
-1128.25
-1074.125
-964.625
-837.625
-723.375
-607.25
-462.125
-308.625
-225.125
-240.0
-296.625
-312.25
-295.125
-334.625
-521.125
-804.5
-1058.5
-1215.0
-1337.125
-1544.375
-1862.25
-2187.75
-2391.875
-2435.5
-2407.0
-2404.25
-2439.5
-2480.375
-2452.875
-2362.5
-2252.0
-2188.125
-2161.5
-2176.875
-2190.25
-2187.5
-2196.5
-2194.625
-2167.75
-2092.375
-1987.75
-1872.125
-1774.0
-1684.875
-1616.5
-1549.625
-1488.5
-1436.125
-1401.375
-1376.125
-1332.75
-1251.75
-1145.25
-1058.25
-1040.5
-1087.375
-1140.125
-1150.0
-1118.0
-1078.875
-1073.875
-1090.75
-1087.0
-1022.875
-921.875
-835.875
-789.875
-781.625
-783.0
-752.0
-691.0
-623.75
-570.75
-561.875
-579.625
-580.5
-527.125
-421.125
-305.625
-243.625
-235.875
-247.875
-247.125
-222.125
-180.75
-147.75
-115.25
-67.0
-0.125
82.625
172.5
251.625
313.375
359.0
383.375
365.0
297.25
225.0
200.375
201.625
92.25
-228.5
-722.25
-1199.625
-1519.25
-1662.375
-1684.875
-1569.625
-1238.5
-670.375
3.25
633.25
1182.0
1728.875
2277.375
2683.75
2786.5
2591.875
2288.5
2072.5
1970.625
1892.75
1768.125
1647.0
1600.25
1636.625
1673.375
1633.375
1496.875
1316.125
1148.375
999.25
832.25
629.0
446.75
349.375
364.25
433.125
454.875
381.375
261.25
163.375
128.25
133.375
148.875
197.125
282.75
375.5
424.25
425.875
423.25
462.875
548.875
642.75
717.25
780.375
836.125
885.875
919.25
950.875
982.375
987.25
949.25
871.25
786.25
712.75
635.75
550.75
503.75
539.5
641.5
719.25
727.25
703.625
720.375
782.875
815.875
741.0
578.0
416.5
328.5
318.5
370.5
491.5
705.375
995.375
1304.5
1561.5
1759.625
1936.625
2137.5
2355.75
2546.5
2653.5
2655.625
2581.25
2503.875
2451.125
2415.25
2322.25
2134.0
1870.875
1601.625
1383.125
1247.875
1194.875
1215.875
1292.375
1374.375
1422.375
1433.375
1459.375
1552.375
1700.375
1816.375
1817.375
1694.375
1525.375
1400.375
1343.375
1312.375
1250.375
1145.375
1032.375
950.375
903.375
859.375
800.375
753.375
771.375
861.375
963.375
995.375
934.375
858.375
863.375
982.375
1151.375
1276.375
1318.375
1306.375
1299.375
1326.375
1379.375
1417.375
1394.375
1290.375
1136.375
1008.375
975.0
1035.75
1128.75
1165.625
1140.625
1098.25
1083.625
1098.625
1107.5
1092.5
1066.25
1055.25
1054.25
1054.25
1071.25
1131.125
1217.875
1291.875
1303.625
1270.875
1272.625
1353.625
1473.25
1534.125
1510.375
1434.875
1354.375
1268.625
1158.5
997.0
830.625
743.75
713.5
697.0
687.125
702.875
763.875
860.875
961.625
1013.875
988.0
903.625
823.625
815.0
861.25
907.25
899.25
866.25
861.25
900.25
942.25
954.25
951.25
952.25
934.25
871.25
792.25
768.25
828.25
920.25
964.25
945.25
912.25
907.25
902.625
858.0
772.5
709.25
699.25
733.5
776.375
796.125
806.0
817.75
851.375
882.75
899.875
885.5
864.5
872.875
910.125
957.625
969.125
935.0
876.25
830.875
833.125
828.0
763.625
623.375
490.5
456.125
551.125
702.25
802.5
806.75
784.25
819.125
922.625
999.25
971.125
826.125
642.375
503.625
421.25
366.25
330.5
330.375
366.0
386.5
354.375
269.125
188.5
147.375
139.125
133.0
133.375
189.375
321.625
504.5
726.875
957.5
1198.25
1450.25
1683.75
1868.0
1962.0
1940.75
1808.75
1620.75
1420.75
1208.75
944.25
602.875
244.875
-39.5
-181.5
-255.125
-297.375
-359.875
-380.375
-309.375
-143.625
50.625
177.25
255.5
306.0
379.125
475.625
548.75
558.5
521.5
467.5
449.625
461.875
460.125
399.125
276.375
149.625
66.625
29.25
-10.25
-48.75
-70.875
-55.125
-7.625
22.125
18.375
-1.25
21.375
46.25
27.25
-15.875
-33.125
12.75
83.875
115.625
83.375
52.375
79.75
171.625
267.625
287.75
217.25
89.5
-47.5
-150.5
-200.875
-213.75
-243.5
-302.25
-364.75
-370.125
-298.5
-202.25
-160.25
-166.5
-190.125
-185.5
-161.75
-154.125
-197.125
-247.5
-264.75
-235.375
-184.125
-170.25
-202.625
-230.375
-219.75
-171.75
-120.75
-92.0
-88.375
-91.875
-71.75
-15.875
67.75
169.125
254.125
279.125
248.0
197.75
187.75
240.75
318.75
361.75
344.75
296.75
270.125
291.125
330.25
350.0
331.625
303.5
312.0
391.625
501.875
576.5
579.5
547.25
517.75
495.5
470.625
393.375
263.125
118.5
-20.125
-107.75
-149.625
-152.125
-128.125
-108.125
-108.5
-105.125
-86.25
-72.5
-70.125
-161.875
-241.0
-326.75
-412.125
-496.875
-528.375
-550.5
-546.875
-556.0
-602.0
-668.0
-715.625
-726.75
-719.0
-729.625
-765.125
-804.625
-851.75
-891.625
-958.625
-1014.25
-1055.0
-1079.0
-1093.75
-1114.5
-1150.5
-1186.875
-1190.0
-1164.75
-1144.625
-1170.125
-1237.25
-1306.375
-1357.5
-1379.75
-1398.75
-1403.875
-1349.625
-1173.25
-917.5
-668.25
-495.25
-406.875
-357.25
-297.0
-207.375
-129.125
-120.125
-244.125
-487.0
-776.375
-1019.0
-1190.25
-1360.25
-1607.0
-1926.0
-2233.0
-2438.5
-2531.0
-2559.875
-2553.75
-2511.625
-2424.5
-2321.875
-2249.75
-2204.5
-2161.375
-2098.875
-2029.5
-2033.5
-2139.125
-2263.5
-2349.5
-2393.375
-2416.75
-2449.25
-2483.375
-2458.625
-2427.0
-2447.75
-2549.375
-2661.75
-2701.125
-2627.875
-2518.875
-2461.875
-2469.625
-2478.5
-2449.375
-2395.375
-2363.375
-2369.375
-2386.875
-2385.875
-2381.875
-2385.875
-2389.875
-2384.875
-2386.875
-2422.875
-2498.875
-2575.875
-2617.875
-2636.875
-2685.875
-2785.875
-2891.875
-2935.875
-2914.875
-2902.875
-2949.875
-2999.875
-2951.875
-2805.875
-2677.875
-2675.875
-2757.875
-2779.875
-2674.875
-2542.875
-2512.5
-2568.25
-2586.125
-2509.125
-2420.625
-2434.5
-2519.375
-2569.75
-2570.5
-2616.375
-2720.5
-2759.125
-2613.5
-2383.875
-2282.875
-2356.875
-2409.125
-2246.75
-1950.75
-1773.875
-1845.25
-2019.125
-2067.125
-1949.5
-1830.375
-1870.375
-2030.875
-2160.75
-2174.625
-2117.125
-2087.125
-2153.625
-2265.875
-2337.0
-2317.875
-2229.125
-2154.5
-2149.5
-2180.125
-2152.125
-2005.5
-1794.5
-1618.0
-1555.75
-1600.125
-1671.25
-1665.625
-1571.5
-1462.875
-1481.625
-1662.125
-1882.875
-1988.25
-1962.875
-1904.625
-1898.125
-1883.125
-1753.25
-1575.125
-1481.75
-1501.75
-1464.625
-1214.875
-866.125
-673.375
-736.25
-885.0
-876.0
-663.375
-436.875
-370.875
-427.75
-475.375
-438.0
-348.25
-223.625
-104.125
76.5
290.0
426.375
433.75
380.125
400.5
582.125
817.875
993.625
958.0
850.625
821.125
976.125
1195.625
1302.0
1238.25
1116.625
1094.625
1172.25
1265.625
1302.375
1330.125
1466.0
1719.5
2027.875
2253.5
2324.625
2362.125
2482.0
2732.25
2979.5
3087.375
3016.875
2923.375
2892.375
2889.5
2753.625
2457.75
2105.75
1854.125
1706.75
1559.625
1377.75
1210.375
1167.625
1240.75
1338.125
1361.75
1322.0
1265.0
1196.75
1088.5
928.875
755.125
611.875
513.25
453.875
424.375
424.0
428.875
423.25
396.875
344.0
236.625
100.0
-62.875
-150.0
-132.625
-80.25
-107.625
-242.625
-378.5
-373.0
-275.625
-244.0
-395.25
-649.625
-775.125
-749.125
-691.0
-799.25
-1070.0
-1319.5
-1408.125
-1385.125
-1393.375
-1511.25
-1657.625
-1707.25
-1632.0
-1534.75
-1536.125
-1641.0
-1767.125
-1829.375
-1825.875
-1811.375
-1842.625
-1929.5
-2052.625
-2165.0
-2215.625
-2200.625
-2153.375
-2119.375
-2103.375
-2067.375
-1977.375
-1856.375
-1771.375
-1754.375
-1770.375
-1762.375
-1709.375
-1647.375
-1618.375
-1619.375
-1618.875
-1610.75
-1520.875
-1369.875
-1230.875
-1110.875
-1057.625
-1104.0
-1239.875
-1296.5
-1217.375
-1069.0
-1030.25
-1174.25
-1369.625
-1417.0
-1251.25
-1072.0
-1053.5
-1164.875
-1174.0
-982.625
-758.625
-756.625
-1006.0
-1192.625
-1040.875
-650.5
-416.25
-573.5
-915.25
-1040.875
-782.75
-405.25
-269.125
-465.5
-703.125
-705.5
-487.375
-289.875
-331.375
-481.375
-517.375
-372.375
-204.875
-194.25
-310.25
-352.25
-192.625
66.375
215.5
176.0
66.625
79.125
283.25
561.375
718.5
654.5
445.125
295.125
370.125
628.125
857.125
883.75
726.5
570.625
572.625
730.625
931.625
1071.625
1093.625
967.625
725.625
510.625
513.625
784.625
1123.625
1232.625
1023.625
722.625
659.625
953.625
1434.625
1794.625
1871.625
1746.625
1634.625
1702.625
1950.625
2241.625
2451.5
2575.125
2606.625
2595.25
2542.25
2442.25
2265.125
2126.875
2051.875
1929.875
1644.625
1194.0
778.75
604.5
621.5
702.125
816.75
1021.5
1285.75
1527.25
1616.375
1578.5
1568.5
1672.75
1762.75
1659.375
1339.625
1010.625
896.625
1030.625
1264.0
1399.0
1349.5
1204.875
1134.375
1233.25
1421.875
1487.0
1313.875
1023.5
841.75
857.875
915.5
812.0
533.25
308.25
338.125
587.5
825.25
862.125
723.875
591.25
601.5
743.0
872.375
911.375
869.125
806.5
749.5
676.5
590.5
513.5
426.5
311.5
205.5
188.25
308.625
446.125
392.375
127.875
-117.0
-69.0
304.0
636.25
671.25
458.25
275.75
284.75
397.375
468.375
434.125
346.125
191.625
11.375
-63.0
100.875
433.625
652.625
567.625
349.625
325.0
573.375
848.75
887.5
743.375
675.75
772.875
838.375
692.125
464.375
456.125
719.0
971.875
910.25
608.0
409.375
538.25
813.625
896.75
695.875
457.375
467.375
713.5
923.5
910.5
777.5
756.5
900.375
1022.0
957.0
789.875
739.875
860.25
944.0
781.0
443.125
214.0
268.875
501.875
656.875
616.375
485.375
435.375
535.75
738.375
939.0
1061.25
1075.5
1022.125
956.625
974.625
1075.375
1172.75
1168.0
1038.125
857.125
736.5
714.5
755.125
808.875
847.875
870.25
878.75
870.75
870.75
909.5
976.375
1013.0
951.0
776.0
562.0
426.375
441.375
565.375
666.375
634.375
496.375
411.375
504.375
728.375
891.375
864.375
745.375
767.125
1032.625
1389.625
1612.625
1627.875
1614.875
1730.875
1949.25
2084.625
1979.625
1700.625
1411.25
1184.125
988.375
741.125
429.75
122.0
-150.75
-333.75
-445.875
-532.0
-617.25
-662.625
-626.25
-505.875
-414.625
-386.375
-366.375
-345.375
-306.25
-353.875
-556.875
-795.625
-929.5
-913.375
-919.625
-945.75
-1006.75
-975.0
-853.875
-737.375
-690.625
-715.0
-742.875
-761.375
-791.75
-872.625
-975.375
-1059.25
-1101.625
-1099.5
-1098.875
-1103.125
-1133.375
-1196.5
-1255.25
-1289.125
-1303.125
-1344.75
-1426.25
-1526.875
-1594.375
-1635.0
-1642.5
-1658.75
-1679.5
-1731.5
-1804.25
-1885.875
-1965.5
-2042.375
-2124.375
-2207.0
-2288.875
-2329.625
-2313.375
-2293.375
-2340.625
-2474.375
-2589.0
-2579.875
-2462.625
-2399.25
-2512.75
-2716.25
-2795.25
-2722.625
-2592.125
-2630.625
-2787.125
-2896.5
-2832.25
-2712.25
-2655.875
-2712.625
-2747.375
-2667.25
-2525.125
-2454.875
-2475.0
-2482.25
-2402.375
-2279.375
-2196.0
-2166.75
-2137.875
-2087.25
-2068.875
-2101.125
-2114.875
-2020.375
-1859.625
-1775.625
-1852.375
-1998.25
-2041.625
-1939.5
-1775.5
-1749.75
-1825.625
-1916.0
-1917.625
-1845.125
-1791.875
-1815.0
-1906.375
-2018.0
-2103.25
-2121.75
-2064.5
-1962.125
-1883.75
-1864.25
-1865.375
-1815.625
-1713.875
-1645.625
-1672.5
-1770.625
-1844.75
-1836.125
-1779.75
-1737.25
-1737.125
-1736.125
-1681.875
-1575.0
-1455.5
-1375.25
-1328.875
-1284.5
-1219.875
-1187.75
-1235.75
-1341.25
-1413.75
-1390.125
-1322.875
-1325.75
-1428.125
-1544.375
-1558.25
-1476.75
-1408.75
-1465.75
-1613.625
-1719.375
-1710.5
-1630.0
-1587.75
-1635.875
-1724.875
-1769.875
-1737.875
-1668.875
-1614.875
-1575.875
-1503.875
-1350.875
-1130.875
-918.875
-779.875
-720.875
-687.875
-630.875
-538.875
-439.875
-382.875
-404.875
-510.875
-674.875
-844.875
-989.875
-1125.875
-1310.875
-1581.875
-1904.875
-2181.875
-2324.875
-2328.875
-2279.625
-2265.125
-2304.625
-2323.125
-2249.375
-2107.0
-2008.125
-2046.75
-2198.875
-2364.125
-2475.125
-2580.5
-2747.5
-2958.5
-3092.75
-3030.125
-2780.375
-2466.75
-2197.125
-1982.875
-1772.5
-1541.125
-1343.625
-1247.875
-1272.875
-1357.875
-1423.375
-1459.25
-1516.5
-1667.125
-1896.375
-2119.75
-2253.5
-2294.25
-2311.125
-2390.875
-2536.875
-2681.25
-2752.375
-2731.125
-2620.125
-2475.625
-2358.125
-2306.125
-2298.25
-2258.25
-2146.75
-2015.75
-1967.75
-2040.75
-2153.75
-2185.75
-2107.75
-2003.75
-1970.75
-2020.75
-2079.75
-2076.75
-2016.75
-1961.75
-1954.75
-1984.75
-1998.75
-1952.75
-1849.75
-1722.125
-1575.375
-1405.375
-1245.0
-1153.75
-1188.125
-1308.125
-1360.125
-1249.5
-1097.875
-1117.625
-1289.75
-1476.0
-1491.5
-1319.25
-1121.75
-1030.25
-1034.875
-1021.125
-958.0
-927.5
-1015.0
-1213.5
-1392.625
-1503.625
-1582.5
-1698.625
-1832.25
-1878.75
-1783.0
-1603.125
-1427.0
-1279.0
-1107.875
-897.125
-728.5
-678.0
-729.625
-768.5
-716.5
-628.5
-597.5
-613.5
-568.5
-403.5
-199.5
-79.5
-76.5
-104.75
-80.75
-44.875
-123.375
-387.375
-745.125
-1014.125
-1072.875
-967.75
-823.125
-741.125
-710.625
-607.875
-385.0
-93.625
114.375
150.375
53.375
-56.625
-109.625
-125.625
-151.625
-180.625
-164.625
-94.625
-22.625
15.625
39.625
102.625
209.625
298.625
302.625
251.625
246.0
310.0
400.0
443.0
429.0
408.0
412.0
399.0
356.125
262.5
270.875
450.0
756.75
1058.25
1220.125
1243.125
1200.5
1220.75
1349.25
1534.125
1659.75
1615.0
1397.125
1113.125
915.875
884.625
939.0
918.5
685.375
288.75
-69.75
-229.0
-174.75
-38.5
7.875
-91.25
-214.5
-245.25
-79.375
88.125
255.875
353.875
408.875
379.0
323.5
305.25
257.125
263.25
362.25
483.375
610.0
605.375
538.0
528.75
562.0
638.75
634.125
555.625
465.75
416.875
417.0
393.875
308.25
177.0
61.375
12.25
24.125
63.5
107.625
166.0
226.875
244.875
203.125
166.125
223.0
379.125
522.25
509.625
333.625
142.75
76.75
119.75
114.75
-53.25
-318.25
-501.25
-508.25
-420.25
-381.25
-427.25
-470.25
-427.25
-338.25
-292.25
-337.25
-391.25
-386.25
-347.25
-346.25
-398.25
-436.25
-407.25
-340.0
-289.0
-247.125
-180.125
-79.125
-22.25
-74.25
-169.5
-208.375
-135.875
-37.125
-32.375
-132.75
-243.125
-277.875
-236.375
-197.75
-228.25
-311.25
-372.875
-356.625
-254.5
-123.375
-141.625
-198.625
-210.0
-138.5
-31.375
18.25
4.625
0.0
96.25
265.25
406.5
421.125
335.125
247.625
238.5
283.625
314.25
281.75
207.875
133.0
94.625
91.625
103.375
121.625
127.875
117.0
106.75
115.875
155.875
196.375
190.5
126.0
43.5
-16.375
-61.625
-133.625
-248.625
-369.5
-458.375
-503.625
-519.25
-525.375
-504.25
-444.875
-385.0
-370.25
-401.625
-403.875
-331.375
-209.25
-117.125
-121.375
-195.25
-245.75
-191.75
-43.75
91.5
114.5
11.5
-133.375
-228.25
-259.25
-276.25
-311.375
-320.75
-228.125
-12.375
263.375
510.125
675.0
770.0
828.875
880.625
929.625
935.25
830.75
581.375
238.375
-69.875
-257.5
-372.25
-547.125
-837.125
-1146.125
-1315.125
-1286.75
-1149.625
-1020.625
-925.625
-820.875
-682.625
-559.5
-490.625
-449.5
-365.875
-249.875
-163.125
-184.0
-293.0
-393.5
-404.5
-323.625
-224.25
-140.0
-120.25
-135.25
-127.0
-108.875
-101.125
-108.0
-127.875
-121.25
-82.5
-36.75
-0.375
20.75
44.5
68.75
79.5
74.625
74.25
112.875
184.375
263.25
313.125
352.75
387.0
427.625
452.375
441.25
418.5
414.625
428.875
452.0
461.5
441.5
403.875
369.375
346.625
334.5
324.75
315.125
297.125
278.125
259.125
250.375
256.75
269.0
272.625
263.75
240.75
225.5
248.625
317.75
403.75
448.0
419.375
360.375
347.375
404.375
469.875
460.0
372.375
288.5
280.5
329.0
350.875
309.5
245.875
215.875
224.5
220.625
171.75
97.25
40.5
-0.375
-28.125
-45.125
-48.125
-52.25
-77.25
-119.0
-132.125
-103.75
-50.375
-27.0
-50.5
-94.0
-125.125
-138.125
-137.75
-125.75
-106.75
-102.75
-127.75
-160.75
-159.75
-110.75
-50.75
-25.0
-19.0
2.25
59.125
127.125
164.625
168.625
163.75
185.25
216.0
246.625
240.0
206.375
167.0
145.875
162.25
214.125
244.75
232.625
208.375
200.375
224.375
244.375
227.125
212.375
199.25
221.5
226.25
175.625
91.25
26.625
19.75
41.875
25.25
-36.75
-82.75
-59.5
41.375
136.875
143.75
120.75
121.5
192.25
310.5
458.625
620.5
809.625
1007.625
1168.625
1280.625
1402.625
1561.5
1709.0
1778.25
1689.125
1546.875
1262.0
1000.625
769.0
530.875
253.625
-47.125
-321.625
-529.75
-628.375
-623.0
-554.375
-476.875
-416.5
-400.625
-426.375
-446.25
-456.375
-452.875
-452.125
-472.25
-528.25
-608.0
-688.375
-736.625
-732.875
-683.375
-649.5
-656.75
-758.5
-918.0
-1038.75
-1051.125
-988.875
-941.75
-963.0
-1006.75
-986.875
-900.375
-814.5
-814.0
-902.625
-1008.625
-1063.375
-1040.25
-996.0
-996.5
-1051.75
-1088.375
-1081.0
-1048.75
-1032.75
-1107.625
-1261.0
-1383.0
-1382.5
-1333.125
-1361.125
-1497.125
-1599.5
-1504.25
-1270.125
-1100.0
-1179.75
-1423.0
-1618.25
-1638.75
-1512.75
-1322.75
-1149.75
-1095.75
-1275.75
-1632.75
-1859.5
-1675.375
-1188.25
-907.25
-1210.5
-1870.5
-2236.5
-1946.5
-1334.375
-1032.25
-1261.5
-1626.625
-1670.5
-1434.25
-1336.875
-1613.125
-2012.375
-2114.375
-1838.875
-1538.875
-1554.25
-1846.125
-2049.125
-1857.625
-1354.625
-893.375
-789.375
-1066.375
-1489.375
-1763.625
-1754.625
-1534.625
-1295.25
-1229.25
-1418.25
-1767.25
-2020.25
-1910.75
-1391.75
-749.75
-417.75
-578.75
-971.75
-1135.75
-887.125
-486.625
-352.0
-639.125
-1055.0
-1247.75
-1095.75
-774.5
-476.625
-313.125
-256.625
-231.875
-148.5
23.5
187.375
319.0
360.625
375.125
418.875
423.5
295.875
157.375
206.5
504.25
860.625
1006.75
924.375
882.75
1080.125
1413.75
1575.625
1435.875
1208.875
1178.75
1359.75
1526.625
1434.625
1146.625
940.75
1015.625
1301.5
1548.75
1575.0
1415.625
1283.25
1310.625
1444.125
1526.375
1429.75
1235.75
1144.25
1281.375
1586.625
1892.5
2102.5
2262.25
2461.25
2699.25
2874.25
2915.25
2871.25
2850.0
2897.375
2939.625
2851.0
2591.0
2240.5
1929.75
1727.75
1589.375
1443.875
1273.5
1126.5
1060.5
1049.75
1030.125
993.875
991.25
1076.0
1173.0
1158.75
1028.75
912.625
894.5
906.125
783.25
485.75
184.625
66.125
132.875
186.5
86.25
-111.0
-234.0
-203.875
-116.625
-116.375
-241.25
-409.375
-524.75
-549.375
-548.125
-595.5
-707.25
-824.875
-867.625
-834.875
-792.0
-790.875
-797.75
-788.875
-775.875
-833.5
-985.625
-1141.5
-1205.875
-1193.0
-1194.25
-1276.75
-1371.375
-1365.75
-1229.5
-1047.125
-913.625
-848.625
-830.75
-841.5
-886.25
-934.375
-934.75
-903.625
-921.375
-1040.5
-1166.5
-1134.5
-900.5
-621.5
-503.5
-579.5
-684.5
-636.5
-436.5
-242.5
-173.5
-212.5
-279.5
-335.5
-367.375
-344.375
-226.375
-67.375
-0.375
-88.375
-214.375
-188.375
12.625
192.625
153.625
-76.375
-277.375
-296.375
-206.375
-180.375
-263.375
-350.375
-320.375
-171.375
-0.375
105.625
142.125
197.75
309.125
447.375
502.25
424.875
280.875
227.5
274.125
289.875
133.875
-105.625
-180.25
29.75
333.75
413.75
212.75
-2.25
58.75
373.75
651.75
666.75
473.75
313.75
345.75
527.75
699.75
738.75
634.75
499.75
466.75
576.75
734.75
797.75
720.625
623.625
639.375
767.125
909.125
1000.125
1073.125
1173.125
1271.875
1296.875
1226.25
1075.375
883.5
690.0
534.75
464.25
488.25
577.0
745.25
980.125
1253.75
1443.25
1463.625
1381.625
1352.75
1430.625
1507.0
1495.0
1478.875
1623.375
1928.375
2213.875
2334.125
2374.25
2521.625
2805.625
3024.0
2991.75
2741.75
2488.625
2359.375
2263.375
2046.375
1683.5
1327.125
1127.125
1054.375
931.0
668.625
398.25
336.625
519.25
713.0
706.375
577.125
606.25
907.25
1242.125
1320.25
1140.5
953.875
918.75
941.375
892.5
781.75
789.0
926.375
1024.375
888.375
640.125
477.625
494.25
607.875
667.0
686.375
717.75
791.375
855.875
870.25
873.0
865.75
838.375
778.75
672.25
556.0
460.0
422.0
455.0
514.0
504.0
376.0
201.0
125.0
209.0
334.0
316.0
104.0
-164.125
-293.375
-225.875
-75.625
-38.625
-177.375
-362.875
-395.375
-199.75
74.25
222.0
119.0
-140.25
-335.875
-325.5
-165.125
-24.125
-42.25
-229.125
-428.5
-494.5
-374.5
-154.5
37.5
129.5
150.5
171.5
255.5
400.5
563.5
674.5
666.5
538.5
389.5
365.75
525.0
740.375
802.125
645.625
455.75
478.75
753.25
1056.625
1156.0
1073.25
991.25
1011.25
1033.25
934.25
772.25
722.25
852.25
1021.25
1050.25
952.25
916.25
1064.25
1299.25
1411.25
1297.25
1063.5
903.0
901.75
991.625
1050.875
1039.0
1016.125
1065.375
1201.375
1344.75
1410.625
1390.75
1331.875
1290.125
1284.25
1287.125
1272.125
1243.5
1243.5
1303.125
1421.875
1564.625
1663.0
1656.75
1569.5
1447.0
1343.75
1276.0
1233.625
1214.0
1218.0
1245.0
1265.125
1262.0
1249.0
1260.0
1321.0
1413.0
1460.0
1396.375
1255.25
1118.25
1065.75
1083.375
1073.0
982.625
881.125
883.875
1025.5
1241.125
1448.5
1658.375
1917.5
2196.5
2396.5
2477.5
2528.5
2644.5
2767.625
2728.125
2445.0
2044.25
1756.75
1621.25
1489.375
1211.0
816.25
495.0
381.125
428.5
508.75
565.25
627.25
726.375
837.625
924.625
978.5
1008.625
995.5
916.625
783.25
647.875
542.375
479.0
442.375
480.5
566.25
649.875
632.0
536.5
447.75
458.5
531.25
549.0
469.875
378.0
373.0
459.875
544.5
546.25
485.75
429.0
408.625
389.375
366.125
319.125
259.0
219.5
206.5
253.75
291.25
255.0
138.0
19.125
-24.125
11.875
17.875
-79.125
-229.125
-323.125
-324.125
-319.125
-407.625
-578.0
-706.875
-750.25
-759.125
-788.625
-879.25
-934.0
-910.125
-852.875
-848.75
-954.375
-1089.0
-1145.625
-1080.0
-980.25
-964.5
-1025.75
-1081.125
-1030.75
-884.375
-767.0
-745.375
-778.125
-804.125
-807.375
-829.625
-898.625
-989.625
-1035.5
-1022.5
-984.0
-934.75
-855.125
-740.125
-650.75
-638.75
-688.875
-722.875
-702.625
-687.875
-759.875
-928.125
-1079.125
-1130.75
-1075.375
-996.75
-933.625
-913.625
-928.75
-943.5
-943.5
-908.5
-852.25
-841.25
-917.25
-1046.125
-1151.125
-1171.625
-1140.875
-1117.875
-1118.875
-1108.875
-1058.75
-1002.75
-967.75
-949.75
-911.75
-830.75
-724.75
-627.75
-555.75
-502.75
-470.75
-465.75
-473.75
-464.75
-431.75
-404.75
-417.75
-463.75
-487.75
-447.75
-367.75
-315.125
-317.625
-343.25
-336.875
-294.125
-249.875
-243.5
-263.0
-260.375
-226.125
-184.125
-153.625
-120.0
-65.875
-5.625
9.5
-47.375
-134.125
-171.5
-141.75
-81.25
-19.625
49.75
186.125
424.125
719.625
954.375
1045.5
1009.5
955.5
968.5
1021.5
1000.5
823.5
526.5
227.5
18.5
-114.5
-256.5
-475.5
-771.375
-1066.375
-1265.375
-1307.375
-1205.375
-1041.375
-904.375
-818.375
-732.375
-588.375
-400.375
-255.375
-216.375
-268.375
-352.375
-425.375
-482.375
-512.375
-487.125
-392.0
-265.0
-163.25
-111.875
-77.375
-34.25
-4.25
-27.25
-97.0
-155.125
-157.5
-135.0
-149.625
-214.375
-272.0
-283.0
-264.0
-256.875
-270.0
-252.375
-182.375
-99.375
-59.75
-74.375
-82.125
-21.375
94.5
201.25
229.5
177.625
121.75
121.375
182.375
248.625
264.875
221.5
164.625
152.125
192.75
250.625
282.5
289.625
291.375
300.875
304.375
290.5
273.125
279.625
311.0
339.625
328.5
285.375
261.25
295.375
369.125
416.0
392.625
335.125
306.125
352.0
445.25
515.0
550.625
597.875
694.5
803.25
856.875
829.25
760.0
696.25
637.25
541.875
412.75
291.75
209.375
187.0
206.0
246.125
296.0
327.75
336.75
338.5
364.5
422.5
451.625
413.0
335.875
313.125
387.375
516.625
593.25
588.25
565.25
602.25
701.25
788.25
797.25
743.25
698.25
726.25
829.25
960.25
1069.25
1130.25
1160.25
1201.25
1272.25
1345.25
1370.25
1330.25
1280.25
1286.25
1351.25
1413.875
1387.875
1331.25
1330.25
1449.875
1620.875
1734.875
1721.875
1637.875
1544.875
1465.0
1377.875
1283.875
1213.75
1170.75
1134.75
1098.75
1105.75
1203.75
1369.75
1611.25
1840.5
1951.125
1933.0
1877.375
1843.125
1790.75
1746.875
1791.375
1991.25
2299.0
2565.75
2689.25
2741.875
2858.0
3175.75
3567.25
3823.375
3805.5
3548.375
3285.125
3150.75
3102.75
3001.125
2747.25
2365.0
1979.5
1693.5
1581.875
1601.125
1673.375
1723.75
1784.0
1910.125
2104.25
2282.875
2383.125
2406.5
2404.625
2433.75
2407.75
2323.875
2161.0
2054.75
2038.875
2115.75
2190.875
2224.125
2201.375
2154.5
2130.875
2124.5
2127.5
2141.875
2178.5
2227.75
2276.375
2295.75
2272.0
2217.5
2138.0
2052.125
1973.625
1893.875
1795.375
1710.125
1697.625
1734.375
1788.375
1791.625
1755.5
1731.0
1744.625
1781.375
1761.25
1674.25
1568.0
1515.0
1504.125
1517.375
1488.375
1431.125
1360.25
1331.375
1325.125
1315.0
1291.75
1238.125
1171.125
1104.5
1072.75
1080.25
1115.875
1130.25
1098.125
1034.75
982.125
988.25
1043.25
1100.25
1113.75
1091.75
1086.25
1131.75
1219.375
1301.375
1335.0
1321.0
1281.375
1238.875
1209.625
1206.5
1238.5
1285.0
1323.875
1341.125
1351.875
1378.5
1423.5
1456.625
1451.125
1404.75
1345.0
1301.25
1283.5
1280.125
1280.5
1274.0
1262.0
1243.0
1224.0
1209.0
1207.5
1223.375
1200.875
1175.5
1165.875
1176.375
1202.375
1211.375
1214.375
1218.5
1225.5
1223.5
1182.125
1076.125
914.125
745.75
621.75
549.875
487.875
408.875
354.25
410.25
602.25
840.625
994.625
1026.625
1024.625
1092.5
1235.75
1322.125
1267.625
1116.625
985.625
941.625
946.625
922.625
851.625
798.875
829.125
926.75
1010.25
1004.5
916.5
848.625
882.625
1011.25
1123.25
1111.25
978.25
855.125
835.875
902.625
938.125
940.375
997.5
1209.625
1529.5
1799.5
1916.875
1963.0
2079.625
2262.625
2393.875
2320.75
2059.125
1702.875
1334.875
986.375
661.375
360.75
64.75
-260.125
-604.5
-840.875
-820.875
-501.0
-13.25
448.5
785.75
1008.875
1241.75
1497.75
1712.25
1791.75
1651.5
1379.25
1103.0
873.5
702.375
595.75
562.25
643.125
792.5
909.25
929.625
889.75
863.625
870.25
861.25
775.375
659.125
579.75
601.25
635.625
632.625
616.625
641.5
703.5
732.125
695.375
649.375
657.25
698.125
673.75
554.625
410.25
335.0
347.5
362.25
319.25
222.75
157.75
176.75
255.75
306.375
249.0
71.0
-139.125
-275.625
-303.375
-359.5
-620.375
-1146.5
-1793.5
-2309.75
-2498.625
-2354.0
-1958.25
-1408.75
-767.375
-75.125
649.875
1402.125
2144.0
2740.5
2996.625
2816.25
2325.375
1794.0
1418.375
1188.75
980.5
749.875
600.625
622.25
785.875
959.25
1063.625
1110.5
1123.5
1066.875
895.375
637.0
401.25
296.75
318.125
380.125
415.625
401.375
357.625
279.75
180.125
87.75
31.375
45.125
64.5
60.0
26.0
-19.0
-63.875
-129.125
-216.5
-293.5
-326.75
-320.0
-298.0
-285.0
-277.0
-270.875
-264.5
-275.0
-298.125
-310.375
-278.75
-223.0
-192.125
-199.625
-220.875
-211.125
-161.25
-90.25
-25.375
21.125
47.875
57.25
58.875
67.125
103.625
169.25
219.375
208.875
142.25
59.0
-7.25
-30.75
-70.0
-162.25
-269.875
-366.125
-436.375
-435.125
-387.625
-318.625
-279.5
-305.875
-345.375
-365.25
-354.125
-292.375
-210.375
-138.0
-51.875
86.625
292.75
509.75
672.875
742.0
812.75
919.625
1030.25
1024.25
842.875
543.75
272.375
109.25
-10.375
-198.25
-488.75
-786.625
-966.375
-1027.5
-1045.75
-1100.875
-1160.5
-1170.75
-1135.5
-1077.25
-1045.25
-1024.25
-979.25
-934.25
-944.25
-1026.25
-1117.25
-1157.75
-1152.375
-1174.5
-1249.0
-1323.125
-1329.0
-1275.75
-1240.875
-1284.875
-1380.875
-1457.875
-1484.875
-1488.875
-1496.0
-1512.25
-1534.25
-1583.375
-1654.75
-1702.25
-1659.0
-1555.0
-1506.0
-1585.0
-1723.0
-1767.0
-1648.0
-1462.0
-1365.875
-1406.875
-1488.625
-1514.625
-1497.5
-1513.125
-1591.25
-1695.875
-1783.75
-1864.625
-1955.375
-2014.25
-1993.625
-1923.25
-1897.75
-1971.625
-2113.625
-2215.875
-2223.25
-2192.0
-2234.625
-2417.25
-2672.25
-2813.25
-2673.5
-2289.0
-1899.0
-1742.875
-1831.875
-1942.875
-1862.75
-1630.375
-1510.375
-1707.625
-2144.875
-2531.875
-2636.875
-2477.625
-2257.875
-2162.875
-2186.875
-2172.875
-2035.375
-1861.0
-1807.625
-1883.5
-1924.25
-1855.0
-1787.625
-1877.0
-2067.0
-2137.625
-1990.625
-1805.375
-1801.25
-1953.125
-2030.125
-1966.5
-1952.5
-2160.0
-2449.625
-2460.125
-2117.875
-1730.125
-1731.5
-2130.0
-2448.0
-2338.75
-1891.5
-1585.875
-1719.0
-2125.0
-2421.625
-2400.5
-2137.375
-1869.0
-1672.5
-1497.875
-1397.625
-1418.625
-1428.625
-1268.375
-882.375
-476.875
-327.0
-474.625
-651.875
-641.125
-493.75
-474.875
-679.375
-916.25
-995.875
-943.75
-941.75
-1027.125
-1084.875
-955.875
-684.75
-466.625
-389.875
-370.875
-270.25
-82.75
72.0
123.125
145.5
236.875
397.75
502.25
462.375
369.625
393.5
591.0
820.75
935.875
944.375
1016.875
1285.875
1699.0
2080.0
2309.375
2423.375
2558.0
2787.0
3071.5
3294.5
3361.375
3274.5
3130.0
3037.5
3037.625
3060.75
2977.0
2723.25
2367.25
2049.25
1837.25
1677.25
1489.25
1278.25
1118.25
1052.25
1034.25
998.25
954.25
947.25
970.25
951.25
855.25
722.25
601.25
455.25
230.25
-36.75
-221.75
-259.75
-235.75
-301.75
-509.375
-765.375
-967.625
-1109.375
-1240.25
-1430.5
-1720.25
-2087.125
-2456.5
-2656.25
-2672.25
-2635.0
-2724.25
-2953.5
-3164.625
-3222.75
-3236.0
-3387.625
-3705.75
-3962.625
-3989.875
-3887.0
-3889.25
-4060.125
-4205.5
-4133.625
-3915.625
-3828.875
-4001.875
-4310.125
-4522.375
-4531.0
-4437.375
-4393.875
-4440.0
-4500.0
-4462.625
-4300.625
-4071.125
-3862.25
-3747.25
-3743.25
-3806.375
-3850.125
-3834.125
-3752.125
-3649.125
-3590.125
-3617.5
-3697.5
-3748.75
-3692.75
-3554.125
-3436.5
-3431.5
-3512.5
-3568.5
-3530.5
-3444.5
-3398.5
-3402.5
-3382.5
-3300.25
-3227.625
-3256.375
-3377.125
-3460.125
-3410.25
-3262.875
-3157.875
-3179.875
-3264.875
-3298.875
-3247.875
-3165.25
-3101.5
-3046.375
-2965.125
-2878.625
-2844.25
-2889.25
-2945.625
-2926.0
-2821.5
-2717.0
-2737.875
-2927.0
-3185.625
-3332.0
-3242.625
-2978.25
-2728.5
-2657.125
-2724.75
-2725.375
-2500.25
-2135.375
-1854.25
-1800.0
-1917.0
-2012.625
-1993.0
-1933.5
-1930.625
-1970.375
-1953.0
-1827.0
-1686.5
-1653.0
-1729.875
-1748.625
-1571.375
-1267.625
-1060.625
-1094.375
-1273.75
-1363.875
-1246.125
-1027.625
-908.75
-957.0
-1066.0
-1098.0
-1028.125
-913.125
-776.125
-600.625
-410.625
-318.5
-425.875
-675.625
-878.875
-886.0
-734.25
-610.125
-643.0
-754.5
-726.875
-421.5
94.125
564.5
786.5
777.125
708.875
736.625
862.125
947.5
882.375
657.5
370.0
130.25
-39.625
-161.625
-302.875
-503.75
-745.625
-947.25
-1059.375
-1100.125
-1091.5
-1015.0
-854.125
-679.125
-633.0
-779.0
-958.625
-960.125
-786.5
-667.375
-818.875
-1109.75
-1241.0
-1029.5
-683.25
-504.0
-613.5
-827.625
-907.25
-838.375
-779.5
-849.5
-1017.875
-1111.0
-1057.0
-917.75
-841.375
-901.25
-1022.125
-1081.75
-1033.5
-940.75
-944.75
-1075.75
-1228.75
-1252.25
-1106.25
-932.0
-911.25
-1109.75
-1384.875
-1517.875
-1432.875
-1284.875
-1306.25
-1572.75
-1897.75
-2032.5
-1948.875
-1812.375
-1800.5
-1881.0
-1916.625
-1859.25
-1790.125
-1798.125
-1849.5
-1852.5
-1826.5
-1870.125
-2025.125
-2220.125
-2359.125
-2417.125
-2427.125
-2402.5
-2335.5
-2257.5
-2227.5
-2237.5
-2212.5
-2107.5
-1996.5
-1993.5
-2109.5
-2250.375
-2344.375
-2429.375
-2562.5
-2712.75
-2747.5
-2638.5
-2498.375
-2498.625
-2644.625
-2779.0
-2768.0
-2617.5
-2464.5
-2405.5
-2416.5
-2418.5
-2388.5
-2371.5
-2402.5
-2425.5
-2358.875
-2217.625
-2133.75
-2194.125
-2342.625
-2428.875
-2364.75
-2217.5
-2137.125
-2179.5
-2257.5
-2256.5
-2155.25
-2013.125
-1877.5
-1736.625
-1579.125
-1449.125
-1392.25
-1409.0
-1414.0
-1327.75
-1177.25
-1070.25
-1071.125
-1114.125
-1048.125
-837.125
-626.125
-596.375
-743.875
-873.875
-826.875
-682.875
-654.125
-804.75
-960.375
-929.25
-743.25
-590.25
-567.375
-579.375
-503.375
-410.375
-446.375
-633.375
-814.375
-841.375
-761.375
-728.375
-797.375
-867.375
-817.375
-665.375
-526.375
-461.375
-424.375
-347.375
-215.375
-57.375
104.625
260.625
387.625
463.625
501.625
545.625
625.625
708.625
707.625
566.625
298.625
-6.375
-257.375
-441.375
-573.625
-884.25
-1291.75
-1614.875
-1674.125
-1465.375
-1154.125
-1024.0
-1007.5
-878.625
-530.875
-125.875
58.125
-75.875
-326.875
-440.875
-399.875
-418.875
-643.375
-935.375
-1042.25
-892.375
-652.375
-514.25
-478.25
-431.25
-353.25
-352.5
-498.25
-682.375
-764.375
-730.375
-704.625
-753.5
-792.25
-711.375
-543.125
-424.0
-420.0
-453.0
-440.375
-410.75
-451.25
-585.25
-746.375
-861.75
-922.875
-932.0
-875.125
-787.625
-719.5
-767.875
-891.625
-975.0
-961.0
-940.5
-1060.75
-1285.875
-1435.625
-1402.625
-1306.875
-1310.75
-1432.0
-1515.125
-1446.125
-1295.125
-1240.875
-1350.25
-1513.375
-1514.75
-1370.75
-1229.125
-1217.375
-1293.375
-1350.0
-1315.25
-1248.5
-1234.375
-1303.875
-1349.125
-1318.75
-1189.875
-1185.5
-1257.25
-1317.25
-1254.625
-1101.0
-1000.125
-1023.375
-1111.125
-1161.0
-1143.375
-1122.125
-1150.125
-1165.25
-1096.125
-975.375
-929.0
-1008.625
-1094.625
-1025.5
-791.5
-581.5
-551.625
-614.75
-616.5
-486.125
-320.375
-262.25
-290.75
-330.0
-297.125
-281.75
-323.5
-386.875
-392.0
-317.875
-257.125
-270.75
-337.0
-363.625
-315.625
-255.0
-258.0
-324.75
-378.25
-357.25
-284.375
-242.375
-269.625
-319.125
-319.0
-264.375
-200.0
-173.875
-141.75
-64.5
52.375
137.875
128.125
72.75
57.875
120.125
185.125
190.0
127.625
82.25
95.75
149.75
212.0
267.125
348.125
404.375
417.5
389.625
381.5
422.75
491.25
511.625
482.75
473.75
570.875
783.875
1057.0
1287.375
1411.375
1417.375
1358.375
1333.875
1420.875
1603.875
1768.875
1786.875
1625.875
1372.875
1157.875
1042.875
981.875
868.875
625.125
273.125
-68.25
-262.75
-267.75
-175.75
-127.0
-178.0
-256.875
-264.0
-176.0
-76.0
-34.0
-27.0
7.0
90.25
140.25
120.75
38.625
-16.625
31.375
94.0
91.0
8.0
-105.625
-213.0
-286.25
-332.5
-345.75
-341.375
-357.0
-398.625
-374.125
-369.875
-335.375
-350.375
-392.375
-394.25
-299.625
-145.25
-20.5
64.125
158.375
316.25
472.5
543.0
514.125
437.0
393.75
350.25
225.25
-10.75
-262.375
-384.375
-347.375
-253.375
-235.375
-316.75
-409.25
-415.375
-328.125
-224.0
-181.125
-198.125
-239.0
-230.375
-153.75
-23.0
123.875
282.875
427.375
567.25
687.0
800.125
895.25
970.625
1034.375
1126.0
1235.125
1344.75
1425.75
1482.25
1581.25
1735.125
1879.5
1917.5
1832.625
1729.625
1748.0
1899.0
2061.375
2105.375
2021.75
1920.75
1909.0
1997.0
2138.0
2238.25
2257.375
2208.125
2125.875
2119.75
2247.375
2455.0
2595.0
2610.75
2531.5
2501.5
2571.375
2639.125
2629.25
2519.0
2406.0
2341.375
2305.5
2259.875
2215.25
2221.25
2277.875
2348.25
2401.875
2447.125
2492.625
2527.125
2533.75
2522.625
2523.875
2550.375
2553.875
2542.25
2518.875
2548.25
2615.75
2690.75
2711.625
2697.125
2613.125
2711.125
2735.5
2739.375
2706.375
2639.0
2546.75
2430.625
2312.375
2208.25
2129.25
2077.125
2057.5
2077.5
2123.5
2176.5
2235.875
2315.375
2401.625
2447.75
2387.875
2257.75
2184.25
2247.5
2456.875
2685.625
2851.125
2960.625
3031.625
3171.375
3377.0
3607.625
3784.125
3795.125
3655.125
3434.625
3277.625
3182.25
3045.375
2782.25
2437.625
2146.75
1966.25
1867.25
1724.0
1571.75
1467.5
1480.625
1592.875
1688.375
1728.375
1745.375
1805.375
1889.875
1947.625
1936.625
1853.5
1743.875
1635.5
1559.25
1512.75
1487.375
1476.0
1492.0
1518.0
1549.0
1579.0
1607.0
1638.0
1683.0
1743.0
1809.0
1866.0
1893.0
1871.25
1815.25
1771.5
1792.0
1883.875
1991.75
2044.375
2031.375
1998.875
2008.75
2063.75
2108.375
2094.0
2021.625
1919.5
1814.125
1728.25
1683.5
1647.625
1588.625
1472.625
1344.75
1285.125
1321.625
1381.0
1367.0
1281.0
1227.75
1291.125
1416.625
1477.75
1402.5
1262.375
1187.875
1219.125
1277.0
1269.875
1202.625
1150.125
1190.25
1278.75
1364.0
1405.125
1426.5
1460.5
1525.375
1596.75
1658.75
1706.0
1738.875
1763.375
1796.75
1839.875
1878.625
1876.5
1820.75
1737.25
1680.0
1693.0
1745.375
1777.5
1757.875
1735.5
1750.5
1816.875
1890.0
1919.5
1902.375
1863.625
1829.625
1797.0
1757.125
1712.75
1672.75
1655.125
1663.375
1667.125
1635.375
1567.75
1509.0
1500.375
1545.5
1581.5
1555.0
1480.375
1426.75
1466.625
1556.75
1620.0
1610.75
1547.375
1523.0
1561.375
1643.125
1707.625
1726.875
1722.25
1703.875
1655.125
1643.375
1655.75
1682.375
1681.75
1660.375
1617.25
1602.875
1624.25
1647.625
1636.875
1572.25
1506.5
1477.25
1462.875
1403.875
1298.25
1191.375
1125.5
1089.625
1051.125
1004.375
949.375
921.75
888.625
830.75
791.25
825.0
959.125
1149.75
1357.0
1555.75
1763.0
1949.5
2088.375
2152.0
2185.75
2226.625
2241.25
2155.125
1940.75
1650.375
1423.875
1293.5
1195.875
1032.75
771.5
486.875
285.125
193.625
144.625
44.75
-135.75
-339.125
-521.125
-679.5
-898.75
-1192.75
-1494.75
-1690.625
-1703.625
-1571.875
-1368.875
-1138.0
-876.375
-567.5
-203.625
185.375
560.5
873.75
1049.375
1086.75
1074.125
1093.875
1165.5
1247.0
1302.375
1333.625
1367.25
1401.875
1391.625
1329.75
1230.875
1152.625
1113.0
1077.375
1043.25
982.625
933.625
905.75
902.75
893.875
881.125
886.625
865.75
823.25
773.375
770.0
820.125
907.375
987.625
1033.625
1051.75
1053.125
1031.875
991.0
972.625
1009.375
1103.25
1159.875
1112.125
1018.625
1006.625
1114.625
1230.25
1230.25
1124.375
1058.5
1120.0
1233.5
1273.5
1216.5
1167.5
1206.875
1295.625
1343.875
1346.875
1386.875
1504.875
1633.875
1678.875
1638.875
1606.875
1654.875
1736.875
1741.875
1611.125
1418.25
1288.125
1293.5
1362.25
1390.5
1352.5
1330.5
1432.5
1658.125
1908.5
2084.375
2191.125
2287.75
2397.25
2465.375
2426.375
2293.0
2132.125
1989.5
1849.625
1688.0
1527.125
1429.125
1411.625
1438.625
1455.25
1452.0
1463.5
1494.625
1511.125
1481.125
1419.125
1370.0
1337.0
1289.75
1222.75
1179.125
1192.5
1249.375
1294.375
1291.875
1272.625
1267.5
1296.125
1290.0
1232.375
1149.375
1079.75
1026.875
956.625
866.375
782.875
757.625
783.375
826.375
848.0
843.375
852.125
888.125
922.0
921.625
857.625
739.125
614.5
520.5
480.375
494.625
558.5
664.875
813.75
991.375
1203.625
1390.375
1513.125
1573.625
1626.0
1690.625
1768.25
1783.125
1712.25
1594.0
1478.25
1351.625
1143.75
824.875
458.25
124.25
-136.625
-347.875
-509.0
-589.875
-551.25
-412.625
-252.0
-139.75
-91.125
-77.625
-65.375
-82.625
-134.5
-246.125
-399.375
-548.375
-640.5
-688.125
-691.625
-672.25
-638.25
-612.125
-625.125
-667.5
-712.875
-717.875
-724.125
-747.75
-836.625
-924.5
-951.5
-919.0
-918.375
-989.625
-1080.0
-1117.75
-1100.125
-1093.5
-1131.875
-1173.875
-1171.375
-1158.375
-1214.75
-1355.875
-1506.5
-1545.625
-1511.0
-1481.625
-1537.375
-1625.875
-1650.875
-1572.125
-1456.5
-1395.375
-1419.625
-1494.5
-1565.625
-1591.375
-1594.75
-1580.125
-1586.375
-1636.875
-1715.5
-1788.125
-1839.375
-1870.5
-1880.625
-1898.25
-1913.75
-1932.25
-1925.625
-1897.0
-1834.625
-1694.25
-1666.5
-1598.5
-1555.25
-1552.625
-1619.0
-1737.0
-1827.625
-1828.25
-1784.75
-1813.25
-1938.625
-2029.625
-1917.25
-1625.0
-1353.75
-1277.0
-1370.0
-1456.375
-1434.75
-1362.625
-1336.25
-1359.375
-1355.375
-1276.625
-1160.25
-1050.0
-957.25
-865.25
-781.25
-752.375
-798.625
-907.375
-1012.0
-1052.375
-1023.375
-942.5
-841.375
-756.25
-658.625
-509.5
-296.5
-82.375
49.5
65.75
44.5
75.25
147.5
193.25
209.5
266.5
439.25
639.875
686.0
523.125
324.125
294.125
462.625
613.75
576.875
426.875
408.125
615.25
860.375
886.0
646.625
320.375
123.75
117.375
204.375
251.625
198.875
84.125
1.125
35.375
177.375
285.75
218.875
-12.0
-233.25
-297.0
-236.75
-232.0
-364.125
-500.125
-449.75
-229.625
-10.5
90.375
174.875
424.875
844.75
1235.5
1444.125
1544.375
1712.625
1982.875
2180.75
2141.5
1889.625
1583.625
1309.0
1040.0
736.0
442.0
259.0
232.0
335.0
514.0
715.0
890.0
1021.0
1155.0
1366.0
1649.0
1897.0
1998.0
1977.5
1973.625
2065.375
2169.375
2172.875
2100.125
2079.5
2181.875
2345.375
2447.25
2478.25
2535.25
2672.875
2819.0
2832.25
2680.625
2501.75
2427.375
2466.5
2503.375
2438.625
2305.375
2177.875
2097.25
2013.0
1861.125
1669.875
1476.375
1300.125
1101.5
847.5
597.625
448.375
429.125
443.5
335.625
72.625
-260.75
-512.0
-621.375
-686.75
-833.75
-1079.875
-1317.25
-1442.125
-1471.625
-1507.5
-1644.375
-1840.875
-2042.125
-2197.125
-2326.875
-2474.75
-2638.5
-2768.5
-2807.25
-2764.0
-2703.625
-2701.25
-2790.75
-2936.75
-3055.625
-3100.5
-3116.375
-3196.375
-3369.375
-3554.0
-3615.0
-3514.0
-3366.875
-3327.875
-3416.25
-3495.125
-3438.875
-3284.875
-3175.875
-3177.625
-3202.625
-3126.625
-2950.625
-2781.125
-2688.125
-2662.875
-2665.75
-2688.625
-2708.625
-2661.5
-2540.5
-2433.5
-2463.625
-2608.625
-2676.25
-2534.0
-2252.375
-2009.75
-2057.5
-2149.125
-2116.875
-2005.375
-1976.25
-2057.375
-2104.5
-2018.25
-1892.625
-1895.625
-2072.875
-2221.625
-2179.625
-1982.75
-1800.375
-1747.375
-1723.0
-1642.0
-1478.0
-1319.5
-1216.75
-1155.75
-1076.0
-1041.875
-1069.0
-1130.5
-1140.25
-1083.0
-1005.625
-977.5
-1027.375
-1098.125
-1096.875
-1002.875
-877.5
-816.375
-840.125
-905.5
-925.25
-822.625
-653.0
-523.125
-533.375
-649.875
-707.25
-590.25
-345.125
-152.0
-139.25
-236.75
-245.25
-33.125
350.25
695.375
862.75
873.875
888.125
1073.0
1435.5
1813.0
1997.125
1932.875
1756.625
1621.0
1559.625
1450.0
1206.75
843.5
478.625
209.0
82.875
109.875
247.625
405.375
487.125
497.125
579.25
855.75
1227.125
1406.375
1241.5
923.875
800.0
991.375
1227.375
1185.0
868.375
624.5
701.625
970.625
1089.625
974.125
866.625
1039.25
1399.0
1600.5
1501.25
1273.5
1289.5
1604.0
1919.125
1893.0
1528.5
1192.75
1244.25
1704.0
2185.875
2306.5
2008.75
1616.125
1444.0
1473.375
1396.25
1050.5
633.25
464.375
603.875
784.125
786.5
719.125
831.5
1157.625
1404.75
1296.0
886.0
500.375
362.625
366.75
279.5
60.625
-83.375
33.75
336.0
536.625
476.75
264.75
152.125
184.875
180.0
-39.5
-384.625
-582.0
-514.625
-336.375
-267.875
-328.5
-336.25
-219.125
-158.5
-333.125
-656.375
-828.5
-681.5
-406.25
-304.125
-471.75
-698.75
-749.75
-615.75
-499.75
-572.75
-816.75
-1087.875
-1258.0
-1293.875
-1228.25
-1126.25
-1038.25
-998.375
-965.5
-912.875
-834.625
-799.875
-869.75
-1064.125
-1320.0
-1540.125
-1663.125
-1700.875
-1702.875
-1711.0
-1727.25
-1717.625
-1674.25
-1614.0
-1548.5
-1484.625
-1464.625
-1532.0
-1643.125
-1663.625
-1533.875
-1263.25
-1088.375
-1186.375
-1464.625
-1615.625
-1470.0
-1214.75
-1175.625
-1427.625
-1701.625
-1712.25
-1500.25
-1348.875
-1431.875
-1585.5
-1550.5
-1276.0
-997.0
-931.0
-1039.0
-1107.875
-1011.125
-830.125
-735.75
-801.75
-925.75
-967.75
-866.75
-677.75
-513.75
-451.75
-474.75
-487.75
-389.75
-169.75
79.25
251.25
303.25
295.25
334.25
494.25
773.25
1088.25
1319.25
1381.25
1303.25
1205.25
1150.25
1037.25
712.25
160.375
-428.75
-858.0
-1123.125
-1367.125
-1633.5
-1764.25
-1610.875
-1259.75
-971.875
-904.75
-937.5
-880.375
-708.375
-607.875
-727.625
-1018.625
-1293.25
-1434.75
-1480.5
-1520.875
-1568.0
-1550.375
-1433.5
-1264.625
-1138.0
-1104.25
-1125.25
-1126.5
-1078.375
-1026.0
-1024.125
-1082.5
-1143.0
-1139.75
-1051.375
-943.125
-915.25
-973.375
-1020.5
-935.375
-715.5
-522.375
-528.75
-668.75
-686.75
-447.375
-135.25
-64.125
-292.875
-540.5
-532.75
-366.5
-388.5
-754.125
-1207.25
-1365.375
-1154.125
-865.25
-791.625
-910.125
-946.5
-714.0
-320.75
-9.625
51.625
-61.25
-135.375
-77.75
12.5
-30.375
-205.0
-335.25
-250.0
-6.625
170.125
150.125
49.75
75.0
279.5
494.25
520.75
340.375
120.625
28.125
93.875
232.0
335.375
359.125
320.625
281.375
288.75
334.125
344.25
255.0
87.875
-39.5
-39.125
45.75
68.5
-46.5
-199.375
-199.875
2.375
239.5
314.125
215.75
119.5
173.25
323.625
408.875
350.0
240.0
199.875
243.625
283.125
248.375
170.0
121.875
144.75
220.0
303.75
339.375
328.625
331.125
412.875
557.25
657.375
624.25
484.5
360.875
314.625
309.75
263.625
169.625
121.0
178.125
311.125
423.5
442.75
387.125
336.5
342.375
397.625
416.25
301.0
55.625
-194.625
-291.75
-204.625
-41.5
52.25
54.875
51.625
118.25
232.625
318.375
342.125
340.25
353.375
373.75
407.5
503.5
731.25
1053.75
1335.25
1453.125
1437.125
1454.125
1618.5
1857.375
1969.5
1834.75
1553.75
1358.25
1362.75
1452.5
1406.0
1145.5
805.375
580.375
536.625
611.625
681.75
694.75
652.75
596.75
566.75
598.5
690.375
759.625
718.5
567.875
425.5
402.25
483.875
551.375
528.25
469.25
469.75
534.75
563.625
482.5
330.375
212.0
195.875
265.75
356.25
427.75
483.125
528.125
577.875
624.875
644.0
601.0
462.25
265.25
93.25
-0.75
-39.75
-102.375
-183.375
-196.375
-46.5
261.5
590.5
797.5
847.375
838.375
845.375
842.375
733.375
467.0
107.625
-195.375
-310.875
-200.375
84.0
411.5
671.25
819.5
888.375
917.5
927.75
865.375
694.0
418.5
107.0
-134.875
-216.75
-118.625
127.875
414.75
653.875
813.375
902.875
978.875
1069.375
1182.0
1288.25
1356.125
1376.875
1403.5
1505.125
1720.0
1972.5
2135.5
2160.625
2130.625
2160.75
2231.0
2239.5
2140.125
2034.375
2080.0
2281.5
2452.125
2427.25
2267.5
2195.625
2351.875
2651.75
2904.625
3025.625
3105.625
3251.625
3435.625
3542.625
3496.625
3338.625
3151.625
2962.625
2747.625
2491.625
2236.625
2043.625
1937.625
1888.625
1860.625
1837.625
1825.625
1829.625
1847.625
1885.625
1956.625
2064.625
2183.625
2280.625
2351.625
2422.625
2512.625
2603.625
2659.625
2671.625
2658.625
2617.625
2516.625
2352.625
2202.625
2181.625
2325.625
2555.625
2747.625
2875.625
3011.375
3226.625
3492.75
3678.375
3683.375
3509.375
3245.375
2992.625
2793.25
2629.125
2466.25
2294.125
2120.75
1971.125
1895.125
1917.125
2057.125
2256.125
2413.875
2447.625
2410.625
2423.125
2555.125
2768.875
2932.5
2965.5
2875.5
2715.125
2535.75
2361.75
2214.25
2075.25
1906.375
1705.875
1533.25
1476.25
1551.625
1674.0
1751.375
1773.625
1781.625
1792.875
1778.875
1724.875
1670.875
1650.875
1649.75
1617.75
1561.0
1526.25
1543.25
1588.5
1599.5
1584.875
1583.375
1593.875
1572.875
1498.5
1403.5
1348.75
1324.5
1274.875
1166.25
1055.25
1019.25
1067.25
1123.25
1117.25
1062.25
1027.25
1064.25
1161.25
1260.25
1296.5
1240.25
1106.5
961.25
878.75
882.75
883.375
776.875
561.375
371.125
324.625
417.875
529.25
555.375
504.375
458.5
477.375
540.875
589.125
593.375
543.875
449.25
363.75
310.5
312.875
351.875
383.375
431.25
553.5
691.25
755.75
697.375
586.0
565.25
689.0
835.375
856.625
752.0
671.5
756.0
944.25
1117.75
1198.0
1218.375
1220.75
1201.375
1148.875
1103.125
1117.125
1180.375
1200.375
1117.25
979.625
902.625
942.625
1043.75
1111.375
1095.375
1032.375
986.875
993.0
1034.0
1063.375
1054.375
1018.375
990.625
972.625
933.5
837.0
704.0
605.25
577.75
575.0
559.875
513.5
462.0
440.0
438.625
432.25
419.75
425.25
458.25
491.0
500.375
498.875
516.875
558.625
588.625
598.25
553.625
528.75
501.5
463.5
425.75
417.375
447.375
490.875
513.875
513.25
510.5
537.875
571.5
581.0
542.625
463.625
359.625
250.875
147.125
99.5
96.5
98.25
80.625
53.625
39.5
46.75
71.0
82.625
92.25
153.875
289.125
466.25
637.25
708.25
679.875
627.375
624.875
674.5
705.375
641.875
440.875
204.375
24.125
-78.375
-162.0
-306.125
-512.375
-750.375
-966.625
-1118.125
-1187.25
-1203.5
-1218.25
-1268.0
-1326.0
-1358.25
-1294.0
-1161.375
-1000.375
-913.75
-962.875
-1133.0
-1305.375
-1362.625
-1302.625
-1229.5
-1280.0
-1470.5
-1668.75
-1763.875
-1747.25
-1719.625
-1734.75
-1763.375
-1783.0
-1771.375
-1776.0
-1783.75
-1729.25
-1641.625
-1632.375
-1810.25
-2081.0
-2301.25
-2362.0
-2248.375
-2140.625
-2181.75
-2377.125
-2617.875
-2770.75
-2784.5
-2716.5
-2641.375
-2588.5
-2511.875
-2356.875
-2110.75
-1791.75
-1437.75
-1084.75
-787.625
-598.5
-529.25
-533.125
-551.875
-575.875
-625.375
-698.625
-755.625
-761.125
-743.75
-752.25
-790.125
-790.0
-720.375
-640.125
-638.5
-721.0
-760.0
-652.0
-434.5
-266.375
-217.875
-231.125
-197.5
-108.0
-44.75
-63.375
-126.0
-152.25
-109.75
-22.5
69.5
142.25
180.625
165.875
120.125
93.75
126.25
201.125
289.25
387.0
479.75
524.75
481.25
387.875
342.5
388.625
436.0
361.75
173.375
34.5
87.25
278.0
412.5
368.5
236.25
183.75
270.625
379.25
355.75
207.625
72.375
64.0
187.25
364.5
513.375
584.25
628.75
678.875
770.0
889.5
966.375
949.875
827.5
682.375
572.5
529.625
527.875
494.125
476.25
454.875
434.0
403.875
377.0
370.625
357.0
348.625
304.625
244.5
120.5
-17.0
-159.125
-290.25
-359.75
-348.5
-303.875
-260.25
-269.875
-310.25
-334.625
-286.0
-155.625
5.25
125.75
197.25
253.5
351.375
476.875
578.75
605.0
577.75
581.75
654.125
745.25
745.25
591.0
360.0
174.0
71.25
-55.0
-314.875
-701.75
-1036.75
-1178.625
-1143.375
-1073.0
-1099.25
-1157.125
-1142.625
-1003.75
-816.75
-721.5
-743.25
-827.5
-888.75
-894.75
-909.875
-973.125
-1054.75
-1090.625
-1054.625
-1006.375
-1021.25
-1112.75
-1230.5
-1318.875
-1340.625
-1271.125
-1267.625
-1238.75
-1129.125
-998.375
-899.0
-844.25
-823.625
-829.625
-861.75
-936.625
-1028.625
-1112.5
-1141.75
-1118.75
-1083.5
-1079.25
-1122.75
-1181.5
-1219.5
-1240.0
-1254.625
-1306.625
-1401.875
-1516.875
-1606.75
-1657.0
-1670.375
-1658.125
-1622.625
-1566.625
-1524.625
-1529.625
-1565.625
-1576.625
-1525.625
-1454.625
-1446.625
-1541.375
-1680.375
-1759.25
-1731.25
-1638.25
-1572.25
-1585.25
-1646.125
-1684.125
-1637.125
-1506.375
-1348.375
-1227.375
-1179.0
-1185.0
-1198.0
-1164.0
-1078.875
-978.5
-926.25
-962.25
-1081.375
-1243.375
-1388.375
-1468.375
-1468.375
-1416.375
-1367.375
-1350.375
-1319.375
-1173.375
-864.375
-507.875
-330.75
-444.25
-691.0
-794.75
-650.0
-457.125
-495.375
-774.375
-1052.75
-1174.375
-1278.5
-1566.25
-1924.125
-2020.25
-1737.875
-1398.75
-1375.25
-1610.625
-1705.875
-1445.125
-1123.875
-1152.5
-1561.125
-1996.125
-2188.125
-2243.875
-2362.875
-2491.5
-2428.5
-2145.5
-1881.5
-1817.5
-1807.5
-1588.5
-1197.5
-976.5
-1194.5
-1720.5
-2147.5
-2234.5
-2090.5
-1993.5
-2034.5
-2020.5
-1758.5
-1322.5
-1012.5
-1021.5
-1220.5
-1334.5
-1262.5
-1193.5
-1313.5
-1550.5
-1652.5
-1511.5
-1312.5
-1260.5
-1348.5
-1397.5
-1292.5
-1118.5
-975.5
-828.5
-595.5
-326.5
-202.5
-318.375
-483.5
-409.25
34.0
590.25
862.0
665.625
209.625
-107.375
-78.375
120.625
135.625
-170.375
-614.375
-897.375
-900.375
-727.375
-520.375
-315.375
-74.375
202.625
462.625
666.625
826.25
974.25
1094.0
1145.0
1074.875
866.625
584.25
341.0
253.75
333.5
460.25
510.375
512.125
595.125
836.125
1169.125
1455.125
1624.125
1728.25
1836.25
1936.25
1974.25
1931.25
1843.25
1750.25
1663.25
1558.25
1425.25
1301.25
1256.25
1331.25
1477.25
1581.25
1564.25
1485.25
1494.0
1651.125
1873.125
1999.5
1963.75
1839.75
1729.75
1656.75
1571.75
1469.75
1391.75
1341.75
1256.75
1066.75
824.75
677.75
720.75
876.75
969.75
885.75
676.75
494.75
461.75
548.75
618.75
578.75
481.75
459.75
561.75
698.5
711.75
574.125
455.125
463.125
540.0
516.0
347.375
200.125
256.125
458.0
594.0
505.5
298.5
185.5
331.625
573.625
707.25
666.75
523.5
412.375
404.5
458.0
511.5
477.625
328.625
118.375
-40.0
-41.75
80.75
161.375
61.375
-181.5
-412.0
-525.75
-549.375
-618.125
-753.125
-886.625
-951.375
-930.0
-854.75
-764.875
-675.5
-591.625
-536.125
-482.5
-377.875
-232.5
-101.75
-21.75
63.0
226.625
402.0
489.125
466.125
417.125
418.125
438.125
382.125
248.75
141.75
118.0
104.625
0.5
-136.375
-161.375
-30.625
58.75
-112.0
-469.25
-711.875
-597.75
-264.125
-52.125
-105.0
-241.125
-200.75
61.125
322.875
411.125
365.5
318.875
374.25
498.0
689.875
961.875
1281.875
1544.625
1704.0
1817.0
1959.125
2087.125
2107.875
1949.875
1667.5
1347.5
1056.125
775.25
516.25
266.5
15.5
-203.125
-307.0
-245.0
-123.875
-86.5
-180.125
-269.25
-214.75
-29.125
111.5
87.125
-9.125
-18.0
26.75
140.25
217.5
199.875
77.75
-75.375
-160.125
-86.125
118.875
315.375
384.875
362.875
366.875
449.625
524.0
484.0
349.125
245.625
233.5
237.5
144.875
-31.75
-148.125
-67.75
189.125
446.25
542.0
465.0
345.75
315.375
364.875
417.5
386.875
281.875
165.125
76.125
27.75
25.875
88.625
206.625
303.0
281.625
162.625
36.875
-8.25
-3.375
-43.875
-155.375
-246.75
-214.75
-59.375
52.375
62.75
50.5
67.875
152.125
168.125
114.125
56.125
74.75
167.875
248.875
273.5
276.25
298.75
351.0
445.25
525.5
515.625
407.375
279.5
270.25
384.25
458.5
369.5
203.75
161.375
324.5
525.75
548.25
380.75
205.0
165.375
174.5
83.5
-73.875
-213.375
-228.75
-154.125
-98.625
-79.125
-62.875
-29.125
6.625
14.5
1.375
-42.75
-141.625
-294.875
-436.625
-517.625
-533.25
-560.25
-603.625
-611.625
-516.625
-335.0
-169.0
-107.875
-185.875
-317.375
-384.0
-339.125
-233.5
-187.0
-250.375
-340.625
-328.875
-170.75
-3.375
18.125
-132.875
-295.875
-327.5
-225.0
-128.25
-156.25
-274.75
-388.375
-426.625
-413.0
-402.375
-402.625
-414.875
-420.5
-419.125
-397.75
-333.5
-228.5
-124.25
-76.0
-68.25
-9.125
180.0
480.75
795.625
1011.625
1112.125
1166.875
1265.75
1427.0
1593.625
1668.0
1598.0
1383.875
1115.125
891.875
750.5
630.5
442.125
171.625
-90.625
-240.625
-281.875
-273.0
-315.75
-357.75
-320.125
-185.25
-67.5
-49.875
-53.25
14.375
157.375
262.875
181.625
-54.375
-284.375
-411.25
-424.875
-469.375
-598.375
-745.5
-848.375
-875.875
-838.625
-788.875
-749.25
-751.25
-794.625
-845.625
-869.375
-870.75
-878.375
-945.75
-1043.0
-1121.75
-1171.875
-1212.75
-1247.5
-1241.25
-1201.25
-1171.5
-1205.375
-1273.125
-1300.625
-1222.375
-1115.875
-1085.5
-1160.5
-1259.375
-1274.25
-1214.25
-1201.125
-1319.375
-1524.625
-1688.625
-1737.75
-1722.75
-1749.75
-1834.875
-1922.25
-1947.625
-1926.25
-1916.625
-1959.125
-2002.25
-1974.25
-1875.5
-1795.875
-1826.5
-1915.5
-1927.0
-1772.375
-1532.375
-1377.25
-1410.25
-1540.375
-1588.375
-1480.125
-1325.875
-1243.375
-1249.25
-1285.0
-1309.875
-1320.375
-1340.0
-1328.625
-1276.0
-1235.25
-1259.5
-1342.375
-1384.75
-1318.5
-1199.375
-1131.875
-1137.625
-1137.5
-1070.875
-979.5
-935.625
-945.625
-954.5
-937.375
-931.0
-960.5
-971.125
-914.125
-843.0
-870.0
-1022.75
-1182.75
-1218.875
-1143.0
-1105.25
-1185.25
-1310.25
-1339.25
-1239.25
-1096.25
-1005.25
-964.25
-905.25
-799.25
-688.25
-625.25
-605.25
-576.25
-525.125
-477.875
-474.875
-525.875
-598.875
-657.125
-686.75
-700.75
-723.75
-760.625
-794.125
-804.125
-800.5
-775.125
-755.5
-744.5
-708.25
-638.5
-591.0
-632.375
-749.0
-848.875
-869.25
-809.875
-722.125
-693.5
-716.625
-746.875
-732.625
-695.25
-681.125
-697.625
-701.75
-635.25
-494.0
-361.625
-306.875
-302.125
-260.625
-77.5
232.25
530.625
650.625
569.5
393.75
268.5
220.875
170.25
15.375
-319.75
-790.25
-1252.25
-1560.75
-1644.75
-1598.25
-1557.25
-1619.0
-1725.0
-1763.875
-1655.875
-1467.625
-1323.875
-1303.875
-1371.125
-1470.5
-1540.5
-1598.5
-1672.375
-1743.75
-1777.625
-1745.875
-1698.625
-1697.875
-1761.375
-1844.375
-1890.875
-1896.625
-1892.25
-1905.25
-1920.25
-1917.375
-1890.375
-1857.25
-1830.875
-1799.625
-1773.875
-1763.375
-1776.25
-1794.125
-1798.125
-1792.75
-1796.25
-1786.25
-1771.625
-1743.625
-1746.375
-1774.25
-1785.375
-1759.75
-1711.25
-1710.5
-1776.5
-1869.875
-1922.125
-1891.875
-1848.5
-1857.5
-1923.5
-1990.5
-2015.375
-2008.25
-1995.625
-2001.625
-2020.625
-2049.625
-2081.625
-2099.625
-2087.625
-2052.625
-2022.625
-2019.625
-2023.625
-2001.625
-1945.25
-1884.625
-1852.875
-1836.25
-1803.125
-1744.75
-1675.625
-1616.375
-1579.25
-1548.0
-1523.125
-1500.5
-1472.125
-1412.75
-1326.0
-1258.75
-1209.75
-1188.0
-1161.25
-1105.875
-1042.0
-991.375
-954.375
-906.625
-839.5
-769.75
-716.0
-669.875
-609.375
-524.25
-430.0
-405.25
-431.125
-459.75
-459.25
-431.375
-421.375
-439.625
-468.25
-440.5
-342.375
-220.75
-97.375
32.125
184.375
342.75
482.125
566.0
620.75
715.0
824.0
870.25
825.5
725.375
649.5
638.5
660.5
667.5
650.25
655.25
731.25
858.25
970.25
1001.25
949.25
881.25
856.25
857.25
806.25
654.25
456.25
327.25
336.25
434.25
518.25
540.25
532.25
566.25
670.25
803.25
900.0
918.375
870.125
800.0
781.875
870.875
1072.125
1347.875
1624.875
1833.125
1942.5
2005.25
2109.5
2300.5
2525.375
2639.625
2560.0
2306.75
1990.0
1751.25
1604.25
1471.875
1258.625
942.25
611.875
393.5
354.25
447.75
534.625
505.75
380.75
254.25
196.875
187.375
152.875
54.875
-83.75
-208.75
-287.875
-314.5
-282.5
-209.5
-123.875
-48.875
20.625
106.125
212.625
308.5
350.125
335.625
317.125
359.125
477.125
623.125
725.125
752.125
728.125
703.125
712.125
749.125
791.125
819.125
824.125
803.125
756.125
705.125
685.125
705.125
736.125
745.625
743.125
781.5
895.0
1035.0
1120.0
1110.875
1049.0
1001.125
986.25
947.5
845.5
703.625
594.0
577.75
655.125
775.0
873.125
917.875
944.375
997.5
1073.875
1137.5
1142.0
1081.375
1007.875
976.375
1000.75
1054.75
1126.875
1217.375
1338.25
1465.875
1565.375
1629.625
1688.25
1759.875
1818.875
1828.75
1789.125
1748.125
1739.125
1742.5
1717.0
1670.75
1636.875
1645.125
1664.25
1656.875
1599.25
1511.375
1441.375
1419.125
1413.125
1372.125
1250.0
1053.0
868.875
780.875
820.875
907.25
930.25
867.0
798.375
809.375
905.125
998.125
1025.25
1001.625
1000.625
1031.0
1079.75
1117.625
1138.625
1184.625
1274.125
1385.25
1475.25
1516.0
1525.625
1547.5
1606.125
1684.25
1738.25
1758.25
1782.25
1839.25
1908.25
1938.25
1917.25
1893.25
1901.25
1910.25
1846.25
1691.375
1517.625
1418.125
1423.75
1467.75
1475.25
1455.5
1428.75
1471.75
1597.75
1746.375
1845.25
1869.25
1845.875
1828.75
1838.625
1862.625
1874.25
1888.0
1955.125
2103.625
2316.875
2515.875
2648.75
2724.625
2799.0
2906.625
3010.25
3046.875
2988.5
2865.75
2706.375
2539.75
2322.125
2022.0
1683.625
1345.875
1049.25
769.125
506.625
316.375
246.125
301.5
410.5
468.875
487.875
514.125
601.75
701.5
723.875
628.375
466.625
330.875
263.75
227.625
167.5
84.75
34.375
43.25
73.25
58.75
-29.875
-148.5
-243.375
-282.5
-273.875
-255.625
-254.625
-276.0
-303.75
-303.625
-273.75
-254.0
-300.125
-422.625
-573.0
-695.625
-777.75
-858.25
-969.25
-1093.25
-1186.25
-1224.25
-1216.25
-1179.25
-1120.25
-1045.25
-976.25
-940.25
-944.25
-966.25
-979.25
-983.25
-993.25
-1026.25
-1078.75
-1118.125
-1114.125
-1074.625
-1031.875
-1029.875
-1089.625
-1164.5
-1228.0
-1280.125
-1354.375
-1462.75
-1568.0
-1609.75
-1566.5
-1481.375
-1412.0
-1351.875
-1237.625
-1004.125
-657.0
-271.75
63.375
312.5
506.25
706.5
920.125
1104.25
1185.375
1129.75
981.875
833.625
753.125
714.25
677.5
614.25
542.375
497.625
482.75
486.375
525.125
606.125
715.625
805.5
833.5
822.875
843.625
921.625
1010.125
1040.5
987.375
930.25
902.0
897.25
873.0
823.125
811.0
872.375
985.625
1079.0
1113.125
1097.5
1107.0
1116.25
1142.25
1150.25
1158.875
1177.875
1197.25
1214.625
1249.375
1321.0
1450.5
1569.875
1631.375
1642.5
1645.5
1672.0
1715.25
1742.875
1743.375
1728.0
1725.875
1742.0
1786.125
1839.75
1890.25
1938.375
1998.375
2096.375
2210.75
2293.25
2301.625
2243.25
2191.625
2213.5
2299.0
2398.0
2472.125
2536.875
2660.875
2882.25
3146.0
3339.0
3390.125
3361.625
3382.75
3504.875
3623.0
3576.5
3336.5
3025.25
2820.75
2720.25
2606.0
2365.375
2021.875
1700.375
1495.75
1410.0
1391.375
1392.875
1401.125
1409.25
1418.125
1436.875
1483.25
1547.375
1603.875
1616.5
1579.0
1492.125
1374.75
1250.125
1153.0
1113.875
1120.375
1127.0
1086.625
993.875
889.0
824.25
809.875
820.0
821.5
801.0
770.5
746.875
732.375
704.75
647.125
555.375
457.25
373.875
300.5
225.5
155.0
116.5
113.0
115.5
92.25
25.0
-24.25
-38.625
-38.875
-104.0
-253.625
-408.625
-503.125
-521.625
-553.75
-660.625
-816.75
-926.875
-915.0
-835.875
-787.875
-812.375
-876.125
-952.625
-998.375
-979.75
-928.75
-888.25
-916.75
-1004.125
-1075.125
-1046.75
-928.5
-811.125
-776.0
-794.75
-798.375
-767.125
-734.625
-746.375
-790.875
-811.75
-791.75
-770.125
-794.875
-867.625
-941.5
-974.875
-965.875
-957.125
-993.625
-1080.125
-1190.5
-1268.0
-1277.0
-1233.5
-1200.75
-1216.75
-1254.5
-1266.875
-1236.5
-1202.625
-1192.75
-1178.875
-1125.25
-1056.0
-1042.375
-1119.375
-1216.0
-1215.125
-1127.375
-1065.75
-1130.75
-1271.75
-1334.75
-1255.75
-1133.75
-1102.75
-1166.75
-1215.75
-1176.75
-1121.75
-1171.75
-1331.75
-1470.75
-1479.75
-1406.75
-1379.75
-1447.75
-1532.75
-1533.75
-1462.75
-1403.75
-1393.75
-1386.75
-1325.75
-1229.75
-1152.75
-1063.75
-875.5
-546.375
-232.25
-199.0
-545.125
-1063.25
-1430.875
-1539.0
-1601.625
-1883.375
-2367.75
-2765.625
-2801.875
-2511.375
-2141.375
-1877.25
-1706.625
-1554.0
-1446.875
-1455.5
-1527.0
-1487.875
-1256.75
-973.625
-858.75
-917.375
-933.5
-672.125
-215.0
187.375
370.625
388.75
422.125
436.375
339.0
101.875
-198.5
-480.0
-776.0
-1119.75
-1446.875
-1570.375
-1439.375
-1251.25
-1195.375
-1231.875
-1179.75
-957.75
-784.375
-849.875
-1101.875
-1319.0
-1462.0
-1630.25
-1866.125
-2044.75
-2007.375
-1806.0
-1630.25
-1564.625
-1472.25
-1248.625
-1004.125
-910.5
-970.375
-989.5
-848.5
-694.5
-705.375
-835.0
-858.375
-693.25
-516.125
-532.625
-750.75
-949.75
-945.125
-765.75
-564.75
-425.75
-329.0
-211.0
-54.375
93.0
163.5
94.875
-82.0
-223.75
-172.25
46.375
244.75
224.125
59.125
42.25
353.875
843.0
1166.0
1168.125
996.625
879.625
878.75
873.625
768.0
649.875
620.875
677.375
719.75
730.875
818.0
1059.75
1370.125
1567.875
1577.875
1503.125
1480.5
1549.75
1645.0
1731.0
1812.5
1905.375
1992.5
2068.875
2160.5
2298.5
2463.125
2590.75
2627.875
2605.25
2577.625
2589.5
2626.0
2646.0
2610.125
2491.875
2320.25
2173.625
2140.625
2216.0
2291.0
2233.75
2040.75
1864.625
1853.625
1983.0
2061.0
1907.0
1587.625
1310.625
1208.375
1174.625
1015.375
709.75
440.25
370.25
456.125
500.125
397.125
228.75
138.75
136.0
96.125
-40.5
-204.75
-314.375
-396.75
-548.125
-770.875
-913.0
-858.25
-666.75
-544.0
-592.875
-701.625
-688.625
-514.125
-329.875
-283.375
-350.375
-402.875
-390.125
-399.375
-531.875
-764.75
-950.5
-1009.5
-993.625
-1006.625
-1062.75
-1084.875
-995.875
-825.875
-668.875
-590.625
-598.625
-663.625
-739.625
-764.625
-671.25
-462.25
-226.125
-62.375
8.625
93.125
310.75
646.5
939.875
1056.125
992.375
867.125
754.625
625.75
410.75
124.875
-151.0
-363.25
-554.625
-772.375
-977.875
-1095.625
-1079.5
-1019.375
-1018.75
-1052.875
-1012.375
-852.875
-649.625
-517.375
-494.375
-537.625
-611.125
-748.375
-903.0
-993.5
-940.0
-795.0
-688.5
-686.75
-710.25
-641.625
-519.625
-471.5
-556.0
-689.125
-795.375
-884.375
-993.25
-1038.25
-902.0
-613.125
-415.875
-480.625
-681.375
-694.375
-385.625
-30.625
24.625
-267.0
-605.25
-719.375
-594.125
-400.5
-250.75
-146.5
-73.125
-53.75
-88.25
-115.75
-90.25
-57.625
-104.75
-244.25
-413.75
-518.75
-520.0
-406.0
-224.875
-88.5
-92.875
-203.25
-237.375
-53.125
258.375
456.75
423.75
315.0
384.75
673.625
985.875
1132.5
1098.125
1013.5
982.25
1006.25
1083.625
1210.25
1359.25
1451.75
1435.5
1376.25
1395.375
1532.0
1671.0
1680.0
1548.75
1406.0
1340.125
1336.75
1320.375
1259.375
1211.125
1238.25
1333.875
1415.5
1391.5
1306.125
1267.625
1283.875
1261.875
1139.75
956.125
844.625
876.25
940.625
913.375
798.25
737.625
820.375
958.875
1003.375
923.875
856.875
852.75
890.125
892.625
882.375
927.625
1038.125
1121.375
1125.5
1065.375
1022.25
1061.5
1155.125
1230.125
1228.625
1161.375
1042.875
956.25
922.875
956.875
1030.0
1092.125
1118.125
1113.125
1077.0
1028.625
1020.125
1116.25
1279.75
1400.625
1399.125
1311.125
1262.625
1317.0
1420.25
1481.375
1463.125
1376.75
1244.875
1085.125
944.75
937.0
1109.5
1397.125
1643.25
1790.25
1911.875
2084.375
2329.625
2580.5
2776.75
2896.875
2896.25
2735.75
2444.5
2135.875
1943.25
1875.125
1795.625
1576.625
1254.0
988.875
892.125
932.5
1008.125
1044.25
1025.75
932.75
812.875
746.875
821.875
993.875
1142.75
1165.875
1116.0
1120.5
1177.125
1201.125
1132.125
1033.375
1022.5
1098.625
1112.625
977.375
781.5
702.0
796.375
943.625
983.5
927.125
891.5
975.125
1092.0
1104.375
975.0
832.375
825.0
917.375
990.0
943.125
842.875
815.375
887.75
968.125
929.75
783.625
639.625
589.625
613.5
622.75
554.375
430.75
343.0
332.0
362.0
370.0
316.625
226.25
177.0
205.25
281.75
350.0
360.875
330.875
313.625
332.375
396.625
464.25
503.75
505.125
488.75
472.0
483.875
522.125
595.25
678.875
761.875
837.375
882.5
906.375
921.0
933.5
967.75
1024.625
1074.125
1089.5
1072.75
1039.625
1023.625
1016.75
999.375
948.625
885.625
847.625
853.125
876.125
878.375
851.75
844.625
884.625
933.0
949.0
908.125
852.125
812.0
782.25
727.125
612.75
508.5
434.125
424.125
421.375
387.625
340.5
307.5
306.5
321.0
336.0
361.125
379.125
384.25
383.25
396.25
442.375
504.375
547.375
551.375
534.375
530.375
545.375
551.375
522.375
462.375
395.375
345.375
308.375
278.0
261.75
261.625
264.875
247.75
207.875
184.875
205.875
239.875
214.875
107.875
-15.125
-69.0
-18.125
60.5
80.375
36.5
-45.875
-113.75
-160.0
-143.375
-89.0
-25.875
89.75
171.125
238.5
291.375
311.0
340.875
371.125
428.25
507.875
551.875
485.375
314.625
148.125
40.75
-31.375
-150.375
-386.875
-715.25
-1018.375
-1184.125
-1210.125
-1182.875
-1160.0
-1168.625
-1194.25
-1187.125
-1132.0
-1044.25
-971.125
-934.875
-954.625
-1023.625
-1111.625
-1169.625
-1182.625
-1155.5
-1139.5
-1146.5
-1157.625
-1154.625
-1155.625
-1189.625
-1254.625
-1314.625
-1337.625
-1323.625
-1294.625
-1273.625
-1266.625
-1263.75
-1258.75
-1258.625
-1261.625
-1275.625
-1291.625
-1299.625
-1293.625
-1281.0
-1269.0
-1253.0
-1227.25
-1203.875
-1191.875
-1203.375
-1208.375
-1190.375
-1158.125
-1144.375
-1161.5
-1208.75
-1263.25
-1335.25
-1425.25
-1497.25
-1511.625
-1464.125
-1415.75
-1382.75
-1367.75
-1319.75
-1228.375
-1127.875
-1089.5
-1117.25
-1140.75
-1132.125
-1088.5
-1082.5
-1144.5
-1233.5
-1277.5
-1240.5
-1158.5
-1101.625
-1097.625
-1109.75
-1076.875
-970.875
-814.875
-664.875
-559.75
-494.75
-446.125
-388.125
-318.125
-249.375
-192.625
-145.625
-107.375
-78.375
-52.0
-1.0
95.0
211.0
279.0
255.0
181.0
143.0
172.75
209.0
175.875
84.125
22.75
42.375
78.375
63.625
-13.875
-113.75
-191.75
-258.5
-316.75
-302.875
-159.125
85.0
311.125
418.375
476.375
668.625
847.75
924.0
898.0
865.25
979.25
1205.0
1360.125
1318.625
1127.875
925.625
767.625
595.25
281.125
-178.0
-653.25
-1017.5
-1218.125
-1238.75
-1139.0
-971.5
-761.375
-549.125
-334.5
-120.5
46.25
125.125
100.375
5.625
-109.0
-168.5
-197.375
-213.75
-146.875
-40.75
74.5
170.125
232.0
295.875
411.125
612.625
886.625
1183.625
1429.625
1578.75
1658.0
1743.0
1881.625
2028.0
2072.125
1939.25
1670.125
1397.375
1225.125
1147.125
1037.75
812.875
510.875
234.125
84.875
60.875
86.875
104.875
113.875
128.875
140.875
130.875
103.875
81.875
70.875
50.875
21.875
14.875
64.875
154.875
231.875
276.875
330.875
427.875
522.875
528.875
417.875
270.875
198.875
226.875
287.875
313.875
318.875
354.875
431.875
500.875
537.875
584.25
707.25
887.75
1034.75
1077.75
1048.75
1030.375
1041.25
1003.0
837.75
576.75
336.0
193.0
121.125
48.125
-49.625
-122.625
-121.625
-62.625
-1.25
29.75
42.25
53.25
59.875
49.875
30.375
31.375
69.875
133.875
191.0
227.0
247.5
265.5
280.375
289.5
286.125
284.625
284.875
314.875
364.125
411.5
440.375
455.875
471.625
520.625
577.25
597.75
578.375
578.375
646.375
737.125
755.375
674.375
553.875
514.75
589.625
650.5
620.375
500.75
422.75
438.0
517.25
556.25
527.875
483.75
471.75
472.75
435.125
351.125
255.125
181.125
124.125
64.125
2.125
-31.875
-26.625
3.375
32.375
57.875
113.875
211.875
325.875
401.875
425.875
441.875
503.875
603.875
674.875
661.5
586.25
517.5
491.125
480.375
437.125
354.375
267.625
216.0
185.625
154.125
109.375
65.75
14.375
-1.125
-1.125
-11.125
-74.25
-194.375
-356.375
-484.5
-561.125
-592.625
-604.375
-610.625
-591.875
-518.125
-396.5
-281.375
-210.625
-209.75
-244.625
-253.625
-204.875
-93.0
58.125
226.125
384.75
523.375
655.0
804.875
966.625
1087.0
1098.0
976.625
768.0
553.875
353.5
143.25
-94.25
-324.375
-529.625
-696.25
-827.5
-925.5
-979.5
-984.5
-964.5
-950.5
-947.5
-939.5
-921.5
-908.5
-917.5
-938.5
-953.5
-967.5
-1011.5
-1096.5
-1187.5
-1222.5
-1170.5
-1081.5
-1047.5
-1127.625
-1296.25
-1476.625
-1603.5
-1674.125
-1719.125
-1772.625
-1833.375
-1876.25
-1864.875
-1782.875
-1664.25
-1564.25
-1538.5
-1566.625
-1584.625
-1555.75
-1517.125
-1545.125
-1659.25
-1765.25
-1777.875
-1711.5
-1683.5
-1780.5
-1935.25
-2002.625
-1916.0
-1781.0
-1736.75
-1822.125
-1935.25
-1964.625
-1913.5
-1873.375
-1899.625
-1967.875
-2025.25
-2060.875
-2108.125
-2174.75
-2218.625
-2209.875
-2175.75
-2174.5
-2225.5
-2269.625
-2252.125
-2175.875
-2102.25
-2063.75
-2023.5
-1932.125
-1790.375
-1650.125
-1538.0
-1424.625
-1271.0
-1105.0
-992.0
-964.0
-978.75
-967.5
-915.5
-862.0
-844.625
-842.0
-820.125
-781.5
-760.125
-769.625
-779.25
-763.875
-723.0
-693.0
-702.25
-734.375
-739.5
-706.5
-660.25
-644.75
-632.25
-611.875
-577.75
-506.75
-423.5
-349.25
-304.375
-284.125
-282.875
-276.625
-237.375
-194.5
-176.375
-186.625
-182.75
-140.125
-32.75
103.125
225.5
307.625
368.5
434.25
515.125
586.625
625.125
625.5
591.875
524.125
432.0
335.125
272.0
265.625
277.25
258.25
184.875
105.75
93.625
138.25
192.875
223.125
193.625
137.875
78.125
48.875
66.75
112.125
121.5
88.375
38.0
6.25
18.375
58.0
89.0
150.0
303.25
572.25
889.5
1156.75
1333.25
1463.25
1602.875
1757.75
1870.75
1869.75
1721.75
1449.75
1118.75
811.75
578.75
406.75
238.375
27.5
-207.75
-395.125
-472.125
-448.125
-396.5
-381.5
-408.5
-432.5
-421.5
-386.5
-359.5
-354.25
-361.25
-384.25
-451.25
-567.25
-684.25
-731.25
-691.25
-616.125
-569.125
-555.125
-539.125
-510.125
-507.125
-560.125
-643.125
-710.125
-747.5
-786.5
-838.5
-877.5
-874.0
-861.75
-891.375
-961.5
-1008.625
-973.125
-910.875
-906.125
-993.75
-1114.75
-1157.875
-1129.375
-1091.125
-1115.625
-1171.75
-1189.0
-1166.5
-1144.125
-1164.125
-1191.125
-1207.375
-1189.875
-1163.75
-1165.625
-1223.25
-1254.75
-1265.75
-1252.625
-1254.75
-1289.375
-1337.0
-1345.75
-1309.625
-1259.125
-1235.375
-1241.0
-1248.875
-1231.125
-1200.875
-1189.5
-1211.0
-1228.875
-1228.375
-1192.375
-1140.375
-1099.125
-1081.0
-1080.5
-1079.5
-1062.5
-1025.875
-1001.875
-1006.875
-1025.75
-1027.75
-993.75
-946.125
-932.125
-972.25
-1056.25
-1142.25
-1206.0
-1258.0
-1303.875
-1341.375
-1376.375
-1395.375
-1382.125
-1328.125
-1244.125
-1159.625
-1116.625
-1115.625
-1127.0
-1125.375
-1110.375
-1089.375
-1074.125
-1073.125
-1082.875
-1095.625
-1108.625
-1110.625
-1107.75
-1118.375
-1152.375
-1191.25
-1182.5
-1111.125
-987.875
-861.75
-776.125
-719.25
-658.625
-595.25
-549.0
-554.25
-597.375
-622.0
-629.75
-638.375
-655.5
-683.25
-673.125
-622.0
-582.25
-606.125
-683.25
-750.625
-768.625
-760.125
-782.125
-851.125
-945.5
-1017.0
-1034.0
-955.125
-768.875
-525.25
-311.875
-206.625
-207.25
-222.125
-148.25
14.875
199.25
300.75
295.25
192.375
55.75
-51.125
-82.75
-12.5
128.75
254.625
285.75
198.5
67.625
-2.75
-27.0
-105.25
-328.0
-649.625
-909.375
-1006.375
-967.375
-905.5
-871.75
-853.5
-836.0
-884.0
-1010.75
-1132.5
-1188.75
-1261.875
-1435.125
-1656.625
-1705.0
-1466.625
-1165.125
-1088.0
-1173.375
-1072.0
-658.5
-262.625
-219.25
-469.125
-683.375
-728.625
-842.25
-1229.5
-1720.0
-1896.875
-1682.875
-1426.875
-1404.875
-1450.875
-1223.875
-725.875
-299.875
-173.875
-208.875
-144.875
23.125
62.125
-134.875
-392.875
-479.875
-351.875
-152.875
-34.875
-34.875
-129.875
-268.5
-350.75
-255.375
-12.375
157.25
59.375
-233.5
-375.625
-108.625
459.5
887.75
865.5
480.5
198.5
354.0
824.0
1184.625
1159.0
912.0
835.125
1154.125
1705.75
2168.25
2335.75
2278.125
2187.5
2187.625
2282.5
2429.5
2597.125
2746.25
2854.625
2916.875
2960.75
3037.125
3169.5
3336.125
3481.75
3577.0
3629.5
3674.5
3774.75
3959.875
4251.0
4534.25
4705.25
4755.625
4737.25
4820.625
5019.875
5168.0
5111.5
4867.875
4625.0
4539.125
4576.0
4604.375
4559.0
4497.875
4495.75
4546.375
4569.625
4488.875
4325.375
4118.375
3926.25
3774.0
3631.0
3428.5
3162.625
2943.0
2885.375
2985.0
3091.125
3076.625
2973.875
2894.875
2889.875
2869.625
2733.625
2492.875
2226.0
1990.75
1786.625
1598.0
1488.625
1317.625
1128.25
943.125
840.0
834.0
838.0
753.875
612.625
530.625
546.125
558.625
497.625
423.75
439.125
560.125
588.75
491.125
449.125
609.625
919.875
1125.875
1144.125
1161.625
1404.375
1796.75
2140.0
2270.875
2281.875
2364.125
2489.375
2594.625
2650.375
2657.75
2656.0
2587.375
2408.75
2200.875
2037.75
1936.75
1803.875
1599.375
1378.625
1234.5
1139.375
1051.625
964.625
951.75
1002.25
1034.875
1029.375
1052.625
1156.625
1303.5
1332.875
1194.375
998.125
915.25
940.75
957.375
873.5
761.5
708.625
744.75
789.0
808.625
867.125
959.125
1050.0
1091.625
1137.125
1242.625
1356.625
1352.0
1208.75
1055.875
1044.875
1142.75
1159.375
1012.375
856.375
911.875
1186.875
1447.625
1506.875
1409.0
1353.75
1436.75
1560.625
1596.5
1550.5
1493.875
1451.875
1363.125
1185.375
1002.875
935.75
1000.375
1091.375
1079.875
947.75
797.875
740.125
818.0
1004.5
1233.0
1402.875
1458.0
1420.75
1403.875
1504.75
1686.25
1809.75
1776.25
1620.125
1482.5
1464.875
1572.75
1750.0
1936.625
2054.625
2061.25
1962.375
1868.25
1889.0
2025.625
2153.625
2164.625
2078.0
1970.375
1901.5
1898.75
1988.125
2189.75
2410.0
2508.25
2444.25
2379.25
2506.375
2804.75
3022.875
2976.25
2765.25
2642.25
2677.625
2691.625
2515.0
2230.625
2095.0
2195.25
2362.5
2371.75
2260.0
2266.75
2503.75
2829.125
3005.25
2965.0
2860.5
2837.75
2848.75
2796.75
2699.75
2694.75
2840.75
3007.75
3057.75
3023.75
3078.75
3309.75
3596.75
3736.75
3658.75
3478.75
3350.875
3316.25
3309.125
3244.25
3112.375
2984.75
2942.75
3026.125
3213.875
3411.875
3498.875
3396.25
3170.0
2980.375
2963.125
3101.125
3237.875
3199.625
2967.5
2722.5
2673.625
2850.625
3106.375
3295.75
3386.0
3466.75
3613.125
3771.125
3874.5
3956.125
4029.875
4081.625
4035.625
3864.125
3687.875
3588.125
3529.25
3404.375
3187.75
2945.0
2780.625
2667.125
2520.75
2295.375
2062.75
1914.25
1849.625
1795.25
1701.625
1579.0
1490.25
1449.75
1430.0
1391.25
1345.5
1330.5
1349.75
1359.75
1293.5
1165.25
987.375
836.0
759.125
757.25
782.0
748.0
632.0
505.875
516.25
703.75
948.25
1071.25
1022.625
928.0
930.25
1015.125
1053.625
972.5
837.75
783.375
822.375
882.125
892.875
889.125
934.125
998.375
985.625
867.25
750.75
764.5
928.5
1091.25
1104.625
972.625
871.0
947.375
1144.375
1284.875
1242.875
1112.875
1054.25
1121.125
1186.875
1136.5
1018.75
1005.25
1113.5
1217.5
1168.875
992.5
907.375
1053.5
1349.5
1563.5
1542.5
1336.5
1123.5
1049.5
1117.5
1206.875
1164.625
926.25
601.375
388.25
411.125
598.125
756.125
751.375
657.0
627.875
717.75
849.375
919.75
913.0
885.75
889.625
916.5
944.25
972.875
1009.625
1041.25
1060.75
1084.875
1130.375
1198.875
1252.75
1242.875
1200.375
1165.875
1160.5
1148.75
1104.5
1041.75
1006.0
1023.25
1059.0
1064.375
1039.875
1015.125
1012.125
1019.125
1018.125
1017.125
1037.125
1076.125
1103.125
1090.125
1035.75
984.75
915.375
818.25
659.5
472.0
338.25
330.0
461.875
662.875
824.25
868.125
795.375
696.375
687.125
811.75
1011.875
1185.75
1269.375
1303.625
1387.0
1588.125
1873.75
2124.875
2211.0
2080.25
1791.125
1464.375
1209.0
1050.0
952.875
879.125
849.375
922.125
1116.5
1365.5
1559.5
1636.0
1624.5
1598.5
1579.5
1510.5
1324.75
1046.625
788.625
647.0
591.875
493.375
246.75
-121.625
-486.0
-738.0
-844.25
-859.0
-834.0
-776.5
-647.75
-461.375
-208.875
-46.75
38.625
42.0
78.125
123.75
164.5
137.0
72.75
55.75
122.125
225.125
307.875
350.375
407.25
477.25
454.5
294.5
104.375
54.5
180.0
334.75
326.25
172.5
25.375
-3.25
69.625
55.875
-63.625
-218.625
-270.375
-241.125
-242.125
-293.75
-310.25
-242.625
-144.375
-140.375
-260.625
-438.625
-572.125
-614.375
-580.625
-514.25
-412.875
-290.125
-172.125
-48.5
85.5
268.75
450.125
547.125
526.0
393.875
242.25
148.75
134.75
157.625
168.625
185.0
227.625
292.0
366.0
454.375
548.375
651.5
728.5
762.625
770.375
771.375
802.375
857.375
922.125
982.25
1060.875
1140.875
1179.875
1155.875
1116.875
1135.875
1210.875
1238.25
1142.125
962.25
838.875
851.25
933.375
970.375
941.375
941.5
1060.75
1269.25
1452.0
1559.875
1609.875
1647.25
1677.75
1652.125
1538.875
1404.875
1324.125
1311.75
1330.75
1301.625
1223.5
1166.5
1233.0
1428.375
1672.625
1868.5
1958.625
1988.5
2005.25
2013.875
1982.375
1908.375
1816.125
1736.5
1682.625
1635.25
1591.25
1561.25
1571.25
1624.0
1690.75
1719.375
1681.25
1601.25
1538.625
1520.375
1516.125
1471.375
1384.375
1310.375
1304.375
1352.375
1385.375
1367.375
1342.375
1371.375
1457.375
1543.375
1588.375
1613.375
1670.125
1771.75
1870.0
1945.875
2034.75
2186.75
2369.0
2516.875
2578.0
2595.125
2658.875
2820.75
2989.0
3126.875
3153.375
3077.125
2906.375
2691.625
2501.125
2352.25
2216.625
2039.375
1814.625
1582.125
1424.375
1357.0
1320.375
1296.75
1323.875
1445.375
1619.875
1739.375
1725.0
1622.75
1547.625
1542.375
1531.125
1396.375
1104.625
785.375
584.25
578.125
709.75
866.375
947.375
971.625
986.5
1059.0
1202.0
1376.625
1507.625
1562.875
1545.875
1504.875
1499.75
1558.75
1659.375
1742.875
1760.875
1724.0
1680.0
1678.0
1691.5
1690.625
1659.0
1623.875
1617.625
1647.5
1686.25
1706.875
1740.875
1800.75
1872.75
1912.25
1893.0
1815.0
1693.0
1550.75
1406.75
1273.5
1155.5
1052.125
992.75
1004.75
1097.75
1222.0
1331.375
1414.375
1500.375
1605.25
1681.125
1663.0
1560.25
1452.75
1425.75
1475.75
1540.375
1580.375
1605.0
1638.125
1677.0
1695.625
1690.625
1653.25
1581.25
1465.375
1331.375
1213.25
1155.25
1142.25
1143.25
1161.25
1231.25
1357.625
1472.375
1502.0
1451.125
1430.125
1517.125
1676.75
1774.25
1737.875
1615.875
1523.125
1490.625
1453.5
1347.125
1187.0
1064.875
1029.375
1047.875
1059.75
1058.0
1085.875
1186.375
1338.25
1476.875
1554.125
1569.375
1567.875
1594.625
1652.5
1702.375
1688.375
1642.125
1571.125
1569.375
1629.25
1724.875
1785.25
1804.75
1806.875
1828.125
1870.625
1889.625
1855.0
1784.75
1734.25
1735.625
1774.5
1791.125
1765.875
1734.0
1711.375
1677.375
1611.75
1509.125
1436.5
1423.375
1435.375
1418.125
1368.0
1341.625
1383.5
1468.0
1519.375
1558.5
1616.75
1750.75
1957.75
2180.25
2376.25
2536.625
2690.375
2850.375
3007.375
3125.75
3169.125
3111.375
2957.375
2739.25
2511.0
2313.125
2133.375
1940.25
1689.625
1416.625
1194.0
1085.875
1063.75
1060.75
1008.375
915.375
845.375
839.375
886.0
964.875
1043.625
1129.25
1210.375
1256.875
1249.375
1204.125
1171.625
1165.5
1175.125
1159.125
1113.125
1059.375
1020.625
981.0
933.75
892.75
904.75
954.5
997.5
1018.125
1043.0
1109.875
1187.625
1216.625
1184.625
1150.625
1130.625
1084.0
969.5
762.375
567.625
494.125
522.875
538.5
469.5
358.75
308.875
334.75
398.25
411.25
375.75
343.875
365.375
418.25
452.0
430.0
387.0
360.0
360.0
355.0
297.0
178.0
42.0
-57.125
-95.125
-94.125
-82.875
-74.875
-59.875
-22.625
52.5
149.125
228.0
258.375
243.375
189.25
111.875
13.75
-102.5
-214.5
-305.0
-364.5
-404.875
-413.25
-364.75
-206.875
13.0
208.5
324.375
388.125
457.5
532.75
550.125
419.875
172.5
-50.375
-114.25
5.0
214.375
391.75
502.0
594.25
718.25
863.125
964.75
960.25
849.0
692.25
540.375
411.875
319.75
287.25
346.75
449.0
555.5
617.375
650.125
716.5
835.625
955.625
1041.375
1037.375
1029.5
1035.625
1061.75
1101.875
1117.0
1178.875
1239.5
1281.875
1217.5
1047.625
997.5
1081.375
1207.0
1260.125
1171.625
1037.0
969.0
965.5
931.5
823.5
697.5
660.125
716.0
776.75
783.125
770.125
806.5
889.75
967.25
1009.75
1027.25
1042.75
1074.25
1137.875
1285.125
1513.625
1748.5
1904.25
1958.625
2002.75
2132.0
2328.375
2477.0
2481.625
2340.75
2141.625
1976.5
1855.5
1732.375
1584.875
1377.0
1138.625
922.25
802.625
775.125
780.75
761.625
727.25
737.125
821.375
934.75
1004.75
999.625
965.375
950.75
935.5
887.25
803.5
730.0
672.25
621.75
583.625
574.625
588.625
581.625
525.875
455.125
421.0
420.625
416.125
367.0
302.625
267.25
274.125
305.625
273.875
181.75
131.5
154.5
238.75
288.5
240.75
112.375
-24.5
-105.5
-129.5
-127.875
-160.375
-242.5
-326.625
-338.875
-269.5
-168.375
-109.125
-109.5
-138.625
-151.375
-164.125
-215.75
-275.625
-325.375
-345.0
-349.375
-354.5
-364.25
-361.0
-322.875
-259.5
-185.25
-111.75
-64.5
-69.25
-130.625
-207.625
-251.625
-252.625
-254.625
-307.625
-407.625
-493.75
-508.875
-451.75
-374.125
-327.75
-328.375
-356.125
-375.125
-371.875
-357.25
-347.125
-370.375
-413.125
-442.625
-431.125
-410.0
-412.625
-445.375
-468.875
-454.875
-415.375
-400.75
-435.875
-493.625
-530.5
-527.25
-510.75
-510.625
-519.375
-530.125
-534.0
-525.5
-511.25
-495.375
-487.0
-484.5
-470.25
-438.25
-399.625
-383.625
-391.5
-409.625
-384.625
-324.5
-262.5
-258.875
-301.875
-336.75
-330.0
-307.875
-323.625
-400.625
-493.375
-548.5
-559.375
-562.25
-588.375
-626.375
-638.625
-606.5
-549.375
-504.25
-491.125
-517.25
-570.625
-631.125
-666.625
-673.5
-660.0
-668.5
-715.125
-763.5
-746.5
-638.25
-496.875
-432.75
-452.0
-503.875
-439.25
-226.125
21.125
164.125
149.75
93.25
115.25
217.0
299.25
264.625
113.25
-73.25
-242.625
-404.5
-582.625
-801.5
-1041.0
-1274.375
-1480.5
-1657.0
-1751.625
-1773.125
-1775.375
-1829.125
-1920.125
-1980.125
-1905.125
-1683.125
-1436.125
-1305.125
-1304.125
-1306.125
-1204.125
-1053.125
-1002.5
-1139.5
-1363.5
-1516.5
-1556.5
-1570.375
-1601.875
-1582.25
-1438.125
-1217.625
-1116.375
-1254.5
-1535.875
-1752.25
-1781.75
-1714.75
-1763.25
-2048.125
-2475.125
-2808.0
-2851.625
-2629.25
-2365.375
-2291.5
-2413.875
-2537.625
-2502.5
-2344.125
-2237.5
-2280.375
-2401.0
-2450.75
-2376.375
-2204.375
-2025.625
-1901.625
-1859.25
-1891.625
-1944.25
-1955.625
-1929.125
-1945.25
-2063.875
-2233.375
-2362.875
-2395.0
-2382.75
-2432.125
-2518.375
-2530.625
-2409.25
-2177.875
-1931.5
-1741.5
-1587.625
-1425.875
-1259.625
-1164.0
-1185.125
-1307.5
-1427.25
-1458.875
-1415.375
-1369.375
-1348.0
-1306.125
-1179.875
-1016.25
-917.75
-895.375
-821.25
-608.125
-348.25
-243.875
-359.625
-507.625
-472.75
-243.625
-42.25
0.25
-4.25
146.625
489.0
790.875
888.375
870.0
925.0
1124.0
1242.5
1124.5
858.0
699.625
783.75
1026.375
1240.625
1370.625
1481.5
1630.0
1810.375
2006.625
2211.0
2397.0
2461.0
2340.5
2145.375
2076.125
2235.625
2501.5
2662.75
2655.75
2613.75
2682.75
2852.25
2953.25
2882.25
2702.125
2551.125
2513.375
2544.375
2588.875
2604.5
2624.5
2657.75
2655.75
2584.25
2435.25
2267.875
2098.875
1950.0
1821.375
1722.375
1651.375
1604.625
1543.625
1468.875
1367.875
1230.875
1040.75
811.75
638.625
612.625
744.625
921.625
1012.625
998.625
991.375
1122.375
1370.375
1567.375
1542.5
1271.5
873.0
483.5
136.875
-186.625
-515.125
-838.75
-1126.0
-1357.0
-1504.25
-1525.25
-1469.75
-1394.125
-1373.5
-1370.5
-1340.5
-1275.375
-1260.75
-1358.5
-1516.25
-1597.625
-1578.875
-1565.875
-1669.75
-1866.625
-2008.125
-2021.125
-1917.5
-1774.375
-1691.125
-1611.0
-1550.375
-1475.375
-1410.625
-1325.625
-1241.375
-1178.625
-1121.25
-1083.625
-1030.625
-998.625
-1002.625
-1064.25
-1091.875
-1002.0
-822.875
-655.0
-581.875
-599.625
-640.625
-659.875
-672.375
-741.0
-900.5
-1120.5
-1319.5
-1443.5
-1495.125
-1542.75
-1625.625
-1685.75
-1622.25
-1435.75
-1291.5
-1345.875
-1538.75
-1637.25
-1497.5
-1260.875
-1210.5
-1406.25
-1639.25
-1643.75
-1439.625
-1244.75
-1191.875
-1196.25
-1130.0
-1017.375
-982.375
-999.75
-944.5
-756.375
-590.125
-615.5
-788.375
-884.125
-761.25
-557.25
-487.5
-576.625
-645.5
-561.875
-381.625
-264.875
-276.375
-326.375
-300.875
-191.875
-77.0
-35.75
-106.25
-278.125
-451.5
-498.875
-373.5
-189.375
-94.375
-104.125
-64.0
127.125
418.875
630.875
677.625
611.125
532.875
441.75
285.25
100.625
-46.125
-117.375
-159.125
-218.25
-241.25
-132.25
99.25
336.75
480.125
538.0
581.875
643.75
693.875
687.75
613.5
473.875
313.25
208.125
192.5
265.0
353.375
385.625
355.25
330.75
356.0
446.875
561.125
633.5
617.375
502.875
336.25
179.5
101.0
95.75
127.875
185.125
294.5
453.875
599.5
657.0
617.125
556.875
544.125
573.625
600.625
614.5
651.625
703.75
767.25
827.375
920.25
1096.0
1314.625
1465.25
1434.5
1243.5
1014.25
836.375
693.625
510.25
231.375
-128.5
-492.75
-755.375
-851.875
-808.25
-738.5
-717.125
-655.75
-514.375
-291.75
-101.625
-40.125
-88.0
-110.125
-18.5
82.25
29.25
-194.25
-403.375
-436.875
-324.875
-224.625
-258.125
-397.375
-487.125
-475.125
-412.125
-372.125
-372.125
-376.625
-341.875
-258.625
-149.5
-69.375
-61.0
-121.625
-193.25
-219.0
-199.0
-202.25
-250.5
-312.0
-342.0
-353.25
-397.75
-483.625
-558.125
-560.875
-505.75
-466.625
-495.5
-562.125
-602.5
-568.25
-503.75
-491.625
-575.375
-692.125
-775.375
-793.125
-785.75
-823.625
-913.25
-995.75
-1009.75
-967.0
-921.875
-936.75
-964.375
-961.625
-930.625
-933.625
-998.625
-1071.5
-1059.25
-938.5
-795.375
-752.375
-840.875
-964.75
-995.0
-898.75
-781.875
-766.375
-862.625
-957.75
-956.5
-872.375
-813.375
-834.375
-893.375
-920.375
-904.375
-891.375
-910.375
-930.375
-913.125
-869.125
-848.125
-881.125
-955.125
-1021.125
-1054.125
-1065.125
-1081.125
-1122.125
-1181.125
-1228.125
-1237.125
-1211.125
-1177.5
-1155.75
-1141.75
-1115.0
-1076.5
-1043.5
-1021.5
-991.125
-935.125
-857.375
-778.375
-705.375
-623.375
-535.125
-472.75
-459.5
-488.375
