ecg
1495.5585199739235
1382.406258588755
1320.2722746299794
1312.2694894222304
1311.0517467947739
1272.7966912173924
1206.5546496950574
1150.559013444877
1130.155305962564
1130.6337800574129
1110.67058627589
1047.360066763997
953.5544072511809
858.6852176704726
780.9523569542952
710.7393751966257
621.4771625158696
502.9276638824944
384.2443282970066
325.9234617040825
375.5055536747342
518.3741530697894
675.6282645885954
757.6616990578218
767.7520515882292
793.9766201666515
920.1101201964132
1132.9704082780413
1331.016728332659
1436.1490749057791
1468.457804169392
1516.4544390400392
1634.8025968366549
1792.5300671714576
1902.0545591267899
1899.1222642856058
1797.9253391537618
1676.6910605797593
1605.7737089615443
1582.6246631879449
1539.38131406356
1425.836162694291
1278.4405189001764
1203.9816331105435
1255.0396680594486
1358.453942503369
1387.0667797570777
1314.414166906949
1239.9940888516205
1273.1694515887584
1405.7387543687023
1531.7735658640304
1575.5402094129872
1573.5984274358964
1612.855781496527
1730.5242378653136
1893.4067842353365
2059.2481290904325
2207.4559417249275
2322.773036688606
2388.1875339207418
2404.790712743212
2410.489180226469
2440.239468289638
2478.5379899390864
2473.585597025251
2410.68027398429
2331.9810511397304
2279.8799154427684
2239.976345298398
2154.932450141613
2004.6293866119033
1831.4006676355625
1692.950449290881
1602.6567849081657
1520.5827229331826
1403.7995054304708
1246.047525225925
1086.9105469592398
979.7774712290852
946.6803212052843
982.4432403740938
1069.0034717998867
1181.6099928488925
1298.7751715422235
1418.2956823729717
1544.1669986666009
1684.0201307740265
1838.7425142439665
1991.1640253833218
2097.6260682334746
2119.981235649001
2067.872687562847
2004.7077789363293
2003.2370883688077
2082.6982829951176
2179.173788786234
2203.855535025232
2121.042339671871
1989.2979354100767
1903.1664049591682
1906.0691618605683
1950.2477107401094
1935.1166935053943
1804.151562416922
1590.953828173618
1383.9015363508731
1243.9067168078343
1151.0119456571008
1027.8958775228061
822.73472241895
575.7820648594745
386.6901317181787
327.7152825574707
381.91794309030524
463.07625879892294
497.4245180194607
480.3497216071719
453.55374436547663
435.79476321944855
415.06018826938873
367.5288490694421
292.8201630946937
209.04992592618862
119.1168378435442
6.164584865171946
-126.97560281926849
-234.48177171580699
-257.1645979786813
-186.17518294684476
-77.29420052773207
-12.906796234469425
-29.788590808405957
-100.35874955646943
-171.19233297782267
-225.33278383912705
-296.3216639709003
-412.9763491137753
-537.9025075354978
-597.9302717879613
-546.9133388665286
-409.37755557077634
-245.53581360322482
-86.28158459492852
74.39721807984108
230.7542315343096
350.21893545451985
398.35374202117396
379.4120221721423
321.50880614486596
240.04372352699022
125.8312579656652
-10.771155541215705
-130.15136796791592
-204.46566443358455
-252.03510936474385
-306.2818788122092
-360.8215781888412
-376.2552553634455
-346.3282622817578
-332.5820673410121
-390.70932758198035
-493.69839031569546
-559.2806096993099
-544.6294193408596
-504.5171348455988
-523.5723673419435
-612.5792742766888
-704.4959538285968
-739.1779692082026
-722.7306690184201
-704.4129652161588
-709.2094845763241
-724.0205861618656
-738.68249455919
-765.8207049780987
-822.809460963558
-896.8495178541202
-958.29133553017
-988.5908423241775
-1002.2960048066503
-1033.948727271124
-1100.2570245020986
-1181.007427422208
-1245.3382632812945
-1272.5281652201368
-1266.9555908522714
-1232.6022871059404
-1159.1934156883344
-1037.314608189165
-884.7318535652215
-741.2648317162821
-627.8133844041868
-514.042638838486
-354.66273658563057
-155.38268101361444
4.316267761248241
49.15369529329212
-18.774817166212898
-113.25175315760626
-154.47861458896838
-151.76962164697255
-183.79637279191107
-305.80834077863636
-490.48667633484575
-674.393173459749
-826.7777535107501
-963.6367177361669
-1103.5191288119906
-1222.1995802752613
-1279.5966368587224
-1281.936801659919
-1273.8834727895917
-1286.4522379339337
-1285.3074957892068
-1213.347198314384
-1053.1506055451628
-865.2158018350304
-722.2169050128568
-657.0876131426862
-646.8889314554467
-657.7448275794032
-685.0597112747423
-732.5970942273132
-798.9428213099933
-876.9483860694376
-967.7294013232648
-1083.1781699745754
-1216.2222679980232
-1335.8364786628604
-1410.3318253562993
-1442.9377216525895
-1460.6599831806152
-1491.1135408499777
-1539.6489641452313
-1576.1229831309638
-1562.4603394174012
-1483.6865061809317
-1361.3558940201149
-1250.5093100182353
-1182.8718199822329
-1130.1182777612803
-1029.0843988145189
-858.1179050532877
-676.8938237347617
-556.3159818252984
-495.0489746640859
-422.4886741299533
-292.1945080324066
-155.23591279215657
-102.2270756695039
-148.10627560795098
-208.08573149702255
-205.04612056688006
-166.7286203281036
-188.4073663931054
-298.98577682660823
-425.4230921486864
-479.11056343844086
-481.1624171457581
-532.4329099108751
-680.6969875862507
-844.6240457145805
-913.1404552527279
-885.6557821947605
-869.0019319878634
-948.0494356944643
-1070.4921838924006
-1113.737165717114
-1028.8721665776955
-884.2423004122782
-786.9226380721775
-767.4650263018916
-770.0219533669015
-732.4461198558715
-644.2141150407402
-523.0324501243606
-370.27622592585135
-167.08688134244153
80.17734749382817
329.03272706436496
529.9813762366093
663.216853612893
755.4898279952786
849.6036760424056
960.4488337440439
1052.7885802958099
1063.9982496155837
951.0115782038504
736.7861581046977
511.1037066691041
361.33457127466215
294.7261347110043
226.02174812306788
65.17090300613523
-199.39692412583648
-481.84224616711333
-675.8515906044512
-738.3394243722321
-711.9525988138266
-673.5290649519337
-667.1208074579257
-689.2784461337512
-704.308152416758
-683.0225044012299
-628.552454579993
-579.3820239161863
-578.8060254664119
-641.8356291935762
-750.1194734464204
-873.9138349161618
-989.4294444089641
-1086.0933444354896
-1152.5730365264978
-1180.0177891670373
-1170.5110106105553
-1146.515511422605
-1135.711408733767
-1146.4692639110683
-1172.191271537075
-1199.4013649754097
-1226.3611603736533
-1255.3511498863322
-1285.7204828922706
-1310.2863783571263
-1326.6788205836592
-1332.2661431671547
-1326.0801311017221
-1310.909199599655
-1293.8197504088366
-1290.3262130676374
-1301.2913771149986
-1303.5351879990742
-1277.042881027912
-1227.5582998422121
-1191.457360883534
-1198.0121369811495
-1231.0157324150196
-1242.0109428865253
-1202.027540075379
-1148.365446189565
-1151.0499676444615
-1244.2909306124293
-1374.5237153097628
-1462.2774395639808
-1493.6570646349157
-1534.7205256980928
-1649.6135559737686
-1812.5475636517551
-1937.227908939288
-1977.8856447123692
-1983.8347989291099
-2027.2078857315728
-2103.8726032187756
-2129.9002961962374
-2037.9524420272187
-1864.0578105736731
-1719.7356719007291
-1677.4336168996392
-1697.9086105002661
-1679.1946940907537
-1569.2799432995575
-1409.4689732434827
-1286.2995155922329
-1257.2991620243788
-1317.012648475092
-1419.4625558358962
-1489.186606374063
-1463.370898521549
-1368.846665684041
-1346.8104011380274
-1541.3346388350767
-1933.104759426539
-2300.4757849885227
-2375.3495700345934
-2097.2450812912425
-1674.545532742207
-1350.4204544671409
-1192.703744559506
-1106.2691559904479
-990.6763564242328
-831.0969027807564
-663.1613232836024
-542.2433036883358
-567.5400427970048
-857.1483842244892
-1377.971222292073
-1834.7056806987753
-1856.5518706951814
-1364.3706476095572
-689.6253136243826
-278.62646292677795
-278.19021233579946
-462.07692192004515
-538.2173319953336
-460.87149774068473
-438.63355885827036
-688.9403599122795
-1208.3053067241237
-1782.4153791201923
-2174.2176664573735
-2260.095891768198
-2074.355385237836
-1730.360763531772
-1312.4213001991113
-848.5461161162713
-385.8774364550708
-50.52347857294262
44.28796519903108
-71.6993434747817
-231.5732100297928
-347.32000707804644
-523.4500618814764
-902.1580751233234
-1453.3458855565375
-1933.855622277618
-2111.1754417179372
-2010.0197010372144
-1866.1475329054083
-1850.3357331177451
-1917.245193914042
-1924.692174996881
-1842.5539169219562
-1743.259759292228
-1653.3395208679756
-1484.9304801099656
-1174.812795916462
-817.3077841153661
-594.9936046595561
-566.1677941108937
-590.5575259902669
-491.3477067253125
-259.09418359540206
-29.526006596118975
54.45351017093196
-43.08928208354803
-280.52194794511615
-563.3812467523394
-783.8034360154129
-842.4876685349973
-732.7709679870818
-624.7781529277909
-737.6537260102967
-1098.4351357329233
-1442.6199571899901
-1455.0144182518143
-1093.2376684766614
-657.5328143975989
-517.4220924200613
-763.7302964720773
-1131.221114530472
-1260.0814300296547
-1018.0215919267036
-591.2984300430485
-296.57614439775693
-273.46830811463656
-413.5550383636492
-501.0847396782772
-429.16316325797663
-258.3930615456995
-96.72590856310006
14.0748957019116
111.85086885798779
239.47267985742474
405.01779075655725
613.3150334189918
875.2239206903193
1154.8971894962087
1362.5160007201885
1443.223334869441
1449.6181387707031
1505.4674691224147
1643.4569311529524
1762.0335458100967
1730.7013309950462
1526.9425415867552
1269.193150156561
1073.0012632871867
962.2016286133323
871.5725093383882
722.238373965791
488.7342450962513
220.86984382063247
12.852727701454057
-48.640797140685635
43.15432781128675
201.92521519443483
294.6493601150013
248.78981696683343
127.78238452399671
60.714219026018554
122.23026745535356
235.93358675104912
266.91373746976524
149.29698787741972
-64.67297554810807
-259.6748010264329
-362.2550711942546
-362.9152653279838
-304.5161991028091
-242.44240993750327
-227.18994974649377
-278.86548232693394
-369.2976409338188
-459.72415924292454
-532.7057210949223
-618.8447198054353
-719.9798564725218
-793.9187462343331
-790.3256686383199
-724.8272266630868
-676.8077209998115
-692.8156606279974
-751.3966689662246
-803.9895588342904
-851.8486257416453
-932.7216498268081
-1033.3092103365539
-1093.7820272635845
-1081.2062350007618
-1027.6888661205865
-982.9540549035322
-942.6074699267118
-861.8540523810482
-735.5274796552192
-615.4015936554506
-573.2905630371479
-639.9926135687163
-806.3903714395315
-1028.6197419475725
-1230.8289043170678
-1327.3080421657673
-1293.891573142028
-1227.114937012341
-1262.5553030401861
-1426.6549581408526
-1593.4933201844328
-1641.756626023316
-1609.8901994055445
-1663.5155226879428
-1897.966331962767
-2217.996268666821
-2451.3811776614884
-2525.3412650394403
-2512.984587400395
-2494.8141130502518
-2444.0453136839874
-2279.3359150349706
-2010.9032331395617
-1775.1327211061766
-1703.2932269178193
-1783.7476380234032
-1885.1816564102382
-1908.8456484374728
-1882.2685593802191
-1905.2925621311138
-2007.9736249903658
-2108.1935906635276
-2091.0339992246113
-1938.2288227604383
-1729.207853574819
-1551.6782113744905
-1436.2989884452395
-1367.656853194288
-1336.7903273309707
-1337.039889737916
-1325.2600805969832
-1231.1606548599534
-1036.3814697072658
-818.2638963315167
-673.191727069131
-587.1853432297045
-443.5737291981932
-165.50845955147042
179.74697384672527
427.5877845629293
464.3061755405215
308.1511307906926
62.30462309399877
-153.13514017026205
-241.24810066097302
-163.10096807987998
15.646985779938632
123.68369686493497
21.652874526786263
-242.970745121145
-476.7109911623819
-564.0263651443538
-599.0160565495834
-770.0636532885777
-1144.7441270675558
-1614.4693095352973
-2025.6747378038085
-2320.1276139337256
-2475.7690340324325
-2439.322891913079
-2174.367445613254
-1791.7839760088293
-1487.7129584904856
-1336.5174066725895
-1183.0545628683237
-828.7741649211107
-297.12043460738323
157.11760514595994
318.9908751810035
239.260142582237
171.04238955436585
282.63443568176376
510.9317036718119
694.5833520623878
777.1276488490848
829.5074432446281
896.6886428868243
904.7750929267709
754.7186874614666
498.3519282610604
317.86087265222716
337.4329245715235
482.15774989542604
552.2363206168317
455.069010917504
297.7372412703521
242.86325556549303
304.50889937578955
349.84035675492214
263.003582767182
88.13920931263118
-46.02561590428593
-87.4050965152644
-94.70823389542727
-115.3751930454199
-103.43657271171372
24.181606011363783
248.55004197283927
427.636150979062
422.8883303436717
245.88268741578787
42.63274789796361
-52.44959501153923
-41.5673223681772
-35.0524538583154
-113.19715366449333
-257.33835125596516
-399.0669402237902
-496.85038266480444
-560.695002301089
-583.8912668568612
-513.243735826818
-327.7897177868464
-117.76389779693056
-27.697962007915862
-84.15646583556713
-114.97594623747636
73.10412736410058
476.3805545630498
867.5533400564171
1036.057243258051
992.6709385003485
905.0679142896597
868.3267698172483
812.8100047512144
621.6940606696242
307.8545309399875
-12.786088369243231
-237.07603444116205
-389.2285280872701
-555.3136134442493
-770.3178055388439
-974.9650187526795
-1077.675514302668
-1042.6915131005064
-917.1515273261709
-809.8922036790775
-814.2089930670998
-929.9501240126508
-1050.882226116244
-1062.8818004857924
-945.8735015156169
-817.3089947101898
-803.6912105812848
-927.9655278797134
-1094.0952558420367
-1183.0792038962109
-1160.3449734261437
-1096.2915214925515
-1091.6876687253357
-1179.3953066470176
-1295.6079091187885
-1321.2303112921234
-1179.8246631273596
-919.2635741112674
-689.0234612374256
-617.3817531195793
-682.1974531508429
-721.1744506247527
-618.2083591609195
-459.7975369522734
-448.06072175063025
-680.7052460967044
-1029.024796053525
-1261.6850372257531
-1292.3593729350969
-1222.3762678198489
-1184.1948801722922
-1193.339503132021
-1184.717305680211
-1140.3413902232505
-1106.8925900837523
-1089.9902408521598
-1015.5944288192715
-865.6170052573807
-756.4387950791245
-836.4834408976199
-1088.0643003751652
-1325.208741709468
-1412.3458408725974
-1423.0638138903266
-1518.5228739335903
-1721.9063494331758
-1901.3261296033568
-1951.950439282192
-1932.4282268976885
-1961.8780518697913
-2042.4736010477297
-2065.994652896264
-1977.0573582580287
-1863.1423877637976
-1830.6065272813614
-1868.756582815408
-1879.7330641688336
-1825.5913382287172
-1779.344687804231
-1799.7640535987157
-1822.8920022178272
-1755.1978390203901
-1630.191440046115
-1599.234814865055
-1738.351538208097
-1913.363987231003
-1910.6408647887915
-1699.8937250693762
-1487.1730828595125
-1493.41010067928
-1711.0741449223185
-1909.2687587980813
-1902.8630216172066
-1732.8108304790642
-1577.9965610673926
-1557.4383562517385
-1623.5735890732742
-1659.8590831019321
-1603.430834959213
-1479.9789181144504
-1359.1467485282187
-1303.6144295123972
-1339.7152371079926
-1439.4057436452244
-1532.9418611889298
-1570.7838049038028
-1589.5101194830272
-1674.7491931001123
-1849.8833248505634
-2030.3016826319758
-2093.6040519108783
-2004.8650311137376
-1857.1524145649591
-1761.3818567276405
-1729.8925286799301
-1677.9057113745614
-1536.5015790125833
-1332.8305529084018
-1164.7615124045844
-1097.9407005730843
-1108.8929883048843
-1130.0734768711504
-1131.04330680354
-1124.6920996171777
-1119.7799652285435
-1095.0408442626933
-1018.3293994484586
-905.3061192886248
-818.6558684129327
-812.0580269689964
-870.2342115265449
-930.3093675680697
-938.4093902809365
-890.9373210412612
-825.045173671606
-783.751687048228
-774.0130581090849
-763.468445952476
-703.7608071387667
-587.737888600827
-456.08522525418635
-373.27957173419145
-353.3087063719914
-353.0568019824735
-328.6694328452835
-287.95632447919957
-272.1038251832875
-280.67428106093655
-285.4739769524567
-276.02274655280235
-291.65708308763635
-359.81398139176855
-432.6278777538629
-443.6714732665526
-374.418648903793
-302.4295441692297
-306.5378212393472
-388.6610058349751
-459.67360976312165
-443.53715040096995
-347.8400156621864
-250.98936147926906
-215.42346504713646
-221.10914344651553
-193.96223072255452
-95.78939773573211
26.690079878719075
83.79151430994364
50.62257707896799
12.792107228369787
53.85634245448614
132.29128228765194
129.0260739516807
-5.826841425021257
-157.71165228736004
-165.0512005893496
12.580335786664364
261.67597357882687
461.4962428209842
589.3286748013269
686.6841333947249
767.8900382665151
825.8157124865011
896.1139753579052
1011.4506654470139
1138.5307802609632
1155.7926967708545
988.8997137239064
713.0672159872903
496.22598754993135
439.42753717425535
481.8735418407425
477.3160582931014
343.3528311675234
115.16629752562062
-112.76791174946698
-258.9153577323211
-311.3284457338916
-326.29635831622636
-350.5252303130669
-364.2876584217347
-295.9448137639233
-116.16270485151858
97.77986454367851
230.4085458035247
242.78853021438817
216.46604216986066
245.6589045073856
327.6301452562584
346.563190326699
202.47967768616036
-77.22546818758815
-359.28689048163506
-513.6421437692575
-502.7088889023621
-405.19616751075205
-351.26395752131293
-431.39817546863185
-625.1805308725827
-828.6258934787911
-939.9387529551918
-926.2456214000105
-858.5260353478011
-847.1526745692911
-950.8096363860657
-1135.2254128326244
-1297.0099427251669
-1338.7472857400478
-1249.8917953202213
-1107.8895911702311
-1014.8820412870285
-1026.3965385707345
-1110.436107503258
-1189.7343747084783
-1181.1758356117518
-1055.257656348318
-856.598471211414
-691.600382443236
-650.1916865201554
-720.423830081165
-795.7522295313343
-783.331904298057
-715.4997420559357
-728.9456274268787
-896.1680816436601
-1151.6831018677624
-1363.5992359431375
-1483.6908884730642
-1575.9948046131913
-1706.9795543200462
-1855.347799914897
-1967.4820485141415
-2053.1834374860723
-2167.0214638410885
-2304.3049621954497
-2391.386286625935
-2376.1603485250616
-2324.2985554401016
-2333.1398418139224
-2394.486956512287
-2399.6345252956125
-2297.0825800531884
-2163.052714064013
-2115.3393437657514
-2162.673825695739
-2200.013276269444
-2151.362611058245
-2073.6874747450884
-2052.8676918881165
-2081.3657268543084
-2091.1260052600064
-2063.3048264880517
-2060.760444245781
-2126.7293677350667
-2199.5627952313575
-2189.6140583938623
-2117.6161610028566
-2111.3944649170558
-2256.7746015184157
-2480.208540962872
-2621.4256714808207
-2593.5185611404036
-2447.0489121597466
-2305.8422579784856
-2261.443491311011
-2316.172371291249
-2391.8576554535166
-2391.743315464317
-2281.6056061148465
-2135.5209821060153
-2085.0768257120626
-2177.6233557358382
-2319.2414645020826
-2375.761283871891
-2326.376824115707
-2273.686140044241
-2295.0527605232537
-2351.2306088611563
-2356.0675022770642
-2311.4258721051187
-2299.6426334217726
-2353.580776920939
-2364.140592577328
-2388.802817635369
-2341.510486940243
-2357.498113726433
-2450.0058676465874
-2518.9364913721483
-2479.447849988391
-2380.9156553052235
-2339.911976734005
-2395.495318251779
-2467.7092400437778
-2467.2849882176697
-2398.676249407242
-2334.4646347224825
-2315.6972436216115
-2316.0692677829684
-2302.430710405654
-2278.3049285059137
-2276.752173904898
-2283.8495319413046
-2259.723386391372
-2192.6711204652665
-2133.2194133341936
-2136.546471513984
-2201.956149616318
-2258.3925344712898
-2240.031236590837
-2153.2489710974396
-2061.6277247690336
-2010.7370127477025
-1992.2866285473121
-1976.7434993061777
-1959.5209871821755
-1956.983526432648
-1958.2738570655954
-1936.1315244025225
-1879.4046507218477
-1832.0593059664861
-1843.781410203217
-1899.3208106659595
-1921.254508524941
-1866.4508903069745
-1772.082055239602
-1726.2310511302717
-1786.4092940636228
-1928.6320241156636
-2084.3852833993137
-2208.5323677273245
-2308.2386368574566
-2406.2086445006016
-2505.233252848277
-2580.897876846701
-2615.5474019752396
-2627.8504615035677
-2665.8127440749677
-2743.2369617137324
-2818.654694119863
-2820.1444951800154
-2709.9433391907705
-2507.360824124765
-2273.352922742886
-2045.7175643593991
-1831.2575658550809
-1611.2938167690065
-1354.565104094637
-1027.4046862185658
-636.2760898009269
-262.7213305978296
-29.691399890074194
-5.30547686469572
-150.4942457728862
-354.8182298308135
-544.9410348240908
-728.726798274278
-960.3548930875706
-1278.644780656044
-1681.2772654713062
-2105.785870212207
-2436.626006890372
-2565.9859425160894
-2486.1644055324177
-2338.1427301223775
-2304.6235307725524
-2435.15064592071
-2593.383959472778
-2603.6171389456576
-2455.4558524152326
-2309.769251787001
-2320.37902359552
-2487.466514844344
-2685.9646620425115
-2820.7258761650037
-2883.4966283998237
-2892.1916575138266
-2825.18340549531
-2639.459391797329
-2360.0323567085243
-2080.3653210965304
-1880.528791106466
-1740.016034981595
-1575.0514018094304
-1349.955660771707
-1143.7032146890201
-1070.6279742329816
-1143.9673623637746
-1256.3433040909572
-1299.8467849280619
-1288.8180951232343
-1334.5254019227416
-1485.4913449710398
-1637.6363552870853
-1657.5181681961565
-1561.134759192178
-1521.208546521216
-1652.8808283498156
-1840.9336017225853
-1851.095975198996
-1628.6294541102084
-1390.8223380248828
-1387.1763495258613
-1612.6585220395411
-1799.3559383272286
-1730.409583803367
-1470.3203039882826
-1255.5069555037194
-1215.7920708594102
-1249.2372268060444
-1197.4490115046656
-1044.1688224370955
-920.4393751583917
-909.304364624532
-944.9550276146075
-925.5542478466363
-872.8251772621297
-903.8768878263854
-1060.2461439424992
-1224.8897539012523
-1239.1387485089735
-1105.2906219462927
-992.8998549677835
-1037.2773720278963
-1183.3887871792954
-1251.1934708658387
-1151.6404535066704
-988.6135537580078
-921.6534633823854
-989.3725742549968
-1097.5249289066733
-1144.5151601220923
-1120.029411335848
-1063.9418174164632
-1001.2415690026857
-938.0963445994787
-906.1788497039801
-923.3905831797115
-941.8785135889302
-877.7530305094723
-723.8918213278089
-595.7670674204171
-597.1833456579304
-682.6233079937604
-698.1587299825803
-561.9365716375503
-351.5029353394307
-200.68759191456888
-129.40768914381783
-47.83589860302442
94.4483919188358
230.67218141432267
271.1899556678173
231.53969554134358
215.06211385000137
270.7597160658545
339.5318712975578
320.30545125272045
197.22156522621708
68.63396754860102
37.75115419510041
100.5043666258358
173.39779851588816
188.12139943042433
157.5462710565204
139.31658452965996
166.92116549394888
204.20844921577356
187.42851835391406
86.25402425922883
-67.02400098626816
-204.0169319480425
-285.03997401599435
-325.59650541134954
-376.5191373551066
-464.1172665460622
-570.3478293709146
-641.0422194960634
-646.3071091190072
-609.5399556686538
-580.7499957429627
-582.9285443227961
-598.2586766316462
-587.8253788590046
-547.0799037678842
-512.1747251958056
-521.0497932522246
-557.0327180582178
-570.199097904102
-540.2267950282292
-512.6236385168419
-554.8657209991563
-663.0963436943107
-745.3408480375423
-708.8884228575066
-567.287037956176
-437.019385496895
-422.5019958477567
-508.1156207571148
-597.339831724674
-639.6168098260473
-676.8740549568013
-783.4985745608087
-963.108968309456
-1131.4233555499493
-1208.5516251299405
-1218.6109160207377
-1247.2151452177854
-1317.9759141022114
-1340.608803899826
-1207.3729805471144
-924.9905667800734
-629.2134341601923
-452.1843729677082
-404.07926104950667
-369.3692799854205
-247.41345927185216
-76.23459660408821
21.87486022079611
-29.149998424148805
-178.98095355647854
-300.54567783143864
-329.02546866464087
-290.13354244243504
-240.3456420325909
-184.21849189632457
-79.39048254403156
64.40350132474566
169.31785473685613
160.1110317184315
55.56881322441916
-32.46812792967182
-17.666502871525154
53.81494005001491
46.161534254909384
-118.97924368520898
-358.12120194680904
-491.2901125676261
-431.4466649714582
-272.84775924607595
-193.8726510610798
-262.98118868596
-377.4504520704567
-383.49585034709185
-249.23863419826012
-95.63072559742807
-48.49008186102242
-104.565450032959
-156.1511959438135
-121.12172448484375
-23.76319344299668
51.69174665793912
43.0473257469298
-50.7132270614909
-190.69880207205108
-331.25755845609194
-439.0062197874105
-503.12884889176166
-550.6619758193913
-605.0701945674984
-660.3199940508622
-684.478363222199
-661.513943106324
-627.4368667882352
-629.6218092340036
-672.6854577869818
-731.608740064409
-806.9397494377963
-936.4708402555428
-1097.6962651325136
-1180.9733094917779
-1098.8877677156688
-909.1484942018348
-780.5789732350995
-800.7021681191001
-862.9787446187141
-811.0111939693247
-648.3288061331295
-540.7934065743136
-600.8011892858378
-730.4242956953256
-759.2087601845078
-666.6834416863599
-615.2697345063166
-727.0872459945814
-912.9572743930289
-983.6689171911916
-890.7899698843332
-776.1394575132821
-780.1497048909939
-874.8535586294265
-914.1124874109837
-845.575648684312
-750.7443723216952
-712.1620761559168
-698.5117917725984
-637.515348828611
-549.8688019508413
-539.2935137902502
-654.9103493586217
-823.436324646261
-944.755551170595
-1018.8082340855235
-1127.1969196754771
-1291.0833662767209
-1432.9152656410806
-1478.0709930776534
-1447.71871633585
-1413.7106689921845
-1384.7729988603737
-1291.9310352492778
-1103.491234948001
-908.352522035262
-827.7203605685672
-879.6323204501423
-957.3739875553557
-955.3413340480396
-901.4610703905041
-911.8398931792351
-1035.6838890198628
-1174.1036065943458
-1195.5171516973114
-1089.7643046885928
-967.9637296392186
-932.785151520769
-966.289561898451
-972.5919702265484
-917.3407778496011
-872.5020676213215
-919.1761556814386
-1043.6653384225392
-1170.2667082652454
-1258.903690474858
-1345.096172345485
-1470.0185860882448
-1611.8874761392767
-1699.0411426480705
-1703.3313708962423
-1669.4653223735986
-1657.5820674541224
-1683.1101925498442
-1716.1923510636857
-1708.555073917152
-1649.293101745854
-1577.4015612262083
-1553.6584038002113
-1618.7407409099712
-1734.0977864399229
-1814.213015596144
-1818.4866766946493
-1810.8361525438354
-1898.2595667679388
-2093.2708068957163
-2282.0066472009116
-2343.284321388801
-2291.8420864615855
-2244.7127650072707
-2282.435724456375
-2357.22392744348
-2366.3632232455893
-2268.506020315925
-2129.2529412811973
-2031.8787278341051
-2003.7708890301128
-2021.1382708241526
-2042.581236176484
-2048.5573621104486
-2059.078172921809
-2116.090820493374
-2246.944306349922
-2430.1707187811253
-2598.696478779649
-2713.8884419584638
-2797.972532167761
-2889.9432128446983
-2965.6584698445317
-2965.9371196262355
-2876.504869207921
-2767.0196692686677
-2715.128908627962
-2701.7423486313332
-2646.4959916384323
-2523.5882538459837
-2416.5878385339674
-2412.401600578527
-2496.898105855964
-2586.4099708086737
-2645.1244131883363
-2728.0353189836987
-2888.2472921051517
-3084.633143861606
-3219.8247427249385
-3262.5263382770313
-3285.3953993882765
-3378.834054282971
-3523.994077422357
-3609.298942182548
-3544.977043311823
-3360.5586255391386
-3172.1829106940463
-3063.9846387816365
-3002.095560466717
-2884.013386335937
-2660.0475667832834
-2384.046314560862
-2150.7754810418637
-1980.2506869215895
-1803.4803497085948
-1559.933726724674
-1299.6070831441316
-1151.3653033175597
-1177.2271639005007
-1303.0949762042248
-1393.7920432207466
-1397.9204965392973
-1395.9356760657975
-1497.050215833189
-1725.5458786435495
-1987.327055243549
-2171.0800314680973
-2234.9068721661197
-2235.021411127997
-2265.6974564207944
-2378.060387205066
-2548.2430637055054
-2695.7080698464833
-2748.4046353181075
-2704.0386926680253
-2627.365330387729
-2578.4251732126995
-2556.637736872365
-2513.0109540592543
-2419.57774206268
-2305.7877683041743
-2218.949688652657
-2181.1811983614502
-2172.451022173611
-2173.201052368482
-2191.5707316360335
-2243.623475896441
-2320.319383862263
-2390.0768603341357
-2429.650617813365
-2442.9654197748814
-2441.8190457766577
-2428.607629016473
-2399.7003965816175
-2357.70175076974
-2324.090812102384
-2307.4819234750985
-2301.744270456093
-2286.836704827299
-2256.343335517241
-2213.841076146423
-2165.2568578009586
-2113.3850267093985
-2059.2214310370723
-2010.7367505752443
-1970.6829766650662
-1927.7760172001394
-1876.118978408829
-1825.745799794556
-1798.1563817853114
-1802.4494960266443
-1817.7921973734992
-1828.8685176936008
-1849.4679411430898
-1911.8587430831456
-2014.1874661069055
-2116.0112581088447
-2171.832541030307
-2180.016907716278
-2177.9717443881377
-2201.7060561093276
-2256.8922370339333
-2320.050501984079
-2364.093336989935
-2380.0873171073495
-2375.979396016647
-2379.185379083592
-2423.1928611723
-2509.174441850845
-2604.8215259911244
-2667.117371278374
-2683.5703261834224
-2684.0960359476417
-2695.3497265687156
-2713.876633940028
-2721.9011070782303
-2717.3336613775614
-2719.1285331872764
-2725.1658052121584
-2710.568266541813
-2676.6790619191224
-2664.3800246788187
-2720.7007609874663
-2833.7437766007597
-2935.8815493499437
-2975.9056534235488
-2973.7252447831434
-2992.16315614865
-3053.0634398701995
-3112.6339035066703
-3112.229239589533
-3040.472235793456
-2942.524462965575
-2861.2917434030596
-2809.2762168446143
-2778.855246326712
-2760.0406413138026
-2750.9981863527737
-2748.8286684399777
-2750.105929630628
-2763.302874391774
-2798.742512389725
-2851.0824683897476
-2893.8359484380926
-2900.928398335559
-2874.534048988206
-2850.3033682858613
-2846.708435373714
-2850.98197523995
-2830.0147430014513
-2783.722255921348
-2736.0271412660013
-2709.095929211977
-2694.9552515947844
-2673.6061101132527
-2632.50836642774
-2581.810504569552
-2541.8193797532012
-2528.1999467237774
-2550.779618982154
-2605.1025074383756
-2662.3904346053605
-2679.5566708868346
-2639.7679394471697
-2578.9052695344576
-2559.0206707385087
-2600.1480225015407
-2660.3449390743854
-2670.6038213287266
-2600.140747501029
-2478.180971190921
-2345.599703681388
-2217.283116630491
-2077.590319025017
-1917.8003789907032
-1755.2874598826834
-1620.9047593005955
-1533.8212283813425
-1486.334687939193
-1462.577709465265
-1458.2756150803025
-1492.1975835664728
-1584.0529459692987
-1723.700506227049
-1862.7819135644506
-1945.0180837786077
-1943.047264809671
-1888.1900598730303
-1837.0022617624986
-1818.179620273481
-1811.3557915775746
-1773.1213839362879
-1675.1637396190883
-1533.094377366721
-1391.8859329010602
-1313.4160213686168
-1332.3450721218912
-1427.4584273702744
-1526.6451128408717
-1566.697097797033
-1540.337504824277
-1518.1037348869388
-1573.9456874333125
-1715.0187422227846
-1860.5141619480105
-1910.7328100618251
-1843.9949203408194
-1720.0142237281066
-1632.0168771938693
-1624.6260055689397
-1664.9963565518417
-1693.1595899708668
-1684.675400645276
-1666.706817658608
-1665.1467929736732
-1648.7992572079024
-1543.8872248960167
-1309.6929377723532
-1003.01499940481
-733.3366726314125
-562.4276156246796
-451.47493928609344
-317.126781597418
-146.97518077000416
-20.34997823493245
-30.004300536486994
-183.39758962195646
-397.1927531282955
-587.5987723010135
-743.7878268312762
-910.844827012613
-1107.615808368183
-1307.885198343262
-1495.7090646877753
-1706.0619074802341
-1985.2735520238546
-2295.8527722986446
-2515.079183200876
-2528.7584004831006
-2370.3823115230866
-2217.1640502760506
-2208.3173535499586
-2293.866404951402
-2273.0155607213123
-2032.5491220634187
-1711.6913931999868
-1585.3935324770441
-1770.7138262160463
-2098.1061795218484
-2291.3725098133164
-2240.5903211901928
-2071.9565679872644
-1952.558326281457
-1908.3779500145715
-1871.0647367789384
-1821.202970719779
-1826.9295009743064
-1932.3062011196805
-2092.761489164029
-2233.7556659646384
-2349.6313578557983
-2482.5816508191197
-2634.7072261467315
-2734.3174141888703
-2708.3940570901623
-2553.0962747205986
-2338.0084259405185
-2157.821665909569
-2073.303726232379
-2079.217669935235
-2088.49568508949
-2024.1895567238666
-1920.0455804466508
-1918.0482983086051
-2086.076168447345
-2269.4722326790684
-2211.0451933845156
-1878.94426212189
-1574.3449006430412
-1603.3426658173269
-1896.7769883202188
-2070.5417097037794
-1917.1995455003002
-1672.548121088537
-1707.3708795342955
-2030.3342664278114
-2266.9746358772372
-2145.72870459689
-1859.0299813165311
-1799.6941528426796
-2043.5417574594576
-2246.192930585296
-2108.8629314601503
-1804.5646622787012
-1790.3327422659436
-2219.4419073475665
-2732.95942921564
-2869.485041411258
-2604.365308427505
-2362.231416802738
-2502.9373605937662
-2922.2307101754714
-3208.635971492659
-3135.446301521585
-2882.501250809129
-2764.156274880017
-2845.527170735377
-2922.5450083494843
-2850.9030080642674
-2729.3337967948655
-2721.33388432227
-2799.7551495863945
-2761.3008999517688
-2523.666532407244
-2244.540142744531
-2126.5763972650266
-2161.9904073690927
-2168.5405279743104
-2047.5075205941098
-1906.5065101967944
-1895.997926515879
-2015.9187423173717
-2155.248638712083
-2280.40551986631
-2462.9246581532893
-2709.357508596982
-2875.499976053864
-2834.1295124176186
-2656.9528849848252
-2562.7938029753104
-2647.098263512261
-2747.041300363091
-2608.534636512129
-2183.241679498697
-1712.3876757499145
-1496.4263750576251
-1590.604490888831
-1753.1628038807903
-1687.6145893586877
-1348.5462979848148
-984.0812857323613
-867.3577443866639
-1012.7630651227564
-1167.706272663728
-1112.4664210100268
-893.3678856213678
-774.3675444579519
-931.5082719608486
-1245.2275555322897
-1455.9294930448991
-1438.8680222782662
-1308.3536278807546
-1245.227808930762
-1278.0032516723534
-1273.346266346347
-1121.1794082119259
-857.7794390348552
-618.7423728598314
-490.69239643171
-452.48079677074816
-446.8655369167011
-459.80220848379236
-508.6319507935641
-587.3364649877171
-659.9938001379519
-685.3866224424544
-657.6950633854149
-603.3732840106186
-531.3721954311068
-434.6407155068455
-312.4208427224985
-187.5457777768106
-83.19012255909047
4.936975324516652
89.67042479466318
174.45254588350076
220.2513219781231
178.84873070156982
45.6247717656006
-128.93276500784077
-255.62631662292165
-239.20023353924284
-60.07208358859634
177.3757920563953
298.6523529115793
228.9580180488806
93.7561841378797
98.39674579896746
283.7530170773489
461.18797858618905
402.0863348721043
88.37517942373916
-252.27837874469014
-400.4481853210598
-362.77585719427145
-318.4566975274554
-394.15596811334774
-518.6836891760377
-523.6045297498785
-329.88686624692673
-28.536396049981818
232.6795556424595
365.7575898958502
398.32029982640006
440.4505072656209
572.0485754383811
781.2459901852814
953.1034647198093
958.1623669411061
771.4332531310154
507.076385311943
316.1939225063121
223.5353630415916
100.01272277249859
-201.62514868334085
-683.3889897875212
-1177.5806912904181
-1508.993941931044
-1639.3393267994397
-1656.198929591088
-1652.7548018690502
-1634.9908801488118
-1553.721172946857
-1393.1230053902084
-1208.7417589109734
-1085.501258830144
-1071.5185210382592
-1133.9672459801081
-1166.6762921864488
-1091.0323205403422
-927.4494529011449
-799.8446240560922
-794.4034767866698
-835.2189857832956
-748.9772417104125
-472.9285930350152
-167.73601374296823
-61.32146229229306
-192.7355414269141
-375.1865515500076
-424.9454881382169
-380.0752042319716
-431.8493044354673
-643.6689190051
-828.5539215872786
-771.7248213521455
-494.9590201436881
-237.51563191234118
-214.37523417212049
-401.75304693398493
-580.713492153707
-577.2372914720472
-423.2495997437809
-324.75795388692177
-453.23016103973464
-780.5548267387986
-1083.5456999317084
-1126.3839663768126
-909.8459953174507
-681.1649864497141
-686.0132893645394
-902.0946286357006
-1074.2212534479918
-1002.4038941306895
-753.1162628285904
-578.9811311133808
-621.8235982276362
-778.5422265045099
-871.9412891819577
-847.7208419761845
-791.0423537234742
-783.7529939334381
-809.4308718408456
-819.0890727475314
-805.9789447187271
-793.1060764621427
-773.252273563648
-710.9104983864959
-612.4691607333554
-537.3141416118019
-541.8143643339317
-590.3738928289117
-584.1433465063184
-467.6801771839638
-320.406375601925
-271.5868172012491
-389.47174547540476
-602.0057590805809
-755.8300978178543
-768.515053842253
-731.7423297665678
-815.603119411506
-1062.0741545106437
-1284.801801398112
-1239.7482513475402
-914.9849591639536
-594.6016916358585
-571.2919803138072
-804.6048510911346
-935.9405497523762
-689.2570970265963
-206.74034716902264
111.02900719127717
61.992344512732984
-146.9054940423316
-170.2634089208774
43.63560246894963
224.99371453746858
161.32078953036694
-25.754747935875457
-40.54508305615491
201.69668554389352
467.33484712671066
496.3756375869375
308.35588572340157
167.71568221967573
285.1187661435082
607.92177341088
871.034936666051
833.6269736418866
501.79575639623613
126.7599531987218
1.8802850478872415
208.4052724345525
514.1818090055228
589.8099638968765
347.3302863678507
56.015986924961055
41.61101283813127
310.7790710471445
551.0463926135067
510.47225701009756
297.4787605477227
214.30954018639977
364.3310036484993
548.956115223742
563.0068982634818
486.0325855995608
590.9007368410149
963.0945007893439
1359.584954829209
1493.8214805046673
1371.9883574531948
1236.2503937009074
1244.4531538045162
1294.2857891515896
1232.9450082224553
1090.570735699485
1040.8208001225075
1160.0905109803448
1306.4181354273087
1308.7284518864326
1207.7432519855606
1213.5882621006622
1440.546140809563
1762.75188970501
1963.2917845031402
1938.3604322358588
1786.0518046496513
1686.098133999104
1751.6730859955578
1980.79744569828
2262.3884504890143
2438.851335058549
2393.1013589329673
2166.8925149278853
1973.4249841113515
1998.1776860033217
2188.5483186774386
2276.675251001081
2079.2251569261557
1745.1873073769348
1599.3318483174585
1788.2246451102037
2123.2860158982767
2307.090997719816
2268.2282567522043
2196.7190311793056
2266.0763811375978
2449.7187547446565
2615.612882838131
2705.040485517004
2794.493769315215
2934.545645124776
3064.7729594925827
3103.5953605829354
3071.3440565442434
3092.6740582137927
3225.2636444783993
3352.501360461555
3303.9038206069754
3053.7993943789056
2769.309537018311
2629.852460557322
2639.3418664291967
2628.4061737515426
2443.050885920806
2110.9952005263294
1773.724262802305
1530.0484045909748
1353.30752959631
1197.2325663145903
1077.4881833579634
1038.2691938384687
1044.6410143355706
989.0548225539419
839.537416163076
708.3741418001475
726.0779017850914
896.3465820127572
1096.4296330895545
1204.783701082349
1197.0027996873964
1104.256845407179
952.8645208992441
787.913221940558
692.7364574282308
722.2715671387953
798.2341439632746
735.7384124613276
456.5286774763465
112.9617764909271
-62.424853301134135
0.8052482788733641
141.21359830558072
167.38827521088587
61.708725980501185
-44.611344506464604
-52.558672678093956
12.840053750473771
61.7678271951288
82.56318310736003
128.30791029963922
226.01793369003403
302.3307973788462
269.11265640935267
146.37007280603365
72.41624033760687
158.60637241907364
365.0057484563055
506.151457285703
436.8225756635107
202.4559143497939
-13.058043053074215
-84.7268538911882
-45.106192218197464
-41.38365348496359
-181.75799104856196
-426.33498503319345
-641.5180682440132
-723.516137194973
-692.84743511185
-656.7066155893392
-705.5507006042999
-833.5088185755891
-952.9741749225897
-1020.1222347074219
-1078.1299078756242
-1189.410263143554
-1337.0511516709003
-1428.448937195468
-1414.666962336163
-1362.5516494120986
-1379.6304296874266
-1456.184952331607
-1447.0128904033013
-1239.3883464245991
-893.3536975987095
-596.9571269836915
-469.87689125442694
-466.4554993160067
-449.0694069245525
-339.1134227991686
-184.71733264651783
-88.6586135036172
-109.42861844603036
-219.68743060963106
-333.1496119406308
-377.2465522982528
-347.5443305221066
-306.7212002319063
-307.2102644825003
-347.8178410376925
-391.63458082243426
-417.4664200872502
-460.4078465516451
-547.5390395316464
-650.4465698376652
-715.5106784104136
-730.8106505585321
-732.2961813221257
-742.6445485170882
-734.4624045536627
-666.9722585806458
-538.1965047868282
-390.16048212862836
-254.26075714552906
-148.18097578491654
-88.59728484778282
-75.65965869215881
-62.98998527621393
17.927221479484274
194.9519168589797
408.0864220494929
569.99994429348
648.8116810875414
712.4158715700518
839.354487263577
1028.2121195565019
1197.2592020894674
1261.1016081124467
1209.6150643611227
1118.0466312375906
1073.7450076651567
1130.4595609986998
1268.3038716015412
1415.2926864211513
1509.5278974263606
1543.5843162877572
1559.939722455413
1609.2349059667224
1686.9372562844474
1747.8365347285485
1739.8543905647064
1647.5771487719803
1520.0510729171583
1450.4841856632293
1502.9883860846728
1662.2317820834207
1836.3351367764587
1942.706434304864
1980.9463948269818
2014.1832069173927
2069.4535169382534
2094.238071616589
2017.7347090206704
1850.9549098130396
1694.1387722821487
1632.4930155690777
1656.3543403748622
1706.5038991799247
1763.2998970461485
1871.9916325149286
2050.928228451537
2243.133565834424
2364.01257946189
2394.875062924544
2406.447234691799
2465.32554508872
2544.6279657412906
2562.3964802453575
2478.566133869389
2370.874961650855
2355.10918890383
2443.686376205175
2528.342575310818
2509.7322569035437
2427.106284741743
2416.375903697877
2543.1796895783036
2732.7979135918913
2874.189339681831
2969.9494341518034
3101.6637543587212
3291.066397178003
3425.37764653216
3415.6130352918926
3349.1547900831065
3401.6283469572027
3585.0259121112263
3684.5021403300407
3485.5044269289283
3056.339261344061
2695.4095714831155
2596.701592529075
2632.0238260326805
2512.8744194116543
2110.5976194153623
1584.4748732846094
1193.6040162824925
1041.1828388107974
1018.9947810894496
964.2629069949558
817.9325143349122
653.2282012828381
574.3838603405268
617.2252662456232
720.5016715951252
791.2950057756927
789.0705648183889
749.8845824027056
711.6162097857482
628.6214670697332
416.5061213096651
80.57905456812216
-223.81411530269543
-345.2615754150527
-307.99380017868504
-294.57099823639885
-436.94770197038935
-650.4450022578778
-732.5516248619642
-610.1001930150373
-423.54689350269865
-372.72600878764064
-496.5497953686391
-653.3671797212396
-693.9829940797379
-617.1299509202097
-535.4334907363116
-544.878592989433
-636.2742182167543
-733.1061573528855
-786.6910388980795
-809.7831997337537
-842.4987938134278
-913.6487939694401
-1008.0914338588576
-1098.8767520196118
-1197.4530579085883
-1343.1368268756028
-1571.1025921384187
-1851.9333046248842
-2111.5492388587973
-2305.9660209209765
-2473.023256756239
-2685.4886618008163
-2957.5218074371096
-3217.7211556764196
-3382.168662181597
-3441.314717987978
-3459.613710549186
-3477.1985708164775
-3452.9775114557115
-3324.4019153210656
-3103.894711412506
-2883.876105021462
-2737.6462675737316
-2640.553684113762
-2514.8941001154917
-2355.0818548249545
-2267.809967839819
-2349.1102145687287
-2561.159245160751
-2765.9621172937927
-2874.643046610676
-2939.0924844574456
-3057.6043898224666
-3242.627240131752
-3412.3679909586235
-3516.2240821434443
-3599.6047265663897
-3721.0423978883646
-3837.1529714166377
-3856.729237859542
-3770.694782241759
-3689.3374931644003
-3704.9886433891297
-3772.7699295040884
-3776.0187244682775
-3662.0378587859764
-3497.605514633755
-3367.306151214306
-3272.9506493039935
-3165.9181912687063
-3027.0915283039535
-2885.8368468746394
-2760.0674350664403
-2630.1219148836753
-2496.897936779247
-2417.433605676356
-2440.557894090195
-2534.312174004319
-2600.7468926228535
-2577.986237329185
-2497.0742009900678
-2438.095112421218
-2421.820583113443
-2394.274295663836
-2301.696287828881
-2154.076025607945
-2001.5557514707418
-1866.9885184702948
-1727.277678282248
-1566.6937231823954
-1425.4495520454875
-1365.6091345066714
-1391.5273025016538
-1411.8571467518448
-1326.7334531842946
-1136.0818396916295
-957.1500253835965
-901.6704780781408
-962.0974928987017
-1011.4422176766517
-937.8949846185733
-758.0183089132987
-610.7321407757036
-610.5281326551398
-730.2388511984614
-817.2368188053033
-750.9925424188758
-565.3203361122589
-411.23163967794346
-386.85685215051643
-428.83028356028274
-392.05745238334356
-230.1413636142182
-63.45565432939247
-36.0701339299184
-151.85756194826942
-268.65012699586487
-260.9973137332445
-151.35139850138648
-60.08897762752615
-48.57290512078947
-60.54616974001675
-7.822331958858115
128.04800923910344
296.2941521065766
447.4738346407542
571.3813872580185
672.0533498184072
737.8998807398314
756.740016727528
749.3660761383896
751.6211204448349
789.7228354813693
842.9350893411877
867.6777058271177
834.6886422084552
756.7937181607763
700.126113245469
729.0697708938239
848.3216212964929
983.4287215864089
1042.5375503806652
1004.0238888173124
937.3256904809484
931.8805411938232
993.369433118615
1043.9420785603277
1026.6393893338472
981.2877557258473
1002.1651302726186
1128.7172653004654
1301.9247378153573
1421.9951398463909
1457.680086983581
1470.847671879607
1542.5464878541688
1664.1895246027725
1722.3815891871423
1598.046623326382
1292.1332702574882
937.8953778147918
665.6698406274634
482.8890607993591
292.7447864038528
25.714879627876314
-267.33417496893776
-476.4548864349108
-554.790382306305
-550.3121356120799
-518.8316038754961
-455.1407994326562
-352.9386427238752
-268.61365437630957
-269.79898443510683
-341.17346476621026
-384.477058180507
-321.91922263501056
-198.4785490721132
-117.53500089640806
-130.62614086454857
-190.7763490792123
-239.907372257294
-255.23665123683372
-230.1722135860283
-131.45181717364449
55.32242904344059
276.84009659833634
433.6940475084656
462.65441398879636
401.16962031622495
329.31047322367556
273.1843511909385
177.14761271519734
-23.506670607609237
-331.9366443661339
-674.8376220087256
-946.7856843756826
-1073.8792260287505
-1043.6654424185572
-911.457310712725
-745.055184579091
-566.3883566119273
-345.2887477758985
-52.06219508330889
298.4599435489415
636.7675971974445
890.1196192987434
1029.5310721013075
1076.7454588763426
1069.6506138715704
1028.2489172230162
954.0727878080938
848.4332818533687
721.5918659632505
593.6540808851419
478.6379384347863
380.0123304692304
294.8225428387025
229.25304321013397
190.39919045614158
173.96942919560917
168.2886620877133
185.8968342957607
252.53442401261688
347.7551377407257
404.75199518599385
380.6340033552143
322.78669275868924
333.9015503161503
454.560253749322
606.7722247500762
689.8618529170842
709.7090216236564
763.6844379889928
907.607325599602
1076.2351853794125
1171.00851705187
1183.904650736609
1183.1394248437807
1212.5867090581296
1235.312990747686
1201.2806439251315
1143.6262030050334
1139.9619023840346
1221.7186272480608
1329.6080330422587
1386.0373177332253
1377.4938268033577
1340.7051362594318
1321.6120110056577
1342.5156312275608
1403.2221772792382
1480.3909244820838
1538.5978021182373
1553.0590005384222
1539.4562812363927
1550.980969319277
1624.0071086309686
1742.4246542011863
1843.247761951824
1878.704214834158
1859.269579655011
1829.2809218227103
1827.180490237251
1863.800084817909
1921.7788153515905
1969.782553053063
1994.6100451288821
2014.8775692793001
2065.780989180818
2157.9932776763544
2256.503524844256
2318.7712738813734
2331.0151461410724
2329.2020116496387
2344.230527711138
2350.371178808984
2288.3022741957675
2164.6508231939906
2066.4569867876426
2097.535439838461
2249.6502913076815
2397.337763938195
2435.43794524887
2400.9342484062736
2433.6215761416606
2612.024872485993
2850.236590220504
2981.9293472291956
2929.3663104875595
2772.0835378605325
2630.4859570465305
2545.2155806022747
2461.683213669997
2337.6543238457843
2212.728969374251
2153.1530481240916
2167.327283061818
2201.2115754833344
2210.571612091407
2213.1667026252217
2257.0144392743105
2337.5146739236766
2389.57310560161
2342.1910785030677
2196.46609547082
2025.253523343597
1899.8346961259012
1839.8351769088188
1811.1596291718797
1783.9445751210192
1755.2611588933719
1729.6993091666836
1704.0118683549754
1658.9959275220158
1585.9621761247793
1509.3071753594852
1462.4507685078136
1446.4984624276933
1420.8514807740592
1353.3832505991347
1267.2104148279573
1233.7244422179579
1293.903898018857
1404.6474733260143
1457.7411394329451
1386.104234665478
1240.3589638945966
1159.2438858407181
1236.329111403059
1428.5697897184616
1592.8726097807103
1617.2856555382405
1535.35604071786
1480.3440575656696
1568.9611885378022
1799.51058919567
2049.1549790365034
2159.7958281803258
2049.227363092427
1766.533097664637
1453.1670376484249
1224.161459380051
1082.9029218640067
919.18506899465
623.6755660613472
195.48969384053123
-234.6928609917088
-525.4770174115029
-639.2582965760507
-652.5514144024473
-658.979113869319
-684.9724435970711
-699.0291446298793
-680.6958172158509
-667.9518033818738
-698.6234097246852
-751.7916796315726
-759.8049934701282
-687.9388479961974
-587.3799497368359
-553.7700052760824
-603.836202034056
-644.625575695984
-569.1986083711008
-373.9973088351944
-163.88061200017864
-45.118178858825786
-25.161951567359893
-40.74867736637714
-48.21255834505973
-69.34390820016586
-145.00209776692645
-259.4816736822037
-351.4279095405743
-390.97594473232994
-420.8538238981123
-502.8661108076433
-654.1628330278372
-821.025803004582
-946.2575960423546
-1026.6583540285578
-1100.48287166715
-1200.642017511445
-1318.6303150956526
-1417.3951663685154
-1466.6391221334386
-1469.839196236803
-1445.7798185299716
-1419.3669625411185
-1407.9529972098715
-1416.0170009499486
-1433.8176933359775
-1453.2872178221314
-1470.8120295227882
-1487.6567613018262
-1499.7775440407918
-1501.279238862887
-1478.034838206395
-1429.9861182092518
-1384.2478335203502
-1379.6016380924675
-1429.568639828867
-1509.1455004238778
-1584.8494944994918
-1649.2696846109345
-1727.3136286434997
-1823.778740305846
-1905.3275700731424
-1921.2036955318788
-1860.9413768992076
-1758.5888911204693
-1645.816133058358
-1507.0024494398501
-1317.7838748402078
-1094.682772709812
-904.4338821895483
-802.3464304122112
-774.4302029172318
-764.0778542679476
-737.6520909195742
-708.4364051615651
-706.7114393393272
-731.4149668077309
-757.0994503390107
-764.9360898819222
-755.7749809211197
-732.7494223627838
-693.7650198196336
-643.9587704676626
-605.2156655068162
-600.5866247414026
-628.3486604204584
-663.611684564911
-686.0312749743912
-693.3069069462317
-697.985987915168
-712.1875038088914
-743.2266155972602
-785.3816402589136
-816.305912723133
-814.3385512505843
-781.831018783028
-751.0857410966353
-755.7430434473845
-779.7233065794968
-785.2497570583041
-756.0016882356043
-723.4223712068999
-728.284966445071
-769.6152206904599
-804.8701522715106
-797.0675140850545
-746.6612382219946
-679.8744719947256
-616.3915068314678
-564.0827431513314
-522.6392289748244
-479.7975452045581
-413.0749973404395
-319.51006928688105
-233.49280097024416
-199.5271534040961
-221.05529076018092
-243.01101639130513
-218.90632276100678
-170.35982342536147
-160.43936208557625
-226.91766537786623
-323.1723197118555
-378.2358280969703
-369.261334071296
-352.7781573321721
-401.71551936300796
-521.9213810331634
-659.6676332303124
-757.1423830975173
-801.3010983573093
-817.0679382234466
-815.8818826640055
-774.586854783747
-685.9119752187705
-607.284676998489
-623.1029308128403
-751.358886281645
-898.6367879489922
-953.3705585903367
-915.9813361966096
-915.1435114968938
-1054.9484000627301
-1275.4992412168474
-1397.2098051839139
-1319.5424586201782
-1127.5071999029174
-987.3576951464531
-979.5827497027005
-1040.4835497991176
-1074.4169340833312
-1064.4990327254466
-1072.5948117984626
-1139.3551283306936
-1242.7311234155468
-1346.1450586169053
-1433.084424687992
-1503.2271636423084
-1531.840216768001
-1474.3607893830117
-1313.0798453460998
-1072.7787276884035
-804.3174780782483
-551.5234028107234
-350.838440488875
-225.7226656539067
-172.12540863323375
-156.98965010328993
-145.6010195110082
-142.40938461618998
-190.03768947699427
-310.2004983921838
-466.92094096601386
-606.7187491874574
-717.0497723222015
-828.8280260514857
-951.1618696358883
-1054.1851769814616
-1101.9477161342197
-1112.9233222733324
-1141.7155107824533
-1196.233269973976
-1230.6789819832936
-1196.9540599820166
-1113.40044293208
-1030.7075929888001
-967.7920892978293
-907.1652540046298
-833.9158034162747
-757.9421390863122
-676.9312910428057
-583.6626453708736
-492.0559171554978
-471.02851669765596
-581.7897086824169
-785.617450991484
-949.6486303230104
-975.7882131567985
-908.9387944011137
-884.7696520194154
-972.0336560502092
-1107.7117822965138
-1173.7586573058293
-1137.0881666012106
-1061.9454865225252
-1015.444812174394
-996.4060390747443
-961.7039736741826
-904.6967653611628
-865.583794500023
-874.9789615536661
-897.5128136739486
-865.3755626529685
-758.2985022607013
-642.4631100678162
-600.8419463759901
-642.5973225484329
-677.7579968406071
-613.3737994227149
-454.86818542826245
-303.4720398793322
-258.6355891435337
-329.2982773414742
-432.50755113997866
-485.1390955453294
-465.1147808633302
-404.5118103821692
-356.4354788622263
-348.63944972046284
-389.75730059986404
-460.01897273468603
-520.0781899962931
-530.2028576726691
-479.7143057609637
-398.8215200951819
-330.24341196227385
-296.7436881309977
-287.1827171432384
-284.30718223712427
-286.8805094796861
-289.6534989413751
-276.0765532154261
-234.29123941817818
-180.41418128070325
-154.95299135531343
-174.67234697155948
-199.27024087058635
-156.42345922467996
-23.161622075175956
146.28466588242873
265.10982886145143
302.2555064918438
297.82882343771917
309.55281454227224
361.9226817110325
428.30899478018057
464.9372681706851
447.0393130276858
399.41267153411275
383.33787062255294
435.07292787623055
518.062742156923
548.8946233895869
465.2675986190817
302.9744579828722
181.8896185153252
180.58172688152445
250.1718844360886
257.44164263838877
145.8314643878075
15.967439469651026
18.454963422699052
193.40623278033092
418.5525451161484
543.0768688764199
528.3245499919637
436.91279583111805
321.358295104298
181.21115369709696
30.199040280954932
-43.854682745869354
43.78926078805995
257.495548986775
443.46168002973695
506.535760076178
516.5062094417013
612.1009946719693
823.0746811749045
998.2791294877877
973.6041082373625
746.891653798255
472.91908871525663
285.963027327616
191.13684529678756
119.94611151579966
58.57093038016524
57.20040888531025
134.9961753957728
237.05735950275863
288.66079628755733
289.15375582047517
286.8420192808982
289.7116870909841
252.9696348027157
157.7799448762006
65.07781995751458
29.347006042183125
14.257239972934258
-52.56323393415954
-152.23055209955305
-166.65565476074244
-28.31610114408437
144.87634218272586
154.4780141965938
-52.95694100714513
-307.5994319927604
-394.1753203872405
-280.3779065571163
-130.8722071249274
-111.69068466039334
-227.32308656582154
-353.3877635167663
-380.3498297555733
-317.35860831948173
-267.41620977038565
-329.8679993359136
-512.7330541544147
-727.0346180194547
-872.9150311838132
-934.5476131813884
-990.7000114601797
-1118.0355939556541
-1294.0069805845744
-1420.7406389306948
-1447.5968657209582
-1422.826937104004
-1415.0580934999962
-1412.010835349004
-1363.2070185564037
-1258.6129700666286
-1147.761743909697
-1056.3368559443823
-941.5591460470555
-746.6499649574896
-476.334578363058
-200.21387835051974
15.007434582577844
149.51970372121036
212.68054125695767
227.61673486807354
234.03084201512274
267.43327755815574
324.82366092084544
341.05372268497945
255.99238797732437
67.8944524402865
-158.37997898609797
-352.0708701310503
-478.2165511084246
-553.3964963933663
-637.627433173393
-810.1002906250086
-1101.1070020353925
-1428.100840617793
-1640.0153755295014
-1645.2896661681557
-1526.4187784450276
-1473.6300164429535
-1582.6874933505817
-1752.3288982433432
-1797.4490734443757
-1665.136412131871
-1477.4200883094136
-1399.5887442768312
-1448.8154918304494
-1491.7058110834137
-1420.657478930681
-1290.071777092994
-1240.582727994455
-1311.1921401408774
-1389.7845301769125
-1345.6084271680988
-1204.8401352032802
-1108.8936150792729
-1147.0374622701854
-1251.3594188110237
-1290.5781862024364
-1227.300635033339
-1131.5685434083593
-1064.038068423603
-1018.1281919331866
-969.9846279806743
-963.6489485297966
-1040.2373603358078
-1151.535625897968
-1195.0850778218257
-1146.4099085814005
-1102.8471214411206
-1160.5705979644886
-1264.2141033392093
-1276.4175993740312
-1169.2229325117003
-1067.550810875189
-1079.5585663474674
-1134.9237757822493
-1099.5262426901443
-956.2018283839863
-850.5332447751192
-884.4819607368441
-1001.0744079577835
-1063.797148014226
-1047.0210650564516
-1063.1283247864858
-1203.4539390800624
-1420.365143491075
-1593.824521668413
-1644.5790186899437
-1591.4904787924834
-1501.4692239565838
-1423.8229147338504
-1404.274238899217
-1436.4962781387803
-1441.6394177473987
-1353.7042400069877
-1220.628091475454
-1199.4806694480872
-1386.1768915752937
-1666.2063853120387
-1858.3342693038994
-1932.1266326937507
-2041.620705217547
-2291.878003097394
-2554.062140836156
-2600.778031596383
-2395.5107864996316
-2154.7947434490375
-2076.4194755921153
-2112.0672914779734
-2080.042959867927
-1944.2141829084694
-1855.5136006840407
-1917.637594210899
-2013.9905136583725
-1974.424912419042
-1823.559408520673
-1766.439066973321
-1917.400624557371
-2114.3344788878103
-2101.268481061851
-1826.6327411521916
-1550.6579445558348
-1574.9977581589442
-1893.175508877842
-2190.1948847414565
-2153.663654622502
-1795.9584514684957
-1447.1398248304206
-1393.0723903579683
-1589.641712034021
-1748.5289207348299
-1660.7538301175668
-1416.4802078653797
-1241.5908950250925
-1195.3980198130612
-1136.5876522006165
-980.5057966722169
-874.1538308800559
-1013.3792191567495
-1337.1136232795097
-1578.411098065861
-1626.9763482733333
-1715.4244234061107
-2121.496202239654
-2760.736914041679
-3219.0413710228368
-3197.6848035327444
-2838.2609234288443
-2520.77935202532
-2406.4561502646193
-2322.070380966808
-2053.4588784863536
-1627.842993622151
-1254.9838921760916
-1069.477357473289
-1052.0272343987945
-1120.1469594806706
-1228.9592660819221
-1329.7409091054576
-1337.338936985903
-1198.5654806926573
-977.1709725954388
-807.1316461246583
-745.3747605333704
-695.5567173130298
-519.4815328474197
-221.35718507440288
24.63579008427905
25.563761812968096
-206.4168308180174
-429.9553004979582
-398.93476395896596
-108.09909371030926
185.61404242879644
208.9225452441076
-40.01781818006975
-292.5565653186452
-299.2853777165933
-117.40279285321412
-49.76231721428803
-297.458614779463
-726.3561122377896
-967.4579862182818
-791.8392683964098
-326.3236822309027
106.92923116640713
311.3665270473448
374.5264171032263
512.0004722563726
805.1299244808101
1124.3449904822387
1303.912079805515
1327.4498242099976
1323.4401824632714
1402.599729593158
1566.7494011468052
1760.7057809052026
1958.9450671921995
2159.1173070854925
2313.2043445269055
2351.019814165606
2294.4666902900703
2278.171811226361
2390.096241794672
2530.10076759205
2483.462654107996
2180.4891355212403
1799.2774638428764
1575.4366439189846
1545.5664663041425
1522.7436220830966
1339.2241740728512
1034.680255111898
771.6652137563938
619.1378824632839
517.1558794546559
419.89374896301433
382.4217183158421
462.66008530151305
597.2382978746872
648.8190915868737
582.4677863439729
511.08405407321425
563.3263956095279
720.690344408411
845.4845050123978
824.9284406140467
670.5975479797019
455.8179731308524
243.0038911773513
87.97603562284695
47.85328866312892
123.7244545638286
213.08632384628854
185.18064096036824
12.359888217801739
-181.28335430738684
-245.814025728403
-178.55290157363294
-112.51757863443319
-151.16293900618552
-272.5945336461443
-371.84402217726176
-383.8798079604553
-338.93062598385586
-313.37211986924206
-335.3141821760196
-383.6376024688967
-423.6041774309964
-444.06846603272027
-459.59515260486955
-476.149067342483
-483.982223665726
-459.3106488839893
-392.3819433617332
-313.31550177111285
-278.7334703866211
-316.9218278230418
-395.2209332547642
-462.46618882473024
-497.3417605780005
-504.3064625352066
-490.5084519973823
-456.2049652688104
-416.6847536812609
-393.3251510146529
-365.30562492300714
-252.98905812049816
6.297347641525448
345.485052326369
592.373564971092
635.9903027883461
563.5779550487605
569.6101346112289
724.604922061173
883.9673020752512
859.4393126056877
646.6307109498755
445.5200924586129
435.0795749726053
586.2726242055367
736.7705548852014
797.1186181531968
817.1193229378184
882.342345711666
987.651894639637
1060.3728796194387
1061.6033245178858
1025.3309498945239
980.0099758500096
895.4652065499981
734.5766481621929
523.569478738815
336.63258769417484
227.9832300008229
181.6224291219155
171.39752599027406
205.49550835098603
298.5084058716743
452.22882584650074
625.3409593190486
767.2918412507875
861.2349183410092
921.2918589063443
950.7441585976235
934.8971726290117
872.240909015967
790.1483123074065
717.5806476560606
677.5066365307953
667.3756810669502
682.0054985389374
717.2611128962544
772.0438656801739
837.6316293126515
902.5489579903497
949.3780824793093
952.0061942089246
885.4017235393992
752.3953135279869
592.5873915001928
470.378350789204
412.7266379128869
401.6184806722157
408.25948918917095
424.2638536366135
460.47232182892833
511.00234797626945
562.1473712917305
628.2957153808904
745.69168416403
911.9381561318849
1058.5558876738887
1115.5050286627325
1104.871450288909
1127.375514315827
1219.7787373281606
1300.6176415670816
1283.880983199335
1195.1823765069346
1145.957561805628
1169.0122043313272
1157.9658260698761
1005.9522468580533
761.1512617990336
589.7379192685894
560.134709671707
580.7506484739562
557.0134189111794
523.1891760990322
581.4402801204357
730.3765892005167
849.2280792517785
854.0564130252413
816.6517948108528
856.5268436984741
973.2071686503368
1052.8216695800154
1020.6534293779758
949.2861922626987
966.0482222979222
1103.9446394887905
1272.7133800438744
1373.9692456607088
1397.6468628985722
1407.6194992495525
1452.1889522681947
1510.9435993524185
1522.2025990261861
1460.628605255201
1376.3107366482973
1367.854524733938
1485.8332375061968
1653.958842820249
1726.6440546314275
1667.1579255663762
1635.149154164159
1839.1011417242828
2281.5026306713357
2694.0633283929446
2783.6231536104656
2545.061233918556
2276.7333301042427
2274.1435854568062
2528.734115508479
2754.3049976193593
2712.0838022909197
2435.2793726103428
2144.7805837347305
1993.1358988532625
1951.9235043876988
1890.3433278240987
1729.7321756674944
1498.1009123194392
1265.187642084214
1069.7672529150607
926.5657837718506
848.1145373600501
849.6216212162637
911.689715838794
979.2385981418712
998.5611695136326
976.0104413631637
972.0560232091672
1041.8392685563372
1162.3604584565005
1240.681562221911
1206.9210501382684
1098.9593542757082
1035.371064331054
1075.4087396080004
1152.3343765665863
1151.2063129548437
1068.1971015572044
1035.0220700985687
1145.321458545298
1328.7336827484537
1412.555837564704
1350.0303714543575
1285.5096815288177
1387.6848531542669
1615.062370558216
1750.224815113828
1664.8982710601965
1481.7041139744256
1429.189979750115
1560.1030753724485
1674.2906303167683
1552.9122339959415
1224.242569348805
943.4800594800645
912.1519175843441
1068.4105361614947
1160.0843639195677
1037.0888755955148
794.4502012562174
650.2017768092809
685.5345015861143
776.093560033513
742.2146149710957
579.5053737001172
446.24129488830556
459.8727919319507
553.4798065940215
570.2203563377445
483.33580945684685
434.68188450803314
542.1639725863631
711.3798232358405
715.558200033026
481.84412398885786
190.99998973970457
62.52352500855477
100.50014020507831
119.15797491430646
-7.841911073368465
-191.96251292183558
-262.3283326692781
-189.65736834338054
-102.4607269074022
-108.69768194243352
-168.83101918764578
-181.93015523418774
-146.1555823052861
-150.68450509871377
-231.81266573829657
-298.433804453205
-242.14326585786932
-63.89381247341157
125.63886559686796
230.91335417786627
250.46210192140984
263.20957663066224
336.09420704786885
459.87682348945987
542.4804265721439
482.44666124212597
256.102585150816
-41.07033036049995
-231.08121510617957
-210.65593446082312
-54.032782159642466
59.58688628055478
48.93623108159636
-5.586289492602191
23.55502153122859
156.32859879463842
286.55120189350924
324.494939052346
308.5794074403666
330.4713251481303
407.8852567904503
471.420032503128
475.353276557811
456.87886636494693
494.8628812983239
602.819435266536
725.8272201740378
797.1406161350772
807.5370802263693
787.9530438245963
762.1720502621467
738.6474428614988
721.5247266608551
710.3393448237434
695.9106389194518
661.3404528217178
609.0136710477567
572.7475219873063
579.2455750719603
596.3732399791492
552.3609269398471
417.89804012782963
271.46744021340567
253.02860411414753
423.5194634263589
662.7741590691418
777.3887817895206
708.8890163933875
613.7794387003958
708.2929747975181
1032.9272739228036
1379.4229342857107
1481.7896229650814
1281.8613163013656
993.8848072079751
894.2738054431172
1056.8848926735336
1294.3896458679342
1364.1837511714994
1214.179382520674
1046.3860682665515
1081.985665628569
1309.9885738216744
1500.3905304257842
1474.3027833161514
1297.7135555399602
1202.2748057778385
1287.823887882503
1419.716302866066
1406.2434945773866
1243.8482789930765
1107.9288987066504
1133.4007176550856
1270.513651394242
1388.4068651231935
1432.7884235998204
1455.6596390072202
1502.1237873217108
1532.2902414238051
1501.3844715398507
1435.1420734695475
1430.638211977749
1549.8024254510551
1756.067298373996
1965.0193723980244
2122.4244864730103
2257.0508321950247
2462.9450417656217
2786.465451151289
3137.2027803830842
3318.9085787533877
3221.8625367613595
2980.2569785051983
2863.816556249139
2966.9712613044353
3072.411863203739
2871.8184636431693
2344.2478561537064
1822.236301983329
1639.2926633584075
1755.0447481763927
1818.6819427799846
1585.3550222393799
1175.2759429720754
919.4380218112835
979.645274038277
1196.9214956205492
1312.0783465272457
1247.5978880384823
1133.4950265695497
1110.257513015294
1163.953420662875
1191.1659904740882
1143.5643522410078
1068.2103222274063
1021.1289001423752
979.2417545959192
885.4209411834447
749.9646128493027
666.6460043469931
701.9319300021266
806.6008419605278
867.1810856515847
846.016896116063
827.297792990229
911.6537297721591
1075.3144871565978
1180.486776611418
1120.2380483751544
935.0273780584955
777.1196276109713
750.9888508787935
791.2057429298652
749.4433131707494
546.98891011869
267.5149465331425
70.337779902884
31.125232732914583
77.0245273306939
77.98004246372511
-12.069890522786864
-105.43639900539085
-102.73889738751313
-11.062237797401394
59.79256171664758
28.76938621562067
-64.37333337564826
-116.46899473593783
-92.20381893413878
-80.13005430689964
-176.79871675960612
-352.9959473247011
-481.62780175222315
-484.47801987962885
-437.75353188651525
-485.56058917639143
-666.6367056914028
-865.7832659928623
-936.7671306629607
-874.1362832909134
-816.7217645052243
-872.3820002699829
-999.7827891646632
-1060.3459214416048
-997.329232802547
-890.2154850013977
-849.9819104382418
-879.6656714053383
-898.7316177401625
-868.8410059166147
-862.079083428642
-953.1906197037073
-1112.3268523768634
-1229.4405016228475
-1245.3865935910994
-1221.1533118885077
-1249.5608921113503
-1341.1959139526775
-1419.2588696197322
-1403.3592552368582
-1273.3511958433382
-1061.8828663801505
-820.8661846584844
-601.6415739883591
-458.49054317379444
-395.5682377914148
-361.6513241569055
-290.05810075937075
-187.39590190908666
-136.1173981416007
-208.99021589497875
-383.98876102951596
-560.8983611488964
-653.6698880240232
-653.7674449523286
-633.2002026995167
-671.7964608120695
-787.8134422306925
-939.0065053207247
-1053.0214405326994
-1089.4473824439667
-1079.0050634889399
-1097.782634465528
-1180.8622182708114
-1287.6654589874793
-1340.6395376272014
-1316.8276646589336
-1251.1152355463278
-1175.7715489184388
-1074.4994742215085
-922.5932338281523
-733.8324071567715
-570.8641959406166
-476.1680080035247
-422.0477150722353
-355.87719810166993
-259.15312536849814
-159.47106465402027
-79.9014262958738
-12.903601125761952
45.05332031966174
86.01964860587833
98.66020409287802
101.61323792253381
124.02896228924277
162.01355916273653
180.1703039830938
160.0805204481935
119.87819612334285
99.11891115794396
104.88375091674035
115.61067813971215
114.0615521835366
93.69590730054313
43.19392694648349
-42.751271044745806
-146.1121539240669
-210.69025985117082
-191.3304248959127
-103.50316025483727
-23.110374619338813
0.3574645888808732
-8.187906913346467
25.217976454802226
146.2959931804753
312.0348159862971
424.4816289734041
426.0137593116701
345.0671095115858
267.59940574156934
271.33173850146756
346.2507271829959
416.8973193184512
416.9716177123952
358.6456485219666
320.9738068275948
376.8026164204005
520.970964711132
667.9694423805023
737.3291057075824
715.9642803051306
655.1635685416695
623.5732695771833
645.4511435153004
701.4792594583924
781.4693189287796
903.6988760942079
1098.2667773464057
1353.025249673829
1600.3071412010404
1774.5155706296944
1879.929837159806
1962.137146945519
2058.406353404361
2156.1711786912356
2219.958657659229
2221.3948794348134
2155.687534441615
2000.3662413817287
1765.8154745399552
1520.1026498673932
1337.1537409409907
1216.1732290237103
1064.306194499115
802.0726583608725
472.12236960719906
202.79687939122266
64.41755646271542
16.263412465458714
-5.052523637737693
5.532318655767142
83.68186931012224
193.1399461721693
243.45956209134295
205.3244986217403
168.1411991292856
221.43016303927527
317.9629296834698
300.2318648594103
82.57442043691799
-227.32816569297148
-433.1223416583432
-453.548207254005
-389.2731263540945
-376.9331268635194
-448.8252940424004
-523.231846564244
-546.4086430474257
-557.713382215458
-604.0020332279616
-655.5978567034917
-644.9636207269742
-574.5596308414526
-549.9372641093817
-650.5660221233022
-779.59133865574
-750.4190828882672
-519.0147275699579
-270.02477056552686
-222.0100824019899
-375.94840690512524
-522.3965527751336
-494.3127635884542
-364.9956177640537
-334.4276480557278
-478.7356872390325
-675.001873948798
-762.9991841693641
-740.8024720972712
-730.5891013911711
-811.0786889546707
-942.6486704198927
-1047.7621681629794
-1109.4434071555506
-1173.9922104721718
-1280.9898726091374
-1418.9635062418536
-1551.5519848228882
-1652.4156615506631
-1709.6552296297282
-1708.6252416269117
-1628.8909145453858
-1465.8261285217113
-1258.0909035392663
-1055.8104936102382
-886.2387288666141
-727.0983328011617
-529.7922295554149
-299.921683089552
-113.01543623625207
-56.310730703325476
-137.88534349410435
-267.98584799364744
-351.7592228277847
-384.1556307119269
-444.8172760653808
-596.4852146012877
-795.7489309826718
-923.2906144449785
-912.0522261365255
-814.3156178290128
-755.7206751773654
-800.2333776486099
-883.5480787204704
-884.6547939079015
-760.0729946943272
-609.39655484068
-573.4209332767746
-673.4997007602827
-775.1741185484991
-744.3909418587999
-606.092333537864
-508.2525837143371
-525.6414044430862
-566.6652680304333
-498.7554665820386
-332.39752106672086
-206.1180582767687
-202.86059374582942
-225.382578213648
-125.66528082999889
97.67391905230795
298.12523221986214
357.84917517063616
316.4092261698097
296.4531377165333
344.0286249968753
413.8500936721325
458.5257850265299
492.0233817900842
540.7410126219957
575.6746141780006
553.6015317609393
491.09103754590467
447.9525426721778
451.03337241489425
459.6914820289529
434.4987476365727
406.4992545311287
431.8670147834947
511.85355265093034
580.7454383204706
584.7048164636929
549.8908835360023
551.3629355720686
626.8720804356465
721.8023675386496
749.5481637179685
683.0682097126158
582.2737017628726
538.28189143545
579.3070057059898
649.6896776980979
665.5223818617078
614.1769657971387
588.9628659966866
679.4940248747275
863.3959697250586
1015.05458006943
1035.496072791914
969.1780234249214
938.382121937902
983.2217658827866
1017.6794183066306
942.5478542618853
790.0875688618133
704.1899705236785
776.2501954098464
954.6568858333467
1107.369917793832
1170.4294657956098
1190.8004307396943
1244.648694223147
1344.03310133048
1432.8087065563204
1458.4310288994643
1431.5230258370361
1402.7017830665227
1419.8837209226458
1483.3946173233676
1543.8623341624207
1551.7954031681973
1502.8991122346583
1458.2781054786733
1487.2514493542851
1598.991462964539
1737.4873487896696
1845.391333088803
1927.817820359867
2033.4936897085533
2183.597801600688
2346.4836844574147
2490.5005213484574
2632.773140770887
2813.428628606186
3021.8927542684064
3176.6693335244954
3202.0461795777974
3091.761763698493
2906.4609562197656
2699.2329867984718
2480.335916759326
2241.3008652962917
1975.2395206647373
1693.46440499122
1420.7061581260373
1196.6162731932866
1067.8369812476237
1048.2132863275428
1091.5501509177652
1124.756609063791
1127.848387924764
1150.200801375116
1241.069640813733
1376.4704387550723
1476.2355697237817
1499.0068930165983
1488.8782345840818
1515.2684741312644
1576.0017876875206
1599.7417459555404
1536.5948632182974
1427.8156803864672
1369.4662102482116
1426.1717485619615
1561.2471438999712
1676.211157019152
1694.8250098989956
1625.3997292926933
1539.4671906746257
1494.7824266599932
1475.412526897254
1418.5822634564543
1299.5524132414719
1168.6069519165187
1089.4371535355306
1050.037837688636
968.741264985164
810.0474771688987
659.6398461280014
649.1555988638572
805.6323458058299
1009.6304461851452
1124.8878097814809
1142.6199327403028
1168.4638874554755
1291.327998514123
1484.6680235200276
1640.3191492181365
1692.5943936634035
1660.331481433505
1605.976051820142
1562.8597691589212
1518.8643387430104
1453.1084423104553
1363.2052657429117
1278.368652183416
1221.2361689597544
1185.649293885711
1138.0411296917678
1063.9923545870995
983.0069629245647
941.0043027098023
941.4716097652542
929.4741857270192
842.278680669532
689.7711030774033
547.831612395298
487.0002484567872
492.7151807815759
490.19155283537407
431.97881292150333
352.66645038168986
324.0452333059423
370.1936248090851
446.29280125921105
488.01654884479717
470.03471109773113
429.30009041924404
416.2226082060065
454.15138549141955
523.9894049778954
576.9874638161389
589.4537884988318
592.5797139143212
642.112419107336
764.1811526178562
912.7462675739342
1017.327091668782
1047.7916776205066
1053.9329636529728
1090.7612828230313
1152.0913271535765
1182.6845338818143
1151.5997023054103
1089.4921302157768
1047.8285156014895
1035.1529111415857
1016.6067638138202
965.7908149436066
896.8649445121207
831.9589384438484
765.2116684621616
680.5579241996405
584.2900193004533
511.26837515176726
484.48239474284264
496.66014504635393
534.5505533852138
601.675684615248
713.8522485202095
860.62609403101
998.1221490401811
1083.3248241545111
1108.6915076051748
1099.358667744169
1076.2821987650632
1039.9949752186815
980.9150751946178
899.7937654315617
815.4294030858957
750.0459048199227
720.4894893973025
725.1453005897129
755.7256193941892
807.8342293963542
883.0831568113512
958.2740000963581
1010.7669654974978
1025.155825670734
1012.6168977998356
999.545270228999
994.9526488421027
982.0885976350057
957.0033644169486
938.4213415339746
941.6962780930226
952.8810253656753
933.0611169867162
878.3308159253761
832.0226296819292
833.6752149006093
865.2425080351094
868.6919714808027
817.1379512788287
757.8788443880956
754.8040999547572
813.6402858648178
874.793378963207
880.7076162383689
832.9092358476536
785.1076770023901
791.1764403664582
853.0767874331501
922.9544455294509
935.8200245548994
847.743630991772
690.2161623059535
556.0378662630759
523.5795226175208
571.6547431962705
582.5138397784332
464.342990826429
257.88672381846897
124.43438167830277
180.79852557418548
382.1673301256526
577.9498402894585
678.2228788756161
735.6549033740484
873.0629427436763
1126.0141128114128
1402.726226910449
1581.112840729565
1627.818087983099
1617.489171633367
1631.6764853904344
1670.9908789194503
1663.7587467879841
1550.2971092270946
1342.4446955448652
1116.1040974624955
928.6505297266131
774.804914156111
602.8506208992401
368.48863209388213
88.375505565747
-171.90789971854372
-343.0063569384032
-412.86118126466744
-424.9640349249433
-444.0153715282088
-500.9556709960243
-566.8648041267601
-589.5012806288638
-551.3813028739238
-494.6514883447435
-486.4798185574291
-557.7996800109349
-672.505613134819
-760.8600733886597
-772.9011354212212
-715.5095645899021
-638.1218890312441
-579.5302984752768
-534.7136125178149
-465.0722922060464
-353.1169470879878
-234.65850208609686
-159.0052466198075
-148.89719383916713
-194.80689422686805
-278.1459643788604
-399.9144893059366
-550.2976642345076
-684.0736027197177
-752.0901897569818
-752.2050199185228
-741.4224479679508
-773.0350941406732
-845.9495455094207
-903.31013389401
-888.5894952129418
-799.0523761682489
-671.8171792785797
-565.9639840946797
-533.1753775014529
-593.2021818766968
-703.8359096321692
-780.6659387669752
-763.6210185197317
-678.5413691574877
-615.4063508454983
-636.7089607074374
-713.0816131629513
-770.7812892374127
-769.783641030813
-736.3717450025079
-723.8552606406515
-750.8058967541506
-807.1987141124596
-876.5915996616839
-948.8278628615651
-1007.733633380177
-1037.04868255139
-1030.2344952185967
-998.4341106220481
-956.3287653570246
-906.2288732975551
-846.7357568858613
-780.96314145048
-704.9605138013603
-614.9891256584464
-514.7928980832021
-428.8673370840488
-385.7184930404137
-386.4792966465793
-412.51645089847057
-442.8060866272102
-468.861771079401
-493.8594704010429
-524.2073518370548
-565.9170691359727
-623.2513632664497
-688.497766731438
-744.9770821320463
-774.1643452206072
-771.1879009090717
-751.5834233795049
-736.2722398090881
-727.9704027481637
-716.2651172673689
-694.2653661374517
-665.8695771169964
-640.2882133846688
-612.4342661435137
-574.0593973216756
-528.2897715495401
-489.0799907999193
-465.8133706445691
-453.76358433651444
-437.42056273750916
-413.2241905496826
-395.35967458665436
-399.83816187178536
-427.8112357116113
-462.7305244586669
-481.63976909907706
-478.0110908529698
-466.48664050409695
-463.59829986220086
-466.80377133750073
-384.0958033180237
-431.96454215297297
-384.6113266941976
-333.4146910897616
-291.1351569105255
-251.85368458392617
-205.147181794812
-152.50450482752234
-105.74480942798164
-76.96087953400229
-64.25193722835883
-55.10843582675727
-47.292589330437636
-48.32118401178093
-64.94090148645512
-94.13072209490008
-118.52449937885478
-124.23686009646622
-124.1832980370666
-145.37504569497116
-205.44640226162898
-280.05955376389306
-331.82416491219215
-354.35392728449295
-384.0702634125322
-466.2320186222427
-592.1715502102697
-705.2325794941179
-762.3064140250214
-784.1323467209861
-817.1469227366747
-859.2677320404468
-846.1074288974094
-723.2415720389257
-514.275738064404
-293.429039066913
-103.56888167398245
75.11648434243529
269.2074811592476
452.39210964882307
565.6588282738742
585.7015623143554
535.1251303411145
433.00284028065505
274.8277491435694
62.68093851660643
-150.64692911888352
-300.46209030788657
-382.91268302870503
-451.7739924674008
-557.4299624572113
-689.9159333176173
-798.050312327352
-848.7664329441845
-858.6830204733651
-843.9405010860513
-803.2988522453347
-719.8704687163527
-597.273172579266
-459.64286364400016
-330.1952277240174
-228.50804060801738
-165.9218434444872
-139.6758940550793
-123.23972627932608
-89.79053380836649
-56.80930467391113
-90.42636198018522
-246.5281012067237
-503.35991865490564
-761.2115778119878
-921.0368369368667
-986.4033380995065
-1052.5681657906703
-1219.8259024742115
-1485.73282232064
-1739.0493884027444
-1857.3995701952363
-1819.428838792656
-1709.98921397963
-1633.601624121358
-1624.1847595309807
-1648.4308029171373
-1671.3411655090333
-1697.2826628449588
-1751.1429032494148
-1843.6836085115265
-1964.3834743199343
-2110.852462469831
-2288.3545973448445
-2488.635252445868
-2659.208752708444
-2745.3145843445627
-2729.7061953164302
-2649.3291628517018
-2570.766470929504
-2530.6531253509897
-2519.0245220886286
-2508.736655335018
-2484.9924775847003
-2464.7379802874057
-2479.1707754426748
-2529.98970552679
-2570.9120932284877
-2574.6081647850706
-2566.421000803265
-2610.339917869936
-2723.703974980147
-2841.392063081206
-2883.0241086804485
-2843.9446398127498
-2811.376000126973
-2852.4996590960013
-2940.9662927693284
-2992.564153641285
-2966.879541244577
-2903.5376466331218
-2857.516730016256
-2841.053539830071
-2846.903252559535
-2872.31947428304
-2910.613256749489
-2932.17123341344
-2898.960750977898
-2829.547493601101
-2799.881069952533
-2850.970651697681
-2912.710617067095
-2875.0007479327137
-2708.5382070703463
-2524.250971311638
-2462.4531736509925
-2518.948788393369
-2541.9736191042603
-2390.137980243764
-2101.8985302479177
-1880.0609789100668
-1905.2950220240787
-2165.0168861637912
-2480.3813785965053
-2693.1371324934207
-2793.8623131173576
-2902.9934162948116
-3124.944851291768
-3428.7105308908585
-3694.7678145456903
-3818.3032324280343
-3792.4385746510443
-3698.990573250305
-3632.9916520408906
-3643.2689894868827
-3700.871637658267
-3736.701640302416
-3699.3021249616572
-3597.166511175431
-3503.617611708219
-3483.841853764719
-3540.4219295876483
-3622.3154944346525
-3665.530862032829
-3667.392659598822
-3674.741824604976
-3713.6346856704877
-3765.7750639105416
-3781.3352337944534
-3739.6531627661097
-3673.8277369152024
-3634.7417926413787
-3613.5661010686435
-3529.054622273318
-3348.011551497422
-3171.3690572223313
-3170.4647215531563
-3388.8406333299354
-3630.675304424498
-3628.462064965552
-3332.2708199328463
-2980.462197344704
-2842.4313084566493
-2895.2075827964477
-2846.091646706061
-2475.6271788391605
-1885.6697581171838
-1401.8373815312461
-1243.6583699936211
-1374.5636809535827
-1610.9173227407118
-1808.7802384028648
-1936.9412672768408
-2007.5432918695042
-2045.4293912775152
-2105.354953659531
-2238.0993950665693
-2428.0006073590366
-2568.4953373942344
-2555.8003334437312
-2421.2735197254797
-2316.1470134019532
-2354.701547439492
-2494.271326296545
-2574.5203079079038
-2516.3027734714583
-2396.623617868258
-2347.897482972233
-2375.9110638006846
-2356.2956879631874
-2206.543151350887
-2024.1783694083192
-1991.5348370249083
-2146.81666589564
-2294.432297014568
-2216.9324064027787
-1949.4357595422039
-1740.4771849169567
-1745.685449136201
-1839.8746043746414
-1797.4755801396282
-1601.9046589400905
-1447.2790073321848
-1478.2747850781036
-1611.5027108691374
-1684.8587903677153
-1696.3192387433255
-1774.9539038398104
-1966.7282456242453
-2119.406237909119
-2094.5602211151927
-1957.5088172506184
-1908.484117702424
-2026.4843093577038
-2202.5664135332772
-2182.7415695583686
-2039.7599814463683
-1872.145730085427
-1792.5446240364165
-1814.2417973458175
-1885.7799958215446
-1956.488490254765
-1972.9247141225192
-1896.803181065391
-1739.4977307680085
-1573.6463485786105
-1473.3085951954085
-1436.2159027296757
-1396.3298279151236
-1298.8978376400855
-1152.1179048647325
-990.4475598447622
-824.3315122266652
-644.8267982487398
-483.5955516306244
-395.51674662121786
-402.80212441918957
-443.9644236454121
-438.08862222288735
-399.27784804293196
-424.0870038800017
-579.626448388666
-809.0626596640841
-976.0640398823314
-1007.9086574798781
-967.0548744433406
-959.3715884859213
-974.1724966900083
-901.5340552134569
-686.2744982839033
-448.1246897878676
-355.8365857435034
-409.6621528219314
-441.7651544372095
-335.0841126763838
-212.21820949914513
-306.7338699475299
-689.8256981302438
-1156.2610200514393
-1436.0171686628319
-1472.4921825263118
-1443.7595679916867
-1543.191818883172
-1784.6686484486788
-2034.7557272687914
-2183.7695396865574
-2227.37199566739
-2229.031118545078
-2246.4023511996265
-2305.0961719748548
-2396.373657747972
-2471.7248533318225
-2457.994569842778
-2325.5265714773345
-2141.7853482487762
-2036.096635293034
-2079.0631775708957
-2222.289878424734
-2356.846239524506
-2427.6515156573996
-2474.4596540824427
-2574.5879006899027
-2730.723393601705
-2892.357341730426
-3022.4368940994555
-3097.531354790574
-3097.835493887827
-2986.010136297458
-2771.63488064276
-2551.0210587456004
-2437.3175468899994
-2459.2932184402403
-2531.3483300790613
-2552.831550651091
-2499.6378810836836
-2423.9362667604755
-2369.5743149800687
-2328.1363606262375
-2281.844479328469
-2240.243891528061
-2226.1182732309053
-2214.4620125947654
-2144.507060682073
-2013.1220338545488
-1920.2821982354021
-1975.832270428476
-2166.410422593143
-2336.2019553621894
-2324.75994655449
-2127.630373814958
-1898.1461988567412
-1789.8514132654589
-1794.24582075016
-1767.4355327694518
-1592.80032671742
-1282.9149974906095
-953.1007885589433
-699.0563589471071
-553.8417263063304
-518.4378747011801
-565.1717699349144
-626.4172373275776
-622.9689003580336
-535.3934144665482
-443.6820638072013
-454.7011338714931
-573.5497798484314
-672.1419417720236
-631.0814880135408
-478.95638525016375
-367.1017093060235
-405.75590169618044
-547.1279316691706
-664.1145824047096
-705.8895494934427
-746.0736277575404
-888.4529273390967
-1133.883094917042
-1376.9473866017834
-1508.93502521288
-1506.8805426409133
-1443.9491571948463
-1399.7065471052915
-1382.1579947087885
-1340.9203682429436
-1227.5273943190907
-1062.6491645861715
-908.509089620741
-835.3552670786992
-870.282102289247
-985.7057136783832
-1127.8892595423467
-1260.378794186062
-1367.9401928639795
-1455.089279607129
-1535.4594657586986
-1617.6610945512555
-1694.541103671231
-1742.4628260504041
-1730.6879846971933
-1643.2171797329845
-1511.2731620820723
-1385.2727926886637
-1302.8001472842914
-1272.820513784594
-1262.3254509320248
-1233.108587899877
-1194.0741927832084
-1172.5406739627306
-1173.7254594728586
-1162.5237030061858
-1125.165539536822
-1100.2594067105124
-1152.2825063150385
-1276.687712332226
-1374.7228226514815
-1349.3877108243378
-1234.7334401194555
-1155.2599221858786
-1184.6741840126763
-1244.35797300889
-1177.627083986975
-941.031043929124
-652.8696232173836
-477.97409844546684
-453.7450036058139
-486.89991382965076
-462.28289182401863
-371.63781885835107
-296.5182005534692
-311.4906826587453
-406.28117493208833
-495.0273910708602
-506.67383386772815
-454.7389039886938
-419.86104640406126
-464.77305327438705
-578.9316172961406
-687.8610113100286
-734.2634639487912
-742.2434800841355
-762.8187683558933
-804.8122574155465
-801.6863730588947
-666.663603155275
-393.79471832639047
-73.56264800438407
187.14382280213636
352.66934090753807
452.16839140448053
543.3670102975028
649.7209347850267
735.5799019067256
743.7562824052991
673.1457236391298
582.0039463363726
530.9453996674675
514.8646254284627
457.2755865945401
300.84290684546204
77.5003900204772
-134.32740254237115
-311.61867621067796
-501.0931814799847
-724.8479315690781
-918.4337906775495
-996.4061813119941
-978.8563681761101
-968.4120927137084
-1017.3559772853214
-1031.4367575420508
-888.9405466007934
-620.8815264495673
-403.08726369065636
-346.69837901299866
-355.6779858669393
-241.63797249139355
31.18627362035977
303.7858906567283
423.8623244130793
414.7928562659094
404.7477939864499
432.5182582516845
403.41568667057925
246.64287990129418
29.15244799091397
-116.6727179240317
-173.11080145363556
-235.90227236914666
-374.4387636236667
-521.7641147971158
-563.4711914998957
-463.41037523494913
-293.30494796678
-143.42656241652793
-48.83423660711702
-13.747641976079393
-32.148357556413146
-92.81129941604445
-139.65765660591217
-124.62422312430078
-70.74068267530399
-77.19555968933568
-195.1352837236231
-347.6609752957701
-416.84684892705286
-385.62111665366655
-364.01601487578023
-439.43294964505833
-553.650568691192
-549.6273922648121
-379.4275092399783
-199.3285943670848
-210.24252111676606
-403.27013195680615
-537.9503596389932
-422.3206493524497
-150.60006876635157
-6.807237595147512
-133.30056181493364
-358.9123923831421
-400.74377536361703
-195.8969950430337
37.77083558728987
102.0700026881591
45.84168244784382
87.43022714333915
313.1556011908609
563.2728599124646
624.0358439919353
475.88234229103955
305.13947474243275
283.5018211672192
371.01018027189264
384.2552668597705
222.92589750037246
-14.152023057045199
-114.57785813877013
5.854417506439972
230.7987447068391
372.26954840727547
376.9451598809212
369.7457019867551
489.93258098438093
719.9528871421633
903.6275762607786
937.6901559781109
864.2078315573656
797.7715845105826
796.9167799720037
830.4651759230402
850.0237113082517
851.0751016801886
850.8726444757023
856.7974220727476
879.2542861678312
952.7869196486326
1083.7796096224065
1201.4363120445607
1212.8483184685017
1125.3783591424574
1053.1424281438506
1080.3949399710077
1145.8452487228637
1107.247649495289
940.9437609573904
777.4383334725472
752.7898537100896
834.9027952524385
848.1590069643383
704.6128296773531
515.0346747672561
461.23630401900436
571.7017259924916
694.1215137753234
678.1647981275426
544.3525609366854
448.67269017848025
486.193574998295
586.7861842460317
632.3175332077076
598.3274721692032
590.5847586276351
691.6545177194035
860.2362581006167
977.0668978189018
999.0724678029027
1010.8872277006756
1109.630754144824
1259.6894326262893
1327.4890506236543
1242.4985091692336
1093.4286892876664
1034.046545738989
1096.9233583831874
1164.0623925189695
1104.9670063099265
939.78825429699
816.7452778632552
849.8720221711887
1001.1030809923228
1136.812205554483
1157.282275795905
1082.20831074718
995.3469822870687
964.4396559722279
997.0184581666795
1048.9085786880012
1060.604101699761
1012.8956154778048
940.1085370786535
897.9492208003476
909.4706225969907
954.1755258992738
989.4013314806389
1001.9906316676287
1004.4672045032339
1000.9189159720714
992.6998068928365
967.3692361028658
937.6587617729768
922.4383933443926
938.1109708860178
1001.8036854520162
1137.2168837729319
1350.3858511255594
1593.8638184977221
1796.56784767185
1936.6434612739115
2055.9484896870626
2203.7458230469856
2359.8262316611454
2466.704984166667
2492.583056581736
2461.3618017268095
2412.658167377722
2354.848000659727
2280.996324941033
2205.5384210365
2158.5962442800615
2130.9405237437322
2076.361626542449
1955.1136039004923
1784.6011308809238
1620.0335919042377
1500.1713176859403
1419.6662521260484
1346.520327968218
1265.2041172311442
1179.6853312953178
1103.150403658421
1029.795557804189
951.6631448452426
877.2762331502754
834.4929632617177
823.6318688079407
810.0163196903084
732.3238357539805
582.7644108234563
427.35551887073325
369.3870805666097
441.8811564566922
591.0107656099576
733.6459207976545
826.46852455407
865.027444933387
861.1508681156705
837.0233346905393
833.204364610327
878.7995734419117
960.7008970017753
1016.8467267806805
1009.0420938758739
986.6733681105075
1049.8380816601825
1222.186096766398
1399.2746687439228
1459.99758524171
1394.4987039368427
1307.6489860943032
1283.4714940141748
1300.1908864123106
1267.4714893961404
1146.2393805106024
984.3995825050704
841.2224804812479
732.2517909935973
637.4601768545068
561.6402483197794
528.247605648734
517.8979712165545
459.5370244554622
320.91638890529464
164.02223735487382
84.06184702250243
95.78972845137059
98.96392421350924
-8.273132139271866
-208.17826406655468
-390.12271810769676
-479.9484412252888
-527.0452054197299
-624.5024759152307
-788.7232003609251
-952.9266542822952
-1050.2384592766327
-1100.3994487321734
-1168.6601962587263
-1283.885293956594
-1417.2175101085988
-1543.6503607913387
-1668.739895118088
-1802.6542383376138
-1922.6037231231733
-2009.990157369364
-2065.2178822583983
-2092.1645070832974
-2068.62707852987
-1965.32560579552
-1805.6234651900854
-1672.4251326899384
-1626.1710924732674
-1640.1384851570492
-1637.2247618504612
-1591.942143244129
-1559.4098041402071
-1595.879456519664
-1673.6648140075104
-1709.3277905237974
-1681.7332753814235
-1662.453213950343
-1724.9828271284196
-1865.1316909745713
-1991.9012383735055
-2037.5755363150279
-2021.3145974279055
-2028.9252954291064
-2117.3214943131825
-2254.6468156723336
-2330.400112607652
-2248.418802833439
-2014.0936939490655
-1738.9421575456804
-1552.273089007127
-1474.9052596499437
-1400.408531964481
-1224.006318752185
-973.9407893406874
-798.2215174863701
-798.2753109182288
-924.635841994912
-1039.078103162174
-1082.093782689577
-1118.313313005806
-1229.4711895703788
-1402.193509417723
-1560.3042467265861
-1672.8917273056795
-1774.470163146028
-1888.6568143282975
-1966.3381665330312
-1947.404536819124
-1855.4023904895903
-1780.7208596610917
-1777.5742919203676
-1791.9558656876973
-1746.255528371747
-1640.81125690593
-1559.708363192442
-1550.0094338625197
-1557.066291093157
-1473.9042028265555
-1268.757219077237
-1035.318989170964
-892.806896905374
-858.5012376671807
-847.0800835240655
-770.9101205614264
-638.8822212076763
-543.8486287462237
-560.1343035459597
-674.2856656125138
-813.8612871660051
-919.0146859097398
-980.4281536186
-1026.5351456194526
-1086.8025253196274
-1178.9238482373426
-1291.2582818117007
-1387.6177952708088
-1434.2923507276123
-1451.7267961477826
-1509.3667539185778
-1649.1345091957012
-1818.5941659285747
-1911.290506593594
-1884.07647552561
-1814.1268766965607
-1808.9929556256163
-1863.7148437795186
-1856.4249717711068
-1692.522574801462
-1421.3343667412234
-1169.8313233196582
-1000.6611993676016
-842.9344192842418
-594.5715173715279
-240.20014420140637
133.36310965114217
429.1365029169449
605.4961781782426
661.7092403353713
616.2301228248746
513.6122476858986
409.8552995556604
319.74763849856936
175.04933673114238
-104.81850857976059
-493.8664013901748
-847.8495704657704
-1046.8075777443946
-1143.2362014447372
-1316.8664831899762
-1676.454598969767
-2121.7493644594806
-2445.785546053869
-2553.495611026859
-2537.6195747958036
-2559.299680826555
-2664.558555853173
-2773.2567254738215
-2787.0543513140083
-2687.9162283354767
-2539.1780338033664
-2413.6811190362905
-2346.3560743951075
-2339.35128575176
-2377.6213033997465
-2424.8901670099153
-2451.5088378420332
-2458.223831259268
-2450.743682156228
-2423.461980991809
-2350.4253684585947
-2233.7733866114095
-2123.52542018952
-2064.213082710946
-2040.2210678955182
-1994.2226581466662
-1908.0111696800282
-1834.393005444325
-1831.3615606713415
-1873.2268819256994
-1867.9315250117302
-1755.0056255445838
-1568.7493451837038
-1400.9992936387293
-1309.4844455643668
-1281.804747845597
-1269.188745069745
-1244.009149396473
-1202.6097906008004
-1165.5291248389085
-1160.307536864055
-1210.870216329184
-1303.4049894711159
-1380.9072235559179
-1381.1681502285119
-1307.3462926178263
-1235.1211301956232
-1238.763859203651
-1309.6766845644809
-1364.8528331955818
-1327.785447554576
-1202.8974362162598
-1074.643959716032
-1022.4742989313861
-1050.435163418829
-1078.1476703793505
-1026.3693104758304
-898.1208003403246
-767.8944169588422
-712.1142918576783
-722.6503639494396
-723.2930925044311
-655.3080983212352
-554.6518706496652
-504.6666626815866
-526.2251396447691
-557.0966907605276
-529.4589901993045
-459.4426689111792
-433.9037882704538
-493.73000201655066
-593.9453810258062
-649.6108256306097
-635.3920193924097
-607.7803616815604
-642.5632315513585
-740.6588284071672
-829.7249081275459
-810.8323613306691
-660.1776098677446
-480.8540005440159
-436.08908244611354
-610.2155006660339
-924.237910061653
-1198.327613914767
-1321.20467701737
-1323.6739078690446
-1285.6507063959407
-1204.2688207422514
-985.5839329255896
-584.6811820217041
-85.76451505283029
383.4540505885136
777.7918001503629
1145.8548383987684
1499.3643822320987
1745.2545964514027
1766.3073558240112
1559.2986911083974
1264.4144298873748
1046.6302210541269
959.2569685208493
936.9086178884569
888.8317424205788
804.4180680994003
744.2721846472621
765.5868627653174
853.8900221572515
939.5516862421513
949.2345858684675
876.4619846577798
775.1707175766146
688.7003659309746
598.3250544952718
474.89187482680927
335.9165249844188
255.5373717642555
277.3559321539654
351.782283182444
375.23649522887297
300.947943678367
179.36354994193337
85.428044839378
38.871211284382326
11.641637210828222
-1.3738496363806973
43.14686771482019
106.58339400611715
297.8469408474515
329.32716583272514
286.2385388999795
257.0603015554951
304.1607007264845
395.01015736616955
452.08976917376
460.42285790965764
478.2591914013233
543.1232482637988
627.0410360953698
681.5673650148733
717.6774313635251
780.8305810841376
880.3211652115787
971.9907136712999
1012.4138599405046
1014.2355694444441
1022.5921018873441
1054.4832267882182
1093.0318935792889
1137.460506445951
1202.0526094148795
1285.2708949919443
1342.9068610136246
1334.3265100012345
1277.8768038150213
1221.7035611492788
1183.9050583967069
1130.5549391201976
1013.7019167399394
834.8129890857836
645.0478487861941
501.182706527562
436.99840974024073
477.13336211478844
636.4689103935875
897.749721604715
1203.08081582263
1476.6129864327681
1688.951401802876
1875.7462938874853
2098.7473082009597
2377.9992349182917
2671.933901332407
2910.6802938203728
3059.666492708298
3144.023358490148
3215.8585888879543
3293.347327293966
3345.2857763114453
3328.197278958098
3225.8069907254676
3051.2233901716127
2821.46523181017
2544.8847572897903
2254.8912977492446
2023.5490096700555
1916.936459125956
1929.9555161964508
1988.0452615205368
2010.0990089366542
1993.1780447800115
1989.929073068779
2049.5278630935927
2163.9773820075116
2271.921814418087
2304.5560971425766
2234.274988176459
2086.2339169892844
1927.8442422902037
1823.4162681940124
1780.8669694620758
1755.80651519779
1699.911994685392
1618.455802638029
1559.33354244879
1551.4401726223105
1557.647491669201
1510.4238365514339
1398.5201892262173
1294.4763519766057
1289.6336320524965
1377.3207108945735
1457.5608858850064
1436.8510544752935
1323.2033694680622
1231.21099928178
1256.8489936870055
1396.4865162778967
1558.8947229641783
1658.9362868567073
1683.7097268062867
1668.9897574243655
1652.5421798080288
1641.8025913584863
1632.3152130551443
1618.1904865079268
1580.299449282762
1478.534236217997
1291.3829241551666
1056.505147986718
862.3799389519855
786.2782468475772
828.2203082577813
906.6794036285617
939.7525738015175
905.1462495057444
844.1301442547534
818.6647442239021
872.7681518738494
1001.1082339613242
1166.7316352470787
1317.4699528828253
1419.0238072292673
1488.3189412517386
1583.8670764027606
1747.2774544532276
1943.0723049152143
2077.4120976123504
2084.5284666069633
1992.6648244982462
1893.5291103374789
1839.8496325603533
1798.4970710694633
1705.4023372035729
1545.762942533193
1364.6666913511756
1196.7831691917158
1039.7989866136077
867.1536362188091
684.610906064972
531.7969954337067
436.0722214810827
391.60082509712834
364.85562023826134
334.04124646526697
302.1734348228521
297.55461356901736
347.37146843837456
446.7389224238404
541.1386239112016
567.8698967939445
529.8148860514456
501.71149464161647
553.8421969370688
662.3821690812125
735.8980267456861
730.3805738792098
699.6876056051948
714.8660557655048
778.1862368549511
821.5028775496389
808.473929536076
781.4188076251627
787.5576847159152
800.7199548578894
768.5064569054844
707.6866110610416
695.6276105151966
773.0239667456373
884.5363260945588
940.0687859094315
923.5549273591423
894.2541833860726
899.0498433756949
902.3591914604425
847.4038205809634
733.6042477295272
623.9861356093475
569.5916768735766
571.2490409550766
590.6797326999449
600.4398617460747
596.460392482046
586.3404362026804
577.6731230517913
580.4132620155575
598.6388924079143
628.5427859725493
665.3864279722824
713.3173980364883
781.2229900129128
861.895211352038
926.613209934393
952.3518583880953
952.9666658961495
957.9876060765878
972.0458834413294
950.4487687676512
846.8961452460155
666.5638571126495
497.0220972421895
433.9664631217207
494.38811226110636
608.9582394416243
683.9065989192851
690.7816509491973
684.4637513840577
734.3100738275355
840.8308587334584
925.7985368709035
920.9125003884589
826.9848020738076
701.7382319561035
586.8464605620342
489.37863915344064
414.169663429847
394.45736543667306
449.9676322702811
545.5321813969679
598.5193204896351
561.6504776332753
467.49758875861846
396.26637604040377
379.5622765561385
377.98866732722763
347.7275729923547
302.3936049326503
300.6728388412105
376.100049246297
513.9484088673263
684.595493321006
882.4847265229022
1115.7963284305638
1368.9542466937057
1596.3822127619399
1749.8183765546805
1811.5906791822706
1791.0641335287066
1709.811315085375
1582.7187113603222
1415.0662153170138
1204.9041676737788
951.0130324752114
669.5299551404225
416.5403782720814
243.3455089760526
161.1896778862988
125.89471545805702
87.56453256937266
48.82617961652235
50.03556137624554
120.1587512862732
235.35705852866656
345.0818424304558
417.6944172036003
460.0679306160831
495.8723182498564
537.1733910608239
579.5312199287235
609.901740574546
618.0896031138745
601.2117294937154
563.4027204082191
521.6690275113481
497.5616078566693
482.5392519547103
442.0889336686338
347.1710205088042
213.61682094811863
75.283646822695
-49.98747057160165
-176.12381515012805
-309.83810204131134
-423.5836000477319
-488.45879787968136
-514.421932777118
-554.043679278107
-630.2727203614058
-701.4356836962684
-711.8320398752012
-646.0672805146496
-548.1593837563194
-448.04876944188993
-321.83742727647257
-137.81135574095504
82.03629101389879
274.3270932605884
406.15513711197696
517.9383335292041
652.8793619792239
790.1712914344596
850.4571865043479
768.7882933101223
560.9245470068864
303.54403552462804
66.54957213167972
-121.4229726859088
-275.24321819850945
-424.9199119216172
-593.7907505050595
-762.1198776640597
-880.7656377442561
-910.8358459595538
-873.947504060021
-841.7836073998251
-866.3982545299207
-929.2852459263313
-967.1594443825006
-953.1492747923069
-921.9196090957687
-923.1955479016151
-956.5341918364888
-971.853999503081
-920.0043538439327
-806.1396720359771
-689.1255194103255
-617.5628742951135
-582.0340448573468
-528.9564820427568
-417.5742068816776
-269.10359368104537
-142.51696279597468
-75.80076105894318
-53.28951064331943
-35.467566632087255
0.467145672792185
47.49804180666115
89.777638394154
121.36100807070557
131.69354842736675
99.83124274966212
22.366146313449917
-66.19594573978497
-114.32976709941454
-107.74451831213764
-79.84430421343768
-78.88852092432262
-113.11815653567965
-157.87312496944105
-194.08511215905355
-228.3725420178414
-285.57388010499926
-371.5871464972279
-467.4432952073339
-539.1952478368084
-565.5413094603794
-550.5276846409552
-511.01041344350483
-460.21513911139095
-392.1752360326036
-301.6003967652223
-193.92294586895173
-90.07037394888266
-4.753108684079052
54.74907883761807
77.24503715388596
49.677153796838866
-27.94718300356294
-118.5836484302838
-183.8981275580935
-227.544881440552
-280.0357232494655
-347.3429090856107
-383.23642730385814
-340.49644607068535
-248.00046276212606
-180.4870282824179
-180.86786540448384
-215.88004404799608
-252.35457967240234
-312.9285766117837
-437.5968706744179
-608.934924711429
-743.6105120333523
-788.2750983054318
-782.578034117319
-810.2052155636991
-886.7380922578586
-938.5011489508213
-900.3962009825334
-788.1413166919874
-672.9105441099258
-611.0521290776553
-600.0626180077091
-619.3115009855446
-665.5717628824654
-751.0431166099982
-872.1549634142258
-1004.1722056774131
-1124.7526570755324
-1217.2222635556302
-1282.3135014163197
-1325.8456719391327
-1355.5715823991502
-1370.9105891261079
-1372.7747082274345
-1373.0628818130301
-1384.6716193832779
-1416.0451610317643
-1460.9506509673677
-1501.2769748207281
-1523.3587694250928
-1528.7959706438287
-1513.2541187239726
-1456.141206253044
-1336.561997103566
-1146.914387677633
-917.2131322400069
-696.4996736977856
-524.8768198751163
-410.4800806464407
-334.2853917358202
-262.7187153484018
-179.63365558485089
-107.62277318968609
-100.54398245805544
-201.41574979043912
-404.20493970057305
-658.2564759414821
-894.3349679486012
-1095.614882441849
-1297.1094816628747
-1549.451237375674
-1856.8310320623782
-2161.620421687385
-2393.8987378777233
-2519.716395857893
-2568.3340444169958
-2575.212331238112
-2551.7724179865613
-2502.667982088365
-2456.170021420081
-2455.1528556749154
-2498.3139140758817
-2534.019835724489
-2522.1763458336545
-2497.8941250680364
-2550.0757077617063
-2720.257739415746
-2927.902642195967
-3052.1291636767473
-3052.065164069588
-2995.389597379058
-2964.3059978259157
-2956.86231531199
-2911.542996883151
-2802.6505170033115
-2683.5666449742275
-2609.3390768222707
-2561.079351506561
-2484.8437609550665
-2363.6752081871286
-2245.919807692997
-2170.751840452627
-2119.7536359136693
-2054.8759129666205
-1995.3993793747047
-2005.056514627819
-2095.8360172156436
-2192.9593257101187
-2217.505912189946
-2180.5488209202585
-2167.6709525131873
-2229.7326722208113
-2315.1344698275534
-2348.5626720491955
-2340.065461299375
-2360.796277918216
-2460.6641493613893
-2601.816728744232
-2715.9139892440685
-2789.9779053141992
-2864.8920594079077
-2966.3504379280644
-3057.254850382986
-3081.776633992072
-3038.917588969371
-2985.5470044432386
-2949.420270017523
-2876.7032733102797
-2693.638286850334
-2423.8263835795124
-2178.960871255341
-2064.8720985225273
-2067.401878667667
-2076.8739196692504
-2018.158578310873
-1937.9730374964427
-1933.8565449152507
-2030.7659485482463
-2166.2867560379646
-2275.2502163666395
-2365.691646438072
-2487.9365570010937
-2642.4007150178927
-2788.7396213111947
-2911.1261134447186
-3017.813664170878
-3073.751581250498
-2993.0818560168573
-2727.9053863268414
-2371.4832228978444
-2070.3041245698178
-1857.1812073195451
-1637.7058758086507
-1330.4220785449636
-1013.1192337368753
-840.8312896274945
-847.0542354172935
-900.2781958818739
-871.8124109466316
-793.5528318745287
-812.7567686780072
-996.2388125242571
-1229.189220515599
-1345.2512499541053
-1298.4093459191413
-1197.3511181813633
-1173.5153391895874
-1263.950519313204
-1380.4703358063985
-1408.0655608317038
-1307.2986096301947
-1151.4683634433964
-1055.257620674913
-1068.8102049915997
-1141.4845615268532
-1170.8370145983456
-1103.2743095968654
-986.4106386778469
-900.2598826525623
-901.8887099556413
-980.5341660450675
-1076.7981377136512
-1117.872507116722
-1075.9812031564388
-1007.125423948128
-1017.3953172705708
-1156.391352745008
-1339.5252521012878
-1446.1695148098847
-1446.8542265191954
-1422.247011169805
-1423.7146419701803
-1368.1704892958924
-1147.1398774974596
-804.9304524048794
-506.25604438000204
-344.2533698033017
-231.54778740489974
-73.7687276376762
30.15444462779294
-140.3923537255307
-639.7037860863327
-1221.0331163440624
-1550.911709955305
-1529.3293792584946
-1329.762813626176
-1156.1893180465995
-1018.2640542845907
-787.8286480085794
-384.2466376556831
131.584357378837
639.01773356304
1058.979472865207
1355.7104725767354
1496.899770054572
1463.2017267188953
1303.6519164402505
1146.4735051348903
1111.990829384335
1205.8047791878582
1317.3017974557292
1317.4769791472813
1183.8174468497389
1039.1099678348291
1013.6371838163682
1118.4372060075539
1220.7493775437365
1172.2265505091252
962.1200849064014
721.5567153649586
601.6635782022779
635.7404710609242
743.2281559645292
844.4865197304073
941.0351180460971
1098.3087888178484
1349.4875858403375
1615.9250983988582
1768.2698378932355
1763.9661406806476
1709.446631401394
1764.0985240686932
1967.111892008084
2188.596817772557
2258.260302509988
2150.074761465415
1986.6130414618644
1885.1997865103278
1822.3692407196386
1693.836992611508
1456.311672946263
1191.6361538244273
999.559380472323
891.5906904762851
802.3429211413329
702.9423083130946
630.9294259440361
640.2510493078244
714.1311415119951
793.6037370488125
824.7993167795169
806.1607433026018
744.5546837356949
626.8191962860174
447.8119111620665
231.2266433427733
17.019100344991102
-174.7122901428836
-341.8708547867134
-479.8594945256518
-579.7830051956091
-631.9957936258672
-654.147287017292
-671.107884268436
-693.3885287184717
-734.0395007884058
-818.3945688538288
-957.5291142653907
-1117.4280052897093
-1219.6167775469728
-1213.2733765810622
-1136.7284357503377
-1083.770770488375
-1096.7872305944848
-1127.7212906760433
-1111.6491050543927
-1083.1260027040532
-1144.271892775348
-1327.3057096592852
-1537.1745834437684
-1647.1085793529144
-1643.6732018059474
-1657.693608032604
-1814.6001651885347
-2083.2268342365196
-2294.014259713399
-2310.272022934674
-2169.4625073617535
-2046.6980471355773
-2064.156934750648
-2179.2616751930914
-2240.732083574243
-2170.5531614343226
-2035.958174603398
-1981.0265137283
-2061.164607571109
-2195.152469340242
-2255.4364517821978
-2209.9191089597966
-2129.4169627506844
-2108.421575003811
-2165.864197195963
-2244.956139901098
-2283.4783234542633
-2277.1735100561755
-2272.7381881920896
-2312.9954084249107
-2392.8532402990645
-2458.3583531378354
-2445.955835560846
-2347.027661831635
-2223.9342982871067
-2156.588441109575
-2157.974760168443
-2157.5971793802773
-2080.8946643819518
-1916.6710284936194
-1722.792251780898
-1544.9900060410391
-1370.986571287768
-1175.8127643276162
-989.8316612462149
-858.0874030548023
-766.4554626085489
-633.8526166493659
-421.21427847396626
-218.10844550950605
-158.41079363194683
-258.208881807229
-365.7908586013507
-323.27799571361584
-141.6025799681919
-13.586270302209186
-93.03069334389556
-316.21645470802173
-470.91343689814175
-457.22078243649594
-395.5596950328662
-465.82057087268936
-663.2387243643508
-801.9784480198465
-768.8513886551447
-691.3661069580143
-787.3724986692488
-1050.1132034628163
-1210.7229272539307
-1043.1394780588516
-650.8356091239144
-362.93993086391384
-375.65929870979284
-527.3357171584947
-490.9078515917056
-145.70158652149564
301.6532429735556
557.1490379482611
544.0401550853057
460.598394651166
530.7666412828262
750.1966392041807
923.9737729767128
919.3411012189558
806.3255209994361
765.7463910325205
862.5497288863971
979.786508443568
968.4854679151797
847.7538653653164
776.097511275595
850.2624948994844
987.0387505901356
1020.0352475519884
906.4909149197048
775.4155670493487
794.5265362301541
993.7686971379736
1245.744754161535
1379.7320529122462
1335.7694978279042
1194.500577999714
1120.6007713802348
1229.9329952690923
1462.2464490522746
1635.95988439015
1618.8697142903738
1446.9443932065565
1283.386375995789
1250.716416602775
1340.0670974900552
1462.2408799767281
1545.5351081075473
1530.797286160905
1351.1912352598833
998.9593634099717
625.4939258300797
473.98915947241005
643.1195521328922
933.6573276192066
1007.8689170217237
756.1154675802819
431.987616836917
409.2528435786943
805.57861994626
1402.2481144146745
1851.3978346465965
1997.4652252175988
1940.8657480733434
1888.852987707688
1984.0026043467424
2230.794742245339
2536.533629993355
2789.6943583155507
2918.409191941256
2909.1149584723453
2803.823416161278
2644.3331288479894
2470.1006453532095
2325.789991685151
2249.3112974729065
2203.403310614704
2052.8944538399
1664.7518423689414
1110.804499626174
654.8009171648596
509.037174114566
605.9598422186788
689.9073065639548
619.9144180174462
516.3745693094478
572.6586678409478
784.3176685216271
952.7325102948313
947.1888848906154
865.6134900255785
834.8595188319945
815.6022384425742
662.3324099382523
355.03831266941995
91.52412810514602
69.28364036867185
263.63265975625893
466.3099769180875
499.73654801307464
392.41124818734204
325.6738864023879
434.03530945164823
703.6590722991326
980.8908809711943
1076.2818963742704
924.4260726945814
659.7767818649411
509.5679844867618
568.9022232738675
701.1277459384795
683.2688011219993
461.91244992710665
238.35960658393878
242.5952181176865
495.57101788833654
771.4813396949278
842.7240908506344
703.1900292937161
533.6992070093036
487.7527755554029
554.5844624393359
620.4659974492369
626.6013953438446
605.4589607596888
598.5336858776501
585.4465061524306
519.0771342449226
420.04554619203884
335.79487731988525
245.34456607286404
105.40936355682959
-61.62510921209497
-157.228944315746
-121.2578422750056
-60.26423397136148
-154.24605648291515
-417.7237295531845
-618.2631577502631
-502.28551483516947
-81.98665934671686
363.043273401493
591.1114272813568
612.7159057072145
614.1097134432187
703.3513495591319
853.043780239565
1000.337164424149
1106.5305506900372
1114.3916142813023
944.0949086084138
634.1593597688511
397.7059712351263
437.83606182297785
692.8660849130849
856.8553474479622
730.2346202940363
474.0254779651315
410.99209599150186
636.7673661180585
922.08006013256
1008.5602692990844
907.7272144627104
835.2962805236776
880.7162223941157
900.061419892316
754.9520538336491
551.6470582652073
533.1473783021524
752.2377377762268
986.401728238849
985.7182471932714
784.7997166812338
654.1419001421838
766.7315252806561
980.3967223762774
1017.9079994169654
808.4777841092246
576.3030799380294
564.5139489218043
745.7230343603911
868.8680567420204
773.1007175452141
579.425018662848
529.7882570810459
676.485767116076
814.7748084706092
757.9924322215802
566.4808885883534
483.8536045218464
621.5812626053979
809.4472378417761
799.0491995292721
571.2328716457068
342.6919248208161
320.4723901549371
495.8774600464717
689.2518472941262
772.0962353856088
764.834034856805
760.7194349632914
826.1901330065338
989.1274754030022
1219.204732276207
1440.4284678498334
1544.0509899442243
1482.9258231712006
1349.8188629368105
1306.479728085175
1412.7610189910656
1530.6571757888332
1468.1154946211614
1194.222208574009
880.8551647537295
743.003047024125
800.4802134797794
876.730205293788
820.6037919880823
652.1915835301551
514.6335514900453
500.8526619068439
560.11198343016
594.3503532972411
591.0878171527647
613.08679578136
702.5347201008597
812.9834585226581
864.0522545316379
860.6751967240305
899.0274766404959
1048.2320270386515
1253.9729233965968
1370.454171226802
1311.3841309638585
1139.415272211812
1007.3433301845923
997.1585333953497
1065.7335827214026
1114.8211123165315
1108.838089840828
1114.3671246564274
1203.2723428409
1375.497768821694
1568.7729878715645
1728.121034928129
1850.4416480986415
1952.5632630217053
2035.6592800513367
2072.7609972020405
2030.8906291960484
1912.8089050447302
1741.1024078447663
1574.3543991857505
1480.8861684594367
1466.510361516505
1442.638069659579
1299.7413478707463
1024.6886041054527
727.6165296132615
541.9238535503923
477.48510551737763
405.3147318944557
210.68835801436535
-75.50789578961849
-302.96366358882244
-358.4882506300868
-263.24726682226344
-127.58192576363456
-42.30956994901942
-30.20166129188044
-67.99356405643277
-121.28764814525698
-166.33517493163004
-198.18421524017072
-225.56764493448327
-260.31830430906075
-292.65246892514983
-300.2921866384595
-263.3063684318306
-195.31895808468994
-127.6308252472594
-85.5929215392407
-68.1886764842667
-62.30062370924088
-59.12429430023121
-74.43911541602756
-141.8635147904754
-275.25695018847296
-443.8936952118814
-579.3355300477793
-638.181242386469
-650.9689735289564
-690.2163691098622
-788.0489540467601
-922.5045617378098
-1046.4119720269023
-1156.7864918682988
-1268.414113814364
-1376.1187867227025
-1467.9423985599292
-1558.111714764238
-1671.4090544566943
-1777.399714448839
-1792.8480177473543
-1680.7242740898537
-1509.1226121142472
-1401.5917783795273
-1400.5253149485038
-1437.2631390120382
-1443.0632313597657
-1429.9548681066788
-1457.9394695904343
-1542.5124300434227
-1643.6948965453842
-1738.4553728075807
-1846.1909876580105
-1973.6389579890447
-2099.6719291109894
-2210.986819115214
-2334.5189828173748
-2490.8611125752413
-2638.444388307047
-2725.441229961004
-2770.4958682390675
-2856.3215845846753
-2998.0668226620537
-3103.9014040025254
-3082.0052997595244
-2980.978567872475
-2948.765031663691
-3047.4973570779457
-3156.420015685441
-3128.0451052469402
-2968.986435847877
-2833.421998520389
-2826.4079631229506
-2886.3975650412067
-2895.0972501930255
-2822.480076066337
-2737.9213320128797
-2699.341634205887
-2681.7542814854082
-2650.97048229523
-2619.9500100120586
-2614.150156353676
-2619.840315526435
-2587.4832096664677
-2520.9560288993166
-2490.6846878787987
-2525.247417495325
-2540.53572669373
-2434.355007369481
-2243.9981595555355
-2135.1936907064414
-2205.8012933744685
-2345.614440748982
-2363.025928079357
-2205.086461514221
-2039.720014162402
-2042.3164102818373
-2187.915361328345
-2287.5049621235667
-2225.7668598713226
-2077.6962862578057
-1995.2932244108135
-2035.702360188449
-2137.7307902132843
-2233.4082920524984
-2307.674793852267
-2339.47802977803
-2295.8814823326074
-2206.9133072739864
-2197.5351301382225
-2366.4610237806937
-2637.279472428924
-2802.017824473499
-2752.290330032265
-2624.947245186595
-2651.3450473974785
-2889.383041975503
-3140.8057587004428
-3167.7545498634827
-2951.5451356065914
-2692.6289744592937
-2572.688374403203
-2571.4884829464077
-2519.18815812885
-2309.4493971228694
-2006.0912506586483
-1765.8097541217858
-1670.7662496589896
-1654.124625920075
-1612.35173840701
-1544.514545470039
-1553.342662899459
-1701.948770725112
-1907.966666477712
-2017.7550895610625
-2004.5749865805121
-2004.9806014262647
-2158.0843276570035
-2419.33109615219
-2610.5124364667818
-2634.633128948367
-2588.5095292396118
-2630.0919737704903
-2785.615621985705
-2930.8346864377745
-2955.880693555516
-2889.139620629704
-2834.973216523732
-2825.717988817836
-2818.8601765521353
-2773.6291675276966
-2710.838769794708
-2660.788360372472
-2612.0856320290895
-2527.2152148604728
-2417.948568883923
-2321.599410990635
-2248.2787585518217
-2163.2086275421266
-2036.9184161958403
-1904.7195628260788
-1817.2457847331307
-1778.0450138753017
-1727.0428974106712
-1614.3322512912541
-1487.139261600109
-1443.3174812127736
-1526.858879370051
-1697.2202516825587
-1862.4378703436564
-1980.3364033373164
-2087.1536770687585
-2244.726772049341
-2467.2196774088343
-2700.2582316160237
-2859.357683040007
-2904.633084072623
-2862.7393096073847
-2805.731046921689
-2770.8402420267753
-2732.118270765432
-2637.7813071347314
-2499.274651845936
-2409.09316458792
-2457.6173534055283
-2636.571765293992
-2826.1062923275513
-2924.673600406456
-2953.012468123833
-3037.9918226256686
-3255.1167622576245
-3535.961980162914
-3718.453491334942
-3689.494155187377
-3493.258416394973
-3284.894957879057
-3189.457809874504
-3195.284107245847
-3180.474559203259
-3049.9426722011685
-2838.255361175681
-2687.034576079697
-2673.1911104197516
-2718.3272975948803
-2655.2242968868118
-2416.1017518117487
-2120.1402431063934
-1955.7756801016046
-1964.3879242754344
-2006.6400471903082
-1926.3842618828305
-1734.4324862586539
-1590.4504776938375
-1620.963939176711
-1797.3945455029739
-1982.240009916061
-2082.1111824542745
-2092.835242639748
-2060.3602864057643
-2030.4905781265163
-2035.2403220544643
-2094.155454540302
-2173.3667069681146
-2198.1294600734786
-2127.4575060056895
-2027.3211507010162
-2014.0056766060654
-2125.2361260339467
-2260.698870595378
-2288.996971253885
-2197.2118580731276
-2097.843681433902
-2091.6201465437666
-2163.041357394274
-2203.066329823633
-2132.2479252482844
-1982.3478341633202
-1846.7778111453017
-1779.5483500590476
-1757.7969454329236
-1717.393446977416
-1618.5291998496386
-1472.9411739297066
-1312.2739725659515
-1145.0722185527611
-970.6506383847452
-809.7199463143827
-709.0262610709455
-698.7704105033557
-741.6997997222493
-752.1130790777967
-684.3480199825962
-604.6892145068766
-621.8130966034328
-758.5830376635868
-910.2618890408119
-947.3896360090241
-840.7643792365067
-686.4936027369087
-584.2921214724715
-547.3587590144148
-522.8440187932529
-492.2059953070826
-505.8730958632834
-608.3401109123685
-774.7680775206215
-926.7632359897777
-1026.3112242274858
-1118.6791069090054
-1265.7517447199027
-1447.4430026017324
-1563.9668947902856
-1556.3701691612137
-1463.3428167291315
-1364.9470357917398
-1286.4010730386594
-1196.7846322315154
-1098.3813724611196
-1056.618498958358
-1106.345383478806
-1171.619573112788
-1130.1899253166434
-969.6930813298071
-807.2369310778383
-728.8742765458366
-653.0367570575315
-420.3746722885623
-16.623640943275745
372.0923798441083
565.3640342353079
566.9882413597873
537.7090868561337
573.1933967096995
591.2329787916697
436.28042573504854
75.51113811205732
-358.29048877760545
-685.2832779815566
-816.5745366708999
-797.1386651950338
-735.2066630283316
-712.0948392226057
-720.4859009043005
-676.1721499449669
-510.61591691261003
-254.43548293818515
-42.2133802005892
5.707374836231907
-107.69463751350986
-254.0049414591582
-314.8409671241445
-295.0733877981754
-280.4847636104346
-319.61163664780156
-369.3286373607989
-360.0048352356607
-286.6514494230222
-197.15552467262796
-125.51270607157608
-38.994069511344605
100.4738439495327
274.991983274625
415.5108107454513
484.8813558884425
522.6795514662579
572.7605264287486
613.6922437604296
578.1303256182504
437.29615736554763
240.38881852791746
61.67372279192966
-93.27111105303425
-267.06234413378957
-455.14663231800955
-565.6182252894046
-489.2489668987214
-225.81425815479952
93.63184115147646
323.6198506099572
432.52666527557494
511.4070145050946
672.8000676661754
934.2564117926439
1212.4458014319998
1381.463867192389
1367.065853416603
1204.637285216566
1018.0608948626927
944.046380346033
1017.5636679850752
1138.3325741625335
1142.9542018453142
946.5927407054119
628.9211678107174
371.01704002181685
284.9427512222007
312.7098264736178
281.7472929967335
72.18245905531023
-276.51530252273005
-602.4463933657319
-774.3932874012219
-787.6583310542096
-743.9077360858159
-747.8880839368046
-809.8021583617551
-855.5876542617266
-818.0297264089008
-706.2671334502538
-580.4402719310139
-477.2718024500176
-368.59292039574666
-199.02204276559542
27.126236884356786
247.29861879597462
403.6541231770142
494.61298728961765
576.193253206834
663.088047903488
712.1413904380811
662.3258383379919
513.6714327214202
341.3493861420747
212.5182882064858
120.57974021420375
1.0171871644754447
