720
728
757
799
826
818
799
805
843
873
851
783
724
717
752
782
761
695
648
681
780
854
816
675
541
500
529
533
460
357
306
317
341
340
335
357
389
388
353
329
348
377
362
302
254
268
343
432
499
539
569
616
699
823
959
1054
1077
1055
1044
1064
1080
1045
982
955
981
993
914
786
740
843
995
1033
958
981
1291
1796
2198
2318
2274
2300
2437
2464
2124
1348
292
-811
-1788
-2595
-3318
-4080
-4851
-5385
-5403
-4897
-4166
-3483
-2786
-1791
-442
911
1840
2288
2566
2928
3248
3207
2724
2073
1610
1437
1388
1289
1148
1081
1150
1312
1461
1516
1479
1450
1568
1879
2251
2455
2380
2145
1968
1910
1784
1374
700
40
-350
-452
-422
-354
-205
77
419
689
868
1051
1311
1563
1676
1644
1612
1718
1906
1999
1901
1700
1555
1513
1481
1358
1162
997
931
927
899
794
618
413
216
59
-43
-100
-141
-179
-193
-160
-84
-10
13
-17
-59
-84
-97
-118
-132
-88
44
236
435
641
889
1179
1444
1623
1729
1824
1922
1956
1886
1790
1791
1915
2061
2129
2141
2193
2304
2394
2413
2419
2486
2570
2555
2419
2297
2312
2426
2483
2407
2272
2186
2144
2074
1961
1876
1875
1917
1929
1906
1907
1961
2035
2074
2063
2023
1977
1921
1860
1812
1776
1735
1672
1602
1549
1524
1509
1475
1411
1329
1242
1165
1106
1065
1042
1033
1030
1028
1020
1004
971
917
847
778
716
634
496
310
143
55
34
0
-88
-179
-177
-78
7
-26
-143
-203
-128
-26
-73
-292
-475
-405
-96
189
208
-20
-261
-340
-320
-388
-623
-907
-1095
-1165
-1194
-1217
-1179
-1036
-845
-705
-654
-645
-639
-645
-675
-703
-697
-685
-730
-835
-910
-865
-728
-615
-612
-690
-757
-769
-759
-830
-1102
-1642
-2379
-3146
-3840
-4530
-5339
-6188
-6754
-6748
-6221
-5500
-4786
-3940
-2727
-1216
194
1173
1752
2196
2614
2833
2647
2096
1444
941
640
464
340
263
242
277
366
496
637
733
737
647
502
364
293
326
437
523
497
397
361
470
629
646
447
171
24
49
104
71
-10
-20
55
102
29
-113
-201
-201
-205
-301
-464
-593
-626
-598
-570
-570
-582
-581
-575
-585
-616
-642
-657
-703
-840
-1085
-1378
-1630
-1801
-1950
-2171
-2499
-2885
-3234
-3460
-3527
-3452
-3303
-3171
-3087
-2985
-2773
-2434
-2079
-1833
-1734
-1725
-1713
-1625
-1445
-1217
-1023
-916
-853
-747
-574
-443
-484
-703
-958
-1112
-1165
-1193
-1215
-1152
-944
-629
-302
-21
224
432
567
613
619
665
780
918
1010
1045
1062
1116
1210
1314
1396
1448
1479
1492
1493
1511
1588
1734
1886
1968
1974
1967
1992
2003
1923
1789
1719
1770
1841
1812
1711
1679
1759
1829
1760
1612
1567
1682
1796
1740
1539
1365
1317
1369
1464
1600
1757
1829
1745
1600
1568
1671
1719
1527
1152
837
734
767
781
747
753
843
932
934
880
873
930
962
904
820
820
926
1033
1038
960
906
932
968
923
793
664
619
661
741
824
896
934
919
865
830
872
988
1106
1156
1134
1092
1030
871
528
7
-610
-1304
-2164
-3223
-4265
-4903
-4907
-4449
-3885
-3309
-2439
-1011
795
2423
3450
3924
4172
4362
4376
4080
3565
3066
2696
2396
2121
1964
2035
2255
2372
2212
1864
1581
1492
1503
1449
1302
1184
1199
1296
1346
1294
1215
1199
1224
1191
1064
912
830
846
903
934
915
854
774
719
733
793
799
666
443
274
259
320
309
191
79
101
222
299
228
54
-103
-183
-243
-400
-689
-1001
-1148
-1053
-862
-814
-988
-1216
-1282
-1161
-1061
-1186
-1509
-1796
-1863
-1719
-1509
-1381
-1359
-1361
-1311
-1218
-1154
-1163
-1181
-1124
-1025
-1000
-1062
-1021
-705
-213
120
90
-130
-154
174
616
825
723
555
595
877
1195
1330
1281
1221
1297
1471
1564
1472
1291
1197
1226
1260
1180
1003
864
854
930
989
958
843
713
632
609
584
499
392
405
595
838
918
784
625
628
751
775
587
337
252
382
566
652
663
696
789
869
868
798
707
603
475
339
276
351
537
721
800
759
682
664
724
781
740
593
400
272
267
368
508
625
705
776
872
1011
1171
1316
1422
1494
1536
1547
1539
1518
1475
1407
1341
1317
1349
1389
1375
1311
1283
1352
1464
1506
1462
1433
1516
1663
1706
1561
1328
1195
1192
1133
799
173
-556
-1241
-1942
-2789
-3694
-4328
-4434
-4110
-3685
-3257
-2548
-1280
385
1903
2862
3317
3625
3972
4215
4147
3778
3309
2908
2618
2443
2412
2529
2684
2720
2566
2294
2031
1847
1705
1523
1287
1070
962
989
1098
1214
1304
1387
1493
1638
1824
2010
2099
2015
1801
1614
1564
1593
1502
1188
777
520
531
693
784
696
511
408
488
678
801
740
537
349
295
358
421
377
234
76
-13
-22
-2
-25
-107
-191
-199
-118
-47
-80
-205
-326
-390
-459
-627
-867
-1029
-1008
-878
-801
-822
-811
-655
-439
-398
-643
-1008
-1206
-1117
-876
-669
-498
-214
271
857
1334
1584
1628
1579
1523
1477
1409
1282
1141
1077
1168
1391
1635
1826
1987
2146
2250
2205
2011
1808
1730
1750
1718
1556
1367
1299
1344
1364
1273
1131
1056
1052
1020
900
778
768
865
942
911
842
861
993
1135
1176
1126
1077
1078
1081
1039
999
1056
1220
1382
1424
1336
1206
1125
1071
951
705
383
105
-38
-55
-24
-30
-95
-178
-215
-177
-95
-34
-28
-38
9
136
283
397
508
676
877
970
818
453
73
-141
-172
-146
-167
-212
-176
14
329
654
867
900
768
561
371
222
82
-85
-261
-392
-477
-576
-783
-1144
-1642
-2228
-2885
-3658
-4592
-5615
-6503
-7004
-7024
-6686
-6166
-5476
-4493
-3177
-1716
-400
615
1370
1935
2284
2349
2179
1930
1722
1554
1381
1229
1174
1233
1321
1349
1296
1196
1086
981
892
827
776
731
706
725
766
758
664
530
429
380
326
217
61
-85
-179
-220
-226
-225
-253
-332
-425
-460
-413
-332
-292
-336
-444
-563
-643
-643
-572
-485
-468
-539
-619
-615
-544
-523
-630
-818
-972
-1045
-1103
-1231
-1435
-1648
-1811
-1939
-2091
-2285
-2485
-2627
-2672
-2650
-2628
-2650
-2700
-2711
-2659
-2584
-2568
-2647
-2756
-2791
-2713
-2581
-2481
-2421
-2337
-2176
-1969
-1801
-1694
-1584
-1424
-1261
-1180
-1180
-1145
-988
-775
-667
-725
-846
-880
-791
-668
-582
-513
-403
-254
-112
-3
85
154
183
168
133
97
36
-76
-202
-263
-223
-150
-145
-242
-385
-486
-506
-465
-413
-392
-418
-464
-477
-424
-345
-327
-434
-646
-878
-1053
-1158
-1222
-1275
-1333
-1391
-1436
-1437
-1337
-1102
-780
-503
-397
-462
-585
-660
-701
-825
-1094
-1424
-1653
-1698
-1606
-1468
-1320
-1162
-1012
-922
-924
-1002
-1112
-1246
-1414
-1599
-1745
-1801
-1772
-1702
-1621
-1528
-1415
-1308
-1254
-1264
-1298
-1312
-1297
-1270
-1233
-1174
-1118
-1128
-1256
-1491
-1777
-2101
-2498
-2996
-3577
-4230
-4997
-5877
-6688
-7129
-7054
-6627
-6121
-5585
-4764
-3445
-1806
-310
715
1319
1734
2056
2192
2067
1790
1524
1314
1088
818
607
575
701
822
799
629
434
328
315
329
328
326
346
365
333
251
171
132
118
98
71
67
81
71
35
36
113
200
178
15
-165
-221
-141
-32
23
44
78
103
57
-51
-138
-153
-147
-216
-376
-540
-613
-592
-535
-478
-437
-438
-532
-737
-997
-1230
-1402
-1550
-1721
-1911
-2065
-2133
-2127
-2098
-2095
-2110
-2092
-2007
-1884
-1785
-1737
-1692
-1579
-1396
-1222
-1135
-1140
-1174
-1171
-1112
-1007
-875
-751
-675
-630
-530
-308
-5
223
277
226
234
374
540
585
502
445
545
760
930
952
883
853
911
981
968
855
718
631
591
550
483
428
428
459
441
341
224
186
226
228
104
-71
-137
-41
82
80
-22
-58
58
214
252
169
97
122
183
187
144
140
186
208
168
142
222
375
472
447
367
335
353
343
280
238
277
368
426
420
416
481
592
656
618
522
465
500
574
603
572
553
612
729
820
836
800
746
668
550
424
344
306
247
152
110
186
292
258
32
-248
-469
-748
-1300
-2148
-3080
-3918
-4724
-5606
-6404
-6742
-6438
-5734
-4991
-4227
-3104
-1437
444
1931
2699
2960
3143
3434
3654
3550
3086
2471
1965
1706
1673
1751
1819
1804
1706
1559
1386
1186
967
768
632
569
553
565
618
730
861
946
946
896
863
860
829
710
540
424
440
556
667
698
652
564
448
298
127
-44
-222
-426
-647
-827
-906
-889
-835
-792
-766
-754
-782
-862
-966
-1040
-1067
-1103
-1208
-1361
-1498
-1581
-1609
-1590
-1516
-1397
-1305
-1314
-1399
-1458
-1436
-1393
-1436
-1572
-1679
-1650
-1504
-1348
-1240
-1126
-930
-651
-370
-168
-40
82
251
451
623
737
835
986
1204
1416
1546
1609
1710
1912
2144
2260
2211
2105
2087
2177
2264
2259
2188
2159
2221
2334
2441
2528
2608
2668
2672
2625
2570
2535
2499
2422
2307
2208
2162
2149
2123
2069
2023
2023
2049
2047
1988
1912
1891
1937
2001
2016
1969
1909
1884
1887
1876
1825
1764
1748
1780
1800
1761
1672
1612
1633
1706
1749
1714
1635
1581
1568
1547
1482
1394
1339
1337
1354
1368
1400
1485
1617
1724
1743
1693
1657
1702
1787
1814
1747
1650
1627
1687
1735
1700
1632
1638
1721
1739
1571
1303
1144
1185
1277
1235
1059
924
939
1008
950
703
327
-148
-754
-1490
-2281
-3094
-4005
-5021
-5895
-6248
-5950
-5258
-4511
-3725
-2608
-997
835
2372
3314
3761
3988
4151
4214
4099
3802
3408
3032
2778
2683
2681
2652
2534
2385
2289
2228
2116
1920
1734
1692
1797
1915
1922
1825
1741
1728
1724
1640
1492
1387
1373
1380
1305
1176
1124
1209
1322
1309
1176
1085
1139
1251
1260
1126
983
955
1020
1048
974
856
794
818
878
906
857
736
570
391
233
111
18
-71
-175
-274
-323
-303
-262
-267
-348
-458
-522
-535
-572
-700
-887
-1020
-1018
-916
-834
-848
-899
-855
-649
-372
-181
-154
-186
-113
109
350
450
395
313
326
423
486
457
403
440
597
801
952
1018
1049
1099
1166
1217
1223
1190
1152
1129
1123
1146
1195
1265
1327
1362
1367
1347
1300
1227
1145
1077
1020
951
869
818
847
945
1039
1048
962
859
816
835
848
792
684
601
606
695
795
837
799
714
658
693
822
955
970
848
726
761
933
1027
888
629
505
592
688
591
397
385
626
875
891
769
790
1002
1122
930
601
493
684
867
753
458
328
497
741
803
708
654
729
819
821
778
780
825
843
814
785
778
752
684
614
554
428
110
-424
-1058
-1695
-2386
-3271
-4355
-5385
-5992
-6005
-5594
-5046
-4456
-3636
-2370
-753
815
1961
2613
2958
3176
3320
3345
3243
3033
2714
2300
1893
1656
1659
1782
1801
1608
1298
1048
955
977
1021
1030
1001
949
888
840
841
906
979
973
879
795
836
982
1063
958
744
615
656
742
705
536
405
439
567
612
493
306
201
205
213
143
25
-55
-61
-47
-61
-86
-68
-22
-31
-144
-305
-436
-526
-632
-757
-837
-827
-785
-815
-932
-1054
-1108
-1129
-1214
-1389
-1560
-1617
-1534
-1373
-1194
-1018
-851
-713
-608
-505
-373
-237
-153
-155
-193
-161
-14
178
301
322
320
389
512
589
560
496
543
749
998
1130
1118
1089
1147
1236
1209
1014
775
631
587
545
471
466
620
865
1030
1057
1055
1151
1299
1335
1201
1008
892
873
888
898
906
903
857
781
742
752
713
507
178
-78
-124
-23
41
-14
-90
-49
127
331
447
450
381
306
276
304
361
405
403
366
327
325
375
454
522
545
532
538
604
694
727
660
561
549
646
758
791
774
830
1020
1251
1353
1246
1025
867
857
913
886
709
480
369
459
666
829
862
801
741
709
645
447
28
-639
-1485
-2378
-3242
-4130
-5115
-6103
-6773
-6831
-6316
-5559
-4805
-3944
-2690
-1023
641
1792
2302
2488
2709
3003
3151
3006
2671
2363
2163
1987
1779
1623
1622
1733
1803
1730
1573
1473
1466
1482
1457
1404
1366
1317
1192
1010
899
940
1023
966
740
529
505
611
622
433
201
134
225
259
102
-120
-170
4
205
215
30
-179
-248
-157
15
176
260
255
198
152
143
131
73
-4
-51
-89
-228
-519
-857
-1066
-1117
-1151
-1285
-1455
-1519
-1463
-1440
-1552
-1682
-1628
-1367
-1095
-985
-978
-876
-627
-403
-381
-533
-679
-715
-712
-775
-869
-867
-720
-508
-342
-238
-113
93
356
576
675
656
597
578
616
678
732
798
914
1067
1176
1180
1116
1082
1134
1228
1276
1258
1244
1320
1521
1831
2214
2605
2883
2918
2700
2382
2136
1955
1633
1010
219
-393
-582
-445
-292
-323
-471
-531
-405
-163
55
175
193
134
16
-148
-335
-522
-671
-744
-745
-726
-736
-742
-632
-323
121
526
751
792
766
793
883
950
903
742
560
463
485
546
527
385
198
105
175
317
361
207
-68
-272
-303
-248
-279
-467
-683
-750
-632
-455
-328
-194
82
506
873
970
814
624
566
539
293
-283
-1065
-1847
-2551
-3278
-4164
-5224
-6294
-7110
-7460
-7313
-6839
-6228
-5459
-4313
-2665
-763
863
1864
2377
2813
3401
3954
4140
3887
3464
3202
3203
3334
3418
3388
3265
3078
2847
2599
2381
2217
2080
1917
1698
1440
1195
998
835
657
457
288
213
237
302
354
392
453
518
515
394
202
51
-2
-10
-63
-166
-241
-226
-154
-110
-128
-169
-197
-234
-327
-466
-569
-570
-504
-486
-589
-765
-897
-914
-859
-824
-866
-971
-1096
-1205
-1279
-1322
-1354
-1411
-1509
-1621
-1689
-1679
-1611
-1526
-1454
-1389
-1329
-1279
-1232
-1171
-1084
-989
-923
-901
-896
-862
-777
-662
-563
-495
-435
-349
-229
-88
62
207
313
344
312
287
332
425
479
460
449
550
756
943
1014
1003
1011
1061
1069
973
824
720
689
672
618
559
556
616
686
717
699
647
563
445
316
206
128
67
4
-54
-81
-59
-8
35
42
23
14
33
41
-23
-159
-293
-327
-246
-125
-46
-28
-19
30
112
173
158
59
-71
-162
-177
-152
-151
-181
-174
-63
118
261
293
264
280
383
504
550
498
401
321
292
304
323
319
289
262
292
380
474
502
437
317
202
107
-1
-145
-323
-521
-723
-920
-1122
-1389
-1824
-2474
-3259
-4035
-4769
-5577
-6515
-7352
-7676
-7294
-6457
-5588
-4789
-3750
-2205
-375
1142
1945
2174
2260
2432
2544
2373
1919
1399
1016
824
768
799
881
945
932
851
761
707
666
584
469
384
384
435
442
353
222
150
176
217
164
12
-134
-177
-137
-143
-278
-498
-669
-706
-642
-594
-635
-736
-809
-800
-744
-724
-804
-972
-1156
-1280
-1307
-1266
-1223
-1234
-1282
-1292
-1203
-1051
-948
-975
-1091
-1180
-1198
-1209
-1293
-1447
-1591
-1673
-1727
-1807
-1910
-1989
-2021
-2031
-2029
-1978
-1846
-1690
-1611
-1650
-1733
-1751
-1676
-1583
-1551
-1568
-1537
-1402
-1209
-1060
-1001
-971
-868
-664
-439
-310
-303
-327
-250
-27
253
447
488
435
408
479
607
690
662
553
452
430
491
577
632
631
601
587
595
597
557
494
449
432
410
355
282
235
234
250
241
210
186
189
207
214
197
163
118
79
63
85
127
155
150
115
71
36
15
8
12
21
32
54
99
157
213
262
309
353
372
338
254
151
60
-15
-71
-92
-60
10
72
89
79
98
181
303
397
417
380
357
399
495
576
574
480
353
261
217
181
107
0
-92
-130
-99
-28
40
59
3
-107
-218
-317
-488
-858
-1461
-2183
-2871
-3516
-4267
-5198
-6098
-6574
-6412
-5784
-5041
-4308
-3368
-1984
-272
1304
2340
2819
3018
3163
3236
3114
2784
2371
2002
1713
1495
1354
1316
1356
1389
1356
1259
1151
1076
1038
1033
1047
1061
1056
1024
974
913
838
756
692
676
707
734
699
598
486
419
402
393
362
318
287
272
265
277
329
404
434
368
246
175
224
333
382
311
175
72
33
11
-47
-139
-239
-339
-449
-555
-616
-623
-628
-701
-839
-956
-990
-975
-998
-1087
-1171
-1176
-1128
-1124
-1205
-1305
-1331
-1274
-1205
-1174
-1146
-1064
-928
-793
-684
-546
-321
-52
123
125
29
-1
101
243
303
282
300
431
615
753
844
977
1166
1302
1277
1135
1047
1113
1255
1319
1254
1146
1096
1109
1125
1119
1100
1072
1013
920
843
825
845
843
812
808
862
918
898
808
747
776
838
821
689
527
427
395
372
328
277
227
169
108
85
113
132
55
-121
-297
-359
-295
-195
-154
-190
-246
-262
-233
-196
-195
-214
-199
-123
-18
50
65
82
152
243
265
183
69
26
71
134
143
118
142
249
384
443
389
288
234
254
285
258
178
144
240
455
678
797
795
751
724
667
451
-10
-647
-1302
-1906
-2558
-3378
-4263
-4877
-4939
-4499
-3862
-3239
-2521
-1464
-49
1404
2512
3149
3464
3652
3769
3749
3555
3230
2859
2526
2310
2240
2265
2282
2230
2146
2089
2035
1920
1751
1642
1683
1809
1868
1799
1701
1694
1749
1739
1598
1413
1307
1289
1268
1172
1045
985
1027
1110
1153
1129
1069
1021
1002
997
987
957
896
800
691
615
613
660
675
611
513
480
536
586
509
302
96
1
-20
-91
-277
-516
-688
-734
-685
-623
-613
-673
-772
-856
-883
-856
-824
-838
-892
-932
-901
-792
-662
-568
-506
-413
-248
-59
64
103
146
297
547
755
796
707
656
766
989
1168
1203
1162
1191
1343
1514
1560
1468
1374
1391
1482
1500
1388
1264
1298
1495
1672
1677
1573
1545
1664
1778
1718
1519
1378
1389
1434
1349
1160
1047
1086
1162
1121
967
850
849
890
877
838
860
953
1018
991
941
977
1085
1153
1095
978
935
994
1052
1015
923
901
999
1126
1143
1034
908
867
884
852
738
623
591
641
714
799
919
1056
1125
1088
1025
1070
1227
1366
1384
1319
1288
1334
1385
1392
1398
1461
1521
1472
1333
1260
1357
1520
1544
1375
1190
1199
1383
1530
1466
1253
1059
934
741
320
-332
-1069
-1771
-2499
-3402
-4465
-5389
-5779
-5514
-4836
-4064
-3290
-2315
-969
600
2019
2972
3424
3537
3504
3442
3377
3264
3025
2668
2325
2159
2177
2196
2046
1747
1476
1323
1213
1040
837
737
802
959
1090
1169
1218
1237
1202
1137
1107
1134
1145
1077
955
848
802
768
688
553
402
272
170
116
130
188
230
218
182
174
203
241
252
224
163
95
60
82
125
92
-70
-273
-390
-397
-413
-523
-669
-724
-675
-649
-744
-895
-948
-866
-784
-850
-1057
-1258
-1323
-1256
-1161
-1103
-1056
-969
-842
-722
-629
-534
-404
-255
-139
-85
-58
-3
98
195
254
298
365
448
489
459
419
467
618
786
879
898
910
961
1025
1071
1113
1170
1194
1108
912
735
698
781
831
751
618
596
728
885
933
881
860
921
977
918
772
663
651
679
658
580
528
549
606
656
722
805
1029
1141
1120
1037
1018
1078
1080
901
595
358
318
403
441
372
300
349
500
613
596
488
403
391
414
418
401
403
433
469
501
553
646
751
806
806
821
924
1092
1210
1197
1102
1050
1104
1188
1179
1046
884
807
821
832
771
659
577
565
605
655
679
644
516
294
12
-355
-910
-1732
-2728
-3701
-4577
-5457
-6370
-7034
-7026
-6271
-5196
-4297
-3552
-2475
-778
1143
2567
3178
3306
3463
3762
3917
3701
3222
2742
2376
2064
1778
1585
1522
1492
1373
1150
945
881
946
1033
1044
970
881
842
862
885
855
770
682
645
647
627
545
433
350
316
289
227
149
88
39
-34
-133
-187
-137
-23
43
-5
-104
-147
-127
-152
-311
-554
-741
-788
-741
-715
-774
-875
-933
-916
-886
-932
-1098
-1317
-1470
-1496
-1466
-1522
-1714
-1913
-1939
-1765
-1569
-1550
-1717
-1882
-1872
-1710
-1571
-1570
-1659
-1726
-1723
-1694
-1668
-1610
-1482
-1323
-1225
-1227
-1254
-1181
-970
-729
-618
-677
-772
-720
-480
-170
79
261
447
623
698
649
607
711
885
913
712
474
445
622
763
718
592
567
649
671
545
379
305
315
301
225
152
128
101
20
-64
-53
53
153
165
112
60
31
-5
-56
-78
-52
-22
-31
-56
-10
140
316
411
402
359
386
510
673
803
861
859
855
893
962
995
937
810
707
702
773
831
828
801
820
898
984
1030
1035
1010
936
804
643
525
492
492
435
274
60
-118
-235
-348
-529
-778
-1005
-1081
-950
-680
-404
-200
-53
81
186
174
-37
-452
-1066
-1894
-2937
-4118
-5313
-6435
-7425
-8149
-8361
-7896
-6885
-5654
-4375
-2878
-932
1303
3263
4457
4935
5168
5510
5857
5866
5417
4749
4208
3927
3794
3634
3385
3068
2718
2360
2020
1724
1495
1319
1180
1076
1015
983
942
856
736
634
585
551
467
306
135
36
-4
-85
-273
-497
-609
-561
-470
-482
-604
-704
-682
-590
-551
-607
-687
-725
-731
-749
-778
-782
-751
-719
-708
-700
-687
-707
-787
-887
-934
-918
-931
-1049
-1231
-1364
-1393
-1396
-1472
-1618
-1746
-1806
-1844
-1931
-2062
-2159
-2158
-2088
-2029
-2028
-2049
-2029
-1954
-1860
-1787
-1728
-1638
-1497
-1343
-1224
-1132
-1020
-861
-706
-637
-674
-756
-792
-744
-644
-541
-456
-379
-274
-100
143
392
548
561
492
448
470
492
431
298
188
172
225
270
283
314
406
536
627
629
572
528
540
573
556
442
268
128
96
152
213
216
166
108
64
24
-15
-27
-12
-17
-99
-248
-369
-385
-315
-260
-292
-385
-454
-446
-381
-315
-279
-263
-238
-180
-89
13
102
156
174
168
164
187
239
288
282
196
76
-4
-41
-109
-262
-446
-550
-534
-502
-558
-675
-727
-645
-516
-486
-590
-707
-700
-550
-375
-302
-370
-508
-621
-696
-854
-1236
-1860
-2590
-3295
-3992
-4767
-5552
-6051
-6010
-5489
-4791
-4096
-3236
-1948
-297
1254
2250
2649
2770
2908
3045
2951
2502
1829
1207
837
749
816
880
855
756
655
602
577
526
426
309
207
131
81
72
108
156
170
146
135
174
225
203
83
-39
-64
-15
-6
-105
-239
-282
-198
-63
37
84
97
92
69
55
67
66
-12
-159
-284
-300
-221
-151
-157
-212
-259
-285
-317
-371
-441
-535
-661
-801
-911
-980
-1050
-1154
-1256
-1288
-1250
-1229
-1292
-1395
-1440
-1404
-1361
-1384
-1455
-1488
-1437
-1337
-1254
-1197
-1124
-1004
-865
-761
-717
-698
-670
-621
-563
-495
-402
-282
-166
-77
4
126
294
454
535
521
465
434
455
521
595
632
602
531
497
560
684
753
701
594
552
606
664
637
545
478
455
412
320
254
286
364
346
185
-5
-73
-16
35
-20
-143
-228
-234
-197
-160
-128
-100
-106
-161
-226
-252
-231
-208
-217
-245
-258
-235
-185
-131
-107
-143
-236
-331
-367
-337
-295
-290
-313
-318
-289
-247
-202
-150
-100
-83
-116
-160
-152
-78
12
64
81
98
120
114
63
-1
-30
-21
-29
-98
-201
-258
-210
-85
23
45
-3
-58
-105
-234
-551
-1054
-1632
-2203
-2834
-3645
-4592
-5382
-5694
-5473
-4959
-4383
-3708
-2717
-1341
178
1462
2310
2773
2997
3050
2925
2639
2262
1872
1523
1265
1136
1135
1195
1237
1230
1180
1081
930
757
622
558
533
485
415
379
411
469
474
401
308
278
342
457
548
576
569
589
651
700
653
496
299
149
75
41
11
-24
-73
-157
-270
-351
-327
-204
-87
-78
-146
-154
-11
203
316
219
-39
-312
-501
-626
-771
-972
-1183
-1298
-1267
-1157
-1101
-1171
-1301
-1376
-1390
-1459
-1648
-1848
-1865
-1655
-1383
-1230
-1200
-1155
-1035
-941
-971
-1059
-1075
-983
-875
-826
-774
-619
-369
-136
-10
47
115
202
246
214
154
167
288
463
587
597
522
458
467
516
521
436
324
274
283
264
158
25
-21
30
41
-130
-455
-727
-765
-593
-384
-289
-297
-274
-127
121
355
496
548
576
630
710
777
815
841
899
987
1044
1011
910
851
911
1047
1143
1143
1119
1181
1347
1528
1628
1643
1633
1645
1653
1622
1581
1610
1743
1928
2068
2136
2200
2337
2534
2697
2759
2763
2800
2895
2970
2939
2833
2768
2811
2897
2908
2818
2715
2702
2797
2929
3021
3040
2993
2894
2766
2641
2525
2361
2037
1477
743
9
-613
-1220
-2019
-3039
-3963
-4348
-4049
-3341
-2604
-1867
-817
756
2608
4200
5194
5693
6019
6315
6455
6288
5876
5441
5138
4943
4758
4562
4426
4384
4355
4210
3909
3570
3345
3256
3186
3010
2747
2536
2476
2508
2491
2361
2191
2106
2149
2282
2434
2548
2582
2507
2370
2280
2305
2377
2352
2174
1979
1964
2165
2412
2503
2407
2262
2202
2215
2182
2027
1792
1589
1493
1483
1477
1418
1339
1310
1338
1329
1201
991
837
806
790
614
266
-51
-122
46
231
244
114
24
98
273
376
312
162
79
109
150
83
-80
-179
-89
124
280
309
338
530
871
1176
1304
1318
1378
1534
1666
1662
1560
1503
1563
1664
1689
1617
1545
1557
1649
1744
1767
1703
1582
1454
1366
1345
1383
1427
1420
1327
1187
1100
1132
1222
1224
1053
775
554
510
620
768
858
875
866
890
967
1085
1190
1205
1091
890
713
659
729
832
858
781
693
705
823
926
881
698
524
493
568
598
492
321
237
292
380
374
277
207
250
374
497
599
720
869
979
992
943
912
914
862
687
448
290
281
344
365
312
236
181
133
80
47
42
23
-43
-130
-183
-216
-318
-556
-919
-1386
-1986
-2750
-3637
-4565
-5500
-6418
-7169
-7469
-7152
-6381
-5499
-4627
-3535
-1974
-116
1485
2393
2672
2733
2870
2995
2853
2372
1757
1286
1070
1016
985
920
840
782
743
689
607
514
432
375
347
354
390
421
399
322
244
213
211
192
154
121
95
41
-48
-110
-95
-54
-91
-233
-377
-410
-353
-337
-430
-562
-618
-589
-577
-663
-810
-923
-964
-983
-1058
-1192
-1322
-1403
-1447
-1515
-1649
-1827
-1981
-2069
-2114
-2184
-2316
-2476
-2584
-2596
-2558
-2555
-2626
-2711
-2718
-2614
-2454
-2323
-2255
-2218
-2155
-2054
-1958
-1911
-1920
-1957
-1987
-2009
-2030
-2044
-2023
-1944
-1827
-1720
-1643
-1567
-1459
-1337
-1243
-1178
-1084
-938
-814
-821
-961
-1106
-1138
-1090
-1080
-1146
-1197
-1128
-955
-776
-644
-529
-414
-343
-369
-478
-598
-698
-789
-867
-897
-886
-891
-948
-988
-914
-755
-669
-769
-959
-1031
-931
-821
-886
-1108
-1294
-1305
-1200
-1117
-1105
-1090
-1016
-923
-880
-878
-866
-837
-851
-960
-1107
-1186
-1152
-1068
-1037
-1079
-1124
-1089
-957
-775
-617
-529
-496
-466
-395
-280
-166
-113
-127
-163
-171
-136
-63
40
158
244
248
184
139
196
323
392
298
90
-83
-110
-5
129
198
166
51
-109
-280
-439
-652
-1031
-1642
-2422
-3247
-4068
-4932
-5807
-6458
-6582
-6095
-5271
-4444
-3637
-2549
-982
778
2136
2737
2785
2770
2929
3066
2892
2404
1891
1603
1537
1535
1508
1470
1415
1302
1133
993
958
953
843
621
450
471
612
665
552
419
433
565
635
565
472
497
586
550
343
148
155
324
427
328
139
42
63
59
-76
-246
-278
-129
49
39
-239
-664
-1026
-1217
-1315
-1488
-1798
-2107
-2192
-1956
-1521
-1118
-898
-865
-952
-1111
-1316
-1544
-1789
-2045
-2290
-2465
-2505
-2401
-2209
-1993
-1795
-1674
-1693
-1874
-2164
-2452
-2672
-2828
-2925
-2957
-2935
-2907
-2905
-2891
-2793
-2614
-2469
-2444
-2504
-2539
-2506
-2454
-2436
-2429
-2372
-2262
-2158
-2095
-2035
-1927
-1798
-1731
-1768
-1861
-1928
-1954
-1997
-2096
-2208
-2268
-2274
-2286
-2357
-2451
-2481
-2420
-2329
-2285
-2302
-2334
-2336
-2308
-2283
-2270
-2263
-2252
-2225
-2167
-2081
-1999
-1968
-1996
-2033
-2025
-1972
-1932
-1936
-1963
-1961
-1907
-1826
-1758
-1720
-1696
-1676
-1670
-1715
-1826
-1960
-2045
-2050
-2005
-1969
-1959
-1946
-1902
-1834
-1762
-1672
-1532
-1357
-1206
-1120
-1068
-981
-850
-750
-769
-914
-1104
-1228
-1252
-1233
-1261
-1353
-1443
-1435
-1304
-1126
-1010
-999
-1023
-992
-884
-764
-711
-755
-868
-1001
-1123
-1246
-1433
-1772
-2298
-2945
-3605
-4248
-4949
-5724
-6413
-6751
-6632
-6203
-5672
-5035
-4088
-2717
-1141
234
1167
1725
2099
2361
2432
2249
1870
1423
1005
675
480
426
442
396
242
59
-54
-103
-209
-452
-763
-998
-1099
-1148
-1259
-1448
-1629
-1724
-1767
-1845
-1979
-2100
-2153
-2189
-2313
-2535
-2741
-2816
-2787
-2786
-2887
-3031
-3111
-3122
-3155
-3259
-3381
-3443
-3458
-3514
-3628
-3718
-3709
-3640
-3630
-3724
-3836
-3869
-3836
-3835
-3918
-4027
-4058
-3999
-3930
-3927
-3977
-4021
-4042
-4093
-4234
-4439
-4601
-4633
-4569
-4525
-4556
-4584
-4487
-4264
-4063
-4037
-4181
-4344
-4415
-4407
-4396
-4397
-4359
-4267
-4165
-4076
-3952
-3734
-3449
-3211
-3095
-3059
-2996
-2852
-2657
-2486
-2388
-2367
-2386
-2389
-2350
-2306
-2316
-2389
-2442
-2377
-2204
-2033
-1946
-1911
-1836
-1698
-1580
-1584
-1722
-1918
-2087
-2173
-2161
-2076
-1992
-1975
-2025
-2045
-1929
-1694
-1479
-1410
-1483
-1576
-1589
-1523
-1432
-1353
-1284
-1235
-1248
-1334
-1439
-1480
-1434
-1355
-1299
-1252
-1169
-1050
-938
-852
-756
-627
-515
-516
-641
-772
-769
-608
-394
-252
-208
-202
-164
-71
52
176
269
312
289
208
121
96
176
308
344
172
-162
-466
-594
-587
-603
-724
-842
-797
-560
-281
-137
-169
-271
-344
-414
-626
-1086
-1731
-2378
-2918
-3440
-4114
-4923
-5567
-5727
-5373
-4774
-4178
-3526
-2571
-1245
163
1261
1890
2204
2413
2559
2546
2331
1996
1663
1409
1272
1284
1434
1613
1669
1539
1315
1132
1034
946
787
586
448
440
526
614
652
663
683
701
683
626
573
557
548
473
317
147
64
95
169
184
114
19
-25
-2
41
60
47
14
-35
-107
-186
-239
-250
-242
-267
-347
-452
-523
-521
-467
-411
-407
-465
-557
-635
-670
-678
-711
-800
-913
-985
-990
-963
-953
-949
-900
-795
-703
-686
-724
-723
-629
-498
-422
-421
-416
-329
-170
-27
33
23
12
49
124
184
206
220
271
360
434
453
453
524
692
868
920
818
678
634
696
759
735
648
590
607
656
676
654
629
641
685
721
711
654
586
547
551
578
591
571
521
460
418
428
489
554
565
511
446
424
425
388
292
189
144
158
179
181
201
285
423
556
651
723
805
899
971
1000
999
1002
1020
1030
1009
967
947
991
1089
1198
1289
1377
1479
1556
1539
1409
1234
1105
1027
923
738
529
413
441
551
646
700
781
951
1170
1307
1260
1067
868
755
646
321
-350
-1248
-2089
-2726
-3301
-4042
-4908
-5523
-5508
-4871
-3965
-3091
-2191
-1018
461
1932
3023
3640
3975
4217
4362
4302
4038
3727
3538
3506
3560
3610
3626
3620
3598
3549
3439
3240
2957
2648
2421
2358
2453
2614
2737
2759
2675
2536
2394
2261
2106
1910
1709
1566
1523
1553
1594
1623
1676
1787
1906
1916
1745
1464
1229
1126
1085
957
715
497
447
547
625
556
393
270
234
213
151
90
101
170
217
201
159
141
148
146
134
145
184
206
190
182
239
347
430
446
440
494
630
785
873
875
863
931
1107
1324
1472
1501
1463
1468
1573
1740
1883
1957
2005
2098
2245
2386
2471
2529
2634
2790
2898
2866
2742
2706
2868
3134
3306
3297
3235
3292
3480
3649
3689
3653
3655
3702
3671
3496
3277
3175
3206
3224
3107
2925
2849
2943
3083
3106
2986
2846
2795
2823
2828
2737
2584
2465
2452
2525
2593
2578
2495
2458
2562
2761
2900
2864
2705
2585
2616
2757
2866
2840
2704
2570
2545
2640
2767
2818
2765
2698
2725
2860
3003
3053
3021
2989
2986
2950
2838
2700
2620
2601
2557
2439
2307
2254
2271
2261
2172
2068
2044
2084
2097
2050
2017
2077
2206
2298
2284
2184
2030
1804
1428
843
72
-786
-1663
-2578
-3592
-4657
-5512
-5812
-5434
-4621
-3740
-2872
-1733
-69
1906
3599
4560
4867
4944
5090
5230
5127
4710
4143
3651
3357
3261
3295
3360
3347
3205
2976
2760
2621
2549
2478
2374
2252
2150
2098
2093
2089
2028
1906
1773
1700
1706
1741
1739
1694
1648
1622
1582
1490
1356
1241
1180
1159
1155
1149
1138
1117
1080
1052
1057
1060
983
796
589
484
505
539
487
357
243
191
162
106
34
-37
-142
-318
-522
-653
-667
-647
-710
-857
-981
-1003
-976
-1003
-1105
-1189
-1159
-1035
-911
-858
-853
-818
-729
-637
-589
-571
-524
-426
-323
-289
-313
-307
-196
-6
161
236
263
363
607
943
1247
1449
1548
1577
1565
1539
1515
1495
1416
1244
1055
1011
1198
1482
1618
1503
1299
1244
1386
1545
1518
1305
1082
1012
1094
1218
1320
1408
1493
1544
1521
1449
1406
1432
1449
1341
1110
912
899
1039
1132
1016
757
596
652
800
812
631
430
384
472
519
432
308
287
368
423
400
401
538
752
878
854
822
936
1158
1295
1247
1136
1134
1236
1293
1233
1157
1197
1331
1420
1380
1279
1236
1264
1268
1183
1081
1083
1213
1357
1373
1231
1030
863
694
395
-150
-931
-1830
-2720
-3587
-4508
-5495
-6377
-6833
-6660
-5988
-5168
-4389
-3451
-2023
-148
1640
2789
3238
3399
3645
3930
3948
3573
3016
2569
2323
2183
2077
2043
2098
2146
2069
1856
1620
1486
1466
1465
1389
1234
1099
1098
1241
1410
1464
1376
1263
1261
1369
1438
1321
1044
794
740
856
963
922
767
657
695
815
872
799
671
594
585
572
486
371
321
364
421
402
308
230
225
246
190
13
-215
-405
-538
-668
-854
-1075
-1246
-1302
-1263
-1224
-1254
-1325
-1354
-1322
-1317
-1429
-1610
-1687
-1564
-1355
-1266
-1351
-1441
-1348
-1093
-869
-838
-954
-1049
-1027
-918
-799
-707
-643
-607
-570
-494
-365
-219
-113
-65
-15
85
208
273
245
180
159
219
329
421
456
429
374
339
361
434
487
439
265
45
-101
-106
-6
76
48
-77
-190
-194
-104
-34
-76
-214
-331
-331
-241
-153
-113
-85
-10
111
226
300
344
391
426
415
362
302
269
250
209
138
75
65
109
169
199
200
221
293
400
484
539
629
820
1068
1230
1212
1086
1011
1017
988
824
602
485
511
548
492
423
502
724
886
842
699
706
927
1139
1108
866
647
567
434
-29
-832
-1706
-2448
-3155
-4028
-4967
-5554
-5468
-4833
-4043
-3266
-2286
-883
766
2229
3236
3880
4345
4605
4507
4083
3609
3308
3128
2856
2437
2056
1928
2075
2328
2493
2479
2324
2145
2052
2073
2138
2134
1994
1743
1463
1238
1145
1198
1320
1358
1225
1008
890
953
1088
1099
913
621
378
271
274
299
276
197
125
124
185
232
223
197
220
279
293
220
131
96
84
-2
-179
-331
-355
-297
-281
-348
-411
-394
-333
-323
-372
-415
-431
-487
-644
-846
-974
-991
-994
-1096
-1290
-1449
-1475
-1404
-1358
-1410
-1522
-1606
-1636
-1671
-1762
-1876
-1926
-1870
-1746
-1628
-1541
-1442
-1291
-1097
-905
-755
-643
-547
-443
-330
-213
-95
32
184
354
517
648
762
902
1081
1257
1361
1379
1400
1510
1686
1815
1834
1806
1837
1942
2035
2055
2057
2121
2225
2256
2163
2031
1973
1973
1912
1735
1528
1414
1400
1396
1348
1301
1313
1379
1444
1494
1551
1609
1620
1545
1405
1242
1084
944
839
777
703
547
329
179
198
312
335
192
29
55
298
563
650
568
494
546
657
679
564
386
239
143
72
22
8
29
56
76
111
165
202
175
99
19
-84
-322
-785
-1407
-2016
-2547
-3150
-4021
-5086
-5964
-6295
-6084
-5664
-5280
-4795
-3881
-2456
-854
470
1346
1939
2445
2858
3031
2918
2638
2343
2087
1845
1624
1474
1413
1389
1324
1187
1003
826
702
649
654
685
720
767
839
910
926
860
768
725
729
689
539
322
161
126
157
126
-14
-188
-276
-233
-127
-60
-71
-128
-175
-197
-233
-329
-502
-703
-857
-919
-922
-940
-1031
-1167
-1263
-1270
-1224
-1216
-1300
-1450
-1600
-1719
-1815
-1893
-1944
-1984
-2071
-2238
-2435
-2537
-2476
-2334
-2261
-2314
-2386
-2326
-2127
-1936
-1885
-1949
-1989
-1914
-1759
-1623
-1566
-1556
-1531
-1467
-1398
-1370
-1376
-1352
-1227
-1017
-833
-774
-802
-775
-609
-388
-265
-281
-322
-276
-168
-101
-106
-109
-48
27
30
-42
-95
-67
1
25
-3
-15
23
70
66
22
-7
6
20
-15
-98
-172
-186
-147
-98
-66
-42
-32
-53
-109
-153
-118
8
140
177
106
21
19
78
96
16
-96
-130
-69
-3
-1
-20
34
180
332
401
401
419
507
626
708
742
776
853
969
1066
1098
1068
1023
1017
1049
1058
992
866
757
732
783
841
846
795
752
763
800
804
740
608
405
79
-395
-941
-1447
-1943
-2615
-3564
-4559
-5135
-5036
-4489
-3940
-3514
-2874
-1669
-20
1529
2544
3044
3334
3606
3785
3738
3460
3056
2618
2218
1932
1822
1857
1911
1897
1832
1767
1693
1570
1412
1310
1323
1384
1379
1273
1152
1120
1180
1243
1214
1078
885
703
570
486
423
351
264
186
145
151
189
232
269
291
281
230
146
58
-16
-83
-150
-210
-251
-289
-349
-429
-481
-487
-494
-571
-712
-820
-825
-777
-807
-961
-1142
-1214
-1160
-1092
-1112
-1210
-1295
-1317
-1312
-1335
-1397
-1459
-1475
-1444
-1404
-1392
-1419
-1443
-1415
-1332
-1248
-1213
-1222
-1212
-1147
-1048
-962
-898
-829
-753
-691
-651
-607
-521
-405
-314
-269
-224
-120
33
160
208
199
187
187
171
120
70
57
74
95
138
246
418
573
638
636
658
733
772
672
455
269
232
312
379
356
288
270
333
404
395
296
162
62
13
-19
-52
-49
46
232
417
500
486
463
499
569
583
505
414
412
520
654
727
745
780
864
944
940
847
767
790
907
1045
1149
1233
1316
1357
1283
1075
819
636
578
598
598
520
426
471
743
1133
1360
1206
716
114
-442
-1004
-1727
-2667
-3757
-4906
-5997
-6824
-7129
-6828
-6153
-5440
-4740
-3785
-2350
-610
937
1938
2451
2774
3077
3292
3276
3007
2590
2165
1839
1647
1559
1495
1403
1325
1328
1389
1396
1284
1154
1157
1299
1405
1321
1099
924
897
942
939
876
831
846
861
827
774
757
763
728
651
611
679
816
918
929
892
866
856
841
830
862
944
1024
1038
979
901
849
809
734
612
474
350
243
138
40
-24
-37
-33
-69
-184
-360
-557
-744
-918
-1073
-1202
-1307
-1392
-1444
-1423
-1301
-1109
-933
-841
-827
-831
-816
-808
-849
-923
-952
-888
-773
-695
-654
-546
-294
38
288
368
354
392
533
697
781
764
701
659
664
721
799
848
843
815
814
849
868
846
825
855
896
857
710
551
475
463
406
254
75
-18
4
80
154
222
299
379
447
507
568
626
670
698
714
719
720
740
791
859
895
860
779
719
727
790
868
938
1013
1114
1250
1393
1489
1503
1454
1409
1437
1522
1588
1589
1590
1693
1899
2069
2063
1907
1754
1709
1705
1605
1398
1228
1227
1370
1527
1632
1720
1818
1861
1751
1481
1119
666
32
-822
-1786
-2710
-3590
-4507
-5367
-5834
-5630
-4871
-3993
-3237
-2380
-1032
785
2531
3660
4127
4313
4529
4727
4693
4372
3907
3429
2984
2618
2436
2466
2560
2524
2330
2133
2072
2122
2170
2173
2151
2099
1998
1887
1872
1982
2091
2052
1880
1742
1755
1854
1892
1812
1688
1603
1562
1527
1477
1425
1363
1271
1176
1125
1127
1124
1066
981
935
939
944
908
836
750
654
534
431
424
523
627
598
399
149
-7
-22
3
-71
-294
-585
-801
-856
-804
-774
-836
-934
-960
-909
-883
-949
-1047
-1054
-950
-862
-902
-1005
-991
-800
-577
-508
-575
-587
-422
-190
-98
-174
-212
-26
323
581
580
424
344
445
622
706
649
548
521
616
792
962
1047
1035
996
1025
1112
1138
1020
832
744
823
947
979
968
1061
1277
1428
1351
1148
1091
1288
1524
1512
1236
967
940
1101
1214
1166
1067
1074
1176
1237
1206
1206
1340
1520
1544
1361
1156
1130
1269
1368
1313
1242
1347
1601
1766
1700
1557
1589
1823
2020
1991
1840
1822
2019
2268
2382
2367
2348
2352
2272
2051
1802
1687
1728
1770
1680
1525
1497
1690
2002
2225
2248
2142
2061
2048
1958
1615
1009
305
-348
-1031
-1948
-3095
-4117
-4568
-4360
-3841
-3371
-2890
-2008
-541
1178
2564
3336
3687
3969
4297
4517
4467
4182
3837
3585
3481
3494
3552
3561
3460
3281
3120
3032
2987
2966
3000
3109
3248
3331
3348
3383
3475
3529
3423
3145
2814
2561
2409
2298
2169
2004
1815
1641
1528
1493
1494
1472
1429
1424
1470
1486
1398
1263
1220
1314
1433
1451
1397
1398
1518
1686
1799
1869
1988
2149
2228
2123
1884
1664
1547
1461
1295
1030
745
523
391
330
328
371
414
410
365
359
457
599
657
569
440
426
536
628
586
468
462
652
916
1044
976
863
899
1122
1398
1555
1557
1515
1567
1735
1933
2048
2068
2074
2135
2221
2247
2174
2045
1910
1780
1655
1568
1564
1626
1678
1686
1720
1846
2020
2098
2014
1865
1789
1797
1778
1664
1526
1484
1540
1583
1539
1467
1455
1479
1424
1237
1004
855
825
836
809
750
715
729
795
915
1081
1218
1243
1182
1192
1403
1736
1942
1876
1662
1547
1607
1672
1564
1322
1138
1097
1091
992
854
837
977
1118
1104
969
876
893
917
833
678
578
580
590
520
434
469
637
790
774
565
248
-113
-532
-1053
-1705
-2507
-3462
-4480
-5345
-5824
-5853
-5571
-5147
-4575
-3718
-2501
-1083
222
1150
1630
1764
1719
1608
1442
1162
731
229
-158
-290
-215
-114
-122
-205
-246
-231
-276
-467
-736
-933
-997
-1015
-1100
-1260
-1429
-1571
-1723
-1931
-2163
-2349
-2449
-2478
-2469
-2433
-2369
-2277
-2163
-2044
-1955
-1938
-2009
-2150
-2321
-2503
-2695
-2900
-3107
-3291
-3419
-3457
-3409
-3330
-3282
-3279
-3268
-3218
-3187
-3281
-3502
-3711
-3765
-3682
-3611
-3643
-3692
-3613
-3387
-3145
-3020
-3021
-3058
-3077
-3098
-3145
-3186
-3181
-3141
-3101
-3041
-2892
-2624
-2324
-2115
-2032
-1987
-1888
-1753
-1675
-1698
-1763
-1780
-1730
-1680
-1682
-1706
-1700
-1654
-1614
-1615
-1639
-1631
-1565
-1471
-1401
-1387
-1416
-1446
-1458
-1459
-1475
-1520
-1593
-1662
-1690
-1677
-1658
-1682
-1765
-1869
-1936
-1938
-1902
-1886
-1917
-1971
-2004
-1999
-1972
-1943
-1907
-1848
-1785
-1784
-1881
-2020
-2080
-2002
-1873
-1846
-1972
-2144
-2208
-2130
-2012
-1961
-1983
-2006
-1980
-1919
-1856
-1796
-1724
-1640
-1562
-1507
-1476
-1462
-1450
-1414
-1334
-1227
-1152
-1160
-1231
-1287
-1253
-1133
-1014
-999
-1110
-1262
-1338
-1289
-1191
-1176
-1297
-1477
-1579
-1533
-1408
-1316
-1323
-1409
-1510
-1575
-1602
-1651
-1821
-2190
-2735
-3334
-3883
-4425
-5095
-5911
-6651
-7001
-6848
-6373
-5816
-5191
-4306
-3061
-1654
-462
294
679
897
1050
1080
902
536
114
-226
-421
-509
-570
-655
-757
-832
-859
-862
-873
-905
-940
-964
-972
-960
-937
-930
-986
-1124
-1291
-1390
-1376
-1315
-1305
-1368
-1424
-1380
-1244
-1123
-1121
-1225
-1328
-1343
-1301
-1311
-1432
-1585
-1631
-1534
-1418
-1432
-1578
-1701
-1660
-1501
-1408
-1485
-1641
-1710
-1647
-1572
-1617
-1773
-1916
-1953
-1909
-1867
-1878
-1934
-2007
-2078
-2149
-2217
-2298
-2410
-2543
-2651
-2690
-2661
-2602
-2546
-2486
-2403
-2300
-2205
-2134
-2057
-1941
-1802
-1720
-1754
-1850
-1857
-1684
-1419
-1251
-1257
-1299
-1179
-868
-549
-423
-488
-569
-534
-423
-372
-425
-486
-445
-308
-180
-139
-147
-94
64
245
317
226
53
-75
-111
-105
-116
-125
-78
11
66
62
69
166
298
321
184
12
-33
54
126
89
20
52
190
307
306
238
211
248
275
242
187
164
171
173
167
176
196
179
99
12
15
136
310
440
508
580
719
920
1098
1168
1123
1037
995
1004
1012
982
942
952
1012
1059
1051
1042
1107
1249
1359
1339
1227
1134
1091
977
633
50
-626
-1288
-2010
-2943
-4051
-5013
-5451
-5272
-4735
-4141
-3502
-2566
-1165
515
2035
3061
3579
3793
3881
3865
3680
3291
2745
2159
1688
1455
1467
1607
1700
1662
1544
1436
1381
1339
1247
1091
900
728
623
600
615
604
539
462
437
469
504
492
452
442
483
538
558
536
502
482
472
460
443
435
447
488
551
628
699
747
757
712
600
435
261
127
43
-20
-89
-145
-141
-85
-53
-125
-301
-501
-655
-773
-911
-1087
-1263
-1385
-1447
-1481
-1512
-1541
-1566
-1601
-1656
-1702
-1693
-1624
-1532
-1450
-1367
-1244
-1078
-919
-811
-736
-632
-466
-290
-175
-128
-78
33
179
300
391
531
760
996
1122
1137
1164
1297
1460
1498
1386
1279
1336
1527
1684
1709
1675
1713
1841
1967
2015
2002
1994
2025
2092
2181
2270
2332
2356
2365
2389
2391
2304
2132
1984
1961
2057
2183
2289
2413
2586
2738
2778
2705
2586
2462
2290
2037
1782
1657
1716
1903
2135
2369
2559
2617
2498
2305
2210
2257
2285
2114
1802
1615
1721
2008
2218
2221
2123
2075
2080
2041
1934
1840
1820
1817
1740
1623
1599
1718
1875
1925
1830
1682
1553
1407
1133
665
35
-664
-1372
-2133
-3037
-4082
-5050
-5575
-5436
-4754
-3856
-2939
-1906
-570
998
2438
3419
3901
4072
4077
3893
3473
2908
2403
2093
1960
1895
1841
1841
1957
2192
2470
2665
2696
2587
2453
2402
2446
2506
2513
2479
2459
2494
2557
2596
2587
2563
2581
2670
2783
2835
2781
2671
2615
2688
2850
2999
3068
3077
3081
3089
3071
3004
2921
2861
2814
2747
2669
2630
2659
2725
2759
2745
2718
2698
2659
2562
2415
2272
2155
2031
1865
1690
1583
1578
1610
1583
1464
1314
1215
1182
1167
1129
1062
992
951
964
1048
1178
1307
1391
1415
1395
1355
1314
1304
1355
1453
1541
1578
1604
1706
1891
2056
2114
2103
2139
2254
2340
2304
2200
2176
2253
2300
2187
1948
1727
1585
1451
1264
1077
975
940
885
792
737
769
821
795
702
640
657
689
670
639
693
834
942
929
843
804
843
896
914
926
984
1073
1143
1177
1200
1217
1199
1136
1075
1083
1153
1217
1232
1210
1197
1235
1343
1504
1630
1610
1452
1316
1350
1504
1573
1449
1271
1238
1346
1406
1308
1167
1145
1217
1234
1153
1110
1200
1334
1380
1353
1380
1476
1484
1300
1000
708
395
-87
-802
-1642
-2478
-3269
-3965
-4392
-4369
-3913
-3246
-2521
-1639
-421
1093
2574
3654
4193
4321
4275
4234
4225
4137
3837
3322
2795
2533
2618
2850
2941
2793
2541
2365
2309
2295
2240
2121
1964
1807
1690
1632
1609
1571
1504
1452
1443
1460
1466
1471
1513
1600
1677
1679
1598
1488
1422
1430
1467
1455
1353
1196
1066
1012
987
916
803
713
694
723
762
825
939
1051
1058
915
713
572
492
372
154
-99
-280
-345
-343
-347
-400
-494
-584
-617
-605
-651
-829
-1057
-1145
-999
-776
-728
-913
-1118
-1125
-950
-801
-824
-945
-1011
-968
-881
-790
-680
-552
-466
-467
-519
-528
-458
-353
-283
-261
-259
-247
-203
-117
2
88
72
-36
-159
-215
-208
-188
-174
-146
-83
10
97
155
177
159
104
44
24
49
66
4
-152
-317
-373
-284
-141
-98
-216
-398
-466
-351
-168
-95
-178
-276
-215
-11
161
170
80
79
238
407
395
208
69
177
468
678
640
452
365
503
758
927
923
812
699
626
580
551
540
528
494
436
390
401
480
578
623
604
582
632
763
893
926
852
712
517
213
-230
-769
-1364
-2065
-2951
-3923
-4691
-5005
-4889
-4582
-4201
-3590
-2544
-1135
273
1367
2111
2658
3060
3212
3037
2637
2221
1905
1650
1389
1152
1017
1015
1096
1186
1251
1280
1251
1150
1018
939
962
1030
1027
888
663
477
401
396
375
308
236
210
233
272
300
316
329
330
309
286
285
312
355
399
438
469
472
437
387
369
389
408
373
273
150
64
39
50
39
-45
-216
-422
-571
-620
-621
-686
-867
-1104
-1289
-1389
-1449
-1520
-1607
-1694
-1788
-1897
-1976
-1957
-1838
-1724
-1727
-1835
-1904
-1813
-1594
-1397
-1345
-1411
-1463
-1400
-1237
-1089
-1052
-1118
-1179
-1130
-960
-743
-575
-494
-452
-367
-206
-15
106
102
14
-59
-74
-74
-115
-181
-205
-166
-121
-138
-203
-243
-219
-162
-117
-96
-91
-98
-112
-116
-97
-86
-120
-193
-263
-299
-315
-328
-308
-208
-69
0
-50
-132
-128
-48
-38
-198
-444
-605
-618
-570
-529
-453
-308
-199
-289
-586
-885
-966
-845
-734
-764
-827
-704
-331
161
613
980
1297
1560
1715
1745
1708
1675
1657
1611
1517
1407
1324
1293
1287
1265
1196
1077
932
769
567
295
-51
-413
-733
-1081
-1668
-2637
-3843
-4847
-5230
-4956
-4397
-3929
-3538
-2858
-1630
-50
1370
2236
2541
2544
2466
2338
2093
1718
1292
925
683
576
574
649
759
838
813
635
338
29
-192
-300
-345
-390
-464
-555
-641
-688
-661
-565
-470
-442
-490
-564
-626
-694
-806
-962
-1114
-1205
-1209
-1141
-1041
-946
-853
-709
-481
-241
-128
-202
-357
-448
-460
-522
-715
-944
-1044
-994
-921
-931
-978
-959
-870
-821
-885
-1027
-1183
-1351
-1557
-1778
-1950
-2060
-2171
-2320
-2454
-2483
-2408
-2322
-2303
-2328
-2323
-2265
-2194
-2154
-2129
-2067
-1952
-1812
-1669
-1515
-1341
-1176
-1072
-1038
-1006
-904
-734
-574
-487
-448
-376
-242
-103
-29
-18
-17
-5
-23
-106
-210
-247
-193
-131
-168
-325
-510
-613
-611
-577
-616
-761
-938
-1041
-1016
-919
-844
-828
-817
-750
-640
-570
-580
-614
-582
-474
-381
-375
-427
-434
-345
-212
-131
-126
-150
-148
-119
-103
-129
-192
-263
-308
-323
-329
-357
-395
-386
-274
-70
145
300
409
553
775
1018
1181
1224
1190
1144
1098
1025
921
814
726
648
588
584
639
685
650
571
573
700
818
758
528
304
167
-47
-567
-1391
-2276
-3043
-3762
-4561
-5310
-5647
-5374
-4704
-4013
-3383
-2518
-1159
504
1943
2774
3088
3263
3531
3779
3751
3367
2811
2344
2087
1973
1880
1761
1652
1606
1620
1648
1657
1645
1628
1597
1527
1408
1265
1150
1082
1047
1017
982
957
957
983
1014
1017
957
817
628
473
411
428
443
389
289
247
336
518
670
690
578
426
327
295
286
260
213
165
108
2
-140
-250
-287
-296
-354
-466
-559
-592
-629
-740
-882
-933
-887
-920
-1188
-1596
-1867
-1846
-1699
-1720
-1983
-2269
-2329
-2158
-1969
-1939
-2023
-2049
-1919
-1681
-1435
-1243
-1092
-952
-800
-634
-453
-295
-200
-154
-112
-56
6
66
125
177
168
40
-165
-293
-217
10
195
209
117
88
193
342
408
344
194
22
-119
-184
-141
-23
89
140
167
214
263
244
143
17
-71
-119
-173
-233
-244
-157
6
180
294
326
303
270
258
261
258
248
259
305
347
332
261
214
274
420
537
543
480
474
598
792
934
962
932
932
980
1006
938
805
706
719
827
933
953
905
894
990
1148
1227
1142
955
811
754
633
242
-430
-1161
-1752
-2286
-3027
-4052
-5026
-5458
-5189
-4533
-3917
-3407
-2672
-1392
320
1967
3093
3626
3827
3972
4100
4057
3718
3136
2518
2064
1832
1745
1700
1650
1624
1645
1677
1655
1553
1419
1336
1335
1362
1335
1234
1105
1017
991
977
922
808
658
505
376
289
265
332
483
679
856
959
970
910
815
702
561
372
144
-75
-224
-275
-252
-201
-153
-127
-147
-237
-404
-606
-782
-909
-1031
-1202
-1420
-1611
-1700
-1688
-1653
-1668
-1743
-1834
-1905
-1953
-1994
-2017
-2000
-1947
-1896
-1878
-1891
-1907
-1911
-1918
-1937
-1953
-1941
-1899
-1849
-1806
-1756
-1672
-1546
-1406
-1286
-1195
-1117
-1043
-977
-925
-877
-813
-722
-605
-464
-303
-134
18
122
161
144
100
50
3
-62
-161
-277
-355
-354
-286
-216
-196
-207
-197
-153
-137
-214
-369
-517
-592
-606
-614
-626
-596
-500
-376
-283
-231
-178
-97
-11
27
-11
-108
-226
-327
-386
-397
-374
-324
-247
-148
-71
-62
-104
-135
-134
-177
-336
-542
-604
-408
-77
168
276
419
735
1096
1226
1032
739
639
763
894
866
763
800
1041
1332
1501
1514
1455
1394
1309
1136
823
350
-250
-893
-1503
-2121
-2906
-3906
-4874
-5369
-5153
-4444
-3677
-3025
-2235
-1001
580
2009
2851
3103
3084
3026
2899
2587
2126
1685
1379
1170
987
841
790
803
769
629
436
302
248
219
168
100
39
-36
-165
-330
-463
-507
-475
-448
-501
-653
-849
-1009
-1089
-1134
-1218
-1373
-1544
-1657
-1682
-1643
-1550
-1413
-1306
-1366
-1618
-1895
-1984
-1883
-1833
-2042
-2405
-2596
-2426
-2041
-1749
-1699
-1777
-1801
-1705
-1553
-1437
-1407
-1473
-1588
-1649
-1564
-1366
-1218
-1236
-1370
-1444
-1359
-1201
-1131
-1186
-1239
-1153
-955
-795
-765
-780
-698
-505
-349
-369
-528
-645
-600
-450
-328
-277
-218
-61
181
415
569
649
698
743
787
835
900
983
1059
1101
1098
1075
1072
1103
1151
1183
1181
1157
1137
1153
1221
1314
1388
1407
1381
1352
1353
1369
1363
1328
1290
1266
1230
1155
1069
1040
1090
1163
1192
1171
1159
1186
1213
1196
1150
1130
1150
1162
1123
1079
1125
1293
1482
1563
1499
1399
1395
1493
1591
1596
1527
1494
1555
1655
1700
1667
1606
1554
1493
1402
1316
1296
1338
1374
1366
1361
1421
1508
1523
1452
1429
1572
1812
1946
1855
1629
1418
1233
918
366
-383
-1206
-2038
-2862
-3583
-4020
-4042
-3677
-3062
-2279
-1302
-102
1239
2534
3580
4244
4508
4458
4248
3999
3734
3399
2963
2516
2216
2145
2238
2327
2304
2204
2131
2133
2147
2091
1983
1942
2024
2146
2168
2048
1906
1869
1923
1926
1793
1612
1548
1645
1783
1814
1736
1681
1723
1778
1717
1542
1423
1497
1695
1810
1736
1587
1549
1653
1749
1711
1579
1492
1515
1555
1511
1401
1323
1316
1303
1176
948
732
604
519
392
225
115
135
222
235
110
-63
-133
-45
95
122
-20
-225
-319
-226
-25
131
169
161
224
382
529
564
513
485
554
664
730
771
897
1148
1430
1586
1577
1517
1541
1629
1648
1514
1313
1211
1261
1333
1267
1077
970
1093
1338
1471
1406
1301
1314
1373
1299
1101
1022
1222
1491
1444
1039
683
776
1210
1474
1262
830
674
957
1371
1552
1468
1370
1427
1553
1562
1432
1297
1255
1235
1114
886
708
731
951
1212
1357
1380
1378
1421
1476
1474
1412
1370
1386
1409
1379
1296
1248
1304
1420
1471
1395
1258
1182
1207
1243
1175
1022
919
966
1107
1185
1115
1006
1025
1180
1254
1024
502
-89
-571
-1046
-1774
-2814
-3831
-4365
-4273
-3844
-3440
-3068
-2370
-1089
543
1967
2803
3149
3372
3682
3939
3889
3482
2916
2433
2136
1963
1843
1758
1694
1591
1402
1190
1084
1127
1198
1146
975
856
910
1050
1088
959
780
690
690
686
635
584
569
567
560
582
656
726
718
645
610
668
751
751
657
549
490
462
428
386
348
315
269
230
226
241
227
168
104
49
-46
-224
-414
-493
-450
-441
-612
-902
-1101
-1091
-979
-976
-1153
-1374
-1458
-1376
-1248
-1204
-1274
-1390
-1454
-1423
-1330
-1230
-1139
-1042
-935
-839
-779
-728
-629
-474
-317
-206
-98
76
283
414
409
339
324
366
365
277
201
267
471
684
821
913
1022
1129
1145
1029
829
624
462
357
344
456
661
859
968
996
1018
1080
1150
1150
1051
909
813
795
807
797
760
724
698
663
632
660
779
912
930
804
680
735
966
1163
1153
1007
982
1226
1610
1876
1908
1830
1830
1939
2027
1995
1909
1903
2020
2169
2256
2291
2362
2507
2642
2632
2430
2134
1935
1967
2178
2376
2421
2355
2333
2417
2466
2279
1818
1233
688
173
-459
-1304
-2286
-3189
-3788
-3965
-3770
-3384
-2958
-2446
-1631
-377
1133
2469
3319
3732
3991
4279
4509
4491
4197
3800
3491
3320
3200
3047
2855
2672
2541
2446
2297
2020
1650
1336
1226
1308
1413
1381
1233
1140
1217
1376
1407
1206
912
752
809
930
883
595
240
88
250
583
821
826
720
745
1004
1350
1542
1488
1299
1134
1027
890
680
489
419
440
405
228
-19
-183
-198
-166
-250
-510
-855
-1112
-1173
-1092
-1027
-1093
-1261
-1389
-1367
-1238
-1152
-1213
-1383
-1534
-1581
-1551
-1531
-1577
-1682
-1810
-1946
-2082
-2204
-2289
-2304
-2239
-2133
-2042
-1975
-1870
-1654
-1340
-1049
-909
-917
-937
-847
-661
-497
-418
-360
-247
-114
-71
-151
-270
-334
-366
-466
-672
-917
-1139
-1353
-1592
-1810
-1909
-1874
-1802
-1779
-1759
-1631
-1391
-1184
-1140
-1220
-1276
-1255
-1268
-1440
-1713
-1871
-1770
-1523
-1384
-1473
-1651
-1689
-1530
-1334
-1286
-1377
-1428
-1291
-991
-653
-348
-50
282
612
854
983
1067
1178
1310
1389
1364
1269
1184
1151
1139
1082
961
804
648
504
367
251
161
59
-114
-366
-623
-785
-839
-893
-1059
-1339
-1629
-1862
-2132
-2624
-3411
-4353
-5262
-6120
-7072
-8132
-8995
-9243
-8783
-7979
-7252
-6578
-5548
-3916
-2026
-546
167
352
476
716
866
700
272
-167
-444
-569
-619
-623
-595
-591
-658
-778
-865
-874
-847
-847
-873
-868
-805
-738
-749
-854
-978
-1038
-1030
-1019
-1053
-1091
-1064
-960
-849
-805
-816
-811
-751
-675
-655
-709
-774
-776
-703
-617
-589
-645
-749
-850
-924
-985
-1046
-1108
-1159
-1201
-1262
-1361
-1479
-1583
-1656
-1700
-1722
-1736
-1763
-1830
-1935
-2029
-2072
-2092
-2170
-2343
-2537
-2634
-2585
-2468
-2401
-2416
-2442
-2398
-2296
-2229
-2262
-2348
-2372
-2274
-2111
-2003
-1993
-2003
-1908
-1680
-1424
-1292
-1339
-1461
-1491
-1352
-1129
-975
-952
-975
-921
-787
-702
-775
-952
-1073
-1047
-943
-894
-934
-956
-848
-624
-400
-263
-200
-148
-88
-57
-88
-151
-181
-154
-108
-97
-138
-189
-207
-183
-153
-178
-292
-461
-606
-663
-643
-622
-648
-699
-708
-648
-559
-490
-449
-408
-357
-322
-335
-401
-488
-554
-577
-564
-535
-499
-438
-317
-140
34
150
191
179
138
61
-63
-217
-378
-519
-619
-645
-590
-492
-411
-359
-288
-166
-34
18
-50
-205
-421
-737
-1213
-1833
-2541
-3342
-4284
-5308
-6120
-6370
-5980
-5242
-4520
-3841
-2880
-1392
403
1940
2821
3109
3146
3183
3207
3096
2783
2314
1799
1387
1214
1285
1421
1410
1237
1093
1133
1295
1377
1292
1136
1028
967
885
786
728
717
678
574
484
516
651
746
688
527
394
346
317
227
98
11
5
24
2
-57
-82
-51
-38
-126
-282
-377
-330
-215
-193
-325
-490
-515
-377
-242
-303
-559
-826
-932
-896
-882
-1004
-1202
-1336
-1355
-1335
-1368
-1452
-1515
-1534
-1551
-1594
-1628
-1596
-1510
-1440
-1418
-1396
-1315
-1190
-1102
-1099
-1123
-1091
-985
-861
-756
-648
-498
-323
-187
-131
-115
-74
7
90
126
120
121
167
254
353
454
567
703
843
936
946
886
820
796
796
762
667
564
523
567
654
724
752
749
742
737
712
634
488
297
117
-6
-78
-133
-179
-192
-158
-110
-96
-110
-106
-68
-45
-97
-213
-309
-311
-234
-150
-109
-99
-81
-35
27
72
88
80
63
57
77
130
199
245
249
224
212
236
261
226
114
-17
-89
-72
5
108
209
278
291
265
236
182
-7
-432
-1052
-1712
-2354
-3105
-4070
-5055
-5636
-5559
-5028
-4479
-4066
-3483
-2352
-726
873
1932
2386
2558
2753
2965
2982
2690
2221
1812
1589
1486
1369
1197
1050
1023
1081
1080
933
730
623
639
666
607
510
498
574
599
489
331
283
365
437
401
313
304
403
529
618
693
783
848
812
679
530
430
364
283
171
37
-108
-237
-292
-230
-109
-62
-157
-310
-374
-310
-215
-194
-251
-324
-398
-513
-685
-858
-962
-983
-976
-991
-1036
-1072
-1044
-921
-744
-617
-641
-800
-969
-1018
-958
-916
-987
-1138
-1250
-1258
-1195
-1119
-1039
-927
-779
-618
-469
-330
-209
-116
-43
33
120
170
118
-14
-91
16
259
431
369
141
-29
8
165
226
110
-53
-87
22
122
110
53
72
170
205
74
-145
-258
-174
7
113
88
19
14
78
120
72
-44
-159
-242
-322
-424
-506
-495
-373
-250
-290
-543
-865
-1037
-986
-846
-807
-883
-886
-630
-131
405
783
979
1108
1272
1458
1586
1601
1534
1478
1500
1598
1732
1868
1999
2126
2226
2266
2250
2225
2251
2342
2449
2521
2551
2567
2552
2414
2070
1566
1054
594
39
-789
-1775
-2493
-2589
-2168
-1669
-1317
-848
157
1701
3285
4404
4996
5331
5597
5729
5627
5358
5058
4748
4359
3947
3707
3750
3933
3991
3818
3547
3365
3324
3334
3300
3187
3022
2874
2819
2894
3027
3078
2978
2822
2756
2799
2810
2672
2452
2324
2345
2378
2256
1998
1776
1686
1641
1493
1239
1010
888
810
670
482
356
365
446
508
544
608
706
757
694
549
417
354
330
272
142
-27
-154
-182
-130
-96
-172
-341
-482
-474
-340
-220
-222
-318
-388
-359
-261
-163
-105
-86
-90
-76
-3
129
272
373
437
516
632
733
760
728
731
833
994
1111
1139
1148
1252
1476
1721
1856
1844
1775
1768
1857
1954
1962
1879
1783
1736
1723
1695
1647
1618
1632
1663
1680
1680
1688
1715
1734
1728
1715
1721
1729
1725
1732
1784
1864
1904
1881
1878
1993
2194
2319
2269
2153
2184
2403
2619
2624
2457
2350
2431
2573
2588
2483
2441
2565
2754
2840
2818
2824
2935
3052
3033
2888
2764
2759
2814
2795
2692
2619
2664
2781
2831
2755
2633
2583
2615
2648
2611
2523
2465
2452
2398
2202
1855
1440
1020
538
-180
-1230
-2445
-3453
-3931
-3862
-3506
-3113
-2662
-1900
-635
1019
2670
3909
4567
4776
4825
4907
4968
4796
4269
3526
2879
2550
2514
2570
2543
2410
2267
2201
2232
2306
2343
2289
2169
2063
2007
1966
1881
1739
1609
1551
1547
1549
1554
1607
1707
1772
1702
1511
1326
1268
1300
1287
1133
908
772
802
919
1003
1021
1051
1155
1285
1322
1229
1096
1048
1110
1188
1158
989
779
664
683
720
628
388
131
-10
-64
-161
-349
-507
-509
-412
-411
-592
-825
-905
-811
-711
-767
-949
-1081
-1037
-854
-671
-589
-610
-653
-625
-490
-288
-109
-22
-7
33
163
352
501
539
497
478
560
729
887
955
936
914
958
1050
1109
1096
1046
1030
1081
1161
1209
1199
1144
1076
1037
1041
1059
1024
911
769
685
685
708
691
653
662
714
733
668
584
597
717
804
738
569
470
537
691
775
732
628
557
543
554
570
591
612
620
628
672
779
922
1049
1131
1198
1275
1351
1387
1362
1313
1290
1305
1314
1272
1171
1056
993
1018
1093
1165
1221
1282
1353
1379
1282
1021
587
-28
-829
-1762
-2722
-3671
-4668
-5696
-6481
-6652
-6124
-5268
-4537
-3912
-2897
-1158
954
2644
3440
3583
3633
3842
3987
3767
3181
2487
1919
1544
1339
1290
1358
1450
1491
1475
1441
1418
1417
1455
1541
1639
1676
1618
1508
1414
1372
1354
1318
1235
1097
934
813
782
815
829
761
646
553
511
485
458
452
484
509
457
332
207
129
54
-90
-297
-475
-535
-487
-413
-374
-359
-340
-321
-342
-424
-537
-631
-691
-746
-835
-967
-1122
-1272
-1393
-1462
-1481
-1492
-1563
-1708
-1848
-1877
-1775
-1646
-1628
-1736
-1840
-1810
-1657
-1502
-1430
-1412
-1362
-1260
-1173
-1163
-1179
-1113
-912
-647
-435
-315
-208
-1
319
643
825
809
661
513
443
411
322
147
-24
-71
7
71
7
-116
-102
124
388
471
393
391
616
923
1065
997
896
896
923
848
723
709
824
870
706
477
434
587
666
447
43
-234
-251
-179
-223
-373
-465
-431
-387
-453
-581
-632
-591
-608
-803
-1093
-1277
-1262
-1155
-1123
-1202
-1279
-1248
-1141
-1073
-1102
-1197
-1311
-1432
-1581
-1765
-1978
-2203
-2372
-2388
-2230
-2028
-1978
-2128
-2306
-2342
-2330
-2593
-3333
-4372
-5342
-6132
-7005
-8220
-9567
-10428
-10393
-9690
-8901
-8284
-7474
-5973
-3840
-1766
-436
107
366
737
1118
1138
670
-11
-553
-849
-1019
-1163
-1253
-1259
-1278
-1441
-1757
-2088
-2287
-2353
-2427
-2612
-2861
-3008
-2932
-2693
-2481
-2428
-2484
-2477
-2326
-2128
-2036
-2078
-2151
-2170
-2158
-2184
-2245
-2274
-2238
-2190
-2183
-2193
-2150
-2039
-1909
-1798
-1693
-1555
-1385
-1213
-1055
-904
-770
-694
-707
-781
-872
-988
-1181
-1470
-1785
-2033
-2184
-2288
-2387
-2447
-2423
-2347
-2317
-2386
-2506
-2588
-2624
-2695
-2850
-3035
-3134
-3098
-2983
-2876
-2789
-2679
-2527
-2389
-2346
-2409
-2506
-2550
-2512
-2428
-2336
-2244
-2134
-1985
-1795
-1589
-1405
-1272
-1179
-1090
-968
-819
-689
-614
-579
-533
-453
-356
-289
-266
-247
-177
-45
102
211
272
320
392
472
500
433
290
151
84
93
129
152
158
168
203
262
333
395
428
416
361
288
215
138
41
-85
-217
-307
-328
-302
-277
-269
-240
-146
-11
80
64
-21
-68
-16
77
111
54
-15
-1
103
210
237
182
106
43
-21
-104
-189
-236
-226
-159
-39
113
240
286
252
186
99
-113
-562
-1213
-1903
-2571
-3354
-4362
-5381
-5953
-5840
-5306
-4816
-4473
-3899
-2736
-1142
327
1274
1771
2105
2388
2502
2361
2051
1705
1361
1008
699
531
516
549
525
443
354
268
136
-71
-309
-499
-602
-648
-717
-860
-1042
-1138
-1046
-804
-580
-517
-585
-618
-512
-342
-286
-421
-636
-767
-770
-752
-814
-921
-950
-860
-744
-716
-758
-760
-684
-636
-747
-997
-1219
-1284
-1227
-1183
-1211
-1257
-1263
-1247
-1268
-1338
-1415
-1483
-1589
-1754
-1938
-2074
-2136
-2155
-2170
-2199
-2257
-2361
-2489
-2574
-2570
-2517
-2512
-2585
-2653
-2600
-2407
-2175
-2011
-1925
-1855
-1757
-1652
-1564
-1480
-1389
-1323
-1328
-1380
-1363
-1195
-931
-721
-652
-653
-552
-286
36
237
253
206
250
394
505
483
378
330
381
435
398
303
274
363
487
526
469
405
399
426
427
390
351
338
328
289
239
227
275
349
393
380
334
292
273
269
278
308
352
395
427
479
571
693
776
779
740
742
833
975
1087
1132
1140
1142
1136
1102
1035
948
863
787
720
668
639
636
645
652
657
683
747
815
828
759
638
503
342
89
-284
-723
-1179
-1704
-2410
-3258
-3974
-4253
-4048
-3615
-3196
-2731
-1934
-670
812
2053
2782
3105
3311
3553
3732
3670
3336
2894
2542
2349
2245
2145
2038
1954
1875
1727
1477
1214
1067
1061
1095
1066
988
959
1018
1085
1054
916
763
673
641
610
570
566
633
743
819
801
707
607
546
498
403
235
45
-95
-160
-201
-278
-391
-486
-512
-471
-417
-409
-475
-591
-716
-831
-957
-1118
-1305
-1480
-1601
-1667
-1718
-1782
-1836
-1829
-1755
-1687
-1721
-1885
-2102
-2257
-2307
-2315
-2369
-2477
-2553
-2505
-2340
-2170
-2101
-2131
-2163
-2107
-1973
-1855
-1818
-1826
-1778
-1621
-1401
-1206
-1077
-996
-941
-923
-941
-949
-897
-797
-707
-645
-540
-327
-59
142
234
301
415
503
416
146
-110
-143
30
169
87
-131
-226
-63
203
297
121
-140
-237
-122
29
48
-40
-68
63
280
449
525
562
616
680
709
675
586
464
359
336
422
576
736
901
1122
1419
1729
1962
2089
2137
2111
1970
1716
1445
1284
1277
1353
1432
1490
1547
1605
1647
1672
1694
1703
1654
1523
1374
1322
1402
1520
1559
1490
1367
1208
928
453
-151
-725
-1255
-1938
-2937
-4069
-4846
-4910
-4383
-3700
-3097
-2371
-1197
379
1897
2939
3517
3911
4232
4287
3892
3205
2625
2362
2265
2102
1885
1822
1975
2130
2057
1792
1573
1514
1478
1307
1077
1005
1149
1332
1352
1239
1186
1272
1367
1317
1137
990
968
979
864
588
261
2
-179
-353
-577
-830
-1030
-1118
-1108
-1059
-1021
-980
-882
-714
-524
-383
-305
-249
-173
-75
12
79
146
219
264
248
193
163
190
233
208
99
-24
-70
-4
125
250
340
419
522
652
765
814
804
801
882
1042
1194
1260
1255
1274
1375
1503
1546
1483
1412
1441
1568
1686
1713
1704
1772
1950
2145
2256
2289
2306
2342
2370
2391
2462
2606
2755
2811
2777
2766
2830
2860
2701
2365
2048
1928
1989
2089
2156
2255
2470
2760
3000
3121
3146
3115
3030
2880
2693
2530
2436
2400
2384
2366
2361
2396
2467
2524
2513
2438
2367
2343
2328
2257
2143
2104
2211
2376
2417
2273
2096
2073
2211
2338
2317
2205
2161
2246
2372
2421
2380
2311
2249
2179
2099
2035
2002
1966
1883
1784
1752
1835
1983
2098
2134
2121
2101
2057
1897
1525
922
166
-664
-1587
-2672
-3868
-4895
-5396
-5233
-4630
-3939
-3270
-2399
-1059
685
2402
3612
4145
4217
4196
4291
4419
4335
3918
3323
2872
2749
2849
2931
2869
2729
2628
2587
2549
2486
2426
2399
2401
2420
2457
2482
2425
2263
2087
2017
2060
2096
2027
1891
1821
1878
1989
2038
1983
1874
1779
1733
1718
1673
1567
1428
1323
1311
1364
1416
1417
1353
1230
1070
925
861
880
874
729
474
284
282
376
344
80
-288
-536
-592
-581
-661
-844
-1022
-1107
-1113
-1111
-1142
-1190
-1242
-1299
-1356
-1385
-1362
-1307
-1254
-1222
-1201
-1169
-1106
-998
-855
-730
-687
-727
-776
-738
-601
-468
-436
-469
-453
-323
-135
15
96
141
194
273
379
489
548
502
377
296
347
483
554
484
358
307
363
452
515
562
603
586
486
399
471
717
954
981
803
627
642
820
955
900
702
523
467
492
499
430
336
302
361
447
491
496
519
582
633
612
558
575
704
838
854
783
781
931
1126
1180
1063
928
915
989
1009
921
832
850
937
970
921
897
1005
1209
1327
1243
1043
908
874
748
291
-523
-1458
-2277
-3043
-4046
-5365
-6604
-7154
-6792
-5898
-5020
-4249
-3162
-1408
763
2653
3765
4192
4372
4560
4658
4461
3953
3318
2764
2402
2232
2201
2213
2165
2057
1972
1951
1919
1775
1547
1388
1395
1465
1421
1241
1102
1158
1350
1463
1372
1176
1064
1108
1210
1239
1174
1100
1081
1100
1096
1036
938
840
765
712
656
571
457
346
283
285
312
306
262
220
204
178
93
-47
-188
-288
-379
-518
-702
-862
-942
-972
-1024
-1111
-1175
-1177
-1168
-1229
-1358
-1469
-1505
-1509
-1561
-1674
-1757
-1714
-1547
-1354
-1233
-1198
-1194
-1168
-1105
-1028
-967
-940
-931
-901
-816
-683
-554
-479
-456
-429
-349
-235
-144
-92
-31
88
245
366
407
395
388
412
436
417
364
328
354
430
488
476
420
389
405
404
310
151
60
115
241
287
217
155
222
364
416
313
163
110
171
242
246
231
275
377
480
547
588
604
574
509
473
506
572
603
616
706
924
1179
1323
1332
1319
1384
1482
1484
1351
1179
1067
1019
977
920
891
921
971
995
1011
1067
1191
1337
1422
1404
1300
1124
840
363
-353
-1247
-2198
-3182
-4295
-5572
-6758
-7388
-7187
-6362
-5380
-4445
-3287
-1554
637
2666
3967
4517
4731
4936
5064
4857
4276
3580
3068
2827
2715
2567
2368
2217
2205
2279
2269
2057
1704
1422
1358
1437
1438
1222
862
524
277
71
-118
-215
-113
190
589
995
1408
1851
2256
2462
2362
2025
1650
1398
1273
1156
950
707
584
703
1006
1278
1315
1085
786
667
772
871
685
234
-122
-68
255
341
-98
-761
-1058
-802
-428
-494
-1032
-1553
-1640
-1410
-1285
-1470
-1791
-1999
-2062
-2074
-2030
-1850
-1588
-1452
-1550
-1706
-1655
-1377
-1141
-1171
-1367
-1465
-1367
-1232
-1236
-1355
-1458
-1511
-1612
-1811
-1984
-1970
-1750
-1462
-1215
-958
-566
-22
524
878
971
897
802
766
750
672
515
349
257
248
272
292
301
296
241
119
-36
-180
-312
-460
-604
-666
-619
-548
-590
-768
-953
-1015
-969
-945
-1016
-1113
-1123
-1020
-887
-803
-767
-725
-665
-618
-607
-591
-511
-362
-197
-60
70
241
457
665
807
893
958
1008
1012
960
896
863
848
787
645
478
353
267
145
-49
-244
-333
-323
-340
-476
-664
-777
-813
-965
-1420
-2140
-2898
-3561
-4251
-5144
-6150
-6886
-7032
-6651
-6070
-5466
-4661
-3404
-1764
-151
1061
1842
2383
2793
2997
2918
2646
2331
2007
1609
1160
839
790
915
970
827
605
501
556
626
580
445
339
310
304
250
152
74
69
126
197
247
294
373
497
631
716
727
697
684
698
694
634
540
481
495
536
537
481
425
408
399
344
250
183
189
206
125
-66
-248
-289
-206
-157
-267
-486
-659
-704
-697
-764
-927
-1091
-1171
-1182
-1190
-1221
-1239
-1211
-1157
-1119
-1114
-1125
-1129
-1116
-1078
-1002
-898
-795
-709
-620
-486
-289
-50
163
288
326
337
405
572
784
940
1006
1033
1092
1176
1212
1174
1124
1113
1123
1104
1071
1085
1142
1146
1028
845
717
664
598
464
342
340
443
526
533
542
646
797
849
754
628
600
635
590
419
258
265
405
497
429
293
252
338
424
413
358
374
466
542
560
604
767
1003
1157
1157
1093
1111
1236
1351
1341
1218
1094
1064
1129
1207
1231
1202
1167
1166
1186
1192
1172
1159
1185
1244
1314
1394
1477
1529
1501
1380
1191
926
541
10
-637
-1371
-2212
-3149
-3993
-4446
-4377
-3971
-3530
-3084
-2329
-1024
626
2090
2999
3409
3620
3794
3854
3689
3323
2872
2414
2005
1724
1636
1694
1743
1657
1470
1305
1233
1217
1176
1080
962
877
859
881
871
773
614
492
473
512
502
403
280
214
213
215
171
94
19
-54
-134
-202
-241
-266
-304
-362
-410
-420
-414
-428
-462
-481
-472
-463
-495
-570
-660
-745
-831
-929
-1025
-1088
-1110
-1111
-1118
-1139
-1160
-1166
-1149
-1118
-1091
-1096
-1152
-1251
-1348
-1403
-1410
-1402
-1420
-1465
-1503
-1500
-1444
-1344
-1223
-1094
-978
-885
-813
-733
-621
-483
-359
-281
-230
-160
-54
44
77
64
81
177
295
329
247
137
110
175
237
217
148
119
162
219
228
199
191
222
240
195
102
30
8
3
-38
-122
-205
-248
-252
-244
-248
-275
-323
-389
-450
-478
-470
-456
-482
-570
-700
-815
-861
-830
-781
-790
-867
-930
-884
-744
-625
-612
-653
-625
-500
-389
-395
-481
-515
-437
-336
-329
-407
-460
-414
-309
-238
-243
-284
-314
-323
-320
-313
-299
-272
-240
-223
-248
-324
-443
-591
-812
-1181
-1724
-2381
-3072
-3791
-4583
-5396
-6020
-6232
-6005
-5506
-4887
-4093
-2969
-1520
-5
1230
2017
2439
2682
2853
2916
2783
2432
1961
1552
1339
1324
1392
1426
1393
1322
1238
1128
1003
918
920
972
982
904
796
755
805
889
935
920
884
862
862
875
901
930
918
820
638
439
302
238
182
66
-88
-182
-168
-102
-91
-163
-242
-262
-263
-345
-521
-686
-752
-783
-912
-1172
-1437
-1569
-1579
-1587
-1650
-1710
-1703
-1671
-1701
-1803
-1900
-1938
-1969
-2067
-2228
-2359
-2392
-2344
-2288
-2275
-2300
-2338
-2365
-2372
-2383
-2420
-2467
-2467
-2392
-2290
-2220
-2152
-1975
-1653
-1312
-1134
-1139
-1152
-1016
-784
-658
-748
-927
-980
-838
-624
-487
-453
-428
-309
-87
161
347
433
448
457
508
588
628
582
494
462
541
674
748
727
687
729
860
978
984
883
773
732
743
731
667
590
567
615
690
741
755
762
796
860
912
921
891
863
880
946
1028
1084
1090
1066
1059
1111
1212
1294
1279
1169
1061
1049
1129
1205
1187
1088
991
946
940
932
915
905
914
935
971
1017
1043
1009
905
753
544
202
-342
-1040
-1778
-2517
-3339
-4266
-5087
-5470
-5281
-4730
-4102
-3401
-2362
-842
889
2329
3202
3641
3933
4179
4248
4011
3541
3022
2596
2294
2092
1967
1898
1849
1780
1658
1465
1234
1043
965
972
961
858
724
674
737
817
811
736
672
643
605
536
486
501
539
538
510
522
593
652
636
581
556
563
521
391
262
237
303
342
267
130
52
78
139
124
-2
-172
-282
-303
-305
-383
-559
-750
-869
-927
-999
-1116
-1213
-1203
-1108
-1022
-1004
-1019
-992
-919
-867
-896
-1010
-1144
-1215
-1158
-974
-749
-581
-482
-359
-136
135
322
371
363
401
466
467
394
353
440
590
674
665
661
759
925
1039
1059
1041
1044
1056
1035
990
964
973
997
1017
1051
1121
1225
1336
1429
1473
1435
1325
1222
1215
1305
1380
1338
1213
1135
1171
1259
1294
1263
1232
1232
1213
1136
1060
1080
1187
1271
1227
1086
973
981
1083
1179
1199
1163
1139
1189
1328
1491
1590
1590
1542
1522
1536
1516
1423
1331
1344
1453
1528
1482
1386
1382
1479
1510
1350
1099
1002
1164
1439
1579
1518
1430
1484
1621
1590
1187
447
-417
-1264
-2158
-3240
-4454
-5454
-5869
-5632
-5029
-4377
-3655
-2561
-920
988
2622
3635
4118
4379
4570
4603
4368
3920
3413
2954
2566
2269
2127
2171
2307
2375
2274
2059
1875
1808
1803
1751
1617
1475
1420
1433
1409
1310
1233
1281
1398
1388
1174
926
877
1026
1121
959
654
507
651
903
981
829
634
594
705
807
758
549
301
175
237
384
410
224
-19
-86
50
156
21
-296
-542
-585
-563
-670
-892
-1057
-1071
-1041
-1111
-1280
-1424
-1480
-1512
-1561
-1574
-1481
-1343
-1290
-1368
-1454
-1409
-1242
-1101
-1084
-1132
-1097
-918
-679
-503
-418
-340
-195
-16
105
149
215
400
665
857
880
827
871
1054
1230
1221
1028
840
812
920
1017
1010
957
970
1076
1199
1265
1262
1218
1159
1116
1121
1182
1261
1308
1327
1345
1356
1324
1242
1150
1072
979
852
763
815
994
1146
1139
1031
992
1081
1170
1121
955
809
754
754
782
877
1048
1196
1209
1116
1079
1185
1342
1384
1277
1140
1102
1175
1302
1444
1576
1644
1579
1393
1198
1107
1138
1207
1217
1158
1106
1126
1202
1254
1197
994
621
41
-742
-1636
-2521
-3406
-4421
-5587
-6597
-6981
-6545
-5584
-4567
-3614
-2408
-668
1380
3129
4157
4569
4755
4928
4959
4660
4088
3511
3142
2967
2833
2667
2521
2451
2424
2335
2125
1844
1594
1434
1355
1329
1337
1356
1357
1308
1225
1159
1132
1120
1084
1030
1002
1019
1046
1040
995
945
917
894
847
768
691
644
610
544
439
344
313
337
353
318
265
255
273
235
81
-141
-329
-443
-538
-676
-839
-953
-988
-987
-1004
-1053
-1113
-1167
-1214
-1247
-1252
-1235
-1237
-1293
-1384
-1447
-1442
-1392
-1362
-1374
-1382
-1335
-1242
-1161
-1133
-1132
-1107
-1069
-1067
-1086
-1034
-832
-516
-197
87
422
879
1359
1655
1683
1571
1518
1572
1622
1559
1412
1306
1318
1440
1614
1758
1804
1726
1578
1455
1394
1329
1173
934
721
624
637
654
591
476
427
520
691
777
685
519
481
624
764
705
500
402
565
832
935
820
704
782
964
1010
850
678
700
893
1051
1064
1013
1044
1182
1320
1364
1319
1241
1145
994
781
566
405
291
148
-74
-301
-391
-288
-108
-45
-175
-377
-479
-466
-485
-670
-1004
-1382
-1772
-2260
-2916
-3714
-4594
-5553
-6580
-7517
-8072
-8056
-7555
-6815
-5933
-4760
-3136
-1181
702
2141
3046
3592
4001
4349
4569
4583
4397
4121
3919
3894
4003
4079
3961
3625
3189
2776
2399
1997
1546
1122
834
711
674
626
547
475
440
414
342
188
-46
-323
-592
-806
-949
-1043
-1113
-1166
-1189
-1186
-1183
-1218
-1295
-1381
-1448
-1493
-1527
-1543
-1527
-1481
-1422
-1367
-1326
-1310
-1349
-1459
-1615
-1747
-1797
-1774
-1740
-1762
-1850
-1939
-1955
-1891
-1833
-1893
-2104
-2365
-2523
-2523
-2453
-2444
-2522
-2593
-2556
-2418
-2270
-2181
-2134
-2069
-1954
-1804
-1639
-1455
-1260
-1090
-968
-877
-780
-672
-602
-589
-592
-558
-490
-462
-512
-579
-576
-499
-428
-422
-454
-438
-351
-255
-214
-205
-151
-25
111
171
145
118
176
292
363
330
237
193
231
278
254
172
115
119
110
3
-156
-211
-91
88
138
21
-92
-30
163
275
174
-32
-136
-72
22
4
-104
-157
-67
78
141
95
45
75
156
186
133
95
171
328
431
384
255
193
232
250
125
-98
-244
-215
-100
-25
9
99
260
373
310
90
-186
-487
-902
-1529
-2376
-3376
-4411
-5298
-5832
-5947
-5775
-5499
-5084
-4268
-2896
-1226
234
1173
1705
2090
2388
2435
2130
1628
1196
946
793
630
478
432
524
689
811
797
610
323
92
39
124
196
146
25
-24
55
178
239
243
252
288
322
328
325
335
317
227
80
-44
-90
-81
-65
-72
-119
-204
-300
-351
-339
-332
-424
-605
-758
-774
-689
-640
-707
-837
-935
-1000
-1094
-1253
-1445
-1616
-1728
-1777
-1800
-1856
-1974
-2108
-2163
-2124
-2094
-2169
-2310
-2373
-2309
-2248
-2307
-2415
-2401
-2228
-2070
-2085
-2209
-2229
-2049
-1800
-1665
-1648
-1612
-1475
-1304
-1213
-1214
-1214
-1144
-1035
-961
-942
-923
-849
-729
-623
-580
-595
-616
-611
-598
-612
-650
-663
-611
-510
-410
-353
-333
-316
-293
-284
-297
-321
-341
-365
-398
-415
-380
-293
-201
-144
-103
-19
128
275
346
331
301
322
397
487
556
591
593
567
543
556
616
686
722
723
720
729
738
735
726
722
708
672
632
631
679
726
732
712
710
735
736
677
586
519
479
423
344
302
340
394
358
214
50
-71
-249
-650
-1296
-2036
-2744
-3481
-4351
-5246
-5821
-5828
-5393
-4857
-4359
-3664
-2499
-965
467
1395
1825
2043
2238
2339
2194
1807
1339
941
646
432
286
204
138
23
-153
-342
-489
-596
-704
-827
-948
-1063
-1182
-1294
-1366
-1358
-1286
-1209
-1168
-1148
-1087
-946
-757
-604
-559
-622
-727
-791
-775
-714
-667
-668
-704
-742
-754
-729
-681
-651
-699
-833
-981
-1040
-973
-856
-791
-809
-846
-833
-773
-740
-794
-901
-997
-1040
-1050
-1071
-1115
-1154
-1156
-1120
-1071
-1037
-1030
-1053
-1108
-1179
-1224
-1218
-1196
-1225
-1320
-1406
-1378
-1208
-981
-816
-758
-745
-676
-513
-291
-100
-21
-45
-89
-46
116
317
447
487
529
681
929
1126
1135
977
819
791
843
819
645
421
307
338
411
428
415
457
571
674
697
671
673
718
745
704
625
575
583
627
656
663
663
670
709
812
1002
1239
1429
1505
1516
1579
1740
1919
1995
1962
1940
2043
2239
2389
2420
2405
2452
2559
2614
2519
2316
2153
2145
2283
2450
2531
2512
2482
2549
2728
2933
3051
3041
2963
2920
2976
3149
3388
3599
3699
3686
3624
3542
3345
2906
2233
1462
669
-243
-1342
-2392
-2938
-2746
-2072
-1382
-797
46
1498
3401
5151
6271
6803
7107
7392
7554
7416
7006
6517
6103
5792
5561
5418
5374
5378
5348
5243
5087
4924
4786
4689
4645
4642
4635
4586
4475
4310
4136
4012
3974
3970
3874
3629
3342
3208
3302
3456
3427
3171
2892
2816
2936
3049
3005
2847
2723
2695
2700
2669
2607
2552
2515
2480
2434
2387
2336
2277
2232
2237
2274
2259
2129
1940
1834
1864
1923
1850
1606
1327
1154
1071
954
719
409
120
-122
-333
-505
-592
-599
-621
-725
-859
-907
-829
-719
-697
-759
-785
-684
-488
-303
-182
-80
66
252
418
510
539
560
626
748
866
906
861
820
886
1067
1248
1311
1268
1224
1245
1285
1283
1254
1255
1284
1261
1141
996
926
931
938
910
886
897
893
809
687
653
759
908
946
845
719
699
797
933
1019
1032
1006
1006
1087
1264
1478
1632
1677
1660
1680
1785
1912
1977
1988
2044
2226
2469
2612
2580
2482
2496
2647
2775
2707
2461
2249
2257
2448
2627
2659
2613
2648
2837
3079
3189
3081
2847
2643
2497
2230
1634
719
-262
-1113
-1928
-2956
-4163
-5094
-5249
-4628
-3718
-2913
-2086
-818
981
2832
4133
4720
4921
5088
5243
5201
4879
4403
3966
3636
3374
3133
2931
2799
2722
2639
2493
2285
2091
2002
2025
2092
2116
2082
2043
2013
1964
1901
1888
1947
1990
1883
1611
1341
1256
1367
1499
1479
1296
1086
985
1022
1101
1111
1014
851
720
673
678
664
597
517
476
456
389
234
29
-146
-263
-350
-449
-586
-735
-856
-917
-931
-959
-1062
-1237
-1422
-1567
-1670
-1744
-1771
-1749
-1733
-1787
-1875
-1860
-1682
-1486
-1502
-1761
-2016
-1994
-1727
-1513
-1575
-1808
-1909
-1716
-1338
-1007
-854
-838
-824
-719
-521
-302
-145
-75
-57
-40
-25
-38
-51
-3
107
168
69
-144
-288
-245
-80
34
9
-78
-101
-21
96
167
179
184
209
234
226
187
175
234
312
301
153
-25
-56
100
264
244
71
-30
82
286
339
173
-22
-40
112
245
236
154
156
288
470
609
691
748
793
807
788
760
738
706
645
573
562
655
803
901
884
808
801
934
1119
1215
1159
1028
950
942
897
677
197
-511
-1332
-2164
-3004
-3941
-4993
-5927
-6367
-6117
-5385
-4577
-3848
-2930
-1496
359
2083
3150
3508
3545
3656
3886
3974
3663
2972
2197
1694
1599
1720
1745
1531
1243
1143
1271
1413
1368
1175
1057
1129
1284
1366
1326
1229
1116
980
845
778
783
778
704
611
613
725
813
760
643
618
696
692
469
153
23
179
398
368
51
-290
-392
-283
-223
-405
-761
-1074
-1197
-1155
-1076
-1079
-1209
-1405
-1555
-1579
-1527
-1552
-1755
-2044
-2208
-2137
-1945
-1853
-1972
-2190
-2328
-2324
-2246
-2185
-2173
-2172
-2146
-2089
-2020
-1955
-1905
-1883
-1910
-1995
-2116
-2210
-2209
-2111
-1976
-1868
-1793
-1707
-1576
-1397
-1190
-971
-778
-695
-767
-924
-1009
-933
-783
-720
-757
-730
-518
-205
8
37
-9
-21
-60
-231
-475
-607
-553
-455
-478
-578
-571
-411
-269
-299
-430
-483
-433
-443
-608
-790
-784
-582
-381
-331
-367
-350
-293
-339
-532
-701
-637
-368
-149
-159
-261
-132
361
962
1266
1143
848
725
834
936
821
566
385
343
320
230
159
231
366
322
11
-316
-304
101
577
784
708
622
712
863
811
434
-176
-919
-1842
-3026
-4352
-5494
-6155
-6328
-6255
-6124
-5815
-4997
-3517
-1660
39
1213
1903
2405
2880
3206
3157
2681
1951
1209
614
207
-62
-273
-457
-549
-462
-235
-80
-180
-477
-696
-656
-481
-436
-623
-888
-1041
-1049
-994
-917
-792
-639
-563
-617
-708
-704
-608
-548
-613
-757
-865
-894
-888
-897
-926
-985
-1112
-1318
-1521
-1608
-1557
-1467
-1450
-1507
-1537
-1492
-1446
-1509
-1682
-1840
-1881
-1840
-1849
-1969
-2104
-2113
-1977
-1850
-1893
-2098
-2300
-2348
-2250
-2160
-2200
-2331
-2389
-2257
-1974
-1701
-1557
-1513
-1437
-1239
-972
-777
-714
-707
-626
-435
-213
-43
88
234
394
494
486
432
420
447
411
233
-30
-242
-336
-375
-455
-591
-727
-836
-938
-1048
-1136
-1177
-1216
-1344
-1555
-1724
-1725
-1587
-1487
-1558
-1745
-1874
-1842
-1720
-1641
-1658
-1725
-1775
-1795
-1799
-1793
-1784
-1817
-1914
-2023
-2045
-1954
-1849
-1827
-1856
-1810
-1642
-1447
-1347
-1331
-1289
-1169
-1048
-1019
-1064
-1077
-1018
-960
-959
-968
-903
-769
-669
-677
-736
-730
-626
-506
-482
-578
-709
-777
-761
-722
-731
-792
-859
-889
-883
-869
-882
-969
-1183
-1544
-2006
-2502
-3026
-3655
-4407
-5132
-5572
-5584
-5256
-4774
-4180
-3359
-2242
-971
173
997
1515
1828
1968
1889
1593
1208
882
654
473
310
235
324
545
757
828
751
620
511
416
293
136
-16
-135
-231
-304
-333
-295
-221
-174
-188
-242
-297
-340
-372
-392
-408
-451
-534
-583
-493
-270
-82
-94
-254
-334
-218
-71
-141
-443
-725
-767
-651
-640
-830
-1032
-1020
-820
-663
-716
-913
-1081
-1147
-1182
-1282
-1467
-1681
-1859
-1958
-1992
-1999
-2004
-1986
-1911
-1803
-1735
-1755
-1810
-1822
-1791
-1804
-1896
-2008
-2048
-2005
-1939
-1869
-1757
-1602
-1476
-1421
-1351
-1135
-777
-450
-302
-270
-160
107
394
527
489
429
471
584
656
651
638
697
822
921
920
843
796
841
921
900
721
482
349
386
477
463
316
158
119
210
327
364
309
234
208
250
323
380
393
356
275
183
138
185
327
493
591
590
547
543
632
779
889
872
724
552
505
639
844
953
917
852
891
1012
1061
965
813
747
785
807
732
630
623
741
892
957
920
848
794
730
565
221
-279
-819
-1332
-1883
-2564
-3305
-3832
-3913
-3600
-3152
-2703
-2097
-1114
185
1436
2319
2845
3216
3511
3608
3400
3004
2659
2473
2359
2209
2053
2018
2135
2277
2304
2205
2072
1980
1898
1768
1597
1482
1491
1585
1662
1671
1653
1684
1779
1883
1933
1917
1860
1774
1667
1551
1445
1354
1271
1186
1103
1028
952
867
785
733
733
768
784
729
595
425
274
157
32
-157
-423
-711
-939
-1070
-1136
-1195
-1279
-1364
-1421
-1450
-1486
-1553
-1649
-1751
-1850
-1953
-2061
-2151
-2205
-2227
-2243
-2268
-2290
-2297
-2310
-2365
-2452
-2506
-2459
-2312
-2138
-2011
-1934
-1845
-1689
-1480
-1291
-1188
-1168
-1166
-1115
-998
-865
-780
-755
-749
-709
-613
-477
-333
-209
-122
-72
-37
12
88
175
242
255
190
56
-84
-141
-83
23
63
8
-57
-41
27
19
-123
-295
-353
-297
-262
-338
-449
-459
-352
-257
-283
-386
-440
-420
-429
-549
-724
-821
-792
-722
-725
-818
-903
-897
-814
-752
-782
-883
-960
-938
-826
-698
-612
-560
-494
-373
-214
-69
42
135
234
325
368
347
298
281
335
455
582
617
463
94
-417
-978
-1594
-2374
-3386
-4483
-5322
-5618
-5356
-4744
-3965
-3019
-1814
-405
956
2005
2680
3083
3295
3277
2968
2466
2014
1789
1759
1745
1613
1385
1183
1084
1069
1048
946
752
536
408
443
612
802
902
878
794
744
760
782
718
541
320
139
18
-112
-313
-533
-646
-605
-508
-499
-609
-723
-721
-616
-537
-584
-770
-1034
-1296
-1488
-1586
-1623
-1674
-1781
-1894
-1917
-1807
-1633
-1517
-1532
-1659
-1833
-1998
-2135
-2261
-2411
-2617
-2862
-3070
-3170
-3137
-3002
-2827
-2661
-2515
-2389
-2271
-2119
-1884
-1564
-1245
-1043
-1008
-1048
-1000
-786
-488
-262
-192
-226
-227
-105
131
401
616
740
794
832
897
995
1108
1222
1334
1438
1510
1536
1537
1568
1671
1831
1971
2012
1943
1840
1794
1840
1922
1962
1945
1912
1906
1918
1919
1899
1878
1861
1841
1817
1798
1784
1748
1683
1644
1698
1835
1960
1973
1881
1790
1787
1846
1857
1772
1681
1714
1897
2105
2213
2240
2309
2477
2649
2697
2638
2619
2714
2821
2791
2639
2523
2541
2608
2572
2395
2186
2065
2042
2059
2077
2088
2088
2065
2013
1939
1804
1507
940
113
-822
-1720
-2584
-3563
-4713
-5779
-6316
-6091
-5331
-4513
-3832
-2995
-1591
339
2232
3483
3983
4112
4275
4516
4576
4265
3686
3112
2731
2532
2406
2300
2255
2319
2444
2515
2453
2319
2218
2187
2146
2004
1779
1585
1513
1555
1628
1679
1702
1698
1682
1691
1774
1909
1994
1931
1736
1539
1449
1451
1447
1388
1323
1300
1294
1265
1236
1271
1352
1358
1232
1079
1062
1191
1267
1120
808
559
508
576
582
447
241
80
21
58
124
118
-27
-260
-428
-426
-322
-289
-422
-641
-788
-781
-660
-511
-403
-376
-426
-477
-443
-325
-215
-204
-248
-242
-150
-32
60
145
242
303
265
181
186
332
501
543
464
417
499
636
683
627
581
622
682
646
522
441
496
636
721
688
613
606
678
749
743
662
581
542
539
539
521
497
487
514
605
758
908
960
888
779
779
934
1115
1129
929
704
686
921
1212
1333
1259
1168
1232
1436
1617
1655
1575
1482
1442
1449
1465
1455
1406
1322
1256
1267
1363
1471
1497
1446
1433
1563
1775
1870
1736
1491
1347
1316
1126
518
-434
-1409
-2237
-3085
-4153
-5271
-5950
-5860
-5193
-4390
-3611
-2601
-1111
677
2260
3281
3792
4051
4208
4206
3982
3607
3241
2978
2791
2605
2389
2194
2085
2072
2079
1991
1775
1527
1398
1455
1617
1732
1715
1612
1514
1458
1406
1319
1225
1195
1248
1304
1272
1161
1070
1071
1131
1160
1099
962
818
729
711
746
783
782
743
696
673
657
607
521
443
392
343
260
158
83
38
-15
-89
-147
-159
-185
-301
-480
-594
-558
-449
-438
-596
-800
-874
-787
-676
-686
-828
-976
-1024
-985
-957
-978
-994
-950
-867
-811
-773
-670
-466
-251
-146
-155
-153
-34
158
298
341
369
464
599
692
722
741
781
804
764
685
624
585
541
502
526
625
723
741
693
670
711
762
739
642
548
515
530
545
515
437
359
353
457
608
676
597
457
398
445
473
364
166
50
111
281
427
518
622
786
957
1040
1001
899
812
776
775
785
804
852
948
1076
1207
1335
1451
1525
1501
1357
1156
1018
1015
1130
1289
1411
1456
1437
1392
1324
1146
703
-59
-995
-1893
-2710
-3600
-4625
-5491
-5747
-5264
-4409
-3637
-2944
-1907
-270
1619
3089
3796
4000
4166
4417
4489
4153
3517
2904
2505
2245
1975
1700
1551
1584
1688
1693
1539
1326
1176
1120
1098
1044
963
906
912
975
1066
1140
1168
1156
1140
1152
1165
1114
980
821
721
694
659
545
366
212
158
182
202
165
85
26
29
79
133
167
190
209
195
130
43
3
23
12
-130
-375
-562
-577
-489
-468
-595
-775
-872
-862
-832
-857
-910
-930
-898
-834
-746
-617
-456
-311
-239
-261
-365
-515
-667
-768
-781
-706
-561
-364
-153
-28
-88
-288
-423
-330
-108
-54
-309
-644
-697
-407
-106
-114
-351
-448
-223
80
121
-127
-362
-368
-268
-318
-528
-656
-546
-342
-314
-495
-657
-619
-481
-487
-692
-891
-891
-766
-768
-1006
-1309
-1417
-1260
-1009
-854
-826
-839
-837
-828
-832
-830
-791
-710
-593
-438
-262
-106
18
147
324
511
611
599
580
668
837
933
836
598
385
302
306
281
148
-69
-283
-411
-415
-328
-229
-171
-143
-131
-182
-410
-889
-1554
-2270
-3000
-3858
-4922
-6024
-6785
-6929
-6523
-5886
-5229
-4431
-3221
-1558
221
1647
2518
2999
3377
3752
3991
3945
3626
3202
2832
2559
2357
2223
2178
2181
2131
1956
1701
1501
1425
1408
1343
1218
1108
1060
1031
963
863
776
693
551
338
153
92
119
96
-52
-245
-359
-390
-446
-604
-814
-983
-1092
-1200
-1334
-1435
-1432
-1340
-1248
-1215
-1224
-1220
-1172
-1106
-1088
-1164
-1321
-1486
-1562
-1523
-1442
-1429
-1532
-1696
-1823
-1860
-1826
-1773
-1755
-1794
-1880
-1979
-2055
-2104
-2159
-2245
-2347
-2428
-2471
-2475
-2439
-2351
-2215
-2082
-2006
-1985
-1956
-1865
-1725
-1616
-1587
-1612
-1626
-1579
-1466
-1318
-1177
-1091
-1090
-1157
-1235
-1269
-1244
-1196
-1183
-1218
-1267
-1268
-1189
-1066
-993
-1047
-1217
-1398
-1484
-1481
-1496
-1619
-1809
-1947
-1972
-1935
-1906
-1857
-1716
-1502
-1345
-1337
-1406
-1385
-1229
-1084
-1103
-1254
-1349
-1286
-1174
-1173
-1284
-1359
-1304
-1199
-1178
-1231
-1232
-1127
-1019
-1021
-1090
-1067
-892
-693
-635
-719
-799
-762
-671
-665
-788
-952
-1056
-1070
-1055
-1054
-1052
-1009
-924
-849
-819
-803
-734
-617
-595
-862
-1452
-2141
-2668
-3061
-3641
-4625
-5749
-6443
-6424
-5974
-5568
-5252
-4595
-3264
-1531
-67
727
1047
1321
1682
1892
1694
1130
491
48
-94
-9
144
212
176
155
255
418
470
334
139
57
91
103
52
57
193
342
318
133
11
85
235
256
141
82
190
318
257
7
-226
-299
-293
-369
-544
-688
-709
-650
-605
-615
-670
-784
-977
-1200
-1361
-1436
-1498
-1612
-1729
-1745
-1642
-1518
-1473
-1500
-1537
-1575
-1663
-1818
-1979
-2081
-2135
-2188
-2239
-2237
-2149
-2033
-1980
-2019
-2074
-2062
-1977
-1891
-1879
-1926
-1941
-1842
-1643
-1437
-1299
-1210
-1087
-893
-687
-562
-538
-532
-439
-257
-96
-64
-152
-237
-212
-88
37
95
117
158
214
240
237
261
313
308
177
1
-44
95
253
230
43
-81
20
263
425
412
330
331
428
515
525
500
500
510
478
392
309
290
332
376
388
383
414
513
663
821
942
999
994
971
990
1076
1173
1183
1061
880
777
812
906
925
820
677
630
710
830
877
830
769
780
849
882
815
687
573
468
261
-140
-692
-1264
-1831
-2520
-3422
-4374
-5023
-5151
-4891
-4546
-4204
-3629
-2564
-1104
310
1282
1778
2040
2263
2405
2317
1966
1477
1017
674
449
312
230
163
84
-12
-116
-219
-306
-363
-387
-397
-401
-364
-227
1
198
222
66
-131
-231
-230
-245
-359
-523
-634
-648
-616
-591
-568
-504
-392
-300
-303
-416
-562
-631
-586
-508
-540
-741
-1010
-1181
-1195
-1162
-1232
-1427
-1617
-1675
-1619
-1561
-1568
-1611
-1620
-1589
-1573
-1622
-1746
-1921
-2084
-2152
-2086
-1945
-1862
-1925
-2089
-2223
-2259
-2245
-2268
-2346
-2413
-2401
-2306
-2168
-2035
-1946
-1930
-1981
-2049
-2083
-2080
-2084
-2118
-2132
-2052
-1848
-1564
-1295
-1110
-1029
-1012
-983
-903
-801
-763
-817
-881
-851
-701
-523
-433
-466
-556
-605
-581
-531
-541
-665
-867
-1038
-1101
-1085
-1104
-1237
-1428
-1541
-1488
-1308
-1126
-1030
-1013
-1008
-950
-842
-756
-762
-846
-904
-835
-672
-551
-554
-589
-496
-245
-21
6
-93
-67
209
569
747
687
597
653
776
749
526
304
262
341
351
256
224
410
756
1058
1215
1290
1373
1460
1503
1492
1413
1184
725
94
-566
-1242
-2112
-3276
-4442
-5075
-4903
-4205
-3480
-2852
-1973
-509
1352
3000
3983
4369
4527
4689
4790
4693
4420
4134
3958
3895
3879
3857
3802
3690
3515
3319
3164
3090
3083
3104
3146
3227
3386
3623
3840
3886
3681
3327
3053
2997
3085
3129
3038
2907
2895
3023
3157
3156
3019
2862
2778
2740
2668
2539
2413
2359
2378
2417
2425
2397
2354
2289
2195
2078
1973
1887
1795
1663
1520
1431
1444
1533
1614
1623
1566
1492
1438
1386
1277
1078
825
622
566
641
718
675
553
542
763
1079
1212
1055
831
840
1100
1326
1275
1031
909
1058
1307
1393
1266
1112
1119
1297
1503
1601
1555
1424
1314
1299
1358
1371
1228
973
787
814
987
1104
1033
848
735
791
934
1002
929
820
841
1035
1243
1271
1113
978
1075
1341
1500
1374
1098
965
1095
1303
1325
1138
956
978
1180
1367
1386
1271
1178
1240
1445
1657
1731
1648
1513
1466
1550
1684
1759
1754
1744
1797
1910
2036
2133
2185
2190
2160
2128
2127
2175
2243
2302
2360
2421
2463
2446
2354
2186
1923
1524
965
287
-463
-1312
-2312
-3394
-4278
-4641
-4395
-3764
-3049
-2304
-1301
140
1839
3320
4207
4533
4614
4677
4666
4414
3899
3304
2820
2510
2342
2291
2340
2412
2410
2320
2233
2232
2279
2247
2081
1891
1818
1888
1982
1974
1852
1700
1597
1550
1513
1450
1376
1323
1314
1328
1320
1267
1212
1198
1219
1216
1138
987
802
646
574
586
612
542
333
77
-56
-15
66
-11
-297
-636
-819
-752
-515
-295
-230
-312
-396
-348
-194
-109
-242
-527
-747
-766
-679
-666
-766
-852
-826
-751
-753
-825
-835
-734
-647
-716
-892
-959
-767
-428
-209
-270
-484
-580
-423
-156
-54
-228
-500
-581
-367
-29
187
226
245
408
672
846
810
651
544
555
570
458
228
37
20
155
317
435
537
658
729
659
461
281
236
265
202
-9
-207
-187
61
345
474
452
435
520
634
631
480
302
241
344
523
627
581
457
413
553
813
994
942
707
514
545
766
971
976
780
541
428
482
602
644
573
492
538
731
924
946
795
633
573
494
124
-649
-1616
-2443
-3058
-3741
-4755
-5897
-6577
-6393
-5567
-4684
-4029
-3275
-1941
-67
1720
2795
3123
3174
3331
3513
3381
2813
2048
1424
1076
910
806
723
657
603
563
562
591
584
465
270
110
39
-22
-172
-374
-489
-449
-348
-314
-335
-287
-92
170
380
505
582
649
679
641
556
467
383
279
155
36
-69
-164
-247
-284
-261
-216
-223
-313
-464
-615
-692
-680
-638
-672
-826
-1011
-1087
-1015
-924
-983
-1216
-1487
-1646
-1689
-1723
-1826
-1962
-2027
-1969
-1821
-1672
-1622
-1722
-1921
-2069
-2039
-1868
-1717
-1694
-1730
-1663
-1446
-1195
-1015
-892
-747
-596
-555
-635
-681
-544
-282
-108
-134
-244
-259
-148
-42
-45
-120
-155
-109
-46
-32
-68
-97
-90
-83
-140
-279
-436
-502
-429
-288
-210
-240
-257
-126
122
290
236
67
19
170
338
294
51
-143
-95
110
228
165
78
149
363
528
538
491
540
687
797
803
791
849
907
805
536
312
315
451
456
220
-59
-113
83
306
378
354
421
649
920
1086
1119
1101
1102
1113
1053
839
450
-60
-618
-1258
-2094
-3136
-4159
-4799
-4869
-4517
-4014
-3445
-2652
-1499
-92
1258
2284
2933
3307
3498
3527
3385
3096
2745
2420
2177
2028
1956
1918
1857
1744
1605
1493
1405
1256
1008
788
780
1006
1230
1207
962
774
841
1027
1045
824
577
522
627
700
643
550
548
620
653
601
523
506
560
631
668
668
656
638
610
571
490
327
81
-175
-329
-341
-319
-393
-556
-644
-538
-340
-277
-433
-631
-651
-500
-384
-445
-611
-701
-635
-481
-337
-245
-207
-220
-254
-247
-157
-45
-9
-71
-140
-97
73
270
369
321
184
77
76
116
51
-173
-437
-571
-547
-488
-495
-501
-373
-100
159
267
255
265
366
488
517
408
200
-23
-173
-200
-130
-78
-150
-323
-444
-382
-175
-14
-42
-194
-285
-214
-77
-28
-84
-104
14
202
313
313
311
388
477
468
393
414
605
828
927
936
1050
1368
1741
1950
1961
1936
2038
2218
2281
2148
1932
1805
1790
1745
1567
1327
1181
1158
1131
1011
911
1040
1419
1793
1895
1724
1494
1316
1027
399
-553
-1583
-2501
-3355
-4244
-5063
-5535
-5492
-5069
-4519
-3918
-3109
-1939
-549
681
1448
1750
1832
1923
2034
2014
1770
1388
1063
918
907
885
779
635
555
555
524
376
150
-3
17
146
229
190
104
96
166
177
17
-258
-461
-454
-285
-134
-121
-192
-206
-116
-26
-57
-201
-342
-376
-308
-189
-49
95
201
220
185
202
317
426
392
211
41
2
34
-5
-139
-262
-299
-319
-427
-599
-725
-764
-802
-932
-1132
-1284
-1321
-1285
-1240
-1179
-1066
-933
-881
-959
-1073
-1080
-973
-910
-1035
-1300
-1467
-1385
-1157
-1000
-985
-975
-847
-673
-615
-670
-646
-417
-121
-22
-202
-469
-603
-591
-594
-720
-916
-1060
-1117
-1126
-1088
-967
-772
-599
-552
-647
-794
-889
-895
-841
-793
-804
-855
-883
-826
-694
-566
-481
-402
-272
-103
27
75
91
156
263
307
200
-40
-310
-514
-605
-566
-407
-181
39
225
420
681
992
1239
1332
1317
1317
1398
1512
1575
1586
1622
1717
1798
1769
1638
1515
1483
1520
1531
1460
1340
1233
1178
1170
1167
1082
800
291
-313
-842
-1314
-1957
-2922
-3996
-4703
-4753
-4326
-3828
-3404
-2789
-1669
-129
1352
2342
2805
2991
3101
3116
2928
2547
2095
1710
1467
1410
1536
1756
1904
1876
1742
1652
1654
1647
1513
1279
1100
1091
1216
1347
1393
1361
1309
1272
1251
1233
1195
1130
1064
1045
1111
1238
1348
1392
1399
1441
1532
1606
1588
1491
1415
1449
1563
1631
1568
1425
1332
1351
1391
1306
1053
747
561
544
587
552
402
218
101
66
55
3
-105
-236
-360
-465
-542
-589
-613
-632
-659
-684
-692
-683
-674
-675
-671
-647
-594
-517
-426
-336
-264
-209
-155
-78
16
88
114
115
139
211
302
367
397
429
501
590
645
637
610
625
683
718
667
560
485
481
489
417
260
124
106
183
241
185
40
-90
-131
-111
-124
-230
-386
-492
-487
-412
-375
-439
-553
-606
-538
-401
-314
-347
-463
-564
-575
-502
-416
-390
-439
-507
-514
-442
-338
-264
-226
-180
-111
-58
-54
-76
-55
23
71
0
-169
-314
-332
-237
-125
-60
-38
-29
-24
-37
-85
-216
-511
-1004
-1617
-2251
-2938
-3828
-4937
-5949
-6412
-6173
-5537
-4923
-4374
-3539
-2150
-423
1078
1948
2245
2297
2339
2355
2211
1846
1325
782
363
162
166
249
257
127
-90
-309
-476
-571
-586
-534
-471
-466
-529
-589
-571
-469
-370
-374
-507
-699
-844
-888
-870
-873
-939
-1006
-983
-857
-713
-656
-702
-776
-796
-766
-753
-823
-975
-1139
-1227
-1203
-1108
-1036
-1048
-1122
-1190
-1217
-1228
-1256
-1282
-1269
-1237
-1252
-1356
-1492
-1582
-1625
-1711
-1904
-2150
-2335
-2413
-2418
-2395
-2328
-2163
-1904
-1621
-1409
-1339
-1452
-1720
-2029
-2234
-2283
-2273
-2331
-2442
-2443
-2195
-1750
-1295
-951
-683
-422
-202
-114
-164
-226
-192
-112
-134
-286
-429
-412
-241
-54
57
141
278
429
479
392
277
232
216
87
-196
-491
-621
-573
-499
-526
-622
-673
-622
-527
-462
-436
-423
-395
-341
-240
-91
69
183
222
225
261
342
428
477
495
539
658
830
974
1044
1071
1126
1218
1275
1210
1058
966
1028
1172
1236
1163
1077
1123
1279
1377
1333
1260
1331
1557
1736
1702
1531
1463
1571
1612
1243
405
-595
-1437
-2168
-3124
-4461
-5804
-6511
-6284
-5438
-4511
-3649
-2521
-829
1207
2978
4052
4512
4738
4923
4942
4621
4020
3393
2948
2706
2580
2499
2432
2335
2190
2027
1885
1763
1626
1482
1388
1388
1452
1520
1560
1539
1424
1215
1031
1031
1214
1374
1326
1130
1027
1131
1290
1290
1120
936
831
724
525
303
202
235
266
194
88
98
266
469
552
463
272
101
24
32
31
-82
-303
-514
-597
-560
-520
-578
-720
-884
-1048
-1220
-1354
-1367
-1281
-1248
-1373
-1544
-1533
-1267
-947
-806
-825
-784
-557
-285
-144
-87
87
415
677
669
466
320
353
462
507
499
551
683
803
856
911
1086
1380
1616
1607
1335
1022
979
1298
1711
1816
1487
1030
878
1134
1496
1620
1451
1203
1062
1059
1129
1235
1339
1367
1279
1155
1155
1356
1640
1808
1751
1574
1471
1520
1610
1570
1377
1201
1221
1420
1597
1632
1642
1826
2189
2519
2611
2492
2335
2254
2204
2120
2027
1990
1981
1915
1788
1713
1781
1948
2081
2119
2106
2107
2118
2084
1997
1932
1902
1792
1451
866
195
-381
-887
-1540
-2499
-3601
-4409
-4571
-4129
-3438
-2797
-2147
-1192
212
1804
3104
3825
4082
4175
4252
4206
3906
3431
3003
2760
2665
2604
2528
2464
2422
2372
2281
2117
1877
1587
1346
1269
1376
1528
1563
1462
1363
1405
1570
1708
1695
1518
1261
1029
909
900
911
828
639
467
428
497
544
495
408
382
423
457
452
440
425
343
170
-20
-122
-138
-181
-332
-538
-675
-691
-630
-564
-524
-525
-591
-725
-870
-958
-1006
-1106
-1312
-1531
-1611
-1506
-1337
-1264
-1313
-1367
-1329
-1233
-1189
-1243
-1309
-1275
-1158
-1082
-1127
-1221
-1217
-1056
-835
-690
-668
-708
-714
-640
-482
-283
-129
-85
-133
-157
-58
116
219
183
89
82
202
357
431
397
323
270
239
199
139
81
70
122
197
224
171
97
85
148
204
180
86
1
-40
-79
-148
-218
-231
-170
-80
-8
32
62
127
258
428
538
493
327
218
324
593
791
766
626
618
836
1109
1194
1052
857
780
793
726
510
273
213
375
607
714
656
569
595
699
679
375
-160
-734
-1247
-1828
-2651
-3643
-4457
-4759
-4554
-4134
-3709
-3169
-2217
-793
766
1979
2631
2904
3104
3330
3419
3194
2671
2055
1558
1265
1136
1075
1014
937
889
922
1024
1088
1003
792
605
575
672
735
663
538
514
645
824
924
925
908
937
988
995
919
771
601
466
413
447
520
557
525
454
400
375
331
233
93
-29
-105
-172
-277
-406
-486
-473
-419
-425
-526
-659
-734
-740
-754
-847
-1015
-1188
-1295
-1315
-1276
-1220
-1187
-1194
-1241
-1297
-1339
-1365
-1397
-1443
-1485
-1508
-1510
-1478
-1392
-1232
-1035
-879
-799
-754
-684
-600
-563
-589
-607
-548
-440
-389
-418
-436
-346
-189
-110
-192
-355
-443
-393
-270
-168
-109
-56
12
83
140
173
167
103
-3
-93
-116
-96
-74
-47
24
140
228
227
171
137
116
11
-214
-429
-453
-281
-117
-123
-233
-232
-41
164
154
-84
-332
-394
-277
-131
-44
43
227
522
856
1155
1405
1612
1764
1817
1749
1615
1498
1430
1328
1091
738
451
399
559
709
664
482
369
424
502
340
-159
-879
-1664
-2499
-3457
-4511
-5445
-6016
-6135
-5896
-5427
-4743
-3803
-2641
-1410
-272
680
1385
1759
1760
1490
1169
925
659
201
-415
-900
-998
-771
-528
-459
-440
-226
226
707
990
1073
1119
1210
1270
1181
941
666
443
259
61
-148
-290
-321
-287
-295
-414
-616
-800
-861
-782
-639
-543
-555
-623
-619
-456
-179
77
210
234
243
288
335
333
299
302
371
446
450
398
379
422
443
315
8
-367
-658
-805
-848
-843
-821
-781
-703
-552
-296
22
250
259
66
-171
-315
-388
-510
-719
-928
-1031
-1017
-951
-886
-812
-701
-553
-395
-236
-70
95
238
337
371
315
141
-117
-364
-518
-576
-621
-741
-933
-1112
-1207
-1220
-1198
-1163
-1074
-912
-728
-605
-579
-580
-510
-361
-251
-308
-514
-708
-744
-636
-515
-474
-484
-468
-399
-321
-284
-283
-302
-344
-402
-439
-402
-261
-46
180
369
506
617
737
880
1004
1068
1082
1118
1212
1302
1299
1211
1139
1142
1149
1055
883
775
813
905
898
776
684
736
884
982
956
841
687
453
44
-545
-1216
-1907
-2676
-3614
-4633
-5440
-5741
-5520
-5040
-4533
-3922
-2936
-1500
79
1339
2064
2405
2620
2783
2792
2582
2217
1810
1417
1062
809
728
784
835
775
633
524
491
467
401
322
292
301
271
153
-6
-118
-142
-118
-108
-132
-164
-173
-152
-116
-97
-120
-185
-275
-375
-476
-573
-645
-665
-623
-532
-414
-301
-230
-220
-246
-260
-236
-225
-312
-520
-770
-937
-957
-882
-823
-853
-948
-1029
-1045
-1034
-1085
-1242
-1448
-1599
-1650
-1668
-1762
-1944
-2103
-2126
-2031
-1959
-2015
-2159
-2257
-2244
-2197
-2216
-2285
-2287
-2158
-1978
-1858
-1795
-1689
-1475
-1229
-1051
-941
-816
-645
-502
-452
-463
-432
-321
-209
-187
-225
-211
-87
69
144
139
177
360
632
821
816
677
558
517
462
299
65
-108
-159
-139
-105
-29
116
272
328
292
300
449
650
722
629
534
612
854
1083
1171
1158
1163
1247
1379
1482
1514
1510
1548
1674
1862
2036
2127
2161
2200
2259
2289
2233
2107
1997
1971
2024
2108
2193
2284
2408
2565
2714
2811
2824
2740
2536
2158
1557
778
-50
-855
-1710
-2711
-3728
-4383
-4370
-3779
-3000
-2297
-1513
-302
1384
3113
4350
4912
5046
5106
5188
5133
4789
4204
3604
3191
3004
2945
2902
2846
2820
2861
2920
2914
2816
2681
2591
2579
2595
2560
2445
2282
2134
2049
2030
2039
2033
2001
1980
2007
2067
2083
1997
1826
1659
1572
1555
1548
1508
1455
1440
1477
1532
1555
1521
1444
1348
1262
1203
1149
1061
920
764
671
669
694
639
463
234
61
-7
-26
-91
-232
-388
-484
-513
-533
-585
-640
-634
-567
-506
-498
-508
-470
-382
-323
-362
-467
-539
-521
-444
-365
-304
-240
-156
-56
48
157
256
305
280
214
170
172
180
153
110
113
183
255
266
236
242
312
366
301
135
2
-1
75
98
16
-75
-51
87
215
231
153
77
60
72
47
-44
-167
-255
-268
-216
-145
-89
-40
37
153
270
341
363
379
432
515
581
586
543
512
545
624
684
688
671
689
738
744
660
561
560
670
772
730
560
410
410
547
691
715
600
450
389
439
440
131
-615
-1642
-2660
-3549
-4464
-5571
-6694
-7353
-7196
-6365
-5320
-4342
-3276
-1824
-41
1578
2551
2856
2888
2975
3057
2887
2445
2018
1855
1887
1845
1647
1483
1524
1654
1596
1260
860
659
678
728
658
495
364
326
352
387
404
401
387
384
386
364
308
252
263
341
389
326
187
79
42
9
-85
-223
-347
-456
-599
-784
-943
-1028
-1099
-1235
-1408
-1500
-1461
-1396
-1465
-1697
-1949
-2081
-2106
-2155
-2305
-2496
-2624
-2658
-2643
-2627
-2623
-2627
-2659
-2749
-2890
-3015
-3070
-3044
-2968
-2891
-2845
-2827
-2806
-2744
-2639
-2537
-2490
-2501
-2521
-2498
-2450
-2424
-2414
-2350
-2185
-1949
-1731
-1585
-1469
-1293
-1009
-649
-302
-35
140
262
388
543
687
768
776
762
779
849
949
1042
1111
1167
1222
1281
1325
1324
1269
1196
1162
1187
1216
1171
1047
922
887
943
1013
1042
1058
1117
1218
1299
1315
1297
1302
1342
1387
1423
1470
1548
1621
1642
1620
1615
1656
1695
1674
1609
1586
1653
1763
1824
1807
1762
1743
1756
1777
1805
1846
1891
1911
1909
1947
2061
2195
2217
2009
1560
983
388
-246
-1070
-2177
-3403
-4336
-4639
-4347
-3809
-3294
-2708
-1744
-305
1305
2619
3385
3690
3757
3698
3515
3211
2824
2384
1918
1520
1334
1420
1650
1795
1748
1603
1518
1528
1544
1502
1441
1423
1440
1452
1463
1512
1591
1625
1563
1465
1437
1493
1545
1501
1390
1316
1328
1379
1389
1338
1268
1200
1099
925
696
488
374
345
316
219
92
37
101
215
295
318
334
362
355
275
162
82
37
-30
-141
-224
-214
-157
-159
-263
-381
-425
-428
-496
-657
-795
-798
-708
-682
-795
-918
-866
-626
-399
-365
-460
-464
-263
2
119
68
22
135
354
528
619
710
846
956
966
929
961
1076
1162
1124
1006
934
982
1100
1194
1207
1151
1094
1117
1226
1320
1250
991
714
636
789
978
1005
892
832
943
1121
1182
1099
1020
1065
1166
1172
1040
888
834
859
872
851
885
1038
1242
1366
1373
1354
1422
1579
1703
1696
1558
1375
1250
1235
1317
1405
1395
1266
1112
1059
1127
1227
1269
1239
1213
1250
1350
1460
1561
1652
1715
1688
1478
1042
458
-125
-637
-1226
-2120
-3306
-4390
-4889
-4697
-4205
-3855
-3605
-2967
-1598
227
1815
2694
2996
3183
3501
3778
3715
3263
2669
2209
1964
1843
1737
1634
1570
1543
1495
1390
1259
1163
1121
1104
1091
1082
1063
1003
884
761
715
756
774
679
524
470
597
796
893
848
786
829
936
967
871
750
715
732
683
528
385
386
488
522
405
245
215
337
447
390
180
-48
-187
-245
-302
-407
-553
-701
-805
-819
-763
-731
-825
-1044
-1265
-1370
-1363
-1344
-1382
-1431
-1417
-1337
-1261
-1233
-1216
-1148
-1028
-909
-827
-749
-623
-449
-268
-126
-30
40
92
116
112
98
108
157
225
283
330
418
584
790
950
999
962
918
912
902
817
640
424
235
118
84
129
214
271
268
260
339
527
730
824
790
715
710
805
944
1038
1048
994
948
962
1013
1022
950
849
821
906
1035
1129
1200
1311
1468
1597
1625
1590
1590
1668
1763
1798
1764
1734
1759
1817
1843
1789
1659
1480
1301
1182
1182
1298
1443
1516
1511
1495
1504
1437
1116
476
-357
-1219
-2070
-2970
-3865
-4496
-4589
-4133
-3389
-2583
-1689
-534
877
2244
3197
3599
3596
3425
3226
3004
2725
2387
2049
1807
1740
1838
1987
2061
2035
1986
1961
1891
1687
1392
1175
1130
1152
1056
821
631
666
869
1018
988
885
892
1023
1127
1094
984
918
896
800
579
352
279
395
563
629
570
468
385
308
189
11
-186
-342
-415
-382
-261
-102
35
104
103
38
-81
-251
-458
-662
-828
-946
-1028
-1056
-992
-830
-625
-463
-408
-459
-573
-722
-899
-1096
-1268
-1354
-1325
-1219
-1123
-1082
-1047
-932
-726
-544
-515
-626
-707
-614
-405
-265
-277
-331
-268
-94
18
-65
-293
-508
-638
-725
-819
-871
-807
-648
-487
-376
-265
-81
160
362
449
428
387
413
520
634
658
559
409
320
343
422
451
385
282
233
255
302
333
339
317
239
91
-65
-138
-89
14
50
-10
-103
-154
-151
-134
-129
-154
-226
-339
-438
-440
-346
-272
-330
-500
-650
-686
-641
-597
-571
-515
-404
-290
-229
-196
-133
-57
-63
-222
-518
-905
-1376
-1966
-2685
-3545
-4559
-5667
-6662
-7250
-7268
-6845
-6261
-5634
-4806
-3588
-2052
-564
501
1031
1193
1231
1273
1302
1247
1064
780
499
329
288
291
237
114
-2
-76
-173
-359
-564
-603
-372
-12
209
167
-2
-50
106
311
361
227
81
77
207
363
498
683
970
1300
1556
1709
1841
2009
2135
2090
1870
1628
1517
1520
1493
1349
1170
1087
1122
1165
1094
889
636
432
312
239
151
-12
-279
-640
-1048
-1442
-1774
-2036
-2250
-2458
-2661
-2787
-2759
-2584
-2389
-2314
-2373
-2452
-2456
-2410
-2411
-2477
-2518
-2452
-2297
-2139
-2013
-1882
-1706
-1505
-1329
-1207
-1136
-1113
-1124
-1117
-1036
-903
-819
-859
-976
-1043
-986
-882
-872
-1016
-1214
-1313
-1267
-1176
-1170
-1270
-1365
-1353
-1266
-1221
-1273
-1339
-1320
-1244
-1217
-1289
-1364
-1331
-1213
-1130
-1140
-1166
-1132
-1081
-1114
-1236
-1330
-1314
-1243
-1218
-1233
-1180
-1009
-819
-733
-744
-725
-595
-410
-289
-277
-318
-330
-289
-222
-178
-188
-258
-349
-403
-401
-384
-401
-447
-463
-399
-271
-125
-2
75
98
84
66
23
-152
-571
-1196
-1852
-2435
-3057
-3889
-4849
-5559
-5693
-5311
-4757
-4231
-3566
-2489
-1019
474
1598
2257
2597
2780
2844
2758
2514
2136
1663
1190
857
760
843
929
890
755
630
553
470
327
166
80
94
136
140
115
126
195
242
166
-39
-260
-370
-367
-374
-504
-711
-824
-727
-491
-321
-342
-478
-554
-495
-386
-359
-433
-504
-485
-393
-322
-313
-324
-306
-277
-302
-409
-551
-666
-740
-822
-958
-1138
-1316
-1452
-1554
-1663
-1807
-1980
-2137
-2232
-2247
-2202
-2154
-2142
-2138
-2066
-1893
-1697
-1597
-1624
-1674
-1617
-1445
-1275
-1197
-1183
-1129
-986
-809
-672
-589
-509
-385
-226
-74
24
62
83
145
262
371
375
250
102
75
191
323
327
205
96
113
215
282
272
258
322
424
445
336
194
164
259
334
246
31
-123
-83
91
231
253
235
279
382
453
454
436
454
478
445
383
400
559
797
984
1061
1077
1101
1156
1222
1279
1303
1270
1172
1070
1033
1060
1071
1010
915
881
944
1052
1152
1237
1322
1395
1411
1336
1146
803
279
-386
-1115
-1898
-2798
-3799
-4661
-5034
-4780
-4125
-3400
-2679
-1722
-324
1336
2788
3681
4037
4128
4166
4166
4034
3719
3253
2727
2264
1975
1888
1917
1912
1784
1561
1333
1171
1086
1057
1057
1048
994
897
789
700
633
572
506
444
395
348
293
237
188
139
65
-61
-230
-399
-515
-565
-580
-610
-663
-689
-640
-540
-490
-564
-721
-837
-832
-760
-745
-846
-1008
-1140
-1210
-1262
-1346
-1464
-1593
-1720
-1841
-1933
-1972
-1958
-1915
-1865
-1810
-1749
-1702
-1690
-1702
-1706
-1687
-1668
-1669
-1675
-1652
-1600
-1556
-1532
-1484
-1349
-1133
-919
-790
-749
-715
-620
-475
-344
-272
-244
-223
-191
-144
-79
10
107
169
163
95
9
-37
-26
-7
-43
-148
-250
-246
-124
4
14
-90
-181
-155
-60
-27
-95
-182
-192
-141
-108
-106
-73
18
96
91
53
95
232
337
292
160
115
221
357
362
250
202
335
573
748
801
837
965
1133
1183
1046
825
677
653
669
631
534
435
389
436
603
865
1115
1207
1085
848
653
564
476
183
-429
-1255
-2074
-2760
-3431
-4304
-5356
-6196
-6375
-5834
-4959
-4124
-3258
-1986
-191
1696
3052
3636
3722
3698
3660
3441
2933
2259
1654
1265
1092
1067
1121
1182
1199
1146
1026
864
684
504
332
173
43
7
98
251
335
283
172
148
262
422
498
463
396
368
369
345
280
210
179
180
178
176
218
350
550
737
843
885
940
1045
1148
1177
1113
1023
988
1020
1056
1030
928
807
730
704
691
650
590
564
592
623
593
509
449
457
486
465
398
378
483
682
866
976
1044
1140
1281
1420
1511
1556
1585
1640
1725
1837
1953
2037
2060
2029
1981
1971
2007
2041
2014
1912
1797
1761
1839
1972
2068
2074
2002
1916
1877
1920
2026
2147
2228
2253
2256
2276
2313
2336
2329
2317
2325
2345
2359
2361
2374
2425
2501
2563
2575
2526
2436
2341
2274
2251
2270
2298
2288
2197
2050
1925
1884
1899
1864
1718
1504
1323
1231
1206
1214
1258
1347
1444
1485
1471
1483
1578
1704
1761
1722
1678
1735
1903
2096
2228
2273
2270
2258
2213
2033
1612
966
227
-503
-1279
-2209
-3194
-3878
-3943
-3466
-2849
-2327
-1683
-540
1093
2698
3747
4204
4458
4778
5032
4936
4468
3915
3528
3273
2992
2667
2451
2441
2526
2532
2431
2330
2307
2309
2237
2099
2001
1998
2021
1962
1813
1688
1691
1811
1937
1994
2001
2015
2046
2041
1957
1837
1763
1751
1728
1610
1412
1252
1223
1289
1324
1243
1103
1026
1046
1086
1058
963
869
813
767
691
601
532
487
416
286
150
90
115
140
79
-61
-198
-262
-256
-228
-220
-242
-305
-392
-459
-450
-366
-298
-339
-473
-568
-518
-369
-274
-306
-372
-325
-141
63
165
178
232
410
639
767
713
558
451
474
572
618
554
447
415
491
601
663
683
723
814
891
870
749
635
636
724
765
672
502
408
447
521
483
324
199
240
401
516
490
394
355
392
411
342
239
198
244
302
324
354
450
594
702
725
720
769
868
938
921
861
841
879
927
946
961
1015
1084
1079
962
816
764
838
934
966
957
994
1081
1085
865
423
-107
-663
-1345
-2278
-3351
-4213
-4563
-4393
-3968
-3500
-2918
-1988
-626
926
2237
3006
3268
3311
3397
3526
3476
3065
2404
1837
1626
1708
1779
1632
1352
1188
1242
1381
1419
1313
1177
1134
1184
1222
1155
996
834
728
667
611
562
567
642
706
678
594
586
708
840
815
628
443
396
433
411
279
124
33
-23
-106
-200
-231
-177
-107
-87
-89
-31
111
267
336
258
57
-181
-355
-406
-406
-497
-743
-1037
-1193
-1148
-1034
-1033
-1199
-1409
-1506
-1451
-1338
-1291
-1344
-1426
-1443
-1373
-1278
-1233
-1225
-1163
-997
-803
-706
-730
-754
-643
-403
-183
-103
-129
-112
32
252
415
453
424
413
437
427
324
186
118
148
187
140
20
-66
-69
-57
-107
-227
-357
-471
-585
-667
-633
-443
-198
-41
-24
-71
-77
-33
-4
-46
-159
-301
-419
-449
-366
-216
-84
-4
59
126
167
139
78
78
183
327
434
533
711
977
1222
1318
1255
1108
939
743
511
288
156
152
237
357
488
624
752
829
812
687
461
141
-273
-767
-1313
-1916
-2626
-3454
-4263
-4801
-4883
-4576
-4139
-3719
-3156
-2164
-722
798
1915
2450
2607
2685
2773
2741
2485
2065
1646
1351
1210
1197
1250
1292
1269
1173
1042
925
846
814
823
827
760
612
449
346
286
192
49
-53
-49
16
56
63
113
212
231
67
-195
-363
-372
-351
-446
-608
-636
-444
-191
-121
-324
-651
-881
-917
-849
-848
-982
-1132
-1095
-800
-414
-187
-218
-385
-532
-635
-772
-956
-1101
-1163
-1214
-1342
-1493
-1536
-1441
-1339
-1366
-1513
-1655
-1710
-1692
-1635
-1532
-1399
-1311
-1333
-1427
-1458
-1359
-1210
-1156
-1228
-1287
-1177
-892
-581
-409
-399
-435
-403
-298
-228
-298
-499
-719
-860
-902
-915
-964
-1045
-1094
-1054
-939
-821
-769
-784
-796
-747
-648
-562
-536
-551
-566
-573
-599
-632
-640
-619
-621
-688
-786
-828
-804
-807
-916
-1078
-1153
-1082
-958
-896
-886
-829
-663
-436
-226
-47
122
249
273
203
128
105
60
-135
-490
-864
-1094
-1130
-1056
-978
-939
-908
-820
-645
-414
-211
-104
-82
-81
-59
-48
-127
-334
-651
-1044
-1492
-1999
-2613
-3382
-4286
-5137
-5648
-5653
-5287
-4849
-4462
-3916
-2911
-1453
69
1215
1872
2265
2638
2991
3162
3063
2782
2466
2172
1892
1642
1482
1451
1500
1551
1575
1603
1659
1716
1757
1796
1847
1868
1795
1617
1400
1215
1066
911
745
611
527
446
327
190
105
85
56
-64
-254
-413
-478
-493
-550
-678
-819
-906
-930
-933
-976
-1080
-1227
-1377
-1497
-1565
-1587
-1603
-1644
-1718
-1806
-1874
-1904
-1913
-1946
-2046
-2210
-2382
-2489
-2523
-2542
-2615
-2741
-2853
-2891
-2847
-2764
-2681
-2606
-2525
-2435
-2338
-2247
-2178
-2144
-2141
-2146
-2121
-2064
-2007
-1972
-1923
-1816
-1656
-1500
-1414
-1401
-1404
-1381
-1341
-1317
-1303
-1276
-1238
-1229
-1259
-1268
-1183
-1033
-952
-1032
-1201
-1295
-1241
-1145
-1158
-1295
-1416
-1399
-1280
-1185
-1172
-1181
-1126
-1012
-919
-896
-904
-881
-827
-799
-839
-915
-966
-974
-980
-1007
-1021
-969
-854
-734
-638
-538
-402
-274
-227
-242
-205
-50
120
134
-33
-211
-225
-108
-55
-193
-449
-653
-721
-702
-687
-710
-746
-739
-655
-510
-376
-336
-412
-550
-743
-1079
-1641
-2395
-3213
-4020
-4821
-5570
-6054
-6049
-5562
-4830
-4049
-3154
-1968
-524
836
1709
1995
1912
1750
1631
1489
1226
843
450
189
150
303
511
620
567
419
277
190
136
83
50
92
215
354
441
480
539
655
762
748
592
402
326
389
484
499
429
366
364
383
358
274
176
100
47
-14
-83
-122
-101
-18
81
142
162
184
249
333
372
332
250
189
165
147
107
52
-18
-134
-311
-495
-603
-628
-643
-711
-798
-833
-816
-815
-861
-904
-890
-840
-820
-842
-837
-735
-566
-415
-341
-310
-244
-110
50
173
232
253
299
396
515
609
664
697
707
672
596
538
573
703
841
903
903
931
1051
1212
1297
1246
1110
996
960
975
975
938
905
929
1018
1118
1170
1162
1135
1131
1157
1201
1258
1318
1364
1389
1418
1499
1642
1791
1867
1849
1815
1848
1949
2050
2104
2129
2171
2227
2254
2221
2138
2042
1961
1909
1894
1916
1944
1934
1872
1789
1747
1775
1830
1844
1766
1613
1464
1376
1321
1182
821
199
-584
-1405
-2257
-3253
-4417
-5516
-6145
-6066
-5447
-4676
-3938
-3024
-1630
191
1937
3066
3446
3400
3322
3316
3203
2812
2203
1616
1262
1162
1187
1212
1192
1150
1104
1037
946
858
782
688
556
426
376
402
397
265
63
-37
50
232
345
344
319
349
397
371
254
117
20
-51
-127
-191
-185
-92
28
107
132
125
90
11
-102
-213
-307
-419
-580
-736
-788
-717
-634
-676
-856
-1054
-1168
-1230
-1347
-1534
-1695
-1750
-1745
-1774
-1838
-1835
-1680
-1451
-1324
-1392
-1570
-1681
-1651
-1589
-1664
-1883
-2063
-2005
-1707
-1373
-1181
-1089
-916
-586
-241
-79
-136
-254
-276
-217
-197
-267
-352
-350
-258
-159
-120
-134
-152
-146
-121
-94
-72
-63
-55
-24
38
101
121
96
77
96
115
68
-39
-115
-82
15
50
-43
-193
-289
-313
-351
-467
-621
-719
-728
-692
-640
-551
-406
-246
-137
-93
-54
20
87
85
9
-68
-101
-99
-70
29
245
510
666
629
501
458
532
572
420
104
-182
-272
-164
19
165
255
325
384
371
166
-320
-1048
-1877
-2712
-3620
-4708
-5856
-6667
-6765
-6159
-5241
-4347
-3414
-2109
-309
1645
3207
4095
4462
4615
4701
4635
4315
3790
3239
2816
2573
2472
2459
2486
2521
2541
2534
2491
2408
2280
2133
2009
1931
1882
1839
1815
1858
1960
2042
2033
1981
2011
2170
2335
2334
2158
1986
1981
2091
2126
1984
1776
1679
1722
1777
1729
1609
1531
1534
1538
1459
1305
1151
1044
967
895
827
764
685
566
447
420
509
606
569
384
196
150
240
328
306
218
186
262
377
443
434
395
375
379
377
331
212
33
-150
-268
-300
-294
-313
-365
-397
-340
-182
21
181
250
267
319
446
602
696
696
660
669
743
833
891
927
968
1011
1035
1037
1038
1051
1063
1056
1034
1020
1016
1006
988
987
1029
1093
1136
1127
1092
1090
1142
1209
1218
1148
1058
1033
1097
1183
1215
1197
1214
1332
1508
1632
1646
1609
1613
1690
1782
1813
1783
1751
1765
1801
1812
1792
1782
1812
1865
1880
1816
1695
1593
1574
1650
1770
1845
1826
1753
1718
1755
1752
1521
996
316
-339
-962
-1723
-2669
-3531
-3920
-3725
-3216
-2694
-2116
-1177
248
1838
3093
3801
4144
4374
4509
4405
4024
3531
3113
2805
2537
2297
2162
2183
2296
2374
2358
2282
2204
2141
2080
2023
1977
1937
1897
1859
1849
1865
1866
1811
1698
1565
1449
1341
1216
1095
1028
1020
1004
921
821
806
892
951
865
696
636
765
906
832
560
359
427
639
683
438
124
41
216
389
327
67
-159
-213
-183
-248
-464
-724
-875
-877
-794
-710
-669
-679
-723
-778
-812
-826
-870
-994
-1170
-1279
-1213
-991
-759
-624
-549
-420
-217
-62
-66
-178
-244
-197
-136
-176
-258
-220
-15
222
335
316
276
260
221
124
25
-12
-8
-32
-77
-74
2
87
141
207
320
409
360
203
122
246
455
502
322
126
167
437
673
668
472
311
336
484
598
620
614
660
766
873
941
975
993
1003
1026
1084
1174
1237
1221
1152
1118
1155
1193
1147
1032
964
997
1043
981
835
781
935
1177
1287
1187
1047
1071
1254
1379
1270
961
611
297
-43
-481
-1034
-1711
-2539
-3470
-4288
-4703
-4620
-4210
-3699
-3088
-2178
-871
603
1832
2572
2919
3122
3291
3317
3070
2609
2143
1829
1667
1563
1469
1407
1388
1361
1273
1138
1026
981
984
1001
1038
1109
1189
1214
1143
1002
861
757
686
630
593
588
622
688
770
841
891
919
926
917
901
885
872
857
821
755
664
565
471
381
289
192
88
-19
-109
-163
-185
-202
-239
-300
-377
-474
-600
-727
-798
-776
-697
-649
-686
-777
-862
-931
-1023
-1163
-1319
-1441
-1529
-1606
-1643
-1561
-1331
-1031
-793
-681
-651
-628
-589
-552
-516
-461
-403
-375
-365
-304
-146
46
143
90
-34
-102
-71
-4
26
4
-28
-27
28
131
234
270
211
107
41
34
7
-122
-325
-482
-502
-433
-406
-490
-625
-692
-630
-499
-389
-325
-267
-174
-51
72
177
273
354
378
335
292
339
486
643
720
736
786
894
983
974
907
890
958
997
877
628
418
395
536
693
755
733
720
805
1017
1319
1609
1745
1651
1419
1254
1275
1353
1185
582
-311
-1160
-1806
-2421
-3253
-4266
-5081
-5326
-5006
-4427
-3808
-3059
-1947
-467
1050
2218
2908
3255
3442
3509
3400
3095
2671
2249
1915
1695
1584
1537
1493
1406
1275
1112
937
777
670
622
574
446
247
103
124
240
264
104
-111
-168
-25
134
116
-78
-278
-356
-354
-394
-519
-661
-743
-759
-751
-736
-700
-643
-611
-665
-804
-950
-1038
-1083
-1170
-1351
-1592
-1805
-1957
-2092
-2262
-2450
-2602
-2705
-2803
-2922
-3012
-3001
-2886
-2744
-2641
-2564
-2458
-2312
-2181
-2119
-2110
-2089
-1998
-1845
-1683
-1548
-1432
-1315
-1195
-1103
-1063
-1074
-1101
-1103
-1056
-973
-898
-855
-822
-738
-584
-423
-361
-422
-517
-526
-432
-321
-271
-260
-216
-116
-5
78
150
239
313
301
200
103
110
226
353
413
429
488
635
814
935
971
974
1000
1041
1052
1010
943
891
852
815
784
779
803
831
849
868
900
936
963
982
991
950
820
632
489
467
521
525
416
264
205
300
484
628
649
567
470
443
505
612
704
754
766
767
789
850
912
854
556
21
-600
-1194
-1860
-2800
-3996
-5066
-5563
-5421
-5008
-4662
-4268
-3399
-1890
-138
1233
1956
2273
2550
2855
2961
2682
2117
1536
1139
949
873
827
779
729
688
655
608
530
436
378
378
413
428
401
355
324
316
313
280
188
40
-103
-159
-98
21
94
76
9
-45
-66
-69
-68
-76
-127
-254
-424
-543
-547
-488
-483
-584
-716
-775
-762
-774
-883
-1066
-1237
-1361
-1463
-1575
-1709
-1864
-2039
-2199
-2270
-2229
-2175
-2252
-2482
-2715
-2782
-2689
-2620
-2712
-2883
-2939
-2811
-2625
-2555
-2608
-2634
-2522
-2341
-2247
-2299
-2380
-2335
-2148
-1946
-1836
-1779
-1656
-1434
-1221
-1134
-1153
-1163
-1101
-1047
-1095
-1209
-1261
-1210
-1141
-1148
-1201
-1169
-1004
-828
-782
-859
-908
-812
-620
-487
-482
-528
-512
-423
-352
-362
-397
-361
-243
-145
-152
-216
-208
-65
123
202
115
-53
-171
-205
-223
-301
-435
-544
-548
-433
-261
-105
14
146
342
574
733
764
742
799
945
1041
953
729
544
495
494
397
209
97
198
469
748
920
993
1049
1135
1212
1157
805
79
-889
-1847
-2663
-3464
-4436
-5481
-6177
-6167
-5537
-4708
-3919
-2978
-1574
224
1903
2986
3466
3702
3963
4163
4062
3604
3010
2537
2269
2124
2018
1948
1920
1904
1861
1789
1732
1715
1723
1733
1732
1715
1672
1588
1465
1320
1173
1041
945
898
882
852
784
720
729
827
940
977
933
884
895
935
932
872
825
838
866
827
697
553
473
465
481
487
494
516
535
520
468
386
275
121
-77
-289
-479
-618
-676
-633
-501
-327
-169
-35
110
286
453
531
475
309
100
-88
-228
-324
-383
-409
-393
-315
-168
15
181
296
377
452
525
572
575
549
538
571
635
694
724
747
803
901
984
964
801
563
377
317
344
363
347
367
501
724
902
936
855
767
724
676
550
348
153
38
6
17
50
113
212
330
436
502
511
464
380
292
229
193
161
118
77
91
210
442
721
951
1081
1145
1214
1290
1289
1136
867
618
492
462
419
303
186
200
392
674
907
1028
1092
1186
1323
1417
1348
1040
496
-222
-1038
-1944
-2979
-4134
-5228
-5942
-6048
-5613
-4914
-4106
-3044
-1501
433
2262
3483
4026
4234
4434
4586
4429
3859
3091
2431
1996
1691
1410
1181
1074
1096
1174
1256
1351
1467
1553
1553
1495
1465
1497
1523
1442
1261
1107
1099
1209
1305
1282
1157
1012
876
713
485
214
-29
-181
-236
-232
-214
-206
-209
-209
-208
-228
-288
-381
-464
-504
-517
-563
-682
-861
-1055
-1244
-1444
-1669
-1895
-2074
-2189
-2258
-2303
-2325
-2312
-2281
-2274
-2313
-2381
-2428
-2428
-2405
-2404
-2447
-2515
-2570
-2609
-2671
-2771
-2851
-2802
-2590
-2316
-2134
-2089
-2058
-1891
-1598
-1354
-1297
-1365
-1364
-1190
-933
-740
-624
-479
-245
-12
95
88
105
226
371
401
315
253
333
522
697
793
850
916
981
1017
1047
1129
1271
1393
1419
1357
1303
1323
1400
1456
1438
1354
1258
1210
1231
1304
1376
1401
1375
1345
1352
1400
1465
1521
1556
1557
1508
1431
1391
1449
1586
1701
1716
1661
1639
1713
1827
1887
1865
1817
1805
1828
1848
1844
1839
1857
1901
1959
2021
2086
2148
2207
2244
2215
2059
1736
1261
677
-26
-929
-2052
-3227
-4141
-4546
-4448
-4063
-3569
-2922
-1923
-504
1104
2471
3272
3506
3444
3355
3295
3130
2735
2171
1653
1367
1321
1385
1429
1411
1360
1300
1205
1061
912
845
907
1039
1131
1136
1121
1174
1278
1329
1261
1145
1122
1220
1306
1252
1114
1095
1291
1543
1600
1400
1152
1109
1277
1428
1366
1130
914
855
906
930
859
745
674
673
680
630
527
445
430
426
323
97
-116
-167
-84
-60
-234
-500
-606
-450
-201
-95
-172
-259
-211
-72
10
-25
-98
-113
-75
-43
-38
-32
-3
40
98
209
398
608
750
795
816
904
1046
1137
1111
1024
992
1044
1103
1105
1092
1154
1295
1405
1401
1336
1328
1408
1472
1425
1297
1187
1139
1104
1054
1051
1140
1259
1277
1171
1065
1081
1181
1213
1112
958
876
892
942
978
1004
1007
956
854
794
852
994
1088
1070
1019
1057
1211
1401
1549
1631
1662
1634
1551
1473
1463
1515
1549
1503
1415
1377
1444
1568
1653
1648
1590
1581
1674
1837
1957
1951
1853
1786
1806
1824
1645
1175
513
-138
-701
-1316
-2149
-3135
-3940
-4253
-4077
-3686
-3276
-2734
-1788
-403
1056
2129
2661
2869
3039
3216
3219
2915
2410
1954
1698
1610
1560
1485
1418
1408
1437
1431
1329
1148
960
840
800
802
800
770
715
647
580
530
508
513
517
483
414
357
354
385
375
277
132
15
-46
-77
-87
-51
36
114
107
30
-28
-19
-3
-65
-192
-275
-243
-149
-97
-129
-211
-298
-370
-428
-480
-552
-672
-820
-917
-909
-833
-789
-827
-879
-853
-763
-714
-781
-915
-987
-942
-849
-810
-837
-844
-761
-621
-493
-394
-276
-108
70
186
242
311
426
525
526
435
362
401
518
588
553
484
511
660
819
849
743
633
644
755
830
776
657
606
670
749
730
624
542
542
557
496
389
355
432
516
495
402
389
531
708
731
583
440
466
625
741
718
656
701
863
1027
1119
1195
1316
1426
1397
1228
1088
1115
1221
1172
898
621
608
841
1015
910
665
615
889
1251
1388
1269
1141
1191
1329
1337
1151
883
627
329
-119
-712
-1368
-2049
-2765
-3435
-3863
-3899
-3598
-3131
-2568
-1799
-729
529
1704
2561
3041
3244
3299
3288
3211
3021
2693
2307
2014
1896
1897
1891
1830
1757
1695
1590
1406
1208
1114
1141
1160
1062
884
765
778
843
828
698
540
464
483
530
526
461
384
325
281
260
294
408
539
561
430
259
214
322
424
362
161
9
32
160
224
154
45
-7
-40
-165
-411
-668
-809
-828
-827
-880
-961
-997
-957
-881
-843
-893
-1035
-1221
-1365
-1427
-1431
-1414
-1358
-1201
-954
-732
-631
-597
-515
-400
-429
-702
-1054
-1192
-1020
-746
-635
-709
-762
-617
-317
-28
121
119
25
-85
-140
-110
-42
-16
-53
-84
-54
9
22
-31
-65
-5
112
173
119
17
-13
66
168
176
62
-99
-215
-269
-307
-360
-397
-381
-346
-387
-535
-696
-728
-592
-404
-321
-384
-492
-530
-475
-379
-279
-177
-108
-154
-355
-605
-724
-643
-490
-445
-525
-562
-403
-86
201
318
268
138
-13
-178
-340
-453
-488
-454
-396
-342
-292
-231
-182
-211
-427
-894
-1574
-2351
-3143
-3974
-4878
-5739
-6304
-6394
-6084
-5617
-5104
-4381
-3222
-1648
-2
1295
2048
2365
2472
2481
2304
1796
975
94
-531
-777
-774
-685
-501
-98
509
1092
1419
1488
1469
1446
1320
987
522
122
-113
-252
-372
-445
-400
-267
-157
-126
-141
-150
-171
-227
-273
-246
-170
-150
-237
-349
-357
-240
-106
-55
-87
-125
-123
-92
-55
-18
3
-43
-193
-408
-598
-706
-770
-862
-989
-1084
-1086
-1027
-993
-1030
-1114
-1204
-1294
-1406
-1553
-1709
-1840
-1935
-2000
-2053
-2094
-2097
-2045
-1954
-1866
-1820
-1815
-1811
-1791
-1809
-1910
-2057
-2133
-2070
-1931
-1847
-1860
-1867
-1755
-1550
-1379
-1325
-1331
-1288
-1190
-1147
-1233
-1385
-1462
-1403
-1285
-1234
-1272
-1300
-1201
-966
-700
-529
-494
-527
-534
-504
-521
-664
-913
-1138
-1220
-1172
-1117
-1138
-1174
-1091
-865
-647
-621
-796
-987
-1008
-860
-706
-679
-739
-741
-614
-417
-267
-212
-209
-195
-171
-181
-237
-275
-219
-64
97
168
146
121
162
235
249
183
106
104
181
276
341
383
424
460
453
363
146
-251
-835
-1535
-2260
-3019
-3934
-5044
-6137
-6821
-6851
-6368
-5726
-5090
-4257
-2933
-1170
570
1791
2373
2563
2634
2629
2442
2046
1568
1155
850
622
463
405
427
445
384
238
64
-94
-221
-282
-232
-94
26
33
-45
-91
-40
29
-25
-221
-416
-447
-296
-113
-51
-124
-209
-181
-34
113
145
57
-45
-53
40
143
176
158
169
265
412
527
564
525
439
334
211
58
-129
-322
-481
-576
-640
-726
-838
-908
-895
-855
-871
-940
-966
-895
-793
-778
-855
-895
-801
-624
-493
-449
-424
-334
-180
-23
106
235
392
560
710
832
929
980
960
898
877
947
1065
1125
1075
973
924
964
1030
1048
1009
963
950
962
952
882
769
674
659
744
870
936
898
832
856
993
1144
1192
1126
1037
1018
1072
1133
1150
1125
1088
1064
1062
1082
1116
1153
1181
1211
1271
1395
1591
1819
1994
2042
1965
1855
1814
1864
1932
1928
1840
1744
1724
1802
1935
2050
2102
2084
2017
1938
1875
1837
1829
1873
1998
2176
2315
2344
2302
2283
2272
2073
1499
612
-311
-1103
-1928
-3035
-4316
-5241
-5333
-4667
-3762
-2977
-2126
-784
1092
2989
4303
4879
5009
5008
4905
4549
3917
3190
2573
2140
1879
1790
1880
2066
2195
2165
2024
1890
1801
1673
1428
1105
830
690
662
661
623
549
468
399
350
319
279
203
81
-55
-160
-214
-242
-282
-347
-417
-460
-463
-457
-481
-560
-669
-755
-776
-749
-742
-814
-963
-1132
-1272
-1378
-1476
-1585
-1702
-1816
-1923
-2020
-2087
-2109
-2091
-2063
-2046
-2032
-1994
-1930
-1877
-1883
-1949
-2020
-2031
-1964
-1872
-1819
-1825
-1844
-1807
-1686
-1515
-1356
-1250
-1174
-1079
-937
-772
-649
-616
-655
-687
-654
-588
-582
-664
-744
-691
-496
-298
-220
-232
-209
-110
-35
-85
-204
-246
-162
-54
-34
-75
-61
46
170
224
200
127
11
-142
-280
-335
-309
-275
-276
-237
-59
215
407
402
277
209
267
356
362
289
247
338
567
892
1259
1588
1792
1832
1785
1775
1824
1822
1658
1376
1135
1028
1006
985
983
1078
1255
1398
1423
1376
1364
1403
1413
1329
1190
1086
1036
1006
962
862
630
183
-477
-1270
-2140
-3085
-4066
-4905
-5339
-5248
-4747
-4030
-3156
-2028
-611
889
2138
2897
3173
3151
3013
2837
2594
2241
1803
1394
1160
1140
1252
1345
1335
1251
1161
1090
1008
905
836
870
1006
1153
1222
1232
1285
1447
1661
1791
1772
1681
1656
1742
1848
1859
1769
1688
1722
1859
1968
1942
1811
1720
1766
1888
1926
1808
1661
1671
1862
2050
2059
1928
1877
2033
2266
2334
2147
1849
1648
1595
1593
1546
1460
1404
1417
1491
1602
1744
1901
2038
2105
2097
2056
2033
2054
2110
2162
2194
2214
2252
2342
2499
2702
2879
2946
2894
2819
2848
3020
3231
3324
3256
3141
3120
3211
3299
3269
3146
3071
3143
3303
3406
3384
3311
3301
3362
3402
3357
3274
3235
3245
3233
3176
3159
3269
3441
3505
3375
3149
2979
2896
2793
2601
2367
2188
2071
1953
1831
1791
1879
1999
2008
1868
1689
1570
1518
1488
1469
1478
1491
1450
1369
1361
1527
1791
1930
1804
1530
1366
1448
1645
1726
1627
1520
1582
1786
1929
1872
1699
1585
1606
1692
1773
1865
1992
2099
2103
2037
2008
2022
1884
1386
546
-395
-1213
-1859
-2398
-2798
-2928
-2700
-2153
-1357
-319
933
2229
3281
3902
4142
4207
4231
4174
3925
3461
2914
2484
2295
2337
2491
2621
2658
2619
2539
2412
2228
2011
1827
1713
1637
1558
1492
1485
1530
1526
1402
1220
1124
1161
1200
1099
898
794
896
1072
1094
934
807
905
1145
1273
1172
998
963
1066
1121
997
774
614
568
572
575
583
586
507
323
131
59
76
8
-252
-596
-815
-839
-792
-807
-858
-847
-762
-709
-764
-874
-929
-910
-905
-970
-1059
-1087
-1032
-929
-803
-648
-459
-276
-155
-84
2
132
246
277
251
264
356
471
520
503
491
517
548
551
546
562
558
458
270
120
136
282
401
391
320
287
289
247
161
132
197
228
87
-159
-263
-94
174
267
138
7
78
296
442
404
267
181
182
198
190
185
216
276
348
419
478
511
524
562
657
777
858
875
873
883
889
876
874
905
938
904
794
689
671
730
788
815
860
944
1030
1079
1128
1223
1268
1056
497
-227
-842
-1337
-2004
-3050
-4197
-4869
-4780
-4233
-3731
-3359
-2714
-1457
205
1670
2540
2926
3168
3422
3577
3484
3168
2770
2396
2089
1881
1780
1746
1715
1679
1668
1675
1635
1512
1360
1274
1279
1280
1182
1004
845
782
797
814
783
723
688
704
746
766
734
654
553
449
350
251
154
78
31
-7
-48
-66
-23
76
150
119
1
-101
-126
-135
-231
-423
-617
-736
-794
-844
-894
-903
-876
-885
-990
-1164
-1328
-1434
-1490
-1521
-1533
-1536
-1555
-1602
-1656
-1694
-1730
-1777
-1812
-1806
-1770
-1760
-1784
-1756
-1602
-1370
-1201
-1166
-1190
-1154
-1035
-911
-833
-756
-625
-477
-398
-396
-369
-250
-111
-90
-208
-327
-302
-144
2
28
-34
-81
-65
-31
-40
-80
-108
-104
-98
-124
-173
-221
-266
-330
-417
-487
-504
-476
-455
-471
-482
-429
-315
-222
-221
-288
-333
-310
-259
-254
-314
-379
-370
-264
-122
-33
-33
-67
-32
109
266
303
189
44
29
158
279
238
31
-198
-318
-321
-305
-340
-412
-445
-397
-313
-254
-237
-240
-288
-489
-940
-1619
-2404
-3217
-4126
-5196
-6284
-7038
-7201
-6843
-6258
-5608
-4757
-3499
-1903
-358
752
