728
731
729
752
784
784
734
666
619
603
590
564
538
534
550
559
544
516
496
488
485
484
492
505
502
469
424
399
405
417
408
376
336
301
270
245
240
256
277
278
257
237
228
220
199
177
180
212
245
246
219
201
223
276
320
330
308
275
246
221
195
174
181
225
285
318
303
264
246
267
302
311
278
214
125
1
-170
-393
-664
-964
-1242
-1438
-1540
-1602
-1694
-1798
-1804
-1612
-1249
-862
-583
-415
-252
-5
306
583
742
785
772
757
750
734
699
664
652
662
673
676
690
735
795
832
825
785
735
689
646
612
606
632
679
731
782
828
854
837
784
728
692
660
594
493
408
384
407
416
386
366
419
535
620
603
517
465
501
569
581
531
495
532
603
622
570
528
576
685
753
726
670
677
753
817
809
760
743
771
793
771
733
721
733
736
717
705
716
723
683
612
570
583
610
590
524
463
434
409
350
278
243
257
265
207
99
14
1
21
11
-37
-68
-50
-16
-25
-65
-76
-27
33
38
1
-9
36
84
79
45
52
100
113
47
-43
-58
17
100
123
108
120
185
276
349
371
311
169
16
-35
56
182
191
67
-48
-19
126
233
212
122
73
93
123
116
110
163
270
364
379
322
249
202
180
153
98
22
-56
-114
-135
-120
-87
-60
-60
-81
-102
-105
-100
-112
-148
-189
-207
-195
-172
-159
-161
-163
-167
-184
-217
-230
-192
-109
-41
-33
-56
-38
37
100
86
23
-7
29
69
50
-2
-15
16
-12
-204
-561
-982
-1352
-1613
-1771
-1877
-1999
-2146
-2234
-2132
-1799
-1355
-986
-762
-572
-274
136
514
728
783
790
827
880
890
847
784
732
689
653
651
714
832
949
1009
1004
971
927
862
780
720
724
778
820
820
810
843
910
946
918
872
871
915
945
924
891
903
959
1005
1003
984
996
1030
1029
973
918
926
984
1015
979
920
917
989
1078
1131
1149
1169
1203
1231
1242
1249
1275
1314
1345
1361
1370
1373
1359
1329
1311
1329
1371
1401
1391
1353
1316
1301
1303
1308
1310
1310
1300
1272
1229
1192
1181
1197
1212
1204
1175
1147
1132
1114
1077
1030
1001
1004
1010
984
928
876
858
858
845
814
787
772
756
721
678
655
666
694
712
712
698
668
622
569
530
514
513
512
504
500
503
507
509
523
557
597
608
574
523
503
537
600
649
661
648
629
613
604
606
614
617
606
599
625
689
760
801
808
812
840
878
883
835
756
684
639
611
579
536
488
443
404
366
327
289
262
256
265
281
296
310
317
311
286
258
253
283
320
321
273
219
215
276
357
402
394
366
370
414
452
432
367
322
355
444
507
492
438
424
461
454
285
-66
-497
-862
-1088
-1214
-1339
-1521
-1721
-1814
-1701
-1398
-1040
-757
-559
-342
-19
380
726
922
974
964
959
964
953
917
866
812
768
749
770
828
896
941
950
936
910
870
808
742
715
763
876
991
1040
1008
943
914
949
1020
1078
1101
1109
1137
1197
1268
1322
1341
1332
1315
1308
1312
1316
1318
1328
1366
1434
1509
1561
1577
1577
1586
1613
1643
1664
1679
1703
1737
1772
1802
1833
1872
1912
1937
1941
1938
1946
1963
1969
1958
1948
1967
2014
2054
2056
2028
2004
2000
2005
1995
1969
1942
1917
1882
1831
1783
1761
1751
1725
1671
1614
1587
1586
1577
1537
1489
1471
1489
1508
1485
1419
1349
1310
1299
1295
1286
1283
1293
1298
1275
1228
1192
1195
1222
1232
1205
1167
1153
1172
1201
1224
1250
1281
1295
1271
1223
1190
1192
1203
1197
1186
1203
1256
1311
1333
1325
1314
1307
1295
1275
1263
1263
1178
1197
1140
1139
1213
1307
1345
1313
1278
1299
1364
1404
1381
1321
1274
1255
1238
1193
1119
1041
983
961
970
986
974
916
845
814
843
891
898
851
798
782
802
819
812
794
786
788
790
793
799
802
785
756
745
773
826
865
857
804
740
711
726
758
771
755
743
765
808
807
694
449
117
-218
-473
-630
-757
-954
-1246
-1515
-1580
-1369
-1002
-683
-502
-361
-110
294
744
1096
1282
1330
1307
1264
1225
1194
1164
1119
1052
982
930
914
936
989
1053
1109
1136
1127
1084
1021
969
962
1021
1121
1203
1220
1175
1127
1132
1194
1263
1296
1298
1299
1312
1313
1283
1240
1220
1229
1236
1222
1207
1225
1274
1316
1326
1327
1353
1400
1430
1421
1400
1408
1451
1489
1497
1488
1489
1504
1512
1503
1495
1507
1534
1552
1551
1547
1563
1594
1616
1614
1599
1590
1596
1605
1599
1576
1546
1521
1501
1482
1457
1428
1392
1347
1297
1249
1206
1166
1124
1086
1061
1049
1040
1017
977
932
892
863
847
838
824
793
745
700
685
703
729
733
702
653
612
596
602
612
614
613
617
624
617
586
551
540
555
558
519
462
447
509
608
671
673
656
675
732
776
766
717
677
677
706
745
786
829
867
886
887
891
915
950
967
953
918
886
868
862
853
826
773
700
633
589
567
547
519
499
506
535
556
546
511
476
461
464
474
474
455
418
384
378
407
443
455
437
412
407
430
460
477
482
488
503
511
503
483
468
471
484
496
507
530
550
505
319
-21
-427
-761
-952
-1052
-1182
339
354
397
472
563
632
642
605
585
632
720
773
754
702
683
707
728
721
722
756
792
767
679
598
587
622
617
532
415
344
350
397
442
468
473
451
404
357
334
340
352
343
321
311
323
346
359
368
397
462
580
774
1066
1435
1788
2019
2116
2188
2356
2599
2740
2597
2172
1676
1323
1128
904
473
-122
-646
-881
-822
-653
-554
-544
-509
-350
-94
141
259
259
195
112
22
-74
-148
-159
-98
-7
70
133
220
347
462
489
412
317
318
434
556
550
399
235
208
337
498
552
482
390
367
399
394
306
192
145
194
266
276
214
147
142
205
285
317
269
154
29
-39
-18
51
82
25
-92
-220
-354
-528
-740
-901
-912
-775
-578
-405
-242
-28
248
508
660
669
565
397
201
14
-133
-211
-214
-137
7
175
298
357
411
519
658
723
645
485
373
353
348
293
241
292
441
570
573
493
461
538
652
703
688
670
687
720
755
828
962
1124
1239
1272
1253
1228
1205
1183
1171
1179
1175
1108
991
898
874
868
781
588
377
240
163
60
-97
-226
-227
-92
77
187
239
314
453
607
701
726
744
813
904
936
874
779
749
793
827
781
684
627
652
702
698
632
567
565
622
686
718
714
699
684
667
645
631
644
685
715
688
601
507
482
545
634
676
658
633
657
726
788
806
789
772
773
785
786
767
737
718
718
718
703
684
701
793
963
1197
1491
1852
2239
2561
2738
2787
2814
2890
2960
2878
2575
2142
1740
1446
1204
919
583
289
122
83
101
114
113
124
161
209
231
197
99
-38
-176
-292
-380
-442
-468
-442
-366
-267
-193
-167
-173
-178
-166
-159
-179
-220
-253
-261
-266
-299
-354
-393
-378
-328
-299
-326
-378
-393
-352
-307
-322
-405
-501
-553
-553
-540
-549
-577
-598
-584
-537
-487
-464
-461
-427
-311
-128
37
121
156
239
405
561
569
389
117
-123
-303
-484
-702
-914
-1055
-1112
-1120
-1082
-962
-761
-576
-519
-587
-638
-533
-298
-101
-67
-155
-216
-157
-15
113
183
215
238
254
267
293
339
372
370
353
369
422
455
423
362
351
415
496
522
492
468
496
564
617
624
603
593
618
662
695
695
669
643
638
650
664
676
672
641
575
505
480
510
542
525
485
489
567
674
752
808
875
929
890
732
551
475
532
634
691
708
752
854
962
998
924
766
582
430
333
267
199
130
107
183
340
509
637
738
851
976
1068
1096
1090
1104
1155
1206
1207
1148
1070
1046
1119
1277
1458
1598
1665
1688
1727
1831
1993
2146
2200
2095
1843
1536
1283
1129
1016
845
592
346
226
272
411
555
685
856
1118
1451
1799
2108
2342
2487
2557
2604
2670
2735
2704
2499
2138
1741
1423
1194
967
665
310
22
-91
-32
87
148
121
76
94
175
248
259
225
199
188
149
57
-35
-41
62
182
200
89
-52
-104
-51
10
-24
-150
-267
-284
-211
-134
-125
-182
-260
-329
-397
-475
-563
-648
-717
-750
-731
-672
-626
-621
-611
-513
-317
-160
-198
-411
-602
-626
-580
-688
-1001
-1287
-1296
-1067
-905
-1020
-1292
-1428
-1310
-1093
-991
-1033
-1079
-1014
-854
-682
-537
-409
-299
-241
-256
-320
-382
-405
-387
-364
-368
-392
-382
-292
-138
-4
40
17
9
52
87
57
4
48
230
442
528
452
340
339
454
557
540
417
298
271
340
450
549
608
615
580
537
533
584
652
668
605
513
477
530
616
653
626
607
650
705
667
505
325
263
332
412
392
295
236
266
320
313
249
213
253
310
298
208
123
109
146
159
114
51
17
10
0
-18
-17
27
96
149
169
173
187
222
275
330
360
348
316
310
362
444
502
519
535
590
665
695
648
571
534
558
599
602
569
539
534
533
509
471
454
467
466
405
296
210
199
230
230
176
123
128
177
202
178
172
281
542
899
1262
1556
1759
1900
2034
2209
2388
2451
2298
1950
1541
1200
943
697
417
131
-102
-260
-357
-399
-376
-301
-232
-215
-236
-238
-194
-139
-128
-174
-240
-287
-309
-326
-354
-385
-409
-441
-515
-640
-780
-878
-897
-860
-822
-821
-837
-820
-746
-643
-564
-539
-554
-576
-587
-593
-605
-618
-624
-631
-651
-683
-706
-697
-660
-619
-591
-581
-579
-576
-572
-579
-609
-669
-745
-811
-849
-867
-878
-881
-863
-825
-793
-797
-832
-880
-942
-1038
-1168
-1290
-1346
-1323
-1256
-1179
-1100
-997
-859
-696
-534
-398
-306
-258
-240
-227
-204
-175
-147
-120
-90
-60
-39
-28
-20
-9
3
11
19
33
58
81
87
74
59
65
102
154
190
189
165
153
176
221
255
264
258
257
256
234
185
136
119
139
166
161
115
53
0
-41
-80
-117
-146
-165
-191
-229
-260
-256
-218
-174
-154
-156
-159
-162
-185
-237
-296
-330
-336
-344
-373
-403
-409
-391
-383
-405
-432
-428
-394
-368
-375
-388
-359
-274
-173
-101
-59
-13
56
128
166
165
145
130
125
126
133
145
151
147
146
170
220
264
269
240
219
230
255
259
227
186
166
168
176
174
165
156
145
129
117
130
174
239
324
464
705
1049
1424
1726
1898
1984
2068
2177
2236
2140
1859
1480
1125
846
606
344
55
-213
-400
-492
-516
-508
-494
-478
-455
-421
-382
-349
-327
-317
-325
-361
-428
-485
-485
-414
-319
-264
-273
-314
-344
-351
-360
-391
-441
-484
-501
-492
-469
-449
-436
-425
-409
-388
-368
-355
-358
-392
-457
-523
-547
-509
-443
-407
-414
-422
-386
-314
-265
-275
-325
-376
-415
-472
-556
-626
-629
-568
-504
-491
-506
-476
-373
-267
-258
-360
-474
-495
-435
-398
-456
-557
-584
-491
-355
-280
-288
-311
-283
-213
-152
-132
-133
-130
-121
-116
-106
-75
-32
-3
1
13
59
128
182
204
216
244
281
306
317
327
332
304
231
132
37
-48
-119
-146
-94
25
152
246
339
486
688
864
915
-41
-125
-178
-168
-86
34
139
197
227
264
304
275
96
-228
-585
-826
-872
-752
-557
-349
-130
124
414
696
900
969
894
710
485
285
149
75
32
-15
-69
-109
-117
-100
-82
-76
-77
-79
-89
-105
-101
-48
35
86
46
-73
-201
-276
-288
-260
-203
-127
-63
-57
-125
-214
-246
-194
-91
16
131
285
494
730
938
1075
1119
1067
958
855
807
809
807
766
711
689
709
744
777
808
840
850
813
751
711
712
718
686
625
576
553
536
508
501
567
710
864
949
927
826
726
702
775
888
953
934
902
979
1213
1505
1691
1693
1587
1515
1541
1603
1607
1528
1426
1367
1349
1325
1265
1193
1149
1140
1147
1167
1219
1315
1434
1538
1620
1703
1777
1776
1632
1373
1128
1012
1025
1077
1104
1130
1215
1364
1520
1640
1721
1782
1844
1939
2114
2381
2672
2876
2966
3037
3196
3429
3587
3539
3293
2975
2702
2502
2331
2121
1840
1514
1228
1077
1088
1174
1201
1114
995
963
1051
1182
1258
1254
1216
1191
1178
1169
1188
1267
1393
1493
1506
1441
1372
1345
1326
1255
1130
1021
998
1056
1133
1176
1172
1134
1082
1041
1031
1042
1027
956
870
859
950
1056
1066
971
877
878
942
966
901
800
738
720
700
660
633
641
660
647
606
582
599
626
626
596
560
534
507
474
443
420
392
349
309
299
317
326
306
292
322
376
391
334
255
235
284
343
361
352
364
409
451
464
465
487
526
550
546
538
552
581
594
577
545
515
486
446
392
345
323
320
296
218
104
25
43
146
237
240
183
165
247
385
477
474
428
418
469
523
508
409
281
203
206
258
297
300
307
365
451
454
295
39
-132
-94
90
239
255
221
286
468
625
612
459
343
389
545
671
706
727
830
1003
1125
1104
954
773
641
593
639
768
950
1131
1270
1338
1311
1166
886
492
66
-264
-379
-236
103
536
999
1493
2022
2515
2822
2806
2438
1826
1162
620
266
36
-190
-442
-596
-481
-78
421
753
826
757
712
736
742
650
485
330
243
229
277
376
493
569
573
525
467
404
287
92
-121
-239
-203
-85
-15
-63
-177
-264
-292
-307
-347
-397
-411
-371
-305
-239
-171
-85
12
90
120
101
50
-18
-101
-200
-299
-368
-395
-396
-401
-415
-418
-394
-367
-371
-411
-458
-490
-524
-588
-675
-733
-729
-703
-721
-798
-870
-870
-818
-788
-821
-865
-854
-795
-760
-790
-830
-804
-714
-641
-644
-682
-669
-588
-508
-496
-541
-568
-540
-489
-460
-463
-475
-487
-510
-542
-558
-541
-510
-505
-535
-567
-548
-465
-347
-240
-167
-135
-135
-165
-220
-293
-374
-463
-565
-677
-763
-772
-692
-580
-519
-531
-546
-490
-385
-327
-370
-441
-421
-293
-164
-134
-170
-154
-40
87
112
28
-68
-95
-65
-36
-39
-61
-74
-74
-76
-95
-133
-169
-170
-118
-51
-49
-143
-261
-286
-188
-54
-7
-63
-123
-88
31
133
139
63
-7
10
140
350
570
730
822
917
1109
1409
1702
1829
1752
1579
1450
1380
1265
1011
648
298
43
-141
-309
-451
-512
-469
-386
-348
-355
-322
-184
1
89
7
-158
-245
-189
-79
-31
-69
-113
-104
-61
-33
-23
-15
-15
-44
-80
-61
32
118
104
3
-77
-66
-25
-73
-241
-427
-511
-481
-444
-499
-645
-779
-800
-684
-512
-405
-432
-530
-564
-457
-282
-210
-317
-513
-649
-681
-699
-784
-877
-848
-673
-479
-380
-360
-327
-286
-332
-459
-492
-326
-170
-375
-967
-1464
-1343
-688
-187
-392
-1077
-1476
-1155
-474
-130
-363
-764
-836
-547
-246
-179
-272
-359
-442
-588
-714
-677
-524
-506
-747
-1000
-903
-455
-79
-139
-504
-716
-541
-221
-142
-373
-643
-714
-637
-588
-586
-505
-297
-109
-101
-251
-391
-408
-376
-420
-569
-722
-744
-603
-381
-196
-99
-30
122
373
583
611
486
393
472
646
732
687
666
787
952
972
830
723
788
916
903
755
697
856
1064
1068
880
773
920
1167
1228
1065
933
1038
1296
1466
1453
1386
1389
1411
1332
1168
1055
1082
1207
1360
1537
1753
1959
2084
2172
2357
2681
2976
3025
2814
2565
2479
2506
2416
2078
1602
1203
966
806
628
450
360
396
496
571
582
550
523
529
546
505
345
93
-141
-249
-228
-168
-146
-158
-156
-133
-117
-125
-151
-202
-328
-552
-817
-1032
-1158
-1211
-1184
-1029
-743
-442
-248
-149
-16
194
340
260
-13
-267
-351
-321
-315
-357
-370
-340
-350
-426
-461
-370
-247
-285
-505
-689
-641
-444
-343
-425
-535
-518
-454
-541
-776
-926
-835
-656
-688
-991
-1274
-1219
-854
-525
-502
-706
-825
-661
-336
-122
-158
-338
-454
-405
-250
-101
-32
-46
-99
-118
-29
172
368
409
271
111
126
339
564
597
422
206
109
133
164
140
129
222
406
564
625
655
784
1025
1199
1109
742
316
88
134
318
433
369
206
132
299
686
1078
1225
1058
773
657
810
1052
1135
1012
856
875
1100
1379
1537
1523
1415
1340
1357
1409
1392
1267
1119
1068
1125
1199
1211
1201
1254
1366
1435
1395
1314
1316
1422
1514
1472
1319
1193
1180
1216
1168
1004
829
786
927
1189
1476
1722
1888
1955
1957
1989
2118
2287
2332
2142
1808
1539
1446
1426
1296
1002
657
391
208
34
-158
-302
-326
-244
-138
-41
92
302
548
730
776
702
582
469
361
248
146
75
17
-58
-146
-190
-162
-113
-123
-197
-236
-167
-54
-52
-209
-376
-349
-111
129
149
-61
-293
-352
-252
-159
-189
-297
-367
-344
-270
-214
-195
-197
-208
-228
-240
-231
-222
-250
-312
-357
-345
-316
-354
-472
-581
-583
-494
-425
-471
-605
-724
-752
-703
-649
-649
-704
-764
-772
-711
-626
-576
-581
-593
-552
-463
-404
-428
-501
-536
-498
-419
-369
-378
-418
-446
-435
-392
-353
-361
-412
-442
-405
-338
-338
-450
-580
-594
-477
-367
-393
-522
-600
-539
-416
-368
-441
-562
-643
-664
-657
-647
-638
-630
-622
-597
-545
-491
-481
-512
-527
-486
-428
-415
-441
-434
-353
-249
-204
-220
-229
-199
-183
-247
-364
-443
-435
-397
-410
-482
-545
-541
-493
-473
-512
-574
-603
-590
-575
-600
-652
-682
-677
-671
-710
-782
-818
-788
-734
-727
-774
-815
-802
-757
-739
-746
-712
-595
-433
-305
-231
-172
-91
7
104
205
306
350
254
17
-258
-473
-651
-912
-1317
-1776
-2117
-2248
-2225
-2169
-2148
-2146
-2114
-2031
-1917
-1825
-1801
-1864
-1991
-2121
-2197
-2193
-2138
-2076
-2036
-2019
-2008
-1996
-1987
-1994
-2028
-2079
-2122
-2129
-2097
-2053
-2055
-2150
-2320
-2474
-2526
-2487
-2464
-2558
-2775
-3014
-3169
-3212
-3200
-3222
-3341
-3541
-3735
-3830
-3810
-3766
-3775
-3802
-3729
-3500
-3221
-3060
-3052
-3075
-3008
-2915
-2983
-3294
-3702
-3953
-3944
-3789
-3675
-3657
-3631
-3484
-3235
-2989
-2829
-2759
-2772
-2873
-3059
-3275
-3425
-3467
-3455
-3465
-3509
-3536
-3519
-3493
-3502
-3546
-3588
-3606
-3633
-3704
-3799
-3869
-3886
-3874
-3864
-3861
-3840
-3780
-3712
-3674
-3660
-3602
-3439
-3186
-2931
-2745
-2615
-2503
-2434
-2509
-2791
-3220
-3672
-4092
-4532
-5007
-5387
-5495
-5310
-5012
-4798
-4685
-4541
-4291
-4039
-3937
-3986
-4039
-3988
-3874
-3798
-3760
-3653
-3405
-3092
-2868
-2821
-2908
-3020
-3085
-3095
-3089
-3103
-3136
-3147
-3095
-2979
-2852
-2770
-2727
-2671
-2580
-2503
-2508
-2592
-2669
-2661
-2576
-2485
-2428
-2388
-2337
-2277
-2226
-2205
-2213
-2260
-2359
-2475
-2537
-2485
-2322
-2075
-1776
-1470
-1223
-1095
-1057
-992
-816
-590
-473
-554
-754
-910
-940
-915
-972
-1167
-1444
-1704
-1880
-1980
-2045
-2104
-2135
-2099
-1988
-1865
-1798
-1803
-1816
-1776
-1717
-1736
-1872
-2034
-2082
-1963
-1771
-1660
-1696
-1824
-1944
-2001
-2018
-2056
-2143
-2258
-2356
-2412
-2449
-2509
-2600
-2685
-2727
-2727
-2730
-2758
-2776
-2731
-2625
-2523
-2481
-2489
-2499
-2491
-2485
-2503
-2546
-2604
-2667
-2726
-2763
-2770
-2782
-2832
-2896
-2905
-2830
-2727
-2671
-2656
-2611
-2519
-2470
-2561
-2764
-2945
-3024
-3055
-3142
-3287
-3383
-3341
-3181
-3003
-2876
-2798
-2737
-2677
-2617
-2559
-2501
-2455
-2440
-2451
-2451
-2406
-2315
-2225
-2195
-2235
-2288
-2271
-2164
-2031
-1960
-1954
-1954
-1910
-1846
-1817
-1857
-1958
-2118
-2326
-2535
-2661
-2670
-2631
-2654
-2741
-2777
-2667
-2449
-2255
-2173
-2181
-2215
-2259
-2329
-2421
-2490
-2508
-2500
-2496
-2478
-2389
-2203
-1972
-1797
-1745
-1803
-1895
-1960
-1996
-2039
-2108
-2171
-2154
-2028
-1839
-1679
-1620
-1653
-1712
-1750
-1777
-1848
-1975
-2089
-2100
-1991
-1830
-1701
-1615
-1526
-1426
-1360
-1366
-1394
-1350
-1214
-1069
-1005
-1013
-1004
-926
-829
-807
-886
-990
-1016
-915
-733
-554
-436
-365
-274
-119
48
99
-58
-371
-684
-889
-1030
-1235
-1555
-1896
-2133
-2234
-2273
-2307
-2308
-2236
-2111
-2000
-1921
-1817
-1657
-1508
-1478
-1597
-1779
-1939
-2092
-2312
-2599
-2850
-2964
-2954
-2920
-2926
-2947
-2919
-2841
-2783
-2798
-2872
-2941
-2980
-3021
-3095
-3166
-3148
-3002
-2779
-2577
-2455
-2399
-2366
-2337
-2325
-2342
-2385
-2448
-2525
-2586
-2590
-2520
-2432
-2408
-2477
-2583
-2646
-2641
-2614
-2624
-2676
-2719
-2717
-2686
-2683
-2744
-2851
-2947
-2983
-2959
-2922
-2921
-2948
-2950
-2892
-2810
-2776
-2816
-2875
-2879
-2813
-2743
-2730
-2760
-2759
-2687
-2583
-2520
-2530
-2581
-2624
-2638
-2640
-2643
-2640
-2615
-2563
-2506
-2479
-2493
-2530
-2564
-2590
-2630
-2695
-2758
-2780
-2749
-2694
-2649
-2608
-2545
-2452
-2366
-2323
-2326
-2342
-2352
-2359
-2383
-2431
-2487
-2514
-2492
-2448
-2445
-2519
-2626
-2670
-2609
-2516
-2497
-2568
-2630
-2583
-2446
-2318
-2253
-2203
-2107
-1992
-1945
-1989
-2050
-2050
-2002
-1994
-2064
-2157
-2190
-2140
-2048
-1954
-1872
-1817
-1814
-1858
-1888
-1833
-1707
-1599
-1578
-1615
-1614
-1523
-1396
-1327
-1357
-1452
-1557
-1636
-1673
-1656
-1576
-1438
-1246
-992
-666
-316
-30
129
191
242
326
375
289
59
-209
-389
-474
-578
-803
-1124
-1420
-1595
-1659
-1688
-1722
-1733
-1688
-1602
-1516
-1430
-1328
-1227
-1199
-1300
-1487
-1643
-1686
-1649
-1623
-1645
-1653
-1575
-1416
-1263
-1195
-1219
-1280
-1328
-1350
-1368
-1402
-1452
-1495
-1507
-1486
-1453
-1443
-1468
-1502
-1517
-1519
-1542
-1609
-1684
-1719
-1708
-1693
-1705
-1727
-1731
-1740
-1817
-1976
-2139
-2206
-2166
-2116
-2144
-2227
-2267
-2220
-2147
-2141
-2219
-2319
-2387
-2429
-2473
-2514
-2514
-2453
-2352
-2248
-2162
-2100
-2060
-2032
-2006
-1998
-2031
-2094
-2137
-2119
-2074
-2070
-2112
-2109
-1990
-1815
-1721
-1764
-1842
-1824
-1705
-1598
-1586
-1638
-1683
-1704
-1729
-1756
-1744
-1689
-1655
-1716
-1837
-1898
-1827
-1675
-1564
-1547
-1556
-1484
-1317
-1152
-1094
-1140
-1200
-1200
-1159
-1142
-1168
-1197
-1208
-1237
-1322
-1418
-1421
-1294
-1133
-1091
-1214
-1373
-1407
-1276
-1098
-1011
-1045
-1123
-1165
-1158
-1109
-1028
-941
-892
-918
-956
-889
-674
-411
-255
-246
-284
-284
-284
-373
-540
-652
-624
-530
-525
-656
-797
-775
-568
-331
-248
-359
-544
-680
-757
-841
-964
-1036
-930
-599
-146
257
522
705
913
1173
1395
1468
1391
1262
1166
1071
898
651
450
382
379
277
27
-212
-230
0
291
433
390
325
385
560
710
727
633
534
493
500
522
584
729
933
1074
1026
800
569
498
592
711
739
706
732
886
1105
1261
1275
1182
1081
1036
1045
1063
1050
1002
934
878
868
919
1007
1057
1006
871
745
696
684
621
495
391
385
424
387
250
133
148
254
296
195
20
-112
-176
-250
-387
-555
-687
-766
-823
-880
-938
-1000
-1068
-1135
-1183
-1218
-1280
-1393
-1522
-1615
-1670
-1740
-1871
-2040
-2177
-2240
-2249
-2242
-2239
-2231
-2210
-2186
-2183
-2214
-2276
-2344
-2392
-2408
-2401
-2377
-2332
-2259
-2165
-2061
-1940
-1806
-1695
-1670
-1749
-1866
-1911
-1840
-1731
-1698
-1763
-1845
-1855
-1787
-1701
-1627
-1548
-1449
-1354
-1296
-1253
-1163
-1002
-828
-736
-748
-792
-782
-709
-629
-591
-581
-571
-566
-598
-656
-678
-627
-550
-544
-633
-742
-764
-674
-550
-485
-521
-635
-764
-840
-835
-798
-815
-902
-971
-930
-804
-723
-764
-855
-880
-811
-705
-600
-457
-254
-50
92
215
424
722
969
1015
870
678
552
459
293
2
-367
-714
-954
-1052
-1031
-958
-888
-817
-698
-507
-290
-117
-13
52
99
100
10
-160
-314
-343
-234
-104
-86
-192
-291
-244
-65
110
176
160
147
171
194
191
193
227
270
290
293
311
354
409
480
576
663
670
574
469
457
532
590
576
556
613
713
740
667
595
621
697
694
591
505
533
630
676
622
548
536
563
548
462
369
334
352
368
374
411
506
621
696
724
761
854
955
964
836
636
475
402
375
330
292
339
498
692
800
807
813
907
1048
1082
917
652
487
512
617
646
583
556
657
810
866
782
681
691
781
798
653
432
303
322
366
272
24
-217
-280
-152
19
90
56
39
113
221
240
127
-22
-74
-12
51
-4
-163
-272
-202
-7
115
32
-172
-283
-189
1
69
-64
-267
-359
-293
-177
-127
-173
-264
-351
-406
-418
-389
-351
-338
-370
-418
-448
-443
-409
-368
-323
-232
-41
253
556
719
690
581
569
707
853
820
574
271
81
15
-63
-262
-549
-806
-987
-1148
-1348
-1533
-1581
-1450
-1261
-1182
-1243
-1304
-1217
-996
-816
-839
-1044
-1269
-1371
-1338
-1258
-1207
-1188
-1175
-1157
-1152
-1162
-1162
-1133
-1088
-1062
-1074
-1107
-1137
-1164
-1202
-1246
-1270
-1267
-1272
-1321
-1390
-1409
-1345
-1245
-1181
-1171
-1154
-1079
-981
-951
-1036
-1186
-1314
-1387
-1451
-1559
-1692
-1787
-1820
-1823
-1841
-1873
-1880
-1836
-1760
-1688
-1646
-1652
-1711
-1778
-1786
-1714
-1623
-1608
-1679
-1749
-1738
-1661
-1576
-1512
-1465
-1455
-1521
-1639
-1698
-1607
-1429
-1330
-1389
-1514
-1548
-1447
-1299
-1205
-1185
-1205
-1247
-1299
-1326
-1290
-1212
-1164
-1191
-1255
-1274
-1216
-1139
-1116
-1154
-1190
-1165
-1091
-1031
-1031
-1060
-1060
-1007
-946
-940
-986
-1038
-1073
-1107
-1145
-1155
-1110
-1042
-1021
-1055
-1069
-996
-871
-800
-826
-871
-844
-749
-673
-654
-635
-550
-441
-406
-470
-538
-525
-490
-563
-759
-937
-946
-807
-679
-671
-733
-731
-620
-482
-423
-475
-594
-717
-820
-890
-907
-867
-796
-756
-776
-801
-734
-534
-264
-36
93
169
267
384
452
421
340
297
301
270
136
-76
-255
-335
-351
-392
-529
-752
-976
-1109
-1114
-1039
-977
-1002
-1102
-1197
-1203
-1105
-970
-907
-949
-1032
-1041
-884
-558
-156
191
387
386
228
6
-200
-376
-586
-885
-1225
-1469
-1508
-1351
-1108
-913
-870
-1034
-1395
-1848
-2216
-2366
-2346
-2346
-2493
-2657
-2563
-2076
-1384
-854
-692
-797
-925
-945
-914
-949
-1049
-1120
-1099
-1030
-972
-928
-866
-786
-739
-758
-808
-830
-827
-857
-938
-992
-922
-738
-590
-588
-664
-654
-484
-263
-152
-190
-260
-241
-139
-55
-59
-136
-202
-180
-39
163
314
304
127
-96
-236
-281
-339
-496
-705
-827
-770
-583
-380
-221
-77
87
242
338
362
372
423
495
536
521
493
503
548
588
606
646
734
826
843
769
702
754
930
1106
1160
1100
1057
1138
1324
1512
1632
1697
1743
1773
1759
1694
1610
1539
1481
1415
1348
1321
1367
1469
1561
1598
1601
1637
1738
1854
1895
1834
1745
1741
1834
1921
1905
1804
1731
1772
1885
1957
1921
1818
1738
1739
1823
1954
2112
2287
2465
2617
2717
2772
2828
2919
3019
3031
2879
2608
2369
2278
2299
2264
2049
1706
1413
1285
1261
1192
1022
846
799
876
943
906
820
831
997
1197
1258
1145
998
987
1120
1249
1234
1092
971
976
1085
1202
1277
1337
1420
1496
1515
1471
1401
1329
1245
1128
999
915
922
1017
1142
1227
1244
1217
1184
1143
1043
844
591
399
350
416
493
518
526
583
698
817
885
894
860
787
664
507
361
249
150
24
-120
-207
-175
-50
79
147
172
204
251
265
218
147
117
142
178
190
193
224
299
408
537
661
733
718
651
616
661
741
762
684
559
458
406
390
407
457
508
504
444
400
446
556
618
545
364
188
98
83
75
34
-20
-44
-27
11
52
83
102
112
129
170
237
299
329
337
358
416
489
530
532
533
567
607
603
548
493
484
498
470
377
287
286
372
450
423
293
148
51
-23
-166
-431
-762
-1039
-1160
-1123
-995
-831
-627
-363
-56
236
465
631
771
908
1030
1113
1158
1191
1245
1325
1410
1483
1523
1507
1404
1208
951
690
453
212
-75
-400
-694
-871
-909
-864
-817
-821
-870
-933
-975
-972
-933
-903
-936
-1049
-1196
-1297
-1299
-1224
-1131
-1067
-1042
-1042
-1043
-1030
-1000
-974
-973
-989
-989
-947
-885
-853
-870
-910
-937
-945
-949
-940
-891
-812
-763
-797
-885
-951
-955
-952
-1015
-1143
-1255
-1285
-1249
-1221
-1246
-1302
-1345
-1357
-1360
-1380
-1424
-1483
-1544
-1593
-1624
-1645
-1668
-1696
-1717
-1721
-1714
-1710
-1716
-1731
-1745
-1757
-1769
-1779
-1781
-1769
-1742
-1704
-1657
-1611
-1579
-1568
-1572
-1577
-1580
-1590
-1614
-1636
-1628
-1576
-1497
-1420
-1361
-1318
-1286
-1274
-1294
-1345
-1403
-1444
-1456
-1452
-1445
-1433
-1403
-1342
-1263
-1193
-1150
-1130
-1111
-1091
-1093
-1134
-1204
-1265
-1301
-1333
-1395
-1485
-1561
-1581
-1545
-1480
-1405
-1318
-1219
-1125
-1058
-1014
-974
-932
-905
-907
-920
-915
-889
-867
-865
-870
-858
-831
-813
-814
-817
-796
-758
-731
-729
-739
-745
-749
-768
-802
-836
-860
-879
-910
-941
-944
-900
-827
-780
-805
-887
-957
-949
-860
-736
-615
-470
-243
56
327
467
486
514
647
828
883
709
394
126
-3
-85
-280
-622
-982
-1208
-1281
-1296
-1326
-1332
-1247
-1090
-961
-920
-910
-841
-696
-574
-575
-702
-860
-949
-938
-864
-800
-798
-849
-902
-921
-924
-948
-976
-937
-795
-615
-507
-512
-567
-592
-590
-635
-763
-919
-1021
-1048
-1031
-1001
-958
-899
-842
-806
-804
-846
-942
-1075
-1189
-1239
-1241
-1264
-1348
-1445
-1476
-1427
-1364
-1339
-1347
-1351
-1381
-1500
-1694
-1842
-1825
-1673
-1561
-1631
-1839
-2004
-2022
-1958
-1949
-2027
-2118
-2151
-2135
-2109
-2078
-2032
-2012
-2063
-2154
-2215
-2243
-2349
-2594
-2828
-2789
-2442
-2089
-2061
-2313
-2475
-2291
-1880
-1586
-1543
-1614
-1664
-1727
-1848
-1904
-1706
-1310
-1053
-1215
-1648
-1909
-1709
-1212
-855
-918
-1260
-1495
-1376
-1027
-780
-824
-1038
-1159
-1092
-966
-929
-940
-867
-698
-584
-619
-690
-602
-351
-140
-96
-114
1
268
489
489
310
152
159
291
404
405
337
337
482
711
862
825
665
556
595
692
680
513
324
283
414
581
637
541
376
243
186
186
199
206
239
353
574
845
1051
1137
1150
1194
1297
1367
1292
1065
794
583
430
236
-79
-483
-856
-1123
-1303
-1463
-1621
-1720
-1717
-1648
-1613
-1655
-1717
-1716
-1642
-1591
-1667
-1849
-2011
-2065
-2033
-2009
-2050
-2124
-2181
-2220
-2292
-2423
-2577
-2699
-2765
-2788
-2777
-2726
-2626
-2511
-2431
-2402
-2381
-2320
-2228
-2184
-2252
-2387
-2471
-2436
-2348
-2319
-2369
-2402
-2331
-2203
-2156
-2235
-2345
-2366
-2297
-2269
-2370
-2529
-2599
-2530
-2430
-2445
-2595
-2755
-2800
-2726
-2647
-2669
-2790
-2901
-2904
-2788
-2636
-2540
-2524
-2550
-2574
-2579
-2560
-2490
-2349
-2190
-2108
-2163
-2283
-2312
-2164
-1932
-1810
-1907
-2116
-2218
-2083
-1815
-1642
-1674
-1798
-1825
-1716
-1630
-1698
-1825
-1795
-1576
-1385
-1404
-1532
-1500
-1242
-1004
-1017
-1209
-1316
-1252
-1210
-1348
-1519
-1462
-1169
-925
-961
-1174
-1309
-1263
-1144
-1080
-1074
-1077
-1090
-1120
-1100
-955
-736
-604
-658
-826
-930
-861
-666
-497
-487
-649
-838
-852
-628
-354
-308
-559
-860
-924
-736
-543
-551
-701
-784
-690
-512
-384
-348
-379
-457
-550
-569
-434
-219
-125
-265
-498
-548
-316
17
206
241
345
667
1087
1340
1325
1213
1229
1384
1472
1321
974
621
399
287
181
23
-159
-318
-453
-594
-728
-792
-750
-670
-678
-810
-938
-892
-665
-446
-433
-618
-811
-852
-766
-689
-706
-791
-875
-929
-957
-962
-967
-1004
-1058
-1073
-1026
-988
-1067
-1261
-1430
-1454
-1358
-1274
-1283
-1340
-1357
-1323
-1283
-1260
-1254
-1281
-1368
-1496
-1613
-1702
-1815
-1976
-2105
-2079
-1902
-1743
-1760
-1891
-1938
-1811
-1653
-1648
-1797
-1929
-1945
-1916
-1936
-1971
-1950
-1921
-2033
-2300
-2507
-2437
-2159
-1976
-2073
-2302
-2358
-2142
-1857
-1757
-1873
-2024
-2041
-1924
-1796
-1742
-1733
-1675
-1529
-1354
-1240
-1221
-1244
-1229
-1157
-1082
-1059
-1064
-1022
-912
-790
-713
-674
-623
-561
-557
-660
-815
-907
-879
-796
-779
-873
-990
-1007
-893
-739
-677
-757
-896
-947
-843
-657
-552
-628
-807
-915
-860
-725
-676
-775
-922
-968
-866
-706
-616
-654
-769
-851
-812
-664
-518
-490
-593
-721
-759
-700
-632
-641
-722
-795
-810
-785
-758
-744
-739
-751
-799
-883
-972
-1015
-1001
-985
-1031
-1142
-1251
-1282
-1223
-1145
-1133
-1193
-1238
-1175
-977
-705
-436
-186
83
381
639
738
631
388
120
-139
-450
-843
-1231
-1470
-1499
-1393
-1253
-1108
-966
-886
-949
-1107
-1203
-1145
-1068
-1216
-1624
-2022
-2101
-1840
-1520
-1413
-1522
-1653
-1657
-1569
-1506
-1527
-1617
-1748
-1902
-2044
-2113
-2084
-1991
-1890
-1829
-1835
-1913
-2002
-1984
-1803
-1578
-1540
-1795
-2163
-2330
-2174
-1898
-1818
-2039
-2364
-2512
-2409
-2215
-2130
-2214
-2372
-2486
-2520
-2504
-2487
-2493
-2536
-2611
-2686
-2716
-2668
-2550
-2407
-2299
-2279
-2349
-2452
-2506
-2474
-2405
-2381
-2432
-2494
-2460
-2298
-2084
-1936
-1918
-1990
-2043
-1981
-1807
-1636
-1611
-1777
-2025
-2159
-2070
-1823
-1599
-1531
-1595
-1655
-1589
-1405
-1213
-1129
-1180
-1290
-1359
-1348
-1292
-1251
-1253
-1275
-1277
-1243
-1185
-1126
-1086
-1074
-1085
-1120
-1198
-1318
-1437
-1492
-1460
-1371
-1283
-1216
-1154
-1081
-1015
-964
-923
-883
-865
-921
-1066
-1231
-1316
-1282
-1195
-1150
-1164
-1163
-1065
-877
-710
-670
-769
-919
-1021
-1041
-1016
-987
-974
-977
-993
-1006
-983
-903
-794
-729
-768
-885
-990
-1008
-961
-934
-981
-1065
-1107
-1086
-1052
-1041
-1022
-912
-677
-373
-63
248
585
909
1126
1214
1253
1332
1413
1347
1067
705
478
469
566
627
648
733
931
1142
1206
1050
721
303
-159
-643
-1107
-1497
-1766
-1893
-1871
-1717
-1492
-1287
-1161
-1090
-992
-829
-656
-570
-599
-657
-629
-472
-240
-42
57
67
34
-3
-33
-61
-87
-89
-38
57
149
190
180
162
177
215
228
192
138
120
161
224
245
195
97
1
-57
-82
-91
-92
-81
-54
-28
-15
-2
39
123
219
281
302
333
420
539
634
698
780
903
990
940
781
670
722
859
883
715
490
415
534
696
739
651
543
506
521
519
472
404
353
320
285
242
212
223
278
342
377
384
400
464
568
677
759
792
765
689
622
627
696
733
655
505
426
515
704
834
824
741
711
789
921
1026
1066
1046
981
884
794
765
816
898
933
883
797
764
823
934
1014
1015
955
892
868
879
896
903
902
897
875
831
789
776
780
760
706
668
697
766
788
722
644
668
802
936
979
987
1097
1351
1636
1798
1809
1773
1794
1876
1941
1923
1814
1646
1454
1277
1132
994
807
542
247
28
-53
-19
43
73
83
125
218
328
395
390
328
247
182
149
151
177
212
248
273
274
238
158
44
-78
-177
-224
-215
-171
-129
-116
-130
-146
-145
-140
-158
-220
-311
-402
-473
-515
-524
-502
-467
-439
-430
-424
-407
-385
-388
-433
-503
-565
-603
-628
-654
-679
-697
-721
-773
-850
-924
-973
-1007
-1058
-1134
-1211
-1259
-1272
-1258
-1222
-1156
-1079
-1023
-1003
-993
-959
-905
-872
-890
-934
-959
-945
-914
-889
-868
-831
-771
-703
-646
-608
-579
-544
-510
-492
-508
-550
-590
-600
-589
-589
-620
-660
-675
-666
-654
-652
-648
-638
-647
-697
-767
-807
-798
-788
-827
-901
-946
-937
-925
-963
-1035
-1063
-1003
-901
-831
-806
-767
-663
-521
-406
-369
-405
-479
-559
-627
-667
-685
-708
-754
-795
-777
-670
-516
-403
-391
-451
-496
-456
-350
-260
-248
-292
-313
-262
-171
-118
-139
-201
-246
-266
-289
-326
-357
-367
-383
-425
-468
-449
-334
-150
60
282
516
732
881
968
1054
1195
1351
1418
1335
1143
927
741
579
409
220
5
-234
-467
-631
-669
-589
-471
-389
-350
-301
-200
-69
30
52
9
-55
-98
-108
-97
-83
-78
-80
-84
-93
-120
-171
-232
-270
-258
-203
-149
-136
-165
-203
-218
-202
-185
-188
-222
-272
-316
-343
-356
-375
-412
-460
-500
-521
-526
-529
-535
-547
-565
-596
-636
-674
-708
-751
-821
-914
-999
-1050
-1064
-1062
-1064
-1074
-1080
-1068
-1033
-987
-956
-954
-966
-959
-915
-851
-803
-788
-785
-761
-703
-625
-555
-506
-472
-436
-397
-371
-379
-418
-454
-448
-404
-360
-350
-359
-338
-267
-180
-136
-154
-200
-228
-224
-210
-208
-209
-190
-144
-95
-62
-36
10
81
139
145
106
74
83
112
121
113
118
133
103
-19
-183
-273
-222
-90
3
7
-9
58
216
373
433
380
275
201
202
269
344
355
265
143
103
186
288
262
94
-47
6
219
389
387
313
341
459
467
250
-12
-32
219
434
346
99
93
505
1066
1362
1271
1035
939
1052
1262
1438
1512
1466
1363
1362
1596
1966
2165
1956
1427
929
731
781
782
497
-27
-492
-637
-474
-281
-323
-587
-807
-750
-462
-189
-142
-340
-625
-811
-813
-685
-580
-615
-743
-816
-775
-728
-771
-829
-749
-580
-556
-772
-1005
-1000
-875
-986
-1403
-1730
-1591
-1193
-1128
-1610
-2123
-2033
-1400
-936
-1160
-1797
-2148
-1916
-1492
-1394
-1644
-1851
-1741
-1455
-1283
-1252
-1166
-937
-753
-857
-1231
-1596
-1667
-1429
-1112
-986
-1149
-1433
-1553
-1333
-896
-553
-506
-656
-721
-552
-283
-146
-200
-280
-228
-73
21
-32
-147
-157
-2
193
258
153
22
60
303
580
660
502
288
240
398
592
645
525
348
237
212
234
266
305
357
411
444
437
397
349
313
298
282
242
187
166
216
316
384
344
207
65
1
16
40
12
-60
-127
-164
-176
-172
-157
-136
-135
-163
-198
-221
-222
-230
-262
-316
-393
-505
-633
-709
-706
-689
-763
-948
-1108
-1106
-987
-922
-980
-1032
-935
-733
-616
-672
-770
-751
-667
-700
-905
-1102
-1094
-909
-745
-707
-692
-518
-151
272
596
740
725
640
605
697
858
903
706
366
116
75
129
46
-259
-658
-976
-1159
-1265
-1330
-1330
-1262
-1204
-1271
-1473
-1659
-1659
-1452
-1177
-1000
-959
-953
-872
-685
-423
-147
41
13
-274
-662
-891
-839
-662
-640
-857
-1104
-1115
-853
-532
-356
-331
-325
-276
-267
-384
-548
-574
-409
-222
-243
-468
-615
-457
-115
45
-164
-502
-568
-278
42
59
-177
-307
-124
184
274
51
-253
-374
-310
-261
-359
-526
-579
-446
-208
-6
89
83
23
-47
-95
-112
-105
-77
-28
50
160
301
490
723
929
1001
902
726
636
720
892
988
943
849
849
981
1157
1264
1258
1194
1144
1135
1133
1098
1044
1034
1123
1295
1485
1632
1721
1771
1797
1796
1761
1704
1643
1590
1545
1497
1443
1412
1437
1503
1558
1556
1522
1533
1603
1661
1630
1527
1431
1374
1313
1214
1106
1058
1080
1098
1041
933
864
875
921
908
812
715
721
809
845
730
539
467
603
799
806
569
303
261
442
606
550
345
228
316
459
448
261
93
137
396
714
977
1187
1374
1502
1519
1487
1534
1676
1719
1458
958
522
347
309
120
-327
-841
-1161
-1230
-1179
-1130
-1087
-1019
-924
-816
-690
-545
-441
-449
-557
-674
-745
-809
-906
-987
-963
-810
-631
-525
-504
-516
-535
-577
-646
-709
-740
-762
-818
-904
-960
-939
-856
-752
-651
-568
-509
-481
-488
-524
-586
-691
-828
-944
-985
-956
-919
-937
-1010
-1085
-1124
-1139
-1160
-1191
-1223
-1258
-1295
-1309
-1271
-1213
-1217
-1322
-1452
-1502
-1458
-1413
-1443
-1502
-1500
-1427
-1375
-1399
-1430
-1370
-1236
-1140
-1150
-1195
-1146
-984
-807
-713
-703
-710
-688
-667
-688
-744
-797
-819
-826
-855
-900
-924
-899
-854
-853
-935
-1071
-1187
-1230
-1217
-1198
-1221
-1284
-1346
-1360
-1302
-1190
-1097
-1079
-1121
-1146
-1098
-1006
-949
-967
-1036
-1107
-1159
-1181
-1148
-1056
-967
-967
-1039
-1052
-899
-646
-484
-508
-601
-575
-395
-231
-251
-436
-616
-674
-675
-748
-924
-1098
-1165
-1164
-1239
-1441
-1661
-1748
-1713
-1716
-1872
-2087
-2162
-2048
-1912
-1940
-2116
-2254
-2220
-2082
-2004
-2060
-2178
-2243
-2211
-2105
-1957
-1782
-1576
-1348
-1125
-937
-804
-732
-694
-647
-573
-491
-450
-489
-593
-715
-820
-931
-1127
-1453
-1868
-2257
-2528
-2679
-2771
-2854
-2912
-2897
-2785
-2606
-2416
-2272
-2197
-2175
-2171
-2171
-2186
-2236
-2296
-2296
-2199
-2050
-1960
-1993
-2098
-2179
-2196
-2199
-2247
-2313
-2306
-2191
-2043
-1973
-1996
-2026
-1983
-1887
-1834
-1886
-2008
-2116
-2158
-2139
-2091
-2035
-1978
-1929
-1895
-1883
-1897
-1950
-2048
-2170
-2284
-2383
-2491
-2612
-2702
-2713
-2666
-2655
-2729
-2820
-2832
-2759
-2722
-2816
-2963
-2994
-2858
-2697
-2682
-2802
-2892
-2831
-2680
-2590
-2610
-2635
-2545
-2357
-2191
-2139
-2177
-2212
-2202
-2190
-2238
-2338
-2419
-2421
-2341
-2231
-2128
-2023
-1907
-1789
-1689
-1602
-1524
-1473
-1475
-1500
-1480
-1378
-1248
-1171
-1149
-1109
-1006
-890
-854
-891
-899
-811
-676
-591
-577
-561
-477
-354
-277
-300
-396
-491
-512
-434
-306
-225
-256
-350
-374
-235
6
186
219
178
198
310
409
388
250
103
38
50
77
85
95
148
253
368
445
463
442
429
452
478
448
355
268
271
363
459
496
505
571
714
848
875
812
790
928
1207
1488
1643
1664
1653
1716
1863
2015
2093
2086
2035
1970
1877
1739
1565
1371
1151
882
584
332
189
156
176
207
256
346
460
556
608
637
659
661
623
557
497
468
467
485
532
605
664
653
563
459
423
455
476
423
323
260
270
295
260
163
81
69
94
85
26
-24
-11
43
54
-28
-161
-250
-253
-208
-195
-252
-334
-356
-270
-117
-1
-13
-144
-298
-388
-412
-450
-565
-720
-816
-785
-664
-534
-442
-368
-275
-165
-80
-45
-52
-84
-128
-170
-179
-118
11
159
272
349
449
619
840
1032
1118
1079
959
827
736
691
651
570
451
347
327
395
480
512
492
480
511
547
540
505
506
571
644
645
573
501
488
507
485
391
276
207
199
211
200
181
197
267
353
397
380
338
323
346
370
357
309
257
218
185
145
116
117
143
154
126
79
56
69
77
45
-26
-91
-119
-115
-104
-100
-100
-104
-124
-160
-181
-163
-119
-102
-141
-203
-212
-134
-14
82
162
302
557
870
1114
1223
1252
1301
1390
1448
1400
1246
1038
818
600
393
210
35
-188
-492
-817
-1044
-1105
-1063
-1060
-1175
-1338
-1404
-1295
-1084
-918
-902
-1023
-1188
-1319
-1394
-1429
-1447
-1449
-1419
-1339
-1199
-1029
-874
-751
-626
-480
-359
-347
-448
-554
-561
-488
-452
-520
-624
-670
-676
-755
-955
-1179
-1300
-1308
-1301
-1345
-1386
-1332
-1172
-976
-819
-728
-712
-784
-919
-1033
-1044
-968
-903
-920
-980
-992
-925
-828
-751
-702
-653
-595
-544
-511
-489
-466
-427
-349
-222
-80
0
-19
-80
-63
90
309
465
505
496
546
694
872
991
1021
1018
1059
1171
1301
1385
1404
1400
1421
1472
1515
1513
1472
1445
1475
1557
1641
1675
1647
1603
1592
1620
1636
1597
1502
1390
1300
1245
1220
1209
1196
1174
1152
1141
1133
1107
1039
938
840
777
749
738
738
751
766
766
743
713
696
693
676
624
544
460
387
326
269
218
169
117
53
-16
-70
-102
-128
-169
-227
-286
-321
-331
-334
-350
-379
-395
-390
-387
-416
-472
-496
-430
-272
-70
131
335
553
753
875
911
932
1009
1103
1087
884
565
286
139
63
-80
-350
-685
-965
-1117
-1153
-1132
-1102
-1086
-1084
-1080
-1047
-963
-847
-753
-736
-799
-878
-908
-872
-808
-758
-739
-741
-758
-786
-815
-835
-846
-856
-868
-863
-835
-803
-797
-826
-862
-874
-868
-867
-884
-906
-919
-929
-955
-1004
-1066
-1123
-1169
-1208
-1247
-1286
-1322
-1351
-1373
-1393
-1417
-1444
-1475
-1519
-1590
-1690
-1792
-1865
-1900
-1924
-1960
-1990
-1977
-1909
-1824
-1773
-1759
-1743
-1709
-1705
-1786
-1934
-2060
-2101
-2083
-2083
-2116
-2123
-2048
-1915
-1788
-1711
-1676
-1658
-1645
-1617
-1564
-1511
-1503
-1537
-1533
-1421
-1258
-1193
-1292
-1426
-1435
-1319
-1244
-1329
-1491
-1537
-1397
-1206
-1125
-1165
-1195
-1115
-958
-844
-850
-944
-1013
-963
-803
-642
-613
-760
-1003
-1204
-1278
-1244
-1204
-1246
-1359
-1448
-1398
-1204
-1002
-955
-1107
-1344
-1500
-1510
-1463
-1511
-1696
-1879
-1884
-1678
-1432
-1337
-1382
-1366
-1173
-983
-1081
-1453
-1741
-1667
-1397
-1365
-1714
-2068
-1972
-1460
-1044
-1120
-1534
-1804
-1651
-1268
-1033
-1120
-1394
-1595
-1571
-1349
-1061
-830
-654
-456
-194
83
287
436
620
866
1083
1162
1091
943
783
613
404
148
-135
-382
-496
-413
-216
-90
-114
-145
20
354
578
471
168
30
221
531
638
480
288
296
498
711
801
792
760
758
804
901
1030
1119
1114
1052
1040
1142
1288
1348
1279
1180
1194
1351
1532
1589
1480
1304
1204
1252
1391
1486
1446
1307
1199
1209
1270
1226
1002
691
444
307
192
19
-195
-380
-516
-645
-794
-941
-1066
-1188
-1333
-1482
-1597
-1672
-1736
-1798
-1827
-1814
-1817
-1907
-2073
-2214
-2258
-2244
-2284
-2425
-2597
-2695
-2703
-2696
-2745
-2833
-2889
-2882
-2871
-2915
-2989
-2997
-2890
-2737
-2667
-2726
-2805
-2767
-2595
-2435
-2445
-2614
-2774
-2758
-2575
-2361
-2215
-2111
-1975
-1813
-1717
-1735
-1803
-1831
-1818
-1863
-2032
-2258
-2387
-2326
-2119
-1908
-1821
-1876
-1979
-2004
-1916
-1817
-1821
-1922
-1998
-1965
-1881
-1880
-1966
-1992
-1843
-1603
-1481
-1561
-1697
-1677
-1463
-1205
-1058
-1055
-1134
-1241
-1350
-1421
-1389
-1254
-1130
-1170
-1406
-1675
-1740
-1520
-1193
-1028
-1138
-1366
-1446
-1255
-907
-599
-397
-233
-52
113
208
279
435
692
933
1021
948
831
792
847
903
842
604
228
-143
-373
-444
-475
-570
-664
-604
-380
-201
-240
-379
-321
33
413
456
144
-170
-160
116
322
258
67
8
157
344
364
226
113
163
330
441
371
179
37
51
175
280
287
231
171
121
63
14
29
99
127
30
-135
-227
-159
2
130
163
136
98
41
-48
-118
-98
11
107
77
-94
-339
-548
-624
-562
-469
-495
-696
-935
-993
-803
-545
-471
-626
-819
-854
-750
-674
-729
-864
-981
-1047
-1074
-1053
-995
-963
-1009
-1073
-1019
-839
-739
-911
-1277
-1519
-1415
-1089
-865
-915
-1097
-1158
-1006
-759
-596
-592
-715
-892
-1074
-1237
-1351
-1394
-1377
-1335
-1311
-1329
-1348
-1286
-1109
-920
-890
-1087
-1362
-1475
-1351
-1161
-1129
-1266
-1357
-1209
-896
-656
-598
-591
-456
-222
-92
-179
-360
-427
-352
-304
-413
-567
-551
-320
-75
-58
-274
-494
-502
-325
-173
-219
-423
-583
-553
-402
-316
-393
-543
-609
-556
-488
-509
-591
-627
-573
-487
-439
-409
-319
-143
78
291
487
659
778
838
887
959
997
872
543
145
-140
-292
-472
-817
-1238
-1507
-1494
-1328
-1247
-1333
-1460
-1459
-1320
-1182
-1171
-1268
-1367
-1404
-1423
-1498
-1630
-1729
-1702
-1564
-1417
-1353
-1369
-1380
-1321
-1218
-1144
-1128
-1131
-1121
-1106
-1097
-1067
-972
-838
-761
-789
-849
-824
-700
-595
-615
-732
-811
-792
-736
-737
-785
-798
-747
-720
-803
-969
-1106
-1150
-1150
-1191
-1295
-1404
-1464
-1483
-1520
-1600
-1676
-1698
-1696
-1761
-1943
-2176
-2327
-2339
-2268
-2214
-2206
-2187
-2117
-2021
-1956
-1939
-1939
-1935
-1942
-1984
-2048
-2099
-2112
-2082
-2003
-1874
-1735
-1653
-1655
-1695
-1691
-1641
-1626
-1696
-1788
-1809
-1769
-1772
-1864
-1932
-1846
-1644
-1523
-1608
-1805
-1908
-1825
-1652
-1548
-1576
-1694
-1837
-1954
-2008
-1994
-1959
-1980
-2073
-2157
-2144
-2052
-1964
-1921
-1883
-1811
-1751
-1776
-1880
-1950
-1862
-1600
-1263
-970
-783
-686
-601
-456
-252
-82
-57
-206
-411
-502
-414
-242
-161
-259
-462
-620
-650
-583
-502
-459
-452
-454
-432
-339
-137
116
283
273
133
12
0
52
69
43
76
264
579
916
1195
1402
1547
1625
1642
1637
1647
1647
1560
1343
1050
783
601
453
244
-66
-441
-787
-1022
-1126
-1161
-1228
-1368
-1509
-1517
-1336
-1091
-986
-1121
-1390
-1601
-1681
-1731
-1892
-2162
-2386
-2428
-2308
-2162
-2092
-2084
-2065
-2006
-1939
-1911
-1934
-1990
-2068
-2151
-2226
-2281
-2326
-2370
-2394
-2360
-2259
-2147
-2094
-2123
-2186
-2204
-2137
-2006
-1871
-1787
-1770
-1785
-1767
-1676
-1537
-1426
-1399
-1450
-1528
-1602
-1662
-1699
-1707
-1694
-1675
-1651
-1605
-1532
-1472
-1461
-1474
-1440
-1332
-1213
-1167
-1182
-1163
-1036
-835
-674
-628
-676
-742
-768
-748
-717
-713
-739
-767
-756
-695
-620
-571
-553
-531
-487
-456
-478
-534
-556
-509
-446
-446
-498
-508
-412
-265
-179
-178
-173
-74
102
259
333
330
287
233
196
221
314
416
458
447
468
567
687
733
695
654
686
775
859
910
957
1032
1128
1213
1273
1312
1339
1352
1345
1325
1306
1302
1302
1280
1227
1172
1158
1185
1178
1069
895
773
776
846
839
702
541
506
618
747
755
646
534
499
518
513
466
434
475
601
786
1012
1261
1485
1635
1713
1776
1870
1968
1993
1900
1723
1529
1367
1236
1104
927
672
358
77
-72
-53
64
163
191
192
240
360
491
543
460
264
46
-108
-182
-225
-274
-313
-296
-217
-122
-55
-20
5
32
56
82
125
172
187
153
106
101
137
145
73
-36
-87
-54
-7
-27
-116
-204
-245
-272
-334
-433
-527
-594
-657
-739
-810
-815
-739
-636
-581
-603
-657
-678
-633
-563
-540
-602
-719
-819
-840
-777
-676
-600
-590
-642
-700
-693
-597
-456
-350
-320
-335
-334
-285
-203
-132
-110
-151
-233
-292
-279
-206
-150
-174
-246
-268
-181
-40
43
20
-53
-78
-21
57
79
31
-32
-51
-20
27
80
154
250
327
346
336
370
462
522
451
263
84
23
67
116
104
59
54
125
247
370
460
509
525
513
471
413
378
389
404
340
182
35
42
214
402
436
311
200
266
495
726
807
740
655
677
817
965
994
870
692
595
620
698
722
656
555
499
527
627
768
929
1116
1336
1571
1788
1941
2018
2051
2093
2149
2168
2085
1883
1611
1359
1204
1159
1140
1010
719
392
248
368
577
611
413
214
267
556
812
834
708
666
791
951
994
942
924
994
1068
1063
991
941
946
946
875
761
695
742
863
941
885
730
610
634
779
899
879
746
618
571
584
599
600
605
612
589
528
474
491
586
686
708
634
523
449
426
402
325
195
65
-19
-60
-76
-62
-6
74
133
153
161
191
231
226
160
79
42
53
71
79
112
206
343
462
520
530
521
488
410
311
261
300
375
388
308
232
278
433
536
452
232
60
42
96
63
-93
-253
-296
-234
-181
-193
-219
-196
-140
-128
-185
-237
-214
-138
-115
-200
-329
-383
-316
-199
-121
-103
-102
-101
-127
-179
-200
-157
-135
-244
-474
-650
-615
-426
-293
-330
-429
-416
-274
-139
-138
-272
-478
-703
-898
-989
-925
-755
-593
-491
-416
-336
-295
-347
-466
-596
-737
-926
-1113
-1154
-970
-668
-432
-308
-185
9
181
212
149
142
250
373
407
402
470
618
709
626
401
113
-244
-695
-1172
-1489
-1541
-1436
-1390
-1500
-1642
-1625
-1405
-1144
-1061
-1219
-1475
-1619
-1573
-1440
-1398
-1503
-1647
-1698
-1631
-1534
-1468
-1431
-1398
-1395
-1468
-1582
-1652
-1635
-1599
-1645
-1762
-1841
-1809
-1720
-1696
-1777
-1894
-1947
-1916
-1869
-1867
-1921
-2015
-2121
-2204
-2203
-2093
-1955
-1917
-2025
-2190
-2253
-2154
-2016
-2011
-2177
-2370
-2451
-2417
-2410
-2541
-2760
-2943
-3037
-3090
-3144
-3169
-3120
-3007
-2918
-2914
-2962
-2974
-2895
-2766
-2678
-2669
-2711
-2729
-2679
-2618
-2644
-2787
-2923
-2914
-2792
-2778
-2979
-3211
-3172
-2857
-2652
-2890
-3382
-3550
-3134
-2587
-2574
-3183
-3774
-3719
-3121
-2631
-2626
-2831
-2795
-2530
-2488
-2917
-3479
-3608
-3163
-2578
-2379
-2637
-2965
-2926
-2440
-1857
-1660
-2075
-2818
-3287
-3061
-2320
-1662
-1520
-1728
-1804
-1496
-1000
-659
-605
-702
-821
-936
-1020
-995
-843
-699
-698
-760
-679
-407
-156
-163
-356
-419
-140
345
694
690
425
155
47
64
35
-130
-324
-340
-124
132
183
44
-23
168
438
422
50
-285
-145
474
1133
1437
1419
1411
1642
2017
2275
2287
2122
1902
1691
1493
1297
1088
855
591
319
50
-222
-477
-656
-695
-615
-529
-551
-685
-807
-797
-668
-551
-585
-793
-1072
-1272
-1317
-1252
-1204
-1296
-1542
-1828
-1992
-1979
-1875
-1816
-1863
-1960
-2011
-1974
-1880
-1790
-1764
-1826
-1944
-2042
-2058
-2002
-1944
-1928
-1912
-1841
-1727
-1639
-1628
-1660
-1670
-1647
-1643
-1688
-1751
-1794
-1816
-1846
-1863
-1812
-1699
-1634
-1713
-1891
-1996
-1928
-1784
-1747
-1879
-2059
-2135
-2081
-1997
-1958
-1941
-1884
-1781
-1685
-1629
-1587
-1509
-1386
-1261
-1201
-1252
-1379
-1472
-1433
-1285
-1162
-1190
-1344
-1453
-1399
-1231
-1113
-1131
-1197
-1165
-1014
-875
-858
-918
-903
-735
-524
-452
-568
-747
-829
-780
-689
-626
-580
-533
-530
-595
-638
-521
-258
-71
-147
-419
-630
-635
-536
-512
-566
-580
-511
-427
-349
-184
98
317
261
-13
-179
-38
221
250
6
-172
6
423
707
685
559
601
802
930
845
678
631
722
795
741
653
708
933
1166
1241
1165
1091
1129
1243
1326
1320
1253
1149
1000
853
827
1000
1283
1492
1563
1647
1913
2319
2626
2644
2435
2229
2159
2123
1953
1610
1226
943
791
677
514
309
139
49
25
22
34
111
263
405
433
352
303
388
538
571
407
176
76
153
281
321
256
155
58
-42
-133
-171
-147
-116
-126
-165
-194
-212
-247
-303
-333
-316
-308
-388
-538
-633
-575
-414
-309
-354
-480
-552
-528
-499
-556
-671
-737
-713
-677
-714
-796
-831
-792
-759
-799
-878
-908
-873
-846
-880
-935
-941
-893
-861
-901
-980
-1008
-935
-795
-675
-646
-702
-755
-726
-632
-580
-640
-744
-744
-582
-358
-214
-179
-155
-58
90
191
196
139
87
82
131
222
325
401
438
470
533
612
649
609
526
469
458
466
462
440
409
361
294
236
208
180
79
-114
-311
-394
-342
-256
-247
-299
-295
-157
61
215
218
122
55
94
198
272
273
257
307
442
599
695
718
717
734
757
752
720
701
724
766
782
771
777
829
886
879
789
689
665
720
775
763
704
665
680
719
752
798
906
1101
1359
1632
1863
2004
2041
2026
2053
2155
2242
2162
1872
1504
1242
1134
1046
818
437
45
-208
-294
-288
-269
-255
-227
-181
-131
-89
-52
-24
-31
-104
-245
-412
-546
-615
-628
-622
-621
-634
-660
-704
-781
-881
-978
-1044
-1083
-1124
-1191
-1279
-1364
-1434
-1490
-1534
-1556
-1560
-1561
-1582
-1622
-1656
-1674
-1697
-1754
-1841
-1920
-1963
-1980
-2007
-2061
-2120
-2156
-2165
-2176
-2216
-2279
-2331
-2347
-2334
-2319
-2320
-2325
-2311
-2269
-2218
-2178
-2153
-2125
-2087
-2050
-2035
-2041
-2051
-2044
-2023
-2002
-1994
-1994
-1991
-1970
-1929
-1877
-1830
-1792
-1752
-1697
-1624
-1550
-1489
-1434
-1374
-1312
-1262
-1230
-1196
-1148
-1110
-1123
-1181
-1220
-1176
-1067
-973
-940
-914
-808
-621
-450
-376
-381
-388
-370
-374
-435
-518
-556
-542
-541
-592
-655
-660
-610
-581
-639
-753
-844
-876
-888
-930
-994
-1019
-969
-873
-796
-775
-795
-840
-906
-989
-1067
-1114
-1146
-1198
-1265
-1286
-1210
-1074
-976
-980
-1053
-1123
-1166
-1220
-1311
-1412
-1479
-1507
-1506
-1467
-1363
-1210
-1085
-1053
-1095
-1134
-1128
-1118
-1165
-1245
-1237
-1031
-643
-225
66
204
298
471
729
951
1008
883
674
495
376
264
97
-137
-394
-628
-816
-955
-1028
-996
-843
-625
-450
-390
-405
-387
-284
-159
-126
-225
-375
-453
-392
-228
-47
72
99
58
4
-26
-46
-100
-191
-260
-251
-179
-118
-117
-154
-174
-167
-174
-228
-312
-385
-426
-444
-441
-411
-374
-365
-406
-465
-488
-456
-407
-388
-397
-393
-347
-281
-235
-220
-214
-211
-234
-306
-399
-460
-477
-488
-529
-572
-550
-450
-338
-296
-311
-301
-228
-149
-146
-217
-275
-253
-180
-139
-165
-206
-184
-71
83
207
260
259
251
271
311
330
305
255
224
228
252
271
289
326
385
442
474
481
489
517
561
601
613
597
576
580
609
631
624
609
631
689
739
769
823
938
1059
1071
944
811
831
986
1094
1030
911
961
1239
1558
1693
1636
1584
1689
1892
2031
2028
1946
1888
1881
1888
1893
1923
2000
2100
2168
2179
2161
2160
2192
2215
2172
2053
1927
1871
1902
1970
2028
2069
2115
2178
2260
2370
2523
2709
2878
2981
3027
3074
3170
3331
3538
3734
3842
3806
3636
3399
3174
2965
2710
2350
1906
1488
1235
1217
1386
1604
1758
1856
1992
2213
2441
2540
2465
2301
2167
2100
2059
2025
2024
2070
2121
2119
2081
2061
2075
2059
1940
1747
1605
1632
1818
2035
2158
2150
2083
2059
2108
2165
2142
2025
1874
1759
1704
1690
1694
1701
1691
1650
1591
1545
1530
1512
1457
1394
1387
1453
1520
1498
1397
1302
1281
1299
1269
1157
1007
882
814
802
829
861
866
844
850
925
1037
1094
1048
968
959
1034
1098
1061
945
836
782
761
740
730
753
795
831
869
938
1016
1032
941
799
698
659
638
607
604
662
741
771
751
754
829
937
1005
1025
1034
1027
954
821
733
786
917
942
772
540
457
564
648
433
-180
-1026
-1807
-2281
-2368
-2140
-1735
-1262
-754
-177
486
1171
1731
2010
1918
1507
965
523
319
324
405
482
583
748
927
993
900
749
649
585
457
244
73
86
270
473
569
570
547
500
375
197
107
236
558
886
1064
1114
1203
1443
1764
2008
2098
2108
2172
2308
2403
2339
2128
1896
1739
1610
1381
992
540
205
94
158
276
379
507
737
1082
1447
1692
1743
1634
1448
1229
974
706
518
518
708
952
1093
1101
1088
1162
1296
1357
1253
1033
821
702
677
714
794
884
919
852
722
637
663
755
809
775
700
669
723
839
973
1081
1133
1114
1046
984
961
968
980
1001
1047
1098
1101
1034
962
954
1000
1001
879
672
495
424
442
499
578
694
837
966
1040
1052
1026
986
940
885
809
707
601
537
565
684
839
961
1023
1058
1099
1123
1071
934
792
756
844
950
961
898
895
1041
1259
1376
1318
1175
1092
1109
1149
1142
1110
1111
1151
1170
1135
1076
1053
1082
1112
1090
1011
913
841
823
851
904
945
947
923
910
934
990
1045
1079
1087
1069
1017
926
820
739
711
715
708
670
619
611
685
842
1030
1154
1115
911
680
584
653
740
669
431
213
197
367
539
554
422
286
265
367
515
632
703
774
913
1111
1266
1293
1233
1240
1408
1646
1771
1688
1474
1289
1197
1132
977
675
256
-185
-536
-704
-675
-511
-295
-91
61
151
235
387
576
639
432
42
-243
-216
12
145
53
-109
-134
-54
-70
-260
-460
-473
-325
-238
-368
-647
-907
-1061
-1182
-1344
-1518
-1611
-1620
-1628
-1674
-1643
-1422
-1121
-1044
-1384
-1929
-2229
-2048
-1606
-1358
-1506
-1812
-1893
-1641
-1301
-1184
-1355
-1594
-1637
-1417
-1106
-920
-895
-873
-712
-488
-426
-648
-1021
-1313
-1423
-1440
-1467
-1449
-1272
-982
-756
-712
-760
-703
-483
-227
-114
-164
-206
-44
356
820
1103
1101
970
990
1291
1714
1980
1971
1861
1918
2201
2508
2611
2519
2477
2686
3094
3457
3609
3631
3736
4030
4378
4544
4451
4270
4235
4411
4635
4715
4651
4607
4715
4914
5037
5022
4977
5039
5209
5344
5340
5256
5251
5386
5561
5619
5507
5340
5283
5385
5564
5676
5652
5528
5378
5271
5240
5254
5232
5109
4888
4647
4493
4473
4519
4504
4360
4135
3931
3796
3680
3516
3306
3125
3025
2978
2925
2852
2801
2800
2837
2898
2988
3114
3251
3369
3487
3623
3726
3715
3580
3431
3362
3314
3107
2671
2147
1753
1550
1377
1072
681
385
281
293
293
247
215
229
232
159
45
-1
62
136
66
-172
-431
-535
-449
-317
-299
-414
-551
-611
-621
-679
-815
-939
-943
-856
-822
-929
-1101
-1178
-1100
-985
-997
-1150
-1303
-1327
-1249
-1203
-1270
-1406
-1511
-1528
-1493
-1488
-1562
-1688
-1788
-1797
-1744
-1743
-1872
-2071
-2194
-2168
-2089
-2115
-2291
-2486
-2560
-2510
-2459
-2497
-2590
-2649
-2650
-2645
-2682
-2754
-2812
-2831
-2828
-2831
-2857
-2905
-2954
-2976
-2939
-2841
-2728
-2661
-2667
-2714
-2729
-2678
-2603
-2598
-2710
-2870
-2940
-2834
-2629
-2487
-2493
-2560
-2550
-2442
-2361
-2410
-2545
-2619
-2564
-2487
-2538
-2707
-2798
-2635
-2272
-1957
-1912
-2134
-2412
-2540
-2483
-2380
-2392
-2547
-2737
-2823
-2741
-2545
-2349
-2255
-2276
-2344
-2384
-2370
-2330
-2282
-2234
-2198
-2200
-2244
-2269
-2201
-2043
-1892
-1847
-1907
-1964
-1942
-1874
-1840
-1845
-1815
-1716
-1617
-1616
-1711
-1784
-1727
-1573
-1468
-1514
-1649
-1709
-1622
-1488
-1465
-1588
-1748
-1808
-1740
-1635
-1591
-1615
-1615
-1499
-1267
-1025
-905
-956
-1091
-1178
-1179
-1178
-1278
-1469
-1639
-1716
-1754
-1851
-2022
-2197
-2336
-2513
-2804
-3155
-3403
-3439
-3330
-3223
-3170
-3087
-2876
-2557
-2241
-2004
-1874
-1881
-2050
-2323
-2531
-2537
-2393
-2313
-2432
-2650
-2729
-2572
-2329
-2216
-2298
-2468
-2609
-2711
-2811
-2903
-2943
-2934
-2946
-3020
-3090
-3041
-2842
-2608
-2494
-2542
-2646
-2667
-2592
-2530
-2581
-2713
-2798
-2769
-2696
-2701
-2797
-2861
-2803
-2675
-2614
-2665
-2739
-2746
-2725
-2774
-2899
-2980
-2924
-2787
-2710
-2739
-2786
-2738
-2613
-2517
-2519
-2590
-2659
-2693
-2695
-2676
-2639
-2585
-2527
-2478
-2447
-2421
-2375
-2300
-2229
-2227
-2307
-2394
-2391
-2293
-2215
-2254
-2368
-2418
-2322
-2158
-2055
-2052
-2076
-2038
-1929
-1803
-1728
-1733
-1792
-1839
-1813
-1720
-1647
-1676
-1792
-1900
-1938
-1947
-1994
-2065
-2089
-2043
-2003
-2020
-2039
-1958
-1773
-1595
-1527
-1549
-1586
-1614
-1661
-1716
-1711
-1626
-1527
-1497
-1509
-1456
-1292
-1106
-1026
-1081
-1189
-1269
-1311
-1343
-1371
-1391
-1419
-1465
-1499
-1468
-1359
-1241
-1190
-1208
-1231
-1209
-1170
-1169
-1198
-1201
-1161
-1131
-1165
-1222
-1181
-984
-705
-464
-286
-107
125
351
485
526
561
629
658
538
265
-46
-280
-441
-626
-919
-1300
-1665
-1901
-1976
-1951
-1930
-1966
-2019
-2009
-1906
-1768
-1683
-1678
-1705
-1715
-1711
-1725
-1757
-1761
-1695
-1576
-1473
-1433
-1443
-1456
-1449
-1437
-1436
-1429
-1412
-1404
-1422
-1438
-1397
-1309
-1262
-1334
-1478
-1541
-1438
-1263
-1206
-1352
-1582
-1696
-1619
-1480
-1467
-1645
-1887
-2006
-1934
-1780
-1709
-1773
-1886
-1928
-1883
-1832
-1854
-1939
-2023
-2065
-2073
-2059
-2015
-1940
-1860
-1808
-1783
-1766
-1752
-1761
-1795
-1825
-1827
-1816
-1814
-1805
-1743
-1626
-1514
-1469
-1481
-1482
-1443
-1402
-1396
-1398
-1345
-1223
-1085
-992
-946
-915
-885
-870
-880
-898
-912
-934
-980
-1040
-1077
-1069
-1027
-984
-961
-970
-1006
-1050
-1071
-1051
-1011
-998
-1037
-1112
-1184
-1226
-1240
-1253
-1296
-1379
-1485
-1577
-1635
-1667
-1691
-1701
-1672
-1599
-1521
-1477
-1452
-1391
-1285
-1197
-1219
-1348
-1487
-1559
-1594
-1695
-1888
-2065
-2076
-1881
-1587
-1320
-1111
-919
-741
-660
-766
-1041
-1369
-1650
-1879
-2100
-2298
-2379
-2268
-2011
-1734
-1539
-1428
-1343
-1254
-1177
-1115
-1023
-843
-561
-225
109
429
743
1053
1310
1464
1498
1438
1327
1194
1061
937
815
661
436
130
-203
-477
-628
-660
-642
-644
-668
-641
-487
-215
61
216
214
139
99
133
184
172
80
-38
-108
-96
-32
32
71
100
153
232
317
379
414
434
439
407
327
225
156
148
177
187
139
55
-7
-5
39
61
25
-42
-76
-54
-25
-59
-157
-236
-220
-131
-69
-100
-188
-240
-224
-206
-259
-377
-477
-494
-438
-364
-291
-194
-53
100
210
276
354
491
654
758
753
689
667
733
837
895
887
861
881
972
1119
1297
1476
1614
1676
1670
1657
1678
1692
1603
1359
1033
773
675
703
740
711
645
623
685
787
855
851
807
764
733
698
653
620
621
659
717
778
837
890
934
965
991
1033
1104
1199
1307
1415
1526
1645
1776
1920
2080
2244
2378
2437
2412
2353
2322
2305
2222
2036
1833
1746
1805
1899
1921
1900
1941
2072
2175
2117
1917
1735
1698
1770
1823
1793
1734
1741
1827
1931
1994
2032
2106
2249
2432
2602
2748
2887
3031
3165
3284
3403
3528
3588
3496
3243
2935
2698
2556
2421
2209
1921
1621
1385
1279
1338
1513
1653
1610
1408
1262
1353
1611
1771
1653
1353
1126
1106
1187
1184
1051
904
863
917
962
931
849
795
819
899
980
1011
981
918
858
820
798
775
740
692
647
626
634
638
581
434
240
90
41
66
90
70
37
40
91
141
136
55
-79
-222
-338
-410
-459
-525
-628
-737
-792
-760
-675
-609
-602
-633
-660
-666
-673
-706
-754
-787
-787
-768
-751
-745
-732
-698
-648
-605
-586
-596
-621
-647
-671
-705
-750
-792
-813
-807
-786
-776
-780
-771
-720
-643
-593
-621
-725
-849
-928
-945
-930
-928
-951
-964
-924
-824
-709
-639
-635
-666
-696
-716
-745
-787
-818
-816
-787
-759
-738
-708
-656
-597
-555
-531
-504
-456
-386
-311
-250
-216
-217
-267
-381
-571
-833
-1118
-1335
-1411
-1353
-1264
-1257
-1340
-1406
-1324
-1071
-760
-538
-451
-400
-239
81
456
723
802
746
678
658
643
562
405
233
122
105
185
359
613
899
1138
1275
1326
1361
1434
1522
1548
1465
1297
1118
979
862
698
451
157
-87
-204
-191
-119
-64
-48
-33
22
127
254
362
428
443
409
343
278
245
250
273
294
314
344
384
408
389
335
288
280
298
289
220
113
27
2
22
30
-10
-77
-107
-54
74
225
341
398
409
405
416
447
471
452
372
257
166
138
158
173
148
90
32
-16
-67
-132
-198
-241
-256
-261
-266
-262
-236
-200
-177
-175
-185
-192
-205
-234
-266
-269
-227
-175
-160
-186
-199
-139
-11
121
204
250
313
414
512
550
514
448
389
333
260
175
114
103
125
139
131
126
146
179
191
166
140
152
195
221
200
157
137
149
144
73
-48
-143
-156
-106
-66
-78
-116
-123
-83
-33
-19
-46
-79
-89
-78
-66
-61
-55
-40
-31
-42
-74
-115
-153
-189
-230
-275
-318
-355
-384
-412
-442
-472
-500
-526
-548
-569
-595
-630
-665
-684
-681
-678
-700
-751
-812
-859
-887
-903
-903
-857
-726
-502
-222
46
239
348
414
489
584
647
595
396
98
-200
-427
-594
-781
-1052
-1385
-1676
-1823
-1818
-1753
-1723
-1735
-1724
-1641
-1516
-1421
-1386
-1382
-1372
-1356
-1366
-1417
-1476
-1493
-1447
-1353
-1257
-1201
-1198
-1236
-1291
-1343
-1374
-1363
-1292
-1173
-1059
-1019
-1071
-1164
-1215
-1189
-1129
-1120
-1198
-1305
-1336
-1244
-1092
-989
-989
-1044
-1050
-977
-909
-955
-1114
-1248
-1232
-1102
-1028
-1111
-1258
-1272
-1093
-888
-892
-1141
-1430
-1543
-1486
-1463
-1626
-1907
-2107
-2137
-2123
-2243
-2505
-2728
-2747
-2596
-2442
-2368
-2286
-2087
-1822
-1654
-1645
-1671
-1561
-1308
-1084
-1056
-1189
-1293
-1236
-1078
-997
-1098
-1299
-1421
-1377
-1243
-1148
-1118
-1066
-949
-861
-908
-1033
-1067
-949
-795
-750
-803
-827
-763
-675
-600
-471
-249
-52
-37
-180
-266
-144
69
139
28
-58
66
343
574
675
738
855
963
950
846
830
1002
1218
1236
1009
782
851
1234
1634
1752
1587
1419
1489
1731
1862
1698
1356
1126
1179
1408
1569
1544
1435
1405
1474
1515
1431
1284
1196
1202
1208
1127
996
929
980
1104
1234
1350
1446
1503
1514
1523
1582
1664
1651
1444
1074
689
412
240
65
-224
-635
-1067
-1381
-1496
-1445
-1348
-1316
-1366
-1421
-1397
-1288
-1174
-1144
-1223
-1369
-1526
-1666
-1774
-1838
-1839
-1789
-1733
-1707
-1704
-1685
-1656
-1668
-1743
-1823
-1818
-1702
-1550
-1444
-1375
-1265
-1087
-914
-828
-824
-828
-819
-867
-1021
-1213
-1308
-1252
-1141
-1106
-1167
-1215
-1164
-1057
-1016
-1095
-1241
-1366
-1441
-1489
-1531
-1556
-1553
-1528
-1491
-1438
-1382
-1361
-1390
-1430
-1413
-1339
-1291
-1337
-1436
-1479
-1433
-1367
-1354
-1379
-1371
-1312
-1250
-1222
-1199
-1138
-1040
-943
-867
-793
-732
-719
-751
-758
-687
-583
-541
-577
-601
-536
-424
-363
-379
-411
-405
-402
-459
-544
-558
-447
-290
-212
-259
-349
-372
-289
-161
-83
-107
-191
-236
-179
-59
27
30
11
61
178
272
279
257
328
510
672
679
541
411
419
532
616
592
503
449
485
586
693
747
732
670
617
625
683
724
701
666
721
885
1051
1094
1017
954
998
1094
1113
1019
901
856
881
906
916
978
1144
1379
1601
1777
1940
2115
2280
2403
2485
2536
2529
2419
2208
1947
1689
1439
1178
914
669
454
262
101
20
49
155
252
272
228
197
236
324
366
286
118
-13
-20
41
52
-14
-62
-25
3
-121
-351
-447
-257
48
130
-109
-394
-394
-134
44
-105
-447
-648
-569
-375
-282
-309
-316
-232
-141
-144
-211
-242
-215
-229
-353
-523
-614
-603
-583
-614
-629
-543
-411
-399
-576
-781
-793
-576
-326
-265
-403
-552
-547
-400
-258
-229
-298
-369
-373
-320
-272
-267
-284
-276
-235
-212
-248
-320
-356
-318
-246
-215
-249
-306
-331
-304
-245
-186
-150
-147
-156
-128
-42
58
97
65
49
132
259
284
148
-17
-15
184
385
396
245
139
192
294
264
89
-71
-106
-84
-127
-223
-237
-103
66
122
56
8
81
218
289
250
177
162
209
260
273
258
228
170
69
-45
-110
-95
-36
5
14
38
121
244
340
357
306
235
174
118
62
20
20
68
136
191
229
280
370
496
639
793
970
1172
1364
1493
1549
1586
1667
1778
1823
1715
1466
1184
969
821
656
402
83
-216
-422
-528
-578
-605
-616
-603
-575
-558
-563
-575
-574
-555
-548
-588
-677
-766
-794
-741
-647
-589
-611
-691
-758
-771
-760
-780
-845
-910
-943
-962
-1024
-1130
-1220
-1238
-1209
-1216
-1299
-1408
-1470
-1467
-1448
-1472
-1547
-1635
-1692
-1691
-1635
-1561
-1533
-1578
-1651
-1680
-1642
-1607
-1651
-1765
-1856
-1856
-1805
-1794
-1852
-1912
-1899
-1826
-1781
-1816
-1898
-1937
-1890
-1798
-1737
-1737
-1761
-1751
-1692
-1623
-1595
-1620
-1656
-1656
-1606
-1538
-1485
-1446
-1388
-1287
-1157
-1036
-947
-876
-792
-691
-601
-559
-572
-615
-648
-646
-605
-533
-451
-381
-338
-308
-259
-180
-90
-29
-24
-66
-124
-165
-176
-160
-139
-142
-175
-213
-217
-177
-132
-128
-168
-213
-223
-197
-177
-178
-176
-140
-77
-17
17
31
37
40
36
27
17
8
-11
-29
-16
55
185
348
508
625
646
532
305
49
-155
-303
-471
-702
-918
-965
-754
-380
-53
65
-25
-186
-308
-397
-538
-763
-988
-1072
-934
-630
-301
-48
136
317
525
691
709
539
266
33
-82
-126
-215
-409
-657
-854
-938
-937
-915
-902
-876
-807
-697
-568
-437
-319
-239
-230
-304
-425
-526
-575
-583
-579
-560
-502
-412
-340
-336
-396
-457
-470
-439
-414
-427
-463
-480
-462
-432
-416
-411
-392
-349
-293
-242
-203
-176
-172
-192
-219
-232
-231
-243
-285
-323
-306
-230
-162
-166
-241
-323
-366
-390
-452
-567
-687
-746
-732
-698
-694
-725
-748
-731
-700
-713
-796
-911
-988
-982
-894
-756
-601
-447
-300
-149
22
210
370
440
406
317
237
185
142
93
45
3
-33
-55
-29
67
192
264
235
159
126
165
216
199
96
-26
-90
-78
-33
-17
-56
-124
-170
-163
-126
-113
-143
-174
-158
-88
-13
25
28
35
70
117
151
170
188
221
267
324
385
447
500
546
586
617
630
620
602
604
632
656
637
576
520
518
565
611
625
627
671
770
878
936
926
881
829
767
685
596
529
487
459
451
505
659
909
1209
1505
1767
1970
2105
2192
2278
2387
2479
2466
2291
2002
1716
1521
1396
1238
975
646
380
284
340
445
501
502
512
570
662
747
805
837
843
815
760
707
682
680
682
678
673
668
654
627
592
559
529
501
479
467
453
421
378
348
350
370
382
380
377
393
420
442
450
447
445
452
462
473
485
494
493
473
438
401
384
393
411
399
332
233
169
185
256
300
265
182
135
168
240
276
249
200
175
175
166
139
116
118
133
137
131
146
196
257
293
303
314
340
365
363
340
315
293
257
182
78
-8
-41
-23
16
57
106
178
261
322
344
350
381
442
480
431
295
156
103
141
185
159
80
33
73
172
257
295
314
350
391
406
397
409
466
533
552
512
466
487
583
689
738
713
642
564
496
442
397
352
299
249
224
243
297
360
415
465
505
520
500
471
474
517
562
560
511
472
501
605
744
882
1028
1220
1471
1745
1971
2115
2200
2275
2355
2409
2394
2293
2119
1903
1684
1502
1369
1237
1041
767
492
322
290
335
371
364
340
338
376
449
536
595
580
483
361
298
331
423
501
526
509
486
483
498
510
503
472
433
410
410
418
408
376
342
327
326
318
287
242
206
189
174
143
92
40
13
14
23
9
-39
-105
-154
-168
-164
-179
-233
-309
-365
-387
-401
-442
-514
-586
-628
-645
-662
-694
-727
-741
-732
-718
-718
-734
-752
-760
-759
-759
-772
-789
-792
-769
-722
-670
-621
-568
-512
-470
-457
-463
-458
-431
-415
-449
-518
-563
-546
-489
-452
-458
-470
-449
-392
-332
-287
-254
-228
-212
-203
-181
-135
-85
-66
-86
-116
-123
-112
-113
-140
-178
-205
-215
-224
-239
-257
-270
-275
-272
-266
-267
-276
-286
-279
-251
-215
-190
-181
-169
-135
-82
-30
-1
4
-3
-14
-24
-41
-66
-91
-111
-123
-133
-136
-127
-104
-78
-63
-64
-60
-32
20
68
79
29
-57
-114
-85
31
188
349
529
755
1008
1212
1328
1412
1536
1662
1656
1434
1087
790
611
443
167
-180
-451
-584
-670
-821
-975
-958
-719
-427
-318
-415
-484
-310
17
179
15
-291
-418
-319
-295
-590
-1051
-1254
-1004
-574
-373
-503
-711
-753
-651
-575
-600
-678
-815
-1100
-1514
-1814
-1736
-1299
-840
-701
-917
-1236
-1393
-1330
-1185
-1116
-1210
-1453
-1746
-1955
-1947
-1711
-1371
-1127
-1122
-1329
-1573
-1659
-1549
-1406
-1444
-1708
-2008
-2109
-1979
-1814
-1818
-1952
-2001
-1841
-1581
-1441
-1460
-1456
-1244
-885
-631
-634
-792
-896
-867
-787
-736
-673
-551
-459
-525
-719
-805
-597
-197
83
57
-143
-219
-35
287
521
557
465
402
481
687
895
964
873
747
716
796
892
953
1039
1207
1409
1545
1603
1669
1782
1851
1784
1641
1553
1553
1519
1358
1161
1109
1260
1487
1647
1719
1758
1773
1711
1579
1487
1533
1665
1746
1706
1619
1603
1667
1716
1660
1498
1291
1100
944
828
750
701
666
627
582
526
457
357
220
48
-134
-282
-366
-406
-453
-537
-637
-723
-806
-921
-1046
-1099
-1024
-888
-822
-882
-986
-1013
-946
-879
-883
-913
-860
-705
-560
-558
-707
-908
-1089
-1271
-1524
-1851
-2146
-2272
-2141
-1757
-1204
-628
-169
119
312
521
739
816
620
197
-239
-491
-525
-466
-445
-497
-575
-628
-661
-724
-852
-1020
-1142
-1171
-1157
-1195
-1312
-1431
-1450
-1386
-1354
-1432
-1567
-1650
-1636
-1578
-1539
-1532
-1507
-1415
-1260
-1109
-1052
-1131
-1292
-1419
-1441
-1398
-1386
-1440
-1494
-1478
-1388
-1270
-1151
-1020
-885
-804
-819
-917
-1023
-1074
-1059
-1014
-968
-947
-962
-998
-1003
-923
-758
-580
-473
-450
-446
-390
-269
-124
-10
35
9
-53
-91
-62
31
132
186
183
155
130
118
136
193
271
335
366
394
458
532
555
514
472
492
552
575
548
544
628
767
883
964
1047
1130
1141
1042
911
859
894
908
837
752
780
940
1121
1228
1281
1370
1509
1612
1597
1485
1379
1346
1351
1312
1209
1109
1092
1179
1306
1389
1398
1359
1317
1292
1279
1261
1215
1143
1076
1057
1093
1128
1106
1028
954
923
910
863
793
782
907
1166
1483
1795
2077
2316
2502
2637
2744
2817
2790
2588
2232
1863
1606
1440
1242
937
603
386
337
381
428
458
488
514
514
501
527
592
625
557
419
312
295
325
322
263
201
190
230
276
288
254
193
157
184
261
323
325
293
285
323
364
362
322
289
291
306
298
247
153
41
-32
-20
70
165
200
193
217
291
332
257
82
-81
-174
-251
-394
-570
-657
-602
-502
-501
-607
-693
-650
-515
-418
-429
-493
-517
-467
-386
-336
-343
-392
-448
-477
-468
-450
-459
-489
-479
-390
-256
-158
-133
-145
-128
-73
-20
-1
-12
-41
-77
-103
-87
-33
-5
-63
-182
-249
-189
-69
-27
-123
-255
-284
-186
-63
-23
-64
-103
-80
-9
60
95
85
29
-62
-152
-202
-205
-196
-205
-217
-192
-111
-2
87
132
144
151
167
192
211
207
186
184
231
311
360
333
255
212
255
335
350
253
110
27
55
141
188
151
67
25
83
219
352
404
370
303
264
264
263
237
231
321
540
822
1040
1127
1130
1169
1304
1470
1533
1413
1164
909
721
568
378
132
-123
-344
-536
-722
-870
-894
-758
-541
-387
-361
-380
-313
-136
30
53
-80
-260
-376
-410
-406
-381
-316
-207
-107
-79
-131
-196
-212
-172
-123
-107
-130
-173
-205
-203
-163
-103
-62
-69
-120
-176
-212
-238
-290
-381
-483
-547
-555
-540
-539
-558
-575
-575
-571
-590
-645
-715
-767
-771
-732
-685
-675
-712
-760
-774
-750
-732
-752
-791
-809
-798
-774
-748
-706
-652
-622
-655
-729
-768
-728
-651
-621
-664
-720
-724
-672
-614
-586
-578
-575
-589
-639
-720
-786
-812
-820
-856
-939
-1035
-1082
-1048
-976
-935
-953
-996
-1008
-975
-943
-957
-1013
-1069
-1092
-1092
-1084
-1053
-942
-697
-323
106
473
671
669
517
299
64
-215
-588
-1051
-1510
-1835
-1954
-1884
-1703
-1503
-1336
-1203
-1073
-923
-756
-615
-549
-557
-598
-607
-548
-427
-291
-203
-194
-235
-264
-237
-170
-110
-63
14
166
357
476
440
288
157
157
251
296
185
-27
-165
-101
130
386
571
706
873
1090
1292
1422
1500
1579
1652
1646
1514
1307
1134
1055
1016
913
692
399
137
-7
-17
57
136
165
157
166
245
385
521
585
571
512
447
397
380
405
468
538
590
636
697
766
797
765
695
641
617
586
510
402
309
263
264
306
385
473
514
479
407
379
416
446
390
255
137
122
200
281
302
274
244
229
208
163
103
48
1
-49
-105
-150
-168
-156
-126
-103
-104
-133
-169
-175
-150
-133
-160
-208
-205
-119
-13
22
-19
-52
-6
90
148
134
104
120
180
234
256
264
285
319
352
382
411
434
453
478
521
568
601
620
654
713
768
786
775
778
809
834
814
763
734
759
808
819
771
705
680
714
774
804
790
774
799
859
909
920
923
964
1032
1065
1025
958
947
1009
1079
1084
1027
977
980
1021
1055
1056
1029
989
943
907
894
901
909
908
901
901
906
904
902
908
930
952
943
897
837
808
836
911
1007
1115
1261
1460
1680
1850
1943
2011
2131
2294
2397
2349
2165
1944
1759
1593
1388
1123
831
553
320
159
92
111
168
213
246
292
368
453
510
523
493
421
317
216
160
159
182
187
164
137
129
133
123
91
57
41
40
25
-22
-84
-124
-120
-88
-59
-44
-31
-11
7
4
-29
-79
-133
-188
-241
-271
-257
-209
-174
-196
-274
-360
-418
-451
-503
-610
-777
-978
-1166
-1285
-1288
-1174
-998
-842
-737
-634
-448
-151
181
419
490
433
364
378
472
563
572
503
425
402
440
505
561
595
604
578
524
486
501
563
620
629
597
557
521
475
416
368
358
385
431
492
585
709
832
914
951
971
1000
1026
1021
967
880
797
749
745
766
783
778
760
752
771
809
848
872
880
880
883
902
939
990
1038
1067
1078
1088
1118
1166
1214
1241
1249
1250
1254
1257
1256
1255
1258
1256
1236
1205
1189
1200
1213
1188
1126
1075
1079
1124
1157
1141
1090
1042
1010
990
989
1032
1131
1278
1458
1658
1855
2004
2067
2066
2066
2095
2083
1922
1597
1230
966
825
694
455
121
-180
-337
-357
-326
-318
-337
-344
-315
-257
-188
-127
-96
-114
-185
-285
-370
-406
-396
-362
-329
-305
-290
-285
-291
-310
-335
-365
-399
-431
-452
-461
-475
-508
-558
-605
-630
-641
-662
-705
-754
-780
-772
-754
-761
-801
-845
-856
-833
-810
-822
-867
-906
-907
-890
-899
-947
-997
-1014
-998
-983
-988
-999
-995
-985
-994
-1023
-1043
-1040
-1044
-1087
-1155
-1180
-1121
-1015
-934
-912
-908
-871
-808
-771
-780
-801
-797
-778
-791
-839
-871
-833
-736
-641
-596
-594
-592
-564
-519
-495
-529
-623
-748
-849
-895
-898
-894
-901
-909
-893
-844
-771
-685
-604
-566
-592
-653
-689
-674
-654
-685
-759
-800
-762
-705
-716
-786
-795
-655
-439
-298
-286
-299
-216
-70
-14
-133
-316
-368
-230
-59
-34
-151
-249
-192
-14
134
146
44
-70
-127
-102
-9
99
146
78
-61
-139
-72
71
111
-31
-243
-339
-251
-100
-53
-161
-317
-375
-306
-186
-103
-54
47
282
629
968
1168
1223
1284
1476
1732
1830
1616
1204
884
830
921
865
521
41
-286
-292
-49
243
418
454
443
502
684
927
1097
1091
929
734
625
648
751
852
913
950
991
1044
1095
1143
1213
1311
1396
1395
1298
1199
1222
1384
1574
1655
1613
1557
1603
1749
1894
1933
1829
1636
1456
1377
1416
1496
1506
1403
1255
1177
1221
1321
1362
1287
1130
961
814
671
517
378
294
267
245
175
66
-23
-49
-33
-24
-59
-137
-222
-273
-278
-264
-287
-373
-484
-554
-575
-593
-646
-712
-757
-800
-901
-1062
-1208
-1275
-1291
-1334
-1429
-1527
-1581
-1609
-1647
-1678
-1640
-1529
-1410
-1338
-1285
-1211
-1133
-1096
-1082
-1007
-837
-669
-616
-654
-640
-497
-339
-342
-519
-676
-634
-446
-340
-449
-660
-746
-625
-434
-376
-477
-573
-504
-282
-84
-64
-193
-294
-230
-34
117
82
-112
-293
-322
-216
-108
-92
-130
-110
18
181
246
166
22
-69
-76
-52
-32
17
137
304
457
573
705
887
1059
1122
1083
1081
1229
1482
1668
1667
1552
1519
1680
1955
2136
2076
1814
1515
1310
1182
1021
763
473
259
140
39
-97
-201
-162
22
224
332
367
443
604
754
778
668
522
434
410
393
368
379
456
563
634
634
590
557
571
623
657
599
437
264
218
347
534
592
467
297
255
339
394
309
157
88
145
229
237
195
197
264
316
282
190
124
123
145
138
94
48
9
-34
-83
-99
-48
50
127
124
67
46
127
264
340
296
178
85
51
37
7
-24
-24
-6
-9
-34
-20
71
183
219
155
62
24
47
79
75
26
-62
-173
-253
-251
-176
-118
-145
-211
-209
-101
21
67
59
88
166
202
132
18
-29
16
62
23
-88
-190
-224
-187
-109
-49
-65
-161
-261
-258
-135
4
52
24
29
120
229
262
229
215
262
313
291
212
167
220
327
380
330
244
229
320
431
443
343
240
239
309
312
176
-7
-94
-41
40
23
-71
-107
-1
189
352
463
616
880
1196
1407
1422
1331
1323
1491
1722
1792
1600
1280
1047
971
912
693
315
-57
-287
-384
-444
-509
-549
-540
-518
-516
-500
-406
-244
-100
-45
-65
-80
-45
23
78
103
122
166
240
328
395
395
309
196
151
213
291
235
-8
-300
-448
-384
-234
-160
-186
-194
-98
33
76
16
-44
-47
-71
-213
-410
-484
-363
-196
-191
-352
-487
-443
-276
-164
-195
-312
-426
-515
-590
-644
-677
-741
-870
-998
-994
-815
-605
-538
-629
-720
-672
-525
-431
-476
-593
-667
-654
-594
-530
-472
-412
-345
-274
-215
-194
-213
-246
-250
-216
-179
-168
-183
-204
-222
-242
-247
-208
-132
-71
-73
-126
-185
-232
-285
-346
-377
-360
-355
-427
-546
-592
-498
-342
-268
-329
-433
-472
-431
-387
-395
-428
-433
-413
-398
-397
-383
-328
-243
-166
-134
-160
-230
-305
-334
-276
-137
7
61
13
-47
-15
104
196
163
45
-30
-1
62
67
21
12
70
109
39
-102
-181
-123
-9
19
-72
-170
-138
41
269
445
563
681
825
962
1041
1077
1132
1236
1335
1344
1221
1009
786
585
383
153
-109
-374
-597
-731
-767
-734
-694
-679
-663
-592
-469
-368
-369
-465
-566
-605
-614
-682
-832
-980
-1017
-917
-768
-679
-683
-734
-771
-785
-801
-843
-912
-990
-1057
-1099
-1113
-1113
-1131
-1154
-1144
-1102
-1088
-1157
-1274
-1342
-1315
-1254
-1221
-1124
-760
-41
835
1497
1706
1537
1243
981
682
177
-588
-1457
-2153
-2473
-2418
-2173
-1945
-1809
-1684
-1468
-1197
-1015
-1007
-1087
-1092
-949
-756
-623
-523
-353
-110
65
48
-96
-174
-107
-30
-94
-222
-169
163
555
681
461
146
2
37
50
-80
-254
-303
-213
-106
-63
-32
77
259
432
539
588
602
582
536
518
576
666
684
589
471
459
576
714
748
655
521
449
474
572
683
772
830
878
956
1091
1257
1380
1396
1303
1168
1076
1071
1125
1167
1132
1023
909
867
916
1002
1045
1017
954
925
971
1083
1212
1313
1375
1411
1434
1453
1475
1504
1532
1525
1466
1404
1422
1553
1750
1944
2137
2377
2649
2832
2834
2722
2676
2774
2885
2801
2483
2109
1882
1831
1800
1628
1305
951
693
560
486
399
297
234
258
356
468
551
609
669
730
760
739
685
628
581
547
535
550
568
551
489
410
351
316
294
310
412
598
781
854
801
708
663
653
591
413
150
-101
-259
-303
-259
-173
-89
-30
12
49
80
78
31
-32
-75
-111
-191
-316
-401
-360
-214
-93
-104
-216
-298
-263
-155
-74
-66
-97
-106
-69
-11
39
61
50
19
-4
4
48
101
141
171
205
242
259
243
212
195
205
223
217
178
134
132
192
276
311
244
116
28
45
133
193
173
119
129
239
395
503
512
450
388
374
396
399
345
261
223
282
401
491
514
510
543
617
678
684
655
633
627
618
609
629
682
732
741
724
730
766
789
765
716
685
679
666
633
612
635
689
727
724
698
678
659
608
519
433
394
398
405
376
320
288
321
404
489
552
622
754
966
1204
1385
1470
1508
1579
1710
1836
1847
1698
1448
1201
1008
826
573
220
-162
-465
-624
-656
-631
-605
-581
-530
-448
-368
-337
-370
-438
-512
-598
-711
-828
-885
-845
-743
-657
-625
-617
-589
-559
-587
-692
-810
-867
-850
-805
-761
-697
-588
-468
-392
-368
-348
-300
-261
-300
-417
-540
-603
-615
-630
-666
-697
-701
-698
-719
-750
-756
-728
-704
-724
-775
-813
-817
-804
-799
-802
-798
-787
-782
-788
-788
-767
-723
-668
-618
-578
-545
-520
-500
-488
-484
-481
-468
-436
-391
-355
-339
-329
-300
-253
-214
-205
-207
-179
-113
-49
-29
-46
-57
-35
0
13
-1
-12
-4
12
13
4
3
25
56
78
82
74
56
18
-41
-107
-160
-194
-221
-252
-285
-308
-319
-325
-332
-340
-335
-305
-254
-193
-137
-87
-32
35
108
165
194
206
220
239
246
225
184
152
142
141
126
101
83
81
74
42
-8
-43
-49
-45
-57
-84
-93
-71
-39
-28
-49
-84
-109
-117
-115
-96
-29
126
373
667
931
1105
1194
1263
1372
1504
1565
1465
1205
895
654
505
361
130
-189
-500
-706
-788
-798
-789
-768
-723
-658
-600
-559
-528
-502
-497
-537
-626
-730
-807
-833
-817
-780
-739
-704
-679
-676
-703
-760
-830
-887
-914
-918
-921
-939
-970
-1002
-1029
-1049
-1055
-1043
-1018
-994
-984
-981
-965
-929
-897
-911
-989
-1096
-1179
-1225
-1273
-1359
-1458
-1506
-1470
-1402
-1383
-1427
-1463
-1412
-1289
-1209
-1258
-1399
-1501
-1476
-1358
-1246
-1200
-1209
-1231
-1223
-1148
-1029
-987
-1158
-1536
-1909
-1989
-1694
-1236
-874
-680
-553
-398
-229
-99
-46
-140
-500
-1112
-1671
-1748
-1213
-421
101
162
32
72
316
463
219
-392
-1068
-1527
-1689
-1651
-1530
-1352
-1092
-797
-609
-619
-743
-786
-699
-659
-844
-1201
-1453
-1382
-1085
-866
-889
-1034
-1087
-1022
-979
-1023
-1023
-836
-536
-365
-446
-633
-682
-529
-315
-216
-287
-490
-734
-906
-886
-653
-407
-436
-802
-1189
-1194
-741
-188
11
-252
-652
-769
-470
5
297
273
75
-58
-24
106
227
309
395
526
707
951
1271
1614
1858
1936
1924
1988
2178
2363
2360
2115
1770
1500
1374
1314
1185
912
557
274
197
327
534
660
642
558
532
627
775
859
805
625
410
268
273
401
545
586
498
365
274
222
127
-22
-136
-122
-7
86
94
63
62
65
-9
-163
-311
-398
-467
-586
-739
-838
-842
-803
-802
-867
-976
-1097
-1193
-1211
-1122
-1000
-979
-1109
-1279
-1342
-1292
-1288
-1474
-1806
-2100
-2215
-2179
-2112
-2071
-2012
-1885
-1736
-1670
-1728
-1840
-1903
-1891
-1870
-1890
-1919
-1874
-1733
-1555
-1414
-1335
-1306
-1334
-1431
-1552
-1594
-1507
-1377
-1350
-1445
-1527
-1463
-1285
-1154
-1170
-1279
-1365
-1380
-1348
-1290
-1201
-1120
-1117
-1189
-1222
-1120
-928
-797
-817
-935
-1047
-1127
-1191
-1216
-1161
-1088
-1124
-1290
-1403
-1256
-883
-560
-515
-690
-810
-708
-485
-347
-357
-394
-337
-223
-182
-237
-259
-114
153
334
289
102
-11
60
221
287
199
56
-27
-29
12
82
200
338
406
341
204
123
161
248
263
175
50
-44
-87
-96
-53
99
367
655
834
881
934
1145
1501
1798
1837
1616
1321
1117
985
775
409
-23
-338
-470
-518
-612
-752
-817
-722
-535
-414
-433
-505
-480
-323
-134
-59
-133
-273
-378
-403
-364
-316
-315
-390
-524
-645
-674
-608
-533
-545
-633
-671
-569
-400
-326
-434
-639
-780
-791
-730
-685
-682
-710
-775
-869
-916
-823
-634
-535
-668
-941
-1104
-1039
-908
-953
-1200
-1451
-1528
-1476
-1464
-1554
-1648
-1658
-1644
-1710
-1841
-1915
-1873
-1824
-1891
-2025
-2058
-1932
-1799
-1830
-1977
-2010
-1813
-1538
-1437
-1561
-1703
-1666
-1480
-1326
-1316
-1377
-1384
-1301
-1190
-1117
-1108
-1165
-1264
-1350
-1365
-1329
-1339
-1452
-1603
-1649
-1527
-1336
-1220
-1216
-1233
-1181
-1066
-973
-958
-998
-1041
-1070
-1097
-1119
-1119
-1084
-1030
-988
-977
-994
-1021
-1035
-1024
-991
-954
-924
-880
-803
-720
-680
-699
-715
-661
-554
-491
-530
-603
-602
-507
-429
-470
-600
-704
-713
-682
-704
-808
-915
-940
-879
-822
-857
-974
-1070
-1052
-944
-876
-953
-1126
-1245
-1229
-1139
-1095
-1131
-1157
-1057
-812
-491
-196
16
141
223
318
434
516
485
318
66
-193
-424
-640
-864
-1088
-1296
-1496
-1697
-1884
-2022
-2073
-2021
-1886
-1719
-1583
-1516
-1514
-1536
-1543
-1521
-1497
-1518
-1621
-1794
-1944
-1946
-1772
-1534
-1420
-1510
-1706
-1834
-1809
-1702
-1647
-1700
-1807
-1878
-1863
-1782
-1678
-1581
-1511
-1483
-1512
-1583
-1652
-1670
-1641
-1618
-1651
-1736
-1830
-1909
-1997
-2113
-2225
-2281
-2289
-2316
-2407
-2519
-2565
-2522
-2458
-2435
-2442
-2427
-2385
-2351
-2333
-2297
-2230
-2180
-2203
-2273
-2294
-2209
-2088
-2034
-2058
-2079
-2025
-1920
-1842
-1816
-1790
-1721
-1641
-1622
-1683
-1760
-1760
-1646
-1479
-1372
-1395
-1510
-1600
-1582
-1498
-1476
-1598
-1817
-2002
-2075
-2062
-2027
-2001
-1977
-1952
-1929
-1881
-1765
-1598
-1477
-1488
-1596
-1673
-1639
-1562
-1562
-1659
-1747
-1731
-1637
-1568
-1573
-1595
-1562
-1475
-1400
-1365
-1342
-1301
-1259
-1259
-1304
-1345
-1339
-1302
-1288
-1328
-1406
-1480
-1519
-1526
-1519
-1521
-1544
-1587
-1635
-1664
-1656
-1626
-1602
-1613
-1673
-1765
-1856
-1922
-1974
-2036
-2115
-2178
-2191
-2160
-2132
-2134
-2142
-2099
-1977
-1790
-1578
-1378
-1223
-1129
-1062
-942
-728
-493
-388
-499
-762
-1023
-1188
-1289
-1426
-1671
-2020
-2390
-2648
-2694
-2552
-2378
-2331
-2408
-2452
-2331
-2104
-1958
-1999
-2156
-2286
-2348
-2409
-2517
-2619
-2612
-2485
-2329
-2242
-2229
-2220
-2163
-2099
-2096
-2150
-2180
-2130
-2051
-2042
-2111
-2130
-1991
-1766
-1659
-1763
-1929
-1926
-1727
-1555
-1613
-1840
-1973
-1867
-1648
-1545
-1619
-1715
-1680
-1538
-1445
-1479
-1559
-1584
-1569
-1611
-1734
-1830
-1784
-1636
-1547
-1613
-1744
-1763
-1622
-1465
-1460
-1606
-1745
-1741
-1614
-1481
-1413
-1371
-1299
-1196
-1105
-1043
-992
-949
-940
-976
-1015
-991
-877
-710
-546
-405
-280
-158
-45
42
96
115
113
99
85
85
113
149
159
122
59
22
54
121
131
15
-192
-354
-368
-269
-203
-278
-459
-586
-548
-397
-287
-307
-391
-399
-283
-136
-87
-147
-210
-189
-129
-151
-282
-399
-354
-141
92
191
146
65
37
51
25
-95
-276
-431
-513
-541
-555
-556
-504
-380
-234
-146
-151
-193
-192
-158
-172
-284
-438
-516
-473
-354
-214
-38
225
545
806
916
906
912
1019
1153
1155
946
629
400
347
360
244
-61
-420
-645
-696
-702
-790
-935
-1008
-939
-785
-649
-576
-553
-564
-606
-666
-707
-719
-735
-784
-847
-870
-849
-839
-897
-1032
-1216
-1423
-1604
-1678
-1602
-1452
-1374
-1420
-1470
-1380
-1184
-1078
-1187
-1395
-1493
-1437
-1398
-1523
-1743
-1864
-1829
-1777
-1849
-2005
-2085
-2036
-1952
-1935
-1961
-1942
-1868
-1820
-1854
-1936
-2007
-2069
-2160
-2261
-2308
-2279
-2224
-2190
-2136
-1987
-1760
-1587
-1578
-1703
-1832
-1880
-1902
-2009
-2215
-2392
-2409
-2269
-2093
-1985
-1933
-1854
-1721
-1605
-1584
-1646
-1723
-1781
-1855
-1976
-2109
-2170
-2128
-2039
-1984
-1993
-2032
-2037
-1980
-1899
-1869
-1939
-2065
-2139
-2100
-2013
-2009
-2129
-2269
-2298
-2209
-2111
-2096
-2138
-2159
-2134
-2119
-2162
-2242
-2309
-2332
-2317
-2291
-2272
-2264
-2260
-2237
-2188
-2135
-2110
-2105
-2089
-2052
-2025
-2035
-2054
-2033
-1972
-1938
-1976
-2051
-2093
-2089
-2097
-2162
-2251
-2293
-2280
-2273
-2320
-2373
-2343
-2209
-2055
-1985
-2012
-2041
-1974
-1817
-1658
-1564
-1500
-1370
-1130
-850
-649
-570
-547
-482
-348
-221
-207
-349
-588
-821
-980
-1087
-1224
-1450
-1735
-1978
-2094
-2084
-2030
-1998
-1985
-1949
-1870
-1773
-1687
-1621
-1568
-1533
-1533
-1570
-1613
-1627
-1608
-1576
-1548
-1524
-1502
-1490
-1510
-1560
-1617
-1644
-1633
-1600
-1571
-1559
-1558
-1561
-1567
-1574
-1581
-1584
-1585
-1587
-1588
-1586
-1593
-1630
-1694
-1754
-1771
-1743
-1711
-1719
-1776
-1847
-1894
-1914
-1937
-2004
-2125
-2264
-2375
-2437
-2472
-2523
-2594
-2647
-2656
-2642
-2660
-2719
-2763
-2746
-2695
-2693
-2778
-2888
-2929
-2878
-2810
-2803
-2858
-2907
-2894
-2832
-2767
-2731
-2723
-2725
-2724
-2715
-2699
-2686
-2689
-2709
-2725
-2717
-2686
-2658
-2640
-2620
-2574
-2509
-2450
-2415
-2394
-2370
-2329
-2269
-2197
-2127
-2082
-2074
-2083
-2063
-1994
-1903
-1854
-1877
-1941
-1982
-1964
-1907
-1853
-1826
-1807
-1764
-1690
-1604
-1530
-1466
-1396
-1319
-1258
-1236
-1242
-1241
-1208
-1151
-1109
-1108
-1138
-1172
-1189
-1182
-1154
-1115
-1097
-1134
-1221
-1298
-1304
-1233
-1166
-1185
-1287
-1374
-1346
-1203
-1035
-945
-966
-1051
-1138
-1198
-1237
-1257
-1230
-1109
-872
-560
-258
-32
124
269
423
528
485
263
-57
-354
-579
-779
-1008
-1262
-1506
-1748
-2035
-2353
-2583
-2586
-2377
-2156
-2105
-2184
-2156
-1871
-1482
-1316
-1521
-1899
-2126
-2080
-1916
-1823
-1805
-1753
-1643
-1580
-1644
-1789
-1906
-1965
-2024
-2122
-2210
-2209
-2085
-1881
-1695
-1616
-1660
-1725
-1699
-1605
-1621
-1849
-2110
-2082
-1707
-1341
-1355
-1674
-1838
-1600
-1248
-1230
-1558
-1787
-1606
-1253
-1191
-1488
-1722
-1545
-1171
-1130
-1579
-2092
-2158
-1788
-1481
-1620
-2050
-2299
-2142
-1810
-1656
-1732
-1792
-1675
-1504
-1473
-1556
-1526
-1287
-1008
-913
-991
-1027
-891
-693
-621
-701
-810
-874
-934
-1010
-1008
-847
-612
-503
-583
-672
-519
-98
322
429
194
-84
-67
277
638
690
437
206
273
572
769
631
287
44
61
219
311
300
325
502
788
1050
1215
1319
1414
1482
1474
1402
1335
1344
1425
1514
1576
1630
1709
1809
1894
1948
1981
2013
2014
1919
1705
1426
1203
1167
1342
1589
1687
1548
1331
1288
1477
1676
1603
1223
800
604
642
697
601
427
378
556
854
1090
1165
1138
1150
1287
1512
1683
1656
1414
1094
870
770
642
305
-261
-866
-1284
-1438
-1423
-1377
-1355
-1320
-1230
-1097
-984
-960
-1035
-1137
-1180
-1138
-1082
-1084
-1105
-1034
-843
-669
-674
-847
-1005
-1017
-976
-1078
-1336
-1503
-1351
-960
-653
-677
-952
-1174
-1139
-939
-856
-1061
-1448
-1733
-1715
-1486
-1327
-1424
-1668
-1793
-1663
-1411
-1287
-1377
-1531
-1576
-1503
-1435
-1448
-1490
-1494
-1482
-1521
-1607
-1650
-1601
-1521
-1510
-1558
-1542
-1377
-1153
-1041
-1119
-1280
-1336
-1222
-1082
-1122
-1369
-1590
-1497
-1071
-644
-572
-843
-1046
-820
-284
88
2
-345
-531
-423
-282
-362
-569
-600
-352
-44
71
7
-12
170
492
746
751
498
158
-18
108
402
564
435
200
178
434
694
679
451
315
424
617
671
621
728
1107
1542
1730
1641
1508
1508
1551
1466
1265
1149
1245
1422
1459
1344
1294
1476
1801
2030
2017
1844
1704
1722
1900
2136
2294
2268
2080
1914
1943
2120
2186
1966
1626
1509
1751
2119
2281
2191
2108
2250
2562
2835
2962
3026
3119
3217
3245
3208
3207
3288
3351
3265
3023
2754
2581
2499
2404
2207
1912
1566
1219
916
734
722
827
901
830
674
616
752
993
1164
1175
1070
927
772
621
529
555
650
663
508
295
222
356
553
621
531
417
403
478
527
505
468
482
509
449
286
148
165
320
443
391
207
64
72
191
278
232
84
-49
-71
1
62
30
-71
-136
-134
-158
-301
-509
-601
-483
-272
-171
-226
-270
-136
140
363
389
249
79
-29
-84
-143
-231
-324
-371
-336
-228
-99
10
91
155
196
181
105
17
-28
-30
-32
-48
-42
24
145
274
383
460
492
482
468
506
613
734
801
797
779
807
881
945
939
854
734
635
605
654
760
875
944
949
937
971
1062
1129
1066
881
728
756
942
1105
1111
1020
1007
1133
1278
1285
1138
964
881
893
937
983
1048
1135
1216
1267
1295
1315
1314
1274
1208
1140
1091
1065
1058
1075
1113
1155
1199
1265
1377
1529
1682
1791
1855
1897
1948
2028
2142
2255
2296
2203
1986
1735
1530
1355
1124
777
358
-14
-244
-324
-313
-276
-241
-206
-160
-103
-44
-4
-4
-63
-187
-364
-544
-666
-709
-705
-703
-717
-719
-697
-690
-744
-850
-938
-964
-966
-1024
-1139
-1221
-1185
-1062
-983
-1033
-1154
-1218
-1168
-1088
-1111
-1273
-1482
-1623
-1680
-1731
-1848
-2012
-2141
-2184
-2176
-2183
-2231
-2286
-2303
-2281
-2265
-2297
-2377
-2462
-2513
-2532
-2562
-2634
-2730
-2802
-2823
-2812
-2796
-2778
-2741
-2698
-2686
-2716
-2728
-2659
-2527
-2433
-2437
-2482
-2466
-2364
-2269
-2264
-2315
-2315
-2222
-2111
-2066
-2072
-2044
-1957
-1886
-1907
-1982
-1998
-1897
-1751
-1661
-1639
-1605
-1502
-1368
-1275
-1238
-1207
-1155
-1123
-1162
-1241
-1264
-1186
-1079
-1053
-1136
-1232
-1230
-1123
-1018
-1008
-1068
-1081
-977
-812
-698
-668
-637
-513
-328
-217
-253
-355
-377
-278
-169
-168
-249
-275
-172
-14
74
70
70
145
244
266
192
106
102
166
208
172
90
49
88
171
225
203
122
45
26
47
37
-34
-97
-41
155
372
460
412
375
483
696
838
786
597
424
329
238
54
-214
-466
-635
-748
-861
-968
-1002
-941
-860
-846
-912
-985
-988
-934
-890
-907
-961
-993
-958
-852
-689
-485
-256
-39
116
184
193
187
167
84
-105
-363
-577
-659
-620
-563
-572
-636
-678
-641
-534
-418
-357
-379
-462
-544
-566
-514
-428
-365
-337
-309
-243
-147
-60
-10
11
24
47
83
114
121
102
71
51
50
57
58
60
77
106
125
125
126
142
158
143
99
80
132
247
357
410
415
415
435
460
467
458
451
455
464
470
478
501
538
576
607
629
646
663
686
725
790
877
971
1054
1115
1160
1193
1215
1219
1201
1155
1101
1077
1129
1258
1408
1514
1579
1676
1863
2091
2222
2164
1971
1780
1667
1581
1435
1233
1080
1058
1144
1249
1320
1385
1479
1572
1588
1501
1372
1289
1276
1274
1233
1173
1159
1222
1315
1357
1325
1273
1271
1320
1361
1340
1276
1234
1258
1318
1347
1323
1316
1422
1660
1931
2096
2112
2070
2112
2291
2515
2628
2546
2322
2086
1918
1801
1648
1398
1067
746
530
458
497
585
680
774
875
968
1039
1085
1117
1132
1101
998
859
766
770
842
906
921
915
926
940
911
825
741
731
797
864
866
805
742
715
704
668
597
520
466
441
425
407
382
348
297
232
164
107
66
38
13
-13
-41
-72
-106
-137
-163
-193
-238
-307
-384
-445
-469
-459
-440
-433
-434
-424
-391
-348
-323
-325
-340
-345
-334
-318
-308
-304
-301
-301
-307
-314
-309
-290
-268
-253
-243
-229
-205
-178
-160
-164
-195
-242
-282
-298
-295
-299
-316
-328
-303
-236
-158
-106
-96
-109
-113
-90
-51
-29
-54
-118
-177
-199
-197
-214
-264
-308
-301
-250
-204
-201
-214
-182
-81
38
99
84
40
25
51
87
120
182
291
391
391
271
135
111
199
256
154
-63
-208
-151
58
256
323
270
183
136
146
193
243
256
221
163
135
176
283
438
635
871
1115
1321
1466
1578
1708
1869
2017
2093
2071
1964
1801
1605
1405
1218
1040
843
614
397
256
221
262
336
432
551
677
787
906
1073
1277
1417
1395
1241
1106
1106
1199
1238
1150
1006
924
920
906
820
702
634
630
626
577
525
549
657
759
765
687
633
692
841
976
1009
940
840
777
771
797
809
778
698
597
518
495
523
565
578
549
502
466
442
414
375
339
329
341
350
340
337
380
473
568
613
599
563
560
601
647
648
604
579
622
705
739
661
505
386
377
435
444
353
248
255
409
602
697
651
514
342
148
-41
-138
-58
168
387
494
549
701
994
1266
1312
1102
804
597
507
446
374
342
398
508
589
626
663
708
711
643
563
534
522
452
341
315
444
600
574
322
44
-26
132
323
359
240
106
85
181
296
326
247
131
76
114
187
219
200
176
157
105
4
-77
-69
14
85
109
147
291
565
906
1220
1432
1495
1421
1294
1216
1214
1197
1052
751
382
70
-105
-153
-163
-252
-468
-718
-834
-722
-479
-313
-328
-426
-426
-279
-103
-48
-121
-194
-178
-140
-209
-392
-544
-530
-395
-302
-350
-468
-527
-497
-440
-393
-339
-286
-327
-507
-713
-770
-654
-545
-618
-818
-937
-886
-794
-818
-927
-980
-923
-866
-901
-999
-1060
-1069
-1113
-1262
-1484
-1696
-1814
-1801
-1681
-1538
-1505
-1611
-1717
-1664
-1479
-1381
-1519
-1769
-1911
-1914
-1967
-2185
-2405
-2384
-2134
-1935
-1971
-2095
-2044
-1806
-1631
-1681
-1803
-1755
-1545
-1420
-1539
-1744
-1764
-1548
-1364
-1496
-1894
-2216
-2169
-1809
-1483
-1461
-1678
-1850
-1786
-1581
-1447
-1433
-1399
-1250
-1100
-1101
-1178
-1100
-830
-659
-872
-1352
-1662
-1518
-1105
-827
-826
-882
-740
-414
-119
6
-16
-105
-220
-309
-278
-72
230
472
589
692
937
1304
1573
1520
1185
881
906
1249
1595
1644
1440
1311
1499
1869
2041
1815
1390
1181
1390
1834
2188
2310
2337
2463
2696
2865
2842
2697
2614
2688
2865
3055
3242
3454
3662
3790
3843
3936
4134
4314
4253
3900
3462
3192
3129
3082
2876
2535
2197
1930
1702
1508
1417
1460
1538
1508
1364
1242
1268
1413
1532
1497
1287
953
586
312
233
320
396
298
38
-200
-255
-174
-142
-265
-490
-690
-804
-869
-949
-1045
-1126
-1171
-1196
-1223
-1246
-1241
-1193
-1120
-1074
-1102
-1200
-1316
-1407
-1469
-1510
-1524
-1506
-1485
-1502
-1535
-1486
-1287
-1020
-866
-919
-1064
-1096
-966
-839
-897
-1120
-1300
-1278
-1110
-962
-909
-899
-862
-816
-818
-874
-928
-958
-1006
-1111
-1245
-1333
-1336
-1286
-1223
-1145
-1036
-888
-732
-618
-566
-558
-576
-616
-672
-726
-761
-762
-741
-718
-700
-669
-611
-526
-445
-406
-424
-487
-567
-620
-625
-588
-529
-481
-467
-493
-524
-500
-388
-233
-140
-175
-279
-306
-190
-12
102
127
159
275
431
527
539
545
598
645
618
534
474
482
517
529
526
540
559
548
506
495
564
683
771
782
742
714
748
840
921
905
769
614
584
703
830
838
806
962
1402
1936
2263
2301
2261
2367
2595
2708
2556
2233
1932
1721
1514
1231
903
623
432
283
143
43
40
132
247
313
335
368
450
549
595
555
465
391
354
320
260
210
241
360
481
505
447
419
502
622
625
468
289
261
394
512
449
231
46
32
150
234
179
24
-115
-183
-218
-296
-416
-505
-512
-475
-478
-527
-532
-421
-270
-252
-424
-646
-737
-679
-624
-698
-855
-950
-925
-852
-821
-827
-811
-770
-754
-779
-793
-742
-634
-513
-411
-340
-294
-256
-198
-133
-138
-281
-513
-653
-568
-339
-189
-217
-298
-245
-38
156
197
128
80
105
139
127
96
109
164
214
227
225
232
239
232
216
199
167
93
-1
-56
-42
-4
-17
-103
-192
-187
-59
114
225
239
221
271
415
569
611
508
357
295
367
479
501
398
277
268
382
506
539
488
442
439
438
403
356
330
299
203
62
-16
39
163
212
133
15
-12
85
240
398
568
772
1007
1236
1423
1551
1620
1658
1693
1709
1631
1394
1043
714
509
380
188
-126
-473
-700
-737
-658
-583
-562
-561
-519
-430
-341
-299
-304
-326
-355
-422
-542
-660
-689
-600
-465
-377
-355
-341
-289
-236
-249
-338
-438
-486
-491
-505
-558
-630
-685
-715
-735
-756
-775
-783
-788
-796
-808
-821
-837
-861
-893
-931
-967
-994
-1010
-1021
-1040
-1071
-1104
-1120
-1112
-1097
-1105
-1134
-1149
-1118
-1055
-1008
-1010
-1032
-1020
-958
-891
-866
-882
-891
-859
-800
-750
-726
-714
-692
-652
-604
-561
-524
-495
-462
-415
-357
-313
-309
-341
-379
-395
-384
-363
-355
-372
-400
-421
-409
-352
-273
-216
-202
-211
-204
-169
-127
-100
-85
-73
-74
-111
-168
-195
-166
-117
-111
-155
-187
-158
-88
-40
-43
-58
-37
17
62
78
90
127
184
231
253
260
268
272
256
222
186
159
136
115
106
120
140
138
111
97
129
201
261
265
220
174
164
193
236
264
261
234
208
224
296
390
465
527
638
839
1084
1266
1328
1326
1366
1486
1608
1620
1492
1287
1096
946
790
582
324
56
-187
-387
-526
-570
-510
-399
-320
-309
-321
-287
-206
-143
-164
-272
-420
-560
-660
-709
-714
-705
-728
-792
-859
-886
-881
-890
-944
-1014
-1045
-1018
-946
-861
-788
-744
-730
-726
-707
-675
-660
-681
-715
-734
-742
-761
-789
-785
-735
-686
-701
-782
-859
-877
-862
-889
-996
-1136
-1226
-1223
-1158
-1082
-1018
-954
-867
-759
-648
-553
-477
-412
-355
-313
-294
-293
-285
-244
-172
-98
-53
-41
-32
11
91
171
207
196
181
204
260
300
293
269
276
320
359
359
357
420
552
683
735
711
686
719
795
852
863
864
888
920
924
896
886
928
998
1036
1016
978
971
993
1003
986
981
1023
1085
1101
1054
1012
1046
1134
1175
1107
992
941
983
1042
1036
980
952
980
1012
997
962
977
1060
1151
1177
1135
1084
1074
1100
1120
1108
1077
1054
1063
1103
1153
1182
1177
1163
1180
1248
1350
1459
1575
1727
1927
2144
2336
2492
2642
2812
2965
3024
2927
2695
2410
2149
1926
1688
1391
1062
789
646
625
650
665
685
751
857
943
962
944
953
1000
1020
952
824
730
731
807
891
942
968
996
1040
1095
1141
1154
1124
1075
1050
1060
1059
997
889
816
838
922
974
945
875
842
875
930
953
928
882
847
832
826
811
787
759
738
722
713
709
718
727
715
667
602
551
529
514
477
421
382
392
447
521
596
659
700
705
681
653
626
582
513
453
455
522
599
632
639
683
787
891
920
867
800
776
791
799
779
750
737
744
757
769
778
787
799
816
844
875
894
892
880
878
889
897
884
850
808
776
763
767
788
827
885
943
985
1006
1025
1058
1096
1112
1100
1088
1102
1132
1134
1091
1037
1021
1042
1051
1009
937
887
882
897
896
871
843
840
868
906
909
832
691
570
557
642
702
635
483
414
545
813
1048
1166
1245
1419
1713
2015
2200
2248
2240
2247
2265
2231
2100
1882
1627
1377
1147
921
677
421
192
47
10
58
132
193
250
338
469
612
713
745
723
679
644
627
618
600
568
538
534
555
576
567
521
457
392
331
284
270
301
358
401
399
371
376
453
593
730
789
741
637
562
569
628
659
614
527
471
487
552
606
614
582
541
511
498
489
474
451
423
399
379
354
327
303
289
278
258
228
197
176
166
163
159
149
135
122
107
87
65
52
49
48
37
17
6
10
19
19
15
26
60
97
118
129
148
180
200
187
151
121
107
91
59
106
-12
-30
-53
-87
-118
-129
-129
-145
-190
-244
-274
-274
-270
-288
-325
-349
-332
-290
-261
-272
-304
-320
-309
-295
-307
-330
-320
-254
-165
-103
-83
-71
-35
12
25
-15
-80
-129
-151
-165
-184
-201
-210
-214
-218
-212
-190
-167
-169
-209
-273
-336
-379
-399
-380
-306
-166
29
244
440
582
659
691
717
755
766
675
447
128
-178
-397
-552
-729
-999
-1343
-1660
-1843
-1866
-1798
-1741
-1749
-1797
-1823
-1788
-1716
-1667
-1685
-1770
-1882
-1979
-2029
-2024
-1967
-1870
-1771
-1709
-1693
-1700
-1697
-1688
-1712
-1789
-1877
-1928
-1945
-1986
-2074
-2149
-2133
-2031
-1948
-1965
-2049
-2100
-2073
-2020
-2011
-2054
-2122
-2202
-2294
-2379
-2417
-2414
-2445
-2568
-2729
-2814
-2771
-2687
-2695
-2803
-2869
-2757
-2494
-2271
-2260
-2442
-2632
-2678
-2607
-2587
-2744
-3013
-3222
-3259
-3184
-3153
-3250
-3425
-3557
-3577
-3509
-3408
-3321
-3272
-3275
-3325
-3367
-3362
-3345
-3390
-3527
-3663
-3671
-3539
-3402
-3369
-3364
-3246
-3040
-2977
-3211
-3561
-3669
-3430
-3135
-3133
-3368
-3421
-3010
-2323
-1812
-1714
-1886
-2062
-2131
-2155
-2193
-2240
-2307
-2430
-2586
-2654
-2535
-2304
-2148
-2161
-2247
-2234
-2098
-1971
-1968
-2027
-1993
-1817
-1641
-1638
-1800
-1917
-1810
-1558
-1405
-1464
-1580
-1541
-1360
-1240
-1297
-1411
-1406
-1303
-1274
-1392
-1506
-1454
-1280
-1182
-1262
-1409
-1451
-1347
-1197
-1124
-1176
-1316
-1462
-1513
-1417
-1223
-1044
-944
-880
-769
-583
-364
-139
101
355
559
651
650
646
691
716
616
379
111
-62
-107
-94
-99
-100
-25
149
328
402
380
380
478
583
536
293
-7
-189
-228
-239
-328
-496
-689
-888
-1097
-1292
-1438
-1553
-1701
-1903
-2082
-2150
-2126
-2126
-2222
-2367
-2472
-2516
-2549
-2612
-2676
-2712
-2759
-2852
-2960
-2993
-2919
-2816
-2779
-2815
-2843
-2799
-2699
-2600
-2534
-2492
-2454
-2399
-2317
-2201
-2064
-1939
-1855
-1809
-1778
-1751
-1734
-1734
-1752
-1792
-1844
-1877
-1851
-1746
-1603
-1487
-1449
-1488
-1548
-1565
-1527
-1491
-1518
-1608
-1681
-1640
-1474
-1281
-1184
-1212
-1279
-1294
-1264
-1285
-1440
-1696
-1932
-2046
-2033
-1967
-1914
-1866
-1783
-1652
-1518
-1413
-1344
-1307
-1320
-1412
-1572
-1724
-1794
-1776
-1737
-1730
-1736
-1692
-1570
-1436
-1364
-1361
-1379
-1362
-1305
-1253
-1223
-1175
-1056
-886
-755
-742
-813
-850
-777
-658
-618
-696
-791
-766
-614
-453
-410
-485
-576
-578
-477
-342
-260
-266
-313
-316
-235
-124
-81
-151
-265
-314
-274
-202
-159
-110
51
365
739
1018
1124
1106
1098
1187
1329
1396
1323
1182
1112
1160
1202
1076
766
414
157
-6
-160
-326
-431
-430
-369
-320
-268
-157
-11
70
48
19
90
219
263
184
117
192
340
366
210
21
-32
20
10
-137
-307
-369
-324
-268
-248
-220
-175
-177
-274
-388
-396
-289
-217
-305
-502
-651
-683
-683
-744
-828
-811
-672
-558
-627
-841
-983
-914
-745
-720
-925
-1173
-1220
-1040
-842
-801
-857
-806
-577
-324
-244
-351
-466
-438
-321
-302
-471
-716
-825
-725
-534
-427
-440
-456
-354
-156
9
63
44
25
24
15
-6
-5
21
30
5
11
112
260
321
243
131
119
198
229
130
-20
-73
-6
53
5
-103
-140
-59
64
138
147
145
161
164
133
84
57
60
65
56
64
137
283
442
542
560
540
548
599
647
631
545
451
421
466
535
571
569
550
529
496
444
388
351
328
290
228
186
214
311
416
465
454
417
388
369
364
400
518
727
979
1211
1394
1538
1673
1812
1949
2046
2048
1926
1715
1504
1351
1231
1059
804
522
289
109
-64
-235
-339
-318
-210
-127
-147
-231
-268
-193
-65
-1
-73
-239
-384
-405
-301
-153
-56
-46
-99
-160
-195
-197
-188
-180
-181
-181
-172
-144
-95
-34
28
71
73
21
-62
-136
-176
-193
-227
-293
-371
-425
-446
-464
-515
-595
-678
-758
-855
-987
-1134
-1257
-1355
-1465
-1618
-1770
-1843
-1819
-1766
-1774
-1857
-1957
-2033
-2113
-2242
-2412
-2554
-2620
-2622
-2601
-2566
-2492
-2361
-2203
-2076
-2016
-2014
-2030
-2030
-2012
-1998
-2000
-2013
-2018
-2000
-1971
-1946
-1935
-1932
-1935
-1954
-1999
-2056
-2088
-2065
-1994
-1923
-1891
-1888
-1859
-1774
-1671
-1614
-1619
-1634
-1607
-1560
-1568
-1664
-1792
-1872
-1886
-1886
-1909
-1931
-1910
-1847
-1791
-1770
-1767
-1757
-1750
-1763
-1781
-1751
-1648
-1518
-1427
-1386
-1350
-1279
-1196
-1161
-1201
-1284
-1352
-1375
-1362
-1340
-1324
-1317
-1306
-1280
-1242
-1215
-1229
-1289
-1368
-1427
-1452
-1460
-1472
-1477
-1454
-1409
-1374
-1366
-1359
-1305
-1197
-1070
-956
-840
-696
-547
-464
-479
-537
-556
-539
-584
-771
-1056
-1311
-1469
-1592
-1800
-2120
-2446
-2651
-2698
-2672
-2670
-2718
-2763
-2741
-2653
-2551
-2488
-2479
-2497
-2515
-2527
-2540
-2545
-2522
-2454
-2350
-2238
-2142
-2067
-2005
-1944
-1884
-1836
-1805
-1782
-1741
-1662
-1557
-1474
-1458
-1503
-1558
-1569
-1534
-1495
-1489
-1505
-1499
-1436
-1335
-1246
-1200
-1191
-1185
-1154
-1093
-1020
-967
-957
-974
-971
-910
-795
-679
-613
-605
-617
-615
-591
-551
-507
-460
-404
-338
-255
-166
-87
-23
25
51
38
-23
-88
-104
-101
-204
-520
-1006
-1483
-1801
-1944
-1964
-1848
-1513
-944
-269
361
914
1463
2014
2422
2527
2337
2039
1825
1726
1651
1534
1415
1370
1407
1445
1406
1274
1096
929
780
613
417
235
140
156
226
249
179
60
-33
-67
-61
-38
11
97
190
240
242
240
282
370
465
541
605
665
716
752
784
816
824
786
708
623
550
474
389
342
379
481
562
570
547
565
630
663
589
426
265
177
167
219
340
552
842
1147
1404
1601
1778
1974
2190
2381
2488
2488
2415
2333
2281
2240
2147
1959
1697
1427
1209
1072
1019
1040
1115
1197
1245
1256
1282
1375
1523
1639
1640
1517
1348
1223
1166
1135
1073
968
855
773
726
682
623
576
594
684
786
818
757
681
686
805
974
1099
1141
1129
1122
1149
1202
1240
1217
1113
959
831
798
861
954
995
970
928
916
931
941
926
902
891
890
890
907
968
1066
1146
1160
1130
1135
1221
1341
1408
1385
1311
1232
1153
1044
908
787
714
684
668
659
676
738
837
938
992
967
883
806
798
851
897
889
856
851
890
932
944
941
942
924
861
782
758
818
910
954
935
902
897
894
850
769
706
699
739
783
805
816
836
872
910
928
921
908
917
960
1012
1031
997
940
906
909
906
842
707
576
545
640
793
897
908
887
923
1028
1114
1087
942
762
624
541
486
452
453
489
514
483
400
320
283
277
272
275
332
475
690
932
1170
1408
1662
1919
2132
2243
2221
2087
1897
1697
1485
1222
890
544
277
142
101
73
27
8
83
253
448
593
672
727
803
900
975
991
954
907
891
907
909
848
726
600
518
481
451
414
396
421
473
504
504
506
531
560
550
508
492
541
619
656
629
598
628
723
819
844
778
651
514
412
364
352
329
273
212
207
279
377
431
423
402
413
446
455
419
370
360
402
454
471
448
422
433
480
532
561
565
566
587
643
730
833
918
948
918
868
859
912
990
1033
1016
968
941
962
1009
1037
1025
1001
1015
1094
1204
1281
1293
1263
1237
1229
1206
1131
1004
860
733
647
611
622
657
681
684
690
719
757
765
722
644
562
495
444
414
411
424
419
376
316
274
263
265
253
221
182
143
100
47
-8
-54
-79
-93
-115
-154
-191
-199
-178
-163
-191
-261
-336
-381
-405
-427
-431
-364
-186
70
320
493
583
633
695
785
869
878
756
514
227
-10
-181
-351
-597
-916
-1223
-1433
-1530
-1560
-1555
-1514
-1428
-1328
-1257
-1217
-1175
-1114
-1069
-1094
-1200
-1328
-1417
-1456
-1478
-1506
-1518
-1494
-1459
-1479
-1576
-1684
-1713
-1637
-1528
-1471
-1481
-1497
-1469
-1415
-1383
-1389
-1408
-1413
-1409
-1413
-1417
-1412
-1414
-1450
-1526
-1603
-1645
-1664
-1713
-1813
-1919
-1963
-1942
-1930
-1977
-2027
-1979
-1833
-1705
-1703
-1785
-1807
-1702
-1570
-1540
-1596
-1615
-1538
-1452
-1466
-1551
-1602
-1607
-1654
-1760
-1799
-1654
-1425
-1324
-1399
-1459
-1306
-1011
-835
-908
-1084
-1135
-1018
-901
-941
-1102
-1235
-1252
-1200
-1179
-1247
-1362
-1440
-1422
-1334
-1262
-1258
-1290
-1264
-1122
-914
-739
-677
-723
-797
-803
-712
-609
-628
-812
-1041
-1160
-1137
-1085
-1084
-1070
-950
-773
-683
-704
-668
-427
-82
109
37
-120
-114
90
309
375
319
274
313
402
495
612
787
986
1117
1123
1064
1074
1233
1471
1620
1583
1456
1425
1577
1797
1902
1834
1707
1670
1744
1834
1870
1891
2001
2247
2547
2762
2835
2858
2972
3211
3455
3547
3475
3369
3335
3315
3169
2856
2498
2238
2087
1939
1745
1575
1531
1606
1700
1723
1683
1627
1560
1453
1295
1122
977
877
818
786
782
789
785
758
699
592
435
270
174
182
230
198
57
-84
-93
2
31
-113
-344
-481
-456
-410
-525
-805
-1076
-1186
-1165
-1170
-1284
-1430
-1476
-1400
-1303
-1304
-1409
-1534
-1594
-1590
-1574
-1607
-1702
-1832
-1944
-1995
-1980
-1933
-1899
-1885
-1849
-1759
-1638
-1553
-1536
-1552
-1544
-1491
-1429
-1400
-1401
-1401
-1393
-1374
-1326
-1229
-1112
-1061
-1132
-1269
-1333
-1254
-1109
-1073
-1218
-1419
-1468
-1318
-1140
-1122
-1234
-1258
-1076
-853
-861
-1111
-1299
-1148
-762
-530
-688
-1036
-1164
-913
-539
-411
-608
-858
-872
-667
-502
-544
-694
-730
-585
-418
-408
-524
-566
-408
-150
-1
-44
-157
-146
58
336
491
427
217
67
142
399
628
652
494
338
340
498
699
839
861
735
493
278
281
552
891
1000
791
490
427
721
1202
1562
1639
1514
1402
1470
1718
2009
2211
2287
2290
2273
2214
2078
1890
1736
1640
1503
1193
733
308
85
54
102
184
348
607
847
935
891
881
978
1060
947
625
296
179
310
542
677
629
488
420
520
709
777
608
318
140
161
224
122
-153
-376
-346
-95
143
180
41
-91
-79
55
184
220
177
114
57
-16
-102
-179
-266
-381
-490
-505
-382
-243
-287
-541
-763
-679
-306
33
68
-145
-326
-317
-201
-130
-153
-241
-388
-563
-634
-466
-131
88
6
-212
-241
6
279
316
168
98
194
256
106
-124
-138
120
368
306
0
-199
-73
202
284
77
-163
-153
93
303
290
157
136
277
395
330
162
112
232
315
152
-186
-417
-363
-130
25
-16
-148
-198
-98
104
305
431
454
400
343
361
464
563
557
426
245
123
101
141
194
233
255
261
253
253
290
355
390
328
153
-63
-199
-184
-60
41
9
-129
-214
-121
103
266
239
120
139
399
756
979
1007
994
1110
1328
1459
1372
1111
824
606
430
218
-60
-355
-594
-741
-821
-888
-943
-937
-835
-685
-582
-555
-530
-446
-358
-397
-600
-845
-971
-957
-916
-939
-984
-952
-821
-679
-614
-624
-650
-662
-688
-759
-860
-942
-975
-968
-949
-939
-944
-953
-958
-960
-971
-1012
-1086
-1173
-1240
-1270
-1276
-1279
-1302
-1352
-1421
-1501
-1580
-1654
-1729
-1812
-1892
-1933
-1916
-1889
-1930
-2051
-2157
-2133
-2006
-1940
-2050
-2244
-2320
-2208
-2064
-2077
-2232
-2332
-2258
-2105
-2046
-2102
-2133
-2042
-1895
-1824
-1847
-1852
-1767
-1638
-1551
-1520
-1488
-1435
-1414
-1447
-1461
-1369
-1209
-1125
-1202
-1349
-1392
-1269
-1101
-1047
-1125
-1217
-1221
-1151
-1097
-1120
-1209
-1318
-1403
-1424
-1367
-1265
-1187
-1168
-1164
-1112
-1011
-941
-968
-1066
-1140
-1130
-1068
-1027
-1028
-1026
-968
-854
-735
-654
-607
-557
-492
-458
-503
-607
-678
-654
-586
-584
-686
-800
-812
-723
-655
-709
-852
-957
-947
-865
-822
-869
-958
-1003
-971
-902
-848
-809
-737
-584
-364
-152
-13
46
79
136
228
327
384
362
256
92
-78
-223
-359
-544
-815
-1138
-1415
-1558
-1562
-1511
-1496
-1534
-1551
-1476
-1333
-1233
-1270
-1422
-1586
-1695
-1795
-1958
-2168
-2299
-2234
-1984
-1669
-1398
-1183
-972
-743
-546
-457
-485
-570
-637
-674
-735
-886
-1116
-1340
-1476
-1517
-1538
-1618
-1764
-1908
-1982
-1956
-1845
-1700
-1581
-1529
-1519
-1479
-1367
-1236
-1188
-1261
-1374
-1406
-1328
-1224
-1191
-1241
-1300
-1297
-1237
-1182
-1175
-1205
-1219
-1173
-1070
-940
-791
-621
-456
-364
-401
-520
-591
-537
-442
-464
-641
-828
-846
-676
-476
-386
-391
-380
-317
-291
-392
-595
-785
-898
-978
-1094
-1226
-1273
-1180
-1001
-828
-683
-513
-304
-131
-80
-130
-165
-113
-25
6
-10
35
200
404
524
527
501
525
556
470
206
-148
-417
-484
-380
-238
-162
-133
-43
175
463
671
707
610
500
447
431
405
376
392
462
534
570
591
654
761
847
851
800
785
849
939
982
968
947
951
938
864
770
769
944
1250
1544
1701
1712
1669
1687
1811
1991
2111
2064
1845
1561
1363
1325
1378
1352
1121
722
342
165
215
345
384
286
156
125
229
396
526
581
581
552
495
417
354
358
446
559
616
586
512
483
524
585
586
504
402
349
346
330
244
102
-18
-67
-55
-20
24
82
143
161
120
83
141
298
439
424
248
56
-10
33
28
-140
-405
-588
-595
-507
-468
-514
-557
-514
-425
-388
-433
-487
-482
-443
-442
-494
-532
-503
-438
-387
-350
-283
-188
-142
-198
-302
-341
-278
-191
-189
-291
-408
-445
-406
-370
-404
-490
-555
-542
-474
-425
-446
-503
-517
-449
-349
-300
-318
-324
-234
-66
72
85
-4
-95
-107
-63
-36
-72
-153
-229
-270
-279
-269
-253
-248
-260
-274
-265
-225
-185
-192
-258
-341
-402
-448
-520
-635
-760
-850
-899
-927
-941
-922
-865
-808
-800
-834
-845
-777
-656
-565
-570
-646
-698
-644
-496
-361
-338
-441
-586
-681
-712
-729
-765
-775
-682
-466
-190
57
222
317
376
428
477
484
380
130
-213
-522
-711
-826
-1001
-1291
-1600
-1769
-1741
-1604
-1475
-1380
-1275
-1137
-1014
-946
-905
-830
-714
-631
-653
-762
-864
-875
-799
-706
-657
-659
-674
-671
-653
-646
-662
-683
-679
-644
-598
-565
-545
-522
-500
-491
-501
-502
-465
-394
-319
-269
-238
-205
-169
-149
-159
-183
-192
-178
-157
-154
-176
-215
-249
-273
-287
-297
-310
-328
-350
-369
-377
-372
-360
-356
-365
-388
-403
-381
-312
-226
-182
-211
-270
-283
-226
-161
-171
-258
-342
-351
-304
-281
-322
-386
-413
-405
-410
-457
-527
-585
-623
-650
-667
-670
-674
-699
-739
-753
-718
-664
-641
-666
-711
-743
-756
-756
-744
-725
-721
-746
-779
-778
-729
-669
-638
-632
-610
-552
-484
-445
-441
-444
-430
-403
-384
-391
-425
-470
-493
-477
-436
-411
-425
-456
-464
-440
-420
-438
-476
-491
-471
-467
-521
-617
-688
-696
-678
-695
-757
-803
-770
-668
-571
-539
-553
-548
-480
-361
-217
-54
134
329
490
602
706
842
988
1052
958
725
439
178
-54
-297
-578
-881
-1160
-1367
-1466
-1461
-1386
-1295
-1235
-1218
-1234
-1255
-1264
-1262
-1265
-1290
-1349
-1434
-1517
-1566
-1563
-1515
-1462
-1464
-1550
-1693
-1804
-1816
-1756
-1710
-1732
-1778
-1766
-1681
-1597
-1601
-1699
-1814
-1868
-1846
-1804
-1791
-1823
-1857
-1847
-1793
-1768
-1841
-1997
-2122
-2126
-2071
-2096
-2229
-2331
-2241
-2002
-1842
-1924
-2168
-2364
-2386
-2260
-2070
-1897
-1843
-2023
-2380
-2609
-2426
-1940
-1659
-1963
-2623
-2989
-2699
-2091
-1792
-2022
-2389
-2437
-2203
-2106
-2383
-2783
-2885
-2611
-2311
-2327
-2619
-2822
-2632
-2129
-1670
-1567
-1844
-2267
-2542
-2533
-2313
-2074
-2008
-2197
-2546
-2799
-2691
-2172
-1530
-1198
-1359
-1752
-1916
-1667
-1271
-1154
-1440
-1857
-2046
-1891
-1557
-1258
-1090
-1032
-999
-907
-732
-537
-405
-360
-335
-283
-266
-349
-447
-372
-63
299
453
383
344
547
884
1047
908
681
652
848
1016
927
642
438
514
801
1049
1076
924
792
822
966
1049
958
767
677
822
1131
1437
1647
1807
2006
2244
2419
2460
2416
2394
2441
2481
2392
2132
1783
1475
1273
1135
991
821
674
606
596
578
542
547
632
729
715
586
470
457
473
351
55
-245
-362
-295
-238
-337
-534
-656
-627
-539
-536
-658
-827
-937
-959
-954
-1000
-1111
-1226
-1268
-1232
-1184
-1173
-1180
-1169
-1155
-1209
-1356
-1510
-1573
-1557
-1561
-1643
-1738
-1731
-1593
-1411
-1278
-1212
-1190
-1201
-1244
-1289
-1288
-1256
-1273
-1391
-1517
-1485
-1251
-972
-854
-930
-1035
-987
-787
-593
-524
-563
-630
-686
-719
-696
-578
-419
-352
-440
-566
-540
-339
-159
-198
-428
-629
-648
-558
-532
-615
-702
-672
-523
-352
-245
-193
-130
-11
129
187
111
-21
-74
-26
-11
-167
-407
-482
-272
32
112
-89
-304
-243
72
350
365
172
12
44
226
398
437
333
198
165
275
433
496
419
322
338
466
608
699
772
872
971
996
919
768
577
380
224
154
178
269
429
664
935
1123
1140
1058
1032
1111
1189
1177
1161
1307
1612
1898
2019
2060
2209
2493
2713
2681
2431
2174
2041
1946
1731
1370
1017
822
752
633
373
104
45
228
422
413
284
314
617
954
1036
857
671
637
663
594
479
488
628
707
571
311
144
158
256
311
323
354
415
465
477
470
462
432
360
249
126
27
-11
22
81
71
-57
-232
-308
-224
-99
-117
-329
-599
-732
-666
-524
-496
-640
-827
-864
-680
-409
-271
-377
-637
-833
-826
-666
-525
-551
-739
-944
-1010
-890
-670
-478
-386
-365
-344
-260
-115
48
159
151
23
-129
-155
2
217
277
120
-71
-50
222
520
619
534
452
472
494
395
233
183
313
482
511
413
377
525
760
872
758
524
363
361
449
507
494
471
520
656
796
861
839
780
738
732
734
717
690
690
749
873
1019
1117
1115
1026
904
800
732
689
668
672
699
719
715
702
713
774
866
913
855
715
581
533
551
541
454
358
365
509
725
933
1144
1405
1684
1884
1965
2016
2132
2257
2219
1937
1546
1260
1129
1002
724
333
17
-95
-45
39
97
159
260
375
465
522
552
543
472
348
219
121
58
36
76
170
257
259
177
108
129
203
223
147
55
51
138
223
231
175
119
97
89
66
16
-42
-83
-78
-27
17
-17
-137
-258
-293
-254
-248
-345
-495
-589
-590
-585
-666
-818
-945
-988
-983
-1008
-1078
-1129
-1104
-1040
-1034
-1131
-1263
-1316
-1249
-1145
-1118
-1181
-1237
-1187
-1045
-918
-884
-914
-935
-929
-943
-1012
-1100
-1146
-1135
-1097
-1049
-968
-853
-763
-751
-800
-834
-813
-796
-868
-1028
-1179
-1228
-1173
-1085
-1022
-1001
-1006
-1021
-1021
-986
-932
-921
-997
-1130
-1235
-1260
-1230
-1207
-1208
-1198
-1155
-1099
-1064
-1046
-1008
-927
-821
-724
-652
-599
-567
-562
-570
-561
-528
-501
-514
-560
-584
-544
-464
-409
-412
-439
-434
-387
-343
-339
-359
-360
-326
-285
-255
-223
-169
-109
-95
-152
-236
-278
-249
-183
-122
-53
83
321
614
848
937
901
847
860
913
892
715
418
119
-90
-223
-365
-584
-878
-1173
-1372
-1414
-1312
-1148
-1011
-925
-839
-695
-507
-362
-323
-375
-459
-532
-589
-619
-593
-497
-369
-267
-214
-179
-135
-105
-128
-197
-253
-255
-231
-241
-297
-350
-361
-342
-338
-347
-328
-258
-175
-139
-154
-162
-102
17
123
152
108
54
54
116
185
203
160
105
93
134
192
227
235
238
248
253
241
224
231
264
293
282
239
215
250
324
371
346
281
253
301
391
461
497
545
642
751
805
778
711
648
588
495
366
240
159
137
156
199
251
287
296
298
330
388
420
382
306
284
365
495
573
568
545
582
681
768
777
723
678
706
809
940
1049
1110
1140
1181
1252
1325
1350
1310
1260
1266
1331
1382
1356
1290
1289
1406
1577
1682
1669
1582
1489
1408
1319
1225
1153
1110
1074
1038
1045
1140
1306
1468
1548
1533
1474
1418
1374
1319
1271
1305
1482
1765
2019
2138
2170
2285
2587
2977
3220
3174
2915
2651
2514
2466
2364
2109
1723
1324
1038
923
937
992
1039
1100
1225
1409
1585
1683
1703
1703
1719
1711
1635
1501
1394
1380
1452
1535
1566
1541
1499
1475
1469
1472
1486
1517
1564
1604
1617
1591
1529
1448
1367
1290
1208
1114
1034
1008
1044
1095
1105
1070
1047
1073
1115
1102
1018
917
864
867
881
858
803
749
722
721
721
700
649
579
515
484
496
529
546
518
455
405
410
465
522
534
512
505
552
640
722
756
742
702
659
629
627
656
702
740
757
767
795
839
871
864
816
756
712
694
690
690
686
674
655
636
621
608
591
566
540
525
528
539
548
551
555
562
560
518
412
250
81
-43
-115
-177
-256
-311
-255
-63
175
329
361
359
429
564
650
600
449
318
274
279
255
184
130
159
256
338
330
245
177
211
340
452
439
309
183
165
232
281
285
343
554
875
1147
1273
1328
1446
1640
1772
1709
1447
1090
722
373
48
-252
-546
-871
-1215
-1453
-1430
-1111
-624
-159
179
424
664
930
1154
1237
1136
896
622
394
230
126
103
184
333
453
476
438
417
433
424
340
229
183
218
264
265
249
275
336
366
330
284
293
335
320
211
77
10
24
44
1
-94
-159
-140
-61
-10
-67
-242
-451
-580
-607
-661
-921
-1448
-2098
-2614
-2810
-2667
-2272
-1723
-1083
-390
335
1086
1825
2419
2674
2493
2001
1469
1093
863
654
426
276
299
461
637
744
791
804
748
577
320
92
-7
15
77
113
107
67
-4
-101
-189
-226
-210
-185
-188
-222
-267
-313
-377
-462
-539
-574
-567
-545
-532
-524
-512
-503
-512
-534
-538
-503
-447
-415
-422
-440
-430
-379
-309
-243
-193
-161
-150
-148
-129
-70
15
73
65
-1
-75
-123
-149
-182
-250
-345
-438
-496
-494
-440
-371
-326
-328
-357
-372
-341
-268
-183
-105
-14
132
346
575
746
841
914
1022
1133
1133
952
654
383
221
107
-76
-359
-646
-825
-882
-898
-943
-1000
-1008
-960
-901
-869
-848
-803
-758
-768
-850
-941
-977
-969
-984
-1057
-1130
-1134
-1077
-1041
-1085
-1181
-1258
-1285
-1289
-1295
-1309
-1331
-1379
-1450
-1493
-1449
-1345
-1296
-1375
-1513
-1557
-1438
-1252
-1156
-1197
-1279
-1305
-1288
-1304
-1383
-1488
-1576
-1658
-1749
-1809
-1789
-1719
-1695
-1773
-1916
-2019
-2027
-1997
-2040
-2223
-2478
-2619
-2480
-2096
-1706
-1550
-1639
-1750
-1671
-1440
-1321
-1519
-1957
-2344
-2449
-2290
-2077
-1994
-2024
-2009
-1863
-1688
-1637
-1707
-1748
-1679
-1614
-1705
-1897
-1968
-1826
-1641
-1639
-1791
-1869
-1802
-1780
-1985
-2268
-2277
-1911
-1521
-1525
-1912
-2231
-2107
-1658
-1347
-1472
-1877
-2170
-2131
-1853
-1549
-1306
-1116
-994
-972
-961
-778
-366
69
248
133
-30
-5
152
189
6
-225
-304
-252
-236
-328
-386
-257
13
231
305
322
422
607
761
812
832
928
1090
1189
1145
1052
1079
1271
1499
1612
1620
1692
1957
2369
2749
2978
3092
3223
3451
3734
3955
4021
3934
3788
3695
3695
3718
3634
3380
3024
2706
2494
2334
2146
1935
1775
1709
1691
1655
1611
1604
1627
1608
1512
1379
1258
1112
887
620
435
397
421
355
153
-96
-292
-425
-550
-736
-1020
-1385
-1736
-1934
-1948
-1909
-1995
-2224
-2432
-2489
-2495
-2646
-2960
-3215
-3241
-3138
-3138
-3308
-3452
-3375
-3154
-3056
-3221
-3524
-3722
-3719
-3623
-3578
-3619
-3669
-3630
-3468
-3237
-3027
-2912
-2908
-2967
-3010
-2994
-2912
-2809
-2750
-2774
-2854
-2903
-2847
-2708
-2590
-2585
-2666
-2722
-2684
-2598
-2552
-2556
-2536
-2453
-2380
-2408
-2528
-2611
-2557
-2407
-2302
-2324
-2409
-2443
-2392
-2311
-2250
-2195
-2115
-2030
-1999
-2045
-2102
-2083
-1979
-1875
-1896
-2086
-2347
-2497
-2413
-2152
-1905
-1837
-1908
-1910
-1693
-1331
-1053
-1005
-1125
-1222
-1208
-1152
-1150
-1192
-1178
-1058
-920
-896
-976
-995
-821
-519
-314
-351
-531
-622
-505
-288
-170
-219
-328
-360
-292
-177
-40
134
324
415
309
59
-144
-151
1
126
95
-15
12
324
840
1308
1531
1523
1456
1483
1600
1679
1606
1380
1091
837
666
544
402
197
-46
-248
-362
-401
-392
-315
-154
16
52
-95
-274
-277
-105
5
-146
-448
-579
-380
-37
131
16
-201
-287
-222
-168
-246
-412
-515
-470
-340
-267
-324
-447
-510
-458
-366
-368
-497
-649
-671
-524
-345
-325
-523
-798
-931
-846
-698
-725
-996
-1321
-1461
-1380
-1252
-1240
-1320
-1355
-1297
-1227
-1234
-1282
-1285
-1259
-1303
-1458
-1653
-1792
-1850
-1860
-1835
-1768
-1690
-1660
-1670
-1645
-1540
-1429
-1426
-1542
-1681
-1775
-1860
-1998
-2146
-2180
-2068
-1932
-1933
-2079
-2219
-2208
-2059
-1906
-1847
-1858
-1860
-1830
-1813
-1844
-1867
-1797
-1658
-1573
-1633
-1783
-1870
-1804
-1656
-1573
-1612
-1690
-1689
-1591
-1451
-1316
-1178
-1024
-894
-839
-858
-863
-779
-630
-523
-528
-571
-505
-294
-83
-57
-209
-339
-292
-148
-120
-271
-427
-397
-211
-58
-37
-49
21
114
78
-109
-290
-317
-237
-204
-273
-343
-293
-141
-2
63
100
177
309
467
629
785
912
988
1026
1070
1150
1233
1232
1091
823
518
267
83
-116
-427
-836
-1167
-1233
-1037
-779
-656
-641
-520
-179
226
410
276
25
-89
-48
-67
-291
-583
-689
-537
-297
-157
-121
-74
4
5
-137
-321
-403
-369
-342
-390
-428
-347
-178
-60
-55
-87
-73
-42
-82
-216
-377
-492
-552
-560
-503
-396
-320
-358
-475
-548
-520
-499
-617
-838
-984
-951
-844
-841
-964
-1056
-991
-842
-798
-930
-1095
-1114
-972
-829
-818
-905
-962
-925
-863
-866
-937
-988
-960
-908
-923
-1013
-1076
-1016
-869
-769
-797
-896
-952
-935
-916
-944
-964
-896
-776
-733
-816
-904
-835
-614
-417
-387
-458
-460
-330
-174
-120
-165
-205
-191
-178
-223
-290
-295
-228
-169
-189
-256
-282
-234
-173
-176
-243
-297
-276
-204
-162
-190
-241
-248
-196
-138
-113
-89
-15
101
183
173
116
103
162
226
223
160
113
126
178
233
287
353
409
420
392
380
420
482
502
472
463
559
772
1042
1272
1396
1402
1343
1318
1405
1588
1753
1771
1610
1357
1142
1027
966
853
610
258
-83
-277
-282
-190
-141
-192
-270
-273
-185
-85
-43
-36
-2
58
72
-6
-123
-179
-146
-92
-98
-184
-304
-414
-491
-538
-552
-554
-576
-621
-658
-656
-638
-653
-695
-696
-607
-459
-332
-249
-157
-13
139
208
167
85
35
-8
-133
-369
-616
-738
-701
-607
-589
-673
-767
-776
-691
-588
-545
-571
-609
-599
-522
-390
-235
-76
75
217
354
485
595
680
754
847
971
1093
1175
1231
1321
1469
1614
1652
1566
1463
1481
1632
1795
1839
1755
1654
1640
1728
1857
1952
1970
1908
1825
1817
1942
2144
2284
2284
2204
2174
2236
2303
2277
2166
2053
1988
1951
1904
1859
1860
1914
1981
2035
2078
2121
2153
2157
2144
2145
2163
2167
2143
2120
2143
2211
2277
2299
2284
2194
2292
2317
2320
2287
2220
2124
2008
1890
1786
1707
1655
1636
1656
1702
1755
1814
1889
1970
2003
1939
1807
1720
1778
1972
2197
2355
2439
2511
2640
2844
3075
3239
3249
3097
2877
2700
2587
2444
2184
1839
1535
1349
1233
1090
915
800
814
916
1012
1053
1077
1138
1228
1292
1282
1203
1095
994
921
876
855
855
871
897
928
958
986
1017
1062
1122
1188
1245
1272
1251
1195
1152
1174
1267
1376
1429
1416
1385
1396
1451
1496
1482
1410
1309
1207
1129
1085
1057
998
882
753
693
728
787
773
687
633
692
817
873
794
653
578
609
667
659
588
534
563
653
736
778
799
833
893
963
1024
1070
1101
1124
1151
1193
1231
1227
1163
1069
1011
1024
1076
1104
1084
1056
1071
1137
1206
1234
1215
1174
1137
1104
1063
1013
970
952
958
961
927
859
798
789
833
869
838
757
703
735
824
885
869
809
785
832
916
982
1005
1000
988
979
980
995
1016
1021
994
952
938
965
997
987
928
866
839
825
772
669
564
506
487
462
416
373
351
325
278
246
291
436
639
847
1048
1256
1456
1599
1669
1705
1747
1765
1683
1469
1194
969
839
742
580
321
40
-161
-251
-297
-393
-568
-771
-941
-1093
-1297
-1585
-1887
-2078
-2091
-1957
-1751
-1519
-1253
-940
-575
-178
208
521
703
755
748
770
845
934
992
1024
1061
1099
1100
1040
944
869
829
805
772
724
676
648
649
672
702
716
700
659
618
618
674
762
846
897
920
923
902
863
845
893
990
1047
1000
908
896
1004
1120
1120
1016
952
1015
1132
1171
1114
1065
1106
1195
1244
1247
1287
1405
1534
1579
1539
1507
1555
1637
1642
1512
1321
1196
1201
1270
1299
1262
1241
1343
1570
1821
2001
2107
2204
2315
2383
2344
2210
2049
1906
1766
1604
1443
1345
1332
1362
1379
1378
1389
1422
1440
1410
1348
1298
1265
1223
1162
1121
1140
1201
1246
1248
1235
1248
1276
1274
1219
1139
1072
1018
948
855
775
752
783
828
849
848
856
891
929
930
867
754
631
538
498
514
579
687
838
1031
1244
1431
1553
1614
1667
1748
1831
1850
1779
1657
1537
1406
1198
883
516
183
-78
-285
-444
-525
-487
-350
-190
-79
-32
-16
-4
-1
-42
-146
-293
-433
-525
-564
-566
-543
-503
-469
-473
-514
-550
-546
-527
-549
-629
-709
-724
-690
-689
-761
-853
-891
-874
-868
-907
-949
-947
-934
-991
-1133
-1272
-1311
-1264
-1233
-1288
-1376
-1395
-1314
-1198
-1135
-1154
-1218
-1276
-1301
-1298
-1283
-1287
-1333
-1409
-1479
-1519
-1534
-1540
-1549
-1560
-1562
-1555
-1526
-1461
-1312
-1287
-1219
-1176
-1174
-1241
-1359
-1450
-1451
-1408
-1437
-1564
-1655
-1544
-1253
-983
-910
-1004
-1091
-1071
-999
-974
-998
-994
-916
-803
-697
-606
-516
-435
-413
-473
-584
-688
-730
-701
-621
-523
-433
-336
-187
24
238
368
389
368
390
456
501
516
576
745
943
988
825
622
595
763
913
874
724
705
911
1153
1180
941
613
416
408
494
541
490
375
292
326
466
574
509
278
55
-9
49
51
-83
-220
-177
43
262
362
446
695
1113
1503
1711
1808
1971
2235
2431
2391
2137
1829
1554
1285
981
687
504
477
580
759
960
1135
1266
1400
1611
1894
2142
2243
2229
2232
2325
2430
2439
2367
2347
2453
2617
2720
2753
2812
2954
3102
3118
2974
2796
2724
2764
2803
2743
2610
2485
2406
2323
2177
1981
1790
1613
1416
1169
923
774
756
771
669
403
73
-172
-279
-343
-490
-735
-972
-1100
-1129
-1163
-1286
-1482
-1677
-1829
-1959
-2107
-2272
-2401
-2439
-2392
-2328
-2325
-2415
-2561
-2680
-2725
-2741
-2821
-2994
-3179
-3240
-3139
-2992
-2953
-3043
-3122
-3066
-2912
-2803
-2805
-2830
-2754
-2578
-2409
-2316
-2291
-2296
-2320
-2340
-2297
-2176
-2069
-2100
-2245
-2314
-2179
-1941
-1815
-1874
-1969
-1942
-1838
-1818
-1907
-1966
-1890
-1774
-1796
-1975
-2129
-2092
-1901
-1731
-1679
-1671
-1594
-1438
-1284
-1188
-1132
-1081
-1054
-1085
-1155
-1195
-1164
-1097
-1077
-1132
-1206
-1206
-1112
-991
-930
-957
-1025
-1046
-954
-785
-656
-672
-793
-858
-741
-497
-304
-292
-390
-400
-189
188
535
702
710
724
906
1268
1642
1825
1762
1582
1446
1374
1264
1019
655
286
10
-125
-110
25
184
263
271
355
631
1001
1182
1019
699
570
761
997
952
635
391
471
740
862
740
631
802
1161
1367
1250
1028
1046
1364
1678
1650
1285
946
998
1447
1927
2042
1750
1361
1196
1222
1146
801
385
215
344
520
522
453
565
889
1137
1028
615
229
87
89
1
-221
-369
-253
44
246
182
-30
-148
-116
-120
-339
-684
-884
-816
-640
-579
-640
-650
-543
-485
-660
-984
-1158
-1017
-744
-649
-820
-1047
-1098
-964
-848
-921
-1165
-1438
-1613
-1650
-1588
-1487
-1405
-1366
-1341
-1290
-1214
-1179
-1255
-1452
-1709
-1931
-2059
-2099
-2102
-2113
-2129
-2120
-2076
-2016
-1947
-1882
-1862
-1929
-2062
-2131
-2009
-1741
-1567
-1666
-1946
-2097
-1953
-1698
-1661
-1913
-2187
-2198
-1986
-1838
-1921
-2078
-2043
-1773
-1494
-1428
-1536
-1606
-1510
-1329
-1238
-1304
-1428
-1470
-1369
-1180
-1016
-954
-977
-990
-892
-672
-423
-251
-199
-207
-168
-8
271
586
817
879
801
703
648
535
210
-341
-930
-1359
-1624
-1868
-2130
-2259
-2104
-1751
-1463
-1391
-1422
-1363
-1191
-1086
-1205
-1495
-1768
-1908
-1952
-1992
-2038
-2019
-1901
