663
648
625
595
568
562
586
626
658
677
698
735
778
808
819
833
870
926
979
1009
1019
1024
1028
1017
987
956
956
995
1056
1118
1185
1281
1408
1530
1606
1632
1642
1662
1683
1684
1667
1659
1678
1711
1737
1753
1773
1796
1803
1781
1745
1720
1712
1704
1681
1658
1659
1687
1715
1714
1685
1653
1639
1640
1638
1619
1592
1572
1565
1566
1566
1563
1554
1540
1519
1494
1469
1451
1447
1447
1432
1396
1359
1349
1371
1426
1543
1735
1956
2095
2070
1942
1890
2050
2358
2594
2586
2321
1921
1554
1390
1555
2036
2627
3045
3171
3126
3090
3059
2851
2323
1535
689
-40
-543
-735
-562
-98
437
839
1079
1266
1462
1588
1540
1317
1023
783
651
603
608
714
1021
1563
2219
2758
3053
3233
3542
3985
4214
3880
3083
2345
2045
1997
1690
948
193
-14
378
809
666
-147
-1206
-2050
-2565
-2928
-3284
-3597
-3752
-3703
-3455
-2956
-2124
-1027
63
853
1294
1610
2034
2533
2887
2965
2856
2696
2484
2172
1871
1867
2311
2965
3355
3214
2728
2280
2005
1671
995
42
-758
-981
-550
211
867
1180
1191
1081
961
784
449
-63
-584
-872
-806
-483
-78
332
777
1233
1547
1587
1433
1316
1326
1325
1229
1262
1793
2850
3967
4617
4742
4713
4747
4594
3858
2554
1177
209
-265
-422
-346
23
618
1155
1400
1418
1458
1562
1487
1023
319
-220
-303
32
547
1055
1497
1851
2071
2127
2056
1925
1780
1640
1542
1523
1582
1677
1769
1854
1914
1886
1699
1378
1068
929
997
1159
1272
1289
1264
1261
1263
1198
1029
819
674
640
663
642
555
494
572
811
1101
1301
1377
1414
1484
1543
1474
1249
989
854
872
942
994
1126
1500
2133
2790
3152
3082
2733
2380
2154
1954
1625
1227
1093
1540
2513
3554
4182
4298
4187
4127
4053
3672
2861
1865
1086
733
725
885
1142
1514
1980
2446
2821
3075
3214
3244
3180
3071
2987
2982
3052
3128
3146
3097
3028
2995
2997
2988
2954
2942
2983
2998
2857
2576
2406
2630
3251
3923
4243
4104
3735
3399
3108
2643
1829
759
-246
-856
-919
-502
196
943
1571
2010
2296
2487
2567
2473
2193
1819
1496
1321
1307
1450
1758
2166
2495
2607
2628
2920
3708
4762
5540
5708
5443
5159
4968
4548
3526
1973
423
-583
-889
-694
-256
291
860
1311
1526
1552
1587
1732
1827
1577
872
-21
-627
-619
-43
726
1267
1407
1321
1346
1669
2175
2610
2880
3124
3473
3835
4046
4187
4577
5338
6101
6282
5704
4818
4234
4098
4020
3557
2682
1740
1104
918
1127
1567
2008
2226
2131
1858
1650
1618
1616
1433
1037
631
476
679
1137
1672
2185
2683
3179
3599
3800
3665
3188
2495
1803
1307
1105
1164
1389
1704
2091
2555
3054
3464
3640
3514
3133
2623
2112
1696
1436
1357
1433
1609
1819
2011
2141
2135
1912
1479
991
673
630
741
787
698
647
841
1251
1591
1584
1224
732
263
-222
-799
-1326
-1497
-1160
-501
147
656
1196
1944
2782
3335
3333
2854
2211
1668
1285
1011
837
795
859
935
959
970
1045
1176
1244
1155
955
795
787
930
1153
1412
1672
1868
1938
1885
1809
1797
1836
1840
1764
1674
1666
1765
1905
2005
2053
2086
2143
2230
2333
2431
2514
2582
2628
2640
2604
2528
2438
2340
2205
2010
1811
1729
1846
2098
2316
2379
2303
2180
2067
1950
1825
1749
1786
1936
2141
2373
2662
3028
3391
3616
3630
3472
3232
2951
2627
2287
2009
1852
1805
1825
1916
2105
2350
2517
2503
2342
2171
2070
1990
1841
1637
1488
1454
1475
1439
1323
1206
1170
1213
1266
1275
1239
1198
1185
1214
1271
1327
1369
1429
1547
1722
1884
1933
1837
1661
1514
1454
1452
1437
1383
1353
1420
1594
1784
1880
1865
1817
1800
1779
1674
1472
1271
1170
1166
1182
1182
1207
1280
1344
1312
1185
1051
988
982
980
964
972
1031
1111
1156
1120
978
738
451
178
-66
-313
-583
-777
-708
-237
574
1469
2195
2676
3039
3436
3882
4244
4361
4193
3841
3465
3152
2907
2695
2483
2260
2018
1763
1557
1481
1560
1708
1786
1754
1701
1702
1710
1587
1314
1097
1157
1445
1653
1555
1311
1281
1586
1935
1970
1684
1396
1328
1374
1323
1197
1223
1499
1809
1870
1673
1490
1548
1784
1941
1867
1656
1516
1526
1553
1451
1264
1181
1303
1455
1371
1053
817
945
1328
1569
1474
1268
1302
1589
1809
1732
1504
1401
1456
1425
1150
783
602
672
808
821
717
620
629
732
873
986
999
877
700
626
738
935
1031
961
874
960
1204
1370
1257
928
669
708
1007
1329
1487
1504
1515
1607
1768
1955
2152
2338
2455
2463
2427
2496
2755
3085
3245
3094
2749
2480
2452
2582
2658
2582
2478
2535
2781
3063
3208
3212
3195
3241
3290
3214
2972
2666
2452
2403
2459
2518
2521
2507
2546
2647
2730
2718
2618
2515
2462
2426
2356
2276
2271
2377
2526
2639
2731
2873
3071
3216
3204
3046
2841
2644
2410
2085
1702
1365
1146
1042
1030
1074
1150
1220
1273
1342
1436
1501
1472
1381
1336
1401
1526
1640
1756
1911
2051
2059
1943
1881
2010
2228
2305
2182
2057
2107
2231
2195
1968
1786
1829
1972
1942
1693
1479
1548
1855
2105
2085
1833
1555
1426
1477
1613
1689
1619
1454
1355
1458
1727
1967
2005
1857
1691
1657
1749
1840
1818
1711
1635
1662
1722
1676
1444
1077
693
402
292
467
996
1801
2642
3311
3825
4373
5029
5584
5737
5429
4932
4573
4440
4389
4279
4130
4030
3979
3902
3762
3611
3495
3400
3282
3130
2976
2850
2778
2792
2901
3042
3104
3022
2831
2618
2447
2337
2314
2422
2662
2955
3191
3305
3291
3166
2939
2630
2257
1815
1307
804
456
382
534
723
813
849
974
1234
1503
1626
1587
1480
1378
1281
1178
1112
1119
1150
1115
998
894
880
921
929
892
904
1031
1212
1339
1377
1376
1382
1359
1252
1078
923
862
891
939
927
820
640
462
363
354
378
370
325
296
331
433
567
691
765
757
679
587
529
499
450
382
365
469
662
846
949
999
1063
1147
1205
1204
1167
1116
1026
859
639
449
355
357
419
540
752
1065
1445
1844
2243
2616
2879
2944
2817
2596
2370
2119
1795
1440
1212
1229
1441
1672
1801
1846
1861
1809
1567
1060
368
-313
-772
-887
-654
-187
324
727
1014
1347
1887
2573
3084
3069
2472
1617
946
644
515
208
-432
-1236
-1878
-2148
-2104
-2003
-2056
-2292
-2586
-2812
-2954
-3069
-3171
-3199
-3117
-2978
-2837
-2624
-2187
-1471
-625
124
672
1088
1473
1848
2190
2519
2911
3415
3999
4590
5107
5485
5696
5791
5869
5964
5987
5829
5503
5173
5007
5015
5073
5065
4973
4847
4743
4686
4675
4689
4683
4609
4458
4259
4047
3827
3569
3251
2878
2500
2186
1987
1919
2006
2326
2947
3804
4670
5331
5804
6300
6921
7471
7646
7396
7018
6835
6836
6747
6393
5898
5492
5234
4980
4600
4119
3649
3259
2976
2806
2731
2673
2553
2401
2330
2371
2388
2199
1791
1362
1118
1069
1070
1006
912
893
984
1096
1134
1101
1086
1149
1250
1294
1248
1163
1097
1028
891
693
539
531
641
736
723
661
678
811
942
930
757
545
424
401
390
334
280
325
499
717
854
844
721
563
427
323
232
136
26
-89
-177
-202
-137
2
148
245
283
309
372
469
545
542
449
307
166
48
-47
-118
-148
-125
-55
39
125
179
194
186
173
158
123
60
-1
8
138
375
650
884
1026
1063
1015
929
855
809
746
611
427
305
349
545
757
865
871
882
972
1101
1167
1133
1052
999
994
1006
1026
1084
1196
1320
1391
1402
1402
1442
1504
1534
1517
1490
1492
1527
1580
1657
1777
1923
2043
2093
2085
2055
2011
1929
1799
1647
1511
1395
1285
1185
1137
1184
1296
1387
1390
1313
1235
1217
1248
1251
1174
1048
961
979
1084
1192
1239
1241
1291
1477
1784
2099
2287
2297
2197
2083
1974
1807
1520
1148
799
573
491
515
597
705
821
929
1031
1143
1263
1350
1351
1245
1071
921
887
980
1118
1195
1169
1112
1122
1209
1275
1212
1009
758
551
388
200
-71
-371
-524
-337
242
1051
1832
2456
3014
3646
4296
4695
4632
4206
3735
3438
3252
2978
2546
2078
1729
1547
1476
1453
1441
1410
1359
1348
1478
1798
2232
2641
2910
3003
2929
2706
2343
1839
1206
513
-110
-538
-737
-768
-694
-508
-190
177
421
442
328
268
344
455
446
297
145
125
245
396
479
485
448
364
192
-50
-238
-210
76
469
748
810
749
727
792
848
783
609
448
407
490
621
715
726
641
466
223
-51
-316
-531
-674
-736
-736
-708
-668
-606
-499
-345
-178
-43
45
106
164
236
325
439
596
791
967
1037
952
757
560
444
390
318
191
67
24
81
185
308
473
679
845
882
800
679
520
223
-227
-580
-475
195
1109
1802
2108
2253
2502
2803
2846
2427
1674
900
332
27
-33
133
472
856
1157
1364
1560
1780
1935
1922
1767
1603
1515
1458
1352
1209
1152
1246
1396
1457
1433
1474
1646
1761
1524
883
171
-165
16
431
704
749
825
1223
1953
2736
3233
3270
2899
2339
1863
1658
1712
1849
1882
1771
1633
1573
1565
1466
1166
711
296
115
198
387
479
445
484
802
1314
1650
1513
1037
713
940
1667
2494
3064
3321
3416
3481
3538
3554
3501
3345
3049
2655
2291
2080
2025
2034
2045
2066
2114
2136
2055
1879
1701
1581
1444
1148
676
194
-96
-150
-108
-113
-116
103
691
1521
2285
2792
3133
3517
3991
4378
4491
4346
4103
3862
3587
3234
2853
2532
2269
1986
1670
1423
1331
1335
1286
1115
905
786
770
746
619
406
210
115
115
151
175
188
217
280
371
473
573
654
697
700
682
686
717
727
668
546
418
301
122
-202
-630
-957
-960
-608
-111
272
484
713
1140
1669
1931
1603
736
-251
-889
-995
-723
-327
72
526
1123
1869
2643
3255
3526
3362
2813
2077
1406
983
827
819
829
812
818
911
1064
1158
1082
825
490
206
37
-34
-67
-130
-252
-428
-629
-826
-980
-1036
-960
-773
-564
-394
-221
34
287
221
-468
-1686
-2871
-3391
-3065
-2270
-1521
-978
-369
612
1913
3127
3806
3792
3258
2513
1800
1234
854
668
645
702
788
910
1113
1372
1548
1478
1141
712
428
399
551
719
802
822
867
953
987
849
530
182
-2
44
196
254
146
-18
-79
17
192
329
394
423
426
367
215
23
-113
-162
-177
-237
-350
-423
-374
-227
-109
-136
-299
-466
-512
-434
-352
-385
-529
-666
-694
-611
-506
-456
-442
-401
-307
-219
-219
-315
-419
-427
-318
-194
-185
-314
-460
-450
-256
-36
11
-151
-349
-385
-258
-121
-90
-130
-137
-78
-9
34
82
152
200
150
-9
-229
-458
-654
-778
-827
-872
-1027
-1329
-1652
-1815
-1733
-1451
-1043
-564
-75
362
758
1221
1828
2442
2762
2592
2060
1536
1322
1411
1534
1406
954
379
25
103
516
921
992
682
232
-56
-74
59
143
78
-103
-319
-514
-663
-708
-590
-353
-175
-215
-439
-625
-559
-270
-7
25
-153
-316
-248
50
347
369
63
-362
-632
-688
-732
-921
-1139
-1130
-823
-461
-322
-388
-376
-132
131
71
-336
-691
-583
-97
206
-97
-722
-856
45
1616
2870
3120
2592
2066
1970
1991
1540
455
-839
-1801
-2254
-2355
-2254
-1935
-1378
-725
-210
43
93
37
-102
-346
-660
-931
-1073
-1084
-1016
-898
-703
-441
-227
-225
-481
-854
-1104
-1096
-894
-669
-534
-462
-376
-268
-212
-256
-324
-287
-104
114
214
152
14
-85
-96
-24
96
218
284
256
204
258
457
674
740
631
506
509
592
607
530
513
678
915
958
699
338
181
317
546
624
537
494
680
1053
1392
1497
1335
1040
764
579
467
371
293
289
404
610
794
849
765
609
438
255
46
-152
-258
-243
-222
-390
-855
-1505
-2045
-2216
-1969
-1468
-916
-375
259
1096
2080
2959
3444
3395
2912
2258
1676
1280
1058
944
914
982
1145
1356
1537
1626
1583
1371
971
440
-71
-389
-434
-263
-1
264
473
552
422
118
-175
-284
-288
-501
-1152
-2072
-2777
-2913
-2592
-2245
-2142
-2137
-1884
-1224
-318
544
1190
1610
1876
2089
2339
2641
2883
2891
2601
2145
1739
1487
1315
1093
778
431
140
-59
-191
-305
-430
-554
-644
-698
-753
-851
-985
-1109
-1191
-1243
-1277
-1288
-1259
-1213
-1207
-1284
-1419
-1539
-1575
-1491
-1315
-1136
-1061
-1117
-1214
-1221
-1114
-1008
-1024
-1159
-1288
-1321
-1298
-1325
-1429
-1512
-1475
-1353
-1285
-1347
-1456
-1460
-1328
-1196
-1213
-1364
-1497
-1486
-1364
-1291
-1417
-1785
-2351
-2995
-3548
-3848
-3847
-3612
-3228
-2715
-2085
-1450
-1011
-886
-997
-1176
-1336
-1533
-1828
-2148
-2310
-2173
-1759
-1244
-846
-685
-715
-794
-856
-1021
-1502
-2344
-3312
-4015
-4198
-3900
-3386
-2933
-2679
-2579
-2495
-2341
-2154
-2049
-2088
-2210
-2307
-2339
-2366
-2442
-2555
-2667
-2779
-2916
-3036
-3019
-2779
-2381
-2002
-1796
-1776
-1820
-1802
-1707
-1651
-1777
-2120
-2560
-2941
-3196
-3363
-3487
-3531
-3436
-3228
-3052
-3025
-3108
-3150
-3049
-2837
-2601
-2331
-1923
-1337
-709
-252
-51
30
193
499
821
1013
1084
1175
1404
1745
2092
2364
2525
2534
2350
2034
1772
1715
1786
1703
1257
576
29
-130
-4
83
-71
-377
-586
-542
-277
74
369
514
478
317
125
-49
-273
-638
-1134
-1633
-2011
-2249
-2396
-2469
-2428
-2283
-2136
-2091
-2146
-2212
-2222
-2183
-2124
-2030
-1871
-1654
-1435
-1251
-1076
-841
-484
8
569
1056
1317
1331
1254
1231
1142
652
-426
-1833
-3023
-3650
-3816
-3803
-3644
-3102
-2073
-851
103
622
931
1274
1564
1502
987
305
-139
-187
-15
119
98
-38
-217
-418
-635
-864
-1115
-1414
-1751
-2042
-2185
-2164
-2048
-1906
-1771
-1671
-1666
-1822
-2106
-2374
-2510
-2547
-2634
-2867
-3201
-3522
-3768
-3943
-4047
-4056
-3995
-3965
-4079
-4341
-4642
-4857
-4935
-4903
-4806
-4676
-4524
-4326
-4038
-3663
-3313
-3159
-3292
-3635
-4007
-4278
-4434
-4522
-4575
-4594
-4566
-4479
-4326
-4130
-3967
-3917
-3995
-4127
-4238
-4311
-4372
-4412
-4381
-4265
-4127
-4042
-4012
-3972
-3886
-3811
-3827
-3927
-4007
-3981
-3921
-4022
-4398
-4922
-5297
-5324
-5098
-4889
-4844
-4813
-4517
-3873
-3119
-2597
-2446
-2526
-2631
-2708
-2857
-3153
-3540
-3888
-4122
-4246
-4284
-4238
-4097
-3893
-3685
-3496
-3301
-3084
-2880
-2749
-2711
-2719
-2719
-2712
-2745
-2850
-2998
-3120
-3160
-3112
-3015
-2930
-2894
-2910
-2948
-2993
-3065
-3184
-3326
-3402
-3351
-3223
-3133
-3127
-3128
-3051
-2934
-2918
-3073
-3292
-3419
-3430
-3448
-3561
-3693
-3702
-3587
-3499
-3532
-3558
-3340
-2797
-2156
-1777
-1831
-2186
-2582
-2898
-3237
-3775
-4533
-5321
-5875
-6037
-5832
-5423
-5028
-4819
-4845
-5021
-5208
-5348
-5516
-5813
-6210
-6499
-6454
-6058
-5529
-5099
-4824
-4623
-4481
-4481
-4661
-4889
-4997
-5011
-5117
-5331
-5320
-4715
-3591
-2543
-2165
-2506
-3084
-3450
-3606
-3878
-4474
-5273
-5977
-6368
-6394
-6111
-5653
-5214
-4959
-4915
-4969
-4994
-4964
-4947
-5005
-5138
-5324
-5535
-5720
-5804
-5748
-5604
-5514
-5600
-5822
-5934
-5650
-4898
-3898
-2986
-2308
-1762
-1219
-767
-661
-1025
-1667
-2247
-2591
-2798
-3059
-3423
-3781
-4021
-4146
-4237
-4345
-4463
-4555
-4603
-4605
-4562
-4483
-4385
-4281
-4190
-4134
-4123
-4135
-4133
-4103
-4073
-4064
-4037
-3899
-3610
-3261
-3034
-3065
-3335
-3695
-3985
-4142
-4207
-4237
-4235
-4144
-3926
-3618
-3305
-3045
-2861
-2800
-2926
-3190
-3353
-3123
-2443
-1617
-1074
-997
-1241
-1566
-1916
-2392
-3043
-3757
-4370
-4793
-4995
-4934
-4591
-4087
-3670
-3543
-3719
-4058
-4417
-4740
-5025
-5243
-5331
-5234
-4966
-4617
-4315
-4146
-4093
-4065
-3993
-3913
-3913
-3992
-4030
-3888
-3561
-3200
-2994
-3034
-3265
-3553
-3778
-3902
-3946
-3941
-3885
-3752
-3546
-3330
-3193
-3183
-3262
-3334
-3311
-3201
-3113
-3183
-3475
-3921
-4345
-4567
-4485
-4113
-3571
-3009
-2492
-1961
-1325
-644
-188
-250
-840
-1606
-2121
-2271
-2325
-2587
-3027
-3285
-3043
-2367
-1622
-1133
-939
-879
-815
-738
-699
-716
-780
-918
-1155
-1425
-1578
-1492
-1218
-954
-863
-916
-925
-731
-390
-154
-234
-603
-998
-1166
-1072
-877
-734
-634
-467
-186
109
250
127
-243
-719
-1101
-1234
-1089
-785
-470
-195
97
469
881
1232
1421
1394
1151
760
386
222
343
634
900
1052
1158
1331
1580
1805
1914
1896
1798
1665
1537
1464
1477
1540
1541
1415
1224
1131
1210
1352
1353
1127
810
639
715
910
990
836
527
252
160
261
447
596
655
640
596
557
514
418
215
-110
-454
-615
-417
138
830
1415
1838
2248
2795
3432
3948
4178
4144
4011
3919
3897
3868
3743
3485
3156
2883
2760
2767
2783
2709
2549
2388
2303
2304
2331
2276
2003
1427
642
-74
-442
-406
-152
115
381
768
1290
1728
1811
1502
1038
692
540
480
436
492
784
1313
1898
2316
2468
2403
2232
2018
1774
1507
1249
1041
899
827
838
941
1108
1238
1212
992
688
469
416
455
440
327
207
185
236
226
90
-59
-33
216
530
707
692
589
502
407
232
-4
-158
-118
85
335
563
786
1023
1213
1261
1129
876
589
314
61
-158
-305
-343
-260
-95
86
227
317
384
445
452
323
53
-240
-397
-345
-151
68
247
392
537
693
849
976
1042
1024
944
873
860
883
881
848
855
952
1095
1185
1193
1187
1231
1292
1274
1153
1018
968
1009
1058
1048
996
959
970
1010
1038
1022
957
869
793
743
692
609
499
397
330
289
270
287
359
448
477
411
309
270
333
454
563
636
687
722
735
743
782
849
869
762
558
415
466
675
864
897
820
793
898
1049
1103
1021
902
853
862
828
701
560
529
616
684
593
366
167
131
199
197
43
-170
-268
-197
-84
-78
-191
-289
-267
-188
-211
-405
-665
-834
-898
-1028
-1379
-1894
-2337
-2541
-2594
-2711
-2969
-3197
-3131
-2683
-2016
-1398
-965
-622
-158
517
1215
1592
1479
1057
691
556
516
351
44
-243
-447
-658
-911
-1027
-825
-442
-259
-465
-802
-848
-510
-130
-93
-427
-827
-1020
-1005
-965
-1013
-1098
-1120
-1054
-949
-861
-772
-611
-379
-198
-229
-480
-732
-720
-416
-89
-49
-314
-580
-531
-178
155
171
-107
-375
-404
-247
-133
-196
-362
-499
-574
-618
-617
-546
-479
-554
-769
-925
-829
-572
-459
-626
-853
-847
-615
-447
-535
-733
-768
-622
-536
-675
-907
-989
-903
-861
-999
-1185
-1188
-985
-816
-896
-1142
-1262
-1092
-799
-689
-858
-1090
-1135
-995
-892
-965
-1109
-1121
-992
-900
-961
-1086
-1095
-943
-764
-680
-679
-657
-558
-412
-274
-178
-161
-255
-405
-467
-327
-46
153
110
-104
-243
-171
1
63
-41
-136
-59
138
256
223
182
300
539
677
580
351
191
182
234
249
228
212
221
259
349
491
575
465
167
-126
-220
-117
-1
-6
-73
-38
158
410
594
681
719
726
649
461
226
53
-6
16
59
91
127
196
303
412
467
421
274
110
63
190
422
621
711
742
796
874
898
811
650
496
379
281
194
156
210
336
477
584
635
623
548
422
275
128
-28
-193
-318
-336
-240
-106
-1
79
181
307
361
237
-53
-391
-663
-859
-1039
-1250
-1482
-1692
-1817
-1762
-1433
-819
-80
539
925
1211
1645
2287
2904
3179
3033
2686
2409
2255
2076
1765
1381
1049
799
569
348
212
231
353
431
360
175
3
-60
-35
-34
-159
-404
-633
-704
-600
-448
-374
-375
-331
-176
3
56
-58
-229
-339
-392
-476
-614
-707
-646
-465
-333
-355
-442
-412
-217
-28
-35
-224
-388
-367
-227
-161
-258
-413
-492
-493
-513
-591
-669
-694
-716
-823
-1016
-1206
-1300
-1281
-1169
-984
-770
-638
-695
-933
-1204
-1366
-1402
-1401
-1420
-1407
-1265
-936
-450
88
514
669
483
39
-484
-943
-1298
-1559
-1701
-1669
-1454
-1102
-671
-202
259
604
699
513
185
-81
-189
-193
-183
-153
-25
223
450
416
-21
-777
-1569
-2092
-2225
-2064
-1780
-1411
-846
0
973
1710
1941
1718
1323
980
700
402
133
58
263
643
1025
1317
1513
1563
1297
540
-660
-1955
-2883
-3179
-2920
-2388
-1800
-1138
-249
854
1879
2450
2428
2014
1547
1221
1002
767
476
179
-74
-327
-641
-979
-1161
-1014
-527
102
615
930
1207
1695
2453
3237
3641
3439
2791
2107
1716
1647
1734
1882
2189
2779
3575
4238
4425
4071
3440
2918
2705
2694
2606
2291
1931
1917
2498
3512
4510
5127
5381
5571
5959
6537
7054
7278
7153
6805
6401
6043
5748
5500
5261
4970
4591
4158
3782
3571
3531
3533
3431
3165
2788
2379
1990
1657
1429
1392
1631
2162
2862
3498
3870
3994
4113
4439
4889
5130
4938
4453
4027
3844
3771
3592
3290
3029
2906
2841
2726
2585
2519
2537
2532
2429
2278
2195
2224
2305
2351
2332
2254
2128
1976
1837
1741
1672
1595
1524
1518
1602
1726
1800
1819
1885
2089
2361
2503
2390
2124
1945
1991
2158
2237
2151
2036
2070
2274
2492
2572
2513
2441
2463
2558
2641
2665
2694
2822
3061
3296
3378
3273
3086
2939
2824
2618
2252
1839
1586
1590
1755
1920
2022
2112
2225
2289
2206
1970
1687
1468
1348
1298
1296
1352
1483
1675
1886
2071
2193
2235
2216
2171
2133
2102
2063
2018
1991
2006
2052
2099
2116
2092
2040
1990
1992
2086
2269
2478
2625
2652
2567
2430
2302
2204
2110
1990
1857
1764
1769
1874
2033
2182
2296
2370
2392
2340
2231
2112
2017
1933
1818
1671
1550
1520
1600
1774
2009
2264
2482
2612
2643
2600
2487
2270
1944
1599
1378
1350
1460
1617
1814
2102
2465
2753
2795
2552
2136
1676
1223
792
454
324
435
675
894
1036
1152
1287
1385
1333
1099
778
504
347
293
310
392
532
673
741
728
700
724
785
826
841
887
1006
1161
1296
1420
1597
1832
2024
2069
1989
1937
2022
2203
2340
2348
2285
2268
2358
2514
2657
2766
2868
2972
3022
2958
2810
2698
2712
2794
2797
2662
2500
2482
2636
2806
2805
2595
2278
1957
1642
1301
937
590
289
29
-148
-87
361
1150
2018
2690
3148
3587
4145
4675
4880
4647
4167
3700
3323
2968
2637
2470
2543
2710
2733
2537
2261
2051
1858
1516
956
298
-258
-601
-733
-721
-629
-502
-368
-240
-126
-49
-32
-67
-100
-94
-59
-47
-69
-89
-64
-6
19
-46
-179
-294
-330
-302
-282
-309
-338
-299
-190
-103
-132
-257
-357
-325
-175
-19
69
125
238
432
638
774
842
907
1008
1092
1084
985
890
885
956
1020
1028
1017
1036
1065
1046
997
1041
1282
1646
1917
1927
1709
1434
1202
955
573
43
-527
-999
-1293
-1381
-1260
-970
-626
-370
-274
-296
-350
-392
-458
-603
-839
-1108
-1316
-1376
-1261
-1029
-785
-612
-517
-453
-386
-331
-318
-356
-420
-460
-406
-179
252
801
1285
1540
1542
1388
1172
874
410
-241
-968
-1585
-1952
-2040
-1915
-1675
-1406
-1153
-941
-770
-643
-572
-590
-729
-968
-1203
-1282
-1112
-748
-357
-99
-15
-39
-100
-201
-383
-655
-961
-1211
-1344
-1353
-1260
-1103
-942
-832
-776
-718
-617
-530
-592
-880
-1300
-1651
-1805
-1811
-1801
-1817
-1768
-1548
-1184
-811
-558
-449
-441
-500
-606
-728
-820
-856
-835
-762
-622
-408
-137
159
452
725
948
1068
1055
939
787
652
550
478
439
444
484
536
571
580
573
562
537
480
382
271
212
253
369
479
522
516
521
567
610
594
526
472
469
464
381
216
55
-31
-67
-141
-308
-537
-784
-1031
-1242
-1291
-1038
-473
212
784
1209
1678
2346
3092
3582
3592
3245
2873
2684
2570
2263
1634
837
159
-228
-360
-383
-396
-382
-270
-34
252
464
512
403
217
37
-105
-217
-294
-315
-267
-163
-10
182
374
472
380
89
-292
-619
-823
-904
-866
-699
-442
-211
-143
-280
-578
-965
-1375
-1728
-1920
-1900
-1751
-1590
-1409
-1057
-433
337
963
1265
1335
1405
1587
1767
1763
1518
1138
773
518
391
367
394
415
394
348
331
373
448
500
497
436
308
81
-232
-533
-681
-605
-379
-171
-80
-63
-17
88
175
146
-14
-227
-409
-519
-549
-509
-439
-415
-509
-717
-945
-1070
-1032
-869
-672
-506
-354
-134
231
703
1132
1353
1323
1133
912
709
488
241
23
-85
-72
6
97
199
326
443
496
468
395
335
302
295
321
392
480
529
510
466
463
505
531
503
454
436
428
359
206
37
-60
-75
-71
-103
-159
-193
-199
-205
-232
-269
-302
-340
-400
-476
-537
-565
-576
-591
-630
-681
-722
-719
-645
-513
-378
-292
-251
-193
-72
87
203
207
109
-5
-56
-31
10
3
-38
-41
40
167
274
353
456
576
605
461
245
189
394
682
770
605
434
524
840
1085
1042
797
606
592
638
592
464
403
504
714
907
1017
1061
1082
1102
1126
1168
1227
1267
1250
1162
1044
960
926
874
705
389
-6
-353
-556
-578
-399
8
631
1372
2114
2831
3573
4327
4918
5138
4959
4582
4246
4041
3886
3686
3438
3187
2966
2790
2665
2559
2377
2049
1641
1323
1244
1387
1579
1657
1609
1557
1616
1757
1798
1577
1146
756
608
659
710
684
712
916
1190
1309
1222
1121
1170
1280
1250
1072
965
1068
1241
1230
1022
878
1011
1325
1488
1308
929
669
708
926
1054
950
723
595
668
835
929
899
828
792
769
711
636
596
574
498
366
291
367
528
607
553
503
610
847
1026
1012
868
786
878
1050
1101
926
640
471
526
682
725
598
456
448
514
469
267
69
35
110
90
-93
-272
-267
-125
-58
-178
-363
-416
-300
-144
-67
-72
-96
-101
-87
-41
45
139
190
190
169
146
116
105
176
348
514
522
367
238
338
646
918
942
753
589
642
880
1113
1196
1156
1117
1164
1260
1317
1305
1274
1278
1304
1293
1219
1149
1162
1269
1401
1483
1491
1442
1359
1266
1197
1161
1113
1006
860
772
833
1014
1178
1222
1173
1141
1168
1181
1096
942
846
871
933
897
763
691
813
1068
1263
1285
1213
1206
1305
1403
1387
1264
1126
1037
1006
1024
1097
1215
1326
1369
1349
1329
1334
1307
1184
998
853
828
899
975
994
972
966
1001
1059
1107
1117
1081
1009
942
941
1039
1194
1302
1278
1127
935
778
625
376
-11
-442
-768
-934
-1018
-1092
-1060
-718
-7
857
1562
2013
2405
2960
3619
4080
4124
3821
3428
3106
2840
2551
2237
1940
1663
1385
1147
1024
1027
1051
992
870
789
805
852
852
800
744
695
614
490
381
359
420
491
518
516
539
612
716
803
832
792
705
637
664
831
1122
1450
1707
1806
1734
1554
1343
1120
827
405
-105
-548
-764
-736
-592
-474
-415
-345
-233
-162
-248
-507
-811
-1003
-1048
-1041
-1075
-1140
-1144
-1020
-802
-611
-569
-722
-1013
-1301
-1442
-1410
-1317
-1310
-1414
-1507
-1469
-1328
-1231
-1268
-1366
-1388
-1313
-1253
-1300
-1398
-1421
-1327
-1213
-1196
-1282
-1386
-1438
-1447
-1464
-1505
-1565
-1632
-1699
-1737
-1716
-1654
-1610
-1617
-1629
-1576
-1447
-1321
-1269
-1274
-1268
-1219
-1159
-1129
-1123
-1106
-1076
-1044
-978
-802
-499
-176
22
54
4
-26
-48
-157
-408
-771
-1170
-1536
-1790
-1828
-1613
-1253
-945
-798
-728
-595
-396
-287
-401
-713
-1095
-1476
-1881
-2302
-2617
-2679
-2494
-2231
-2042
-1921
-1754
-1498
-1261
-1209
-1410
-1781
-2170
-2463
-2656
-2818
-2997
-3152
-3172
-3017
-2820
-2810
-3118
-3639
-4137
-4465
-4659
-4809
-4899
-4800
-4404
-3716
-2828
-1872
-987
-301
141
396
558
657
651
530
387
347
433
556
649
739
866
951
853
563
214
-84
-347
-592
-669
-353
353
1150
1778
2310
2976
3680
3887
3137
1640
173
-614
-708
-531
-348
-18
703
1799
2972
3877
4304
4153
3417
2277
1135
439
395
840
1439
2016
2652
3476
4421
5191
5477
5215
4623
3973
3400
2925
2565
2361
2288
2229
2062
1789
1501
1264
1070
897
779
770
844
898
861
755
666
634
641
667
735
878
1084
1302
1478
1597
1648
1620
1514
1365
1228
1143
1102
1077
1061
1083
1168
1291
1368
1323
1177
1034
971
955
896
785
719
783
923
1005
985
958
1004
1038
897
564
253
187
343
490
469
382
448
736
1087
1294
1327
1301
1302
1301
1223
1071
928
853
816
768
699
635
582
523
445
366
310
268
216
151
106
111
152
190
187
141
63
-22
-78
-77
-29
18
28
26
84
235
425
563
627
696
863
1104
1288
1312
1210
1110
1099
1141
1148
1078
965
859
801
834
1009
1332
1722
2055
2262
2348
2350
2274
2085
1769
1351
902
516
284
247
386
629
905
1174
1403
1550
1593
1557
1475
1334
1096
764
446
280
313
468
616
695
722
750
794
817
776
665
535
457
463
518
544
498
415
359
369
433
502
518
427
221
-27
-211
-287
-316
-395
-522
-575
-450
-180
80
207
174
24
-196
-449
-659
-746
-685
-551
-429
-337
-223
-42
188
387
460
341
62
-252
-433
-389
-173
82
282
418
516
582
596
534
369
104
-168
-251
11
587
1243
1733
1976
2053
2041
1903
1551
961
224
-496
-1039
-1356
-1516
-1603
-1559
-1161
-251
1015
2207
2977
3377
3735
4246
4721
4789
4322
3583
2983
2730
2729
2754
2669
2490
2311
2186
2105
2007
1815
1492
1073
674
428
405
589
929
1393
1924
2372
2535
2325
1877
1439
1142
904
587
211
-52
-61
142
394
580
700
789
843
832
760
668
598
552
521
510
518
535
563
618
703
765
726
563
361
238
241
305
348
361
386
426
414
315
194
164
253
339
299
144
10
-9
61
123
119
67
2
-36
7
153
309
270
-125
-800
-1451
-1794
-1780
-1562
-1299
-1008
-610
-67
566
1178
1650
1878
1810
1495
1087
757
585
536
534
537
554
592
651
730
820
876
831
658
422
246
225
353
532
657
681
621
531
460
437
465
531
624
721
783
782
708
589
474
410
425
509
604
619
488
229
-66
-303
-456
-544
-569
-486
-231
216
803
1410
1904
2208
2324
2305
2178
1902
1459
966
663
718
1081
1536
1895
2110
2208
2151
1839
1256
521
-196
-773
-1175
-1375
-1340
-1083
-693
-301
-19
100
74
-32
-150
-269
-430
-638
-778
-681
-316
99
246
-13
-504
-900
-992
-817
-550
-312
-76
294
907
1714
2470
2859
2740
2229
1609
1117
806
603
427
246
66
-71
-96
23
199
241
-9
-555
-1270
-2033
-2766
-3377
-3724
-3707
-3349
-2762
-2024
-1125
-55
1080
2069
2727
2998
2908
2506
1851
1028
128
-746
-1478
-1947
-2070
-1831
-1261
-487
286
863
1202
1440
1733
2009
1913
1112
-340
-1945
-3126
-3641
-3665
-3539
-3435
-3225
-2612
-1398
295
2026
3296
3871
3892
3687
3483
3313
3101
2785
2355
1860
1415
1163
1195
1426
1621
1588
1351
1079
902
825
792
756
696
594
422
209
55
49
180
331
396
379
356
369
371
296
128
-83
-276
-438
-596
-769
-923
-966
-811
-468
-65
259
480
647
743
620
148
-572
-1220
-1524
-1475
-1281
-1104
-916
-595
-115
380
662
579
139
-484
-1068
-1485
-1730
-1841
-1794
-1541
-1109
-640
-282
-72
29
13
-209
-702
-1417
-2197
-2870
-3299
-3406
-3193
-2773
-2313
-1882
-1419
-841
-185
376
675
658
393
-5
-424
-763
-965
-1045
-1058
-1060
-1056
-1024
-962
-881
-773
-631
-488
-419
-449
-508
-463
-234
103
361
410
283
123
35
-3
-46
-64
40
256
393
244
-169
-573
-699
-541
-312
-162
-35
191
465
543
232
-388
-1007
-1353
-1367
-1170
-886
-503
79
892
1788
2494
2769
2543
1943
1207
544
55
-279
-551
-810
-968
-873
-484
16
334
306
41
-225
-374
-468
-599
-722
-682
-417
-72
118
57
-121
-200
-87
124
285
363
418
471
444
253
-47
-281
-313
-183
-45
5
5
43
146
268
365
418
400
265
32
-169
-202
-83
21
-23
-142
-123
118
431
564
410
85
-232
-460
-629
-810
-1044
-1347
-1669
-1899
-1948
-1839
-1678
-1510
-1212
-608
288
1228
1954
2443
2878
3376
3806
3934
3699
3304
3005
2865
2748
2514
2183
1902
1782
1787
1812
1786
1711
1638
1586
1537
1469
1393
1344
1320
1262
1102
860
652
574
594
608
561
520
588
776
983
1096
1100
1076
1114
1223
1343
1390
1321
1174
1035
969
967
959
901
826
813
902
1061
1224
1329
1350
1302
1209
1077
910
706
489
302
199
205
320
477
583
586
560
644
876
1089
1068
793
491
388
457
473
323
168
223
481
717
792
811
940
1122
1112
809
431
278
382
490
414
272
292
506
721
794
801
889
1024
1035
865
679
687
890
1117
1237
1274
1335
1478
1676
1858
1946
1894
1730
1575
1551
1660
1791
1835
1776
1659
1553
1522
1636
1889
2131
2180
2023
1875
1948
2193
2334
2190
1886
1706
1771
1916
1908
1720
1528
1488
1555
1602
1598
1604
1640
1642
1578
1526
1575
1688
1732
1636
1488
1411
1397
1342
1218
1125
1161
1280
1346
1324
1307
1389
1533
1623
1604
1526
1462
1412
1357
1320
1368
1513
1661
1685
1562
1417
1401
1542
1724
1804
1739
1601
1496
1480
1542
1627
1670
1637
1547
1478
1487
1541
1555
1489
1381
1277
1159
970
701
424
214
94
34
5
-11
-27
-45
-18
111
314
466
462
345
251
219
122
-145
-460
-556
-335
-12
93
-77
-267
-235
-49
-14
-319
-847
-1344
-1672
-1839
-1819
-1483
-765
176
1070
1806
2498
3263
4005
4462
4459
4066
3494
2933
2478
2145
1890
1624
1306
1008
841
798
727
511
244
124
210
332
311
185
151
295
478
500
336
134
22
-14
-65
-157
-226
-226
-197
-202
-237
-239
-182
-125
-155
-264
-355
-345
-270
-240
-295
-366
-366
-294
-224
-203
-191
-138
-53
9
23
18
33
64
76
31
-79
-239
-400
-499
-509
-469
-461
-524
-611
-651
-628
-600
-631
-725
-841
-939
-1021
-1099
-1171
-1225
-1255
-1264
-1251
-1216
-1177
-1162
-1185
-1221
-1245
-1266
-1334
-1468
-1617
-1713
-1734
-1736
-1774
-1842
-1887
-1870
-1812
-1772
-1805
-1922
-2084
-2230
-2313
-2345
-2375
-2411
-2400
-2290
-2123
-2001
-1958
-1925
-1848
-1818
-2001
-2423
-2891
-3169
-3201
-3127
-3081
-3024
-2821
-2406
-1868
-1369
-1038
-918
-979
-1138
-1310
-1450
-1591
-1784
-2019
-2198
-2206
-2035
-1776
-1567
-1487
-1526
-1618
-1690
-1727
-1792
-1973
-2294
-2665
-2931
-3041
-3125
-3389
-3886
-4403
-4602
-4324
-3747
-3198
-2807
-2393
-1755
-1035
-719
-1183
-2244
-3241
-3595
-3279
-2704
-2212
-1748
-1059
-100
850
1423
1482
1162
653
45
-597
-1133
-1392
-1347
-1169
-1040
-981
-880
-757
-923
-1772
-3346
-5126
-6325
-6470
-5747
-4793
-4127
-3740
-3209
-2213
-989
-291
-784
-2372
-4113
-4890
-4289
-2854
-1480
-576
148
1167
2573
3977
4898
5123
4705
3847
2820
1926
1389
1221
1269
1424
1681
1965
1994
1456
358
-895
-1838
-2383
-2801
-3269
-3519
-3017
-1553
446
2209
3246
3685
3991
4451
4925
5065
4698
3979
3214
2628
2256
2009
1769
1448
1042
634
339
198
130
20
-147
-301
-371
-350
-716
-144
525
685
170
-587
-897
-382
752
1879
2379
2037
1172
413
244
628
1054
999
415
-236
-417
1
683
1138
1078
547
-205
-909
-1387
-1596
-1616
-1585
-1600
-1688
-1803
-1870
-1853
-1798
-1829
-2066
-2490
-2919
-3129
-3015
-2643
-2146
-1595
-992
-368
169
502
596
517
370
231
141
102
85
44
-40
-125
-138
-54
75
157
126
-15
-202
-358
-463
-556
-695
-880
-1044
-1114
-1111
-1133
-1258
-1446
-1559
-1509
-1355
-1243
-1265
-1362
-1396
-1307
-1189
-1203
-1413
-1715
-1916
-1897
-1690
-1431
-1234
-1115
-1003
-827
-583
-326
-147
-119
-251
-467
-641
-687
-636
-590
-609
-646
-607
-463
-293
-191
-176
-201
-242
-324
-476
-651
-756
-752
-692
-652
-656
-676
-689
-700
-715
-708
-663
-608
-599
-645
-700
-711
-692
-684
-687
-653
-555
-435
-357
-322
-279
-219
-211
-313
-460
-517
-462
-413
-461
-485
-239
355
1055
1513
1605
1498
1390
1267
988
544
157
66
276
580
784
871
923
940
818
457
-122
-790
-1397
-1829
-2028
-1985
-1769
-1483
-1200
-927
-646
-391
-256
-293
-459
-631
-697
-624
-443
-211
16
185
250
203
84
-45
-148
-226
-302
-384
-490
-645
-871
-1162
-1490
-1815
-2077
-2151
-1872
-1177
-206
763
1523
2113
2713
3375
3916
4096
3871
3436
3022
2713
2469
2264
2120
2016
1851
1533
1118
782
653
696
758
730
656
660
806
1031
1207
1252
1166
979
673
239
-216
-487
-465
-328
-458
-1077
-1966
-2593
-2538
-1841
-920
-162
388
977
1816
2831
3702
4089
3856
3125
2182
1313
689
340
190
134
107
114
196
365
556
637
487
60
-587
-1304
-1908
-2245
-2261
-2029
-1692
-1373
-1129
-975
-939
-1059
-1314
-1605
-1833
-1961
-2020
-2017
-1866
-1476
-897
-324
59
213
193
-3
-431
-1026
-1512
-1615
-1402
-1271
-1531
-2002
-2140
-1598
-624
170
398
215
31
39
78
-94
-476
-837
-989
-945
-819
-632
-270
364
1170
1878
2251
2240
1979
1644
1327
1007
657
331
148
197
449
784
1085
1299
1402
1325
979
388
-269
-781
-1092
-1323
-1577
-1768
-1695
-1271
-647
-68
367
761
1247
1801
2228
2322
2031
1501
967
620
526
618
772
874
886
849
817
807
764
623
373
85
-146
-243
-185
-1
235
390
318
-6
-433
-768
-946
-1076
-1307
-1639
-1898
-1891
-1576
-1074
-538
-44
418
866
1247
1439
1314
830
103
-606
-1008
-949
-521
23
479
856
1295
1831
2253
2280
1841
1121
373
-276
-818
-1219
-1444
-1556
-1646
-1685
-1513
-1118
-862
-1247
-2358
-3632
-4314
-4134
-3486
-2933
-2646
-2327
-1635
-595
392
885
728
107
-620
-1219
-1717
-2286
-2976
-3605
-3943
-3959
-3834
-3724
-3539
-3078
-2373
-1786
-1678
-1998
-2295
-2162
-1619
-1018
-632
-407
-150
150
314
233
14
-183
-380
-743
-1332
-1956
-2330
-2331
-2052
-1682
-1345
-1090
-913
-783
-677
-639
-775
-1148
-1654
-2075
-2232
-2133
-1954
-1850
-1826
-1799
-1728
-1672
-1732
-1921
-2125
-2196
-2139
-2136
-2350
-2714
-2963
-2883
-2537
-2179
-1973
-1830
-1554
-1096
-629
-384
-445
-715
-1030
-1259
-1342
-1297
-1192
-1095
-1018
-916
-750
-571
-502
-646
-1021
-1573
-2187
-2708
-2970
-2895
-2582
-2268
-2120
-2090
-1987
-1686
-1296
-1082
-1231
-1698
-2234
-2560
-2541
-2260
-1942
-1792
-1844
-1953
-1934
-1735
-1492
-1392
-1512
-1778
-2053
-2242
-2319
-2297
-2198
-2071
-1992
-2032
-2202
-2444
-2659
-2763
-2735
-2642
-2577
-2577
-2571
-2447
-2185
-1906
-1760
-1774
-1837
-1831
-1744
-1648
-1560
-1413
-1160
-867
-672
-638
-702
-745
-723
-689
-724
-847
-1006
-1128
-1153
-1069
-920
-779
-684
-632
-598
-574
-566
-560
-528
-475
-466
-561
-747
-941
-1068
-1135
-1214
-1336
-1446
-1456
-1354
-1245
-1261
-1440
-1695
-1897
-1987
-1999
-1984
-1924
-1757
-1446
-1048
-679
-418
-271
-215
-246
-386
-623
-884
-1079
-1177
-1204
-1203
-1180
-1118
-1027
-971
-1031
-1216
-1443
-1591
-1614
-1569
-1550
-1558
-1482
-1227
-851
-544
-450
-525
-604
-605
-604
-714
-906
-1026
-986
-877
-857
-956
-1033
-954
-744
-565
-537
-642
-785
-906
-1014
-1123
-1221
-1281
-1307
-1332
-1375
-1420
-1458
-1523
-1683
-1958
-2289
-2605
-2922
-3321
-3807
-4197
-4208
-3698
-2813
-1868
-1081
-423
265
1047
1782
2245
2290
1921
1286
609
107
-122
-180
-283
-565
-928
-1145
-1079
-820
-590
-541
-681
-914
-1124
-1225
-1218
-1203
-1298
-1502
-1667
-1682
-1614
-1619
-1714
-1732
-1559
-1343
-1325
-1509
-1660
-1618
-1543
-1699
-2050
-2254
-2082
-1723
-1542
-1641
-1759
-1633
-1311
-1061
-1038
-1164
-1290
-1359
-1397
-1431
-1485
-1601
-1798
-1981
-1998
-1815
-1581
-1483
-1542
-1603
-1543
-1416
-1394
-1565
-1814
-1952
-1913
-1817
-1837
-2009
-2195
-2227
-2083
-1933
-1969
-2220
-2523
-2686
-2671
-2609
-2640
-2780
-2934
-3003
-3002
-3012
-3071
-3133
-3117
-2978
-2737
-2450
-2161
-1896
-1655
-1419
-1169
-918
-724
-622
-568
-466
-258
-1
194
280
325
441
654
885
1033
1051
965
832
724
711
842
1105
1437
1757
2004
2174
2312
2468
2643
2738
2604
2188
1621
1140
879
746
558
274
48
33
186
310
274
122
-47
-241
-562
-1009
-1404
-1548
-1424
-1218
-1124
-1167
-1224
-1181
-1067
-989
-1036
-1219
-1489
-1770
-1986
-2080
-2056
-1987
-1952
-1974
-1996
-1954
-1858
-1801
-1855
-1980
-2046
-1972
-1821
-1759
-1867
-2040
-2103
-2003
-1880
-1893
-2041
-2154
-2078
-1834
-1576
-1417
-1349
-1298
-1212
-1079
-922
-791
-748
-802
-868
-838
-704
-579
-545
-552
-491
-365
-306
-378
-464
-404
-238
-207
-468
-857
-1016
-792
-421
-268
-417
-593
-500
-173
69
-3
-271
-452
-446
-420
-561
-825
-1013
-1053
-1100
-1332
-1722
-2095
-2340
-2516
-2675
-2691
-2335
-1545
-546
361
1069
1701
2380
3005
3323
3185
2708
2162
1747
1484
1292
1115
963
857
794
761
763
785
773
668
478
290
179
142
118
72
39
56
105
119
58
-48
-132
-153
-102
-2
111
201
243
235
201
170
158
169
199
240
277
302
330
382
456
506
496
434
364
314
260
154
-2
-143
-212
-217
-218
-258
-316
-335
-314
-310
-376
-488
-570
-579
-553
-561
-632
-729
-801
-827
-828
-845
-933
-1127
-1371
-1536
-1522
-1375
-1262
-1303
-1440
-1517
-1451
-1322
-1273
-1365
-1542
-1715
-1848
-1958
-2059
-2138
-2170
-2140
-2061
-1961
-1866
-1774
-1654
-1496
-1340
-1262
-1294
-1375
-1400
-1323
-1189
-1065
-949
-772
-488
-167
56
111
50
-29
-100
-229
-466
-750
-959
-1032
-1023
-1001
-963
-864
-715
-612
-629
-729
-805
-817
-828
-914
-1067
-1196
-1234
-1206
-1181
-1190
-1215
-1237
-1271
-1338
-1428
-1496
-1520
-1525
-1557
-1642
-1764
-1892
-1999
-2078
-2136
-2186
-2228
-2247
-2221
-2154
-2095
-2099
-2165
-2230
-2243
-2226
-2251
-2354
-2487
-2568
-2580
-2564
-2558
-2562
-2570
-2598
-2649
-2674
-2624
-2533
-2515
-2609
-2714
-2704
-2622
-2701
-3131
-3824
-4454
-4730
-4626
-4327
-4017
-3728
-3380
-2919
-2388
-1913
-1638
-1670
-2025
-2602
-3212
-3694
-4031
-4339
-4740
-5219
-5649
-5928
-6090
-6231
-6425
-6684
-6976
-7257
-7453
-7491
-7360
-7112
-6801
-6453
-6129
-5968
-6038
-6154
-5938
-5171
-4087
-3208
-2869
-2956
-3122
-3220
-3414
-3924
-4716
-5486
-5875
-5704
-5018
-3992
-2813
-1626
-512
471
1246
1737
1905
1796
1504
1137
780
499
337
311
433
680
953
1111
1093
1013
1056
1268
1456
1361
935
409
92
110
358
652
921
1252
1786
2575
3507
4333
4803
4812
4465
3980
3538
3201
2955
2764
2606
2485
2407
2387
2432
2498
2487
2325
2028
1694
1426
1257
1172
1145
1137
1073
866
486
7
-457
-853
-1212
-1578
-1929
-2216
-2423
-2579
-2718
-2842
-2982
-3214
-3603
-4124
-4671
-5156
-5553
-5838
-5952
-5830
-5496
-5060
-4617
-4186
-3765
-3434
-3324
-3490
-3830
-4176
-4438
-4631
-4773
-4818
-4705
-4461
-4204
-4030
-3933
-3863
-3816
-3842
-3946
-4043
-4041
-3942
-3843
-3807
-3788
-3691
-3488
-3264
-3102
-2982
-2793
-2463
-2087
-1872
-1959
-2274
-2587
-2714
-2683
-2676
-2789
-2916
-2845
-2483
-1968
-1524
-1264
-1137
-1041
-945
-902
-959
-1096
-1257
-1398
-1506
-1580
-1616
-1621
-1621
-1644
-1691
-1740
-1776
-1801
-1817
-1805
-1744
-1649
-1585
-1620
-1752
-1903
-1987
-1986
-1949
-1932
-1949
-1968
-1954
-1904
-1833
-1757
-1686
-1634
-1615
-1618
-1601
-1527
-1426
-1371
-1397
-1467
-1504
-1490
-1488
-1572
-1730
-1862
-1881
-1792
-1683
-1617
-1572
-1478
-1301
-1107
-1021
-1131
-1408
-1722
-1935
-2000
-1950
-1828
-1630
-1332
-952
-546
-172
152
407
546
517
339
114
-59
-177
-317
-521
-721
-817
-806
-791
-876
-1042
-1148
-1081
-860
-613
-449
-407
-475
-633
-842
-1039
-1188
-1310
-1457
-1635
-1793
-1879
-1899
-1936
-2090
-2421
-2899
-3424
-3873
-4172
-4306
-4243
-3886
-3154
-2130
-1068
-179
546
1261
1993
2507
2533
2077
1459
1010
809
710
552
306
55
-114
-150
-66
59
110
50
-49
-98
-87
-51
77
443
1070
1716
2023
1843
1357
847
396
-146
-917
-1811
-2546
-2882
-2772
-2340
-1764
-1196
-730
-391
-154
8
77
12
-187
-450
-679
-803
-798
-685
-510
-329
-202
-178
-269
-440
-620
-732
-738
-666
-581
-520
-481
-455
-468
-550
-686
-811
-886
-945
-1060
-1261
-1499
-1707
-1866
-1998
-2116
-2201
-2250
-2291
-2354
-2428
-2460
-2429
-2372
-2349
-2364
-2358
-2274
-2125
-1983
-1914
-1927
-1989
-2070
-2156
-2251
-2368
-2527
-2718
-2889
-2975
-2965
-2916
-2872
-2798
-2638
-2441
-2375
-2584
-3005
-3391
-3529
-3415
-3206
-3010
-2791
-2454
-1986
-1485
-1065
-785
-674
-756
-1022
-1369
-1643
-1746
-1716
-1674
-1692
-1736
-1730
-1651
-1552
-1508
-1558
-1672
-1794
-1868
-1852
-1724
-1489
-1192
-902
-691
-585
-561
-560
-541
-511
-511
-556
-620
-654
-646
-626
-628
-664
-706
-719
-688
-631
-587
-578
-606
-681
-831
-1060
-1300
-1443
-1451
-1396
-1364
-1310
-1064
-522
191
768
972
809
473
132
-209
-644
-1216
-1802
-2183
-2209
-1918
-1498
-1131
-875
-689
-556
-532
-672
-939
-1212
-1406
-1508
-1535
-1466
-1267
-964
-638
-355
-139
5
50
-24
-184
-357
-456
-426
-282
-137
-175
-482
-917
-1183
-1117
-880
-805
-1054
-1460
-1745
-1833
-1898
-2126
-2520
-2945
-3323
-3663
-3963
-4132
-4085
-3868
-3650
-3566
-3593
-3599
-3505
-3380
-3379
-3587
-3942
-4301
-4571
-4722
-4717
-4442
-3823
-2967
-2103
-1371
-706
5
735
1301
1545
1492
1287
1045
818
646
547
473
358
244
266
462
642
540
105
-407
-698
-732
-730
-893
-1227
-1594
-1886
-2093
-2254
-2407
-2593
-2820
-3047
-3187
-3177
-3028
-2795
-2520
-2247
-2042
-1954
-1944
-1914
-1820
-1729
-1729
-1815
-1870
-1790
-1590
-1355
-1141
-940
-750
-609
-543
-509
-448
-372
-365
-482
-674
-836
-925
-1008
-1153
-1333
-1461
-1510
-1554
-1667
-1829
-1953
-1989
-1975
-1959
-1929
-1857
-1770
-1771
-1949
-2279
-2630
-2850
-2871
-2744
-2568
-2392
-2168
-1819
-1369
-974
-788
-820
-945
-1083
-1311
-1763
-2404
-2987
-3260
-3186
-2954
-2753
-2592
-2343
-1976
-1687
-1761
-2268
-2934
-3339
-3295
-2996
-2759
-2640
-2393
-1872
-1351
-1326
-1962
-2879
-3564
-3933
-4362
-5092
-5783
-5767
-4730
-3052
-1454
-406
86
235
175
-61
-401
-736
-1033
-1325
-1536
-1421
-806
140
935
1151
728
-51
-840
-1471
-1964
-2380
-2707
-2866
-2775
-2460
-2084
-1846
-1791
-1764
-1593
-1287
-1038
-990
-1057
-1024
-802
-521
-371
-421
-610
-845
-1056
-1178
-1136
-910
-598
-370
-344
-511
-789
-1102
-1406
-1677
-1878
-1985
-2009
-2002
-1995
-1953
-1811
-1577
-1382
-1377
-1562
-1783
-1903
-1970
-2151
-2494
-2820
-2897
-2685
-2372
-2159
-2053
-1899
-1574
-1122
-711
-501
-562
-863
-1294
-1704
-1970
-2061
-2051
-2039
-2052
-2037
-1914
-1681
-1447
-1349
-1450
-1679
-1913
-2079
-2187
-2265
-2282
-2187
-2007
-1860
-1838
-1914
-1993
-2042
-2142
-2376
-2725
-3093
-3409
-3668
-3886
-4058
-4155
-4145
-3960
-3496
-2736
-1852
-1105
-600
-212
230
717
1050
1094
923
692
460
199
-57
-211
-272
-403
-741
-1185
-1477
-1506
-1437
-1497
-1702
-1864
-1853
-1733
-1662
-1697
-1773
-1822
-1860
-1959
-2153
-2394
-2576
-2608
-2493
-2341
-2281
-2320
-2354
-2317
-2294
-2401
-2600
-2729
-2709
-2648
-2685
-2769
-2710
-2453
-2203
-2206
-2469
-2760
-2862
-2778
-2672
-2674
-2789
-2931
-2980
-2842
-2547
-2305
-2368
-2757
-3155
-3208
-2904
-2617
-2698
-3078
-3354
-3237
-2861
-2609
-2705
-3031
-3327
-3484
-3577
-3675
-3734
-3679
-3566
-3575
-3816
-4193
-4486
-4564
-4484
-4401
-4393
-4398
-4305
-4065
-3716
-3366
-3153
-3184
-3452
-3813
-4060
-4085
-3952
-3832
-3855
-4017
-4191
-4226
-4049
-3729
-3449
-3383
-3553
-3776
-3826
-3649
-3407
-3298
-3386
-3578
-3750
-3836
-3837
-3782
-3704
-3642
-3607
-3553
-3441
-3293
-3187
-3199
-3361
-3651
-3984
-4204
-4165
-3888
-3591
-3472
-3483
-3393
-3102
-2834
-2884
-3249
-3598
-3658
-3522
-3471
-3586
-3666
-3551
-3371
-3358
-3505
-3556
-3355
-3085
-3046
-3274
-3504
-3495
-3309
-3216
-3354
-3562
-3603
-3431
-3219
-3136
-3145
-3088
-2922
-2794
-2870
-3120
-3315
-3273
-3080
-2973
-3061
-3188
-3123
-2841
-2532
-2389
-2413
-2470
-2474
-2462
-2486
-2507
-2460
-2361
-2285
-2250
-2172
-1985
-1740
-1585
-1607
-1741
-1841
-1803
-1635
-1439
-1333
-1373
-1493
-1539
-1412
-1176
-1003
-1008
-1129
-1212
-1211
-1241
-1420
-1698
-1887
-1876
-1756
-1706
-1786
-1885
-1868
-1767
-1763
-2007
-2442
-2874
-3172
-3388
-3641
-3916
-4025
-3770
-3143
-2357
-1647
-1064
-474
232
963
1457
1518
1202
747
352
42
-267
-601
-881
-1031
-1078
-1117
-1185
-1227
-1195
-1122
-1110
-1224
-1429
-1616
-1681
-1591
-1430
-1329
-1375
-1544
-1739
-1893
-2004
-2085
-2111
-2041
-1901
-1776
-1714
-1654
-1526
-1371
-1338
-1522
-1844
-2120
-2222
-2172
-2074
-1988
-1896
-1759
-1583
-1424
-1343
-1366
-1486
-1668
-1849
-1969
-2008
-1996
-1971
-1934
-1847
-1694
-1509
-1370
-1338
-1416
-1582
-1793
-1985
-2077
-2021
-1858
-1696
-1608
-1556
-1440
-1236
-1042
-983
-1079
-1238
-1363
-1445
-1515
-1566
-1546
-1443
-1324
-1252
-1223
-1180
-1103
-1043
-1056
-1144
-1282
-1437
-1590
-1697
-1714
-1642
-1539
-1484
-1486
-1506
-1490
-1408
-1280
-1175
-1202
-1431
-1812
-2193
-2441
-2564
-2682
-2882
-3096
-3170
-3024
-2737
-2466
-2296
-2203
-2132
-2092
-2115
-2177
-2192
-2115
-2011
-1980
-2005
-1959
-1742
-1431
-1199
-1146
-1208
-1256
-1252
-1257
-1319
-1414
-1471
-1456
-1403
-1379
-1429
-1535
-1634
-1683
-1704
-1772
-1913
-2051
-2082
-1999
-1910
-1904
-1940
-1911
-1802
-1723
-1752
-1825
-1825
-1754
-1771
-2004
-2374
-2666
-2754
-2715
-2686
-2669
-2561
-2349
-2203
-2325
-2681
-3017
-3103
-2965
-2810
-2757
-2698
-2423
-1852
-1111
-406
110
390
457
378
228
43
-172
-436
-733
-1000
-1170
-1209
-1128
-997
-920
-972
-1143
-1356
-1537
-1664
-1743
-1771
-1748
-1734
-1829
-2090
-2449
-2794
-3119
-3519
-4030
-4544
-4911
-5114
-5275
-5482
-5677
-5736
-5632
-5501
-5526
-5808
-6259
-6616
-6555
-5929
-4950
-4019
-3312
-2554
-1343
303
1788
2439
2145
1405
764
329
-163
-887
-1694
-2289
-2507
-2396
-2088
-1697
-1344
-1147
-1130
-1183
-1185
-1144
-1158
-1269
-1368
-1327
-1151
-990
-943
-944
-867
-716
-641
-718
-813
-735
-520
-430
-660
-1078
-1371
-1418
-1411
-1592
-1964
-2324
-2512
-2527
-2423
-2221
-2003
-1962
-2257
-2775
-3182
-3254
-3078
-2894
-2763
-2513
-1987
-1275
-621
-164
141
363
451
279
-184
-789
-1318
-1630
-1736
-1742
-1755
-1796
-1810
-1728
-1549
-1363
-1270
-1311
-1451
-1632
-1814
-1987
-2146
-2292
-2448
-2637
-2834
-2971
-2987
-2880
-2695
-2481
-2270
-2103
-2028
-2078
-2211
-2330
-2349
-2278
-2207
-2224
-2317
-2372
-2294
-2099
-1901
-1791
-1760
-1717
-1596
-1415
-1242
-1115
-1028
-964
-919
-902
-888
-832
-723
-605
-561
-623
-736
-776
-655
-404
-160
-68
-148
-279
-306
-223
-199
-429
-926
-1474
-1821
-1910
-1904
-1972
-2098
-2120
-1953
-1719
-1613
-1691
-1832
-1917
-1982
-2146
-2413
-2636
-2670
-2539
-2404
-2357
-2348
-2272
-2122
-1983
-1917
-1897
-1884
-1898
-1978
-2097
-2171
-2177
-2191
-2301
-2470
-2550
-2431
-2180
-1977
-1931
-1990
-2025
-1983
-1947
-2020
-2194
-2354
-2401
-2345
-2267
-2235
-2242
-2238
-2197
-2151
-2131
-2128
-2119
-2106
-2127
-2200
-2266
-2243
-2131
-2067
-2218
-2608
-3079
-3411
-3516
-3450
-3292
-3054
-2716
-2297
-1861
-1464
-1144
-960
-1008
-1316
-1791
-2289
-2733
-3134
-3505
-3829
-4107
-4395
-4706
-4887
-4718
-4166
-3486
-3003
-2784
-2594
-2188
-1607
-1149
-1054
-1284
-1611
-1872
-2069
-2291
-2547
-2777
-2947
-3099
-3245
-3338
-3345
-3354
-3512
-3832
-4110
-4110
-3830
-3515
-3369
-3322
-3123
-2691
-2266
-2148
-2366
-2650
-2763
-2757
-2870
-3201
-3591
-3821
-3845
-3797
-3778
-3752
-3626
-3401
-3169
-2995
-2853
-2704
-2570
-2505
-2477
-2392
-2189
-1930
-1742
-1667
-1623
-1512
-1348
-1236
-1230
-1271
-1264
-1191
-1107
-1055
-1047
-1099
-1245
-1466
-1649
-1678
-1581
-1517
-1599
-1750
-1804
-1709
-1581
-1560
-1664
-1795
-1880
-1921
-1946
-1944
-1900
-1848
-1841
-1897
-1975
-2012
-1992
-1937
-1882
-1846
-1825
-1813
-1811
-1836
-1904
-2010
-2132
-2243
-2326
-2365
-2347
-2253
-2096
-1908
-1716
-1535
-1394
-1329
-1356
-1440
-1511
-1525
-1504
-1480
-1447
-1370
-1232
-1062
-906
-805
-768
-799
-880
-961
-1004
-1037
-1118
-1244
-1344
-1366
-1360
-1429
-1582
-1702
-1703
-1676
-1809
-2176
-2626
-2924
-2984
-2909
-2840
-2793
-2683
-2455
-2128
-1769
-1445
-1224
-1175
-1305
-1532
-1756
-1964
-2229
-2580
-2923
-3093
-3026
-2796
-2500
-2161
-1767
-1373
-1068
-883
-766
-683
-703
-898
-1193
-1392
-1421
-1458
-1754
-2308
-2778
-2801
-2353
-1748
-1295
-1015
-707
-234
317
749
950
940
770
459
37
-399
-716
-863
-909
-943
-976
-946
-818
-657
-586
-678
-900
-1169
-1431
-1668
-1859
-1967
-1989
-1978
-1992
-2025
-1995
-1852
-1650
-1491
-1417
-1372
-1294
-1213
-1247
-1475
-1852
-2265
-2647
-2994
-3290
-3429
-3264
-2759
-2046
-1288
-522
307
1176
1894
2250
2192
1837
1316
690
23
-586
-1095
-1623
-2321
-3121
-3692
-3739
-3299
-2706
-2257
-1986
-1736
-1368
-898
-452
-190
-232
-575
-1055
-1451
-1668
-1794
-1934
-2085
-2181
-2216
-2273
-2393
-2505
-2520
-2481
-2556
-2889
-3480
-4202
-4883
-5374
-5607
-5593
-5383
-4999
-4410
-3622
-2755
-2016
-1584
-1516
-1776
-2312
-3059
-3881
-4560
-4859
-4655
-3993
-3059
-2095
-1292
-732
-430
-399
-696
-1372
-2317
-3227
-3752
-3740
-3330
-2797
-2318
-1904
-1528
-1251
-1192
-1395
-1765
-2152
-2467
-2703
-2842
-2841
-2717
-2596
-2610
-2738
-2795
-2632
-2335
-2171
-2307
-2617
-2779
-2586
-2128
-1686
-1465
-1411
-1310
-1033
-680
-479
-570
-868
-1149
-1259
-1233
-1235
-1393
-1697
-2025
-2231
-2212
-1945
-1509
-1058
-725
-529
-375
-159
95
235
126
-233
-715
-1161
-1470
-1614
-1597
-1443
-1206
-959
-762
-638
-584
-596
-679
-850
-1109
-1406
-1636
-1713
-1656
-1593
-1633
-1740
-1797
-1778
-1795
-1946
-2143
-2219
-2204
-2374
-2907
-3572
-3863
-3507
-2783
-2222
-2049
-2000
-1688
-1046
-367
3
-57
-448
-1006
-1595
-2083
-2396
-2566
-2700
-2809
-2747
-2388
-1837
-1422
-1409
-1743
-2132
-2368
-2487
-2597
-2638
-2388
-1746
-914
-220
167
293
251
47
-322
-724
-972
-1037
-1063
-1155
-1202
-1006
-568
-172
-124
-430
-778
-881
-734
-548
-462
-386
-143
290
709
856
637
167
-394
-982
-1621
-2294
-2849
-3103
-3031
-2804
-2628
-2544
-2440
-2286
-2233
-2434
-2773
-2898
-2560
-1857
-1089
-413
271
1067
1841
2303
2307
2012
1690
1433
1110
590
-58
-606
-910
-1071
-1333
-1812
-2337
-2580
-2381
-1914
-1518
-1365
-1340
-1240
-1024
-830
-804
-942
-1162
-1422
-1714
-1990
-2126
-2024
-1722
-1379
-1160
-1137
-1277
-1505
-1756
-1991
-2192
-2338
-2395
-2343
-2208
-2052
-1940
-1892
-1895
-1947
-2066
-2249
-2422
-2463
-2305
-2022
-1767
-1650
-1648
-1669
-1669
-1672
-1726
-1812
-1867
-1873
-1868
-1911
-2002
-2093
-2148
-2181
-2222
-2276
-2313
-2312
-2283
-2266
-2272
-2277
-2244
-2166
-2091
-2082
-2161
-2279
-2350
-2334
-2279
-2265
-2310
-2342
-2287
-2182
-2148
-2255
-2416
-2468
-2359
-2201
-2142
-2180
-2169
-2009
-1769
-1610
-1591
-1624
-1609
-1556
-1557
-1653
-1776
-1827
-1774
-1668
-1567
-1491
-1416
-1310
-1164
-1021
-941
-964
-1052
-1105
-1055
-954
-928
-1030
-1162
-1160
-989
-819
-856
-1124
-1401
-1423
-1154
-834
-738
-908
-1119
-1139
-959
-787
-826
-1068
-1314
-1377
-1246
-1065
-978
-994
-1000
-905
-759
-718
-880
-1163
-1376
-1409
-1331
-1311
-1423
-1569
-1587
-1419
-1191
-1090
-1179
-1358
-1476
-1505
-1562
-1748
-2004
-2153
-2105
-1963
-1896
-1937
-1953
-1826
-1614
-1489
-1541
-1679
-1765
-1763
-1749
-1767
-1764
-1663
-1483
-1333
-1283
-1282
-1219
-1065
-918
-912
-1064
-1255
-1338
-1268
-1132
-1041
-1033
-1060
-1054
-991
-893
-798
-751
-779
-864
-944
-935
-815
-645
-538
-544
-599
-579
-441
-270
-172
-155
-135
-83
-99
-330
-776
-1246
-1545
-1687
-1867
-2228
-2672
-2919
-2745
-2164
-1405
-692
-83
524
1231
2002
2663
3040
3089
2908
2637
2369
2138
1929
1692
1380
992
610
344
229
189
119
-6
-123
-162
-130
-79
-55
-74
-131
-207
-278
-316
-329
-348
-391
-422
-372
-224
-38
111
198
249
263
180
-59
-399
-677
-778
-779
-864
-1097
-1318
-1316
-1080
-826
-744
-786
-764
-606
-451
-448
-570
-651
-595
-479
-424
-441
-451
-398
-313
-246
-212
-208
-255
-369
-515
-614
-624
-590
-599
-682
-786
-860
-915
-993
-1095
-1155
-1115
-1011
-953
-1010
-1127
-1170
-1083
-928
-834
-868
-1000
-1135
-1191
-1120
-942
-742
-643
-682
-767
-757
-615
-469
-486
-695
-961
-1113
-1094
-963
-820
-715
-639
-551
-412
-218
-20
100
99
20
-45
-41
-3
-4
-66
-137
-175
-192
-220
-250
-231
-137
-15
63
87
124
219
331
381
343
274
243
243
214
122
16
-35
-8
52
86
85
92
139
216
283
310
301
269
211
119
2
-104
-153
-136
-90
-53
-36
-24
-8
1
-7
-48
-130
-253
-382
-449
-403
-275
-181
-227
-406
-584
-634
-560
-505
-620
-917
-1256
-1470
-1469
-1284
-1011
-741
-521
-331
-111
169
454
637
645
499
282
57
-142
-287
-350
-358
-414
-582
-809
-973
-1033
-1098
-1294
-1594
-1832
-1893
-1831
-1773
-1745
-1663
-1474
-1244
-1089
-1047
-1056
-1054
-1028
-986
-935
-906
-990
-1306
-1883
-2601
-3276
-3783
-4101
-4274
-4354
-4381
-4350
-4176
-3712
-2875
-1810
-848
-236
125
582
1354
2230
2753
2705
2302
1900
1551
995
15
-1291
-2616
-3704
-4428
-4696
-4497
-4064
-3806
-3953
-4294
-4401
-4119
-3730
-3587
-3697
-3752
-3504
-2980
-2360
-1789
-1351
-1144
-1233
-1512
-1747
-1794
-1731
-1723
-1857
-2049
-2151
-2074
-1814
-1468
-1207
-1188
-1408
-1665
-1745
-1617
-1399
-1206
-1009
-756
-523
-469
-658
-944
-1121
-1130
-1083
-1097
-1170
-1243
-1335
-1530
-1805
-1955
-1768
-1284
-806
-597
-564
-339
307
1176
1805
1924
1715
1600
1787
2114
2267
2115
1786
1503
1369
1323
1252
1087
841
580
370
239
183
177
215
289
361
366
260
57
-174
-360
-481
-568
-678
-830
-972
-1027
-955
-803
-654
-557
-496
-463
-475
-530
-597
-653
-711
-801
-908
-979
-1004
-1020
-1057
-1070
-1018
-1016
-1331
-2116
-3150
-3907
-3969
-3381
-2589
-1985
-1542
-918
61
1089
1587
1239
285
-698
-1283
-1462
-1460
-1413
-1243
-828
-181
504
991
1149
975
555
19
-509
-942
-1242
-1392
-1370
-1177
-872
-565
-372
-358
-521
-786
-1041
-1192
-1196
-1084
-934
-827
-812
-893
-1027
-1155
-1232
-1260
-1285
-1330
-1376
-1385
-1369
-1423
-1646
-2044
-2499
-2844
-2951
-2783
-2395
-1898
-1414
-991
-590
-149
299
613
661
453
123
-190
-434
-614
-735
-796
-815
-835
-877
-916
-940
-983
-1085
-1238
-1397
-1525
-1629
-1716
-1751
-1717
-1655
-1655
-1763
-1910
-1991
-1968
-1903
-1882
-1914
-1946
-1954
-2000
-2181
-2519
-2921
-3263
-3507
-3725
-3965
-4126
-3989
-3408
-2495
-1549
-793
-190
448
1180
1811
2062
1851
1360
842
413
34
-342
-687
-951
-1131
-1264
-1360
-1378
-1314
-1245
-1275
-1442
-1673
-1860
-1952
-1972
-1986
-2036
-2117
-2197
-2247
-2266
-2270
-2285
-2321
-2354
-2358
-2332
-2303
-2297
-2306
-2305
-2276
-2248
-2260
-2311
-2359
-2364
-2350
-2376
-2473
-2593
-2667
-2668
-2636
-2631
-2664
-2707
-2735
-2758
-2801
-2867
-2934
-2975
-2987
-2978
-2960
-2945
-2944
-2952
-2945
-2898
-2822
-2761
-2747
-2762
-2760
-2709
-2620
-2526
-2426
-2312
-2192
-2092
-2013
-1922
-1792
-1653
-1567
-1541
-1513
-1415
-1263
-1143
-1109
-1120
-1098
-1021
-963
-998
-1115
-1225
-1255
-1220
-1190
-1204
-1231
-1210
-1124
-1016
-940
-904
-876
-824
-754
-695
-660
-642
-620
-591
-572
-563
-559
-570
-616
-701
-789
-828
-816
-803
-839
-911
-964
-978
-1005
-1102
-1264
-1428
-1543
-1610
-1653
-1682
-1683
-1654
-1621
-1610
-1630
-1680
-1763
-1884
-2042
-2216
-2376
-2492
-2543
-2532
-2490
-2446
-2404
-2334
-2222
-2104
-2034
-2031
-2054
-2057
-2036
-2034
-2090
-2198
-2315
-2401
-2448
-2475
-2506
-2548
-2593
-2617
-2585
-2490
-2374
-2304
-2325
-2401
-2451
-2436
-2414
-2476
-2640
-2812
-2871
-2788
-2636
-2493
-2354
-2171
-1937
-1727
-1636
-1694
-1863
-2092
-2359
-2629
-2833
-2887
-2765
-2523
-2238
-1936
-1605
-1255
-961
-820
-866
-1050
-1279
-1488
-1661
-1794
-1873
-1893
-1876
-1854
-1829
-1781
-1710
-1669
-1707
-1794
-1831
-1758
-1628
-1560
-1617
-1762
-1925
-2103
-2351
-2698
-3091
-3448
-3729
-3944
-4073
-4022
-3672
-3009
-2175
-1374
-701
-92
557
1196
1605
1588
1196
710
401
317
290
156
-89
-328
-449
-452
-428
-480
-655
-919
-1185
-1370
-1446
-1451
-1429
-1409
-1406
-1446
-1540
-1664
-1769
-1846
-1923
-2021
-2114
-2153
-2132
-2094
-2068
-2024
-1927
-1812
-1774
-1862
-1999
-2041
-1918
-1695
-1510
-1442
-1458
-1464
-1394
-1254
-1099
-974
-901
-892
-956
-1105
-1289
-1425
-1470
-1502
-1660
-1965
-2238
-2236
-1888
-1396
-1024
-842
-710
-500
-273
-204
-377
-704
-1031
-1262
-1378
-1365
-1218
-1000
-845
-833
-904
-926
-887
-943
-1245
-1729
-2121
-2154
-1820
-1356
-991
-769
-573
-312
-40
106
41
-198
-507
-795
-1006
-1090
-1027
-853
-657
-531
-500
-527
-568
-608
-649
-682
-690
-677
-665
-651
-603
-497
-366
-280
-289
-391
-546
-718
-880
-990
-1002
-917
-791
-693
-639
-601
-560
-550
-622
-798
-1043
-1297
-1518
-1680
-1764
-1757
-1665
-1530
-1411
-1351
-1344
-1345
-1320
-1285
-1288
-1343
-1424
-1493
-1556
-1667
-1873
-2183
-2576
-3038
-3550
-4025
-4309
-4268
-3896
-3343
-2785
-2299
-1848
-1395
-998
-789
-847
-1132
-1519
-1893
-2189
-2378
-2455
-2438
-2367
-2272
-2161
-2029
-1898
-1814
-1793
-1809
-1827
-1839
-1849
-1836
-1755
-1601
-1446
-1375
-1401
-1446
-1428
-1350
-1274
-1232
-1188
-1099
-991
-930
-928
-917
-836
-720
-652
-640
-605
-499
-399
-430
-583
-694
-629
-441
-309
-320
-377
-339
-217
-164
-293
-561
-860
-1156
-1489
-1870
-2226
-2479
-2623
-2662
-2505
-2009
-1176
-237
528
1054
1521
2085
2632
2869
2640
2110
1600
1291
1106
874
537
185
-69
-190
-229
-257
-318
-414
-529
-640
-733
-806
-866
-910
-942
-978
-1033
-1101
-1163
-1209
-1242
-1263
-1258
-1216
-1153
-1106
-1092
-1101
-1121
-1165
-1250
-1348
-1394
-1337
-1203
-1081
-1046
-1085
-1114
-1068
-972
-905
-911
-950
-948
-879
-797
-764
-787
-820
-826
-808
-799
-822
-880
-945
-975
-944
-883
-870
-957
-1092
-1150
-1069
-944
-945
-1120
-1336
-1416
-1343
-1254
-1261
-1332
-1371
-1369
-1408
-1503
-1562
-1514
-1434
-1473
-1644
-1777
-1719
-1532
-1433
-1516
-1650
-1650
-1510
-1396
-1419
-1510
-1519
-1420
-1322
-1314
-1359
-1355
-1268
-1153
-1060
-969
-835
-656
-487
-359
-244
-85
121
298
357
291
194
179
282
430
532
572
613
708
819
853
773
672
675
786
871
810
667
632
804
1059
1169
1056
874
825
943
1068
1030
838
661
645
755
822
737
557
449
496
616
647
543
408
359
389
404
352
281
234
167
16
-169
-235
-105
105
196
97
-66
-108
30
248
410
447
401
371
442
613
795
883
856
783
747
769
828
921
1052
1179
1221
1152
1063
1075
1190
1276
1232
1117
1096
1229
1415
1519
1529
1555
1656
1755
1736
1588
1414
1313
1294
1291
1258
1204
1172
1191
1264
1351
1387
1305
1104
862
667
513
284
-117
-638
-1103
-1379
-1493
-1531
-1457
-1089
-321
688
1632
2365
3003
3703
4358
4658
4437
3876
3316
2918
2576
2141
1623
1149
790
511
283
128
57
-4
-140
-338
-487
-497
-392
-265
-188
-198
-298
-452
-585
-625
-569
-486
-435
-386
-267
-73
107
187
170
135
124
102
25
-68
-82
11
116
108
-22
-154
-169
-87
-28
-65
-148
-196
-222
-347
-652
-1045
-1309
-1299
-1079
-856
-765
-725
-533
-113
375
660
619
366
120
-16
-104
-256
-485
-694
-788
-760
-678
-599
-538
-494
-492
-558
-666
-738
-722
-647
-600
-629
-701
-754
-770
-779
-807
-837
-832
-775
-684
-575
-466
-368
-299
-272
-283
-314
-339
-334
-282
-190
-91
-19
28
89
200
348
484
562
581
566
541
513
478
447
444
471
514
555
595
641
683
699
677
633
602
595
586
557
522
508
517
525
517
521
563
628
639
548
397
295
313
411
479
453
383
365
426
500
509
460
423
438
475
486
479
500
558
609
606
557
494
422
328
233
186
196
214
186
130
124
188
252
222
92
-54
-144
-175
-182
-169
-116
-5
137
275
387
460
492
484
458
439
438
450
469
501
545
586
605
605
599
599
591
559
511
479
486
520
538
508
446
392
351
297
212
139
140
202
230
145
-29
-191
-317
-511
-879
-1378
-1831
-2114
-2261
-2377
-2431
-2215
-1544
-499
598
1472
2123
2752
3450
4043
4266
4038
3543
3024
2566
2105
1571
986
426
-49
-398
-566
-524
-346
-181
-118
-74
129
579
1149
1584
1696
1496
1143
783
423
-5
-537
-1119
-1665
-2119
-2461
-2670
-2729
-2688
-2655
-2689
-2739
-2697
-2543
-2383
-2342
-2461
-2713
-3073
-3519
-3981
-4353
-4594
-4791
-5031
-5253
-5325
-5255
-5192
-5222
-5241
-5130
-4975
-4955
-5049
-5004
-4704
-4397
-4337
-4235
-3389
-1494
787
2338
2663
2284
2029
2071
1857
855
-805
-2466
-3559
-3952
-3809
-3330
-2649
-1887
-1161
-548
-57
316
536
570
454
282
192
293
619
1110
1654
2146
2513
2716
2754
2678
2572
2517
2546
2625
2674
2627
2470
2235
1970
1720
1519
1383
1309
1286
1297
1301
1240
1069
840
705
817
1183
1630
1947
2070
2087
2090
2044
1852
1488
1048
645
323
74
-77
-41
233
671
1107
1407
1545
1596
1630
1648
1599
1450
1233
1030
917
909
967
1049
1132
1194
1207
1163
1103
1093
1155
1234
1233
1113
939
827
830
913
1013
1124
1263
1420
1525
1529
1452
1341
1195
964
638
308
98
49
94
154
242
438
763
1122
1382
1505
1566
1647
1746
1790
1751
1687
1672
1718
1785
1849
1925
2028
2122
2168
2188
2254
2405
2596
2729
2756
2708
2650
2609
2571
2519
2463
2441
2489
2615
2783
2925
2972
2890
2702
2464
2211
1933
1603
1227
858
567
376
232
65
-164
-428
-675
-881
-1050
-1137
-1017
-561
230
1183
2079
2821
3470
4090
4606
4827
4636
4130
3559
3137
2888
2681
2400
2069
1810
1689
1628
1499
1299
1167
1218
1376
1430
1257
962
743
647
522
216
-250
-692
-944
-990
-920
-819
-719
-635
-584
-580
-604
-633
-675
-763
-907
-1059
-1129
-1072
-942
-856
-879
-976
-1057
-1080
-1077
-1094
-1116
-1081
-967
-833
-764
-782
-828
-853
-886
-1011
-1239
-1434
-1410
-1120
-729
-463
-420
-506
-574
-577
-590
-720
-1013
-1421
-1819
-2047
-1995
-1706
-1368
-1166
-1137
-1185
-1206
-1208
-1272
-1440
-1677
-1908
-2074
-2140
-2084
-1914
-1675
-1434
-1257
-1186
-1223
-1316
-1384
-1371
-1302
-1247
-1240
-1234
-1153
-992
-808
-655
-532
-403
-245
-69
118
318
514
670
761
808
868
969
1065
1085
1018
953
1002
1191
1413
1516
1430
1222
1016
868
714
473
160
-111
-250
-271
-252
-222
-150
-37
46
49
33
100
208
161
-184
-715
-1151
-1319
-1292
-1232
-1186
-1085
-892
-659
-435
-202
35
171
91
-159
-378
-420
-346
-319
-390
-447
-382
-232
-116
-81
-83
-80
-99
-182
-304
-380
-388
-371
-359
-332
-293
-300
-399
-524
-553
-465
-378
-356
-275
-6
298
205
-574
-1802
-2844
-3207
-2913
-2334
-1762
-1185
-433
567
1693
2706
3360
3498
3136
2478
1814
1348
1104
998
948
959
1064
1260
1513
1768
1951
1981
1820
1505
1155
909
839
904
979
947
770
477
124
-244
-585
-851
-998
-997
-808
-370
355
1299
2284
3146
3859
4485
5018
5300
5154
4576
3761
2938
2212
1595
1127
895
925
1115
1309
1427
1472
1436
1257
901
438
4
-323
-559
-730
-811
-763
-620
-499
-500
-621
-760
-826
-810
-771
-769
-800
-795
-687
-506
-406
-556
-996
-1576
-2044
-2229
-2135
-1897
-1641
-1388
-1070
-618
-46
540
991
1208
1166
915
539
137
-217
-501
-756
-1035
-1341
-1605
-1746
-1762
-1730
-1761
-1928
-2245
-2641
-2967
-3060
-2867
-2495
-2146
-1950
-1903
-1963
-2132
-2425
-2752
-2918
-2791
-2429
-2010
-1626
-1183
-541
284
1056
1482
1425
977
361
-215
-658
-982
-1221
-1367
-1360
-1157
-801
-431
-193
-156
-305
-593
-984
-1393
-1669
-1692
-1504
-1283
-1174
-1152
-1084
-925
-769
-714
-728
-712
-656
-666
-798
-947
-924
-650
-218
195
483
652
786
967
1212
1416
1406
1087
560
72
-197
-262
-281
-366
-492
-547
-477
-343
-254
-272
-366
-463
-537
-643
-831
-1041
-1119
-977
-718
-550
-566
-646
-597
-395
-215
-216
-358
-482
-541
-671
-968
-1299
-1397
-1154
-763
-520
-514
-553
-418
-97
213
335
256
87
-91
-288
-532
-801
-1030
-1172
-1243
-1318
-1468
-1709
-1961
-2086
-1982
-1652
-1206
-775
-427
-152
90
318
513
637
655
564
404
260
222
346
597
846
949
867
696
567
476
274
-142
-643
-947
-888
-603
-365
-290
-243
-66
152
137
-283
-966
-1577
-1877
-1879
-1710
-1390
-805
109
1208
2211
2955
3532
4115
4666
4848
4335
3199
1950
1156
1007
1263
1556
1730
1883
2159
2546
2846
2823
2357
1543
660
16
-224
-117
149
413
641
909
1265
1627
1807
1636
1115
448
-92
-366
-435
-427
-385
-259
-21
236
359
269
29
-233
-427
-540
-575
-513
-366
-189
-49
36
84
93
22
-152
-346
-419
-322
-181
-167
-303
-422
-341
-59
243
396
394
356
380
467
555
585
534
416
267
147
95
95
88
29
-70
-143
-124
-22
89
114
26
-97
-127
-17
167
304
338
318
332
429
576
698
748
744
740
774
836
904
995
1147
1345
1487
1487
1402
1406
1616
1926
2104
2038
1854
1802
1998
2327
2573
2636
2595
2597
2738
2980
3202
3290
3228
3119
3096
3182
3263
3201
3013
2882
2968
3191
3306
3190
2996
2992
3226
3467
3449
3187
2932
2887
3024
3174
3203
3088
2859
2581
2365
2330
2476
2637
2655
2525
2412
2444
2610
2822
3020
3165
3186
3023
2750
2567
2607
2766
2785
2540
2185
1992
2056
2234
2346
2352
2331
2341
2330
2247
2148
2141
2264
2426
2471
2349
2163
2085
2198
2421
2606
2665
2621
2541
2446
2328
2225
2218
2330
2450
2433
2260
2086
2077
2229
2383
2390
2257
2093
1982
1926
1882
1843
1825
1801
1710
1524
1315
1214
1290
1447
1491
1301
962
698
623
622
473
95
-356
-677
-834
-961
-1133
-1200
-891
-118
877
1736
2335
2879
3615
4485
5134
5267
4950
4527
4264
4147
3984
3666
3267
2937
2764
2722
2726
2699
2614
2511
2434
2376
2275
2114
1977
1950
1986
1912
1642
1300
1117
1173
1318
1355
1269
1193
1208
1261
1264
1230
1219
1225
1142
898
568
327
292
432
624
777
911
1121
1489
1994
2506
2863
2977
2894
2724
2546
2362
2136
1868
1610
1430
1341
1295
1238
1158
1093
1067
1046
970
840
723
681
696
696
642
573
535
501
406
240
71
-31
-48
-2
85
193
286
332
344
372
441
520
560
549
522
510
512
522
555
615
678
719
750
798
839
822
748
707
789
965
1100
1131
1159
1315
1576
1764
1765
1678
1689
1838
1976
1971
1878
1866
1996
2153
2187
2079
1937
1849
1818
1799
1762
1696
1613
1560
1600
1734
1856
1833
1657
1471
1411
1454
1453
1316
1118
1020
1092
1245
1337
1318
1244
1194
1193
1216
1247
1295
1355
1410
1448
1479
1522
1572
1609
1618
1611
1605
1596
1565
1504
1427
1371
1368
1405
1423
1377
1295
1266
1332
1420
1429
1360
1348
1482
1692
1824
1828
1829
1953
2118
2093
1782
1368
1138
1158
1155
785
-27
-1001
-1732
-2012
-1932
-1727
-1533
-1259
-661
457
2058
3844
5395
6401
6815
6829
6673
6409
5936
5139
4070
2977
2141
1706
1611
1671
1713
1638
1423
1087
661
182
-302
-756
-1182
-1593
-1961
-2170
-2053
-1534
-734
84
708
1131
1492
1854
2098
2036
1627
1021
409
-126
-571
-876
-947
-805
-619
-539
-543
-471
-235
66
247
215
7
-297
-608
-803
-761
-473
-98
155
209
161
127
99
-25
-319
-764
-1291
-1809
-2221
-2442
-2438
-2270
-2042
-1820
-1632
-1540
-1692
-2244
-3184
-4226
-4935
-5020
-4528
-3757
-2950
-2091
-1003
320
1547
2194
1998
1115
-40
-1106
-1940
-2554
-2996
-3279
-3388
-3297
-3005
-2564
-2100
-1736
-1485
-1238
-872
-371
184
718
1193
1569
1758
1678
1345
864
343
-170
-612
-846
-723
-252
376
930
1317
1603
1864
2081
2195
2221
2237
2281
2320
2335
2379
2523
2747
2952
3068
3126
3179
3211
3178
3103
3082
3166
3271
3274
3155
3025
2968
2940
2838
2639
2419
2251
2133
2019
1905
1819
1782
1786
1828
1920
2055
2195
2302
2371
2405
2392
2328
2254
2244
2320
2405
2396
2289
2218
2295
2465
2566
2510
2373
2295
2288
2239
2083
1918
1866
1839
1532
728
-402
-1341
-1614
-1137
-217
760
1626
2463
3408
4449
5380
5905
5816
5123
4062
2989
2202
1797
1664
1624
1574
1542
1608
1802
2043
2186
2116
1864
1559
1346
1293
1397
1635
1979
2342
2549
2421
1924
1228
578
130
-105
-159
-22
344
923
1650
2447
3240
3924
4366
4491
4348
4046
3643
3133
2549
2038
1752
1699
1733
1745
1770
1921
2180
2381
2370
2170
1935
1755
1572
1291
928
578
280
-24
-361
-604
-540
-74
680
1522
2326
3023
3443
3309
2495
1286
281
-53
259
814
1276
1705
2398
3481
4678
5483
5535
4851
3756
2651
1798
1255
938
730
593
574
719
985
1243
1356
1259
977
579
161
-149
-223
-29
304
541
509
231
-120
-370
-472
-480
-438
-316
-60
302
634
770
619
224
-276
-721
-1002
-1088
-1008
-812
-542
-213
175
614
1057
1405
1545
1431
1126
734
312
-138
-610
-1026
-1278
-1330
-1230
-1041
-772
-403
24
404
642
729
720
640
467
188
-130
-380
-509
-553
-574
-566
-461
-228
59
267
322
261
178
123
61
-53
-176
-204
-75
131
253
201
53
-46
-30
41
94
169
363
690
1019
1206
1229
1180
1131
1060
910
689
472
335
305
383
561
802
1045
1228
1342
1402
1408
1334
1187
1040
969
981
1015
1026
1031
1086
1211
1352
1440
1453
1424
1396
1378
1375
1427
1581
1836
2106
2286
2355
2407
2545
2760
2928
2917
2691
2308
1852
1379
931
553
266
51
-113
-208
-178
-13
212
376
414
355
269
185
87
-28
-126
-152
-91
14
111
181
248
349
490
630
718
736
717
724
797
928
1071
1190
1282
1365
1464
1588
1720
1830
1884
1849
1707
1477
1205
947
727
540
375
256
234
337
527
734
898
1019
1118
1192
1223
1214
1206
1237
1297
1333
1300
1205
1094
969
773
452
36
-371
-680
-874
-932
-756
-205
721
1821
2858
3785
4752
5834
6822
7329
7143
6415
5512
4701
3992
3253
2417
1574
910
585
620
893
1195
1371
1405
1386
1411
1485
1553
1572
1556
1530
1511
1518
1561
1631
1693
1734
1795
1934
2115
2209
2138
2028
2157
2680
3421
3960
3978
3527
2933
2467
2105
1615
862
-20
-723
-1009
-865
-448
65
561
983
1295
1473
1536
1535
1497
1405
1240
1048
931
960
1104
1262
1365
1428
1499
1561
1539
1392
1212
1174
1366
1671
1847
1744
1438
1137
983
951
937
904
911
1015
1194
1383
1547
1704
1855
1954
1959
1885
1807
1789
1820
1838
1798
1722
1668
1675
1736
1802
1821
1782
1726
1728
1836
2023
2201
2301
2332
2372
2471
2599
2669
2613
2422
2135
1823
1582
1509
1636
1885
2134
2330
2545
2875
3302
3667
3803
3670
3366
3030
2739
2512
2342
2227
2165
2158
2219
2344
2493
2589
2584
2513
2446
2408
2353
2241
2121
2096
2212
2391
2506
2514
2475
2470
2511
2554
2571
2580
2603
2621
2606
2552
2489
2441
2410
2393
2381
2362
2322
2268
2237
2248
2269
2240
2147
2050
2025
2069
2097
2046
1949
1899
1939
2003
1997
1905
1815
1816
1909
2009
2031
1978
1923
1938
2013
2073
2052
1953
1838
1767
1748
1754
1753
1750
1760
1786
1808
1788
1710
1590
1467
1381
1346
1338
1338
1357
1432
1584
1776
1925
1970
1908
1793
1652
1454
1155
776
405
102
-152
-392
-539
-398
162
1024
1900
2586
3144
3763
4485
5092
5312
5082
4595
4115
3765
3492
3182
2784
2359
2049
1969
2112
2331
2449
2408
2299
2241
2275
2333
2324
2219
2064
1952
1951
2029
2061
1935
1702
1561
1658
1919
2109
2075
1894
1755
1738
1768
1743
1657
1557
1460
1369
1320
1360
1464
1533
1501
1413
1355
1353
1360
1334
1280
1211
1085
862
594
392
318
322
309
236
128
36
-14
-21
-3
1
-54
-163
-258
-275
-229
-197
-224
-275
-293
-283
-316
-436
-603
-737
-799
-814
-827
-849
-847
-798
-705
-595
-505
-464
-487
-561
-645
-689
-678
-658
-688
-776
-855
-848
-758
-672
-654
-665
-615
-493
-386
-367
-389
-337
-178
-24
-1
-81
-110
5
188
287
263
225
300
478
642
697
663
632
667
752
832
882
911
956
1042
1142
1183
1115
979
897
939
1024
984
772
557
566
821
1096
1139
936
721
718
911
1088
1073
861
611
482
533
697
835
835
696
546
540
691
827
744
431
116
42
219
416
417
249
142
253
504
688
701
637
628
682
688
575
404
304
333
445
545
591
595
586
566
532
499
479
452
371
216
55
12
150
380
524
469
296
197
280
451
531
456
337
314
401
489
504
492
545
646
687
605
482
441
489
485
318
28
-238
-399
-517
-697
-920
-1005
-733
-30
943
1897
2625
3151
3651
4229
4778
5065
4981
4642
4255
3925
3630
3340
3086
2881
2662
2374
2070
1891
1895
1967
1946
1821
1729
1772
1906
2001
1993
1913
1819
1733
1662
1605
1545
1441
1297
1211
1290
1495
1640
1577
1374
1250
1339
1538
1635
1538
1348
1196
1096
982
832
727
733
805
842
818
807
877
986
1023
949
841
786
763
675
493
325
306
429
538
498
354
276
360
522
607
557
458
419
450
483
460
409
382
391
409
425
453
495
533
560
610
712
846
933
906
793
705
742
897
1057
1108
1056
1026
1143
1409
1699
1874
1913
1921
2005
2164
2298
2319
2250
2187
2196
2220
2151
1993
1916
2077
2417
2694
2761
2726
2799
3028
3239
3263
3115
2906
2681
2437
2277
2396
2820
3253
3337
3019
2587
2297
2054
1561
720
-229
-956
-1329
-1439
-1405
-1252
-969
-607
-264
1
196
333
387
354
267
182
134
140
205
323
486
673
838
933
941
867
739
591
475
442
495
578
604
549
493
562
787
1054
1194
1143
994
885
852
808
675
486
360
375
511
692
848
970
1088
1242
1439
1636
1758
1750
1622
1434
1222
986
741
532
397
320
286
327
483
720
898
907
783
664
618
572
426
199
19
-36
-12
4
-12
-22
-3
31
61
78
45
-84
-304
-536
-702
-811
-969
-1285
-1766
-2280
-2624
-2611
-2132
-1207
-4
1203
2154
2755
3097
3351
3565
3583
3186
2368
1443
848
799
1109
1375
1298
866
278
-266
-704
-1097
-1539
-2059
-2575
-2909
-2920
-2626
-2187
-1778
-1493
-1381
-1483
-1783
-2126
-2313
-2324
-2364
-2572
-2721
-2341
-1242
117
943
860
231
-279
-438
-605
-1230
-2312
-3435
-4193
-4447
-4228
-3603
-2781
-2222
-2402
-3373
-4617
-5459
-5634
-5405
-5165
-5025
-4747
-4037
-2847
-1452
-307
186
-145
-1144
-2414
-3536
-4278
-4661
-4853
-4990
-5097
-5144
-5122
-5099
-5195
-5498
-5965
-6440
-6745
-6752
-6415
-5753
-4874
-3954
-3134
-2437
-1773
-1089
-458
1
292
569
967
1417
1717
1752
1609
1497
1587
1900
2349
2847
3364
3885
4358
4685
4816
4843
4926
5081
5051
4484
3319
1953
973
704
1013
1557
2104
2646
3268
3986
4719
5303
5519
5179
4261
2998
1771
868
341
45
-195
-445
-664
-782
-751
-600
-493
-645
-1092
-1649
-2050
-2164
-2035
-1760
-1395
-1009
-737
-675
-712
-617
-380
-383
-1066
-2365
-3615
-4090
-3650
-2786
-2058
-1564
-978
6
1329
2616
3450
3592
3039
2009
878
21
-373
-383
-278
-279
-389
-464
-355
-79
169
156
-202
-774
-1316
-1620
-1637
-1475
-1310
-1260
-1340
-1526
-1822
-2227
-2656
-2948
-3003
-2914
-2907
-3107
-3406
-3551
-3377
-2936
-2410
-1929
-1496
-1046
-559
-98
217
293
118
-224
-595
-888
-1090
-1236
-1352
-1432
-1474
-1477
-1463
-1459
-1491
-1561
-1643
-1714
-1806
-1962
-2135
-2171
-2000
-1855
-2210
-3359
-5051
-6584
-7334
-7212
-6605
-5953
-5357
-4575
-3312
-1526
456
2096
2964
3028
2649
2283
2134
2074
1860
1402
831
370
143
132
185
111
-189
-636
-1046
-1285
-1363
-1358
-1299
-1158
-962
-843
-941
-1248
-1602
-1835
-1903
-1889
-1887
-1917
-1939
-1927
-1913
-1950
-2032
-2069
-1993
-1914
-2116
-2833
-3955
-5017
-5533
-5364
-4760
-4055
-3361
-2550
-1505
-322
719
1334
1375
891
90
-750
-1419
-1866
-2166
-2375
-2474
-2412
-2211
-1984
-1830
-1775
-1815
-1960
-2213
-2515
-2757
-2871
-2866
-2805
-2738
-2706
-2758
-2934
-3185
-3379
-3402
-3262
-3073
-2936
-2865
-2824
-2801
-2825
-2903
-2990
-3023
-2988
-2939
-2947
-3016
-3077
-3079
-3034
-2980
-2929
-2859
-2771
-2687
-2583
-2406
-2170
-2019
-2066
-2179
-1994
-1263
-174
755
1136
1028
797
691
637
373
-248
-1113
-1936
-2429
-2468
-2131
-1630
-1155
-779
-482
-253
-119
-101
-169
-270
-410
-618
-842
-948
-847
-612
-410
-344
-378
-441
-514
-613
-704
-708
-591
-434
-358
-381
-404
-334
-188
-33
124
341
622
856
906
754
506
269
57
-177
-443
-679
-809
-815
-748
-672
-614
-554
-449
-290
-135
-61
-84
-138
-130
-40
65
113
91
39
-10
-57
-109
-151
-162
-148
-135
-136
-121
-50
70
188
244
228
185
163
171
173
125
18
-112
-218
-283
-313
-327
-331
-330
-334
-357
-422
-542
-693
-820
-867
-829
-749
-676
-607
-498
-332
-146
-18
-2
-76
-166
-209
-207
-219
-291
-401
-497
-575
-711
-957
-1231
-1347
-1210
-963
-876
-1063
-1331
-1348
-987
-468
-138
-117
-184
-26
427
942
1226
1199
1003
809
647
427
88
-346
-798
-1189
-1461
-1579
-1554
-1454
-1354
-1270
-1197
-1154
-1176
-1246
-1304
-1357
-1516
-1841
-2163
-2131
-1538
-580
271
676
681
572
528
461
163
-464
-1315
-2179
-2850
-3189
-3155
-2854
-2515
-2349
-2401
-2540
-2620
-2625
-2654
-2777
-2955
-3091
-3128
-3064
-2905
-2655
-2356
-2107
-2010
-2084
-2243
-2364
-2382
-2318
-2224
-2139
-2088
-2094
-2168
-2288
-2389
-2407
-2336
-2226
-2127
-2031
-1903
-1753
-1665
-1737
-1989
-2332
-2647
-2880
-3038
-3133
-3160
-3117
-3014
-2860
-2644
-2371
-2104
-1940
-1931
-2052
-2246
-2494
-2812
-3193
-3568
-3821
-3855
-3642
-3242
-2757
-2257
-1742
-1183
-601
-127
73
-81
-508
-1012
-1420
-1672
-1820
-1952
-2082
-2115
-1930
-1517
-1018
-639
-491
-529
-651
-837
-1135
-1547
-1951
-2202
-2272
-2255
-2218
-2096
-1754
-1163
-487
32
270
293
251
208
103
-141
-506
-871
-1113
-1208
-1220
-1222
-1240
-1251
-1222
-1153
-1090
-1085
-1153
-1252
-1325
-1345
-1330
-1316
-1304
-1274
-1217
-1162
-1157
-1219
-1305
-1348
-1301
-1187
-1082
-1057
-1122
-1215
-1258
-1214
-1114
-1005
-919
-857
-814
-781
-730
-645
-559
-559
-712
-964
-1166
-1194
-1067
-931
-918
-1022
-1126
-1122
-1012
-894
-864
-938
-1054
-1124
-1113
-1060
-1024
-1038
-1090
-1145
-1185
-1211
-1230
-1233
-1221
-1217
-1258
-1345
-1421
-1421
-1344
-1264
-1275
-1400
-1570
-1698
-1793
-1939
-2192
-2507
-2792
-3015
-3221
-3389
-3360
-2941
-2151
-1264
-577
-140
248
772
1362
1774
1840
1626
1336
1124
1015
954
859
651
303
-136
-540
-820
-987
-1134
-1333
-1557
-1709
-1706
-1564
-1411
-1431
-1737
-2250
-2736
-2989
-2981
-2852
-2723
-2560
-2242
-1722
-1109
-583
-270
-191
-288
-478
-669
-801
-870
-905
-927
-932
-916
-894
-895
-915
-953
-1031
-1172
-1360
-1524
-1608
-1628
-1650
-1697
-1728
-1708
-1672
-1703
-1840
-2021
-2152
-2187
-2159
-2151
-2192
-2245
-2260
-2235
-2217
-2239
-2284
-2311
-2322
-2362
-2448
-2524
-2522
-2457
-2425
-2489
-2582
-2581
-2456
-2318
-2302
-2424
-2565
-2609
-2550
-2478
-2487
-2573
-2644
-2618
-2492
-2345
-2256
-2225
-2189
-2104
-1994
-1911
-1874
-1861
-1865
-1901
-1958
-1963
-1857
-1680
-1522
-1419
-1310
-1128
-918
-794
-808
-882
-912
-864
-792
-756
-751
-737
-671
-532
-335
-129
20
94
131
175
207
172
53
-92
-181
-183
-144
-117
-127
-168
-207
-213
-189
-164
-155
-148
-121
-88
-88
-132
-170
-156
-128
-166
-311
-501
-638
-689
-701
-717
-738
-743
-715
-632
-515
-405
-366
-425
-532
-619
-667
-707
-761
-792
-771
-730
-735
-804
-880
-901
-861
-811
-768
-702
-593
-479
-413
-396
-364
-264
-156
-169
-353
-605
-748
-705
-561
-470
-477
-499
-445
-317
-211
-200
-280
-401
-505
-557
-544
-485
-443
-466
-544
-616
-647
-670
-721
-774
-748
-618
-462
-384
-400
-437
-445
-499
-728
-1150
-1634
-2037
-2327
-2561
-2722
-2660
-2207
-1394
-456
381
1108
1852
2639
3284
3562
3445
3145
2868
2619
2273
1786
1273
864
545
204
-200
-569
-788
-876
-957
-1114
-1315
-1471
-1548
-1572
-1583
-1608
-1674
-1819
-2057
-2340
-2577
-2696
-2711
-2695
-2709
-2719
-2619
-2344
-2000
-1824
-1947
-2227
-2353
-2152
-1777
-1553
-1631
-1840
-1897
-1701
-1410
-1260
-1342
-1545
-1677
-1628
-1458
-1341
-1425
-1664
-1834
-1738
-1428
-1160
-1126
-1257
-1344
-1316
-1309
-1470
-1752
-1981
-2081
-2142
-2266
-2426
-2514
-2502
-2472
-2509
-2595
-2670
-2714
-2758
-2818
-2866
-2884
-2906
-2961
-3017
-3009
-2912
-2775
-2663
-2597
-2558
-2516
-2447
-2328
-2146
-1941
-1789
-1728
-1727
-1712
-1660
-1595
-1549
-1517
-1478
-1430
-1372
-1283
-1134
-946
-791
-725
-730
-720
-641
-519
-430
-425
-496
-595
-674
-698
-656
-569
-481
-424
-396
-360
-271
-124
17
62
-17
-144
-198
-128
-3
80
97
117
188
288
358
395
438
498
518
450
331
259
274
330
344
290
215
174
182
220
257
258
207
113
10
-71
-140
-231
-340
-402
-356
-229
-123
-114
-165
-179
-127
-92
-174
-362
-529
-577
-533
-484
-445
-343
-134
105
249
269
255
304
407
468
424
314
231
246
357
512
654
743
771
767
779
841
933
993
967
869
777
768
844
924
919
831
772
840
1013
1158
1165
1061
964
943
942
854
659
453
324
243
101
-158
-463
-692
-821
-947
-1171
-1478
-1717
-1713
-1371
-726
66
814
1417
1942
2535
3232
3829
4030
3733
3144
2585
2198
1886
1497
1016
560
223
9
-116
-173
-186
-223
-349
-544
-713
-804
-861
-957
-1100
-1231
-1318
-1404
-1529
-1670
-1758
-1777
-1787
-1841
-1929
-1992
-2021
-2069
-2190
-2349
-2441
-2413
-2325
-2294
-2379
-2522
-2609
-2592
-2532
-2528
-2608
-2707
-2738
-2671
-2552
-2444
-2361
-2274
-2165
-2062
-2003
-1981
-1939
-1846
-1745
-1723
-1807
-1925
-1972
-1922
-1849
-1834
-1884
-1932
-1939
-1932
-1954
-2008
-2059
-2091
-2136
-2219
-2314
-2372
-2385
-2412
-2501
-2636
-2756
-2809
-2801
-2783
-2791
-2818
-2815
-2750
-2654
-2604
-2660
-2823
-3060
-3370
-3803
-4368
-4946
-5327
-5336
-4946
-4259
-3403
-2466
-1520
-643
82
602
877
857
512
-84
-740
-1249
-1534
-1661
-1748
-1840
-1910
-1956
-2016
-2132
-2307
-2519
-2745
-2952
-3079
-3065
-2901
-2624
-2271
-1851
-1382
-943
-630
-445
-268
26
427
790
987
1048
1121
1313
1589
1843
2029
2202
2438
2733
3007
3191
3295
3375
3456
3502
3462
3335
3174
3032
2922
2832
2753
2679
2602
2501
2376
2252
2149
2045
1894
1669
1397
1123
864
609
355
134
-17
-105
-180
-271
-350
-369
-336
-332
-445
-676
-934
-1124
-1225
-1292
-1392
-1531
-1650
-1680
-1595
-1444
-1317
-1274
-1296
-1319
-1290
-1228
-1199
-1250
-1353
-1436
-1449
-1407
-1377
-1401
-1461
-1492
-1441
-1317
-1173
-1054
-959
-873
-814
-828
-929
-1097
-1313
-1595
-1958
-2360
-2723
-2988
-3132
-3095
-2756
-2048
-1108
-220
449
1006
1666
2424
2979
3037
2644
2144
1816
1639
1404
1012
584
289
180
201
294
443
612
741
802
834
876
903
863
771
700
677
609
373
-36
-480
-801
-955
-1010
-1026
-980
-810
-490
-61
395
802
1118
1332
1439
1435
1324
1129
902
697
553
472
440
453
512
605
695
728
677
558
411
280
186
129
99
84
68
31
-42
-149
-264
-357
-413
-444
-477
-532
-605
-675
-724
-756
-795
-857
-924
-965
-962
-932
-914
-931
-971
-1010
-1028
-1020
-994
-952
-896
-831
-763
-695
-619
-527
-427
-344
-307
-314
-324
-301
-245
-194
-165
-131
-54
60
159
204
219
255
325
391
410
391
376
387
408
423
442
489
559
620
647
654
669
704
744
767
763
737
697
642
577
510
450
387
300
188
78
6
-24
-50
-110
-207
-300
-348
-366
-411
-518
-650
-736
-748
-746
-804
-894
-863
-554
30
686
1157
1320
1243
1058
812
447
-89
-754
-1406
-1882
-2088
-2031
-1792
-1477
-1155
-846
-566
-353
-252
-261
-311
-332
-311
-279
-237
-135
64
320
539
649
659
619
576
552
566
626
721
818
902
984
1074
1153
1192
1195
1202
1235
1265
1244
1169
1079
1007
947
881
840
870
969
1067
1088
1035
979
966
968
925
828
732
684
651
554
373
153
-68
-332
-697
-1140
-1550
-1838
-2002
-2044
-1870
-1353
-517
416
1209
1839
2457
3130
3684
3867
3621
3151
2717
2405
2109
1704
1218
799
559
457
346
139
-69
-77
184
549
747
657
409
202
70
-133
-537
-1095
-1620
-1965
-2106
-2095
-1972
-1755
-1473
-1189
-981
-883
-866
-897
-959
-1046
-1128
-1165
-1153
-1108
-1015
-829
-573
-380
-357
-378
-103
693
1811
2758
3182
3144
2918
2600
2032
1077
-140
-1314
-2218
-2798
-3057
-2964
-2524
-1884
-1267
-823
-562
-419
-362
-410
-543
-701
-849
-969
-1005
-840
-428
106
523
670
606
471
295
9
-322
-392
88
1027
1930
2315
2127
1706
1370
1119
721
26
-876
-1731
-2298
-2455
-2201
-1663
-1041
-517
-161
78
283
472
580
543
374
183
105
228
528
904
1247
1482
1581
1553
1444
1320
1226
1172
1137
1096
1021
890
708
548
528
721
1068
1433
1722
1954
2195
2418
2484
2290
1902
1507
1231
1036
816
583
465
542
710
786
730
688
797
1003
1113
1031
881
862
1024
1235
1345
1326
1248
1163
1075
983
909
861
802
700
574
485
478
527
567
558
514
485
513
593
659
647
556
468
473
576
703
776
803
862
998
1181
1334
1413
1434
1441
1456
1461
1431
1375
1329
1335
1405
1510
1612
1692
1754
1806
1835
1821
1760
1682
1618
1580
1558
1547
1549
1559
1552
1502
1413
1326
1283
1276
1276
1269
1270
1299
1319
1270
1125
920
693
416
18
-498
-1017
-1410
-1669
-1887
-2070
-2032
-1546
-619
425
1222
1702
2104
2644
3225
3529
3366
2883
2414
2155
2030
1843
1504
1095
763
584
520
484
412
305
207
157
171
233
305
347
338
282
201
114
13
-114
-258
-382
-453
-477
-499
-576
-753
-1031
-1359
-1636
-1779
-1798
-1791
-1856
-1991
-2089
-2036
-1805
-1455
-1070
-705
-373
-51
292
640
898
932
677
224
-236
-544
-683
-747
-825
-918
-958
-899
-766
-637
-585
-629
-743
-898
-1097
-1344
-1608
-1808
-1865
-1778
-1642
-1558
-1536
-1508
-1431
-1362
-1413
-1615
-1885
-2100
-2214
-2252
-2240
-2143
-1912
-1548
-1121
-714
-391
-187
-124
-196
-358
-545
-717
-850
-923
-908
-799
-636
-484
-379
-321
-307
-338
-420
-538
-653
-732
-755
-712
-611
-493
-404
-364
-342
-301
-234
-164
-90
4
108
163
123
29
-8
78
226
313
292
239
272
430
636
788
834
797
744
737
805
938
1082
1173
1180
1139
1126
1198
1334
1443
1447
1357
1264
1247
1308
1365
1347
1263
1187
1171
1199
1217
1195
1156
1138
1134
1097
1010
921
902
952
965
845
635
507
578
768
882
831
728
746
906
1053
1064
987
960
1036
1145
1202
1203
1192
1172
1127
1084
1106
1207
1311
1338
1320
1373
1546
1739
1803
1719
1630
1681
1855
1994
1986
1887
1837
1885
1938
1896
1797
1766
1864
1994
2028
1965
1930
2021
2191
2298
2243
2046
1788
1515
1218
886
544
230
-33
-249
-379
-302
137
964
1962
2814
3383
3840
4428
5106
5529
5402
4829
4210
3840
3693
3575
3402
3230
3094
2964
2851
2835
2926
2958
2738
2297
1899
1767
1859
1957
1909
1742
1559
1434
1389
1424
1473
1427
1237
1017
954
1077
1191
1101
847
662
680
795
806
687
600
668
825
887
781
607
494
463
450
430
448
519
579
549
446
371
377
405
353
210
65
8
32
63
56
35
55
113
150
135
108
145
250
336
311
196
117
155
250
253
111
-68
-116
10
200
315
328
316
345
390
383
315
244
228
250
244
185
124
134
224
322
351
319
296
340
426
485
491
495
555
666
765
818
853
911
981
1006
980
985
1103
1310
1474
1514
1499
1560
1700
1768
1644
1409
1283
1383
1592
1707
1668
1599
1648
1816
1973
1997
1882
1716
1592
1545
1543
1515
1427
1313
1247
1263
1319
1337
1295
1233
1186
1139
1064
979
944
986
1053
1058
982
892
873
939
1016
1029
986
958
995
1076
1136
1139
1104
1069
1050
1044
1054
1088
1131
1159
1170
1203
1300
1456
1614
1718
1768
1797
1832
1863
1860
1805
1717
1642
1620
1645
1689
1725
1758
1810
1883
1942
1949
1899
1834
1799
1791
1776
1731
1675
1656
1702
1790
1869
1898
1879
1829
1767
1700
1639
1593
1559
1524
1477
1423
1364
1284
1143
913
612
292
-18
-314
-593
-794
-795
-486
133
923
1699
2368
2980
3620
4260
4729
4848
4603
4152
3702
3362
3111
2876
2614
2332
2067
1866
1766
1765
1814
1845
1819
1740
1641
1547
1475
1430
1393
1326
1201
1033
876
788
780
810
831
817
768
702
632
569
494
377
213
45
-62
-81
-45
-10
1
5
10
-10
-82
-190
-286
-348
-410
-513
-628
-695
-692
-680
-727
-818
-860
-795
-676
-617
-667
-758
-792
-751
-698
-699
-751
-798
-795
-749
-697
-677
-707
-797
-937
-1100
-1243
-1331
-1351
-1312
-1236
-1135
-1006
-842
-660
-507
-439
-481
-600
-738
-840
-883
-864
-793
-683
-549
-404
-254
-99
54
189
284
324
302
225
131
74
87
133
142
78
-13
-36
52
212
377
490
513
457
379
333
294
152
-163
-569
-883
-994
-942
-794
-549
-209
49
-79
-729
-1656
-2413
-2728
-2669
-2455
-2174
-1732
-1015
-53
978
1807
2142
1804
878
-307
-1405
-2265
-2919
-3401
-3636
-3510
-3040
-2367
-1634
-946
-426
-223
-405
-849
-1292
-1485
-1324
-823
-92
699
1388
1948
2499
3127
3725
4070
4125
4125
4297
4517
4400
3792
3029
2617
2674
2813
2592
1986
1369
1137
1437
2172
3130
4047
4706
5069
5318
5657
6043
6190
5860
5139
4371
3859
3669
3707
3850
3994
4046
3933
3690
3434
3244
3085
2850
2489
2083
1776
1636
1626
1657
1634
1480
1183
797
428
140
-106
-377
-629
-682
-430
-40
162
73
14
452
1488
2690
3502
3818
4043
4591
5445
6213
6563
6531
6373
6261
6169
6005
5745
5371
4776
3874
2789
1867
1430
1530
1909
2241
2413
2533
2738
2997
3106
2886
2336
1647
1041
626
396
330
452
784
1264
1767
2148
2312
2246
2014
1755
1607
1607
1658
1632
1536
1507
1664
1970
2245
2342
2262
2094
1915
1736
1573
1459
1385
1264
1014
679
433
383
454
455
288
62
-44
37
207
353
460
569
681
764
813
865
904
850
664
453
382
504
713
881
993
1099
1168
1101
880
621
457
388
317
194
95
131
296
462
511
413
197
-102
-448
-768
-958
-931
-664
-202
373
964
1479
1876
2165
2380
2507
2489
2272
1910
1547
1319
1248
1240
1206
1148
1152
1266
1440
1559
1545
1430
1298
1192
1092
975
864
804
801
810
778
706
638
603
599
615
641
653
606
486
347
266
259
278
293
349
476
561
382
-174
-930
-1498
-1583
-1231
-741
-369
-103
298
1018
1967
2816
3222
3077
2559
1976
1526
1195
871
511
216
98
121
129
72
120
496
1160
1762
1949
1731
1460
1430
1569
1539
1115
396
-337
-874
-1159
-1205
-1027
-689
-325
-49
118
238
346
394
353
281
281
385
526
644
772
1002
1331
1610
1658
1442
1105
839
730
738
781
820
868
951
1093
1303
1541
1720
1751
1619
1391
1119
776
316
-213
-684
-1031
-1337
-1711
-2075
-2143
-1685
-763
340
1388
2359
3325
4261
5012
5452
5568
5405
4987
4350
3626
2998
2569
2311
2145
2041
2013
2040
2051
1998
1903
1817
1743
1626
1438
1218
1048
977
985
1005
974
870
723
573
453
368
314
280
252
194
73
-95
-242
-299
-261
-194
-169
-195
-232
-256
-283
-325
-348
-291
-146
19
137
205
267
342
393
371
273
143
28
-48
-78
-79
-104
-238
-524
-913
-1268
-1448
-1395
-1168
-897
-669
-463
-184
231
708
1066
1154
968
645
346
145
29
-50
-117
-154
-126
-17
158
361
550
693
772
784
740
673
626
622
653
683
674
608
508
423
392
416
471
534
591
636
675
725
811
940
1059
1076
925
641
350
189
220
409
661
904
1145
1445
1843
2274
2590
2662
2485
2183
1906
1737
1660
1620
1588
1580
1634
1770
1966
2157
2261
2233
2079
1835
1541
1249
1014
861
771
698
625
577
577
593
552
413
198
-57
-374
-809
-1323
-1726
-1778
-1384
-687
53
678
1222
1770
2289
2590
2491
2005
1351
759
321
12
-186
-229
-73
249
645
1021
1324
1513
1527
1325
918
365
-262
-881
-1408
-1758
-1878
-1758
-1436
-1007
-636
-464
-483
-501
-299
135
558
710
609
565
876
1535
2235
2657
2734
2633
2535
2491
2440
2327
2154
1949
1764
1664
1705
1850
1959
1876
1575
1180
819
502
158
-223
-544
-726
-824
-955
-1120
-1134
-788
-91
695
1302
1719
2171
2816
3499
3863
3717
3241
2815
2632
2563
2375
2019
1670
1493
1468
1445
1342
1218
1154
1132
1048
852
608
445
428
502
547
486
347
220
154
125
76
-2
-66
-86
-88
-123
-184
-222
-205
-172
-181
-239
-304
-340
-364
-413
-495
-580
-639
-676
-711
-751
-788
-824
-874
-948
-1039
-1124
-1190
-1240
-1277
-1296
-1283
-1231
-1151
-1059
-977
-923
-905
-913
-924
-927
-940
-988
-1066
-1132
-1144
-1101
-1054
-1048
-1079
-1110
-1124
-1140
-1189
-1259
-1303
-1285
-1211
-1119
-1042
-984
-933
-878
-822
-780
-765
-782
-811
-820
-791
-726
-652
-587
-533
-473
-381
-251
-111
-15
1
-38
-64
-42
-17
-63
-195
-337
-396
-364
-322
-333
-378
-387
-335
-276
-269
-316
-373
-422
-490
-584
-647
-608
-476
-359
-338
-365
-317
-149
30
69
-52
-200
-232
-152
-75
-82
-145
-181
-166
-148
-163
-194
-199
-175
-165
-204
-276
-313
-270
-184
-163
-276
-460
-557
-470
-278
-162
-206
-306
-306
-187
-91
-131
-252
-310
-242
-135
-89
-98
-70
41
186
287
318
300
236
132
34
19
95
167
126
-1
-68
31
230
355
313
180
96
119
196
254
284
307
325
315
282
253
236
210
169
152
203
312
415
469
507
588
725
850
884
818
698
558
387
186
-30
-240
-465
-737
-1021
-1219
-1257
-1149
-936
-575
23
835
1685
2391
2947
3478
4014
4385
4391
4029
3507
3049
2718
2453
2172
1828
1422
1021
776
781
928
959
724
363
171
274
473
492
279
37
-25
76
156
109
-1
-47
-24
-33
-124
-214
-198
-98
-57
-180
-394
-503
-394
-147
54
111
85
93
163
211
156
31
-56
-54
-36
-92
-188
-191
-49
112
109
-66
-233
-233
-119
-75
-174
-290
-292
-215
-206
-324
-470
-530
-516
-519
-575
-623
-621
-592
-575
-554
-480
-360
-266
-261
-329
-403
-428
-403
-357
-313
-281
-257
-220
-153
-72
-13
5
25
101
219
296
261
145
56
70
150
196
149
50
1
64
200
304
308
227
132
79
59
36
-10
-55
-68
-53
-33
-15
15
71
136
184
197
187
183
193
217
250
291
325
333
309
280
298
394
547
691
778
820
860
926
984
979
905
837
846
920
984
990
981
1016
1088
1127
1082
981
893
837
771
666
556
499
496
505
491
463
459
486
507
482
415
347
311
300
277
219
146
106
110
125
103
50
24
85
220
345
392
375
377
442
523
517
395
235
164
221
324
363
326
298
351
465
557
567
514
459
426
401
377
374
419
490
517
446
308
195
174
210
208
124
8
-56
-75
-147
-337
-605
-859
-1071
-1291
-1567
-1873
-2120
-2208
-2041
-1555
-780
112
930
1618
2281
3007
3684
4067
4022
3660
3218
2834
2485
2095
1672
1291
996
780
622
529
513
551
583
552
450
313
181
74
-17
-116
-245
-390
-521
-616
-677
-710
-718
-699
-654
-599
-558
-551
-587
-651
-711
-744
-754
-759
-763
-744
-676
-576
-501
-496
-554
-625
-663
-661
-666
-731
-856
-994
-1095
-1162
-1233
-1313
-1349
-1309
-1261
-1312
-1461
-1570
-1533
-1466
-1663
-2296
-3190
-3941
-4247
-4113
-3755
-3342
-2890
-2331
-1650
-923
-279
140
237
5
-447
-953
-1390
-1736
-2025
-2272
-2424
-2416
-2242
-1997
-1788
-1645
-1532
-1452
-1496
-1727
-2042
-2221
-2155
-2005
-2069
-2478
-3060
-3514
-3651
-3473
-3059
-2463
-1732
-947
-189
499
1084
1488
1602
1385
936
445
69
-150
-260
-336
-404
-439
-395
-263
-84
53
67
-78
-359
-699
-1005
-1223
-1369
-1482
-1546
-1515
-1445
-1492
-1710
-1897
-1753
-1285
-973
-1388
-2621
-4126
-5197
-5558
-5498
-5448
-5513
-5407
-4758
-3482
-1880
-470
332
438
87
-370
-716
-953
-1177
-1450
-1732
-1921
-1937
-1726
-1301
-795
-428
-373
-590
-844
-919
-807
-669
-630
-656
-652
-678
-940
-1534
-2248
-2668
-2525
-1911
-1153
-543
-186
-37
38
179
452
759
909
850
802
1075
1716
2427
2870
3003
3075
3271
3487
3514
3320
3096
3016
3044
3017
2859
2669
2572
2581
2594
2500
2251
1849
1360
925
716
803
1116
1524
1912
2208
2305
2084
1552
935
520
389
372
285
189
320
786
1417
1971
2449
3078
3973
4915
5526
5659
5549
5537
5702
5795
5542
4912
4121
3426
2923
2546
2200
1863
1584
1443
1461
1584
1725
1793
1716
1470
1085
639
251
28
0
112
270
394
443
409
315
192
65
-73
-243
-440
-609
-680
-635
-532
-443
-377
-265
-37
284
591
783
844
838
830
839
842
822
785
747
716
691
663
640
629
627
605
525
390
252
174
178
210
192
86
-83
-284
-507
-733
-891
-918
-838
-784
-888
-1113
-1253
-1130
-788
-464
-364
-486
-681
-866
-1095
-1412
-1704
-1756
-1478
-1013
-564
-180
274
886
1519
1900
1858
1472
980
553
222
-62
-310
-491
-578
-575
-488
-322
-102
86
134
6
-256
-619
-1120
-1776
-2449
-2837
-2703
-2095
-1330
-700
-216
341
1135
2040
2715
2874
2491
1782
1025
404
-33
-312
-462
-508
-465
-358
-218
-76
35
66
-34
-273
-572
-792
-828
-695
-512
-403
-403
-467
-542
-626
-737
-855
-914
-870
-747
-628
-581
-607
-658
-680
-664
-645
-653
-692
-746
-807
-873
-933
-952
-909
-817
-706
-591
-473
-376
-352
-408
-448
-345
-81
201
329
271
151
86
49
-94
-423
-869
-1266
-1495
-1548
-1493
-1392
-1254
-1068
-850
-651
-515
-455
-464
-527
-636
-766
-865
-890
-833
-723
-599
-495
-429
-399
-380
-361
-382
-515
-789
-1119
-1359
-1408
-1311
-1213
-1222
-1308
-1345
-1245
-1050
-878
-766
-595
-220
341
906
1328
1675
2126
2691
3129
3174
2836
2394
2092
1924
1737
1472
1216
1054
956
856
772
763
797
732
467
77
-240
-361
-327
-279
-309
-400
-488
-541
-578
-616
-648
-650
-614
-564
-533
-535
-560
-597
-647
-713
-788
-853
-899
-918
-902
-844
-764
-700
-685
-706
-720
-703
-672
-656
-663
-679
-699
-733
-780
-811
-809
-809
-859
-965
-1069
-1114
-1113
-1141
-1249
-1408
-1529
-1560
-1533
-1519
-1563
-1649
-1727
-1756
-1735
-1695
-1680
-1702
-1735
-1723
-1646
-1559
-1561
-1709
-1956
-2181
-2287
-2262
-2175
-2111
-2111
-2136
-2082
-1863
-1496
-1128
-913
-873
-879
-802
-657
-588
-702
-949
-1171
-1242
-1161
-989
-767
-501
-198
115
418
684
873
943
880
736
589
474
370
256
174
194
335
525
669
735
755
744
675
534
391
346
428
550
604
579
561
612
695
738
727
712
729
742
710
656
642
665
635
465
190
-60
-182
-204
-231
-313
-381
-321
-95
214
482
638
684
647
539
364
155
-42
-206
-361
-523
-652
-673
-557
-370
-230
-208
-274
-350
-390
-418
-480
-581
-673
-705
-677
-633
-606
-582
-523
-437
-374
-373
-400
-385
-289
-143
2
118
205
260
260
184
35
-175
-437
-739
-1038
-1262
-1342
-1243
-993
-678
-402
-232
-175
-192
-263
-410
-667
-1027
-1430
-1796
-2056
-2171
-2170
-2146
-2200
-2356
-2535
-2636
-2642
-2611
-2548
-2331
-1811
-998
-107
632
1179
1673
2204
2651
2777
2492
1989
1565
1350
1210
935
481
-6
-353
-520
-575
-579
-541
-467
-390
-328
-236
-70
133
234
130
-128
-374
-489
-505
-548
-676
-812
-841
-730
-560
-440
-409
-442
-521
-655
-822
-930
-894
-755
-685
-812
-1062
-1229
-1196
-1065
-1035
-1170
-1337
-1359
-1213
-1025
-915
-897
-909
-916
-935
-990
-1085
-1191
-1277
-1334
-1374
-1421
-1463
-1434
-1283
-1062
-913
-925
-1038
-1111
-1095
-1074
-1129
-1217
-1228
-1142
-1061
-1061
-1091
-1053
-952
-872
-859
-860
-829
-808
-856
-918
-858
-643
-421
-364
-458
-510
-386
-170
-62
-142
-305
-414
-460
-521
-624
-699
-689
-647
-664
-734
-742
-607
-399
-272
-302
-411
-466
-426
-360
-342
-375
-411
-407
-370
-332
-327
-357
-394
-392
-342
-270
-198
-99
61
220
216
-61
-536
-997
-1271
-1356
-1336
-1234
-1000
-604
-96
440
941
1350
1566
1498
1184
786
471
284
166
69
18
63
196
360
476
490
370
160
-35
-117
-94
-57
-60
-36
106
327
450
347
95
-108
-154
-124
-157
-266
-320
-218
-29
62
-60
-300
-453
-405
-239
-158
-253
-417
-448
-268
2
169
166
83
40
73
146
219
293
359
404
430
470
542
612
617
542
440
394
428
498
534
500
435
413
474
572
614
536
362
174
23
-118
-318
-611
-944
-1226
-1397
-1488
-1564
-1580
-1359
-748
162
1064
1725
2240
2875
3688
4369
4553
4216
3682
3259
2963
2632
2195
1733
1331
991
713
568
586
646
597
408
213
144
209
323
410
428
342
180
43
29
82
37
-163
-354
-326
-95
117
150
90
119
244
286
159
9
33
212
309
182
-7
23
319
605
581
276
1
-31
64
15
-236
-445
-350
-7
275
308
223
283
522
689
560
219
-45
-53
92
159
69
-61
-93
-31
27
-13
-160
-353
-516
-591
-586
-566
-597
-661
-669
-566
-423
-369
-450
-587
-664
-664
-648
-656
-652
-593
-489
-382
-285
-185
-93
-55
-69
-62
35
195
318
357
370
447
593
710
732
716
769
916
1062
1122
1132
1195
1331
1427
1376
1238
1195
1326
1496
1504
1338
1205
1283
1502
1633
1561
1408
1366
1467
1564
1525
1386
1288
1306
1384
1434
1438
1439
1466
1506
1533
1536
1519
1495
1478
1473
1472
1457
1422
1391
1392
1429
1470
1484
1470
1450
1437
1418
1366
1261
1117
971
859
795
746
668
552
439
367
323
269
191
131
130
172
191
156
113
127
191
227
177
79
18
27
56
34
-44
-121
-154
-148
-138
-145
-160
-168
-159
-130
-89
-44
-15
-18
-48
-82
-97
-91
-79
-73
-64
-28
44
128
186
196
174
150
121
55
-81
-286
-517
-736
-942
-1150
-1363
-1579
-1810
-2054
-2234
-2186
-1768
-1021
-162
594
1212
1815
2481
3116
3529
3612
3413
3056
2646
2245
1891
1579
1262
913
583
370
299
286
231
142
87
75
38
-68
-181
-212
-176
-188
-315
-490
-588
-584
-570
-627
-719
-742
-658
-570
-629
-862
-1126
-1233
-1132
-949
-848
-861
-875
-784
-606
-466
-443
-503
-563
-580
-580
-583
-572
-516
-424
-348
-316
-298
-236
-129
-39
-32
-116
-233
-318
-351
-355
-355
-364
-392
-451
-535
-620
-689
-752
-847
-993
-1162
-1302
-1381
-1412
-1439
-1489
-1561
-1624
-1636
-1589
-1509
-1437
-1402
-1405
-1425
-1430
-1400
-1330
-1238
-1161
-1130
-1146
-1168
-1147
-1056
-921
-814
-789
-829
-849
-782
-646
-526
-469
-430
-339
-199
-88
-70
-112
-136
-122
-121
-163
-185
-102
70
205
215
171
207
303
248
-153
-848
-1551
-1986
-2101
-2017
-1836
-1523
-1012
-334
374
975
1424
1696
1713
1378
685
-202
-1022
-1573
-1821
-1856
-1768
-1563
-1182
-609
54
602
838
674
161
-560
-1318
-1977
-2439
-2637
-2555
-2244
-1795
-1284
-725
-97
552
1066
1263
1101
694
180
-392
-1017
-1607
-1970
-1988
-1737
-1408
-1105
-764
-301
208
530
469
32
-582
-1158
-1599
-1929
-2194
-2374
-2380
-2146
-1683
-1056
-342
368
927
1161
998
573
130
-190
-427
-661
-832
-775
-425
94
604
1045
1453
1823
2067
2118
2025
1896
1785
1648
1445
1201
970
767
581
429
343
298
201
12
-110
139
912
1936
2640
2662
2252
2071
2503
3223
3528
3139
2543
2442
2936
3347
2905
1516
-181
-1420
-1893
-1787
-1424
-961
-372
412
1401
2460
3317
3663
3357
2539
1551
702
109
-264
-464
-480
-295
47
445
776
933
860
579
201
-118
-253
-170
71
377
667
865
891
722
449
244
224
309
281
-17
-493
-874
-951
-770
-537
-377
-221
96
616
1200
1622
1736
1525
1084
566
124
-159
-310
-424
-552
-654
-650
-545
-445
-449
-548
-664
-771
-915
-1124
-1315
-1354
-1211
-1026
-979
-1105
-1259
-1282
-1163
-1017
-935
-881
-751
-498
-186
69
205
248
262
295
351
410
475
571
724
914
1090
1214
1311
1435
1600
1734
1747
1631
1486
1416
1451
1540
1610
1648
1675
1720
1802
1920
2052
2150
2171
2111
1990
1831
1650
1476
1361
1326
1344
1372
1414
1534
1757
1988
2088
2000
1811
1636
1503
1348
1134
918
795
793
865
953
1049
1149
1209
1165
993
751
518
330
181
73
33
68
148
240
345
489
668
819
868
794
651
525
454
415
346
202
14
-125
-120
33
239
382
429
433
456
503
537
532
483
402
314
262
272
317
337
310
277
289
334
354
333
329
387
457
446
324
165
58
21
26
61
141
265
391
494
607
779
981
1104
1049
825
530
252
17
-207
-448
-720
-1017
-1316
-1575
-1760
-1853
-1823
-1597
-1095
-330
566
1434
2201
2894
3517
3958
4053
3740
3148
2515
2019
1676
1394
1087
773
561
536
654
774
776
658
521
432
385
331
274
265
322
398
425
388
326
276
235
177
101
27
-30
-72
-93
-83
-55
-42
-60
-72
-12
147
343
491
558
568
550
501
431
396
438
525
581
578
593
691
838
923
898
827
782
746
660
538
480
544
661
708
644
529
421
282
38
-314
-688
-999
-1233
-1429
-1615
-1763
-1844
-1870
-1885
-1918
-1966
-2012
-2044
-2053
-2026
-1962
-1883
-1836
-1832
-1842
-1819
-1758
-1702
-1691
-1726
-1761
-1754
-1679
-1534
-1336
-1130
-976
-896
-859
-805
-711
-617
-578
-595
-612
-584
-515
-443
-385
-323
-250
-198
-205
-284
-395
-491
-567
-655
-786
-942
-1051
-1040
-883
-623
-345
-119
34
141
227
279
256
132
-59
-236
-328
-320
-260
-211
-205
-219
-217
-176
-104
-39
-24
-73
-160
-224
-217
-142
-54
-17
-29
-35
6
58
51
-40
-151
-199
-158
-71
0
29
31
37
64
114
166
194
200
193
182
152
96
56
98
250
464
675
854
997
1069
1025
877
700
539
341
22
-401
-763
-869
-652
-235
179
448
581
698
891
1122
1237
1150
957
868
977
1185
1348
1440
1538
1656
1663
1417
949
451
134
64
154
275
361
425
523
665
772
726
443
-78
-753
-1413
-1848
-1888
-1569
-1155
-908
-817
-591
-17
734
1259
1349
1225
1255
1566
1952
2167
2181
2122
2035
1845
1493
1031
581
203
-119
-392
-576
-622
-532
-369
-225
-156
-161
-191
-193
-181
-205
-251
-224
-48
206
355
305
147
48
71
118
87
-18
-113
-143
-105
-7
138
271
300
198
50
-29
-22
-16
-71
-147
-154
-62
76
186
233
224
173
101
48
38
55
54
8
-64
-117
-121
-72
0
55
69
50
24
3
-34
-113
-222
-320
-378
-406
-432
-453
-450
-408
-356
-330
-338
-339
-297
-222
-173
-197
-270
-315
-290
-221
-177
-188
-207
-187
-154
-175
-274
-391
-424
-335
-167
11
179
364
599
868
1135
1363
1548
1710
1866
2018
2146
2245
2329
2422
2530
2636
2722
2789
2842
2863
2830
2753
2677
2642
2634
2588
2461
2269
2073
1941
1880
1853
1820
1773
1753
1807
1915
1996
1989
1920
1877
1897
1909
1823
1657
1537
1556
1657
1693
1577
1356
1139
984
877
778
669
559
471
432
439
452
428
376
344
339
290
146
-20
-52
104
325
437
409
370
431
545
586
510
383
293
255
247
271
330
394
416
404
435
549
681
717
615
445
313
261
245
205
120
18
-61
-95
-93
-83
-89
-112
-132
-134
-131
-156
-217
-290
-345
-380
-429
-520
-642
-760
-842
-866
-817
-694
-537
-417
-384
-411
-428
-410
-425
-582
-915
-1344
-1746
-2039
-2225
-2349
-2432
-2422
-2191
-1621
-740
233
1055
1668
2213
2810
3341
3548
3335
2896
2495
2196
1890
1524
1204
1021
898
691
414
240
266
373
359
186
13
-23
57
135
164
170
154
59
-129
-321
-403
-350
-260
-238
-303
-410
-512
-587
-635
-676
-746
-870
-1014
-1090
-1023
-819
-588
-441
-421
-484
-547
-571
-579
-629
-749
-898
-994
-1008
-998
-1037
-1100
-1083
-939
-776
-761
-922
-1088
-1073
-900
-765
-804
-944
-1001
-903
-760
-712
-777
-850
-858
-833
-845
-914
-986
-1001
-944
-823
-661
-502
-417
-451
-571
-650
-584
-430
-366
-503
-742
-855
-730
-504
-403
-496
-640
-678
-628
-606
-639
-622
-487
-321
-282
-393
-512
-484
-313
-133
-44
-49
-78
-70
3
148
329
472
509
443
342
275
241
204
178
218
331
425
413
340
366
569
822
896
708
424
260
262
299
269
206
180
164
89
3
55
296
553
605
438
261
251
344
326
137
-47
-32
149
272
185
-13
-94
43
274
409
371
240
137
115
153
220
282
294
233
157
172
324
544
713
794
836
866
836
707
555
523
643
762
709
494
314
330
493
626
625
542
465
412
356
305
304
339
334
248
145
124
187
238
215
179
226
361
489
529
504
498
548
618
652
633
584
529
477
421
350
248
84
-160
-469
-797
-1078
-1268
-1359
-1309
-1016
-406
437
1291
1975
2522
3096
3724
4168
4149
3680
3092
2702
2523
2331
1981
1572
1289
1180
1152
1127
1166
1377
1744
2089
2214
2073
1781
1484
1219
893
411
-188
-745
-1118
-1283
-1291
-1166
-887
-479
-68
211
357
482
652
809
841
714
524
398
404
523
694
840
901
870
807
798
860
923
918
856
820
851
883
813
630
460
447
608
808
894
829
702
618
607
630
646
633
571
442
276
149
116
138
109
0
-86
-39
126
280
335
319
295
251
128
-50
-173
-181
-148
-172
-212
-135
79
276
298
204
205
389
611
680
600
548
643
820
958
1039
1114
1176
1159
1068
1021
1113
1280
1367
1327
1289
1399
1666
1956
2138
2175
2123
2060
2044
2079
2090
1952
1604
1144
789
686
793
941
1001
1014
1117
1399
1785
2062
2077
1878
1670
1618
1705
1783
1772
1741
1791
1925
2111
2439
3075
4009
4930
5448
5445
5126
4706
4113
3141
1799
398
-747
-1612
-2376
-3089
-3541
-3490
-2984
-2359
-1968
-1917
-2057
-2169
-2161
-2087
-2095
-2316
-2724
-3102
-3205
-2956
-2544
-2255
-2193
-2205
-2074
-1766
-1419
-1121
-819
-449
-147
-198
-766
-1684
-2553
-3013
-2956
-2536
-2035
-1659
-1348
-787
309
1844
3256
3910
3598
2630
1453
281
-893
-2011
-2840
-3176
-3057
-2642
-1977
-997
210
1271
1737
1433
601
-353
-1162
-1798
-2339
-2805
-3118
-3187
-2982
-2529
-1898
-1196
-602
-284
-246
-259
-15
588
1320
1832
2003
2018
2103
2226
2123
1594
738
-132
-736
-988
-936
-622
-50
784
1827
2923
3846
4377
4424
4041
3351
2440
1349
164
-907
-1606
-1799
-1555
-1074
-548
-84
290
550
655
597
428
215
-47
-413
-878
-1303
-1496
-1400
-1147
-930
-837
-792
-662
-389
-7
380
641
670
461
122
-199
-417
-556
-667
-737
-700
-527
-264
1
212
354
411
329
22
-535
-1210
-1745
-1915
-1719
-1364
-1075
-876
-602
-121
497
1029
1295
1266
1020
664
285
-56
-315
-478
-539
-495
-360
-155
102
404
734
1015
1138
1052
857
776
987
1453
1912
2084
1917
1646
1581
1795
2048
2035
1692
1247
945
808
680
462
210
19
-114
-242
-343
-319
-123
154
389
563
760
1010
1211
1216
985
645
402
392
597
899
1203
1517
1911
2398
2856
3099
3033
2739
2415
2225
2217
2334
2476
2552
2507
2330
2056
1734
1372
946
455
-56
-505
-811
-894
-703
-281
197
528
636
593
478
212
-354
-1167
-1871
-2093
-1815
-1382
-1135
-1063
-867
-340
397
1030
1363
1431
1392
1359
1355
1371
1378
1334
1212
1046
914
866
868
854
809
773
773
774
732
679
702
839
1015
1092
1005
825
665
572
519
489
510
605
727
770
689
558
499
544
596
541
368
189
119
156
192
143
42
-8
1
-61
-321
-752
-1175
-1471
-1695
-1937
-2095
-1860
-1021
269
1588
2605
3308
3867
4336
4561
4365
3756
2915
2038
1229
516
-80
-512
-757
-834
-815
-765
-707
-621
-502
-381
-303
-272
-243
-213
-248
-407
-604
-665
-545
-435
-558
-866
-1052
-887
-517
-301
-363
-430
-164
409
890
957
704
485
471
456
128
-564
-1349
-1892
-2056
-1932
-1679
-1396
-1121
-863
-639
-464
-363
-364
-465
-623
-766
-844
-845
-766
-603
-362
-99
101
168
102
-19
-95
-53
107
316
479
532
489
431
435
497
531
465
318
192
158
190
212
208
238
358
541
701
788
823
831
795
684
514
331
150
-49
-233
-274
-37
449
968
1283
1345
1306
1317
1364
1285
975
518
120
-69
-52
77
251
464
707
934
1092
1175
1214
1229
1195
1076
880
664
496
408
398
444
522
609
698
796
905
1003
1028
936
761
603
544
566
592
589
614
745
961
1152
1214
1144
1006
845
656
439
240
103
28
-26
-68
-56
35
170
283
347
398
451
442
271
-107
-627
-1151
-1543
-1694
-1545
-1119
-533
77
669
1308
2022
2654
2921
2666
2044
1401
986
789
643
471
361
430
658
909
1054
1069
989
821
556
220
-94
-298
-389
-424
-443
-438
-380
-262
-105
79
275
414
375
69
-471
-1078
-1556
-1783
-1743
-1479
-1044
-458
297
1206
2116
2752
2880
2498
1860
1236
678
60
-676
-1365
-1760
-1769
-1513
-1157
-729
-156
531
1139
1481
1571
1586
1599
1409
749
-330
-1345
-1739
-1370
-627
-13
339
668
1168
1650
1673
1000
-152
-1281
-1987
-2187
-2010
-1589
-975
-206
606
1268
1596
1521
1102
471
-245
-964
-1640
-2216
-2589
-2657
-2382
-1867
-1341
-1021
-958
-1005
-975
-826
-685
-696
-898
-1252
-1700
-2159
-2501
-2599
-2441
-2158
-1908
-1714
-1459
-1054
-590
-290
-314
-642
-1101
-1498
-1715
-1729
-1591
-1405
-1300
-1353
-1521
-1673
-1700
-1610
-1547
-1624
-1820
-2004
-2058
-1979
-1837
-1687
-1554
-1466
-1461
-1550
-1686
-1815
-1945
-2156
-2501
-2918
-3258
-3394
-3291
-2988
-2544
-2018
-1475
-980
-578
-296
-173
-262
-561
-964
-1300
-1451
-1416
-1253
-990
-623
-208
127
297
346
378
413
358
149
-134
-341
-411
-417
-428
-416
-311
-121
65
188
284
414
590
784
972
1138
1241
1255
1220
1236
1329
1379
1215
816
363
76
40
158
309
460
651
900
1182
1470
1740
1918
1865
1468
765
-21
-623
-907
-918
-788
-604
-352
19
507
1022
1404
1512
1321
940
530
187
-102
-395
-670
-828
-795
-631
-466
-360
-252
-63
179
355
357
172
-156
-574
-1003
-1311
-1377
-1204
-932
-694
-491
-205
229
734
1148
1340
1254
901
376
-133
-425
-433
-285
-152
-75
45
297
638
915
1011
896
616
262
-44
-199
-210
-191
-242
-329
-336
-240
-180
-312
-621
-944
-1153
-1301
-1542
-1913
-2278
-2455
-2409
-2252
-2063
-1732
-1096
-192
674
1224
1516
1893
2559
3263
3504
3075
2316
1763
1608
1585
1362
920
515
328
310
330
363
464
604
659
554
381
313
410
563
602
442
147
-140
-314
-381
-411
-461
-510
-511
-453
-370
-262
-102
84
188
102
-166
-474
-669
-710
-661
-607
-558
-485
-356
-172
44
251
394
426
324
120
-116
-315
-433
-491
-547
-647
-800
-978
-1121
-1137
-975
-698
-481
-497
-738
-993
-1037
-854
-647
-632
-848
-1137
-1293
-1210
-931
-626
-486
-594
-836
-1010
-1019
-934
-891
-928
-972
-967
-940
-907
-813
-619
-411
-348
-477
-649
-674
-532
-361
-258
-158
31
274
446
488
480
511
564
568
520
507
583
695
762
782
815
884
927
911
900
986
1165
1311
1318
1229
1173
1190
1187
1078
914
828
842
816
634
405
382
661
1010
1090
832
510
433
584
667
483
151
-41
21
189
275
263
253
290
311
260
165
85
36
-13
-75
-141
-232
-353
-464
-494
-435
-383
-430
-569
-704
-766
-763
-723
-648
-556
-495
-508
-564
-602
-625
-684
-787
-865
-864
-820
-787
-730
-542
-215
90
204
137
63
109
215
232
114
-22
-24
123
324
510
694
920
1146
1278
1283
1228
1200
1192
1139
1033
969
1027
1146
1183
1097
1002
1007
1053
959
620
131
-323
-652
-934
-1273
-1656
-1928
-1899
-1487
-779
19
747
1394
2058
2773
3390
3679
3554
3160
2734
2416
2186
1965
1727
1499
1321
1230
1241
1298
1275
1049
646
233
-43
-191
-336
-530
-687
-694
-572
-453
-437
-500
-562
-584
-608
-687
-811
-918
-954
-917
-854
-828
-868
-922
-903
-779
-634
-575
-613
-647
-592
-478
-411
-416
-420
-372
-321
-364
-494
-580
-526
-372
-240
-192
-187
-172
-142
-122
-111
-107
-135
-208
-263
-208
-42
110
119
-13
-162
-238
-280
-380
-566
-770
-913
-966
-943
-862
-757
-683
-672
-694
-680
-609
-534
-525
-589
-643
-602
-472
-342
-298
-337
-392
-405
-386
-374
-366
-316
-206
-80
-12
-21
-38
7
101
169
168
146
199
355
537
651
675
670
690
728
739
720
723
787
889
963
988
1015
1097
1216
1290
1262
1176
1119
1126
1145
1116
1044
985
985
1020
1043
1045
1030
1005
961
898
831
764
676
547
396
261
166
111
93
118
176
231
239
179
56
-125
-363
-618
-811
-892
-880
-822
-718
-512
-185
181
449
556
565
569
593
579
473
296
128
29
9
39
111
233
388
504
517
447
406
456
514
429
169
-93
-148
11
171
142
-40
-180
-159
-66
-60
-166
-283
-344
-404
-520
-654
-723
-730
-766
-875
-956
-889
-733
-697
-909
-1240
-1436
-1408
-1335
-1454
-1815
-2252
-2580
-2758
-2857
-2876
-2682
-2160
-1386
-588
77
660
1311
2013
2483
2380
1635
551
-440
-1089
-1451
-1704
-1934
-2081
-2037
-1743
-1238
-678
-293
-254
-545
-977
-1379
-1754
-2237
-2885
-3574
-4090
-4324
-4350
-4293
-4199
-4042
-3810
-3529
-3215
-2862
-2488
-2183
-2056
-2095
-2117
-1931
-1543
-1179
-1037
-1069
-1008
-679
-199
124
105
-143
-357
-384
-295
-231
-222
-164
63
453
890
1247
1483
1645
1807
1988
2152
2240
2236
2165
2038
1850
1627
1438
1339
1278
1128
810
395
43
-165
-306
-499
-766
-988
-1046
-928
-733
-573
-497
-491
-518
-542
-547
-539
-546
-584
-619
-597
-507
-388
-293
-231
-175
-119
-89
-109
-135
-90
58
271
472
614
699
753
797
841
879
895
865
788
701
667
714
813
907
975
1047
1153
1271
1339
1333
1301
1316
1373
1385
1280
1092
959
982
1124
1254
1285
1257
1284
1423
1619
1767
1816
1803
1786
1770
1715
1604
1481
1418
1440
1497
1522
1508
1519
1606
1754
1888
1953
1956
1926
1874
1775
1626
1478
1406
1435
1514
1573
1595
1632
1722
1824
1852
1760
1597
1454
1373
1333
1296
1259
1247
1275
1332
1401
1478
1566
1652
1715
1745
1751
1762
1815
1919
2027
2068
2018
1931
1898
1953
2031
2046
1990
1944
1983
2087
2164
2155
2076
1989
1918
1842
1730
1588
1455
1365
1326
1327
1350
1373
1375
1343
1272
1166
1009
772
434
23
-389
-745
-1043
-1299
-1455
-1340
-803
101
1097
1917
2534
3130
3829
4482
4774
4541
3939
3305
2851
2535
2188
1729
1249
912
810
899
1042
1123
1113
1062
1029
1020
980
855
638
375
135
-32
-114
-141
-157
-170
-144
-41
122
258
291
207
43
-187
-489
-818
-1060
-1098
-926
-654
-399
-193
12
252
494
658
685
572
361
126
-57
-148
-175
-203
-259
-306
-282
-189
-97
-82
-151
-270
-414
-574
-725
-814
-809
-756
-740
-797
-865
-857
-770
-702
-749
-893
-1020
-1039
-982
-963
-1051
-1207
-1324
-1342
-1289
-1246
-1264
-1331
-1404
-1446
-1452
-1435
-1410
-1394
-1403
-1436
-1454
-1415
-1306
-1162
-1035
-929
-805
-627
-410
-207
-46
92
236
396
553
697
838
989
1145
1290
1426
1557
1671
1731
1733
1723
1750
1807
1839
1829
1836
1918
2044
2118
2086
2001
1920
1820
1635
1371
1143
1070
1151
1305
1496
1771
2152
2542
2775
2766
2576
2355
2212
2153
2122
2069
2000
1981
2089
2332
2612
2757
2657
2355
2003
1737
1589
1496
1397
1299
1259
1327
1495
1707
1885
1961
1906
1740
1546
1433
1463
1590
1711
1770
1801
1862
1951
2024
2062
2089
2114
2082
1952
1779
1672
1674
1741
1834
1992
2242
2478
2528
2378
2241
2341
2640
2879
2891
2815
2927
3315
3795
4124
4235
4230
4207
4172
4102
4017
3950
3909
3869
3823
3783
3742
3667
3533
3353
3138
2859
2473
2002
1526
1091
662
222
-99
-70
403
1134
1828
2408
3090
4082
5256
6183
6525
6334
5943
5610
5325
4939
4393
3798
3316
3017
2859
2746
2619
2483
2382
2324
2258
2122
1933
1798
1795
1863
1852
1667
1383
1171
1136
1223
1270
1149
846
466
171
68
146
281
353
375
488
810
1301
1785
2117
2291
2376
2394
2327
2216
2204
2389
2697
2932
2996
2985
3036
3134
3125
2907
2556
2218
1953
1729
1525
1403
1417
1511
1546
1444
1255
1092
1028
1040
1052
1022
982
1022
1179
1366
1411
1218
861
513
268
68
-162
-378
-418
-150
412
1119
1794
2335
2734
3031
3247
3350
3276
3027
2716
2487
2403
2406
2407
2380
2352
2346
2357
2364
2358
2330
2286
2278
2370
2566
2772
2878
2888
2891
2943
2990
2961
2878
2857
2977
3214
3504
3805
4084
4257
4244
4105
4023
4131
4359
4494
4410
4229
4182
4360
4600
4650
4414
4044
3784
3745
3826
3841
3713
3527
3411
3404
3428
3404
3329
3254
3200
3150
3093
3067
3105
3177
3201
3113
2928
2712
2510
2311
2086
1871
1776
1880
2126
2367
2501
2577
2686
2773
2618
2049
1160
282
-277
-423
-235
198
845
1683
2633
3586
4434
5060
5330
5168
4645
3958
3302
2778
2396
2148
2045
2075
2192
2343
2504
2663
2772
2738
2480
1994
1390
869
635
755
1121
1529
1860
2145
2484
2892
3260
3421
3284
2880
2303
1635
954
352
-44
-104
242
949
1849
2764
3592
4296
4749
4679
3894
2598
1410
923
1233
1912
2501
2935
3480
4295
5181
5749
5779
5319
4560
3670
2780
2016
1458
1111
927
876
933
1055
1164
1190
1117
975
772
495
177
-54
-81
99
325
365
108
-350
-754
-896
-757
-505
-309
-194
-93
1
-24
-280
-695
-1006
-979
-653
-306
-157
-146
-22
350
824
1123
1092
802
417
66
-190
-322
-350
-344
-348
-283
-25
416
819
949
791
542
366
242
70
-141
-275
-279
-234
-252
-331
-377
-347
-317
-379
-530
-681
-778
-828
-858
-876
-865
-821
-744
-624
-460
-314
-273
-369
-520
-590
-522
-384
-280
-244
-222
-133
56
318
552
608
340
-249
-929
-1352
-1320
-935
-489
-160
147
661
1442
2272
2812
2863
2474
1874
1319
966
821
761
650
471
345
392
585
750
727
538
335
225
165
62
-71
-104
47
288
402
260
-49
-306
-365
-267
-172
-184
-250
-229
-68
109
117
-104
-399
-572
-588
-586
-677
-805
-829
-734
-660
-726
-868
-913
-791
-626
-584
-682
-780
-745
-584
-421
-376
-462
-591
-664
-655
-625
-643
-704
-720
-627
-466
-333
-270
-232
-158
-74
-53
-122
-221
-267
-233
-135
9
194
384
512
530
465
387
345
308
170
-133
-532
-849
-975
-995
-1084
-1281
-1359
-998
-122
991
1950
2611
3153
3805
4541
5073
5129
4708
4054
3439
2993
2679
2407
2115
1805
1541
1401
1408
1481
1487
1350
1120
909
767
649
513
415
447
601
731
698
533
422
483
628
672
560
427
409
489
539
496
427
419
462
493
494
496
510
482
379
257
202
218
215
127
-4
-78
-64
-35
-72
-189
-323
-421
-473
-499
-500
-474
-446
-472
-588
-751
-850
-793
-613
-442
-404
-491
-570
-523
-373
-266
-345
-610
-908
-1062
-1009
-844
-713
-683
-701
-676
-577
-457
-392
-411
-491
-608
-740
-861
-931
-934
-876
-778
-651
-502
-357
-223
-63
157
391
510
418
196
49
111
304
433
428
420
633
1193
2041
2989
3808
4321
4477
4372
4117
3677
2906
1798
676
43
170
846
1573
1986
2072
1995
1837
1505
871
-70
-1157
-2149
-2812
-3023
-2804
-2280
-1612
-939
-369
38
294
421
427
300
85
-70
-32
175
413
613
844
1186
1611
2065
2652
3556
4737
5788
6244
6012
5389
4651
3731
2410
746
-823
-1822
-2124
-1930
-1494
-933
-287
354
863
1172
1311
1356
1363
1369
1374
1373
1387
1485
1730
2081
2387
2506
2433
2286
2194
2194
2257
2354
2471
2571
2597
2523
2399
2292
2234
2193
2134
2053
1936
1755
1483
1133
730
283
-167
-521
-642
-453
5
657
1465
2377
3233
3817
4043
4050
4018
3943
3637
3012
2272
1752
1603
1671
1691
1551
1327
1126
965
812
653
496
334
174
56
32
118
251
358
392
348
238
120
48
38
66
101
122
89
-88
-467
-996
-1537
-1978
-2305
-2483
-2337
-1654
-451
927
2049
2746
3122
3274
3092
2415
1302
88
-905
-1601
-2073
-2338
-2303
-1970
-1513
-1165
-1017
-1021
-1145
-1410
-1764
-2044
-2138
-2158
-2348
-2806
-3355
-3772
-4064
-4443
-5021
-5586
-5769
-5370
-4489
-3353
-2138
-966
-4
574
705
508
179
-163
-547
-1035
-1566
-1992
-2210
-2287
-2375
-2540
-2685
-2718
-2727
-2857
-3026
-2834
-1918
-423
984
1672
1595
1237
1026
903
480
-452
-1642
-2599
-2991
-2796
-2162
-1274
-347
358
635
507
240
128
245
424
459
353
349
701
1418
2222
2769
2899
2687
2312
1901
1487
1093
766
565
520
602
738
848
894
894
896
920
928
884
839
926
1206
1575
1819
1806
1589
1339
1162
1017
807
507
208
27
18
175
476
885
1311
1623
1742
1698
1590
1473
1288
955
487
14
-316
-431
-363
-209
-69
5
28
59
120
161
93
-88
-285
-393
-417
-450
-555
-691
-758
-713
-612
-552
-586
-707
-867
-1025
-1158
-1255
-1321
-1357
-1337
-1228
-1032
-803
-621
-539
-554
-633
-775
-1000
-1304
-1619
-1876
-2066
-2251
-2437
-2493
-2237
-1630
-856
-168
353
840
1426
2045
2484
2587
2418
2147
1887
1632
1322
930
505
151
-43
-77
-56
-109
-238
-311
-234
-79
-10
-68
-108
14
256
420
372
137
-176
-485
-736
-859
-839
-777
-810
-953
-1062
-1025
-929
-989
-1286
-1674
-1932
-1999
-1990
-2012
-2036
-1963
-1782
-1579
-1435
-1346
-1253
-1138
-1056
-1060
-1151
-1288
-1429
-1534
-1554
-1467
-1327
-1253
-1316
-1466
-1559
-1526
-1453
-1470
-1605
-1743
-1773
-1716
-1707
-1850
-2113
-2372
-2520
-2577
-2652
-2853
-3177
-3505
-3688
-3663
-3496
-3319
-3212
-3154
-3074
-2946
-2808
-2707
-2656
-2626
-2589
-2547
-2502
-2431
-2304
-2135
-1985
-1917
-1934
-1968
-1936
-1805
-1622
-1468
-1386
-1333
-1237
-1096
-1006
-1053
-1161
-1103
-708
-72
481
672
517
259
80
-67
-363
-880
-1483
-1955
-2160
-2072
-1742
-1250
-711
-257
33
182
267
330
340
244
44
-190
-362
-401
-294
-85
131
242
191
47
-24
115
438
774
961
989
980
1022
1067
981
694
284
-93
-330
-438
-485
-517
-522
-469
-361
-233
-113
2
124
239
303
291
251
272
405
596
739
770
740
761
892
1080
1218
1251
1227
1241
1321
1408
1431
1389
1340
1325
1331
1331
1347
1441
1643
1899
2108
2207
2202
2143
2080
2025
1956
1843
1671
1476
1336
1307
1381
1467
1456
1310
1084
852
639
419
200
96
276
811
1565
2302
2904
3450
4060
4671
5044
5013
4679
4321
4115
3995
3790
3436
3014
2619
2256
1887
1528
1248
1088
1022
991
952
896
827
748
656
524
309
16
-288
-512
-613
-608
-541
-425
-270
-119
-30
-11
-22
-37
-76
-153
-219
-188
-39
144
243
211
94
-35
-151
-261
-354
-393
-344
-209
-22
173
365
576
824
1066
1186
1083
776
422
184
78
-20
-202
-412
-487
-326
24
429
785
1049
1197
1208
1097
927
764
618
453
253
62
-44
-28
85
224
334
400
424
403
342
263
210
211
250
273
244
183
134
124
143
180
239
333
450
567
666
754
838
918
995
1078
1158
1206
1197
1144
1108
1129
1184
1219
1212
1193
1203
1243
1276
1280
1271
1278
1307
1332
1324
1282
1239
1223
1221
1197
1124
1018
919
855
805
729
612
490
403
367
361
359
359
363
370
369
355
339
331
313
256
163
88
93
185
305
376
384
383
441
568
718
858
987
1131
1313
1530
1757
1938
2010
1935
1750
1542
1390
1316
1310
1355
1443
1559
1695
1859
2058
2248
2336
2255
2044
1826
1697
1639
1568
1461
1372
1361
1401
1405
1342
1278
1291
1362
1375
1258
1077
965
980
1035
978
717
288
-176
-541
-756
-863
-943
-999
-899
-463
337
1285
2084
2624
3042
3510
4013
4354
4371
4111
3756
3433
3162
2909
2680
2479
2264
1998
1723
1542
1491
1483
1397
1225
1066
1005
1021
1034
1000
918
792
640
522
532
676
817
796
614
459
501
711
910
972
951
1009
1249
1619
1950
2098
2038
1866
1713
1623
1553
1454
1338
1248
1176
1053
853
648
546
561
603
592
543
528
563
596
549
367
34
-402
-840
-1153
-1276
-1239
-1120
-960
-741
-457
-163
60
159
108
-112
-481
-889
-1153
-1163
-1001
-898
-1014
-1268
-1419
-1333
-1134
-1062
-1200
-1366
-1310
-979
-552
-255
-168
-213
-291
-365
-447
-556
-673
-751
-737
-600
-359
-85
148
320
453
563
630
641
612
567
509
430
352
334
404
514
587
589
570
602
701
806
843
787
682
591
542
511
461
392
352
365
412
442
423
377
334
301
262
213
172
161
176
198
222
261
306
321
279
212
191
248
325
333
279
283
441
701
904
952
913
928
1043
1165
1181
1088
968
886
855
870
919
956
919
812
738
799
961
1084
1095
1095
1216
1426
1537
1446
1253
1141
1167
1224
1210
1158
1162
1246
1348
1440
1561
1724
1850
1836
1704
1571
1513
1482
1368
1139
877
663
508
373
246
184
282
629
1247
2063
2916
3673
4328
4959
5582
6049
6147
5822
5267
4751
4398
4145
3873
3561
3290
3146
3126
3141
3107
3009
2900
2829
2780
2673
2457
2213
2088
2130
2223
2214
2089
1978
2009
2177
2374
2493
2486
2388
2298
2328
2511
2719
2770
2615
2414
2363
2484
2617
2608
2468
2322
2266
2280
2302
2290
2232
2152
2111
2151
2222
2193
1986
1705
1565
1676
1904
2004
1889
1724
1733
1929
2101
2057
1818
1562
1395
1272
1116
977
978
1126
1270
1263
1129
1028
1057
1154
1200
1140
1014
880
775
737
801
929
1024
996
877
787
797
878
959
1039
1164
1333
1487
1574
1623
1661
1642
1503
1281
1145
1236
1512
1799
1995
2169
2427
2753
3033
3193
3254
3241
3116
2879
2666
2646
2830
3031
3066
2958
2861
2861
2893
2864
2791
2754
2771
2777
2728
2674
2696
2829
3024
3190
3232
3111
2899
2748
2758
2854
2825
2546
2139
1872
1883
2061
2205
2243
2275
2393
2553
2641
2625
2579
2555
2510
2370
2174
2059
2113
2268
2382
2414
2465
2630
2833
2900
2763
2558
2472
2538
2617
2580
2456
2401
2507
2721
2906
2967
2911
2817
2772
2803
2853
2820
2644
2391
2218
2231
2386
2540
2587
2553
2554
2652
2778
2806
2672
2446
2233
2050
1799
1408
953
615
479
455
445
533
941
1747
2731
3556
4101
4528
5017
5510
5756
5597
5131
4591
4132
3777
3507
3328
3218
3094
2884
2644
2520
2575
2691
2670
2428
2102
1890
1868
1946
1981
1914
1792
1682
1614
1578
1552
1531
1525
1535
1555
1562
1518
1419
1297
1217
1218
1280
1335
1319
1244
1205
1286
1457
1560
1468
1234
1064
1081
1173
1122
879
666
719
1007
1245
1219
1034
971
1139
1374
1440
1287
1063
920
870
842
797
750
704
621
481
333
264
311
417
498
513
495
511
590
695
753
722
615
487
400
359
333
291
243
228
262
309
321
279
219
177
165
175
219
294
376
437
488
592
772
935
931
730
506
483
694
919
928
753
655
828
1153
1342
1280
1136
1139
1285
1392
1342
1233
1226
1309
1334
1248
1157
1169
1210
1113
862
651
658
826
928
845
698
693
869
1050
1033
810
558
457
514
575
509
353
269
345
486
529
431
308
266
263
157
-69
-259
-261
-110
10
6
-13
119
393
627
667
555
444
425
449
419
321
223
193
222
255
255
241
258
327
431
508
494
366
133
-143
-362
-435
-353
-213
-121
-47
143
511
907
1078
936
616
293
-57
-597
-1355
-2103
-2582
-2772
-2884
-3084
-3274
-3174
-2617
-1758
-973
-533
-351
-91
464
1140
1541
1501
1264
1200
1365
1467
1270
919
727
742
643
148
-594
-1135
-1203
-959
-750
-681
-543
-96
623
1301
1643
1589
1286
896
502
144
-121
-234
-194
-54
145
400
702
966
1077
991
776
557
399
298
238
210
187
151
110
92
93
36
-135
-367
-538
-590
-594
-644
-728
-753
-679
-572
-492
-394
-188
78
221
114
-149
-341
-362
-340
-455
-725
-956
-935
-630
-203
159
389
539
663
716
614
336
-21
-332
-579
-832
-1123
-1345
-1354
-1166
-1004
-1085
-1382
-1642
-1642
-1420
-1199
-1110
-1056
-837
-394
110
460
591
614
656
736
788
761
657
512
375
297
311
388
439
409
354
381
511
639
671
651
710
873
998
931
681
414
244
119
-92
-387
-606
-592
-339
17
323
521
642
740
864
1022
1160
1168
965
588
192
-62
-134
-113
-118
-187
-247
-185
55
413
719
815
669
408
203
126
114
71
-31
-139
-199
-185
-106
25
165
227
154
-4
-131
-161
-131
-124
-155
-164
-119
-74
-94
-162
-182
-89
78
226
304
349
414
496
537
485
338
140
-57
-217
-311
-314
-218
-49
127
252
308
311
281
196
12
-295
-685
-1063
-1347
-1506
-1538
-1421
-1096
-527
223
999
1673
2225
2710
3134
3405
3405
3117
2673
2240
1897
1613
1339
1088
897
772
685
616
558
484
359
183
5
-134
-265
-429
-573
-549
-276
118
384
393
256
168
169
103
-175
-615
-1025
-1275
-1404
-1516
-1626
-1647
-1517
-1295
-1109
-1015
-954
-854
-737
-695
-779
-925
-1011
-983
-909
-881
-922
-995
-1080
-1182
-1294
-1370
-1377
-1351
-1344
-1367
-1381
-1358
-1315
-1296
-1318
-1380
-1465
-1546
-1589
-1604
-1662
-1803
-1923
-1825
-1430
-912
-564
-511
-610
-657
-639
-728
-1044
-1505
-1914
-2129
-2139
-1988
-1718
-1373
-1019
-697
-402
-129
91
197
169
68
-21
-56
-43
-5
53
147
280
428
540
568
513
439
423
472
505
454
351
302
352
432
440
387
397
546
743
827
744
611
555
570
538
403
256
225
327
452
494
445
367
295
208
86
-38
-111
-116
-88
-67
-54
-25
39
124
188
201
167
130
125
138
115
17
-130
-240
-250
-175
-87
-39
-14
41
150
258
271
138
-99
-335
-490
-566
-633
-749
-895
-995
-981
-858
-688
-539
-440
-390
-383
-409
-446
-455
-405
-312
-219
-159
-127
-103
-74
-44
-24
-15
-8
21
107
268
463
611
659
627
577
529
438
264
47
-122
-211
-276
-382
-518
-621
-687
-797
-1022
-1328
-1606
-1807
-1983
-2171
-2263
-2055
-1454
-608
214
870
1435
2038
2653
3073
3097
2719
2137
1585
1183
894
611
277
-47
-240
-235
-92
62
147
171
177
174
138
40
-120
-323
-508
-576
-452
-170
116
248
191
42
-98
-244
-511
-973
-1539
-2009
-2196
-2010
-1497
-847
-341
-170
-278
-395
-307
-80
113
337
950
2198
3760
4842
4839
3850
2470
1123
-306
-2153
-4384
-6435
-7644
-7780
-7147
-6253
-5426
-4716
-4055
-3437
-2952
-2694
-2639
-2662
-2610
-2414
-2114
-1781
-1467
-1211
-1082
-1174
-1530
-2060
-2547
-2776
-2685
-2362
-1966
-1594
-1290
-1127
-1213
-1549
-1957
-2215
-2253
-2184
