3130
3113
3116
3124
3114
3083
3052
3042
3044
3130
3113
3116
3124
3114
3083
3052
3042
3044
3031
2982
2910
2838
2784
2742
2699
2640
2565
2488
2430
2408
2413
2416
2394
2361
2347
2356
3031
2982
2910
2838
2784
2742
2699
2640
2565
2488
2430
2408
2413
2416
2394
2361
2347
2356
2358
2321
2256
2208
2203
2215
2205
2168
2138
2358
2321
2256
2208
2203
2215
2205
2168
2138
2141
2166
2187
2201
2232
2287
2337
2342
2304
2141
2166
2187
2201
2232
2287
2337
2342
2304
2276
2312
2416
2531
2595
2602
2598
2629
2689
2276
2312
2416
2531
2595
2602
2598
2629
2689
2728
2711
2649
2588
2560
2563
2578
2593
2612
2728
2711
2649
2588
2560
2563
2578
2593
2612
2642
2686
2738
2790
2832
2850
2844
2823
2798
2642
2686
2738
2790
2832
2850
2844
2823
2798
2778
2767
2770
2788
2815
2841
2857
2867
2878
2778
2767
2770
2788
2815
2841
2857
2867
2878
2896
2920
2941
2946
2929
2895
2861
2841
2830
2896
2920
2941
2946
2929
2895
2861
2841
2830
2817
2794
2769
2756
2757
2769
2788
2810
2833
2817
2794
2769
2756
2757
2769
2788
2810
2833
2857
2878
2892
2899
2898
2894
2895
2901
2905
2857
2878
2892
2899
2898
2894
2895
2901
2905
2908
2926
2974
3050
3121
3160
3172
3181
3195
2908
2926
2974
3050
3121
3160
3172
3181
3195
3184
3109
2970
2815
2695
2619
2572
2547
2552
3184
3109
2970
2815
2695
2619
2572
2547
2552
2590
2634
2658
2658
2655
2665
2678
2673
2632
2590
2634
2658
2658
2655
2665
2678
2673
2632
2554
2462
2401
2425
2550
2733
2913
3066
3204
2554
2462
2401
2425
2550
2733
2913
3066
3204
3317
3340
3225
3004
2769
2560
2331
2047
1792
1725
1919
2285
2666
2982
3244
3448
3519
3384
3317
3340
3225
3004
2769
2560
2331
2047
1792
1725
1919
2285
2666
2982
3244
3448
3519
3384
3068
2679
2309
1975
1672
1454
1420
1623
1998
3068
2679
2309
1975
1672
1454
1420
1623
1998
2408
2738
2960
3114
3225
3273
3232
3128
3036
2408
2738
2960
3114
3225
3273
3232
3128
3036
3021
3110
3314
3667
4189
4793
5291
5527
5519
3021
3110
3314
3667
4189
4793
5291
5527
5519
5414
5304
5116
4721
4126
3507
3057
2818
2708
5414
5304
5116
4721
4126
3507
3057
2818
2708
2656
2673
2781
2940
3066
3123
3134
3131
3101
2656
2673
2781
2940
3066
3123
3134
3131
3101
3019
2892
2771
2698
2662
2638
2615
2611
2636
3019
2892
2771
2698
2662
2638
2615
2611
2636
2663
2651
2588
2514
2490
2532
2600
2640
2640
2663
2651
2588
2514
2490
2532
2600
2640
2640
2635
2657
2694
2716
2721
2742
2803
2878
2923
2635
2657
2694
2716
2721
2742
2803
2878
2923
2924
2916
2932
2966
2981
2961
2929
2925
2954
2989
3001
2993
2992
3026
3090
3154
3189
3194
2989
3001
2993
2992
3026
3090
3154
3189
3194
3193
3211
3243
3267
3270
3262
3269
3308
3367
3193
3211
3243
3267
3270
3262
3269
3308
3367
3420
3444
3443
3440
3453
3483
3510
3520
3523
3420
3444
3443
3440
3453
3483
3510
3520
3523
3534
3560
3589
3609
3620
3635
3658
3680
3689
3534
3560
3589
3609
3620
3635
3658
3680
3689
3683
3670
3658
3652
3658
3680
3704
3712
3690
3656
3637
3647
3671
3684
3674
3649
3618
3585
3656
3637
3647
3671
3684
3674
3649
3618
3585
3548
3503
3442
3358
3262
3188
3174
3220
3285
3548
3503
3442
3358
3262
3188
3174
3220
3285
3326
3328
3312
3290
3242
3134
2961
2756
2566
3326
3328
3312
3290
3242
3134
2961
2756
2566
2413
2293
2204
2161
2174
2227
2283
2319
2341
2413
2293
2204
2161
2174
2227
2283
2319
2341
2363
2379
2371
2329
2275
2227
2187
2152
2129
2363
2379
2371
2329
2275
2227
2187
2152
2129
2143
2202
2285
2354
2389
2399
2410
2438
2488
2143
2202
2285
2354
2389
2399
2410
2438
2488
2557
2640
2735
2827
2888
2894
2842
2763
2692
2557
2640
2735
2827
2888
2894
2842
2763
2692
2632
2549
2420
2275
2175
2156
2195
2243
2282
2632
2549
2420
2275
2175
2156
2195
2243
2282
2338
2423
2511
2557
2546
2511
2489
2488
2492
2338
2423
2511
2557
2546
2511
2489
2488
2492
2488
2483
2486
2495
2498
2491
2482
2479
2483
2488
2483
2486
2495
2498
2491
2482
2479
2483
2483
2474
2467
2479
2521
2582
2635
2661
2667
2483
2474
2467
2479
2521
2582
2635
2661
2667
2672
2684
2692
2683
2663
2654
2667
2691
2704
2672
2684
2692
2683
2663
2654
2667
2691
2704
2695
2666
2634
2613
2617
2653
2704
2739
2735
2695
2666
2634
2613
2617
2653
2704
2739
2735
2707
2692
2707
2725
2709
2652
2584
2537
2507
2707
2692
2707
2725
2709
2652
2584
2537
2507
2466
2405
2352
2343
2371
2389
2354
2274
2204
2466
2405
2352
2343
2371
2389
2354
2274
2204
2184
2209
2235
2231
2205
2187
2196
2228
2260
2184
2209
2235
2231
2205
2187
2196
2228
2260
2280
2292
2300
2305
2303
2290
2271
2252
2237
2280
2292
2300
2305
2303
2290
2271
2252
2237
2232
2253
2302
2359
2401
2436
2509
2659
2858
2232
2253
2302
2359
2401
2436
2509
2659
2858
3025
3103
3128
3181
3277
3344
3318
3239
3221
3025
3103
3128
3181
3277
3344
3318
3239
3221
3337
3578
3920
4376
4928
5440
5729
5737
5593
3337
3578
3920
4376
4928
5440
5729
5737
5593
5445
5267
4882
4212
3419
2764
2376
2177
2055
5445
5267
4882
4212
3419
2764
2376
2177
2055
2003
2081
2267
2429
2463
2390
2310
2271
2216
2003
2081
2267
2429
2463
2390
2310
2271
2216
2067
1829
1595
1452
1424
1474
1552
1632
1700
2067
1829
1595
1452
1424
1474
1552
1632
1700
1741
1751
1751
1794
1910
2064
2181
2204
2160
1741
1751
1751
1794
1910
2064
2181
2204
2160
2124
2160
2267
2392
2486
2535
2569
2621
2700
2124
2160
2267
2392
2486
2535
2569
2621
2700
2785
2850
2892
2922
2958
2998
3028
3052
3076
2785
2850
2892
2922
2958
2998
3028
3052
3076
3106
3143
3187
3248
3322
3386
3428
3464
3517
3575
3598
3567
3521
3513
3544
3570
3563
3550
3575
3598
3567
3521
3513
3544
3570
3563
3550
3574
3633
3681
3690
3681
3696
3735
3764
3758
3574
3633
3681
3690
3681
3696
3735
3764
3758
3736
3731
3746
3759
3759
3755
3756
3750
3707
3736
3731
3746
3759
3759
3755
3756
3750
3707
3629
3555
3520
3522
3516
3478
3423
3387
3375
3629
3555
3520
3522
3516
3478
3423
3387
3375
3360
3311
3237
3166
3111
3056
2974
2868
2769
3360
3311
3237
3166
3111
3056
2974
2868
2769
2696
2642
2583
2515
2452
2407
2370
2327
2271
2696
2642
2583
2515
2452
2407
2370
2327
2271
2217
2185
2175
2165
2130
2060
1972
1893
1836
2217
2185
2175
2165
2130
2060
1972
1893
1836
1795
1760
1728
1705
1691
1678
1662
1651
1661
1795
1760
1728
1705
1691
1678
1662
1651
1661
1688
1709
1697
1656
1620
1623
1663
1703
1716
1688
1709
1697
1656
1620
1623
1663
1703
1716
1712
1726
1770
1814
1819
1780
1732
1709
1710
1712
1726
1770
1814
1819
1780
1732
1709
1710
1718
1727
1761
1841
1962
2091
2200
2283
2343
1718
1727
1761
1841
1962
2091
2200
2283
2343
2369
2342
2248
2097
1915
1739
1603
1524
1497
2369
2342
2248
2097
1915
1739
1603
1524
1497
1500
1519
1559
1633
1735
1833
1890
1901
1882
1500
1519
1559
1633
1735
1833
1890
1901
1882
1857
1837
1830
1841
1864
1886
1901
1919
1958
1857
1837
1830
1841
1864
1886
1901
1919
1958
2014
2053
2050
2021
2014
2056
2131
2194
2220
2014
2053
2050
2021
2014
2056
2131
2194
2220
2216
2201
2185
2174
2173
2185
2195
2185
2153
2216
2201
2185
2174
2173
2185
2195
2185
2153
2132
2157
2223
2287
2308
2291
2272
2273
2267
2132
2157
2223
2287
2308
2291
2272
2273
2267
2224
2155
2105
2105
2130
2128
2079
2019
1991
1995
1998
1972
1931
1908
1914
1933
1941
1937
2224
2155
2105
2105
2130
2128
2079
2019
1991
1995
1998
1972
1931
1908
1914
1933
1941
1937
1942
1974
2028
2075
2091
2082
2074
2091
2125
1942
1974
2028
2075
2091
2082
2074
2091
2125
2159
2179
2192
2215
2249
2282
2311
2346
2393
2159
2179
2192
2215
2249
2282
2311
2346
2393
2452
2522
2614
2735
2876
3012
3126
3235
3361
2452
2522
2614
2735
2876
3012
3126
3235
3361
3483
3551
3545
3525
3585
3755
3990
4273
4673
3483
3551
3545
3525
3585
3755
3990
4273
4673
5262
5955
6505
6711
6615
6428
6267
6011
5462
5262
5955
6505
6711
6615
6428
6267
6011
5462
4621
3743
3108
2788
2652
2563
2511
2549
2671
4621
3743
3108
2788
2652
2563
2511
2549
2671
2797
2849
2815
2727
2609
2458
2284
2129
2038
2797
2849
2815
2727
2609
2458
2284
2129
2038
2026
2065
2106
2114
2091
2062
2052
2054
2053
2026
2065
2106
2114
2091
2062
2052
2054
2053
2044
2050
2083
2131
2164
2168
2159
2163
2180
2044
2050
2083
2131
2164
2168
2159
2163
2180
2191
2180
2163
2163
2185
2213
2233
2249
2273
2191
2180
2163
2163
2185
2213
2233
2249
2273
2302
2324
2330
2328
2328
2329
2321
2306
2293
2302
2324
2330
2328
2328
2329
2321
2306
2293
2293
2306
2326
2347
2370
2397
2427
2454
2475
2293
2306
2326
2347
2370
2397
2427
2454
2475
2487
2494
2505
2532
2571
2608
2626
2629
2637
2487
2494
2505
2532
2571
2608
2626
2629
2637
2667
2713
2749
2756
2747
2753
2789
2841
2875
2667
2713
2749
2756
2747
2753
2789
2841
2875
2875
2863
2872
2913
2965
2997
2999
2984
2972
2972
2977
2982
2978
2962
2931
2894
2862
2839
2875
2863
2872
2913
2965
2997
2999
2984
2972
2972
2977
2982
2978
2962
2931
2894
2862
2839
2811
2771
2731
2716
2724
2726
2696
2640
2585
2811
2771
2731
2716
2724
2726
2696
2640
2585
2548
2518
2483
2438
2373
2270
2136
2032
2027
2548
2518
2483
2438
2373
2270
2136
2032
2027
2114
2195
2181
2100
2072
2165
2314
2386
2322
2114
2195
2181
2100
2072
2165
2314
2386
2322
2194
2102
2070
2038
1950
1825
1745
1765
1857
2194
2102
2070
2038
1950
1825
1745
1765
1857
1935
1932
1863
1822
1890
2055
2210
2244
2151
1935
1932
1863
1822
1890
2055
2210
2244
2151
2032
1990
2034
2091
2096
2057
2032
2047
2068
2032
1990
2034
2091
2096
2057
2032
2047
2068
2057
2031
2049
2129
2204
2189
2072
1946
1923
2057
2031
2049
2129
2204
2189
2072
1946
1923
2029
2171
2230
2175
2089
2083
2190
2328
2388
2029
2171
2230
2175
2089
2083
2190
2328
2388
2326
2190
2063
1991
1954
1927
1920
1952
2013
2060
2060
2033
2035
2100
2193
2249
2246
2220
2326
2190
2063
1991
1954
1927
1920
1952
2013
2060
2060
2033
2035
2100
2193
2249
2246
2220
2232
2303
2396
2466
2496
2505
2514
2518
2501
2232
2303
2396
2466
2496
2505
2514
2518
2501
2454
2393
2348
2353
2412
2494
2547
2564
2599
2454
2393
2348
2353
2412
2494
2547
2564
2599
2697
2811
2836
2739
2619
2590
2630
2596
2427
2697
2811
2836
2739
2619
2590
2630
2596
2427
2247
2216
2310
2335
2174
1951
1893
2043
2199
2247
2216
2310
2335
2174
1951
1893
2043
2199
2149
1904
1670
1606
1674
1719
1646
1494
1378
2149
1904
1670
1606
1674
1719
1646
1494
1378
1377
1485
1639
1773
1856
1902
1936
1965
1979
1377
1485
1639
1773
1856
1902
1936
1965
1979
1975
1964
1957
1936
1883
1816
1798
1881
2067
1975
1964
1957
1936
1883
1816
1798
1881
2067
2310
2547
2737
2881
3006
3118
3195
3209
3170
2310
2547
2737
2881
3006
3118
3195
3209
3170
3124
3114
3148
3239
3453
3850
4370
4813
4997
3124
3114
3148
3239
3453
3850
4370
4813
4997
4927
4771
4654
4488
4089
3437
2758
2322
2185
4927
4771
4654
4488
4089
3437
2758
2322
2185
2182
2154
2110
2143
2248
2301
2213
2043
1911
2182
2154
2110
2143
2248
2301
2213
2043
1911
1834
1707
1472
1239
1185
1350
1585
1705
1675
1834
1707
1472
1239
1185
1350
1585
1705
1675
1609
1604
1631
1608
1525
1459
1469
1526
1558
1609
1604
1631
1608
1525
1459
1469
1526
1558
1550
1551
1596
1654
1677
1666
1656
1658
1647
1607
1568
1570
1600
1597
1535
1464
1462
1549
1550
1551
1596
1654
1677
1666
1656
1658
1647
1607
1568
1570
1600
1597
1535
1464
1462
1549
1661
1728
1736
1733
1765
1831
1894
1918
1898
1661
1728
1736
1733
1765
1831
1894
1918
1898
1857
1833
1846
1887
1930
1954
1967
1989
2031
2081
2120
2141
2155
2167
2170
2155
2126
2097
1857
1833
1846
1887
1930
1954
1967
1989
2031
2081
2120
2141
2155
2167
2170
2155
2126
2097
2085
2102
2131
2145
2132
2113
2125
2174
2231
2085
2102
2131
2145
2132
2113
2125
2174
2231
2268
2295
2337
2379
2370
2294
2217
2222
2318
2268
2295
2337
2379
2370
2294
2217
2222
2318
2412
2418
2348
2298
2338
2432
2484
2438
2325
2412
2418
2348
2298
2338
2432
2484
2438
2325
2225
2177
2157
2115
2038
1962
1922
1896
1828
2225
2177
2157
2115
2038
1962
1922
1896
1828
1702
1587
1568
1637
1697
1667
1581
1536
1576
1702
1587
1568
1637
1697
1667
1581
1536
1576
1635
1631
1557
1466
1397
1350
1341
1437
1692
2049
2370
2562
2649
2694
2698
2597
2363
2050
1635
1631
1557
1466
1397
1350
1341
1437
1692
2049
2370
2562
2649
2694
2698
2597
2363
2050
1708
1331
913
551
426
605
926
1134
1145
1708
1331
913
551
426
605
926
1134
1145
1116
1235
1502
1748
1844
1814
1759
1735
1759
1116
1235
1502
1748
1844
1814
1759
1735
1759
1852
2021
2207
2347
2510
2881
3549
4358
5031
1852
2021
2207
2347
2510
2881
3549
4358
5031
5464
5804
6188
6481
6378
5730
4715
3642
2670
5464
5804
6188
6481
6378
5730
4715
3642
2670
1760
854
29
-556
-798
-733
-476
-144
191
1760
854
29
-556
-798
-733
-476
-144
191
512
839
1179
1473
1643
1683
1690
1777
1945
512
839
1179
1473
1643
1683
1690
1777
1945
2103
2207
2352
2679
3213
3812
4299
4619
4823
2103
2207
2352
2679
3213
3812
4299
4619
4823
4939
4885
4550
3948
3248
2643
2221
1958
1829
1866
2114
2552
3075
3531
3776
3707
3303
2655
4939
4885
4550
3948
3248
2643
2221
1958
1829
1934
1288
757
300
-76
-276
-196
147
614
1866
2114
2552
3075
3531
3776
3707
3303
2655
1934
1288
757
300
-76
-276
-196
147
614
1052
1401
1675
1884
2009
2059
2095
2184
2325
2465
2566
2650
2744
2829
2847
2781
2670
2567
1052
1401
1675
1884
2009
2059
2095
2184
2325
2465
2566
2650
2744
2829
2847
2781
2670
2567
2479
2382
2275
2204
2206
2284
2425
2668
3081
2479
2382
2275
2204
2206
2284
2425
2668
3081
3693
4396
4989
5326
5426
5421
5387
5253
4918
3693
4396
4989
5326
5426
5421
5387
5253
4918
4430
3998
3784
3749
3753
3760
3886
4231
4705
4430
3998
3784
3749
3753
3760
3886
4231
4705
5103
5296
5305
5163
4824
4202
3334
2421
1688
5103
5296
5305
5163
4824
4202
3334
2421
1688
1262
1202
1616
2666
4375
6403
8109
8923
8711
1262
1202
1616
2666
4375
6403
8109
8923
8711
7815
6708
5641
4587
3474
2365
1411
712
295
152
204
208
-183
-1135
-2430
-3570
-4176
-4218
7815
6708
5641
4587
3474
2365
1411
712
295
-3888
-3326
-2525
-1479
-312
748
1520
1931
1975
152
204
208
-183
-1135
-2430
-3570
-4176
-4218
-3888
-3326
-2525
-1479
-312
748
1520
1931
1975
1699
1242
825
664
846
1281
1793
2237
2529
1699
1242
825
664
846
1281
1793
2237
2529
2617
2492
2239
2031
2013
2190
2437
2618
2691
2617
2492
2239
2031
2013
2190
2437
2618
2691
2742
2943
3457
4300
5265
5996
6240
6026
5581
2742
2943
3457
4300
5265
5996
6240
6026
5581
5073
4502
3837
3197
2819
2881
3439
4519
6136
5073
4502
3837
3197
2819
2881
3439
4519
6136
8140
10094
11480
12086
12149
12067
12027
11935
11671
8140
10094
11480
12086
12149
12067
12027
11935
11671
11308
11038
10959
11004
11085
11186
11280
11218
10787
9927
8847
7917
7416
7359
7542
7728
7804
7805
11308
11038
10959
11004
11085
11186
11280
11218
10787
9927
8847
7917
7416
7359
7542
7728
7804
7805
7820
7899
7999
8031
7971
7919
8045
8420
8912
7820
7899
7999
8031
7971
7919
8045
8420
8912
9255
9252
8925
8464
8067
7800
7593
7322
6917
9255
9252
8925
8464
8067
7800
7593
7322
6917
6424
6023
5909
6119
6430
6493
6105
5397
4720
6424
6023
5909
6119
6430
6493
6105
5397
4720
4346
4255
4227
4089
3874
3753
3854
4158
4546
4346
4255
4227
4089
3874
3753
3854
4158
4546
4890
5107
5156
5043
4838
4647
4559
4599
4745
4890
5107
5156
5043
4838
4647
4559
4599
4745
4960
5231
5551
5893
6211
6440
6518
6415
6172
4960
5231
5551
5893
6211
6440
6518
6415
6172
5892
5668
5494
5269
4882
4310
3630
2953
2354
5892
5668
5494
5269
4882
4310
3630
2953
2354
1854
1434
1062
738
532
575
960
1627
2363
1854
1434
1062
738
532
575
960
1627
2363
2930
3226
3326
3373
3437
3470
3395
3201
2962
2930
3226
3326
3373
3437
3470
3395
3201
2962
2787
2751
2877
3176
3663
4275
4806
4996
4721
2787
2751
2877
3176
3663
4275
4806
4996
4721
4117
3494
3094
2921
2827
2713
2613
2616
2746
4117
3494
3094
2921
2827
2713
2613
2616
2746
2955
3204
3510
3898
4363
4870
5367
5734
5763
2955
3204
3510
3898
4363
4870
5367
5734
5763
5260
4239
2982
1839
955
216
-515
-1151
-1413
5260
4239
2982
1839
955
216
-515
-1151
-1413
-1088
-238
819
1737
2319
2558
2571
2484
2333
-1088
-238
819
1737
2319
2558
2571
2484
2333
2058
1598
1012
495
272
443
925
1561
2229
2058
1598
1012
495
272
443
925
1561
2229
2861
3382
3673
3645
3326
2878
2484
2212
1970
1619
1169
867
1054
1882
3128
4309
5025
5234
2861
3382
3673
3645
3326
2878
2484
2212
1970
1619
1169
867
1054
1882
3128
4309
5025
5234
5164
5016
4756
4242
3463
2620
1969
1656
1721
5164
5016
4756
4242
3463
2620
1969
1656
1721
2151
2861
3599
4025
3981
3631
3280
3051
2798
2151
2861
3599
4025
3981
3631
3280
3051
2798
2357
1804
1400
1324
1507
1753
1933
2024
2033
2357
1804
1400
1324
1507
1753
1933
2024
2033
1953
1805
1655
1573
1579
1655
1774
1925
2119
1953
1805
1655
1573
1579
1655
1774
1925
2119
2379
2702
3008
3128
2920
2422
1855
1445
1221
2379
2702
3008
3128
2920
2422
1855
1445
1221
1039
802
619
718
1188
1845
2363
2518
2318
1039
802
619
718
1188
1845
2363
2518
2318
1921
1466
986
464
-74
-511
-706
-595
-228
282
826
1336
1765
2057
2182
2162
2068
1977
1932
1933
1975
2062
2200
2385
2590
2768
2860
1921
1466
986
464
-74
-511
-706
-595
-228
2840
2744
2677
2747
2962
3184
3182
2807
2142
282
826
1336
1765
2057
2182
2162
2068
1977
1932
1933
1975
2062
2200
2385
2590
2768
2860
2840
2744
2677
2747
2962
3184
3182
2807
2142
1467
1043
902
839
646
350
199
409
947
1467
1043
902
839
646
350
199
409
947
1559
1997
2205
2299
2405
2543
2648
2665
2620
1559
1997
2205
2299
2405
2543
2648
2665
2620
2562
2509
2455
2440
2586
2989
3561
4020
4111
2562
2509
2455
2440
2586
2989
3561
4020
4111
3843
3481
3285
3264
3222
3002
2648
2325
2142
3843
3481
3285
3264
3222
3002
2648
2325
2142
2077
2034
1922
1683
1303
845
435
178
74
2077
2034
1922
1683
1303
845
435
178
74
36
-8
-36
40
273
632
1030
1380
1614
36
-8
-36
40
273
632
1030
1380
1614
1695
1643
1525
1415
1357
1343
1343
1348
1356
1695
1643
1525
1415
1357
1343
1343
1348
1356
1365
1369
1369
1381
1424
1512
1657
1869
2147
2457
2725
2865
2845
2710
2551
2424
2296
2081
1365
1369
1369
1381
1424
1512
1657
1869
2147
2457
2725
2865
2845
2710
2551
2424
2296
2081
1728
1294
902
635
479
352
211
101
97
1728
1294
902
635
479
352
211
101
97
231
464
738
1003
1234
1405
1492
1496
1453
231
464
738
1003
1234
1405
1492
1496
1453
1402
1357
1309
1265
1291
1493
1926
2513
3061
1402
1357
1309
1265
1291
1493
1926
2513
3061
3389
3446
3311
3079
2746
2229
1502
701
68
3389
3446
3311
3079
2746
2229
1502
701
68
-209
-119
198
591
1009
1456
1894
2204
2274
-209
-119
198
591
1009
1456
1894
2204
2274
2109
1831
1564
1327
1079
832
689
762
1050
2109
1831
1564
1327
1079
832
689
762
1050
1416
1709
1899
2068
2311
2656
3073
3560
4174
1416
1709
1899
2068
2311
2656
3073
3560
4174
4957
5817
6478
6601
5994
4764
3271
1893
796
4957
5817
6478
6601
5994
4764
3271
1893
796
-84
-876
-1575
-2003
-1960
-1411
-548
312
892
-84
-876
-1575
-2003
-1960
-1411
-548
312
892
1079
960
750
655
755
965
1134
1191
1204
1079
960
750
655
755
965
1134
1191
1204
1292
1502
1762
1948
1984
1881
1705
1541
1470
1292
1502
1762
1948
1984
1881
1705
1541
1470
1545
1751
2010
2224
2334
2342
2284
2209
2164
2195
2334
2553
2774
2927
3020
3133
3336
3629
1545
1751
2010
2224
2334
2342
2284
2209
2164
2195
2334
2553
2774
2927
3020
3133
3336
3629
3957
4293
4642
4962
5142
5102
4907
4725
4630
3957
4293
4642
4962
5142
5102
4907
4725
4630
4483
4088
3435
2758
2297
2066
1884
1624
1346
4483
4088
3435
2758
2297
2066
1884
1624
1346
1188
1181
1226
1231
1195
1158
1117
1032
893
1188
1181
1226
1231
1195
1158
1117
1032
893
745
656
654
718
803
859
875
894
987
745
656
654
718
803
859
875
894
987
1162
1345
1455
1504
1601
1840
2177
2477
2655
1162
1345
1455
1504
1601
1840
2177
2477
2655
2774
2965
3236
3407
3262
2815
2369
2242
2425
2774
2965
3236
3407
3262
2815
2369
2242
2425
2569
2362
1883
1517
1513
1696
1676
1288
746
372
261
270
253
223
266
403
588
803
2569
2362
1883
1517
1513
1696
1676
1288
746
372
261
270
253
223
266
403
588
803
1070
1385
1679
1878
1988
2088
2233
2407
2576
1070
1385
1679
1878
1988
2088
2233
2407
2576
2753
2999
3338
3702
3979
4150
4342
4732
5333
2753
2999
3338
3702
3979
4150
4342
4732
5333
5909
6102
5720
4882
3914
3077
2393
1712
917
5909
6102
5720
4882
3914
3077
2393
1712
917
77
-586
-854
-665
-148
472
1005
1382
1643
77
-586
-854
-665
-148
472
1005
1382
1643
1858
2048
2185
2232
2192
2105
2010
1943
1951
1858
2048
2185
2232
2192
2105
2010
1943
1951
2095
2405
2812
3146
3227
3013
2634
2291
2100
2043
2048
2095
2210
2377
2505
2507
2401
2303
2095
2405
2812
3146
3227
3013
2634
2291
2100
2043
2048
2095
2210
2377
2505
2507
2401
2303
2299
2346
2330
2196
2008
1877
1836
1808
1701
1487
1216
952
708
461
214
40
70
409
2299
2346
2330
2196
2008
1877
1836
1808
1701
1059
1896
2718
3323
3590
3515
3181
2695
2126
1487
1216
952
708
461
214
40
70
409
1059
1896
2718
3323
3590
3515
3181
2695
2126
1499
867
378
241
606
1421
2379
3042
3096
1499
867
378
241
606
1421
2379
3042
3096
2581
1911
1597
1845
2373
2645
2347
1662
1078
2581
1911
1597
1845
2373
2645
2347
1662
1078
918
1067
1130
814
169
-501
-886
-845
-428
918
1067
1130
814
169
-501
-886
-845
-428
193
819
1306
1629
1867
2097
2302
2371
2222
193
819
1306
1629
1867
2097
2302
2371
2222
1907
1587
1407
1415
1587
1907
2367
2894
3315
1907
1587
1407
1415
1587
1907
2367
2894
3315
3438
3221
2845
2617
2756
3213
3689
3818
3430
3438
3221
2845
2617
2756
3213
3689
3818
3430
2682
1941
1504
1371
1284
994
519
129
104
473
1007
1422
1587
1568
1512
1526
1643
1855
473
1007
1422
1587
1568
1512
1526
1643
1855
2121
2384
2592
2727
2805
2837
2799
2656
2403
2121
2384
2592
2727
2805
2837
2799
2656
2403
2034
1546
958
374
-21
-85
160
564
1006
2034
1546
958
374
-21
-85
160
564
1006
1504
2139
2888
3574
3975
3974
3602
2984
2252
1504
2139
2888
3574
3975
3974
3602
2984
2252
1496
751
25
-613
-987
-895
-298
590
1417
1496
751
25
-613
-987
-895
-298
590
1417
1955
2227
2377
2473
2448
2212
1804
1389
1136
1137
1417
1962
2675
3360
3785
3841
3621
3325
1955
2227
2377
2473
2448
2212
1804
1389
1136
1137
1417
1962
2675
3360
3785
3841
3621
3325
3101
3007
3092
3424
3979
4546
4837
4741
4434
3101
3007
3092
3424
3979
4546
4837
4741
4434
4161
3930
3493
2661
1609
781
524
821
1394
4161
3930
3493
2661
1609
781
524
821
1394
1988
2528
3028
3460
3732
3777
3604
3243
2706
1988
2528
3028
3460
3732
3777
3604
3243
2706
2000
1208
506
63
-67
22
182
330
463
611
796
1040
1370
1763
2110
2254
2127
1824
2000
1208
506
63
-67
22
182
330
463
611
796
1040
1370
1763
2110
2254
2127
1824
2011
2024
1962
1854
1774
1801
1985
2325
2768
2011
2024
1962
1854
1774
1801
1985
2325
2768
3235
3621
3803
3699
3345
2904
2547
2310
2070
3235
3621
3803
3699
3345
2904
2547
2310
2070
1690
1193
770
648
936
1589
2477
3444
4317
1690
1193
770
648
936
1589
2477
3444
4317
4897
5027
4674
3960
3079
2171
1272
388
-392
4897
5027
4674
3960
3079
2171
1272
388
-392
-876
-877
-375
436
1259
1885
2301
2612
2883
-876
-877
-375
436
1259
1885
2301
2612
2883
3075
3114
2988
2766
2528
2298
2070
1864
1738
3075
3114
2988
2766
2528
2298
2070
1864
1738
1726
1793
1846
1819
1747
1764
2039
2654
3512
1726
1793
1846
1819
1747
1764
2039
2654
3512
4337
4817
4786
4304
3570
2760
1935
1098
291
-363
-712
-672
-282
310
920
1435
1834
2150
4337
4817
4786
4304
3570
2760
1935
1098
291
-363
-712
-672
-282
310
920
1435
1834
2150
2394
2522
2495
2342
2156
2039
2046
2183
2443
2394
2522
2495
2342
2156
2039
2046
2183
2443
2832
3355
3953
4494
4816
4841
4638
4377
4210
2832
3355
3953
4494
4816
4841
4638
4377
4210
4192
4289
4419
4464
4307
3930
3495
3256
3311
4192
4289
4419
4464
4307
3930
3495
3256
3311
3439
3274
2683
1947
1522
1596
1924
2114
2031
3439
3274
2683
1947
1522
1596
1924
2114
2031
1871
1877
2070
2283
2372
2355
2307
2220
2035
1871
1877
2070
2283
2372
2355
2307
2220
2035
1780
1618
1702
2044
2506
2940
3289
3543
3647
1780
1618
1702
2044
2506
2940
3289
3543
3647
3510
3100
2511
1878
1268
652
11
-555
-861
3510
3100
2511
1878
1268
652
11
-555
-861
-781
-348
275
907
1425
1777
1957
2010
1996
-781
-348
275
907
1425
1777
1957
2010
1996
1941
1817
1614
1411
1346
1486
1752
2017
2252
1941
1817
1614
1411
1346
1486
1752
2017
2252
2529
2852
3073
3017
2696
2342
2194
2272
2385
2529
2852
3073
3017
2696
2342
2194
2272
2385
2358
2214
2137
2262
2538
2785
2861
2777
2634
2508
2382
2209
1996
1813
1737
1790
1951
2183
2358
2214
2137
2262
2538
2785
2861
2777
2634
2508
2382
2209
1996
1813
1737
1790
1951
2183
2449
2693
2861
2937
2951
2944
2922
2877
2826
2449
2693
2861
2937
2951
2944
2922
2877
2826
2817
2876
2975
3065
3135
3227
3378
3595
3847
2817
2876
2975
3065
3135
3227
3378
3595
3847
4091
4275
4359
4343
4280
4226
4162
3985
3612
3097
2610
2297
2147
2016
1781
1457
1158
989
4091
4275
4359
4343
4280
4226
4162
3985
3612
3097
2610
2297
2147
2016
1781
1457
1158
989
960
1013
1093
1183
1289
1420
1585
1770
1935
960
1013
1093
1183
1289
1420
1585
1770
1935
2055
2127
2151
2127
2054
1953
1895
1958
2150
2055
2127
2151
2127
2054
1953
1895
1958
2150
2416
2725
3147
3787
4612
5374
5759
5655
5281
5014
5045
5171
4955
4110
2788
1479
620
254
52
-342
-964
-1519
-1652
-1257
-531
207
747
2416
2725
3147
3787
4612
5374
5759
5655
5281
5014
5045
5171
4955
4110
2788
1479
620
254
52
-342
-964
-1519
-1652
-1257
-531
207
747
1072
1277
1460
1673
1895
2070
2143
2090
1947
1072
1277
1460
1673
1895
2070
2143
2090
1947
1813
1791
1925
2170
2428
2605
2648
2567
2423
1813
1791
1925
2170
2428
2605
2648
2567
2423
2292
2237
2280
2396
2532
2630
2657
2618
2548
2292
2237
2280
2396
2532
2630
2657
2618
2548
2492
2475
2499
2547
2602
2651
2683
2686
2663
2492
2475
2499
2547
2602
2651
2683
2686
2663
2627
2601
2590
2587
2589
2611
2675
2782
2913
2627
2601
2590
2587
2589
2611
2675
2782
2913
3035
3121
3150
3114
3020
2890
2748
2605
2458
3035
3121
3150
3114
3020
2890
2748
2605
2458
2322
2236
2230
2306
2428
2552
2665
2787
2939
3107
3233
3265
3190
3041
2871
2718
2594
2498
2322
2236
2230
2306
2428
2552
2665
2787
2939
3107
3233
3265
3190
3041
2871
2718
2594
2498
2425
2372
2355
2410
2557
2764
2949
3047
3063
2425
2372
2355
2410
2557
2764
2949
3047
3063
3054
3052
3035
2959
2828
2691
2591
2531
2498
3054
3052
3035
2959
2828
2691
2591
2531
2498
2504
2570
2686
2804
2879
2906
2913
2921
2929
2504
2570
2686
2804
2879
2906
2913
2921
2929
2935
2946
2960
2962
2936
2903
2895
2927
2978
2935
2946
2960
2962
2936
2903
2895
2927
2978
3025
3084
3208
3453
3807
4177
4443
4544
4523
3025
3084
3208
3453
3807
4177
4443
4544
4523
4479
4472
4478
4424
4291
4133
4006
3899
3741
4479
4472
4478
4424
4291
4133
4006
3899
3741
3480
3129
2726
2290
1828
1386
1046
871
854
3480
3129
2726
2290
1828
1386
1046
871
854
945
1110
1347
1645
1953
2208
2379
2469
2484
945
1110
1347
1645
1953
2208
2379
2469
2484
2428
2323
2226
2194
2242
2338
2431
2496
2534
2428
2323
2226
2194
2242
2338
2431
2496
2534
2555
2564
2561
2560
2593
2682
2836
3043
3280
2555
2564
2561
2560
2593
2682
2836
3043
3280
3506
3675
3747
3727
3668
3636
3665
3733
3805
3506
3675
3747
3727
3668
3636
3665
3733
3805
3881
3994
4143
4243
4189
3964
3682
3470
3342
3881
3994
4143
4243
4189
3964
3682
3470
3342
3236
3178
3337
3844
4575
5197
5478
5508
5536
3236
3178
3337
3844
4575
5197
5478
5508
5536
5623
5542
5040
4172
3284
2698
2458
2388
2333
5623
5542
5040
4172
3284
2698
2458
2388
2333
2293
2341
2486
2652
2738
2693
2531
2315
2116
2293
2341
2486
2652
2738
2693
2531
2315
2116
1975
1896
1860
1864
1909
1962
1972
1915
1831
1975
1896
1860
1864
1909
1962
1972
1915
1831
1788
1817
1888
1956
2008
2053
2090
2104
2089
1788
1817
1888
1956
2008
2053
2090
2104
2089
2063
2044
2023
1981
1921
1874
1868
1888
1894
2063
2044
2023
1981
1921
1874
1868
1888
1894
1869
1836
1827
1854
1903
1953
2000
2047
2095
1869
1836
1827
1854
1903
1953
2000
2047
2095
2142
2187
2231
2272
2304
2317
2306
2277
2258
2283
2370
2500
2628
2717
2768
2805
2848
2891
2283
2370
2500
2628
2717
2768
2805
2848
2891
2912
2884
2786
2611
2389
2188
2067
2027
2013
2912
2884
2786
2611
2389
2188
2067
2027
2013
1974
1928
1946
2072
2272
2464
2598
2689
2771
2856
2921
2947
2941
2923
2908
2888
2846
2767
1974
1928
1946
2072
2272
2464
2598
2689
2771
2856
2921
2947
2941
2923
2908
2888
2846
2767
2658
2552
2496
2528
2658
2866
3122
3406
3703
2658
2552
2496
2528
2658
2866
3122
3406
3703
3982
4171
4174
3920
3430
2826
2255
1793
1422
3982
4171
4174
3920
3430
2826
2255
1793
1422
1108
878
803
906
1110
1284
1343
1281
1137
1108
878
803
906
1110
1284
1343
1281
1137
941
723
529
409
378
413
486
600
766
941
723
529
409
378
413
486
600
766
974
1172
1302
1332
1280
1207
1187
1275
1472
974
1172
1302
1332
1280
1207
1187
1275
1472
1727
1979
2208
2446
2732
3056
3347
3509
3488
1727
1979
2208
2446
2732
3056
3347
3509
3488
3294
2977
2584
2136
1641
1125
643
265
60
3294
2977
2584
2136
1641
1125
643
265
60
85
343
757
1176
1467
1596
1622
1603
1508
85
343
757
1176
1467
1596
1622
1603
1508
1273
904
518
243
118
92
129
258
508
1273
904
518
243
118
92
129
258
508
826
1097
1251
1331
1427
1574
1721
1801
1804
826
1097
1251
1331
1427
1574
1721
1801
1804
1780
1782
1823
1873
1893
1870
1819
1762
1712
1780
1782
1823
1873
1893
1870
1819
1762
1712
1663
1610
1575
1627
1873
2391
3136
3884
4320
1663
1610
1575
1627
1873
2391
3136
3884
4320
4263
3822
3310
2974
2775
2471
1912
1224
707
4263
3822
3310
2974
2775
2471
1912
1224
707
559
718
942
1020
907
694
506
422
461
559
718
942
1020
907
694
506
422
461
619
881
1228
1612
1954
2176
2245
2190
2054
619
881
1228
1612
1954
2176
2245
2190
2054
1834
1491
1036
579
296
303
586
1038
1553
1834
1491
1036
579
296
303
586
1038
1553
2093
2638
3123
3426
3460
3251
2918
2579
2297
2093
2638
3123
3426
3460
3251
2918
2579
2297
2110
2076
2239
2552
2862
3013
2972
2823
2639
2110
2076
2239
2552
2862
3013
2972
2823
2639
2372
1899
1181
359
-309
-624
-562
-258
128
2372
1899
1181
359
-309
-624
-562
-258
128
512
886
1270
1648
1962
2140
2145
1997
1776
512
886
1270
1648
1962
2140
2145
1997
1776
1593
1538
1648
1894
2191
2433
2524
2444
2256
2067
1948
1894
1850
1777
1695
1644
1637
1656
1593
1538
1648
1894
2191
2433
2524
2444
2256
2067
1948
1894
1850
1777
1695
1644
1637
1656
1693
1761
1880
2050
2255
2463
2633
2707
2635
1693
1761
1880
2050
2255
2463
2633
2707
2635
2422
2140
1879
1673
1491
1302
1133
1047
1084
2422
2140
1879
1673
1491
1302
1133
1047
1084
1242
1517
1902
2339
2709
2895
2871
2717
2523
1242
1517
1902
2339
2709
2895
2871
2717
2523
2339
2201
2172
2318
2614
2938
3164
3273
3353
2339
2201
2172
2318
2614
2938
3164
3273
3353
3499
3708
3859
3795
3463
3012
2717
2756
3024
3499
3708
3859
3795
3463
3012
2717
2756
3024
3207
3082
2740
2482
2492
2671
2765
2645
2392
3207
3082
2740
2482
2492
2671
2765
2645
2392
2161
2016
1926
1859
1812
1758
1650
1489
1350
2161
2016
1926
1859
1812
1758
1650
1489
1350
1343
1500
1753
2003
2207
2360
2447
2415
2217
1343
1500
1753
2003
2207
2360
2447
2415
2217
1885
1535
1292
1233
1371
1692
2150
2646
3026
1885
1535
1292
1233
1371
1692
2150
2646
3026
3150
2980
2604
2153
1688
1174
585
18
-309
3150
2980
2604
2153
1688
1174
585
18
-309
-222
245
866
1399
1764
2039
2313
2574
2730
-222
245
866
1399
1764
2039
2313
2574
2730
2698
2450
2017
1491
1024
753
703
753
751
2698
2450
2017
1491
1024
753
703
753
751
672
630
741
990
1259
1454
1578
1684
1793
672
630
741
990
1259
1454
1578
1684
1793
1889
1956
2002
2034
2042
2029
2026
2067
2168
1889
1956
2002
2034
2042
2029
2026
2067
2168
2300
2421
2498
2516
2484
2438
2430
2501
2649
2300
2421
2498
2516
2484
2438
2430
2501
2649
2832
2992
3097
3154
3207
3296
3405
3460
3392
2832
2992
3097
3154
3207
3296
3405
3460
3392
3227
3084
3071
3152
3154
2908
2420
1866
1432
3227
3084
3071
3152
3154
2908
2420
1866
1432
1158
952
718
466
294
289
457
738
1055
1158
952
718
466
294
289
457
738
1055
1334
1524
1602
1590
1539
1495
1464
1416
1329
1334
1524
1602
1590
1539
1495
1464
1416
1329
1216
1125
1126
1265
1532
1840
2053
2075
1930
1216
1125
1126
1265
1532
1840
2053
2075
1930
1759
1729
1910
2223
2483
2519
2296
1932
1614
1759
1729
1910
2223
2483
2519
2296
1932
1614
1445
1368
1228
927
529
210
108
221
432
1445
1368
1228
927
529
210
108
221
432
602
656
596
485
414
448
576
722
807
821
824
884
1018
1192
1351
1447
1449
1363
821
824
884
1018
1192
1351
1447
1449
1363
1237
1153
1198
1440
1923
2631
3429
4052
4233
1237
1153
1198
1440
1923
2631
3429
4052
4233
3891
3201
2451
1798
1171
441
-355
-964
-1107
3891
3201
2451
1798
1171
441
-355
-964
-1107
-701
92
997
1781
2295
2475
2346
2017
1625
-701
92
997
1781
2295
2475
2346
2017
1625
1235
819
357
-58
-245
-85
366
916
1372
1235
819
357
-58
-245
-85
366
916
1372
1649
1767
1780
1725
1633
1547
1510
1537
1607
1649
1767
1780
1725
1633
1547
1510
1537
1607
1668
1670
1615
1564
1603
1776
2035
2277
2430
1668
1670
1615
1564
1603
1776
2035
2277
2430
2504
2569
2674
2796
2850
2743
2442
1990
1498
2504
2569
2674
2796
2850
2743
2442
1990
1498
1088
826
689
592
473
355
319
423
642
1088
826
689
592
473
355
319
423
642
889
1084
1205
1279
1343
1420
1514
1599
1638
889
1084
1205
1279
1343
1420
1514
1599
1638
1605
1513
1410
1337
1310
1308
1305
1287
1263
1274
1389
1655
2032
2398
2621
2661
2580
2464
1605
1513
1410
1337
1310
1308
1305
1287
1263
1274
1389
1655
2032
2398
2621
2661
2580
2464
2341
2181
1963
1716
1496
1339
1232
1141
1039
2341
2181
1963
1716
1496
1339
1232
1141
1039
924
807
697
596
511
462
487
622
872
924
807
697
596
511
462
487
622
872
1196
1527
1809
2037
2245
2432
2552
2549
2447
1196
1527
1809
2037
2245
2432
2552
2549
2447
2363
2407
2604
2928
3388
4018
4748
5357
5622
2363
2407
2604
2928
3388
4018
4748
5357
5622
5519
5231
4920
4554
3986
3193
2362
1733
1413
5519
5231
4920
4554
3986
3193
2362
1733
1413
1354
1462
1647
1817
1899
1911
1963
2127
2326
1354
1462
1647
1817
1899
1911
1963
2127
2326
2393
2256
1998
1757
1570
1371
1110
805
491
2393
2256
1998
1757
1570
1371
1110
805
491
163
-184
-478
-593
-463
-161
167
429
634
163
-184
-478
-593
-463
-161
167
429
634
831
1028
1180
1252
1254
1223
1184
1162
1191
831
1028
1180
1252
1254
1223
1184
1162
1191
1301
1475
1636
1710
1682
1595
1508
1464
1501
1301
1475
1636
1710
1682
1595
1508
1464
1501
1669
1973
2322
2569
2639
2608
2618
2694
2685
1669
1973
2322
2569
2639
2608
2618
2694
2685
2413
1876
1275
834
614
512
413
314
297
2413
1876
1275
834
614
512
413
314
297
515
527
544
570
605
647
700
773
875
515
527
544
570
605
647
700
773
875
1001
1131
1250
1361
1476
1578
1627
1615
1596
1001
1131
1250
1361
1476
1578
1627
1615
1596
1641
1759
1902
2065
2335
2775
3280
3601
3583
1641
1759
1902
2065
2335
2775
3280
3601
3583
3327
3080
2951
2786
2372
1716
1066
663
535
3327
3080
2951
2786
2372
1716
1066
663
535
536
544
559
622
710
762
757
732
724
536
544
559
622
710
762
757
732
724
716
678
609
545
510
491
471
441
398
716
678
609
545
510
491
471
441
398
328
223
105
21
10
67
154
232
285
328
223
105
21
10
67
154
232
285
318
339
350
353
351
347
344
347
368
318
339
350
353
351
347
344
347
368
409
460
505
534
556
593
651
717
761
769
756
754
779
819
854
874
890
911
409
460
505
534
556
593
651
717
761
769
756
754
779
819
854
874
890
911
939
966
988
1011
1038
1072
1114
1162
1211
939
966
988
1011
1038
1072
1114
1162
1211
1247
1266
1275
1293
1331
1382
1427
1453
1462
1247
1266
1275
1293
1331
1382
1427
1453
1462
1465
1473
1485
1499
1520
1560
1616
1665
1686
1465
1473
1485
1499
1520
1560
1616
1665
1686
1685
1692
1726
1768
1782
1761
1738
1744
1767
1767
1732
1692
1682
1695
1695
1664
1618
1584
1685
1692
1726
1768
1782
1761
1738
1744
1767
1767
1732
1692
1682
1695
1695
1664
1618
1584
1563
1541
1507
1472
1444
1419
1382
1329
1266
1563
1541
1507
1472
1444
1419
1382
1329
1266
1201
1145
1103
1076
1052
1015
964
920
905
1201
1145
1103
1076
1052
1015
964
920
905
910
908
882
842
813
803
803
802
799
910
908
882
842
813
803
803
802
799
798
802
810
821
836
849
855
851
841
798
802
810
821
836
849
855
851
841
830
821
812
805
804
811
818
822
824
830
821
812
805
804
811
818
822
824
828
837
853
875
897
911
909
895
882
828
837
853
875
897
911
909
895
882
892
925
961
976
964
944
938
948
960
892
925
961
976
964
944
938
948
960
966
972
986
1006
1018
1017
1011
1013
1028
966
972
986
1006
1018
1017
1011
1013
1028
1048
1066
1075
1075
1065
1048
1033
1029
1036
1048
1066
1075
1075
1065
1048
1033
1029
1036
1049
1058
1056
1044
1025
1011
1009
1019
1033
1049
1058
1056
1044
1025
1011
1009
1019
1033
1041
1042
1036
1020
993
962
945
955
987
1041
1042
1036
1020
993
962
945
955
987
1020
1043
1062
1092
1138
1191
1231
1246
1238
1020
1043
1062
1092
1138
1191
1231
1246
1238
1217
1196
1178
1161
1139
1122
1128
1169
1231
1217
1196
1178
1161
1139
1122
1128
1169
1231
1283
1301
1298
1303
1329
1356
1358
1327
1278
1283
1301
1298
1303
1329
1356
1358
1327
1278
1226
1172
1117
1071
1043
1028
1009
977
938
1226
1172
1117
1071
1043
1028
1009
977
938
904
880
866
863
871
886
893
886
867
846
832
832
850
880
904
904
883
866
846
832
832
850
880
904
904
883
866
874
903
933
955
977
1009
1047
1089
1151
874
903
933
955
977
1009
1047
1089
1151
1258
1414
1592
1756
1893
2007
2083
2096
2052
1258
1414
1592
1756
1893
2007
2083
2096
2052
2011
2036
2124
2229
2363
2636
3116
3683
4066
2011
2036
2124
2229
2363
2636
3116
3683
4066
4099
3896
3718
3658
3521
3055
2278
1497
1029
4099
3896
3718
3658
3521
3055
2278
1497
1029
919
970
988
942
911
942
1001
1028
1000
921
794
625
440
290
219
229
290
355
919
970
988
942
911
942
1001
1028
1000
921
794
625
440
290
219
229
290
355
385
361
296
223
178
174
202
239
265
385
361
296
223
178
174
202
239
265
275
273
271
272
275
284
303
334
366
275
273
271
272
275
284
303
334
366
383
380
366
358
369
400
438
466
475
383
380
366
358
369
400
438
466
475
462
439
418
411
422
444
465
472
463
462
439
418
411
422
444
465
472
463
444
426
419
427
446
468
484
488
482
444
426
419
427
446
468
484
488
482
478
490
521
565
612
655
690
714
724
478
490
521
565
612
655
690
714
724
728
741
774
821
861
880
877
874
887
916
948
974
994
1012
1024
1022
1004
984
916
948
974
994
1012
1024
1022
1004
984
983
1005
1030
1036
1018
991
966
943
916
890
872
855
825
775
716
668
631
590
890
872
855
825
775
716
668
631
590
536
485
451
431
400
345
280
241
242
266
277
254
204
150
116
109
118
129
536
485
451
431
400
345
280
241
242
266
277
254
204
150
116
109
118
129
128
116
100
94
98
106
107
102
100
128
116
100
94
98
106
107
102
100
106
113
108
93
85
101
139
177
196
106
113
108
93
85
101
139
177
196
196
190
192
204
221
237
250
261
270
196
190
192
204
221
237
250
261
270
280
295
317
339
354
367
387
414
436
443
438
435
443
460
475
486
493
498
280
295
317
339
354
367
387
414
436
443
438
435
443
460
475
486
493
498
500
502
511
532
558
579
590
596
604
500
502
511
532
558
579
590
596
604
610
609
603
608
631
659
668
649
629
639
680
721
728
706
691
706
738
758
639
680
721
728
706
691
706
738
758
759
760
780
815
854
893
937
977
998
759
760
780
815
854
893
937
977
998
993
976
971
981
991
990
979
971
972
993
976
971
981
991
990
979
971
972
986
1014
1053
1091
1111
1111
1100
1091
1084
986
1014
1053
1091
1111
1111
1100
1091
1084
1071
1048
1017
985
946
897
840
786
742
1071
1048
1017
985
946
897
840
786
742
704
667
633
611
602
602
603
604
608
704
667
633
611
602
602
603
604
608
617
630
646
663
670
666
654
651
661
675
676
665
663
686
724
754
767
779
617
630
646
663
670
666
654
651
661
675
676
665
663
686
724
754
767
779
812
883
990
1126
1275
1416
1533
1635
1745
812
883
990
1126
1275
1416
1533
1635
1745
1853
1909
1883
1823
1822
1916
2058
2226
2504
1853
1909
1883
1823
1822
1916
2058
2226
2504
2998
3650
4196
4387
4240
4004
3863
3719
3325
2998
3650
4196
4387
4240
4004
3863
3719
3325
2606
1785
1177
902
841
825
806
835
930
1028
1061
1015
920
792
626
434
271
185
2606
1785
1177
902
841
825
806
835
930
1028
1061
1015
920
792
626
434
271
185
176
207
240
266
284
291
281
266
263
283
305
310
300
297
312
338
362
387
176
207
240
266
284
291
281
266
263
283
305
310
300
297
312
338
362
387
414
432
433
429
447
493
534
534
497
414
432
433
429
447
493
534
534
497
473
490
530
553
551
559
603
662
692
473
490
530
553
551
559
603
662
692
678
657
675
736
800
827
813
788
779
678
657
675
736
800
827
813
788
779
796
822
846
866
888
914
935
945
948
796
822
846
866
888
914
935
945
948
958
988
1034
1077
1100
1105
1106
1116
1138
958
988
1034
1077
1100
1105
1106
1116
1138
1168
1200
1231
1254
1260
1252
1241
1239
1243
1168
1200
1231
1254
1260
1252
1241
1239
1243
1238
1221
1199
1184
1174
1157
1128
1097
1078
1070
1056
1023
978
928
875
817
760
716
1238
1221
1199
1184
1174
1157
1128
1097
1078
1070
1056
1023
978
928
875
817
760
716
3
11
19
30
43
53
51
37
20
11
15
31
47
53
48
44
54
74
91
104
124
169
245
346
458
569
676
778
884
978
1025
1000
930
885
906
967
1045
1204
1549
2063
2540
2745
2664
2518
2515
2598
2510
2097
1493
992
769
764
804
782
706
636
600
587
564
497
374
218
72
-33
-90
-110
-103
-80
-62
-70
-100
-128
-134
-121
-104
-87
-61
-27
0
6
-2
-7
4
27
53
74
88
95
101
111
127
141
143
137
142
172
215
249
266
277
302
339
368
382
388
394
399
394
389
399
426
447
451
455
490
555
608
617
596
593
635
698
739
741
724
717
722
725
717
706
700
700
701
702
704
710
721
737
758
776
778
764
747
741
742
730
696
659
642
646
643
611
559
523
521
534
526
486
441
415
403
380
340
301
282
268
231
167
106
74
63
45
7
-35
-61
-68
-71
-75
-80
-86
-95
-107
-115
-115
-117
-133
-159
-175
-166
-139
-114
-101
-95
-88
-78
-72
-72
-72
-62
-43
-24
-18
-20
-20
-10
8
26
43
57
59
46
28
27
56
92
99
72
40
42
78
114
120
104
96
112
134
140
131
121
117
115
107
102
109
125
133
122
105
100
103
99
78
57
50
43
13
-43
-86
-77
-28
-4
-47
-136
-198
-181
-102
-23
16
21
22
37
63
85
93
78
51
27
17
24
30
25
21
36
67
90
88
68
50
44
43
41
46
62
84
94
90
86
91
97
87
65
52
64
88
98
82
63
72
110
143
144
115
85
81
103
133
158
176
190
204
226
258
290
302
293
283
293
316
323
303
281
288
323
357
373
384
407
431
429
399
374
376
391
381
330
265
219
194
159
100
36
3
5
5
-26
-78
-105
-79
-28
0
-10
-37
-47
-37
-26
-26
-29
-28
-27
-31
-40
-44
-40
-33
-28
-19
7
50
96
144
206
308
448
588
689
748
787
804
770
678
581
554
608
704
844
1113
1556
2044
2347
2362
2227
2158
2172
2061
1658
1060
547
309
292
331
340
350
395
446
455
420
365
289
169
4
-164
-284
-343
-353
-329
-287
-250
-247
-281
-319
-320
-277
-217
-172
-151
-144
-143
-149
-157
-157
-143
-121
-104
-88
-63
-27
1
6
-2
2
30
67
88
84
73
74
90
115
140
162
182
199
214
226
235
242
254
280
320
359
379
376
365
370
399
437
464
475
481
500
529
556
577
601
638
681
711
719
721
735
763
789
801
805
817
829
828
806
784
783
799
804
778
734
699
679
650
595
527
471
439
411
367
309
256
218
186
142
81
11
-54
-105
-146
-189
-243
-299
-333
-328
-298
-277
-291
-330
-363
-372
-365
-364
-376
-395
-415
-434
-447
-445
-421
-385
-360
-356
-366
-373
-369
-362
-361
-365
-365
-358
-347
-339
-339
-339
-332
-313
-284
-253
-230
-221
-222
-221
-207
-179
-153
-139
-136
-132
-122
-115
-115
-114
-100
-72
-52
-56
-76
-86
-74
-50
-36
-35
-31
-15
3
8
-1
-9
-6
3
5
2
7
21
36
42
41
44
54
65
66
56
38
20
7
1
6
19
36
47
43
24
6
9
31
48
35
1
-19
-2
35
56
49
37
51
86
112
104
68
33
23
35
48
47
36
29
33
44
46
34
20
22
38
48
30
-13
-52
-61
-40
-18
-23
-56
-91
-100
-75
-37
-13
-16
-30
-29
3
50
77
66
36
29
71
139
187
192
174
176
214
269
314
341
355
352
329
299
295
331
380
403
386
355
348
373
412
444
461
460
445
424
404
379
336
279
230
208
201
170
100
18
-29
-37
-38
-61
-97
-115
-101
-76
-67
-84
-107
-112
-89
-51
-28
-39
-78
-116
-125
-116
-125
-172
-232
-255
-208
-112
-8
92
219
403
625
815
919
955
970
976
942
863
800
818
911
1039
1239
1614
2178
2728
2989
2889
2655
2546
2552
2402
1900
1191
623
402
425
449
364
248
211
248
272
220
103
-45
-206
-378
-537
-637
-656
-609
-541
-491
-478
-498
-532
-562
-580
-578
-556
-521
-502
-526
-574
-587
-511
-366
-232
-175
-181
-177
-137
-114
-168
-277
-348
-322
-238
-181
-174
-163
-89
32
128
155
126
76
19
-51
-123
-161
-132
-50
49
135
203
265
327
382
419
429
408
370
336
323
328
337
348
370
412
474
541
605
661
712
765
824
878
909
911
903
896
891
877
869
900
970
1020
986
873
766
733
752
729
603
413
257
194
194
176
91
-34
-132
-160
-142
-138
-184
-254
-290
-270
-228
-212
-247
-316
-385
-432
-454
-462
-463
-459
-442
-406
-361
-321
-287
-248
-205
-178
-189
-230
-266
-276
-278
-309
-375
-439
-460
-434
-401
-406
-455
-518
-554
-540
-487
-426
-392
-401
-438
-461
-436
-358
-258
-171
-112
-72
-30
23
83
136
173
191
190
180
169
167
176
193
211
225
237
254
281
310
324
309
272
243
248
284
321
324
294
268
282
336
389
407
395
391
415
449
462
444
421
412
411
401
376
350
334
335
353
387
424
445
436
407
385
390
410
420
408
381
355
336
320
306
302
322
362
397
405
386
367
375
411
454
473
462
432
403
390
397
418
440
454
460
468
479
485
476
459
457
488
542
588
607
609
621
652
685
696
685
681
702
729
732
709
693
718
775
825
838
825
812
813
818
816
806
797
791
787
778
755
709
645
576
519
478
443
399
344
291
256
254
288
339
376
377
351
324
316
324
336
350
370
389
390
370
359
390
458
523
548
531
509
529
611
748
906
1050
1168
1285
1411
1511
1520
1442
1370
1403
1537
1684
1832
2103
2600
3214
3656
3737
3563
3389
3301
3118
2631
1882
1158
709
547
515
494
487
528
595
626
600
545
484
396
258
91
-40
-97
-89
-50
-4
38
60
41
-16
-71
-81
-41
12
42
47
45
44
35
18
16
43
90
126
136
135
142
163
188
214
242
269
285
289
291
307
333
348
340
329
348
398
443
445
414
390
408
456
498
510
499
484
475
479
507
557
609
639
645
649
672
713
760
811
873
937
991
1029
1065
1110
1147
1156
1138
1120
1123
1141
1152
1147
1138
1139
1149
1158
1166
1177
1184
1168
1111
1026
946
903
891
872
813
721
635
586
568
550
514
475
450
437
412
362
304
265
250
238
209
170
138
125
127
127
121
114
113
114
102
68
22
-5
6
40
61
50
26
23
43
53
31
-1
-1
39
79
83
59
48
69
103
116
105
92
88
86
77
66
70
94
126
152
170
182
187
182
171
162
169
192
217
227
216
190
171
171
190
216
228
217
191
167
161
182
217
240
234
203
173
156
143
120
89
72
92
137
176
183
159
129
120
136
158
157
123
72
35
30
56
96
137
169
183
172
144
120
119
136
149
146
138
150
195
252
281
265
226
203
215
243
249
218
171
148
166
216
272
313
330
330
329
347
386
425
440
427
400
371
336
282
216
160
129
115
93
53
8
-23
-30
-21
-10
2
15
22
12
-13
-27
-4
53
106
116
85
51
47
69
88
92
99
133
196
269
343
430
547
690
829
943
1021
1049
1015
936
864
850
899
990
1143
1430
1873
2355
2668
2708
2578
2465
2409
2253
1841
1228
657
327
229
224
223
250
341
447
481
420
321
240
164
50
-106
-250
-334
-356
-343
-311
-263
-208
-177
-186
-213
-210
-155
-70
0
31
36
36
37
30
17
11
25
55
84
98
95
85
81
96
132
171
190
183
166
164
181
198
202
207
237
290
339
354
343
334
346
376
406
428
440
438
424
413
427
474
532
571
582
585
606
649
696
727
748
776
815
847
852
836
825
830
842
845
845
859
886
899
878
843
825
829
830
804
768
743
729
698
644
586
550
530
497
433
350
269
204
161
137
123
102
64
12
-39
-82
-118
-149
-174
-189
-200
-209
-216
-213
-201
-186
-176
-168
-162
-160
-169
-189
-214
-235
-246
-245
-239
-239
-247
-255
-249
-222
-191
-177
-181
-185
-167
-136
-117
-128
-158
-172
-145
-81
-13
20
5
-37
-62
-44
7
55
76
76
79
98
130
164
197
224
238
229
206
187
180
178
173
170
181
202
207
177
124
86
91
128
162
169
162
168
195
226
241
241
248
269
293
305
299
286
278
278
290
314
336
332
291
238
215
241
289
314
298
270
268
297
323
312
263
211
198
230
277
299
285
261
263
308
374
429
455
453
435
413
394
382
372
353
324
288
249
202
141
74
25
8
11
5
-27
-73
-102
-92
-48
4
45
70
83
85
74
52
30
14
-1
-31
-81
-141
-192
-219
-211
-167
-97
-13
75
164
264
383
523
680
844
988
1064
1046
975
940
990
1082
1157
1254
1514
1993
2529
2837
2796
2583
2463
2483
2413
2018
1345
689
318
245
298
332
333
353
400
433
412
346
264
171
46
-114
-271
-367
-368
-297
-221
-193
-214
-245
-255
-245
-231
-215
-185
-140
-95
-74
-78
-92
-92
-73
-44
-22
-11
-2
22
51
60
41
24
48
120
199
245
256
268
301
343
366
371
380
405
432
440
433
431
445
467
481
486
494
511
539
565
581
590
603
630
672
717
740
722
666
612
605
655
723
754
731
696
708
777
849
869
838
803
795
790
752
682
625
612
623
607
547
481
457
472
474
427
355
305
292
273
207
98
-12
-88
-131
-163
-191
-210
-224
-247
-275
-290
-288
-291
-320
-364
-397
-417
-450
-507
-554
-547
-492
-450
-466
-513
-524
-479
-435
-450
-505
-528
-486
-428
-423
-469
-498
-464
-399
-367
-380
-394
-371
-334
-322
-342
-356
-341
-308
-286
-280
-275
-268
-272
-293
-306
-287
-241
-206
-210
-235
-241
-214
-183
-179
-193
-183
-140
-103
-118
-174
-208
-180
-118
-82
-89
-103
-89
-59
-49
-74
-101
-96
-62
-36
-45
-84
-117
-116
-83
-47
-41
-63
-78
-75
-75
-104
-142
-137
-69
13
45
23
2
28
83
116
116
109
118
119
89
48
43
99
180
234
241
231
238
263
287
300
306
304
278
223
159
115
85
33
-53
-132
-148
-97
-41
-45
-105
-151
-134
-67
-9
2
-25
-66
-99
-118
-116
-94
-64
-43
-35
-35
-35
-37
-51
-65
-52
4
81
136
152
170
257
441
678
879
1001
1065
1108
1126
1092
1031
1006
1053
1148
1290
1563
2045
2652
3120
3234
3057
2859
2796
2713
2318
1546
680
96
-71
12
108
123
110
134
190
235
250
225
141
-24
-250
-463
-585
-591
-516
-430
-384
-390
-425
-462
-491
-513
-521
-499
-453
-415
-419
-462
-504
-509
-479
-436
-392
-333
-260
-209
-214
-257
-270
-210
-104
-25
-14
-45
-59
-36
-3
8
2
13
59
113
132
99
37
-9
-13
16
61
89
83
49
20
40
119
220
297
337
363
388
393
364
332
346
413
490
530
532
536
565
604
636
672
722
764
758
703
641
612
613
621
627
638
640
598
510
425
398
413
398
309
189
110
77
28
-72
-169
-182
-115
-60
-100
-215
-308
-319
-283
-273
-309
-353
-364
-357
-374
-424
-468
-461
-405
-344
-317
-331
-359
-377
-387
-387
-371
-333
-291
-279
-317
-378
-410
-385
-320
-265
-247
-248
-232
-194
-165
-173
-201
-204
-160
-94
-57
-75
-125
-162
-161
-123
-72
-30
-15
-28
-57
-78
-69
-34
1
18
21
24
37
50
56
59
75
114
166
207
211
168
103
57
53
90
133
152
145
124
95
59
31
43
108
185
204
142
48
11
63
166
253
302
336
377
403
381
318
269
283
349
410
414
369
337
358
427
501
546
565
570
555
509
434
359
320
325
349
353
318
244
153
72
26
15
12
-10
-55
-104
-132
-134
-119
-94
-66
-45
-41
-54
-64
-65
-66
-78
-92
-83
-42
5
16
-17
-67
-87
-52
28
126
219
306
396
496
607
734
880
1022
1101
1068
950
852
877
1031
1263
1576
2040
2644
3205
3493
3454
3272
3141
3027
2710
2069
1262
587
212
75
39
50
129
266
382
403
322
195
71
-46
-169
-298
-408
-479
-513
-524
-523
-504
-455
-396
-370
-407
-494
-576
-598
-553
-488
-453
-471
-528
-580
-602
-615
-660
-729
-752
-677
-541
-451
-465
-515
-485
-345
-183
-99
-97
-112
-113
-137
-208
-274
-252
-132
6
78
74
55
71
123
184
239
284
317
334
335
334
345
375
425
486
539
556
526
476
449
476
544
619
675
714
744
757
735
681
634
636
686
731
713
627
529
482
502
551
584
582
553
496
415
327
267
256
283
307
297
241
151
50
-32
-73
-79
-78
-98
-144
-212
-293
-375
-425
-407
-330
-259
-262
-343
-441
-486
-467
-421
-382
-352
-328
-321
-347
-396
-434
-429
-383
-323
-283
-284
-320
-369
-401
-397
-359
-303
-250
-221
-230
-272
-311
-309
-252
-166
-98
-70
-73
-86
-102
-121
-129
-102
-41
21
45
22
-20
-49
-58
-57
-49
-28
-3
-10
-69
-153
-193
-143
-22
92
136
101
35
0
18
76
137
179
202
222
247
268
273
266
271
305
364
418
441
429
405
397
418
463
511
546
554
528
475
417
392
424
502
585
629
624
595
577
580
593
598
592
579
551
494
408
319
269
273
297
293
242
175
129
108
92
72
65
89
126
139
107
52
19
30
74
122
152
157
140
114
97
100
127
173
229
282
315
320
321
368
497
694
895
1041
1123
1182
1244
1284
1265
1197
1149
1184
1299
1463
1705
2100
2646
3189
3517
3558
3436
3298
3119
2742
2101
1350
744
413
295
259
246
273
341
413
462
490
497
447
305
88
-127
-272
-331
-324
-273
-208
-170
-194
-270
-340
-343
-273
-180
-120
-111
-127
-138
-143
-155
-171
-162
-104
-14
53
56
6
-45
-45
15
103
172
192
69
126
181
186
138
91
93
136
169
158
129
134
187
255
287
266
210
144
77
8
-59
-117
-161
-198
-234
-262
-258
-211
-134
-58
-11
11
30
54
67
52
19
5
32
86
130
147
154
182
242
314
371
393
379
348
330
341
362
357
310
241
185
153
123
67
-13
-85
-127
-139
-133
-118
-92
-57
-24
-5
2
1
-8
-23
-35
-24
19
78
125
149
163
192
235
260
236
174
120
111
155
238
348
486
641
778
866
916
959
987
951
806
564
282
34
-83
59
538
1262
1966
2423
2650
2862
3187
3463
3381
2828
2027
1326
911
718
604
499
414
362
327
292
246
173
67
-56
-182
-329
-528
-768
-975
-1090
-1137
-1187
-1258
-1316
-1363
-1491
-1787
-2199
-2524
-2581
-2353
-1975
-1572
-1146
-602
112
913
1616
2073
2258
2246
2118
1897
1594
1271
1028
921
900
878
839
850
965
1126
1199
1100
882
683
612
693
883
1109
1298
1380
1323
1167
1002
911
911
965
1029
1085
1133
1163
1155
1104
1035
983
966
965
927
800
568
277
5
-195
-317
-381
-377
-277
-67
217
527
855
1219
1603
1935
2133
2201
2219
2257
2297
2256
2080
1813
1550
1352
1217
1113
1020
942
881
826
769
727
714
708
654
516
319
134
16
-29
-41
-50
-53
-34
2
33
35
4
-40
-63
-38
39
137
207
223
207
203
223
237
212
156
121
145
220
302
355
359
316
235
132
16
-106
-230
-335
-384
-345
-228
-75
60
151
200
223
228
211
160
74
-23
-78
-47
60
191
291
345
372
383
356
268
134
4
-70
-70
-2
119
284
464
612
689
692
647
575
472
329
157
2
-97
-130
-118
-79
-14
78
178
259
307
327
338
348
359
372
391
419
438
425
375
310
253
202
132
39
-31
-21
85
232
346
403
435
471
496
466
363
228
116
46
4
-23
-25
12
79
142
168
150
103
43
-20
-73
-94
-60
39
187
358
533
712
889
1018
1037
938
804
748
815
953
1117
1356
1740
2219
2595
2702
2583
2433
2363
2263
1956
1433
905
591
519
549
556
542
563
615
635
585
497
423
364
275
129
-31
-125
-108
-16
68
89
55
14
-2
-4
-10
-12
8
43
56
29
-2
18
103
206
263
257
221
190
165
123
55
-13
-51
-51
-33
-8
36
110
195
249
250
223
204
206
218
241
293
379
465
516
535
560
604
631
595
503
419
406
471
579
687
767
807
808
785
758
717
623
459
274
147
118
148
168
163
184
276
417
523
539
479
406
361
338
313
285
267
268
281
294
295
273
221
145
71
25
-4
-48
-119
-184
-204
-162
-93
-50
-61
-116
-171
-191
-179
-187
-253
-368
-482
-545
-555
-553
-577
-622
-658
-658
-628
-596
-580
-574
-556
-528
-527
-609
-776
-946
-1004
-903
-702
-506
-360
-226
-58
125
248
267
206
112
0
-141
-281
-348
-306
-218
-199
-288
-406
-446
-394
-345
-383
-485
-556
-540
-467
-398
-350
-300
-230
-163
-126
-121
-120
-84
11
165
361
568
738
819
772
614
426
307
278
266
180
26
-78
-30
154
340
411
360
268
215
214
239
259
257
234
201
187
215
283
359
404
401
354
279
191
111
57
24
-18
-98
-219
-342
-425
-452
-443
-431
-426
-419
-405
-390
-385
-394
-405
-405
-389
-359
-324
-290
-253
-204
-145
-99
-86
-106
-132
-137
-112
-70
-22
35
110
196
276
343
400
456
512
574
665
810
1025
1326
1738
2261
2801
3190
3314
3233
3105
2990
2749
2215
1438
708
291
176
141
25
-115
-133
12
205
314
293
179
8
-178
-332
-406
-415
-430
-397
-594
-631
-578
-491
-456
-496
-548
-546
-493
-456
-482
-543
-580
-588
-617
-688
-746
-714
-598
-486
-441
-435
-403
-333
-279
-285
-328
-363
-384
-416
-465
-504
-516
-520
-546
-592
-616
-597
-549
-498
-450
-378
-256
-97
51
145
187
213
242
242
170
37
-76
-100
-48
2
15
41
143
304
437
489
480
448
380
251
102
25
61
140
168
146
167
286
441
514
457
331
214
124
32
-67
-133
-112
-3
126
192
173
136
157
231
249
108
-161
-392
-440
-331
-227
-245
-334
-346
-222
-68
-50
-209
-427
-555
-557
-528
-567
-694
-872
-1084
-1331
-1555
-1633
-1506
-1286
-1154
-1156
-1138
-911
-499
-140
-46
-200
-383
-408
-300
-210
-234
-316
-333
-233
-103
-79
-196
-366
-454
-425
-376
-436
-624
-818
-867
-739
-564
-517
-646
-817
-832
-632
-354
-186
-166
-164
-48
152
282
244
95
-48
-126
-166
-193
-180
-103
-8
40
34
29
68
127
144
100
37
19
62
124
155
133
83
43
30
28
17
-10
-42
-60
-49
-6
57
109
119
89
62
84
156
217
206
118
13
-51
-65
-62
-70
-86
-88
-69
-49
-48
-68
-97
-127
-166
-230
-330
-454
-570
-648
-672
-645
-590
-525
-457
-387
-313
-246
-195
-165
-146
-127
-110
-96
-70
-6
115
275
427
528
577
618
679
749
802
851
949
1125
1356
1626
1993
2539
3219
3816
4111
4099
3978
3902
3786
3411
2702
1846
1116
636
347
143
-12
-114
-170
-191
-165
-104
-75
-167
-382
-615
-763
-826
-880
-957
-1017
-1019
-981
-953
-948
-934
-893
-841
-800
-762
-706
-636
-582
-571
-592
-614
-615
-597
-572
-547
-525
-503
-475
-435
-383
-326
-285
-274
-294
-335
-379
-417
-439
-441
-421
-382
-323
-239
-119
43
230
399
504
536
527
527
554
577
553
471
370
313
331
403
477
520
540
570
623
680
713
710
676
627
578
551
558
590
614
603
561
521
508
522
550
576
596
601
592
583
590
607
604
551
460
379
349
358
363
335
292
280
320
384
410
350
211
51
-77
-169
-269
-410
-563
-660
-650
-547
-405
-272
-172
-96
-33
24
73
94
52
-52
-169
-233
-218
-153
-79
-9
85
234
429
615
726
735
675
607
582
617
710
850
1014
1144
1177
1095
943
774
583
313
-67
-525
-977
-1340
-1571
-1669
-1683
-1690
-1726
-1717
-1555
-1223
-849
-588
-463
-365
-199
-13
94
96
74
84
97
58
3
45
255
559
808
910
907
918
1008
1127
1167
1083
934
802
678
441
-13
-643
-1265
-1721
-2007
-2226
-2432
-2536
-2401
-2011
-1511
-1096
-852
-734
-668
-644
-687
-797
-929
-1058
-1195
-1350
-1471
-1480
-1363
-1218
-1160
-1200
-1238
-1175
-1004
-819
-718
-712
-743
-778
-849
-999
-1196
-1334
-1322
-1161
-905
-536
74
1038
2273
3476
4303
4576
4331
3705
2802
1648
277
-1192
-2545
-3529
-3945
-3707
-2868
-1603
-183
1090
1989
2446
2540
2368
1938
1206
214
-824
-1611
-1975
-1959
-1728
-1426
-1125
-856
-652
-536
-500
-508
-527
-546
-578
-648
-752
-859
-918
-890
-781
-639
-522
-463
-450
-435
-366
-219
-25
145
248
327
496
834
1269
1590
1602
1260
696
101
-412
-852
-1280
-1688
-1954
-1907
-1463
-717
84
674
908
808
502
130
-221
-534
-830
-1107
-1294
-1280
-1010
-551
-42
424
834
1171
1320
1150
687
173
-116
-114
-23
-68
-220
-212
181
874
1495
1694
1428
978
682
664
758
692
340
-178
-596
-710
-548
-349
-363
-633
-977
-1179
-1207
-1210
-1299
-1402
-1341
-1045
-648
-348
-212
-155
-78
3
-12
-180
-435
-617
-597
-399
-186
-140
-309
-561
-693
-597
-335
-66
93
135
125
119
105
19
-196
-523
-867
-1126
-1271
-1347
-1401
-1431
-1392
-1274
-1114
-954
-796
-638
-512
-476
-548
-670
-755
-766
-734
-703
-671
-612
-525
-451
-423
-419
-380
-281
-164
-92
-69
-38
42
140
187
163
113
90
88
52
-36
-119
-135
-87
-39
-36
-43
0
91
171
195
179
170
179
184
167
137
113
91
56
6
-46
-87
-115
-123
-100
-39
45
129
202
271
336
371
352
285
200
122
48
-30
-92
-97
-38
36
70
54
33
40
62
73
90
159
273
352
322
204
96
44
-14
-175
-445
-718
-884
-918
-870
-781
-659
-516
-396
-326
-282
-211
-107
-25
-17
-48
-17
140
369
543
581
507
408
337
291
254
234
266
396
672
1118
1673
2189
2517
2641
2679
2725
2714
2485
1991
1389
911
663
574
536
515
527
551
528
431
294
160
19
-168
-398
-605
-726
-753
-730
-691
-636
-563
-497
-477
-515
-573
-599
-578
-540
-515
-498
-459
-399
-348
-331
-332
-320
-290
-271
-286
-318
-335
-328
-320
-328
-337
-328
-299
-275
-266
-250
-195
-94
23
114
157
159
139
115
96
85
73
43
-19
-105
-182
-212
-181
-101
1
112
235
375
521
654
753
815
849
858
837
776
690
617
591
604
630
653
684
740
805
843
837
808
780
749
697
621
543
486
446
416
399
412
453
494
504
476
437
419
424
414
320
82
-302
-759
-1169
-1431
-1510
-1436
-1256
-987
-621
-164
335
785
1098
1232
1197
1025
758
460
209
64
19
17
8
3
50
166
308
418
482
525
566
588
571
524
477
441
371
213
-41
-315
-497
-521
-413
-264
-153
-96
-55
-4
39
33
-36
-123
-176
-177
-156
-130
-77
29
170
274
284
221
185
279
520
835
1120
1312
1412
1459
1479
1466
1386
1195
885
511
166
-74
-208
-296
-378
-436
-423
-331
-211
-123
-80
-43
18
92
139
128
61
-27
-92
-116
-129
-171
-262
-374
-443
-426
-334
-229
-176
-197
-266
-321
-314
-247
-173
-147
-170
-183
-131
-30
54
71
45
31
52
83
93
88
97
127
152
159
176
246
376
529
672
801
923
1028
1090
1091
1061
1059
1111
1182
1219
1249
1393
1749
2250
2665
2782
2608
2352
2185
2055
1775
1269
681
220
-34
-151
-192
-127
66
299
431
422
380
419
513
523
360
95
-116
-178
-121
-38
0
-7
-14
16
74
124
136
122
111
106
77
3
-95
-164
-167
-122
-80
-85
-135
-203
-252
-260
-228
-180
-144
-149
-224
-374
-566
-730
-798
-757
-657
-547
-423
-237
40
371
668
854
913
887
835
778
682
527
367
299
357
455
490
478
541
731
912
881
617
327
219
280
323
230
77
14
84
199
277
321
374
436
479
506
548
604
634
608
558
535
537
499
362
145
-75
-231
-312
-337
-324
-274
-174
-25
149
298
368
327
188
9
-147
-231
-241
-217
-230
-322
-458
-546
-531
-454
-429
-530
-721
-902
-1005
-1052
-1119
-1269
-1493
-1712
-1822
-1759
-1548
-1277
-1012
-733
-382
39
430
667
709
619
488
346
183
5
-148
-242
-287
-317
-341
-346
-338
-369
-491
-678
-841
-898
-854
-777
-720
-664
-562
-423
-320
-331
-438
-528
-499
-347
-168
-48
26
140
347
586
722
670
463
200
-42
-246
-410
-511
-529
-471
-358
-185
66
353
564
608
506
366
268
190
83
-37
-103
-86
-42
-36
-55
-45
-8
-26
-165
-361
-461
-391
-242
-182
-273
-412
-452
-359
-230
-185
-242
-328
-364
-336
-278
-214
-153
-114
-117
-163
-217
-240
-221
-180
-134
-85
-36
26
133
323
582
825
981
1056
1104
1133
1082
945
861
1008
1418
1944
2425
2842
3283
3779
4240
4524
4546
4291
3792
3144
2486
1927
1465
1029
609
312
258
436
694
844
775
481
47
-380
-687
-866
-1016
-1216
-1398
-1398
-1138
-726
-358
-144
-42
41
130
177
151
78
12
-25
-48
-53
-30
26
105
177
232
271
285
250
201
256
526
980
1401
1577
1550
1600
1924
2358
2485
2089
1432
988
941
1041
950
652
418
447
663
881
1044
1186
1273
1192
927
657
583
719
873
873
781
843
1228
1840
2379
2598
2529
2429
2482
2566
2408
1941
1440
1228
1313
1414
1345
1236
1332
1654
1968
2085
2047
1994
1942
1773
1432
1045
796
728
732
717
710
784
934
1066
1113
1121
1171
1210
1058
629
99
-235
-293
-314
-566
-991
-1248
-1097
-677
-336
-249
-285
-233
-72
40
-9
-154
-265
-300
-323
-378
-417
-382
-288
-213
-209
-248
-267
-252
-248
-293
-356
-374
-334
-289
-304
-385
-463
-473
-413
-343
-324
-372
-447
-495
-497
-482
-488
-524
-562
-567
-540
-510
-495
-488
-482
-477
-491
-529
-576
-611
-617
-600
-590
-621
-699
-776
-788
-718
-620
-569
-590
-633
-632
-576
-511
-491
-533
-602
-654
-659
-612
-524
-417
-312
-230
-181
-165
-185
-243
-349
-500
-671
-830
-949
-1018
-1035
-1012
-966
-919
-889
-886
-906
-940
-981
-1032
-1111
-1245
-1440
-1660
-1829
-1860
-1716
-1429
-1075
-720
-388
-61
283
620
870
947
822
567
324
203
221
310
393
451
518
643
825
986
1035
951
823
782
884
1088
1355
1731
2270
2887
3357
3522
3444
3322
3236
3055
2612
1941
1263
774
486
305
193
183
268
340
298
150
-4
-108
-210
-390
-647
-883
-1002
-976
-849
-693
-567
-498
-487
-513
-539
-524
-438
-304
-161
-16
188
507
920
1321
1585
1658
1565
1371
1156
1013
1009
1125
1255
1298
1256
1206
1164
1012
594
-106
-911
-1589
-2035
-2299
-2461
-2507
-2350
-1961
-1435
-935
-560
-296
-117
-102
-381
-982
-1726
-2331
-2616
-2602
-2404
-2038
-1399
-404
871
2196
3322
4089
4462
4479
4199
3670
2918
1987
976
53
-621
-992
-1152
-1233
-1296
-1301
-1211
-1079
-1019
-1071
-1144
-1112
-953
-758
-603
-470
-308
-145
-86
-182
-349
-447
-440
-416
-467
-578
-674
-728
-785
-883
-988
-1037
-1013
-958
-911
-882
-871
-903
-1000
-1155
-1349
-1582
-1859
-2139
-2326
-2350
-2253
-2144
-2093
-2074
-2024
-1929
-1827
-1734
-1606
-1397
-1123
-845
-595
-347
-75
184
341
338
195
-22
-256
-468
-628
-707
-699
-638
-561
-494
-447
-442
-503
-629
-784
-923
-1023
-1077
-1070
-992
-862
-720
-593
-483
-384
-317
-305
-349
-413
-462
-483
-485
-474
-451
-438
-459
-511
-556
-556
-519
-478
-448
-405
-327
-225
-124
-30
72
181
269
307
305
302
320
337
307
215
98
13
-16
-17
-90
-109
-203
-294
-376
-451
-500
-484
-399
-293
-219
-170
-88
56
205
275
262
251
331
496
653
737
786
896
1112
1378
1588
1698
1761
1865
2035
2202
2283
2277
2281
2389
2610
2879
3154
3460
3825
4183
4402
4400
4242
4066
3923
3714
3314
2731
2126
1669
1393
1197
994
791
651
595
568
510
414
320
251
187
95
-30
-145
-201
-173
-86
-1
31
8
-30
-43
-28
-17
-31
-57
-62
-30
30
99
168
234
295
342
360
334
257
147
40
-33
-71
-94
-112
-110
-77
-37
-42
-120
-250
-373
-448
-470
-456
-412
-329
-198
-29
144
277
342
339
293
227
156
84
12
-47
-82
-91
-75
-32
41
131
202
220
200
199
259
340
348
227
31
-118
-146
-88
-30
-5
39
164
369
591
766
875
936
965
957
901
801
693
613
563
509
424
336
308
354
402
362
228
94
40
44
13
-83
-171
-170
-94
-33
-40
-80
-93
-79
-95
-173
-278
-360
-414
-484
-588
-678
-681
-582
-447
-359
-342
-354
-341
-301
-278
-301
-338
-334
-278
-217
-196
-197
-147
-12
151
245
237
200
232
343
438
420
293
150
66
25
-38
-147
-247
-273
-221
-151
-118
-117
-109
-68
-8
40
56
32
-33
-135
-256
-367
-446
-487
-494
-478
-441
-385
-299
-167
13
207
357
424
419
390
378
398
443
507
578
631
649
652
696
816
972
1072
1053
949
856
839
871
871
787
648
528
474
477
494
499
504
529
578
630
666
684
693
700
700
690
674
672
711
803
934
1070
1178
1258
1339
1432
1505
1523
1503
1513
1594
1714
1833
2006
2338
2831
3304
3533
3476
3316
3232
3179
2950
2436
1777
1234
934
801
696
576
497
494
528
540
509
452
371
244
62
-135
-284
-355
-367
-355
-340
-312
-262
-194
-124
-54
26
113
178
178
108
14
-33
4
101
191
223
203
180
197
248
286
274
223
175
151
131
79
-14
-127
-240
-353
-460
-532
-519
-399
-202
24
258
509
769
992
1116
1106
981
786
565
361
216
167
231
386
572
747
912
1079
1226
1288
1207
999
745
526
387
341
383
453
411
103
-486
-1171
-1673
-1827
-1672
-1345
-925
-377
362
1277
2239
3057
3549
3620
3300
2741
2147
1674
1369
1190
1071
992
968
997
1040
1013
845
535
144
-246
-564
-754
-784
-659
-438
-214
-66
-18
-41
-92
-143
-174
-158
-70
78
210
238
145
10
-72
-89
-106
-169
-232
-211
-90
44
110
116
114
108
47
-60
-77
160
660
1236
1672
1906
2039
2175
2293
2287
2082
1695
1193
642
112
-311
-565
-680
-757
-871
-999
-1049
-970
-799
-623
-496
-414
-343
-251
-133
-10
75
76
-12
-143
-268
-369
-452
-529
-586
-600
-583
-601
-719
-921
-1099
-1145
-1080
-1062
-1209
-1421
-1454
-1211
-919
-922
-1284
-1656
-1627
-1172
-672
-494
-613
-696
-512
-157
104
132
-4
-182
-353
-513
-626
-641
-577
-518
-514
-523
-478
-373
-270
-224
-223
-208
-136
-17
122
269
422
584
735
848
900
908
917
961
1059
1246
1595
2125
2708
3111
3184
3016
2834
2742
2602
2221
1604
979
568
398
337
276
201
129
46
-64
-172
-235
-263
-313
-411
-505
-523
-440
-282
-90
100
236
272
219
145
114
107
61
-45
-164
-241
-283
-327
-376
-372
-280
-154
-101
-161
-254
-258
-131
48
158
148
70
25
71
175
251
239
160
86
83
147
224
273
288
285
265
226
181
148
129
118
122
166
264
380
460
494
523
564
563
448
232
33
-32
46
185
317
452
636
872
1109
1288
1377
1375
1295
1178
1096
1095
1144
1166
1121
1069
1093
1181
1222
1127
926
731
616
559
516
489
494
489
402
252
181
293
487
519
269
-106
-336
-328
-238
-255
-382
-486
-504
-508
-574
-651
-652
-601
-625
-767
-903
-874
-672
-441
-298
-223
-131
-7
78
74
34
42
96
106
12
-151
-284
-327
-295
-250
-241
-277
-339
-392
-405
-360
-266
-161
-90
-82
-129
-186
-210
-184
-131
-103
-121
-159
-153
-68
51
109
46
-102
-231
-264
-212
-150
-154
-232
-332
-375
-313
-184
-97
-131
-237
-283
-215
-137
-196
-377
-507
-478
-411
-517
-811
-1033
-939
-576
-231
-105
-104
-16
204
376
326
104
-80
-100
-40
-69
-199
-274
-156
86
234
178
46
33
144
185
33
-177
-213
-80
-47
-304
-677
-775
-432
81
356
291
162
289
669
1007
1059
881
739
828
1128
1520
1949
2447
2995
3457
3695
3706
3602
3437
3129
2574
1807
1029
456
171
99
111
115
103
127
202
249
146
-132
-430
-546
-473
-424
-584
-871
-1005
-836
-517
-316
-330
-411
-369
-152
166
504
837
1136
1329
1330
1120
784
451
182
-72
-431
-942
-1481
-1828
-1837
-1546
-1154
-868
-768
-791
-820
-775
-675
-611
-630
-694
-726
-704
-656
-568
-347
56
519
813
834
735
766
1000
1252
1294
1079
772
565
522
576
621
613
591
633
765
941
1107
1273
1491
1739
1916
1943
1864
1755
1570
1192
644
189
120
452
896
1170
1253
1308
1410
1422
1170
644
1
-589
-1032
-1294
-1336
-1160
-833
-463
-136
120
308
413
401
259
28
-201
-353
-408
-378
-266
-71
150
251
120
-182
-446
-502
-392
-287
-274
-271
-152
67
248
290
221
128
54
-12
-71
-111
-151
-235
-361
-450
-426
-312
-198
-122
-31
129
296
326
168
-55
-163
-111
-36
-108
-340
-556
-567
-349
-51
166
273
355
479
616
715
773
807
771
561
154
-306
-603
-651
-558
-493
-494
-456
-262
88
486
795
926
855
629
358
149
35
-33
-126
-244
-315
-267
-112
67
161
130
17
-101
-189
-278
-390
-491
-518
-465
-399
-382
-404
-430
-495
-682
-990
-1273
-1379
-1337
-1316
-1376
-1331
-955
-283
349
622
550
446
558
813
929
742
359
40
-53
42
186
288
356
406
379
165
-251
-693
-931
-932
-936
-1206
-1675
-1916
-1536
-590
464
1219
1682
2149
2790
3458
3895
4033
3999
3878
3606
3115
2508
1988
1648
1366
970
447
-59
-418
-635
-769
-819
-723
-438
-35
350
618
763
823
800
648
338
-81
-486
-766
-861
-756
-458
-13
483
899
1152
1229
1144
879
405
-230
-876
-1370
-1644
-1742
-1729
-1581
-1203
-543
311
1135
1700
1944
1980
1952
1883
1688
1320
864
483
270
220
350
743
1424
2256
3003
3526
3872
4119
4194
3906
3158
2092
976
1
-803
-1467
-1959
-2194
-2133
-1842
-1451
-1077
-780
-572
-423
-274
-67
190
429
598
732
917
1195
1485
1640
1594
1421
1244
1113
995
857
732
683
713
745
705
603
513
472
444
380
307
320
447
544
362
-236
-1117
-1951
-2465
-2621
-2556
-2362
-1975
-1269
-254
865
1805
2391
2599
2486
2111
1543
904
350
-22
-220
-307
-314
-222
-24
229
437
520
456
280
61
-117
-177
-99
70
240
341
354
301
215
131
81
77
111
154
175
156
101
41
15
42
95
129
131
137
183
247
265
209
145
182
365
615
796
833
769
699
664
609
451
190
-77
-239
-282
-287
-329
-398
-426
-390
-341
-347
-416
-493
-527
-520
-507
-504
-506
-503
-497
-496
-501
-503
-476
-395
-255
-94
28
86
123
212
362
493
514
430
343
364
503
678
810
877
900
906
911
935
993
1085
1217
1431
1762
2165
2495
2624
2561
2433
2327
2180
1878
1424
970
658
488
356
212
110
105
150
132
-5
-218
-442
-667
-910
-1148
-1308
-1330
-1217
-1018
-772
-494
-206
60
268
401
460
451
386
282
154
18
-108
-202
-255
-274
-283
-292
-296
-279
-247
-228
-245
-294
-356
-410
-433
-416
-380
-379
-464
-606
-684
-600
-389
-225
-271
-513
-778
-893
-835
-706
-591
-464
-239
123
564
987
1309
1489
1516
1416
1253
1100
991
913
854
839
907
1036
1150
1192
1185
1182
1186
1134
970
727
500
349
229
36
-304
-758
-1198
-1474
-1496
-1274
-894
-439
70
642
1232
1717
1954
1890
1598
1208
825
496
229
25
-114
-188
-188
-115
6
115
141
60
-85
-219
-295
-312
-300
-265
-204
-129
-110
-241
-565
-1027
-1507
-1883
-2084
-2079
-1868
-1485
-1015
-550
-140
232
585
867
964
818
496
152
-81
-175
-177
-138
-66
44
173
295
394
476
535
544
472
335
195
136
195
336
458
467
352
202
132
179
264
287
235
189
209
252
221
91
-50
-107
-84
-60
-73
-77
-17
81
134
102
38
25
91
193
271
295
258
161
24
-108
-203
-272
-369
-523
-686
-766
-706
-537
-358
-237
-178
-143
-121
-135
-205
-311
-408
-477
-527
-569
-584
-543
-440
-304
-169
-48
59
156
247
350
477
625
767
858
884
880
908
1002
1134
1270
1456
1797
2329
2910
3294
3360
3224
3095
3028
2875
2476
1881
1317
960
788
653
470
278
144
61
-41
-197
-374
-503
-559
-569
-580
-603
-616
-589
-517
-439
-410
-453
-541
-616
-638
-601
-528
-448
-376
-319
-286
-281
-302
-326
-330
-305
-260
-214
-177
-146
-116
-85
-56
-29
-7
8
12
5
-3
-8
-9
-8
-9
-26
-70
-132
-169
-128
7
195
364
468
516
546
584
617
612
546
418
254
103
16
17
82
165
236
303
391
497
590
644
668
691
728
760
761
735
708
700
708
713
699
664
617
572
546
549
575
593
573
515
461
452
488
523
509
442
366
331
344
361
326
215
68
-49
-88
-60
-20
-26
-88
-180
-254
-284
-274
-254
-261
-312
-388
-438
-417
-330
-236
-195
-213
-245
-240
-197
-160
-166
-203
-223
-189
-105
-9
61
100
135
194
275
335
324
233
106
7
-34
-55
-112
-213
-301
-310
-231
-111
0
89
170
249
312
352
371
369
342
292
233
178
128
83
61
77
109
108
61
21
52
145
220
217
173
165
214
261
240
156
71
32
27
7
-55
-137
-186
-177
-134
-104
-99
-77
0
100
134
67
-30
-44
50
152
146
22
-111
-150
-100
-60
-114
-247
-354
-339
-205
-44
65
131
233
415
627
767
799
786
803
858
913
958
1038
1176
1340
1512
1756
2145
2599
2864
2717
2193
1560
1049
650
209
-305
-710
-791
-517
-51
441
907
1345
1685
1815
1692
1393
1037
697
399
170
50
34
53
46
13
-19
-65
-204
-477
-808
-1050
-1111
-1024
-895
-795
-719
-636
-550
-497
-498
-526
-537
-508
-444
-379
-342
-337
-329
-283
-204
-150
-167
-239
-305
-319
-287
-234
-158
-52
69
161
204
233
299
397
464
454
389
333
318
322
313
300
315
366
421
446
448
473
551
644
677
626
557
559
649
755
793
749
687
673
718
787
845
876
889
902
931
976
1020
1044
1035
981
874
731
611
570
595
602
535
432
384
406
476
345
242
206
250
278
218
123
104
174
223
157
0
-148
-244
-325
-432
-532
-554
-481
-377
-311
-301
-309
-294
-247
-192
-174
-244
-408
-596
-682
-590
-383
-218
-203
-291
-336
-258
-133
-94
-177
-291
-333
-303
-279
-302
-318
-261
-136
-18
37
46
60
92
109
91
53
14
-33
-100
-165
-172
-93
25
94
82
39
49
133
221
236
174
110
114
176
214
165
52
-41
-57
-33
-43
-99
-138
-106
-36
-5
-41
-90
-95
-76
-100
-200
-331
-432
-475
-475
-441
-374
-293
-234
-206
-175
-100
18
127
166
114
8
-76
-77
-3
69
79
66
134
331
583
779
895
986
1082
1149
1167
1198
1308
1481
1671
1909
2283
2765
3134
3180
2954
2712
2595
2446
2027
1346
694
335
251
248
230
270
417
563
543
344
119
-1
-57
-188
-449
-737
-895
-864
-719
-578
-493
-449
-413
-381
-364
-360
-346
-322
-320
-350
-372
-328
-210
-82
-15
-24
-76
-142
-217
-279
-314
-356
-467
-646
-772
-714
-491
-284
-227
-232
-104
194
449
436
183
-60
-109
-37
-32
-148
-243
-156
104
388
570
625
589
500
395
321
288
242
120
-25
-29
239
709
1139
1323
1254
1097
994
939
823
580
269
20
-65
21
199
369
468
506
541
603
666
678
624
540
474
440
420
415
433
477
525
550
537
480
378
265
200
227
299
308
184
-12
-150
-168
-133
-154
-261
-386
-443
-412
-315
-172
-9
114
118
5
-133
-195
-187
-216
-347
-529
-644
-602
-408
-149
63
148
109
46
52
100
56
-144
-373
-434
-297
-149
-161
-267
-261
-76
117
124
-40
-186
-180
-64
58
148
217
252
196
61
-72
-149
-208
-321
-485
-611
-628
-551
-437
-318
-190
-54
67
158
234
322
419
486
491
451
417
410
405
368
319
326
416
514
500
346
163
92
147
196
104
-117
-320
-370
-260
-101
-3
1
-44
-77
-85
-98
-151
-238
-329
-401
-445
-430
-334
-163
24
157
207
210
224
290
434
639
805
805
635
482
574
907
1242
1412
1559
1966
2661
3303
3542
3391
3163
3048
2915
2521
1842
1107
546
215
44
-37
-65
-74
-88
-84
-37
41
96
86
-17
-228
-520
-794
-923
-873
-770
-767
-860
-899
-772
-556
-428
-448
-502
-447
-280
-143
-171
-354
-532
-539
-353
-118
-32
-162
-390
-537
-538
-485
-499
-595
-677
-650
-526
-393
-307
-247
-182
-135
-157
-242
-296
-216
-12
196
290
272
241
271
345
409
466
572
763
1006
1227
1370
1402
1313
1122
887
669
482
281
35
-197
-298
-204
10
208
347
494
703
912
1027
1085
1253
1634
2108
2427
2472
2341
2191
2040
1789
1393
934
512
150
-145
-323
-327
-202
-109
-168
-329
-449
-446
-363
-300
-294
-299
-259
-186
-160
-273
-557
-947
-1326
-1620
-1844
-2029
-2130
-2044
-1717
-1227
-712
-251
141
447
619
637
578
564
635
714
714
650
617
663
725
715
641
608
686
800
812
668
453
276
125
-105
-463
-868
-1190
-1376
-1458
-1448
-1297
-986
-594
-244
30
275
498
605
513
273
40
-97
-214
-415
-664
-820
-817
-738
-712
-767
-809
-755
-616
-455
-302
-157
-21
77
111
85
23
-53
-118
-142
-129
-127
-188
-308
-405
-406
-325
-279
-389
-667
-1001
-1234
-1287
-1208
-1107
-1044
-977
-824
-561
-249
17
190
292
362
415
452
489
556
686
871
1060
1192
1236
1201
1100
936
715
488
331
269
266
326
559
1096
1865
2553
2850
2748
2521
2397
2297
1969
1340
629
113
-134
-246
-344
-418
-412
-338
-261
-212
-174
-143
-149
-214
-320
-428
-530
-632
-728
-816
-912
-1037
-1173
-1271
-1295
-1251
-1149
-988
-783
-610
-546
-575
-582
-484
-340
-284
-361
-459
-423
-229
-2
123
118
56
9
-12
-31
-78
-176
-339
-532
-672
-683
-592
-523
-571
-697
-776
-754
-716
-779
-926
-1011
-912
-665
-405
-212
-34
217
524
773
875
864
839
859
885
866
819
821
902
984
956
798
618
545
589
642
612
543
561
710
884
931
814
648
561
549
502
347
149
37
64
157
212
198
172
188
221
222
190
177
212
253
243
193
175
223
280
270
197
144
165
211
186
67
-67
-134
-148
-191
-306
-445
-528
-536
-518
-520
-531
-515
-471
-454
-513
-640
-778
-875
-904
-855
-726
-526
-300
-96
77
250
447
631
729
705
606
513
462
429
392
375
418
506
572
558
480
406
383
397
406
390
362
330
285
207
102
-14
-125
-220
-279
-269
-175
-23
134
269
385
480
531
497
372
201
43
-61
-107
-102
-62
2
77
150
208
238
224
153
34
-98
-196
-230
-210
-182
-192
-247
-306
-324
-293
-252
-248
-275
-271
-181
-10
174
307
384
457
573
727
898
1078
1289
1546
1830
2101
2322
2465
2540
2620
2793
3064
3290
3294
3052
2755
2616
2632
2578
2249
1685
1115
728
534
430
339
257
197
158
143
155
181
176
101
-32
-184
-314
-406
-448
-427
-356
-281
-245
-256
-282
-286
-265
-245
-258
-306
-357
-370
-337
-293
-280
-303
-335
-345
-326
-285
-235
-183
-138
-100
-61
-15
22
30
17
28
87
160
189
164
145
183
252
276
224
147
120
148
173
163
152
194
291
388
443
473
515
579
628
636
617
607
623
651
673
690
717
755
794
829
867
914
954
967
952
931
928
940
945
927
891
855
826
792
749
709
698
719
744
742
721
730
797
892
940
893
767
619
483
352
209
60
-72
-161
-201
-195
-153
-92
-28
31
88
134
150
125
76
42
33
19
-32
-107
-147
-110
-24
36
23
-40
-81
-58
6
50
39
-9
-45
-36
14
80
129
138
99
39
2
16
55
66
31
-5
22
124
247
329
360
383
430
482
505
485
445
409
374
335
299
282
274
248
203
176
209
286
345
350
334
353
421
491
520
508
487
476
478
496
531
556
518
391
202
16
-119
-195
-222
-210
-175
-139
-103
-40
67
183
237
198
101
12
-41
-70
-84
-65
9
124
242
338
410
480
558
656
780
921
1042
1117
1164
1228
1324
1420
1478
1499
1511
1535
1599
1767
2106
2579
3013
3213
3147
2982
2884
2828
2620
2144
1510
962
658
550
483
359
201
80
35
44
53
36
1
-17
-6
14
8
-27
-52
-40
-23
-66
-193
-353
-466
-495
-466
-428
-411
-428
-486
-571
-634
-619
-530
-442
-433
-494
-520
-430
-245
-57
66
131
183
244
304
355
403
444
450
410
352
310
297
296
291
286
290
304
316
319
312
312
346
425
525
599
618
601
599
629
654
618
515
405
384
529
832
1175
1375
1328
1115
936
905
917
769
400
-23
-268
-255
-103
30
98
162
270
390
458
451
400
348
307
263
210
172
194
306
495
698
845
886
820
697
589
529
477
350
110
-183
-408
-492
-460
-404
-390
-419
-450
-451
-422
-391
-391
-423
-447
-408
-316
-246
-266
-345
-373
-287
-147
-72
-101
-152
-122
-3
118
156
109
34
-33
-95
-166
-229
-255
-234
-195
-167
-150
-116
-50
33
100
136
149
147
124
88
72
101
146
139
48
-66
-101
-30
74
109
60
9
28
108
177
182
141
105
107
126
120
63
-31
-125
-191
-225
-240
-248
-252
-250
-250
-257
-269
-269
-250
-225
-218
-240
-275
-294
-280
-250
-234
-247
-267
-266
-244
-234
-257
-286
-274
-197
-79
43
162
300
459
611
722
788
820
824
795
747
732
791
920
1093
1338
1735
2305
2916
3354
3504
3451
3363
3286
3098
2675
2065
1466
1046
808
651
519
450
484
571
597
509
362
269
287
363
395
330
229
213
351
569
705
639
407
172
74
89
106
72
47
82
120
84
41
181
560
942
1010
733
431
418
640
764
586
262
93
176
344
420
413
441
557
681
697
568
350
146
43
55
125
205
333
604
1042
1496
1774
1843
1830
1830
1749
1413
820
225
-95
-99
16
66
64
147
375
643
809
828
758
647
488
283
118
106
275
534
751
862
879
828
728
625
599
708
908
1060
1069
979
924
995
1134
1175
995
621
196
-100
-179
-95
6
13
-68
-121
-53
117
286
373
408
476
615
791
952
1071
1131
1104
978
791
598
414
201
-41
-223
-237
-91
59
64
-69
-187
-169
-58
2
-67
-183
-221
-135
5
109
152
163
163
156
165
223
322
387
325
134
-83
-190
-130
32
170
184
77
-53
-87
25
209
323
278
113
-35
-63
28
141
184
132
27
-81
-147
-149
-100
-53
-74
-188
-349
-479
-526
-489
-386
-234
-85
-24
-122
-331
-505
-522
-419
-363
-480
-732
-962
-1036
-952
-815
-754
-821
-961
-1063
-1050
-952
-870
-882
-963
-1022
-1001
-927
-867
-849
-845
-824
-802
-811
-840
-824
-697
-477
-259
-119
-32
78
210
274
214
122
153
354
630
931
1356
2008
2747
3222
3217
2900
2624
2499
2269
1652
732
-96
-529
-606
-565
-532
-455
-298
-167
-213
-442
-716
-923
-1105
-1371
-1730
-2036
-2130
-1976
-1674
-1366
-1141
-1009
-929
-853
-748
-632
-546
-532
-591
-676
-727
-726
-699
-678
-677
-678
-658
-610
-537
-456
-387
-345
-342
-385
-468
-557
-612
-632
-660
-728
-809
-829
-742
-584
-443
-373
-351
-320
-261
-209
-186
-180
-163
-140
-136
-140
-98
38
244
437
549
580
578
568
548
520
510
523
507
397
227
133
227
447
592
521
304
149
179
314
374
287
142
67
91
143
156
134
123
140
163
181
218
316
470
640
790
913
1017
1078
1060
961
845
828
987
1303
1659
1921
2011
1944
1791
1596
1331
924
369
-207
-606
-710
-591
-436
-380
-418
-467
-506
-609
-847
-1184
-1485
-1634
-1615
-1500
-1349
-1154
-874
-530
-232
-98
-141
-237
-222
-42
238
511
718
852
930
986
1061
1158
1195
1061
751
409
208
171
144
-36
-374
-731
-973
-1079
-1076
-957
-702
-338
27
270
352
337
313
307
258
90
-194
-495
-693
-726
-584
-257
256
872
1387
1597
1481
1240
1090
1038
881
454
-158
-669
-860
-749
-498
-219
100
477
816
950
806
498
183
-113
-500
-1037
-1592
-1914
-1868
-1552
-1162
-803
-448
-65
285
496
552
553
588
634
600
450
253
139
196
428
777
1168
1575
2049
2684
3477
4246
4721
4768
4503
4145
3764
3229
2435
1513
746
298
72
-132
-388
-591
-651
-622
-657
-837
-1102
-1325
-1426
-1416
-1352
-1276
-1200
-1105
-968
-801
-660
-614
-686
-821
-922
-927
-857
-779
-737
-720
-701
-693
-739
-827
-866
-749
-463
-122
135
249
260
213
108
-64
-289
-529
-749
-906
-918
-708
-308
100
300
228
12
-167
-265
-388
-648
-1015
-1324
-1420
-1273
-977
-659
-397
-199
-39
95
191
225
205
171
159
186
245
322
409
501
583
628
628
618
668
827
1071
1295
1385
1317
1174
1049
952
819
613
400
295
351
500
634
702
729
747
745
683
555
409
305
265
272
296
336
408
510
609
670
680
662
646
637
614
566
507
472
500
596
703
743
679
564
496
519
573
570
510
493
603
801
959
989
908
782
637
457
243
42
-105
-205
-281
-316
-253
-68
178
384
495
536
569
617
655
658
637
624
642
692
758
826
883
916
917
903
895
905
916
913
900
898
909
904
846
739
628
562
544
541
524
506
517
559
590
559
456
322
197
85
-29
-151
-258
-325
-349
-344
-316
-267
-206
-164
-163
-196
-226
-213
-153
-82
-27
25
126
301
505
647
676
628
581
586
627
649
600
462
252
32
-122
-176
-179
-194
-200
-107
134
464
784
1080
1418
1822
2226
2573
2917
3344
3816
4163
4252
4141
3973
3779
3436
2849
2110
1424
928
609
396
276
286
409
563
657
656
575
430
219
-42
-309
-525
-654
-686
-632
-534
-441
-397
-414
-475
-537
-561
-527
-452
-382
-359
-397
-485
-589
-679
-737
-763
-783
-831
-915
-997
-1011
-910
-698
-429
-171
24
138
179
175
158
155
172
203
235
263
308
396
538
708
852
914
876
762
626
515
446
404
366
325
303
333
416
505
546
526
478
432
379
296
192
108
54
-28
-210
-483
-737
-849
-788
-612
-384
-106
248
660
1055
1349
1511
1559
1516
1396
1228
1066
967
942
954
957
941
924
911
876
787
643
484
350
249
166
108
107
177
280
343
323
240
149
82
31
-26
-82
-111
-104
-83
-78
-97
-124
-145
-151
-137
-98
-45
-14
-54
-175
-333
-456
-502
-475
-400
-282
-105
133
396
629
798
903
957
952
864
694
492
334
272
294
350
402
447
505
581
650
673
630
530
413
322
276
264
258
252
266
308
356
368
335
298
309
357
387
360
313
313
373
423
390
279
170
135
162
176
123
22
-65
-105
-117
-141
-180
-203
-190
-161
-162
-205
-242
-223
-150
-83
-71
-101
-106
-48
38
88
74
39
39
85
139
176
219
314
484
698
897
1039
1103
1085
1015
951
942
988
1066
1190
1438
1845
2301
2600
2634
2512
2440
2464
2402
2056
1457
856
482
332
245
111
-37
-125
-149
-162
-185
-182
-121
-41
-16
-73
-156
-194
-168
-126
-132
-208
-319
-393
-376
-270
-139
-54
-39
-55
-51
-15
10
-20
-88
-120
-69
44
149
206
239
291
370
446
493
512
518
514
494
469
446
423
396
385
427
526
630
687
694
711
784
888
964
992
1012
1055
1093
1069
978
885
841
804
672
408
106
-89
-130
-94
-92
-140
-158
-58
160
421
645
809
941
1074
1196
1257
1202
1051
896
830
859
905
897
844
814
835
863
839
745
617
493
391
316
274
258
254
259
273
291
293
255
193
149
147
156
138
90
60
93
176
254
285
272
254
260
283
304
320
343
378
407
397
346
292
268
278
274
225
156
137
195
285
323
283
220
212
282
389
477
518
508
442
322
190
92
38
-12
-98
-200
-251
-208
-92
21
76
65
22
-2
22
97
198
293
373
434
475
483
453
405
360
310
231
124
49
73
193
326
379
332
215
65
-99
-263
-404
-480
-469
-375
-201
30
287
541
763
893
825
465
-161
-867
-1463
-1905
-2285
-2640
-2825
-2656
-2136
-1483
-903
-402
100
547
743
585
244
25
65
244
384
487
705
1131
1697
2254
2700
3023
3238
3319
3247
3043
2759
2452
2167
1907
1638
1298
841
292
-260
-731
-1082
-1326
-1488
-1574
-1548
-1326
-831
-67
818
1565
1961
1986
1803
1594
1395
1088
567
-89
-619
-792
-608
-291
-65
44
182
447
728
792
535
95
-275
-445
-495
-581
-759
-944
-1021
-960
-818
-664
-534
-419
-286
-122
35
98
20
-131
-235
-260
-307
-482
-727
-829
-647
-289
-19
9
-115
-197
-166
-110
-115
-156
-143
-52
62
150
222
305
389
446
477
509
542
538
457
338
268
290
353
332
159
-95
-250
-153
173
515
645
534
382
426
682
923
902
616
303
197
298
402
358
228
184
276
370
320
143
6
26
127
133
-14
-164
-113
152
406
408
181
22
182
578
833
668
202
-157
-162
41
113
-70
-311
-360
-203
-16
84
138
186
170
23
-159
-179
46
368
575
614
579
549
496
365
177
-16
-220
-460
-696
-802
-701
-456
-208
-42
68
186
311
394
403
380
401
513
681
815
845
772
661
549
391
135
-158
-330
-293
-120
41
139
263
479
704
787
679
465
260
104
-16
-106
-157
-183
-200
-174
-37
203
421
462
306
95
-23
-34
-60
-225
-510
-761
-802
-600
-284
-21
135
257
433
636
735
650
449
255
118
6
-101
-149
-63
149
409
648
855
1009
1066
1000
869
777
788
880
1018
1190
1406
1651
1888
2071
2157
2090
1831
1421
1005
713
547
397
189
-29
-150
-137
-59
-2
1
-47
-143
-267
-363
-374
-328
-319
-388
-464
-437
-311
-211
-221
-290
-299
-225
-170
-206
-279
-285
-219
-193
-288
-438
-498
-414
-287
-242
-272
-253
-94
146
307
291
148
19
-21
-21
-76
-209
-344
-389
-321
-195
-67
42
124
161
135
61
-15
-52
-58
-62
-70
-55
10
108
194
251
300
354
379
336
266
271
392
520
514
399
371
571
862
947
703
333
132
170
252
188
13
-111
-96
9
146
332
581
809
879
762
577
466
441
402
270
93
-10
12
110
212
333
532
790
946
837
494
151
23
66
45
-180
-478
-593
-429
-138
83
201
313
472
598
587
460
334
282
271
214
93
-23
-50
35
178
298
343
333
353
456
612
710
676
549
448
425
406
282
60
-113
-100
89
306
435
488
561
707
873
971
958
868
783
761
809
885
925
907
864
846
862
869
815
694
538
393
272
180
113
66
30
-2
-25
-41
-54
-53
-25
25
64
67
61
117
258
414
463
358
186
74
53
38
-44
-142
-118
87
355
483
376
147
-13
-46
-73
-229
-469
-581
-399
3
349
439
324
223
270
367
304
15
-325
-431
-150
434
1087
1614
1980
2276
2602
2918
3047
2845
2365
1849
1528
1421
1355
1194
952
722
494
146
-391
-1011
-1508
-1747
-1726
-1510
-1149
-661
-80
531
1097
1527
1712
1589
1211
735
314
6
-207
-339
-360
-256
-68
114
229
260
205
53
-203
-549
-938
-1290
-1533
-1611
-1520
-1303
-1008
-672
-320
20
329
596
811
935
906
720
466
256
118
-6
-140
-210
-108
155
429
567
562
505
449
343
115
-215
-539
-763
-861
-862
-786
-649
-475
-297
-130
46
245
441
574
608
560
478
405
353
316
292
279
269
259
248
240
233
215
169
88
-5
-40
68
360
768
1126
1274
1175
934
688
468
193
-226
-761
-1263
-1569
-1619
-1482
-1283
-1105
-954
-796
-626
-480
-410
-423
-473
-512
-539
-577
-631
-663
-630
-544
-464
-437
-449
-446
-384
-252
-76
108
247
295
240
125
5
-98
-203
-315
-398
-399
-307
-169
-43
36
58
26
-53
-153
-247
-333
-449
-641
-908
-1193
-1415
-1509
-1448
-1259
-1009
-771
-573
-381
-124
212
551
777
831
759
673
650
669
650
542
381
257
216
219
195
124
57
46
74
86
64
50
84
137
134
46
-92
-216
-311
-405
-507
-582
-592
-552
-522
-543
-602
-647
-644
-605
-559
-521
-485
-441
-393
-346
-287
-199
-82
29
105
144
182
244
307
321
270
204
197
281
432
633
905
1264
1652
1944
2042
1964
1814
1668
1502
1246
879
475
135
-89
-226
-350
-526
-773
-1051
-1274
-1360
-1290
-1109
-878
-622
-323
27
378
641
741
657
420
102
-213
-451
-581
-626
-631
-621
-595
-546
-485
-446
-455
-513
-589
-638
-620
-519
-363
-211
-121
-114
-173
-272
-385
-487
-553
-578
-581
-578
-558
-491
-382
-288
-282
-392
-569
-728
-805
-780
-681
-559
-451
-349
-201
30
298
497
546
465
345
264
227
205
191
212
285
391
503
606
688
713
640
466
239
14
-184
-351
-465
-490
-432
-357
-351
-439
-573
-685
-758
-822
-912
-1032
-1149
-1203
-1133
-918
-614
-338
-180
-133
-114
-67
-13
-12
-72
-139
-155
-113
-51
-16
-54
-197
-440
-714
-932
-1042
-1041
-951
-784
-574
-382
-253
-166
-83
-73
-323
-982
-1961
-2917
-3462
-3421
-2892
-2114
-1272
-414
506
1488
2399
2997
3081
2651
1921
1173
589
195
-51
-176
-178
-80
71
228
371
480
511
420
219
-2
-129
-107
33
210
374
518
638
677
565
300
-13
-227
-263
-165
-35
64
148
264
430
614
769
866
901
876
798
690
588
529
520
538
557
568
575
584
584
557
497
412
322
238
175
147
165
216
265
266
211
142
122
179
281
373
423
431
398
318
214
151
191
324
474
588
703
911
1220
1511
1647
1608
1517
1504
1589
1723
1899
2171
2555
2948
3205
3285
3287
3306
3283
3060
2570
1940
1392
1050
865
714
549
409
337
322
322
314
303
286
235
133
2
-109
-191
-294
-496
-833
-1234
-1542
-1607
-1393
-1011
-608
-249
113
530
960
1274
1367
1248
1010
744
485
256
108
77
132
187
197
212
321
528
729
797
696
495
283
102
-49
-163
-222
-237
-257
-300
-302
-142
241
771
1278
1622
1777
1813
1805
1766
1650
1409
1056
679
389
245
211
190
116
1
-80
-66
33
146
203
211
239
336
464
533
507
457
473
550
582
499
373
341
436
536
514
406
369
490
674
756
683
563
529
600
684
697
635
556
503
484
476
450
389
302
221
178
164
145
104
55
18
-10
-43
-71
-67
-22
28
40
18
18
83
191
273
276
216
143
90
46
-24
-130
-241
-321
-363
-387
-401
-383
-313
-217
-140
-104
-77
-26
42
91
101
101
133
201
277
340
392
437
455
430
394
409
492
587
620
587
560
596
653
637
511
344
250
267
343
408
443
481
552
650
749
820
838
790
689
568
456
366
294
236
182
108
-2
-108
-143
-80
15
47
8
-6
89
258
380
383
311
264
275
287
226
94
-35
-94
-82
-54
-47
-40
32
214
491
802
1090
1304
1401
1356
1211
1060
972
938
929
1000
1274
1773
2312
2629
2651
2546
2504
2486
2257
1689
941
321
0
-99
-139
-196
-227
-197
-137
-106
-127
-174
-199
-161
-56
79
173
167
67
-59
-154
-226
-331
-503
-711
-870
-902
-782
-563
-359
-284
-367
-534
-666
-709
-716
-773
-897
-1011
-1028
-934
-776
-598
-423
-274
-200
-227
-311
-362
-334
-272
-241
-249
-237
-169
-91
-74
-128
-195
-237
-282
-366
-453
-453
-331
-164
-51
-1
69
210
374
460
428
325
195
47
-95
-140
-7
260
488
538
460
434
553
719
758
610
369
161
18
-96
-186
-206
-136
-44
-28
-97
-142
-36
216
448
473
263
-12
-141
-70
56
66
-44
-118
-29
177
346
398
395
422
451
359
77
-311
-630
-780
-799
-796
-833
-876
-842
-700
-516
-407
-442
-574
-692
-730
-708
-681
-659
-592
-440
-230
-32
125
264
405
489
425
204
-39
-140
-80
-16
-119
-371
-558
-488
-189
100
167
17
-147
-134
69
309
413
342
180
47
10
63
153
223
245
230
229
271
339
391
427
472
530
561
525
439
372
364
382
377
337
290
256
232
224
251
309
372
413
437
450
423
327
183
57
-13
-66
-150
-237
-235
-95
124
325
453
520
552
567
583
624
675
713
759
901
1189
1559
1869
2052
2192
2406
2682
2871
2835
2583
2234
1918
1756
1840
2188
2666
3053
3242
3338
3510
3745
3804
3469
2787
2011
1361
870
488
226
152
250
376
410
384
404
474
457
229
-157
-491
-599
-492
-305
-158
-81
-41
-6
29
29
-65
-287
-587
-834
-918
-869
-819
-839
-855
-727
-424
-71
198
357
469
568
618
556
377
126
-140
-383
-571
-682
-714
-675
-569
-405
-202
28
289
561
751
738
493
154
-65
-77
0
-15
-158
-281
-221
13
259
382
388
368
378
389
363
313
281
276
288
321
396
501
570
544
444
350
310
292
254
206
192
217
230
202
169
181
219
222
178
157
235
396
544
595
532
385
200
39
-48
-59
-53
-82
-109
-43
125
279
290
165
34
-19
-47
-149
-322
-447
-426
-298
-183
-144
-137
-90
-14
0
-111
-298
-432
-427
-323
-250
-289
-369
-351
-188
2
55
-65
-225
-286
-245
-215
-273
-376
-431
-401
-337
-290
-253
-202
-126
-47
7
30
17
-44
-141
-227
-248
-198
-121
-64
1
155
424
704
830
727
486
272
163
76
-118
-423
-680
-712
-493
-198
-31
-35
-74
-12
118
146
-39
-352
-593
-662
-644
-658
-707
-676
-504
-291
-200
-274
-400
-431
-345
-258
-290
-437
-573
-575
-437
-270
-178
-160
-135
-70
-21
-51
-125
-139
-46
86
163
196
288
513
837
1130
1271
1236
1101
986
969
1034
1142
1323
1662
2170
2699
3045
3154
3173
3231
3252
3047
2592
2118
1874
1862
1851
1655
1312
974
694
383
-32
-480
-786
-826
-639
-399
-271
-296
-399
-481
-541
-695
-1032
-1490
-1871
-1990
-1824
-1505
-1177
-891
-616
-348
-158
-132
-263
-435
-526
-509
-443
-388
-327
-202
-7
172
236
153
-11
-153
-200
-134
24
228
411
539
637
761
911
988
865
523
105
-196
-297
-273
-239
-203
-57
281
733
1107
1248
1160
958
734
487
196
-90
-271
-281
-133
122
452
844
1277
1703
2082
2395
2624
2743
2747
2643
2412
1999
1367
596
-134
-674
-1017
-1238
-1356
-1289
-979
-493
-3
341
500
502
374
131
-186
-495
-721
-834
-853
-816
-744
-641
-488
-267
15
327
620
826
881
776
605
509
561
688
749
690
591
566
620
663
645
641
753
994
1248
1383
1349
1174
885
484
-17
-583
-1172
-1741
-2231
-2541
-2575
-2329
-1905
-1447
-1041
-682
-332
-24
149
124
-68
-314
-500
-573
-533
-393
-175
56
212
247
219
242
384
600
776
828
760
630
471
258
-58
-478
-921
-1256
-1392
-1329
-1151
-959
-806
-689
-573
-426
-262
-148
-158
-303
-510
-677
-752
-775
-811
-869
-910
-911
-886
-857
-817
-761
-724
-766
-899
-1054
-1140
-1125
-1040
-933
-810
-647
-415
-111
243
592
859
990
995
954
944
981
1030
1061
1081
1123
1210
1367
1628
1996
2393
2677
2748
2641
2483
2354
2206
1933
1504
1019
621
368
209
78
-36
-96
-95
-79
-105
-183
-287
-426
-661
-1042
-1515
-1924
-2119
-2067
-1844
-1538
-1176
-738
-238
262
697
1020
1185
1141
886
531
238
87
26
-41
-111
-65
192
613
1025
1254
1225
976
603
211
-132
-423
-701
-980
-1196
-1247
-1091
-800
-512
-315
-198
-98
19
133
205
214
161
61
-46
-106
-79
22
135
194
186
146
105
61
6
-50
-77
-80
-116
-238
-425
-585
-630
-538
-346
-92
223
593
976
1297
1494
1555
1512
1397
1224
1005
770
570
450
420
456
527
602
658
666
617
528
436
360
285
177
29
-115
-200
-207
-175
-166
-209
-274
-306
-289
-271
-317
-436
-557
-588
-496
-332
-170
-43
78
214
339
393
342
216
72
-56
-163
-255
-313
-299
-196
-22
172
328
409
413
364
288
215
181
210
291
369
388
354
313
286
205
-24
-399
-781
-1006
-1022
-905
-739
-522
-202
214
628
926
1063
1069
987
839
643
431
243
103
24
22
108
263
428
531
545
489
409
325
230
123
26
-27
-22
28
105
210
344
465
492
380
182
13
-66
-113
-224
-405
-548
-563
-502
-518
-704
-1000
-1259
-1382
-1355
-1194
-899
-479
15
519
1002
1462
1854
2076
2060
1865
1637
1472
1363
1292
1343
1656
2233
2845
3197
3199
3032
2912
2838
2596
2037
1290
671
393
396
457
416
288
174
128
118
85
7
-112
-261
-435
-607
-718
-718
-617
-483
-394
-374
-383
-362
-293
-212
-172
-185
-211
-205
-159
-109
-104
-167
-293
-460
-629
-737
-739
-665
-633
-752
-996
-1206
-1219
-1012
-703
-417
-180
72
388
749
1085
1325
1420
1349
1137
858
606
439
346
286
235
207
219
269
341
422
496
529
484
359
213
131
162
280
418
520
568
567
534
486
445
426
435
464
500
526
526
504
482
475
485
493
497
510
536
556
552
534
534
557
565
524
455
416
433
459
432
353
284
272
294
287
232
171
144
140
112
47
-15
-39
-34
-45
-86
-128
-132
-100
-75
-90
-139
-188
-206
-191
-161
-133
-107
-63
11
108
198
250
270
287
321
358
359
303
226
192
245
365
484
540
536
526
559
620
649
592
457
304
190
120
65
-2
-79
-134
-135
-77
15
99
150
179
218
275
325
339
324
309
313
312
277
219
183
192
225
245
251
274
321
353
324
236
138
67
24
-13
-59
-110
-158
-191
-190
-148
-83
-41
-55
-119
-194
-251
-283
-292
-277
-248
-225
-227
-227
-166
-3
235
462
614
706
803
953
1119
1210
1191
1137
1160
1293
1452
1574
1741
2118
2726
3329
3612
3487
3167
2914
2743
2443
1866
1129
519
213
155
166
144
106
98
119
116
45
-102
-295
-488
-653
-776
-852
-878
-849
-778
-700
-643
-596
-524
-395
-230
-75
28
70
69
52
32
-2
-68
-156
-224
-228
-172
-112
-98
-112
-99
-51
-29
-80
-162
-172
-86
-1
-25
-132
-185
-103
19
26
-126
-318
-399
-337
-211
-96
9
139
294
442
548
614
649
655
631
592
572
613
731
895
1034
1084
1044
979
953
958
917
784
594
442
386
404
426
413
391
412
482
562
607
610
600
601
598
559
496
465
496
553
554
462
353
353
517
746
868
786
558
332
205
147
52
-130
-333
-439
-385
-218
-53
42
76
93
101
62
-47
-197
-326
-393
-413
-421
-431
-425
-387
-328
-284
-285
-322
-354
-343
-278
-178
-54
100
272
405
430
334
185
79
62
105
150
176
190
203
224
260
299
294
176
-74
-370
-567
-587
-481
-372
-332
-316
-229
-45
151
253
245
202
191
203
187
141
120
169
253
291
236
113
-25
-133
-186
-166
-79
24
81
72
20
-54
-151
-277
-408
-523
-647
-808
-962
-990
-817
-516
-274
-218
-288
-320
-241
-152
-206
-436
-697
-787
-634
-338
-63
122
286
528
851
1160
1371
1495
1577
1612
1562
1464
1436
1539
1670
1687
1633
1734
2128
2654
2975
2942
2727
2570
2470
2224
1719
1098
593
269
18
-250
-473
-549
-488
-403
-369
-359
-332
-312
-349
-440
-518
-539
-542
-586
-687
-807
-907
-978
-1026
-1043
-1019
-969
-909
-837
-744
-654
-616
-664
-755
-815
-816
-794
-781
-761
-685
-555
-432
-375
-378
-384
-345
-264
-179
-126
-122
-166
-230
-266
-242
-180
-142
-163
-210
-218
-159
-75
-17
15
50
83
79
46
46
112
177
142
27
-24
105
337
474
415
259
196
295
460
538
463
278
92
21
105
264
329
201
-29
-140
-8
257
429
401
275
221
280
344
305
193
109
108
142
152
152
208
331
453
487
426
343
298
266
172
-5
-204
-334
-362
-321
-264
-223
-211
-246
-328
-408
-401
-260
-42
115
103
-37
-155
-137
-25
9
-160
-458
-655
-583
-298
-32
33
-68
-148
-95
13
11
-160
-394
-537
-531
-428
-288
-114
96
277
335
258
149
124
166
148
-6
-154
-16
526
1242
1696
1637
1219
799
546
329
-41
-515
-839
-850
-644
-420
-232
29
414
780
891
659
233
-153
-374
-465
-538
-663
-806
-881
-821
-636
-413
-252
-198
-249
-382
-555
-693
-707
-592
-462
-446
-541
-616
-564
-407
-221
-18
222
437
472
275
11
-91
1
79
-47
-305
-439
-290
54
391
617
780
959
1152
1290
1331
1318
1341
1450
1616
1805
2058
2477
3086
3732
4167
4273
4158
3987
3755
3290
2496
1532
699
177
-81
-216
-293
-271
-120
111
325
442
435
308
70
-247
-574
-819
-935
-942
-907
-877
-840
-761
-646
-536
-466
-426
-389
-352
-334
-333
-326
-306
-298
-334
-404
-459
-463
-438
-433
-471
-515
-493
-366
-177
-25
22
-19
-66
-62
-30
-38
-109
-196
-227
-175
-74
21
85
118
134
135
124
105
79
44
0
-45
-71
-56
4
88
160
199
209
222
265
329
380
396
383
377
402
463
543
626
693
720
696
635
578
552
543
506
416
298
214
212
294
425
546
603
579
510
456
429
373
205
-116
-579
-1164
-1814
-2374
-2622
-2429
-1904
-1320
-848
-403
211
1009
1743
2113
2026
1648
1226
905
699
555
428
316
261
307
431
535
529
420
299
230
174
65
-75
-140
-57
121
261
284
214
123
50
2
-17
8
77
161
203
165
59
-56
-117
-107
-69
-67
-126
-206
-253
-234
-159
-58
50
163
294
450
622
780
891
938
932
885
801
685
572
511
513
525
473
331
156
27
-25
-44
-97
-200
-305
-351
-318
-230
-120
-5
115
215
253
216
151
124
114
-32
-476
-1171
-1807
-2032
-1765
-1248
-771
-385
93
786
1559
2128
2349
2320
2225
2149
2070
1960
1850
1789
1800
1894
2082
2301
2388
2203
1790
1383
1182
1168
1184
1164
1220
1481
1883
2206
2294
2186
2014
1835
1608
1318
1048
899
875
894
885
852
825
793
721
618
539
515
510
458
332
170
40
-16
20
148
331
498
598
649
725
862
988
988
833
636
528
503
402
104
-317
-651
-772
-767
-817
-991
-1182
-1254
-1195
-1097
-1008
-887
-690
-469
-331
-316
-341
-306
-211
-151
-196
-304
-380
-364
-271
-148
-21
93
154
119
-7
-168
-296
-367
-400
-409
-392
-345
-270
-159
4
219
432
559
567
518
503
540
565
514
402
310
297
342
382
389
384
404
450
478
444
356
268
229
226
189
60
-131
-272
-252
-36
315
691
973
1059
916
610
272
-17
-303
-685
-1165
-1582
-1736
-1572
-1238
-939
-763
-654
-538
-418
-364
-405
-492
-570
-631
-681
-691
-609
-433
-240
-116
-74
-69
-79
-134
-247
-358
-382
-309
-223
-209
-255
-272
-195
-62
27
5
-101
-210
-260
-256
-255
-301
-380
-428
-390
-276
-139
-33
20
34
23
-9
-56
-107
-148
-167
-164
-142
-113
-78
-24
66
183
286
334
319
280
256
238
173
18
-208
-417
-534
-554
-548
-596
-705
-812
-850
-817
-775
-771
-809
-842
-831
-772
-680
-571
-455
-341
-236
-145
-75
-35
-24
-18
12
65
98
72
21
28
136
289
395
429
466
588
769
893
877
766
682
691
760
830
924
1120
1436
1775
1996
2052
2014
1963
1885
1681
1293
790
319
-3
-159
-201
-189
-160
-136
-126
-108
-71
-52
-141
-386
-716
-978
-1066
-1025
-985
-1017
-1072
-1062
-987
-947
-1032
-1215
-1359
-1345
-1188
-1033
-1019
-1164
-1346
-1414
-1301
-1048
-741
-431
-119
203
494
685
733
662
550
451
354
230
99
62
198
462
718
852
881
895
926
905
752
491
233
71
16
35
103
216
351
462
533
593
695
854
1032
1174
1247
1261
1244
1191
1060
821
521
270
164
204
308
402
485
587
691
722
628
446
276
192
173
142
57
-38
-64
12
148
270
352
424
518
622
707
780
879
1011
1113
1109
996
855
764
726
679
579
440
306
201
132
98
90
84
65
37
24
26
19
-21
-77
-117
-133
-155
-206
-264
-278
-220
-107
17
119
192
247
300
365
436
487
489
436
355
284
239
211
188
174
177
200
236
280
332
397
476
557
596
548
397
192
24
-40
-13
39
73
110
206
382
592
762
842
834
780
717
660
601
531
458
395
348
306
262
236
246
275
271
191
66
-10
34
174
304
335
269
177
124
115
98
31
-82
-199
-274
-290
-251
-182
-112
-58
-16
35
115
215
316
405
491
592
704
809
900
977
1024
1028
1014
1037
1134
1274
1416
1605
1953
2486
3038
3367
3386
3252
3162
3109
2894
2381
1681
1060
681
495
366
236
146
135
178
222
244
247
221
141
4
-150
-265
-326
-345
-341
-322
-292
-266
-256
-261
-264
-249
-217
-190
-188
-216
-262
-302
-317
-302
-267
-229
-199
-175
-152
-130
-113
-99
-83
-58
-27
-2
13
26
50
93
150
207
250
276
290
294
286
258
213
168
141
144
169
193
202
206
230
287
360
410
421
408
406
427
449
445
424
422
468
541
599
621
632
668
724
752
723
660
619
620
628
606
558
526
530
547
546
534
547
596
647
663
649
655
718
819
895
902
854
800
770
742
663
512
334
191
97
21
-58
-114
-118
-95
-103
-164
-231
-238
-178
-108
-92
-133
-185
-218
-245
-291
-343
-357
-319
-280
-294
-338
-325
-224
-124
-142
-270
-356
-271
-73
52
18
-70
-40
153
389
528
540
495
459
445
437
421
393
348
295
258
254
276
301
322
346
375
399
412
421
434
442
429
393
349
310
277
250
223
193
163
139
119
96
64
23
-21
-65
-115
-176
-244
-308
-364
-414
-462
-491
-478
-419
-349
-311
-310
-316
-300
-280
-319
-454
-655
-830
-910
-901
-866
-841
-790
-651
-408
-121
130
317
467
603
721
806
856
879
890
921
1011
1170
1363
1579
1896
2409
3073
3656
3920
3850
3649
3483
3279
2836
2097
1257
574
137
-143
-356
-495
-518
-462
-425
-469
-567
-667
-760
-875
-1027
-1166
-1225
-1178
-1067
-957
-889
-849
-803
-747
-714
-726
-744
-696
-561
-404
-319
-346
-436
-501
-502
-478
-497
-589
-717
-809
-822
-768
-688
-613
-537
-445
-337
-227
-131
-56
-4
24
26
12
-1
-3
4
7
-1
-13
-16
-10
-17
-56
-121
-187
-228
-244
-246
-242
-223
-183
-127
-82
-73
-98
-139
-187
-252
-336
-399
-389
-295
-178
-118
-117
-82
58
249
342
252
77
7
127
323
412
354
287
361
555
690
616
371
121
-11
-56
-130
-283
-442
-508
-461
-372
-309
-276
-243
-210
-208
-241
-269
-279
-327
-468
-646
-724
-641
-524
-569
-800
-1002
-956
-695
-497
-571
-815
-932
-764
-438
-209
-180
-254
-291
-262
-220
-201
-200
-226
-306
-429
-524
-521
-415
-270
-150
-70
-17
23
64
106
134
127
94
54
12
-64
-212
-398
-499
-409
-151
99
151
-5
-158
-78
242
523
459
47
-382
-481
-245
4
-16
-254
-428
-342
-78
145
212
184
161
164
148
87
3
-81
-171
-284
-409
-518
-578
-581
-542
-498
-474
-447
-385
-295
-250
-327
-516
-705
-777
-713
-590
-480
-382
-237
-17
242
482
669
787
826
808
785
803
859
919
981
1094
1304
1624
2058
2628
3300
3921
4287
4336
4206
4058
3865
3445
2717
1854
1123
634
295
-10
-267
-395
-385
-343
-359
-441
-548
-656
-779
-917
-1030
-1076
-1063
-1033
-1016
-1001
-960
-894
-840
-832
-862
-885
-860
-799
-739
-690
-638
-585
-575
-639
-719
-694
-525
-334
-310
-508
-764
-846
-693
-483
-442
-607
-788
-783
-589
-379
-292
-298
-271
-163
-50
-15
-45
-52
5
56
20
-88
-162
-133
-40
26
28
19
58
116
122
62
7
33
108
143
114
99
176
325
463
547
597
613
556
406
234
145
163
195
152
61
25
101
229
313
326
301
263
198
101
7
-30
2
49
42
-28
-93
-74
32
150
196
153
74
16
-16
-56
-125
-203
-254
-269
-272
-281
-281
-240
-154
-57
-2
-18
-84
-143
-154
-120
-84
-86
-123
-152
-136
-74
-16
-11
-63
-122
-123
-48
43
63
-22
-134
-148
-23
143
185
43
-166
-264
-184
-35
27
-39
-131
-135
-52
24
36
21
40
93
118
86
56
113
257
394
428
360
282
285
372
469
508
491
475
503
561
598
584
528
448
345
216
78
-38
-109
-151
-191
-228
-239
-215
-178
-159
-165
-177
-185
-193
-203
-201
-171
-113
-26
89
202
248
181
41
-64
-71
-29
-39
-113
-149
-36
220
505
715
827
877
891
880
843
773
666
554
509
600
807
1072
1411
1910
2577
3227
3602
3628
3479
3326
3103
2606
1809
976
389
43
-276
-631
-811
-651
-348
-301
-651
-1143
-1478
-1704
-2080
-2626
-2973
-2749
-1996
-1096
-329
343
1042
1674
1992
1904
1567
1175
772
332
-60
-218
-46
341
764
1131
1442
1674
1739
1585
1270
905
543
149
-300
-750
-1101
-1267
-1230
-1041
-781
-517
-264
6
319
645
899
995
914
723
522
355
193
-7
-233
-407
-459
-398
-317
-324
-438
-574
-626
-571
-485
-458
-508
-579
-592
-522
-386
-229
-101
-6
122
395
859
1409
1839
2009
1949
1789
1592
1300
850
302
-189
-490
-580
-507
-339
-143
-9
2
-74
-141
-136
-106
-157
-324
-521
-629
-584
-408
-162
85
257
299
210
63
-52
-99
-115
-134
-142
-106
-35
20
22
-26
-124
-320
-656
-1087
-1484
-1724
-1788
-1726
-1560
-1255
-788
-214
356
830
1159
1328
1341
1220
1022
808
626
505
467
503
569
606
601
583
570
531
423
259
120
81
130
192
203
165
110
49
-28
-114
-165
-134
-13
157
328
480
614
735
835
892
878
770
581
373
219
149
122
66
-47
-182
-289
-363
-431
-501
-547
-540
-485
-404
-297
-146
45
235
377
470
555
655
742
763
710
644
654
774
933
1006
928
760
634
611
615
524
332
174
200
416
696
919
1060
1161
1257
1351
1441
1521
1562
1554
1571
1719
2007
2287
2374
2253
2089
2013
1956
1738
1303
804
443
263
154
20
-111
-142
-46
92
158
115
33
19
109
216
213
65
-119
-177
-76
48
34
-137
-343
-468
-514
-564
-652
-726
-731
-688
-670
-699
-716
-653
-527
-435
-455
-579
-743
-910
-1110
-1387
-1739
-2084
-2306
-2308
-2061
-1618
-1088
-570
-95
369
838
1251
1494
1494
1292
1009
759
591
496
439
397
375
388
456
573
683
722
663
545
433
361
316
279
255
252
242
154
-62
-359
-618
-746
-740
-656
-540
-436
-435
-657
-1123
-1650
-1946
-1841
-1428
-941
-512
-65
563
1402
2278
2931
3209
3144
2893
2608
2350
2114
1892
1708
1575
1448
1282
1123
1115
1335
1640
1736
1448
912
448
257
246
168
-116
-537
-936
-1204
-1319
-1294
-1149
-936
-734
-591
-478
-340
-164
-2
77
58
1
-15
51
180
313
392
390
321
239
193
207
284
413
574
730
839
882
891
927
1024
1155
1246
1249
1180
1088
1010
947
880
799
710
628
570
550
549
524
447
349
293
306
352
369
345
320
325
345
353
349
353
357
334
280
246
288
396
508
579
623
679
749
786
743
632
508
425
398
402
413
424
438
449
442
412
377
360
360
356
346
362
443
579
723
839
947
1084
1232
1319
1318
1304
1378
1545
1711
1841
2048
2475
3072
3561
3695
3506
3251
3107
2973
2616
1980
1273
768
553
504
467
402
356
367
409
429
390
283
127
-37
-172
-265
-333
-398
-449
-464
-444
-423
-435
-474
-507
-508
-476
-424
-359
-286
-228
-227
-324
-519
-759
-960
-1057
-1032
-921
-777
-630
-463
-234
62
367
589
661
589
436
263
106
-26
-122
-173
-171
-126
-66
-8
49
119
197
243
215
125
39
20
34
-26
-237
-554
-842
-1005
-1065
-1105
-1156
-1149
-983
-624
-131
387
835
1175
1416
1594
1729
1803
1783
1658
1471
1287
1163
1113
1121
1154
1167
1120
1012
877
751
625
468
275
90
-33
-79
-81
-73
-60
-28
19
57
75
82
94
100
76
18
-43
-64
-25
52
114
127
90
32
-10
-6
55
162
286
396
478
531
560
557
506
401
253
82
-99
-282
-456
-603
-705
-748
-725
-648
-544
-459
-422
-419
-406
-364
-309
-270
-245
-214
-163
-105
-56
12
131
270
343
296
181
110
135
195
207
161
129
158
224
273
297
322
347
330
257
182
163
188
191
148
125
184
289
329
250
119
43
40
27
-61
-189
-261
-243
-187
-157
-154
-140
-112
-114
-173
-245
-262
-211
-158
-165
-223
-257
-210
-109
-25
11
47
152
334
530
661
708
715
750
818
860
827
744
699
746
865
1022
1269
1700
2304
2877
3178
3159
3008
2912
2825
2529
1921
1179
596
312
240
231
239
288
363
387
314
191
93
29
-66
-233
-424
-535
-500
-335
-123
45
129
141
116
85
50
15
-8
-2
37
79
82
26
-60
-126
-154
-179
-251
-374
-495
-559
-574
-593
-647
-720
-779
-815
-848
-891
-929
-944
-926
-878
-792
-666
-527
-423
-374
-348
-290
-181
-71
-21
-43
-84
-84
-28
42
70
31
-72
-205
-318
-358
-294
-150
-11
33
-30
-115
-117
-21
75
61
-49
-112
13
319
655
877
957
962
946
887
743
527
301
120
-7
-82
-87
5
171
333
424
438
413
373
307
202
78
-26
-87
-104
-82
-27
46
116
182
270
397
516
543
440
262
101
-12
-131
-300
-484
-589
-571
-475
-369
-273
-164
-43
38
20
-81
-189
-240
-237
-240
-290
-358
-371
-287
-145
-27
30
78
190
363
503
516
413
301
265
286
281
200
81
-3
-11
35
98
142
145
103
42
18
77
203
322
386
400
405
402
358
277
199
156
110
15
-100
-123
19
232
320
192
-38
-179
-175
-162
-311
-619
-905
-967
-774
-490
-321
-324
-378
-309
-98
78
44
-163
-313
-244
-54
18
-73
-69
308
999
1610
1806
1633
1394
1274
1147
792
181
-461
-866
-921
-665
-186
425
1083
1735
2370
2955
3372
3480
3264
2888
2525
2177
1713
1104
542
248
222
243
135
-22
-12
213
468
554
484
447
548
693
722
604
445
329
239
136
57
74
189
291
281
175
94
149
354
617
797
803
662
524
539
704
846
795
589
450
545
834
1129
1292
1321
1272
1193
1136
1156
1257
1328
1242
1034
895
975
1197
1333
1263
1097
1010
1014
973
811
629
589
721
901
1010
1062
1145
1278
1374
1336
1162
930
727
601
555
557
554
504
410
339
352
440
528
540
481
434
487
648
843
989
1068
1118
1172
1208
1186
1100
979
846
671
431
187
55
75
127
51
-151
-259
-59
389
757
769
478
192
111
121
-47
-507
-1077
-1467
-1542
-1391
-1191
-1038
-906
-720
-470
-235
-127
-170
-276
-335
-337
-391
-574
-808
-916
-835
-704
-702
-826
-903
-813
-625
-477
-374
-197
80
284
231
-34
-263
-282
-174
-136
-215
-257
-121
135
327
361
301
233
143
-30
-268
-478
-598
-659
-716
-732
-620
-375
-121
24
74
139
266
388
408
325
228
175
137
70
-7
-52
-80
-168
-341
-512
-566
-490
-380
-324
-320
-312
-283
-270
-297
-329
-322
-282
-263
-304
-371
-399
-378
-357
-375
-392
-317
-125
94
214
209
187
271
454
618
663
628
624
700
799
854
891
997
1206
1468
1747
2092
2568
3107
3514
3641
3534
3366
3213
2971
2507
1861
1230
777
494
266
39
-141
-225
-235
-257
-332
-439
-549
-678
-851
-1049
-1200
-1261
-1278
-1332
-1439
-1507
-1428
-1213
-1001
-907
-885
-782
-531
-251
-126
-205
-360
-435
-399
-342
-346
-402
-454
-468
-450
-421
-396
-385
-399
-438
-480
-500
-501
-496
-486
-467
-450
-457
-501
-558
-600
-616
-614
-587
-502
-346
-172
-53
4
69
195
329
355
225
22
-131
-200
-249
-330
-411
-421
-352
-263
-208
-179
-134
-70
-28
-30
-46
-32
24
100
173
233
277
292
272
226
175
142
142
172
214
235
211
163
137
150
163
124
31
-59
-92
-80
-80
-124
-196
-265
-331
-414
-508
-574
-570
-495
-383
-271
-164
-52
69
185
274
316
307
260
198
145
128
166
254
346
387
366
336
360
436
494
472
391
343
397
529
658
730
763
795
827
832
792
717
603
424
164
-129
-371
-516
-591
-648
-695
-685
-577
-388
-180
-5
123
210
269
317
360
393
405
399
390
381
355
307
297
441
844
1520
2370
3218
3860
4131
3962
3411
2591
1569
352
-1012
-2321
-3280
-3691
-3592
-3185
-2639
-2003
-1317
-709
-337
-251
-344
-467
-554
-615
-636
-580
-431
-218
47
405
904
1527
2198
2840
3397
3800
3966
3843
3441
2805
1979
1033
106
-628
-1023
-1004
-558
234
1147
1852
2116
1982
1705
1473
1230
816
242
-263
-480
-416
-242
-69
150
476
837
1064
1050
842
577
341
118
-169
-572
-1062
-1530
-1865
-2017
-2008
-1867
-1578
-1134
-626
-239
-103
-167
-255
-246
-188
-209
-351
-512
-566
-489
-367
-304
-353
-519
-773
-1048
-1266
-1369
-1359
-1281
-1171
-1023
-816
-544
-235
55
284
455
612
822
1083
1290
1293
1024
563
78
-314
-616
-888
-1140
-1320
-1376
-1305
-1136
-888
-597
-345
-223
-252
-357
-439
-460
-444
-416
-374
-304
-192
-12
272
641
982
1144
1082
893
706
556
385
164
-31
-92
0
155
275
345
403
446
405
218
-93
-432
-708
-897
-1021
-1087
-1066
-935
-722
-492
-304
-179
-124
-146
-238
-364
-454
-466
-408
-317
-213
-88
59
182
218
144
9
-108
-169
-206
-285
-432
-607
-737
-775
-714
-583
-423
-281
-179
-103
-12
106
197
192
91
-18
-37
31
101
107
81
95
162
214
195
125
68
45
31
12
13
45
68
24
-90
-214
-290
-323
-348
-371
-353
-272
-146
-14
109
234
366
468
495
434
317
199
116
73
48
22
-5
-14
6
31
9
-91
-234
-346
-379
-367
-387
-474
-578
-615
-559
-467
-422
-439
-451
-391
-255
-99
32
132
223
315
404
486
569
646
697
720
740
789
873
980
1093
1195
1275
1361
1552
1936
2476
2969
3198
3147
3012
2991
3061
3015
2698
2168
1623
1216
968
821
717
619
506
396
337
358
412
417
348
266
240
261
250
162
35
-69
-137
-222
-366
-537
-650
-643
-537
-425
-393
-443
-501
-486
-391
-272
-193
-172
-175
-156
-86
30
152
224
219
167
134
151
180
163
97
36
19
25
25
60
232
581
999
1288
1319
1132
869
637
417
131
-248
-640
-908
-960
-815
-569
-321
-130
5
106
183
220
191
90
-47
-154
-177
-117
-11
104
226
366
515
636
701
724
744
784
820
808
734
622
518
443
391
347
316
321
381
475
551
567
516
431
348
281
228
190
180
205
261
329
384
404
384
336
286
254
242
239
239
245
260
269
255
213
168
142
134
115
66
4
-39
-47
-32
-17
-7
8
33
62
92
126
165
202
235
270
313
352
359
321
266
230
220
213
194
188
231
319
406
456
485
527
588
628
601
505
375
245
130
39
-15
-26
-10
13
47
121
250
414
556
632
632
584
526
472
415
341
246
152
79
32
-1
-31
-53
-52
-35
-23
-31
-49
-53
-33
-2
19
13
-22
-76
-127
-156
-159
-161
-185
-211
-181
-57
132
311
435
535
667
836
983
1048
1032
973
902
838
815
876
1030
1246
1505
1845
2290
2747
3031
3031
2830
2613
2445
2203
1755
1164
662
415
377
382
348
331
387
466
465
366
257
212
182
62
-155
-347
-382
-258
-97
-4
30
90
218
366
456
467
436
388
297
127
-90
-258
-300
-235
-156
-134
-130
-46
155
376
463
351
123
-81
-199
-275
-366
-458
-486
-422
-304
-193
-111
-34
57
156
237
287
311
333
373
437
505
545
536
490
436
399
393
417
459
497
514
524
579
700
829
860
747
570
466
505
631
731
739
669
577
507
471
452
402
287
128
-7
-47
18
137
268
400
525
619
667
696
735
769
735
609
451
356
346
359
335
291
287
344
407
401
306
168
48
-35
-120
-254
-427
-560
-566
-440
-267
-133
-46
46
158
233
210
106
2
-31
4
65
139
251
414
585
696
721
687
643
629
636
631
578
461
290
100
-53
-128
-120
-86
-99
-177
-252
-220
-54
157
283
276
204
156
152
148
118
83
76
103
163
269
429
623
811
969
1095
1175
1171
1073
921
762
588
354
68
-194
-376
-525
-717
-932
-1044
-985
-854
-816
-909
-1004
-967
-815
-676
-610
-546
-388
-154
51
150
166
163
167
150
92
10
-59
-83
-38
91
300
538
738
870
950
1010
1060
1093
1104
1103
1113
1193
1439
1887
2417
2789
2856
2706
2552
2439
2150
1448
394
-641
-1299
-1530
-1523
-1431
-1240
-873
-358
188
655
992
1157
1100
831
451
92
-177
-372
-521
-616
-628
-561
-443
-303
-163
-52
-10
-50
-119
-162
-172
-196
-270
-367
-417
-386
-321
-311
-402
-557
-689
-729
-671
-568
-496
-499
-549
-555
-434
-186
94
286
344
320
301
333
387
402
339
214
91
29
44
104
154
166
149
120
85
59
71
128
191
199
137
69
78
178
297
376
423
476
518
496
405
347
418
578
663
555
322
145
133
223
286
280
277
357
505
632
676
652
603
534
405
191
-60
-258
-340
-316
-244
-165
-92
-13
89
223
357
412
323
125
-59
-122
-104
-145
-308
-471
-444
-197
86
187
86
-32
28
280
561
690
620
451
329
332
428
525
550
490
387
298
265
317
447
611
733
766
734
718
772
877
951
918
774
608
543
653
903
1171
1345
1394
1367
1323
1269
1176
1026
846
683
571
519
534
622
769
917
993
957
827
667
529
419
317
218
154
164
256
391
513
579
584
537
448
323
173
23
-100
-184
-234
-263
-281
-285
-254
-168
-53
27
27
-17
-13
91
233
309
300
319
505
878
1298
1574
1606
1444
1210
987
792
611
456
359
363
528
937
1640
2539
3373
3889
4043
4005
3926
3753
3310
2555
1691
976
510
210
-12
-140
-138
-59
-8
-39
-120
-214
-332
-497
-692
-882
-1049
-1204
-1333
-1394
-1372
-1302
-1244
-1221
-1212
-1195
-1172
-1158
-1148
-1117
-1039
-924
-814
-741
-705
-677
-642
-623
-660
-758
-874
-964
-1017
-1063
-1121
-1173
-1182
-1137
-1079
-1055
-1061
-1054
-995
-897
-813
-776
-763
-728
-662
-598
-577
-594
-614
-611
-602
-610
-625
-613
-557
-470
-371
-269
-180
-128
-135
-185
-237
-267
-279
-281
-258
-210
-180
-218
-296
-304
-181
-17
21
-109
-256
-244
-77
68
71
1
7
101
149
67
-57
-79
9
74
20
-94
-139
-69
48
124
123
54
-60
-179
-240
-211
-136
-107
-154
-207
-182
-83
-13
-59
-208
-375
-493
-570
-645
-723
-768
-743
-649
-522
-399
-301
-232
-190
-169
-170
-195
-246
-303
-332
-310
-251
-193
-158
-130
-80
-8
53
83
94
106
119
113
92
79
92
113
112
85
61
75
134
203
236
210
146
98
93
107
86
14
-57
-55
26
112
126
70
9
-17
-35
-95
-195
-281
-318
-326
-341
-351
-316
-238
-174
-180
-231
-263
-255
-261
-335
-445
-491
-422
-293
-210
-205
-221
-185
-97
-25
-27
-98
-184
-241
-260
-254
-236
-210
-166
-89
35
203
385
540
650
742
844
933
971
976
1047
1254
1539
1795
2047
2484
3221
4071
4659
4777
4585
4384
4241
3927
3249
2321
1463
888
555
340
222
251
398
524
508
355
153
-33
-201
-378
-570
-752
-882
-909
-806
-618
-440
-366
-412
-522
-617
-654
-643
-609
-556
-471
-357
-264
-237
-248
-205
-64
102
182
169
164
238
329
331
254
233
351
507
525
378
226
223
340
422
384
285
203
115
-45
-249
-377
-355
-256
-225
-281
-280
-78
276
564
613
472
329
294
304
258
198
302
688
1285
1897
2379
2698
2838
2735
2339
1699
960
278
-227
-466
-386
-15
508
996
1313
1399
1214
738
8
-827
-1566
-2078
-2337
-2368
-2185
-1813
-1334
-862
-473
-206
-100
-189
-418
-642
-741
-724
-661
-532
-224
306
897
1305
1453
1464
1446
1327
972
424
-96
-419
-604
-814
-1083
-1268
-1232
-1006
-742
-564
-507
-566
-715
-892
-996
-969
-855
-750
-678
-574
-387
-172
-32
-4
-33
-53
-67
-111
-167
-152
-10
203
363
397
331
223
102
-25
-128
-156
-100
-18
35
59
105
202
335
456
519
486
333
84
-181
-384
-525
-671
-853
-1013
-1048
-928
-721
-536
-430
-394
-395
-422
-482
-573
-660
-708
-700
-654
-592
-510
-377
-190
-19
42
-38
-177
-261
-246
-185
-135
-78
29
168
246
214
134
122
216
339
405
416
456
570
710
792
796
785
829
921
1009
1105
1307
1684
2163
2551
2703
2657
2562
2504
2417
2194
1859
1593
1571
1792
2061
2137
1906
1441
917
450
-6
-578
-1295
-1987
-2378
-2324
-1941
-1500
-1206
-1076
-1012
-940
-874
-877
-983
-1166
-1352
-1459
-1437
-1316
-1181
-1096
-1055
-1014
-965
-948
-993
-1066
-1097
-1045
-943
-858
-828
-845
-879
-902
-885
-811
-688
-554
-447
-371
-309
-265
-269
-344
-476
-620
-738
-820
-876
-915
-939
-942
-914
-851
-766
-681
-609
-542
-466
-396
-372
-409
-465
-465
-380
-263
-191
-185
-204
-197
-160
-129
-128
-144
-154
-169
-202
-250
-274
-245
-183
-139
-149
-204
-258
-276
-256
-217
-181
-149
-111
-60
1
52
80
85
79
74
63
44
21
2
-13
-37
-80
-128
-159
-173
-192
-237
-290
-313
-284
-225
-189
-220
-325
-469
-600
-690
-769
-911
-1161
-1465
-1693
-1739
-1596
-1330
-1000
-621
-205
209
578
897
1178
1388
1452
1332
1091
869
764
774
813
806
741
664
629
653
706
748
753
726
687
652
630
636
674
732
770
766
735
714
730
773
829
912
1050
1230
1371
1354
1132
788
474
282
176
42
-171
-403
-562
-623
-632
-630
-610
-551
-460
-359
-235
-39
252
593
904
1134
1283
1360
1357
1270
1132
992
881
784
681
590
563
640
798
958
1057
1088
1099
1120
1127
1066
951
880
955
1159
1362
1486
1611
1896
2356
2789
2966
2872
2713
2649
2606
2377
1896
1334
927
744
673
583
462
370
340
344
343
324
288
227
142
42
-62
-168
-282
-386
-451
-469
-451
-409
-344
-256
-156
-45
85
221
315
327
273
213
179
135
37
-94
-186
-205
-190
-188
-175
-86
89
277
409
495
596
721
804
786
690
597
554
537
500
439
389
383
422
487
550
592
599
570
517
468
449
472
531
607
678
729
758
777
813
881
969
1050
1101
1131
1151
1151
1090
954
784
650
583
553
515
467
449
487
554
603
624
645
677
687
632
524
430
416
476
550
590
600
625
696
801
894
930
894
800
677
556
449
351
254
167
107
83
90
122
176
246
301
309
274
236
235
259
268
257
278
383
549
690
735
700
650
621
584
496
364
242
179
179
211
253
306
372
443
502
536
546
544
551
582
621
632
593
529
499
537
618
677
673
624
573
546
535
524
501
460
383
269
148
78
89
155
204
179
97
30
40
118
195
204
145
73
44
64
94
102
101
120
164
196
191
153
110
79
43
-15
-93
-170
-224
-247
-231
-177
-109
-61
-43
-16
65
191
300
333
312
318
412
579
729
780
740
703
766
931
1114
1267
1463
1819
2316
2745
2897
2770
2552
2377
2161
1734
1098
466
59
-98
-143
-179
-182
-91
68
189
193
89
-71
-255
-453
-643
-781
-836
-827
-795
-759
-699
-584
-428
-294
-224
-185
-109
22
146
194
163
108
60
-4
-104
-223
-344
-500
-749
-1075
-1360
-1488
-1447
-1311
-1125
-858
-469
-4
430
762
991
1138
1184
1098
912
717
594
550
541
545
585
681
812
924
970
935
832
693
557
448
369
315
289
301
341
370
360
324
292
253
162
5
-167
-286
-344
-388
-428
-386
-178
182
565
841
989
1077
1151
1169
1048
776
444
166
-8
-104
-156
-150
-47
149
365
515
575
588
591
565
467
302
136
36
5
-1
-22
-59
-106
-179
-286
-394
-453
-450
-438
-475
-550
-567
-434
-165
117
275
262
131
-33
-190
-339
-477
-576
-603
-546
-410
-192
92
376
569
627
594
561
555
524
416
258
143
133
207
308
400
488
578
661
726
786
852
908
911
829
672
494
361
304
282
222
103
-11
-20
101
280
425
507
528
476
322
102
-64
-86
-28
-58
-253
-496
-587
-465
-276
-218
-339
-496
-528
-417
-268
-173
-122
-44
34
269
472
698
912
1011
918
677
418
211
-5
-312
-647
-823
-724
-440
-166
23
209
468
738
903
954
989
1082
1233
1458
1843
2433
3079
3509
3601
3495
3403
3339
3104
2537
1736
989
523
340
286
219
96
-43
-136
-158
-144
-162
-263
-441
-641
-795
-838
-755
-595
-478
-511
-676
-829
-844
-752
-717
-839
-1031
-1120
-1034
-860
-743
-731
-760
-756
-712
-663
-648
-667
-696
-710
-704
-687
-667
-633
-548
-372
-114
153
338
410
426
453
477
408
189
-114
-352
-450
-470
-521
-621
-660
-543
-313
-114
-42
-61
-63
1
82
118
101
63
49
82
164
274
363
403
431
520
690
877
998
1043
1062
1062
973
747
451
214
92
10
-113
-243
-270
-158
-13
26
-65
-195
-265
-258
-217
-168
-99
17
193
419
649
787
746
532
273
136
179
305
366
317
241
247
329
360
221
-79
-396
-569
-546
-393
-216
-70
53
167
252
268
186
10
-221
-450
-618
-685
-651
-554
-433
-313
-202
-109
-37
10
42
69
88
102
127
177
239
273
247
175
115
108
156
234
328
438
550
630
651
619
560
486
391
287
214
205
251
305
339
358
380
414
452
474
461
394
293
214
198
219
199
96
-32
-97
-86
-80
-136
-213
-222
-142
-45
2
12
39
90
113
77
11
-42
-79
-127
-192
-250
-271
-249
-196
-111
15
174
345
519
697
864
980
1026
1014
972
924
887
885
927
996
1107
1359
1877
2639
3400
3866
3960
3866
3788
3696
3376
2711
1859
1110
637
400
279
214
200
221
234
209
159
93
-8
-161
-350
-527
-651
-718
-732
-695
-625
-564
-558
-612
-682
-710
-672
-600
-542
-510
-468
-385
-287
-235
-265
-333
-361
-320
-271
-286
-374
-467
-502
-472
-424
-389
-367
-338
-283
-196
-83
25
76
41
-47
-114
-119
-98
-116
-201
-312
-390
-408
-383
-348
-325
-310
-275
-188
-37
151
322
443
521
594
681
750
753
675
552
448
403
399
401
396
411
477
577
654
668
630
582
537
470
363
244
160
124
106
94
122
232
397
528
557
505
458
457
466
427
339
264
250
288
333
358
370
381
391
381
321
190
4
-184
-296
-291
-197
-84
11
113
269
471
653
743
731
667
601
552
499
427
356
317
323
350
364
367
416
561
793
1026
1172
1229
1300
1477
1734
1914
1870
1611
1289
1034
836
619
429
503
1055
2019
3059
3861
4365
4702
4920
4871
4391
3520
2488
1488
521
-499
-1528
-2365
-2830
-2943
-2903
-2894
-2920
-2843
-2547
-2062
-1539
-1114
-819
-596
-383
-176
-13
60
20
-134
-372
-609
-753
-766
-694
-618
-586
-585
-598
-643
-724
-776
-692
-420
-39
294
478
549
637
830
1064
1173
1032
687
314
50
-114
-280
-488
-655
-664
-478
-141
285
751
1179
1458
1524
1448
1390
1442
1537
1528
1340
1040
762
594
517
427
216
-151
-598
-983
-1198
-1243
-1208
-1184
-1192
-1202
-1193
-1178
-1183
-1206
-1224
-1224
-1224
-1244
-1267
-1245
-1139
-973
-831
-792
-867
-998
-1116
-1192
-1238
-1268
-1278
-1239
-1144
-1021
-932
-919
-963
-998
-987
-960
-973
-1025
-1039
-945
-768
-603
-518
-498
-492
-476
-452
-401
-291
-141
-47
-91
-238
-357
-377
-378
-506
-801
-1126
-1303
-1279
-1151
-1029
-932
-801
-601
-369
-173
-50
-7
-40
-136
-260
-359
-403
-409
-409
-407
-382
-330
-288
-299
-365
-435
-456
-411
-331
-246
-168
-100
-55
-43
-44
-18
51
108
67
-97
-304
-431
-425
-339
-245
-155
-34
107
185
136
0
-111
-142
-166
-291
-520
-729
-792
-706
-583
-526
-545
-574
-563
-525
-507
-538
-595
-623
-589
-505
-422
-374
-319
-190
11
173
168
9
-130
-101
44
105
1
-81
124
630
1118
1235
950
554
325
242
66
-349
-882
-1279
-1393
-1266
-1026
-767
-531
-345
-234
-187
-165
-141
-123
-134
-173
-224
-257
-249
-185
-80
11
19
-80
-228
-330
-336
-276
-218
-204
-221
-230
-209
-165
-111
-61
-23
-3
1
-6
-13
-23
-48
-102
-187
-287
-374
-422
-414
-354
-266
-176
-93
1
128
288
446
575
677
778
886
959
930
791
620
520
506
504
478
537
844
1412
2011
2353
2357
2202
2095
2035
1842
1409
851
404
