67
74
19
-23
4
67
85
43
9
56
175
295
356
363
359
369
401
464
556
643
675
646
611
634
726
831
892
909
914
925
931
924
913
909
897
859
809
774
761
731
662
580
536
536
536
488
397
303
219
129
26
-64
-114
-148
-213
-327
-445
-515
-527
-515
-510
-530
-579
-655
-741
-807
-850
-896
-969
-1041
-1068
-1050
-1046
-1097
-1160
-1148
-1034
-896
-832
-870
-945
-987
-980
-960
-968
-1008
-1053
-1076
-1064
-1031
-998
-969
-928
-865
-797
-750
-733
-730
-732
-748
-778
-790
-754
-692
-659
-680
-714
-708
-662
-618
-605
-597
-574
-550
-556
-586
-601
-582
-555
-548
-549
-532
-499
-493
-529
-570
-558
-490
-427
-431
-510
-605
-654
-629
-559
-492
-464
-468
-465
-424
-349
-286
-273
-300
-315
-273
-190
-123
-132
-209
-298
-347
-354
-378
-460
-586
-706
-784
-830
-872
-904
-891
-830
-773
-791
-890
-995
-1019
-951
-857
-816
-842
-890
-913
-898
-865
-834
-825
-848
-876
-846
-692
-420
-114
147
369
613
896
1136
1212
1082
780
337
-255
-1000
-1825
-2594
-3216
-3696
-4095
-4413
-4564
-4446
-4043
-3481
-2957
-2600
-2386
-2176
-1861
-1478
-1166
-1004
-951
-905
-821
-735
-668
-590
-481
-390
-381
-454
-529
-537
-496
-463
-455
-430
-356
-274
-249
-295
-354
-355
-284
-187
-126
-127
-167
-201
-209
-206
-211
-219
-206
-164
-116
-95
-112
-141
-157
-155
-141
-123
-112
-122
-146
-157
-120
-44
24
59
82
120
160
167
145
144
197
279
327
333
343
397
474
535
569
602
651
706
748
769
772
756
735
735
759
777
745
654
548
480
461
457
433
376
298
227
170
112
33
-60
-119
-123
-121
-194
-353
-507
-572
-565
-593
-708
-854
-923
-900
-875
-919
-1007
-1056
-1033
-978
-951
-968
-1017
-1080
-1135
-1154
-1136
-1110
-1113
-1136
-1133
-1090
-1066
-1115
-1199
-1212
-1097
-928
-853
-928
-1058
-1112
-1055
-962
-919
-934
-959
-970
-986
-1006
-979
-870
-736
-687
-764
-883
-922
-841
-738
-718
-789
-869
-863
-774
-677
-646
-679
-704
-650
-518
-399
-379
-450
-518
-506
-433
-391
-419
-460
-445
-392
-379
-439
-519
-544
-505
-460
-449
-450
-419
-356
-287
-223
-153
-81
-40
-68
-168
-306
-450
-576
-663
-691
-672
-647
-660
-711
-755
-753
-722
-713
-755
-826
-861
-821
-727
-666
-706
-817
-891
-847
-744
-727
-855
-1031
-1092
-981
-775
-576
-392
-172
89
327
486
586
676
770
816
722
406
-143
-845
-1564
-2203
-2761
-3287
-3781
-4155
-4312
-4215
-3898
-3426
-2881
-2361
-1952
-1660
-1412
-1157
-936
-830
-840
-859
-790
-640
-498
-424
-396
-365
-313
-263
-233
-227
-237
-261
-284
-274
-217
-139
-86
-71
-77
-90
-117
-158
-191
-182
-134
-91
-85
-99
-100
-72
-31
8
49
97
130
122
78
34
16
25
44
68
98
131
158
185
215
246
268
285
316
362
404
424
430
445
478
515
550
606
694
778
807
785
783
864
1003
1104
1104
1035
971
945
931
897
849
816
812
806
769
699
623
573
551
535
496
413
295
175
83
22
-31
-93
-162
-227
-288
-359
-449
-544
-622
-670
-702
-744
-798
-847
-874
-885
-903
-928
-942
-936
-922
-930
-967
-1011
-1039
-1051
-1053
-1039
-988
-912
-864
-883
-948
-1000
-1010
-1002
-1017
-1057
-1087
-1086
-1073
-1074
-1083
-1063
-988
-884
-811
-811
-865
-919
-927
-892
-854
-839
-840
-831
-807
-787
-773
-738
-658
-548
-464
-444
-469
-488
-472
-440
-419
-406
-383
-359
-366
-412
-460
-465
-428
-395
-388
-386
-356
-310
-286
-289
-276
-213
-130
-87
-109
-164
-211
-242
-274
-304
-325
-354
-424
-537
-652
-727
-768
-813
-868
-902
-892
-854
-828
-823
-816
-791
-758
-736
-732
-741
-757
-781
-811
-840
-853
-843
-814
-763
-688
-567
-393
-177
59
302
543
759
903
924
812
576
198
-369
-1132
-1980
-2720
-3233
-3566
-3856
-4151
-4325
-4198
-3732
-3099
-2551
-2226
-2066
-1910
-1656
-1344
-1088
-953
-904
-853
-759
-655
-578
-514
-423
-309
-241
-284
-408
-508
-504
-405
-288
-215
-189
-184
-180
-179
-182
-179
-161
-133
-112
-107
-120
-142
-168
-188
-193
-179
-151
-118
-99
-110
-150
-189
-191
-141
-69
-21
-10
-14
3
42
77
79
54
37
53
91
116
109
92
105
174
285
392
458
476
469
468
486
514
542
571
612
665
707
719
711
714
746
787
803
774
708
627
545
480
447
443
436
389
295
191
116
76
38
-27
-118
-210
-285
-356
-444
-542
-619
-648
-644
-648
-686
-746
-797
-833
-870
-912
-939
-929
-904
-909
-963
-1032
-1068
-1055
-1023
-1001
-998
-1005
-1017
-1035
-1051
-1048
-1017
-969
-927
-907
-913
-932
-942
-926
-890
-855
-843
-843
-833
-813
-807
-838
-881
-888
-833
-747
-688
-684
-707
-712
-678
-622
-576
-556
-549
-540
-528
-524
-533
-538
-517
-471
-431
-434
-476
-521
-535
-515
-484
-454
-427
-400
-380
-369
-354
-321
-272
-222
-179
-144
-122
-127
-166
-228
-294
-353
-412
-480
-562
-653
-743
-817
-860
-868
-852
-828
-808
-797
-804
-833
-867
-881
-861
-828
-812
-821
-834
-837
-842
-862
-879
-871
-840
-801
-752
-649
-457
-192
92
360
621
870
1042
1050
856
494
-4
-655
-1469
-2352
-3123
-3647
-3960
-4202
-4438
-4559
-4387
-3893
-3264
-2757
-2484
-2341
-2150
-1837
-1480
-1197
-1026
-922
-824
-715
-608
-500
-382
-264
-186
-183
-242
-307
-333
-312
-271
-233
-203
-169
-133
-110
-114
-136
-145
-117
-62
-15
-7
-41
-96
-144
-168
-160
-119
-61
-15
-6
-30
-64
-81
-73
-47
-11
23
43
40
21
13
34
82
131
157
158
152
156
175
205
241
285
340
401
457
497
522
544
574
614
660
707
749
778
788
779
762
751
752
758
756
734
682
607
526
465
436
424
406
359
281
180
78
-6
-63
-103
-149
-218
-308
-402
-487
-558
-614
-650
-670
-688
-724
-779
-838
-884
-910
-918
-916
-909
-904
-914
-941
-979
-1013
-1027
-1019
-1000
-989
-1004
-1043
-1084
-1096
-1072
-1032
-1002
-991
-986
-975
-962
-957
-955
-937
-895
-843
-804
-787
-778
-765
-746
-728
-711
-682
-637
-592
-572
-586
-613
-620
-591
-540
-494
-468
-459
-453
-441
-420
-389
-349
-309
-279
-269
-283
-318
-362
-393
-394
-366
-331
-313
-317
-329
-329
-315
-284
-234
-160
-81
-30
-23
-42
-46
-14
31
49
15
-64
-165
-270
-370
-459
-525
-566
-589
-612
-643
-675
-691
-685
-668
-655
-648
-640
-630
-634
-667
-716
-740
-715
-660
-624
-630
-666
-697
-690
-615
-446
-188
115
402
653
888
1111
1262
1258
1069
731
263
-385
-1253
-2241
-3121
-3703
-4006
-4211
-4436
-4591
-4477
-4029
-3416
-2899
-2589
-2382
-2110
-1731
-1354
-1104
-990
-921
-808
-647
-484
-351
-248
-171
-135
-147
-184
-198
-167
-108
-60
-42
-44
-45
-39
-35
-40
-39
-12
41
91
106
84
54
48
76
119
154
165
154
134
126
149
197
245
264
247
217
198
198
210
225
248
281
316
339
342
336
344
382
444
513
568
602
621
640
671
719
787
862
927
966
978
986
1011
1050
1087
1109
1118
1122
1114
1083
1028
968
925
902
884
853
803
738
662
580
505
448
408
369
315
242
153
52
-57
-155
-223
-258
-288
-347
-437
-520
-565
-575
-579
-594
-607
-610
-628
-691
-785
-850
-846
-796
-763
-779
-818
-834
-824
-815
-822
-826
-804
-767
-747
-760
-785
-785
-749
-695
-653
-633
-623
-605
-579
-555
-537
-513
-472
-418
-369
-343
-341
-353
-371
-391
-400
-379
-328
-280
-270
-304
-343
-342
-294
-232
-196
-191
-201
-208
-214
-224
-226
-208
-176
-156
-167
-197
-222
-229
-225
-217
-190
-130
-58
-14
-15
-30
-14
47
130
203
257
289
291
254
188
118
53
-21
-123
-251
-375
-472
-536
-571
-586
-577
-544
-502
-475
-484
-523
-566
-587
-581
-568
-562
-561
-554
-548
-560
-586
-597
-585
-571
-564
-526
-390
-139
164
447
697
943
1175
1309
1257
1004
582
0
-763
-1677
-2595
-3340
-3849
-4214
-4556
-4846
-4904
-4594
-3988
-3341
-2872
-2593
-2357
-2037
-1643
-1274
-1003
-827
-716
-641
-577
-490
-355
-194
-70
-21
-28
-41
-31
-10
10
37
87
157
219
242
220
177
149
162
207
259
289
287
261
225
190
168
170
197
234
263
270
259
245
245
266
298
327
344
350
354
359
362
362
371
413
491
577
630
637
630
4092
3856
3530
2821
1716
1131
2350
5531
8986
10424
9095
6466
4637
4225
4034
2694
300
-1674
-1848
-88
2610
5067
6645
7304
7337
7086
6778
6452
5946
5104
4001
2976
2424
2574
3313
4234
4889
5035
4687
4044
3357
2828
2563
2569
2776
3061
3300
3395
3312
3085
2825
2672
2715
2939
3198
3336
3288
3128
2976
2877
2795
2704
2648
2678
2758
2800
2808
2935
3318
3867
4280
4308
3990
3603
3353
3181
2875
2337
1700
1238
1137
1372
1761
2117
2369
2560
2746
2870
2861
2741
2596
2419
2137
1785
1560
1587
1710
1663
1531
1751
2540
3434
3706
3292
2975
3476
4487
4900
4035
2391
1019
389
121
-287
-775
-967
-731
-276
251
939
1806
2559
2866
2812
2905
3503
4433
5231
5687
5946
6159
6218
5881
5082
4039
2991
2030
1159
475
190
428
1082
1895
2650
3264
3734
4030
4111
3963
3621
3221
2947
2945
3170
3421
3571
3707
3989
4342
4439
4158
3900
4216
5151
6043
6205
5659
5015
4676
4431
3926
3317
3148
3627
4335
4761
4899
5106
5465
5551
4941
3756
2542
1697
1193
863
750
1040
1732
2543
3178
3604
3961
4290
4414
4168
3667
3219
3042
3116
3286
3489
3737
3979
4070
3930
3691
3616
3821
4139
4286
4114
3785
3643
3930
4593
5315
5743
5731
5399
4964
4539
4084
3494
2684
1680
692
81
151
895
1939
2825
3360
3685
3981
4230
4277
4106
3862
3657
3431
3127
2922
3114
3724
4353
4551
4350
4280
4786
5674
6289
6206
5671
5266
5204
5100
4447
3270
2120
1506
1438
1551
1602
1724
2160
2873
3551
3908
4011
4170
4605
5206
5676
5852
5900
6143
6737
7430
7807
7748
7570
7651
7950
8006
7526
6805
6397
6392
6273
5579
4584
4045
4286
4802
4847
4310
3767
3730
4034
4099
3653
3024
2725
2892
3273
3569
3699
3752
3787
3780
3737
3731
3798
3839
3750
3549
3381
3397
3621
3934
4109
3951
3484
2997
2817
3007
3293
3382
3321
3378
3599
3746
3666
3631
4010
4689
5079
4796
4172
3894
4168
4490
4283
3566
2832
2433
2290
2177
2056
2054
2190
2306
2268
2103
1956
1932
1991
1988
1810
1498
1295
1460
1978
2534
2809
2791
2732
2863
3139
3297
3143
2786
2515
2495
2593
2528
2236
2003
2183
2787
3479
4028
4608
5500
6541
7087
6667
5543
4462
3864
3497
2877
1957
1202
1054
1506
2243
3015
3767
4448
4885
4962
4778
4571
4472
4401
4269
4142
4140
4287
4487
4647
4797
5038
5340
5479
5270
4833
4540
4642
4962
5043
4657
4122
4029
4638
5568
6183
6219
5980
5915
6101
6163
5728
4841
3881
3184
2797
2596
2535
2693
3087
3546
3848
3960
4075
4370
4764
4942
4731
4333
4112
4220
4451
4493
4307
4118
4092
4148
4118
4029
4084
4387
4800
5103
5247
5383
5628
5886
5944
5667
5100
4428
3852
3473
3240
3030
2772
2546
2518
2735
3071
3368
3583
3795
4061
4349
4603
4845
5076
5185
5096
4909
4811
4866
4965
5017
5119
5415
5818
6025
5873
5571
5455
5553
5499
4955
4027
3210
2929
3145
3504
3712
3742
3783
3967
4193
4242
3971
3427
2828
2371
2134
2096
2197
2462
3000
3911
5145
6440
7486
8198
8775
9457
10138
10347
9743
8617
7772
7804
8490
8974
8597
7495
6383
5770
5472
4911
3768
2322
1200
821
1147
1845
2581
3189
3653
4005
4264
4409
4400
4242
3976
3665
3385
3209
3212
3433
3809
4175
4345
4235
3917
3558
3318
3278
3433
3715
4027
4266
4358
4310
4215
4195
4237
4218
4048
3783
3527
3280
2984
2691
2565
2651
2728
2592
2462
2854
3907
5010
5350
4815
4110
3928
4139
4039
3264
2220
1559
1479
1673
1813
1887
2041
2302
2551
2699
2749
2730
2655
2505
2310
2129
2047
2163
2510
2956
3283
3382
3349
3320
3284
3142
2866
2574
2425
2464
2620
2789
2918
3009
3112
3271
3451
3524
3444
3339
1152
3516
3504
3481
3475
3506
3551
3567
3538
3497
3485
3509
3528
3505
3456
3436
3469
3514
3508
3442
3376
3377
3436
3471
3417
3300
3215
3222
3288
3326
3294
3230
3195
3201
3203
3163
3097
3053
3052
3066
3057
3027
3004
3014
3046
3070
3067
3040
3003
2973
2961
2964
2964
2952
2940
2955
3003
3050
3055
3013
2958
2923
2899
2862
2813
2780
2774
2772
2743
2692
2656
2654
2659
2635
2577
2519
2496
2522
2588
2680
2781
2878
2963
3041
3118
3189
3235
3251
3251
3253
3255
3241
3204
3164
3144
3144
3146
3142
3134
3132
3134
3143
3164
3198
3233
3260
3268
3228
3093
2839
2498
2148
1847
1588
1348
1145
1045
1105
1335
1750
2386
3245
4209
5078
5716
6159
6546
6938
7221
7210
6841
6258
5711
5344
5114
4873
4531
4144
3844
3698
3663
3639
3555
3412
3249
3111
3032
3015
3021
2995
2921
2844
2816
2846
2892
2919
2915
2891
2854
2810
2769
2740
2716
2680
2627
2577
2552
2564
2606
2664
2712
2723
2686
2630
2590
2576
2566
2532
2473
2412
2374
2371
2396
2426
2427
2382
2315
2270
2272
2299
2312
2301
2285
2281
2269
2229
2168
2103
2025
1926
1832
1793
1808
1801
1725
1643
1675
1833
1960
1899
1685
1518
1527
1618
1586
1358
1048
805
663
570
511
539
692
930
1198
1489
1832
2215
2561
2797
2916
2958
2958
2922
2871
2840
2848
2875
2892
2914
3003
3188
3406
3542
3541
3466
3431
3475
3526
3499
3403
3334
3355
3429
3476
3467
3452
3484
3553
3605
3614
3601
3595
3601
3600
3582
3560
3549
3548
3556
3570
3579
3577
3560
3536
3507
3464
3407
3360
3346
3359
3364
3343
3323
3330
3338
3296
3197
3107
3092
3137
3168
3143
3100
3098
3134
3157
3148
3140
3163
3191
3170
3099
3039
3039
3074
3073
3004
2917
2872
2873
2864
2809
2743
2727
2762
2781
2729
2654
2672
2822
2992
3006
2821
2602
2556
2704
2845
2771
2507
2286
2296
2473
2593
2529
2377
2317
2402
2532
2613
2673
2795
2971
3103
3124
3098
3129
3235
3329
3328
3247
3156
3108
3095
3090
3090
3101
3123
3147
3174
3207
3236
3243
3225
3211
3206
3162
3016
2747
2411
2087
1808
1564
1346
1174
1087
1116
1290
1658
2261
3071
3963
4774
5416
5929
6405
6859
7164
7155
6789
6223
5695
5334
5078
4788
4415
4038
3772
3656
3643
3649
3603
3477
3285
3079
2918
2826
2778
2751
2744
2760
2771
2734
2658
2613
2643
2704
2697
2582
2440
2386
2448
2538
2558
2511
2486
2542
2630
2646
2553
2423
2356
2366
2381
2338
2261
2226
2273
2350
2387
2367
2329
2310
2297
2258
2188
2119
2086
2096
2118
2118
2090
2058
2043
2032
1992
1902
1786
1693
1646
1617
1566
1483
1400
1354
1342
1333
1295
1231
1167
1129
1120
1117
1099
1058
1017
1007
1033
1069
1086
1091
1121
1203
1313
1393
1414
1416
1463
1571
1691
1770
1807
1857
1967
2120
2259
2345
2398
2458
2537
2612
2651
2656
2655
2672
2703
2731
2748
2757
2762
2765
2776
2804
2844
2875
2880
2869
2882
2943
3029
3080
3051
2954
2857
2828
2879
2957
2992
2961
2909
2892
2917
2934
2900
2825
2762
2736
2725
2696
2662
2661
2715
2789
2828
2806
2745
2686
2650
2635
2630
2628
2625
2619
2613
2612
2617
2620
2611
2593
2582
2587
2595
2578
2536
2501
2497
2512
2506
2467
2425
2412
2415
2402
2383
2408
2495
2581
2585
2510
2441
2443
2479
2461
2363
2256
2205
2199
2176
2116
2072
2097
2178
2258
2311
2369
2468
2590
2682
2717
2724
2744
2775
2784
2752
2712
2712
2758
2808
2825
2815
2816
2855
2902
2911
2871
2818
2800
2826
2866
2895
2899
2864
2762
2573
2319
2060
1835
1636
1435
1237
1092
1059
1183
1497
2025
2739
3538
4282
4890
5382
5832
6256
6560
6603
6335
5859
5368
4994
4721
4449
4117
3774
3518
3390
3344
3309
3249
3170
3084
2990
2892
2816
2773
2754
2735
2707
2672
2633
2594
2560
2539
2529
2514
2489
2470
2470
2481
2482
2461
2438
2430
2434
2434
2429
2435
2460
2483
2479
2451
2434
2447
2473
2469
2428
2383
2373
2388
2391
2358
2312
2289
2296
2312
2316
2304
2268
2203
2116
2041
2001
1983
1950
1884
1802
1732
1684
1650
1625
1610
1591
1543
1452
1345
1262
1223
1215
1210
1197
1181
1176
1186
1207
1234
1267
1306
1351
1391
1416
1438
1488
1588
1713
1803
1834
1850
1913
2024
2127
2181
2207
2257
2338
2413
2465
2521
2602
2679
2710
2701
2716
2797
2909
2985
3004
3002
3014
3032
3043
3063
3103
3142
3133
3077
3036
3068
3157
3232
3247
3224
3213
3226
3235
3217
3184
3166
3174
3196
3209
3202
3176
3146
3128
3130
3145
3150
3122
3057
2972
2896
2845
2826
2825
2815
2773
2706
2656
2673
2748
2816
2811
2734
2655
2643
2705
2778
2793
2742
2666
2614
2609
2635
2658
2652
2622
2591
2587
2606
2621
2616
2605
2615
2631
2609
2531
2436
2387
2388
2368
2271
2131
2037
2035
2076
2086
2060
2063
2139
2249
2328
2364
2410
2504
2623
2712
2759
2799
2854
2907
2933
2938
2940
2934
2895
2819
2744
2708
2711
2720
2723
2741
2796
2876
2943
2971
2979
2988
2974
2886
2699
2440
2163
1892
1612
1317
1051
886
868
989
1239
1659
2302
3145
4046
4825
5402
5848
6272
6657
6838
6658
6159
5579
5151
4908
4697
4379
3984
3661
3495
3431
3364
3249
3120
3010
2898
2758
2623
2547
2542
2564
2570
2558
2548
2540
2520
2489
2465
2460
2466
2465
2459
2457
2460
2449
2421
2392
2380
2382
2379
2358
2326
2294
2265
2233
2205
2199
2226
2268
2292
2284
2265
2265
2296
2325
2318
2269
2207
2166
2146
2127
2095
2059
2036
2022
2001
1961
1909
1856
1800
1736
1667
1600
1541
1483
1418
1345
1277
1221
1183
1160
1147
1129
1098
1062
1056
1104
1188
1260
1282
1270
1274
1323
1394
1443
1455
1464
1511
1600
1700
1776
1830
1891
1982
2091
2192
2267
2331
2405
2496
2584
2647
2685
2719
2763
2815
2865
2908
2939
2950
2941
2935
2967
3046
3139
3191
3185
3155
3152
3193
3244
3264
3245
3208
3181
3175
3184
3197
3211
3219
3218
3204
3178
3153
3143
3151
3154
3128
3073
3016
2984
2969
2948
2915
2897
2915
2948
2953
2914
2867
2859
2888
2904
2868
2793
2728
2700
2696
2681
2639
2577
2520
2486
2485
2509
2531
2527
2498
2470
2471
2493
2509
2498
2470
2437
2402
2361
2323
2302
2302
2304
2287
2248
2192
2121
2043
1977
1952
1975
2021
2057
2088
2156
2289
2459
2607
2699
2745
2776
2803
2816
2816
2816
2831
2853
2869
2875
165
7
-153
-313
-456
-623
-902
-1313
-1719
-1900
-1742
-1331
-852
-358
267
1097
1940
2422
2340
1939
1743
2038
2563
2787
2510
2107
2110
2595
3101
3149
2722
2158
1667
1123
379
-393
-811
-736
-438
-278
-274
-155
261
813
1165
1128
798
407
113
-57
-127
-109
-27
54
62
-11
-87
-87
-2
78
63
-39
-144
-183
-169
-149
-133
-107
-85
-93
-105
-77
-29
-90
-318
-548
-500
-96
404
644
536
327
298
450
538
354
-73
-540
-847
-924
-844
-754
-748
-783
-714
-487
-246
-219
-475
-828
-1030
-1019
-932
-913
-962
-978
-883
-687
-461
-293
-235
-276
-351
-416
-488
-592
-687
-698
-689
-876
-1374
-1943
-2107
-1626
-802
-199
-56
-53
269
966
1609
1727
1261
563
43
-142
-100
-7
69
202
498
944
1352
1455
1149
627
214
83
134
184
215
388
812
1392
1902
2183
2205
1996
1609
1172
870
767
697
419
-59
-403
-291
217
706
846
723
684
928
1305
1512
1422
1149
883
722
669
671
613
380
-31
-436
-584
-396
-41
249
385
447
554
767
1071
1360
1439
1132
469
-248
-655
-650
-458
-354
-353
-215
267
1011
1690
1997
1887
1558
1250
1077
1000
945
898
904
1001
1180
1354
1381
1170
826
699
1145
2118
3081
3432
3085
2553
2401
2612
2596
1810
331
-1211
-2190
-2437
-2237
-2004
-1964
-2040
-1959
-1503
-675
241
938
1357
1734
2311
2993
3425
3452
3341
3450
3739
3768
3309
2835
3137
4430
5989
6797
6458
5331
3878
2205
273
-1734
-3464
-4745
-5551
-5637
-4542
-2222
504
2469
3180
3084
2730
1970
186
-2640
-5488
-7088
-7023
-5946
-4670
-3351
-1633
606
2885
4415
4742
4063
2966
1979
1292
785
292
-148
-287
80
846
1599
1969
1904
1617
1283
833
58
-1074
-2263
-3060
-3228
-2981
-2812
-3057
-3602
-3989
-3873
-3319
-2690
-2280
-2088
-1914
-1601
-1159
-768
-592
-721
-1150
-1746
-2239
-2389
-2209
-1989
-2010
-2232
-2313
-2006
-1428
-883
-467
26
741
1396
1503
928
105
-439
-680
-1090
-2047
-3391
-4572
-5136
-4984
-4268
-3254
-2264
-1586
-1298
-1195
-1044
-843
-862
-1292
-1983
-2544
-2697
-2440
-1963
-1461
-1055
-793
-681
-701
-814
-979
-1155
-1281
-1303
-1202
-1041
-947
-976
-1063
-1096
-1055
-1011
-1020
-1030
-959
-846
-823
-909
-910
-625
-128
232
195
-125
-388
-420
-394
-589
-1043
-1537
-1832
-1873
-1748
-1550
-1339
-1178
-1133
-1168
-1141
-987
-829
-858
-1084
-1281
-1247
-1043
-904
-946
-1056
-1101
-1169
-1485
-2075
-2636
-2817
-2567
-2144
-1799
-1531
-1182
-698
-203
139
277
232
57
-176
-369
-466
-507
-559
-594
-521
-331
-180
-211
-323
-226
253
923
1357
1269
809
389
237
162
-214
-983
-1815
-2322
-2508
-2714
-3119
-3446
-3308
-2769
-2316
-2212
-2094
-1386
-62
1288
2134
2580
3079
3700
3954
3413
2307
1310
829
685
486
134
-109
6
460
1020
1445
1590
1432
1075
684
390
226
143
92
50
1
-82
-215
-373
-517
-633
-716
-740
-686
-578
-455
-332
-225
-161
-171
-240
-331
-435
-578
-727
-766
-625
-399
-269
-282
-329
-366
-573
-1108
-1793
-2188
-2035
-1538
-1107
-888
-699
-365
48
379
601
737
653
134
-752
-1537
-1734
-1321
-755
-477
-493
-485
-211
246
601
629
316
-177
-665
-1018
-1177
-1146
-998
-858
-810
-824
-786
-652
-579
-764
-1205
-1632
-1769
-1593
-1291
-1005
-745
-547
-536
-718
-807
-499
78
379
60
-531
-662
-43
873
1433
1476
1375
1451
1623
1626
1405
1150
1000
893
700
440
246
261
535
995
1469
1712
1581
1206
899
849
936
877
530
25
-389
-565
-519
-338
-101
126
280
350
358
337
280
171
43
-44
-54
3
92
186
257
269
200
76
-40
-98
-100
-87
-93
-113
-133
-143
-155
-190
-262
-359
-450
-507
-533
-548
-550
-497
-350
-158
-37
-55
-146
-162
-13
245
470
560
517
417
345
339
375
385
305
139
-34
-129
-108
3
151
273
311
269
224
263
379
474
455
333
191
56
-123
-367
-607
-761
-836
-916
-1043
-1167
-1208
-1123
-885
-458
159
857
1481
1964
2379
2814
3211
3392
3231
2810
2340
1963
1664
1363
1041
780
662
681
767
855
887
840
689
441
142
-130
-308
-386
-418
-472
-552
-567
-421
-165
-7
-114
-417
-648
-621
-439
-350
-450
-592
-600
-501
-453
-506
-540
-454
-335
-349
-498
-597
-505
-274
-85
-29
-4
104
261
310
147
-178
-526
-806
-1042
-1294
-1556
-1730
-1702
-1457
-1099
-789
-623
-597
-646
-703
-755
-819
-894
-957
-988
-991
-972
-918
-806
-651
-534
-555
-717
-892
-946
-889
-872
-1027
-1287
-1443
-1386
-1245
-1256
-1499
-1800
-1926
-1823
-1643
-1544
-1512
-1419
-1215
-1009
-932
-970
-983
-894
-789
-805
-943
-1028
-890
-565
-281
-230
-372
-503
-467
-288
-112
-44
-70
-111
-129
-129
-115
-62
55
201
297
271
131
-21
-70
2
92
72
-78
-240
-271
-161
-40
-57
-232
-457
-617
-690
-739
-822
-920
-967
-927
-820
-681
-520
-350
-220
-213
-364
-595
-757
-778
-740
-788
-947
-1067
-967
-638
-295
-204
-439
-832
-1141
-1270
-1326
-1468
-1724
-1934
-1921
-1675
-1364
-1166
-1124
-1154
-1178
-1184
-1194
-1210
-1228
-1257
-1275
-1211
-1010
-739
-574
-632
-853
-1076
-1219
-1320
-1413
-1447
-1342
-1113
-856
-626
-384
-107
106
90
-223
-717
-1196
-1548
-1810
-2074
-2360
-2560
-2526
-2187
-1614
-951
-321
246
774
1271
1691
1954
2001
1847
1590
1352
1171
947
532
-88
-736
-1167
-1270
-1138
-949
-815
-733
-629
-426
-91
316
617
615
262
-268
-714
-941
-1009
-1081
-1246
-1458
-1591
-1554
-1339
-1045
-832
-801
-904
-1004
-1026
-1018
-1067
-1142
-1137
-1062
-1079
-1293
-1553
-1584
-1339
-1126
-1279
-1754
-2137
-2104
-1758
-1462
-1396
-1395
-1224
-879
-558
-401
-367
-377
-459
-687
-1011
-1256
-1297
-1205
-1156
-1230
-1337
-1344
-1222
-1077
-1031
-1109
-1249
-1373
-1446
-1470
-1463
-1438
-1408
-1391
-1393
-1408
-1441
-1502
-1571
-1595
-1530
-1391
-1262
-1217
-1250
-1291
-1280
-1220
-1155
-1109
-1079
-1046
-1004
-953
-887
-796
-684
-568
-469
-384
-299
-204
-108
-45
-27
-28
0
67
124
114
51
21
75
148
113
-75
-284
-319
-134
132
304
339
333
389
508
610
623
541
386
178
-51
-245
-348
-336
-238
-116
-23
23
35
42
85
167
214
139
-63
-262
-316
-221
-129
-168
-280
-324
-319
-512
-1107
-1945
-2557
-2590
-2138
-1615
-1335
-1226
-985
-437
278
847
1027
809
377
-36
-280
-348
-325
-297
-278
-233
-145
-56
-10
5
31
62
14
-178
-445
-599
-503
-232
-4
26
-92
-191
-166
-54
61
128
141
83
-63
-302
-615
-991
-1423
-1858
-2186
-2300
-2147
-1744
-1152
-460
231
842
1360
1822
2245
2563
2661
2481
2092
1660
1343
1179
1078
907
624
313
102
50
100
144
110
-4
-131
-169
-66
94
148
-4
-277
-451
-395
-200
-84
-156
-318
-376
-236
12
203
247
185
126
155
278
426
508
466
308
94
-108
-278
-460
-711
-1022
-1303
-1451
-1442
-1338
-1207
-1073
-933
-796
-678
-588
-520
-479
-483
-533
-585
-602
-605
-646
-742
-852
-931
-976
-1007
-1023
-1027
-1052
-1134
-1257
-1348
-1357
-1321
-1324
-1388
-1442
-1421
-1372
-1424
-1634
-1901
-2046
-1983
-1790
-1612
-1513
-1429
-1264
-1001
-719
-529
-492
-585
-734
-864
-947
-988
-1016
-1054
-1093
-1087
-974
-740
-448
-220
-145
-192
-233
-183
-99
-119
-299
-524
-617
-523
-370
-317
-375
-401
-283
-72
78
82
-3
-89
-172
-309
-509
-682
-740
-695
-632
-582
-500
-347
-166
-51
-43
-87
-116
-142
-232
-414
-627
-780
-831
-813
-777
-746
-712
-669
-632
-622
-659
-754
-907
-1090
-1250
-1328
-1298
-1196
-1089
-1027
-1020
-1053
-1132
-1259
-1403
-1517
-1601
-1683
-1754
-1732
-1554
-1291
-1106
-1040
-939
-672
-413
-617
-1512
-2723
-3523
-3528
-3051
-2652
-2464
-2109
-1281
-182
732
1290
1650
1802
1347
-14
-1873
-3296
-3708
-3430
-3200
-3297
-3300
-2689
-1490
-248
515
731
642
474
331
294
465
866
1367
1763
1956
2027
2115
2200
2146
1987
2079
2758
3808
4452
4138
3247
2726
2831
2546
624
-2850
-6210
-7751
-7281
-6013
-5056
-4349
-3123
-1064
1274
3074
3871
3579
2360
659
-853
-1660
-1839
-1873
-1960
-1762
-985
-95
-39
-1150
-2635
-3375
-3105
-2597
-2660
-3157
-3189
-2147
-401
1074
1587
1148
224
-742
-1519
-2036
-2316
-2476
-2677
-2976
-3209
-3132
-2710
-2206
-1967
-2127
-2501
-2789
-2844
-2730
-2560
-2359
-2144
-2044
-2251
-2799
-3454
-3900
-4002
-3878
-3696
-3482
-3145
-2651
-2104
-1660
-1410
-1353
-1471
-1741
-2096
-2399
-2531
-2501
-2433
-2414
-2387
-2219
-1859
-1416
-1057
-889
-903
-1014
-1130
-1204
-1224
-1187
-1073
-873
-653
-524
-543
-600
-495
-201
22
-140
-679
-1221
-1394
-1199
-944
-843
-801
-600
-190
287
696
1020
1264
1375
1283
1037
765
552
398
267
164
106
67
56
171
445
728
783
566
291
186
238
300
370
587
991
1285
1055
255
-623
-943
-532
146
455
259
98
620
1757
2549
1983
72
-1985
-2878
-2404
-1517
-1182
-1340
-1143
-7
1769
3354
4153
4148
3628
2868
2067
1401
983
800
761
827
1051
1401
1738
1939
1969
1859
1621
1278
931
782
1014
1632
2416
3037
3270
3101
2670
2145
1620
1111
597
57
-510
-1060
-1503
-1738
-1727
-1508
-1155
-709
-178
412
997
1509
1935
2310
2646
2909
3061
3091
3011
2847
2641
2438
2251
2055
1816
1560
1378
1354
1473
1613
1652
1565
1409
1246
1096
972
891
840
775
658
501
352
267
267
325
383
387
346
349
467
662
788
724
440
-57
-813
-1807
-2749
-3167
-2803
-1917
-1041
-424
206
1238
2593
3689
4019
3645
3075
2708
2490
2128
1507
843
425
324
355
298
98
-109
-172
-88
30
80
64
92
243
449
584
590
508
388
202
-109
-467
-640
-461
-16
454
839
1253
1822
2421
2716
2506
1933
1302
754
166
-618
-1545
-2330
-2671
-2455
-1819
-1050
-414
-8
258
503
725
817
689
407
174
137
278
505
746
989
1235
1443
1543
1506
1381
1289
1325
1472
1616
1655
1632
1697
1937
2251
2432
2375
2188
2071
2112
2198
2150
1901
1528
1158
885
764
821
1046
1342
1570
1683
1767
1914
2081
2137
2039
1895
1810
1714
1484
1222
1288
1900
2775
3312
3188
2673
2270
2116
1896
1323
546
-46
-290
-367
-448
-415
-44
606
1170
1345
1168
912
781
751
734
707
689
677
675
747
956
1258
1490
1507
1316
1058
873
806
831
927
1077
1235
1330
1325
1259
1199
1173
1155
1123
1064
982
888
778
615
377
113
-55
-52
23
-35
-250
-353
-51
533
844
447
-415
-964
-633
409
1500
2207
2650
3200
4012
4895
5547
5774
5513
4800
3821
2911
2358
2191
2177
2071
1866
1749
1867
2163
2447
2531
2300
1755
1147
809
876
1134
1286
1330
1538
1953
2180
1886
1410
1456
2002
1887
-38
-3337
-6003
-6344
-4657
-2748
-1883
-1552
-362
2276
5505
7868
8560
7781
6244
4574
3114
2024
1386
1181
1175
1043
756
750
1690
3682
5788
6643
5712
3823
2335
1843
1797
1331
225
-1028
-1880
-2213
-2203
-1957
-1463
-797
-194
146
229
223
203
73
-242
-672
-1005
-1038
-731
-238
234
542
623
475
161
-172
-354
-310
-107
122
287
379
417
404
343
273
264
359
558
819
1066
1194
1139
957
791
751
792
799
741
712
761
789
657
410
282
431
733
896
794
614
628
878
1134
1159
978
823
867
1051
1194
1229
1262
1422
1675
1857
1856
1709
1542
1425
1305
1086
771
489
356
372
435
465
503
640
847
926
685
168
-320
-483
-321
-111
-97
-242
-302
-115
259
631
879
990
980
849
628
439
401
523
686
765
761
781
904
1103
1290
1391
1416
1401
1321
1112
762
368
79
-22
23
108
182
296
536
922
1396
1835
2076
1968
1509
931
546
425
311
-48
-517
-676
-389
-96
-360
-1117
-1604
-1165
0
1059
1492
1629
2182
3365
4643
5324
5205
4617
3972
3406
2855
2306
1865
1642
1618
1678
1734
1762
1773
1749
1660
1498
1286
1061
886
838
952
1154
1286
1277
1230
1261
1272
992
337
-367
-660
-439
-83
-14
-217
-283
85
742
1296
1515
1481
1383
1287
1135
882
567
255
4
-152
-198
-126
29
206
352
419
376
240
81
-35
-105
-177
-288
-424
-554
-650
-683
-627
-471
-229
74
415
738
940
897
569
49
-502
-981
-1405
-1821
-2186
-2378
-2307
-2015
-1662
-1407
-1290
-1254
-1228
-1189
-1164
-1175
-1213
-1246
-1227
-1116
-895
-600
-332
-191
-204
-305
-406
-464
-478
-437
-304
-65
215
424
505
500
474
481
527
567
569
563
633
818
1015
1066
939
792
766
769
623
396
468
1111
2102
2888
3138
2999
2817
2713
2570
2313
1989
1583
971
197
-368
-335
192
628
508
-44
-510
-534
-237
19
38
-124
-304
-358
-214
76
332
387
289
264
455
728
836
713
552
504
487
302
-123
-688
-1251
-1709
-1929
-1745
-1115
-267
439
860
1195
1695
2303
2648
2436
1749
929
241
-316
-868
-1423
-1824
-1916
-1716
-1379
-1040
-720
-393
-82
145
230
185
108
67
68
23
-144
-363
-496
-485
-492
-732
-1166
-1498
-1530
-1430
-1468
-1464
-777
914
2933
4074
3904
3370
3827
5461
6951
6821
4978
2731
1404
1142
1103
541
-546
-1623
-2203
-2158
-1624
-862
-141
321
467
404
274
214
269
392
474
391
148
-91
-115
161
628
1066
1288
1234
991
711
522
457
450
408
292
132
-6
-72
-65
-42
-86
-185
-233
-123
115
309
367
374
481
679
790
714
557
488
499
430
222
32
14
121
165
89
48
182
417
526
420
245
198
305
345
147
-197
-445
-484
-424
-393
-373
-286
-180
-179
-228
-86
263
382
-257
-1593
-2858
-3265
-2765
-1969
-1397
-1005
-458
332
1142
1776
2225
2475
2358
1779
993
476
485
852
1228
1424
1522
1640
1788
1941
2085
2185
2146
1910
1581
1370
1427
1705
2023
2239
2325
2283
2104
1859
1729
1856
2135
2269
2100
1750
1439
1235
1107
1146
1499
2026
2248
1875
1293
1228
1821
2294
1802
509
-452
-179
1052
2176
2526
2389
2447
2932
3497
3737
3592
3245
2818
2312
1773
1361
1209
1301
1478
1584
1552
1414
1270
1217
1283
1402
1475
1460
1398
1367
1409
1486
1532
1516
1462
1421
1435
1500
1569
1587
1537
1450
1376
1332
1305
1293
1316
1375
1435
1452
1436
1435
1467
1472
1361
1127
850
621
455
295
96
-119
-296
-401
-432
-407
-312
-98
276
804
1412
1987
2441
2776
3077
3400
3656
3642
3228
2504
1760
1295
1215
1394
1614
1733
1763
1804
1915
2028
1997
1730
1254
699
200
-155
-321
-259
25
424
744
862
858
914
1070
1139
899
396
-25
-40
331
771
1054
1231
1467
1754
1875
1660
1177
644
216
-107
-361
-471
-298
221
986
1760
2278
2372
2064
1547
1025
542
-26
-774
-1565
-2071
-2053
-1570
-914
-383
-109
-18
31
96
110
-10
-229
-440
-563
-613
-632
-604
-487
-330
-276
-417
-689
-931
-1035
-978
-751
-345
157
551
666
540
367
255
114
-198
-658
-1063
-1243
-1219
-1116
-980
-748
-387
19
336
540
706
882
1051
1197
1359
1553
1710
1765
1737
1652
1384
748
-130
-633
-116
1321
2706
3076
2457
1793
1834
2271
2120
883
-898
-2219
-2545
-2098
-1378
-656
43
680
1144
1392
1497
1545
1498
1244
784
288
22
140
545
989
1245
1243
1033
673
223
-187
-375
-269
7
258
449
739
1260
1904
2408
2636
2661
2586
2369
1871
1047
53
-876
-1578
-2006
-2170
-2087
-1778
-1277
-642
13
528
794
832
767
718
670
553
361
199
188
317
471
588
689
825
935
877
663
499
563
738
673
240
-292
-583
-660
-821
-1060
-861
220
1845
3042
3178
2592
2093
1966
1713
800
-604
-1733
-1988
-1388
-345
789
1862
2796
3485
3860
3915
3629
3041
2277
1550
1050
804
755
878
1142
1442
1654
1729
1653
1372
894
455
399
780
1193
1221
1024
1163
1714
1848
640
-1707
-3765
-4211
-3130
-1782
-1189
-1180
-830
424
2261
3903
4769
4719
3918
2691
1437
478
-83
-381
-622
-919
-1205
-1330
-1150
-666
-113
164
-54
-664
-1322
-1696
-1655
-1355
-1095
-1042
-1135
-1227
-1310
-1542
-2067
-2807
-3482
-3831
-3766
-3360
-2823
-2478
-2645
-3312
-3985
-4025
-3259
-2217
-1688
-1996
-2729
-3141
-2772
-1750
-633
-3
-88
-620
-1052
-957
-370
258
482
212
-268
-599
-633
-450
-219
-83
-134
-393
-771
-1097
-1177
-922
-426
79
367
388
239
51
-91
-149
-119
-19
71
24
-255
-739
-1263
-1612
-1670
-1498
-1293
-1214
-1258
-1305
-1268
-1185
-1133
-1111
-1061
-972
-917
-950
-1016
-1013
-928
-864
-918
-1061
-1168
-1158
-1062
-973
-959
-1005
-1043
-1021
-953
-918
-984
-1140
-1289
-1334
-1270
-1189
-1171
-1205
-1212
-1142
-1036
-981
-1021
-1107
-1154
-1136
-1125
-1208
-1368
-1475
-1412
-1222
-1069
-1062
-1130
-1112
-952
-748
-633
-640
-713
-787
-835
-852
-847
-854
-901
-943
-924
-898
-978
-1220
-1544
-1819
-1964
-1943
-1739
-1421
-1177
-1120
-1071
-723
-169
-117
-1260
-3363
-5203
-5676
-4862
-3820
-3331
-3085
-2188
-289
1999
3736
4468
4364
3818
3104
2381
1770
1313
961
673
497
542
766
987
1045
915
663
343
-33
-407
-645
-638
-427
-196
-112
-181
-295
-396
-535
-773
-1041
-1194
-1171
-1080
-1094
-1270
-1484
-1544
-1344
-956
-603
-498
-668
-916
-966
-739
-449
-391
-621
-884
-877
-553
-169
-24
-196
-527
-810
-945
-960
-940
-950
-992
-1016
-961
-812
-629
-506
-510
-639
-839
-1042
-1199
-1299
-1374
-1479
-1608
-1713
-1791
-1925
-2196
-2546
-2812
-2882
-2806
-2715
-2656
-2581
-2491
-2507
-2747
-3176
-3647
-4061
-4401
-4623
-4578
-4143
-3407
-2623
-1972
-1441
-952
-553
-386
-535
-923
-1396
-1844
-2200
-2397
-2397
-2242
-2065
-1978
-1959
-1927
-1859
-1825
-1888
-2029
-2159
-2195
-2148
-2085
-2038
-1978
-1866
-1732
-1668
-1728
-1852
-1904
-1820
-1663
-1572
-1625
-1763
-1876
-1934
-2011
-2152
-2240
-2062
-1546
-904
-501
-554
-933
-1292
-1420
-1450
-1709
-2359
-3177
-3730
-3744
-3326
-2823
-2488
-2313
-2158
-1984
-1891
-1975
-2201
-2462
-2708
-2970
-3249
-3448
-3501
-3459
-3431
-3430
-3352
-3153
-2970
-2978
-3163
-3299
-3198
-2908
-2632
-2475
-2386
-2304
-2288
-2435
-2701
-2904
-2929
-2907
-3089
-3516
-3916
-3973
-3665
-3296
-3164
-3288
-3453
-3501
-3438
-3322
-3165
-3038
-3164
-3722
-4529
-5093
-5073
-4651
-4337
-4399
-4619
-4613
-4285
-3877
-3643
-3621
-3724
-3901
-4105
-4177
-3932
-3386
-2792
-2394
-2166
-1874
-1387
-841
-511
-560
-917
-1375
-1748
-1984
-2117
-2203
-2254
-2265
-2238
-2208
-2218
-2291
-2415
-2548
-2641
-2650
-2565
-2408
-2233
-2126
-2149
-2271
-2377
-2354
-2202
-2041
-1988
-2044
-2127
-2213
-2368
-2627
-2881
-2963
-2850
-2705
-2687
-2740
-2654
-2319
-1860
-1521
-1432
-1545
-1698
-1759
-1727
-1700
-1758
-1882
-1968
-1951
-1892
-1877
-1861
-1706
-1395
-1142
-1184
-1442
-1565
-1342
-993
-931
-1281
-1747
-1969
-1921
-1852
-1929
-2059
-2070
-1943
-1807
-1734
-1681
-1607
-1580
-1682
-1874
-2007
-2013
-1974
-2003
-2102
-2165
-2105
-1956
-1827
-1776
-1750
-1673
-1526
-1366
-1264
-1257
-1340
-1472
-1603
-1690
-1721
-1727
-1745
-1767
-1730
-1562
-1263
-934
-684
-554
-488
-432
-393
-419
-510
-611
-653
-604
-488
-366
-303
-311
-340
-309
-203
-115
-154
-301
-391
-306
-124
-35
-112
-222
-195
-40
73
15
-153
-274
-270
-203
-177
-244
-376
-509
-575
-539
-439
-371
-397
-469
-469
-354
-207
-151
-212
-303
-343
-338
-350
-386
-394
-329
-230
-188
-247
-364
-467
-533
-614
-760
-958
-1128
-1174
-1066
-870
-684
-561
-482
-391
-267
-170
-176
-284
-404
-421
-334
-251
-274
-375
-422
-331
-174
-108
-190
-310
-318
-193
-52
-9
-57
-119
-176
-303
-556
-876
-1136
-1307
-1487
-1779
-2119
-2303
-2192
-1879
-1604
-1489
-1404
-1119
-573
20
367
396
298
316
484
630
595
403
233
204
263
293
274
313
479
692
792
692
457
207
-7
-204
-378
-461
-384
-165
82
230
220
83
-106
-300
-517
-809
-1173
-1507
-1651
-1515
-1166
-783
-520
-408
-364
-297
-194
-139
-205
-362
-496
-513
-409
-260
-126
-16
78
132
104
10
-83
-132
-151
-151
-87
96
341
470
341
18
-266
-329
-231
-195
-366
-663
-876
-891
-777
-685
-684
-728
-740
-705
-651
-600
-550
-507
-503
-561
-651
-714
-721
-705
-724
-779
-790
-678
-453
-230
-132
-171
-247
-256
-190
-133
-157
-255
-350
-366
-274
-90
129
308
406
451
516
643
789
867
841
758
703
720
795
887
971
1040
1102
1155
1205
1274
1360
1440
1486
1495
1486
1483
1498
1507
1479
1425
1406
1469
1601
1774
2006
2339
2711
2913
2776
2423
2240
2489
2975
3177
2801
2100
1610
1559
1666
1499
963
348
-22
-94
-16
103
273
501
697
763
732
742
853
959
923
729
511
436
563
817
1067
1252
1405
1569
1718
1768
1686
1566
1536
1605
1629
1481
1217
1037
1049
1150
1163
1067
1019
1140
1360
1505
1487
1376
1285
1243
1206
1130
1001
806
535
219
-71
-299
-500
-716
-914
-974
-779
-318
309
973
1605
2216
2831
3430
3918
4198
4209
3948
3465
2873
2324
1917
1615
1307
921
572
513
838
1303
1542
1456
1313
1352
1390
1031
278
-286
-179
219
-112
-1655
-3598
-4536
-3897
-2478
-1473
-1201
-964
-15
1600
3205
4204
4448
4071
3267
2297
1491
1058
907
778
546
363
439
780
1222
1579
1739
1657
1365
977
669
567
665
857
1036
1155
1191
1124
958
765
663
715
871
1018
1082
1073
1030
960
859
751
684
670
658
597
490
377
265
127
-39
-183
-250
-225
-145
-51
31
84
111
144
194
222
165
38
-47
15
175
276
245
185
244
418
555
540
428
371
436
564
663
712
758
842
962
1088
1186
1237
1234
1204
1172
1123
1020
882
800
848
980
1058
1013
951
1039
1296
1531
1533
1312
1101
1103
1271
1377
1261
1007
822
799
832
770
594
422
373
439
514
524
498
521
623
732
752
662
537
477
490
487
384
211
93
120
232
272
159
-22
-133
-129
-85
-92
-151
-192
-168
-74
58
176
228
196
136
150
259
354
340
260
268
438
673
836
899
936
1000
1082
1146
1171
1119
951
725
617
741
963
1023
851
667
710
883
821
325
-383
-920
-1157
-1311
-1623
-2052
-2314
-2198
-1761
-1207
-665
-120
469
1077
1626
2072
2418
2648
2695
2531
2264
2106
2193
2455
2676
2694
2511
2227
1896
1489
973
374
-233
-780
-1203
-1422
-1369
-1054
-590
-137
188
353
397
366
286
172
22
-157
-317
-389
-322
-123
132
330
399
356
281
231
203
169
114
64
60
111
181
214
164
38
-91
-130
-49
89
203
291
416
598
758
796
712
609
552
489
317
43
-199
-291
-262
-246
-311
-393
-402
-355
-344
-399
-447
-420
-364
-362
-402
-393
-290
-155
-50
96
402
835
1169
1206
974
665
380
45
-425
-969
-1433
-1724
-1856
-1845
-1659
-1292
-846
-469
-219
-33
152
299
345
312
298
395
605
857
1067
1176
1210
1245
1311
1337
1235
1054
989
1143
1332
1284
1063
1145
1901
3027
3689
3388
2533
2018
2232
2659
2525
1689
769
435
752
1236
1404
1166
737
348
73
-120
-311
-537
-742
-810
-668
-397
-111
172
494
830
1055
1074
937
780
652
515
404
445
619
617
48
-1099
-2335
-3084
-3197
-2982
-2765
-2513
-1943
-922
311
1346
1930
2066
1876
1452
859
208
-340
-669
-787
-803
-800
-769
-630
-350
-38
108
-31
-388
-766
-1000
-1053
-992
-894
-781
-657
-569
-602
-786
-1054
-1296
-1475
-1670
-1975
-2370
-2712
-2870
-2852
-2755
-2613
-2332
-1807
-1072
-304
328
791
1166
1522
1808
1892
1701
1318
914
635
499
417
311
201
173
280
462
590
573
426
215
-8
-210
-378
-490
-511
-443
-344
-280
-245
-152
70
359
541
486
235
-44
-250
-429
-655
-893
-1014
-964
-837
-772
-768
-713
-533
-294
-149
-187
-349
-490
-501
-389
-258
-210
-259
-339
-388
-416
-470
-547
-550
-400
-163
0
3
-85
-144
-162
-240
-459
-800
-1178
-1528
-1815
-1998
-2032
-1933
-1794
-1699
-1633
-1524
-1354
-1204
-1166
-1240
-1326
-1325
-1218
-1061
-933
-890
-949
-1091
-1274
-1453
-1604
-1733
-1860
-1998
-2120
-2175
-2111
-1920
-1677
-1494
-1427
-1419
-1352
-1168
-944
-823
-869
-1018
-1130
-1108
-965
-792
-667
-595
-523
-413
-298
-251
-308
-403
-427
-352
-273
-312
-467
-592
-557
-399
-288
-329
-448
-494
-434
-398
-517
-745
-902
-875
-741
-672
-741
-865
-910
-838
-717
-651
-690
-804
-901
-912
-849
-806
-873
-1030
-1164
-1178
-1098
-1029
-1013
-998
-927
-830
-803
-889
-1025
-1116
-1138
-1142
-1179
-1240
-1286
-1286
-1239
-1155
-1038
-907
-796
-740
-732
-717
-652
-541
-430
-364
-342
-336
-316
-289
-294
-363
-485
-599
-635
-576
-488
-442
-428
-359
-193
-6
84
41
-68
-180
-332
-594
-938
-1261
-1504
-1717
-1954
-2155
-2202
-2042
-1727
-1309
-771
-84
674
1344
1842
2217
2561
2854
2957
2769
2348
1887
1560
1384
1246
1027
728
467
367
423
505
483
351
205
116
62
-25
-161
-282
-335
-336
-358
-440
-545
-613
-622
-603
-602
-635
-684
-723
-747
-763
-781
-803
-827
-855
-896
-947
-988
-990
-954
-907
-889
-911
-943
-947
-912
-870
-857
-879
-917
-947
-951
-924
-872
-807
-729
-627
-516
-469
-572
-825
-1091
-1203
-1128
-1014
-1046
-1233
-1394
-1351
-1130
-935
-949
-1164
-1419
-1574
-1626
-1661
-1735
-1827
-1889
-1907
-1902
-1887
-1856
-1808
-1785
-1842
-1973
-2095
-2114
-2006
-1847
-1731
-1670
-1599
-1460
-1283
-1161
-1144
-1184
-1195
-1141
-1063
-1019
-1015
-1004
-947
-861
-786
-739
-699
-643
-577
-517
-471
-424
-365
-302
-249
-226
-240
-271
-284
-257
-220
-234
-318
-403
-401
-301
-205
-216
-314
-374
-313
-189
-150
-260
-432
-526
-506
-471
-527
-658
-749
-725
-629
-559
-563
-603
-629
-636
-650
-672
-677
-661
-646
-649
-658
-650
-634
-647
-706
-795
-887
-972
-1052
-1124
-1173
-1188
-1164
-1097
-1002
-906
-818
-713
-552
-357
-224
-231
-331
-383
-297
-143
-63
-103
-174
-159
-37
113
216
261
284
298
281
215
121
59
79
147
188
160
88
25
-35
-162
-410
-753
-1107
-1412
-1668
-1887
-2048
-2104
-2012
-1749
-1321
-780
-216
317
842
1428
2067
2641
3007
3116
3043
2893
2710
2493
2234
1944
1633
1322
1056
888
849
886
897
817
659
507
443
469
501
436
266
110
97
230
364
376
304
297
420
559
555
405
260
236
246
120
-160
-405
-426
-243
-37
76
157
317
526
641
580
409
258
184
140
52
-93
-245
-322
-272
-110
50
69
-87
-309
-438
-434
-396
-428
-529
-601
-570
-453
-323
-264
-317
-471
-673
-846
-953
-1025
-1102
-1157
-1091
-862
-560
-364
-383
-572
-794
-977
-1153
-1389
-1691
-1977
-2140
-2120
-1927
-1624
-1301
-1030
-841
-719
-629
-560
-532
-550
-590
-631
-666
-687
-671
-611
-550
-559
-662
-782
-791
-625
-330
-7
275
491
649
766
877
1013
1159
1239
1172
937
584
199
-155
-461
-749
-1059
-1392
-1670
-1781
-1668
-1395
-1095
-861
-703
-580
-467
-386
-361
-391
-458
-542
-618
-653
-610
-487
-330
-211
-170
-184
-215
-259
-353
-509
-665
-723
-644
-509
-440
-489
-576
-571
-419
-197
-46
-52
-172
-283
-292
-214
-129
-96
-103
-93
-32
78
221
375
507
568
526
407
292
253
301
391
458
451
355
216
124
155
297
434
460
356
204
98
53
11
-100
-297
-552
-803
-990
-1076
-1071
-1013
-896
-654
-218
383
1017
1566
2032
2486
2934
3275
3402
3319
3116
2864
2574
2256
1967
1784
1700
1627
1488
1299
1141
1049
976
844
631
392
207
131
163
269
407
548
681
797
873
887
850
820
854
947
1017
991
891
822
861
962
1003
930
809
728
708
710
707
725
797
899
985
1058
1171
1328
1451
1425
1233
1000
857
788
652
361
31
-113
10
222
283
181
135
310
586
692
523
258
142
210
309
300
213
156
166
197
204
182
122
4
-102
-17
374
930
1365
1506
1497
1583
1781
1831
1499
864
243
-137
-325
-478
-606
-560
-266
139
449
616
771
1036
1350
1516
1431
1196
1041
1107
1341
1566
1649
1605
1565
1620
1743
1841
1858
1833
1835
1870
1896
1878
1839
1834
1890
1956
1931
1772
1577
1525
1691
1916
1940
1684
1341
1188
1300
1476
1466
1233
966
860
931
1033
1029
906
762
676
631
545
396
269
265
373
470
458
379
355
427
507
488
354
185
49
-39
-65
-17
77
147
156
151
217
348
421
351
197
125
216
361
394
282
156
161
308
486
605
670
712
734
725
722
770
828
779
579
346
258
344
438
368
140
-86
-202
-275
-457
-802
-1209
-1519
-1652
-1625
-1476
-1187
-697
-6
752
1404
1858
2178
2482
2748
2809
2549
2076
1636
1374
1219
1026
785
626
608
657
678
689
760
867
883
752
576
486
478
445
361
349
532
848
1069
1041
828
633
566
519
291
-196
-771
-1130
-1097
-779
-450
-276
-185
-26
217
410
439
325
155
-2
-149
-278
-329
-280
-188
-143
-158
-149
-52
73
107
36
16
222
644
1072
1319
1438
1630
1935
2123
1947
1467
998
729
498
15
-739
-1461
-1876
-2014
-2112
-2279
-2380
-2252
-1936
-1630
-1433
-1252
-971
-638
-458
-544
-772
-905
-805
-585
-441
-442
-476
-394
-191
5
109
159
199
146
-121
-474
-448
390
1911
3347
3885
3406
2555
2047
1930
1619
604
-941
-2293
-2831
-2485
-1646
-745
-1
562
984
1282
1455
1491
1351
1039
638
307
181
284
548
885
1226
1492
1587
1439
1130
890
913
1178
1485
1686
1830
2032
2241
2223
1815
1130
473
57
-141
-270
-418
-549
-588
-495
-269
51
364
528
461
222
-29
-172
-199
-170
-115
-21
112
243
359
475
602
663
553
305
99
85
234
402
542
773
1207
1742
2140
2290
2305
2337
2329
2068
1453
648
-50
-468
-650
-712
-690
-503
-60
592
1233
1591
1563
1289
1005
782
476
-47
-639
-972
-898
-600
-334
-95
351
1104
1885
2312
2370
2475
3015
3837
4343
4098
3311
2625
2445
2540
2390
1841
1333
1429
2163
2975
3248
2869
2236
1767
1500
1174
596
-132
-672
-751
-398
77
391
525
677
966
1259
1342
1225
1127
1185
1295
1344
1446
1834
2472
2968
2948
2442
1816
1414
1321
1454
1704
1939
2041
2037
2121
2382
2545
2153
1093
-178
-1046
-1325
-1365
-1553
-1805
-1750
-1235
-499
131
529
752
853
809
649
453
214
-97
-248
290
1834
3906
5358
5330
4074
2659
1841
1363
429
-1261
-3123
-4278
-4340
-3593
-2561
-1600
-827
-280
25
137
145
125
44
-144
-396
-577
-526
-180
352
830
1038
929
624
294
50
-73
-67
79
350
669
927
1033
975
807
615
471
416
464
593
733
799
747
629
540
524
531
517
464
409
370
340
319
327
381
480
615
763
872
880
785
668
607
565
442
228
76
141
390
632
736
761
838
985
1092
1074
954
811
690
611
616
729
899
1012
992
901
834
797
703
476
143
-182
-373
-375
-231
-62
19
-6
-64
-76
-54
-85
-199
-324
-351
-244
-55
145
332
490
581
569
476
363
256
128
-35
-171
-174
-12
225
409
462
389
221
-23
-316
-608
-854
-1050
-1207
-1298
-1235
-936
-388
326
1054
1684
2201
2646
3031
3293
3345
3165
2819
2401
1952
1492
1067
758
610
565
531
487
492
587
709
729
574
300
11
-244
-474
-674
-778
-740
-607
-501
-498
-561
-595
-562
-518
-528
-593
-649
-636
-561
-491
-470
-485
-486
-468
-492
-614
-806
-961
-996
-926
-845
-809
-796
-760
-718
-733
-849
-1049
-1260
-1408
-1455
-1404
-1298
-1179
-1049
-878
-671
-508
-490
-632
-837
-990
-1069
-1142
-1263
-1411
-1510
-1542
-1544
-1564
-1608
-1652
-1693
-1747
-1821
-1897
-1950
-1968
-1957
-1924
-1867
-1793
-1727
-1691
-1669
-1617
-1510
-1377
-1293
-1317
-1428
-1541
-1575
-1519
-1429
-1363
-1320
-1240
-1075
-846
-628
-489
-431
-409
-384
-355
-351
-390
-451
-488
-474
-420
-361
-317
-284
-244
-196
-163
-159
-171
-176
-174
-171
-164
-133
-83
-57
-94
-182
-251
-251
-198
-170
-226
-355
-479
-523
-484
-422
-414
-482
-571
-604
-557
-479
-446
-492
-570
-604
-542
-411
-284
-233
-273
-344
-377
-358
-349
-430
-609
-808
-926
-932
-874
-822
-789
-756
-720
-696
-692
-684
-645
-596
-587
-627
-664
-637
-538
-418
-332
-303
-338
-431
-545
-619
-617
-577
-581
-658
-741
-733
-629
-531
-538
-634
-714
-728
-747
-897
-1207
-1560
-1819
-1982
-2163
-2445
-2768
-2972
-2944
-2696
-2296
-1783
-1168
-498
131
640
1030
1344
1573
1620
1394
929
413
56
-72
-83
-149
-323
-498
-534
-415
-269
-239
-346
-512
-656
-772
-890
-1002
-1061
-1023
-909
-806
-771
-792
-811
-803
-812
-900
-1056
-1214
-1344
-1498
-1744
-2056
-2313
-2412
-2370
-2287
-2231
-2202
-2182
-2183
-2211
-2225
-2154
-1978
-1753
-1550
-1369
-1160
-892
-611
-413
-361
-456
-650
-879
-1098
-1275
-1403
-1499
-1571
-1609
-1595
-1526
-1439
-1388
-1396
-1458
-1559
-1681
-1802
-1884
-1898
-1868
-1846
-1864
-1904
-1932
-1944
-1975
-2042
-2114
-2125
-2038
-1889
-1758
-1706
-1727
-1759
-1739
-1659
-1554
-1468
-1411
-1370
-1338
-1324
-1327
-1327
-1298
-1242
-1184
-1144
-1119
-1085
-1018
-916
-800
-703
-645
-611
-568
-505
-455
-460
-506
-535
-511
-462
-451
-493
-549
-577
-572
-548
-513
-463
-406
-357
-319
-281
-244
-233
-259
-297
-306
-278
-249
-252
-278
-294
-284
-265
-264
-289
-321
-351
-372
-380
-375
-367
-375
-408
-446
-449
-404
-353
-360
-441
-551
-626
-654
-682
-754
-866
-969
-1021
-1026
-1009
-989
-965
-921
-828
-659
-406
-112
146
295
329
300
266
245
213
151
75
20
0
14
59
138
251
359
412
393
351
349
402
447
422
342
272
242
179
-8
-325
-682
-994
-1263
-1537
-1798
-1956
-1938
-1751
-1435
-981
-359
369
1041
1537
1907
2304
2769
3146
3229
2973
2545
2181
1976
1860
1710
1479
1229
1067
1034
1067
1054
952
844
822
869
872
759
597
516
545
572
484
313
192
188
223
174
29
-91
-77
51
176
212
185
174
230
328
408
417
358
281
237
238
242
201
138
143
279
503
677
718
680
676
729
733
560
208
-182
-447
-537
-507
-435
-351
-252
-152
-96
-116
-212
-358
-546
-797
-1120
-1464
-1713
-1763
-1593
-1289
-966
-679
-428
-232
-181
-351
-691
-1008
-1131
-1072
-1012
-1076
-1177
-1101
-746
-265
79
160
92
86
232
413
449
265
-65
-389
-607
-709
-751
-797
-848
-822
-643
-331
-2
220
312
353
401
410
287
35
-214
-323
-302
-271
-275
-180
196
838
1498
1889
1965
1928
2001
2198
2331
2212
1851
1433
1172
1150
1265
1330
1231
1003
795
741
841
994
1088
1080
1024
1024
1144
1355
1555
1639
1577
1438
1318
1243
1154
991
769
563
434
380
357
307
207
145
252
561
910
1064
967
808
789
891
925
819
719
743
746
480
-18
-365
-240
231
608
639
525
641
1109
1736
2258
2554
2617
2453
2112
1739
1486
1374
1270
1049
736
478
379
438
572
668
612
347
-41
-366
-484
-335
34
595
1320
2080
2680
3071
3458
4071
4800
5230
5082
4532
3939
3269
2057
82
-2045
-3240
-2977
-1793
-671
14
754
2155
4105
5785
6447
6014
4993
3943
3124
2535
2117
1825
1627
1527
1529
1668
1917
2164
2260
2115
1747
1290
930
813
958
1256
1536
1668
1628
1475
1291
1120
984
937
1034
1266
1543
1745
1809
1750
1603
1388
1144
942
839
814
783
686
555
480
501
560
544
405
231
207
442
836
1122
1109
864
643
609
684
657
423
95
-160
-283
-314
-295
-226
-134
-108
-204
-362
-440
-348
-156
-22
-32
-117
-114
74
380
638
727
683
646
705
819
877
835
765
750
789
811
787
773
852
1017
1183
1286
1340
1423
1566
1704
1737
1648
1527
1486
1546
1633
1651
1593
1537
1546
1589
1571
1442
1268
1168
1190
1275
1319
1298
1277
1317
1375
1346
1179
954
807
781
795
757
677
650
726
821
815
687
543
490
514
512
420
275
160
110
95
75
31
-33
-100
-148
-172
-187
-222
-265
-257
-151
7
115
116
46
0
46
190
347
405
335
240
259
385
447
328
142
103
221
259
104
46
514
1507
2450
2755
2430
1985
1782
1637
1108
60
-1172
-2162
-2743
-2991
-3008
-2827
-2481
-2040
-1545
-961
-276
436
1033
1450
1741
2002
2267
2485
2571
2490
2284
2018
1709
1319
843
383
93
47
162
296
380
453
548
603
520
302
104
59
106
57
-152
-361
-366
-185
-37
-68
-173
-154
-1
117
153
308
759
1339
1636
1444
1013
741
698
552
-25
-911
-1650
-1905
-1749
-1494
-1320
-1146
-827
-417
-154
-224
-562
-934
-1156
-1230
-1268
-1314
-1268
-1014
-568
-93
236
371
373
289
84
-266
-624
-721
-393
177
554
467
124
22
408
982
1141
583
-393
-1218
-1590
-1669
-1801
-2135
-2510
-2671
-2521
-2164
-1768
-1451
-1223
-1035
-854
-690
-568
-488
-415
-317
-217
-178
-220
-276
-269
-206
-167
-185
-190
-97
67
195
255
356
598
908
1087
1044
931
971
1201
1418
1422
1237
1064
1037
1068
969
684
346
121
53
82
160
295
488
679
798
840
842
802
667
428
199
131
248
422
523
563
668
902
1177
1327
1264
1055
856
780
825
881
830
640
395
212
145
145
132
77
23
9
14
8
13
84
240
423
551
608
654
752
906
1048
1108
1060
929
775
696
769
949
1095
1128
1144
1301
1594
1836
1866
1737
1607
1512
1375
1216
1225
1510
1843
1843
1413
870
569
476
245
-319
-1004
-1416
-1355
-908
-245
538
1378
2167
2803
3284
3681
4000
4129
3962
3550
3087
2758
2589
2473
2298
2062
1860
1775
1807
1914
2079
2303
2541
2702
2737
2736
2837
3059
3217
3062
2503
1705
955
435
106
-201
-602
-1030
-1276
-1166
-708
-104
377
585
571
538
642
826
876
682
378
181
131
95
22
86
473
1055
1415
1277
821
511
588
858
956
755
478
462
855
1502
2053
2201
1904
1406
1017
821
628
222
-373
-897
-1130
-1069
-880
-686
-499
-311
-173
-168
-310
-506
-672
-785
-849
-855
-775
-611
-435
-330
-312
-321
-303
-271
-300
-406
-514
-607
-767
-1095
-1535
-1831
-1771
-1467
-1244
-1231
-1128
-547
360
759
-140
-2195
-4305
-5369
-5228
-4576
-4031
-3479
-2391
-582
1515
3295
4463
5023
4967
4246
3032
1817
1084
915
978
945
799
748
957
1293
1441
1184
626
74
-257
-383
-374
-171
310
903
1234
1092
658
187
-488
-1803
-3719
-5350
-5662
-4566
-3055
-2134
-1783
-1141
381
2391
3949
4446
3962
2926
1693
484
-513
-1179
-1560
-1806
-1986
-2016
-1759
-1234
-614
-129
44
-157
-615
-1073
-1292
-1226
-1028
-891
-896
-984
-1072
-1164
-1317
-1533
-1711
-1763
-1708
-1648
-1695
-1868
-2080
-2204
-2164
-2012
-1925
-2056
-2381
-2695
-2861
-3076
-3702
-4822
-6017
-6643
-6346
-5284
-3889
-2515
-1307
-236
841
2050
3214
3727
2948
919
-1389
-2796
-2911
-2360
-2017
-2103
-2120
-1548
-457
623
1199
1110
482
-462
-1478
-2311
-2789
-2924
-2864
-2771
-2683
-2574
-2448
-2337
-2273
-2272
-2334
-2415
-2450
-2381
-2206
-1998
-1857
-1861
-2080
-2630
-3574
-4749
-5729
-6068
-5661
-4831
-4016
-3359
-2652
-1678
-538
363
663
325
-386
-1138
-1757
-2221
-2560
-2773
-2818
-2672
-2388
-2070
-1814
-1663
-1620
-1683
-1864
-2162
-2549
-2887
-3000
-2842
-2587
-2495
-2625
-2794
-2825
-2778
-2812
-2866
-2669
-2213
-2033
-2756
-4292
-5708
-6065
-5339
-4355
-3830
-3656
-3194
-2093
-657
511
1043
945
402
-370
-1110
-1580
-1723
-1711
-1758
-1893
-1918
-1694
-1283
-884
-660
-636
-739
-886
-1024
-1100
-1052
-865
-610
-406
-341
-413
-565
-723
-816
-788
-635
-432
-303
-319
-439
-562
-625
-644
-647
-617
-510
-336
-182
-139
-219
-352
-467
-560
-680
-847
-999
-1042
-948
-802
-724
-747
-787
-761
-701
-728
-893
-1086
-1153
-1060
-932
-901
-976
-1059
-1071
-1028
-1017
-1098
-1268
-1455
-1577
-1595
-1538
-1453
-1320
-1042
-557
36
504
668
559
369
243
145
-69
-468
-942
-1287
-1373
-1229
-986
-762
-583
-425
-272
-151
-85
-77
-125
-228
-372
-509
-593
-629
-684
-809
-995
-1218
-1489
-1829
-2186
-2430
-2465
-2304
-2011
-1585
-978
-222
521
1088
1469
1789
2137
2428
2489
2251
1828
1419
1169
1068
962
707
352
129
217
519
716
593
265
-10
-160
-322
-534
-556
-141
569
1089
1075
678
336
274
272
-55
-822
-1754
-2429
-2626
-2431
-2103
-1833
-1611
-1329
-975
-695
-615
-684
-713
-615
-530
-650
-928
-1067
-823
-301
105
90
-281
-665
-791
-698
-617
-671
-744
-672
-458
-262
-177
-148
-96
-65
-164
-387
-601
-717
-813
-1009
-1276
-1438
-1377
-1165
-962
-854
-824
-838
-895
-989
-1084
-1166
-1262
-1381
-1451
-1391
-1227
-1090
-1047
-1017
-848
-513
-168
-13
-89
-235
-239
-8
362
658
699
455
51
-351
-663
-924
-1220
-1575
-1913
-2107
-2060
-1763
-1292
-774
-335
-52
92
178
271
362
401
349
222
90
26
66
182
294
352
388
445
488
447
342
333
573
1004
1363
1428
1234
990
820
636
296
-179
-606
-828
-853
-779
-635
-372
14
397
603
575
430
326
273
142
-162
-563
-853
-896
-750
-583
-494
-438
-345
-226
-158
-165
-177
-129
-38
15
-12
-76
-87
-25
56
75
16
-49
-16
163
431
679
850
962
1055
1124
1100
933
664
409
249
151
17
-192
-404
-516
-524
-545
-694
-955
-1192
-1276
-1182
-941
-568
-43
614
1297
1888
2338
2706
3029
3240
3195
2836
2283
1771
1472
1349
1210
917
531
237
143
161
104
-90
-265
-218
63
352
408
219
6
-8
172
335
285
26
-264
-397
-313
-97
92
128
-13
-216
-335
-315
-248
-264
-402
-584
-721
-785
-791
-747
-634
-455
-267
-135
-87
-82
-50
36
126
102
-130
-547
-1007
-1361
-1572
-1699
-1793
-1822
-1717
-1466
-1146
-858
-654
-522
-423
-336
-284
-303
-406
-555
-685
-747
-756
-764
-803
-857
-884
-873
-857
-863
-891
-924
-959
-1009
-1062
-1075
-1005
-867
-715
-608
-549
-498
-450
-442
-483
-495
-369
-108
134
203
118
76
220
476
610
484
194
-23
-52
33
92
81
71
132
258
393
495
523
451
308
194
220
381
549
613
600
649
800
911
820
555
325
291
394
443
358
261
306
463
547
431
188
2
-52
-78
-184
-335
-376
-213
67
284
344
308
289
315
313
206
10
-179
-286
-297
-245
-162
-72
11
67
93
119
183
275
349
388
414
447
471
478
499
573
664
672
554
400
348
404
438
355
236
246
416
601
657
595
537
536
506
341
46
-283
-560
-765
-908
-993
-1010
-935
-720
-313
261
842
1303
1676
2095
2602
3076
3366
3452
3407
3241
2914
2484
2143
2001
1905
1596
1073
680
744
1174
1547
1577
1358
1172
1156
1211
1206
1130
1037
952
878
836
821
798
788
909
1253
1709
1966
1859
1578
1466
1568
1566
1167
462
-169
-480
-552
-575
-562
-406
-116
137
257
348
543
764
776
509
177
32
84
146
90
6
60
267
467
512
412
317
345
467
554
522
442
475
686
927
950
658
246
26
82
147
-122
-766
-1446
-1789
-1745
-1585
-1573
-1706
-1770
-1596
-1224
-835
-585
-510
-531
-502
-335
-111
-39
-239
-551
-649
-400
-30
114
-20
-135
53
494
878
998
938
877
861
808
680
554
507
524
539
530
541
600
688
777
853
897
887
824
749
702
693
700
712
732
728
657
535
453
489
597
625
478
238
92
133
268
325
215
16
-116
-86
81
261
328
261
149
94
100
81
-26
-191
-339
-446
-551
-672
-759
-763
-701
-635
-592
-545
-469
-378
-300
-219
-111
-1
60
64
66
110
171
187
146
108
131
193
228
205
168
180
243
311
342
316
245
185
188
240
236
62
-266
-602
-825
-968
-1164
-1461
-1738
-1844
-1759
-1559
-1270
-814
-154
580
1199
1650
2058
2522
2945
3104
2911
2517
2162
1944
1778
1544
1247
1002
895
901
933
927
879
823
774
709
604
465
328
231
179
154
153
189
269
371
441
453
435
444
503
568
570
493
395
362
427
536
599
578
522
506
554
612
612
558
509
507
530
546
560
610
696
753
726
643
594
633
721
785
797
790
794
801
780
715
609
470
317
186
106
72
48
19
8
42
104
150
148
108
66
53
70
83
41
-73
-213
-280
-211
-56
58
52
-31
-77
-29
70
138
147
129
137
193
291
410
524
615
683
747
819
884
921
918
892
858
823
796
797
844
946
1084
1236
1402
1568
1700
1775
1788
1747
1655
1537
1480
1587
1850
2090
2111
1972
2026
2597
3570
4377
4461
3769
2753
1915
1375
887
194
-684
-1469
-1868
-1766
-1258
-577
22
381
479
411
309
263
271
270
179
15
-122
-134
-16
161
336
472
494
330
47
-137
-69
135
298
575
1423
3002
4693
5523
5133
4166
3533
3375
2981
1735
-100
-1679
-2484
-2686
-2700
-2638
-2339
-1779
-1223
-956
-992
-1110
-1178
-1248
-1430
-1757
-2121
-2347
-2308
-2033
-1650
-1264
-852
-352
212
723
1116
1465
1858
2219
2341
2137
1758
1436
1252
1116
955
812
740
670
450
20
-522
-1037
-1453
-1757
-1928
-1946
-1847
-1696
-1529
-1365
-1228
-1147
-1116
-1113
-1151
-1308
-1575
-1753
-1622
-1228
-920
-990
-1345
-1623
-1634
-1562
-1693
-2004
-2182
-2014
-1640
-1355
-1278
-1274
-1181
-1028
-970
-1086
-1281
-1409
-1413
-1367
-1380
-1473
-1522
-1369
-995
-593
-405
-493
-682
-773
-764
-822
-1052
-1344
-1524
-1542
-1489
-1451
-1413
-1328
-1228
-1195
-1237
-1266
-1205
-1097
-1075
-1201
-1418
-1625
-1757
-1810
-1780
-1675
-1538
-1434
-1398
-1393
-1341
-1223
-1112
-1099
-1201
-1355
-1465
-1494
-1482
-1507
-1602
-1721
-1790
-1772
-1709
-1667
-1659
-1656
-1604
-1466
-1226
-912
-615
-446
-430
-457
-405
-301
-315
-568
-957
-1234
-1245
-1052
-824
-645
-472
-256
-32
118
161
127
61
-35
-182
-372
-556
-655
-625
-492
-341
-250
-206
-133
31
233
354
308
115
-126
-309
-377
-336
-241
-173
-185
-274
-386
-473
-537
-609
-713
-836
-952
-1039
-1084
-1066
-979
-842
-712
-653
-678
-741
-757
-669
-501
-334
-236
-197
-154
-47
124
301
406
400
307
195
137
161
253
373
485
551
546
491
446
444
420
251
-102
-511
-790
-878
-900
-1006
-1185
-1297
-1224
-959
-547
-26
553
1092
1520
1864
2198
2500
2638
2546
2369
2342
2535
2763
2800
2622
2420
2354
2367
2250
1862
1283
755
494
526
677
730
611
435
384
497
607
520
210
-148
-352
-356
-259
-125
64
311
540
655
642
568
478
346
161
-51
-257
-439
-555
-472
-69
571
1156
1412
1327
1099
912
818
757
635
348
-177
-843
-1368
-1494
-1230
-883
-784
-1007
-1356
-1536
-1346
-831
-269
4
-157
-581
-942
-1064
-1040
-1018
-1021
-998
-1012
-1183
-1421
-1425
-1057
-622
-624
-1196
-1918
-2255
-2119
-1873
-1781
-1676
-1238
-496
125
271
31
-233
-377
-601
-1129
-1856
-2422
-2583
-2432
-2212
-2037
-1843
-1562
-1262
-1083
-1078
-1186
-1305
-1380
-1410
-1418
-1432
-1451
-1447
-1380
-1230
-1031
-857
-782
-812
-891
-935
-916
-883
-909
-1014
-1153
-1259
-1320
-1362
-1414
-1476
-1538
-1575
-1593
-1587
-1541
-1488
-1499
-1576
-1619
-1537
-1418
-1460
-1715
-1936
-1843
-1512
-1350
-1587
-1871
-1594
-652
299
474
-201
-1049
-1406
-1306
-1309
-1802
-2593
-3195
-3327
-3064
-2626
-2167
-1761
-1462
-1289
-1213
-1157
-1073
-987
-947
-982
-1090
-1222
-1278
-1188
-1002
-839
-776
-799
-856
-928
-1005
-1027
-924
-738
-607
-617
-687
-674
-585
-597
-831
-1169
-1394
-1469
-1580
-1883
-2258
-2398
-2126
-1559
-950
-435
42
578
1159
1642
1868
1780
1467
1107
852
720
600
396
161
36
57
109
72
-8
-4
62
-3
-263
-401
31
1073
2144
2529
2066
1276
774
647
471
-141
-1114
-2015
-2473
-2420
-2035
-1522
-1026
-632
-375
-228
-133
-52
-14
-59
-176
-319
-435
-497
-471
-338
-134
17
-8
-209
-430
-485
-337
-105
70
156
206
236
195
56
-109
-188
-142
-36
50
106
167
258
332
309
142
-140
-435
-639
-731
-776
-856
-964
-1003
-905
-711
-531
-432
-394
-364
-333
-327
-371
-458
-565
-664
-715
-672
-538
-393
-331
-345
-317
-149
89
211
127
-55
-139
-76
12
2
-73
-92
-10
107
201
313
508
759
972
1111
1225
1341
1407
1361
1237
1136
1100
1091
1058
991
904
782
619
471
408
411
370
249
188
362
757
1168
1424
1573
1754
1944
1925
1534
898
346
90
45
-20
-194
-341
-271
44
439
712
769
665
520
413
338
239
87
-84
-222
-313
-373
-391
-311
-98
187
402
451
406
439
624
863
1006
1016
1005
1074
1200
1289
1291
1237
1161
1002
671
195
-227
-352
-91
401
840
1025
978
878
859
851
641
92
-681
-1354
-1625
-1417
-870
-202
435
1006
1538
2050
2511
2853
3008
2956
2750
2483
2248
2093
1992
1864
1637
1335
1092
1041
1170
1320
1351
1288
1281
1410
1589
1629
1404
959
481
168
89
146
191
193
282
569
964
1220
1162
901
723
743
779
603
279
129
365
802
1054
985
853
918
971
419
-1041
-2901
-4148
-4181
-3371
-2646
-2488
-2480
-1821
-226
1716
3106
3489
3104
2501
2051
1791
1601
1394
1170
952
767
641
599
656
764
821
735
431
-54
-511
-663
-424
-30
168
88
-8
86
177
-77
-559
-572
447
2134
3360
3311
2276
1279
945
946
523
-615
-2034
-3078
-3429
-3160
-2495
-1650
-849
-283
38
292
627
947
992
693
277
30
24
116
175
254
467
774
972
902
622
331
199
288
559
923
1253
1451
1526
1569
1630
1655
1576
1422
1283
1169
963
580
105
-255
-373
-306
-199
-130
-79
-9
83
177
244
279
272
222
137
47
-4
11
67
87
1
-167
-301
-289
-162
-55
-42
-37
111
431
756
913
888
806
779
785
710
513
264
63
-44
-74
-63
-15
73
178
252
285
318
398
495
496
324
39
-202
-335
-464
-727
-1114
-1463
-1626
-1600
-1453
-1190
-727
-48
709
1359
1829
2216
2652
3114
3391
3285
2820
2260
1889
1754
1654
1401
1023
713
590
603
652
715
801
846
750
538
365
330
367
335
203
69
14
14
21
23
25
-1
-42
14
264
621
826
727
465
304
295
217
-120
-617
-1001
-1153
-1208
-1326
-1460
-1444
-1229
-952
-773
-703
-639
-518
-383
-302
-288
-336
-429
-551
-674
-793
-932
-1106
-1283
-1401
-1447
-1469
-1503
-1500
-1402
-1248
-1179
-1288
-1503
-1663
-1688
-1648
-1643
-1690
-1733
-1730
-1703
-1694
-1703
-1713
-1722
-1724
-1704
-1661
-1626
-1639
-1681
-1687
-1609
-1489
-1419
-1440
-1491
-1469
-1343
-1191
-1103
-1078
-1033
-916
-763
-655
-585
-448
-166
181
422
506
587
855
1292
1644
1655
1328
893
571
393
243
28
-233
-449
-537
-452
-210
103
363
488
493
457
444
449
438
402
358
334
355
431
534
625
682
714
732
713
616
457
334
344
465
567
550
446
368
380
428
414
313
188
117
104
93
41
-28
-44
33
165
276
330
397
602
957
1293
1405
1281
1114
1087
1157
1127
927
709
641
671
617
493
607
1219
2153
2847
2892
2437
1997
1883
1893
1577
749
-315
-1173
-1597
-1677
-1628
-1573
-1512
-1387
-1131
-677
16
863
1661
2217
2512
2727
3053
3458
3708
3626
3278
2882
2581
2338
2102
1964
2073
2435
2841
3052
2983
2718
2371
1977
1522
999
451
-35
-322
-300
1
383
630
705
764
949
1209
1350
1262
1011
754
587
504
517
638
793
872
857
850
897
884
710
522
635
1118
1628
1793
1764
2142
3242
4571
5200
4694
3503
2408
1715
1082
88
-1246
-2499
-3250
-3367
-2956
-2236
-1446
-804
-409
-218
-92
45
139
127
55
-10
-42
-42
-27
-9
11
52
106
96
-60
-279
-194
638
2301
4280
5753
6198
5736
4877
3980
2985
1645
-91
-1951
-3513
-4438
-4611
-4158
-3381
-2611
-2035
-1613
-1224
-808
-425
-185
-133
-203
-281
-271
-114
168
463
645
651
485
229
12
-65
-1
146
348
619
887
949
703
388
415
784
810
-285
-2426
-4518
-5375
-4818
-3719
-2983
-2629
-1945
-388
1803
3814
4933
4974
4214
3122
2094
1299
700
204
-205
-443
-440
-256
-4
246
462
553
408
30
-413
-696
-658
-283
209
533
547
343
89
-150
-426
-699
-776
-553
-281
-329
-642
-618
257
1700
2775
2828
2119
1456
1276
1230
681
-538
-1942
-2868
-3013
-2584
-2021
-1634
-1472
-1425
-1432
-1563
-1880
-2316
-2709
-2891
-2834
-2587
-2131
-1407
-468
511
1338
1922
2249
2337
2216
1952
1671
1501
1483
1523
1456
1156
673
234
61
177
386
488
474
475
548
575
415
89
-241
-479
-681
-933
-1166
-1196
-938
-542
-256
-170
-147
-6
256
471
499
376
262
250
290
281
222
190
230
277
243
121
-2
-38
16
92
128
114
75
63
120
260
464
679
839
887
793
596
418
370
388
219
-335
-1149
-1797
-1928
-1594
-1173
-937
-795
-460
181
929
1485
1706
1640
1373
963
489
70
-187
-261
-210
-110
3
143
337
589
838
958
851
551
203
-26
-25
223
645
1107
1466
1647
1674
1577
1342
978
638
596
965
1496
1790
1793
1948
2708
3885
4654
4333
3130
1969
1566
1754
1802
1262
418
-107
-13
464
921
1173
1293
1362
1346
1181
934
837
1054
1453
1665
1456
1055
1005
1575
2403
2831
2653
2346
2438
2829
2962
2606
2173
2109
2248
2063
1422
786
547
535
401
276
647
1547
2248
2030
1066
225
18
32
-465
-1580
-2680
-3140
-2910
-2350
-1758
-1212
-725
-351
-124
-24
-28
-172
-455
-741
-876
-861
-793
-681
-441
-65
284
433
375
225
46
-189
-444
-559
-491
-493
-917
-1734
-2396
-2347
-1645
-879
-482
-242
343
1366
2340
2710
2404
1772
1176
713
308
-40
-254
-268
-103
248
854
1664
2298
2238
1307
-57
-1141
-1658
-1969
-2454
-2799
-2225
-461
1676
2889
2625
1500
480
-133
-836
-2192
-4106
-5803
-6321
-5100
-2435
549
2513
2848
2103
1365
1133
870
-248
-2287
-4264
-5084
-4565
-3362
-2163
-1140
-209
460
509
-49
-613
-643
-324
-172
-114
674
2628
4767
5377
3905
1676
404
234
-287
-2273
-5029
-6791
-6591
-5094
-3622
-2821
-2438
-2019
-1463
-932
-578
-456
-597
-964
-1374
-1706
-1962
-2145
-2141
-1864
-1450
-1162
-1016
-659
219
1381
2140
2044
1350
671
261
-245
-1327
-2936
-4449
-5192
-4997
-4183
-3147
-2096
-1079
-189
392
545
316
-128
-671
-1271
-1837
-2173
-2043
-1358
-257
1020
2242
3161
3455
3000
2084
1214
604
11
-815
-1563
-1553
-426
1399
3024
3833
3920
3811
3825
3677
2725
714
-1625
-2895
-2257
-489
573
-177
-1968
-3046
-2645
-1736
-1751
-2874
-3910
-3681
-2120
-20
1881
3222
3810
3484
2425
1234
413
-114
-730
-1526
-2071
-1887
-963
289
1409
2141
2426
2347
2065
1760
1530
1388
1418
1792
2597
3579
4197
4037
3169
2078
1205
583
-44
-825
-1560
-1883
-1637
-1020
-411
-66
28
-6
-157
-547
-1310
-2342
-3264
-3737
-3733
-3461
-2981
-2072
-543
1352
2972
3859
4116
4110
3960
3471
2632
1952
1998
2671
3205
3005
2314
1896
2063
2245
1708
530
-340
-72
1143
2339
2838
2810
2804
2920
2671
1714
299
-1086
-2294
-3552
-4838
-5539
-4977
-3231
-1216
113
519
394
148
-176
-655
-1128
-1307
-1112
-748
-438
-74
630
1691
2656
2913
2253
1110
194
-121
-25
-15
-351
-802
-871
-276
725
1642
2165
2267
1930
1067
-164
-1130
-1143
-265
599
645
83
-234
12
12
-1219
-3510
-5488
-5955
-5071
-3994
-3533
-3312
-2410
-563
1394
2280
1679
315
-696
-925
-870
-1183
-1761
-1830
-941
416
1248
1120
516
101
-72
-444
-1204
-1952
-2129
-1637
-877
-294
-2
49
-97
-401
-732
-918
-887
-696
-468
-318
-350
-563
-793
-815
-641
-624
-1132
-2057
-2768
-2690
-1876
-917
-312
-41
245
721
1212
1441
1308
931
483
73
-259
-530
-762
-933
-962
-823
-610
-475
-482
-519
-437
-262
-192
-369
-717
-1018
-1111
-1005
-836
-729
-702
-680
-598
-482
-431
-516
-674
-757
-676
-483
-331
-318
-391
-380
-157
252
687
989
1126
1165
1159
1074
859
566
365
390
583
727
671
492
409
524
687
661
371
-13
-267
-331
-337
-424
-603
-761
-801
-758
-728
-750
-751
-600
-225
296
802
1191
1493
1873
2477
3215
3743
3765
3370
3067
3326
4058
4640
4536
3898
3425
3634
4283
4580
3930
2463
844
-331
-943
-1304
-1764
-2396
-2941
-3053
-2605
-1783
-944
-338
6
131
62
-123
-264
-233
-76
11
-83
-219
-196
-41
33
-50
-104
59
389
673
780
769
720
618
446
263
68
-290
-920
-1583
-1792
-1341
-612
-211
-339
-649
-719
-517
-363
-520
-973
-1503
-1868
-1897
-1603
-1236
-1088
-1173
-1237
-1093
-901
-933
-1151
-1181
-785
-236
-7
-199
-485
-597
-693
-1117
-1927
-2788
-3328
-3467
-3351
-3090
-2689
-2183
-1694
-1306
-951
-545
-176
-46
-256
-617
-751
-411
288
981
1362
1396
1287
1253
1333
1368
1164
683
86
-386
-593
-586
-534
-544
-584
-532
-322
-21
254
490
774
1123
1406
1477
1314
1036
835
783
826
842
743
559
476
680
1159
1658
1860
1669
1265
870
521
125
-309
-594
-584
-358
-141
-43
34
213
431
491
293
-25
-181
-23
288
470
422
316
341
476
556
517
523
651
660
254
-381
-586
56
1159
1830
1589
850
421
631
1076
1179
803
314
164
475
979
1301
1296
1165
1198
1402
1432
968
109
-689
-1096
-1261
-1592
-2211
-2769
-2840
-2365
-1629
-899
-186
578
1293
1711
1717
1526
1466
1637
1814
1710
1311
921
857
1137
1504
1686
1597
1342
1057
786
539
343
224
153
89
54
130
322
483
436
204
19
51
178
109
-242
-594
-606
-287
8
-13
-260
-435
-396
-269
-220
-224
-141
51
208
214
119
61
90
118
39
-133
-317
-434
-446
-357
-221
-126
-115
-154
-167
-117
-38
10
-12
-117
-306
-521
-620
-482
-175
36
-50
-340
-527
-439
-240
-225
-470
-759
-846
-717
-567
-556
-671
-793
-817
-744
-650
-605
-566
-384
49
627
1059
1118
880
582
369
195
-23
-253
-418
-516
-576
-552
-374
-110
10
-179
-570
-902
-1037
-1041
-1002
-880
-592
-181
192
446
643
861
1055
1083
892
616
418
360
400
467
529
587
650
679
628
466
244
101
163
469
993
1713
2613
3569
4264
4333
3644
2428
1083
-175
-1427
-2809
-4202
-5184
-5340
-4637
-3463
-2310
-1418
-735
-163
248
325
26
-484
-999
-1435
-1791
-1988
-1856
-1334
-628
-108
59
72
217
493
621
432
133
87
361
627
566
300
267
677
1206
1311
836
182
-167
-156
-181
-600
-1307
-1835
-1836
-1396
-912
-699
-748
-855
-891
-922
-1078
-1363
-1627
-1735
-1668
-1483
-1185
-694
-3
737
1327
1688
1903
2070
2187
2202
2116
1983
1844
1655
1381
1078
862
750
641
474
312
250
259
206
45
-74
-73
-96
-297
-474
-107
1058
2566
3572
3635
3060
2416
1872
1193
252
-685
-1282
-1548
-1748
-1966
-1949
-1470
-727
-238
-368
-978
-1604
-1861
-1687
-1353
-1131
-1014
-824
-481
-139
39
147
393
723
742
240
-287
78
1734
4013
5725
6176
5589
4568
3399
1965
183
-1711
-3343
-4500
-5164
-5325
-4905
-3926
-2636
-1443
-662
-344
-319
-378
-491
-718
-1094
-1579
-1984
-2120
-1945
-1560
-1141
-872
-855
-1046
-1278
-1378
-1285
-1038
-710
-358
-47
147
170
35
-195
-441
-649
-785
-832
-793
-692
-556
-413
-304
-260
-277
-308
-297
-242
-211
-249
-321
-357
-332
-282
-250
-235
-211
-171
-142
-147
-179
-207
-182
-78
80
201
197
82
-17
22
135
108
-128
-381
-425
-292
-210
-243
-176
144
503
565
397
448
828
856
-317
-2585
-4668
-5275
-4380
-3117
-2471
-2277
-1640
-92
1903
3484
4170
4029
3358
2435
1515
833
449
213
-28
-190
-44
432
953
1210
1144
910
641
301
-188
-735
-1092
-1078
-763
-424
-302
-433
-671
-852
-937
-1000
-1117
-1280
-1447
-1624
-1875
-2222
-2564
-2715
-2570
-2167
-1605
-939
-204
500
1032
1338
1508
1672
1826
1820
1532
1028
499
128
-17
-34
-121
-403
-761
-915
-734
-459
-469
-797
-1052
-950
-826
-1362
-2722
-4171
-4753
-4280
-3469
-3061
-3010
-2685
-1700
-355
739
1233
1175
754
119
-572
-1135
-1482
-1684
-1854
-1974
-1909
-1627
-1286
-1083
-1092
-1251
-1462
-1691
-1940
-2187
-2335
-2270
-1976
-1585
-1318
-1335
-1604
-1931
-2135
-2183
-2183
-2225
-2298
-2351
-2375
-2408
-2468
-2519
-2525
-2501
-2497
-2533
-2585
-2633
-2683
-2711
-2663
-2513
-2333
-2251
-2312
-2438
-2542
-2639
-2829
-3184
-3585
-3813
-3781
-3632
-3583
-3665
-3675
-3424
-3012
-2761
-2876
-3211
-3466
-3561
-3705
-4086
-4545
-4669
-4218
-3387
-2589
-2035
-1600
-1077
-478
-28
80
-129
-482
-853
-1216
-1540
-1684
-1462
-873
-178
311
454
352
171
-81
-552
-1317
-2235
-3057
-3608
-3833
-3761
-3454
-3032
-2655
-2439
-2372
-2329
-2227
-2137
-2207
-2501
-2844
-2983
-2832
-2532
-2278
-2097
-1871
-1582
-1390
-1447
-1698
-1971
-2225
-2548
-2853
-2792
-2096
-1038
-337
-481
-1186
-1710
-1688
-1512
-1851
-2876
-4032
-4601
-4385
-3816
-3374
-3068
-2525
-1625
-810
-621
-1016
-1406
-1404
-1377
-1919
-2794
-2851
-1319
1052
2534
2219
978
389
828
1034
-415
-3449
-6527
-8181
-8275
-7779
-7531
-7430
-6815
-5383
-3566
-2087
-1277
-892
-573
-301
-367
-842
-1344
-1404
-1030
-771
-1082
-1812
-2382
-2365
-1776
-801
551
2319
4232
5620
5866
4931
3315
1571
-149
-2004
-4038
-5887
-6951
-6851
-5703
-4040
-2483
-1375
-719
-378
-309
-619
-1392
-2464
-3433
-3920
-3862
-3503
-3099
-2728
-2359
-2038
-1939
-2185
-2664
-3104
-3311
-3292
-3154
-2986
-2812
-2663
-2562
-2462
-2280
-2038
-1910
-2022
-2284
-2493
-2594
-2796
-3305
-4020
-4581
-4728
-4538
-4275
-4078
-3874
-3579
-3276
-3144
-3249
-3480
-3703
-3897
-4117
-4413
-4749
-5009
-5093
-4974
-4730
-4506
-4406
-4403
-4392
-4317
-4204
-4075
-3897
-3671
-3457
-3294
-3126
-2881
-2630
-2560
-2759
-3091
-3381
-3619
-3882
-4060
-3827
-3045
-2075
-1528
-1666
-2148
-2460
-2499
-2630
-3200
-4090
-4833
-5059
-4762
-4192
-3605
-3122
-2759
-2481
-2249
-2074
-2018
-2132
-2407
-2725
-2941
-2983
-2871
-2701
-2579
-2555
-2589
-2597
-2503
-2277
-1932
-1535
-1207
-1083
-1226
-1563
-1959
-2361
-2851
-3509
-4226
-4713
-4739
-4348
-3828
-3448
-3255
-3123
-2972
-2852
-2846
-2940
-3050
-3138
-3239
-3348
-3374
-3258
-3067
-2916
-2842
-2728
-2503
-2275
-2217
-2326
-2387
-2219
-1897
-1679
-1738
-2006
-2271
-2338
-2076
-1444
-580
180
492
289
-164
-550
-834
-1250
-1979
-2849
-3445
-3489
-3073
-2535
-2138
-1881
-1620
-1350
-1250
-1461
-1886
-2237
-2376
-2388
-2366
-2162
-1527
-496
514
1113
1372
1717
2333
2854
2788
2138
1445
1221
1425
1616
1503
1251
1230
1544
1912
2007
1803
1567
1482
1357
801
-252
-1321
-1783
-1566
-1324
-1764
-2849
-3762
-3721
-2749
-1547
-730
-293
198
1051
2135
3078
3578
3556
3136
2516
1883
1364
1005
819
808
939
1130
1293
1453
1719
2097
2399
2368
1948
1386
1029
1009
1169
1255
1203
1145
1207
1356
1445
1416
1358
1385
1500
1611
1646
1597
1497
1368
1217
1089
1025
1015
989
869
649
393
186
77
58
108
229
421
651
850
974
1054
1149
1248
1275
1175
1001
876
869
939
1020
1103
1206
1316
1399
1477
1637
1906
2176
2287
2208
2088
2103
2265
2416
2390
2160
1847
1596
1483
1479
1483
1401
1239
1120
1180
1435
1733
1885
1819
1607
1374
1174
993
803
622
508
500
582
691
754
746
721
752
847
909
841
682
613
780
1105
1337
1299
1065
862
828
878
843
679
497
422
470
574
674
754
806
797
711
601
525
490
455
406
391
446
530
616
689
708
649
561
541
600
605
455
275
291
486
541
261
-33
285
1411
2714
3386
3289
3009
3027
3123
2753
1864
982
458
-22
-907
-1914
-2069
-801
1204
2551
2493
1605
1057
1329
1863
1824
968
-205
-985
-1003
-344
643
1538
2040
2083
1832
1536
1350
1240
1063
799
484
196
25
11
75
137
291
789
1688
2568
2804
2261
1594
1645
2503
3294
3007
1504
-368
-1640
-2046
-2034
-2131
-2425
-2638
-2504
-2003
-1310
-622
-109
136
126
-33
-225
-363
-404
-368
-316
-334
-482
-708
-843
-760
-492
-211
-63
-59
-91
-50
90
275
408
414
281
66
-176
-424
-692
-972
-1203
-1303
-1253
-1110
-952
-817
-709
-631
-608
-640
-689
-691
-623
-535
-507
-549
-590
-547
-431
-345
-367
-434
-385
-164
81
132
-65
-314
-334
-56
303
462
365
241
366
773
1209
1379
1200
858
599
525
590
711
845
982
1122
1300
1571
1929
2266
2418
2320
2067
1815
1628
1481
1346
1248
1229
1272
1326
1362
1400
1479
1571
1618
1578
1445
1255
1090
1043
1148
1328
1432
1401
1328
1368
1559
1762
1811
1675
1455
1251
1048
792
553
460
542
651
626
510
506
691
875
805
482
200
202
407
538
479
406
539
862
1169
1302
1315
1339
1385
1355
1180
935
757
698
670
563
408
379
601
970
1242
1349
1557
2227
3321
4276
4454
3735
2601
1596
809
-75
-1286
-2634
-3657
-4010
-3677
-2873
-1849
-777
249
1153
1887
2420
2738
2865
2832
2709
2470
2056
1565
1275
1382
1701
1759
1337
762
544
720
786
435
204
940
2662
4228
4407
3219
1907
1524
1788
1525
86
-1932
-3378
-3687
-3211
-2590
-2071
-1493
-731
61
634
906
991
981
856
538
56
-373
-523
-369
-108
53
85
81
53
-91
-343
-470
-163
615
1491
1946
1769
1203
662
339
99
-286
-865
-1451
-1805
-1833
-1623
-1343
-1102
-913
-734
-557
-418
-345
-334
-353
-369
-384
-415
-450
-476
-485
-485
-535
-707
-980
-1205
-1224
-1046
-849
-751
-632
-247
424
1059
1314
1228
1195
1492
1923
2006
1507
697
47
-250
-419
-776
-1357
-1885
-2043
-1729
-1077
-337
272
652
876
1110
1468
1880
2105
1966
1531
1058
774
705
725
777
944
1233
1488
1557
1547
1748
2236
2665
2634
2191
1828
1905
2250
2461
2501
2756
3425
4070
4006
3110
1999
1337
1110
739
-147
-1238
-1891
-1797
-1204
-531
50
583
1058
1368
1464
1452
1435
1366
1171
892
692
656
703
781
1020
1605
2469
3214
3438
3125
2642
2355
2276
2102
1579
786
105
-74
332
1031
1583
1759
1686
1635
1692
1693
1451
987
549
292
145
7
-44
125
398
423
26
-469
-529
16
807
1467
2099
3084
4453
5698
6298
6274
6011
5638
4842
3393
1654
335
-226
-348
-540
-897
-1085
-808
-160
525
968
1125
1150
1178
1248
1277
1154
922
807
966
1253
1348
1141
941
1181
1904
2642
2846
2426
1823
1531
1624
1732
1471
845
212
-80
-3
188
246
127
-35
-108
-84
-31
37
152
327
497
561
523
514
631
779
662
12
-1175
-2582
-3772
-4433
-4499
-4081
-3341
-2405
-1344
-194
981
2050
2807
3070
2825
2238
1542
905
385
-12
-295
-467
-541
-519
-374
-120
142
257
146
-127
-397
-521
-458
-253
14
255
378
375
350
421
571
657
585
438
379
457
584
715
912
1164
1247
904
224
-309
-294
151
522
520
388
602
1339
2306
3074
3427
3400
3104
2639
2144
1787
1627
1548
1362
1025
712
635
824
1083
1154
937
564
253
106
65
44
35
64
103
82
-27
-169
-288
-374
-439
-454
-381
-251
-162
-188
-299
-419
-529
-669
-848
-989
-1013
-946
-888
-902
-959
-985
-937
-839
-741
-692
-715
-781
-844
-869
-853
-788
-642
-405
-199
-243
-659
-1326
-1926
-2194
-2094
-1780
-1448
-1173
-869
-367
407
1244
1781
1760
1198
343
-533
-1250
-1749
-2103
-2458
-2845
-2993
-2546
-1549
-673
-665
-1505
-2290
-2133
-1092
-18
473
654
1211
2331
3465
3960
3719
3127
2529
1961
1341
744
360
259
306
297
188
73
44
79
61
-103
-373
-624
-761
-772
-668
-450
-137
169
319
227
-75
-471
-823
-1027
-1045
-940
-853
-907
-1104
-1312
-1390
-1307
-1151
-1023
-943
-861
-710
-479
-225
-41
2
-89
-243
-370
-433
-457
-484
-539
-629
-752
-889
-993
-1025
-992
-955
-971
-1049
-1142
-1197
-1198
-1166
-1139
-1155
-1223
-1322
-1410
-1457
-1467
-1461
-1453
-1443
-1431
-1418
-1406
-1386
-1349
-1306
-1285
-1300
-1330
-1329
-1268
-1153
-1023
-925
-889
-893
-877
-787
-638
-503
-437
-400
-299
-103
81
139
76
-24
-122
-241
-355
-342
-163
3
-59
-262
-246
136
439
-18
-1366
-2879
-3607
-3279
-2459
-1833
-1492
-989
27
1402
2663
3438
3610
3234
2451
1501
686
207
40
21
35
123
367
744
1107
1284
1204
931
580
220
-125
-390
-454
-238
155
478
536
352
114
-32
-94
-167
-299
-447
-555
-612
-617
-571
-489
-405
-318
-176
43
252
314
212
90
77
113
13
-289
-633
-810
-791
-702
-624
-488
-201
191
529
727
836
941
996
851
440
-105
-581
-920
-1218
-1551
-1822
-1859
-1680
-1500
-1429
-1202
-404
988
2410
3199
3268
3144
3321
3686
3703
3097
2166
1434
1152
1237
1554
2028
2504
2667
2299
1548
810
311
-115
-752
-1581
-2233
-2341
-1882
-1170
-540
-114
186
433
574
524
298
44
-71
-5
140
238
271
321
439
563
580
444
240
103
99
185
266
286
254
215
188
153
78
-25
-94
-76
5
63
35
-51
-91
-28
81
124
54
-58
-118
-116
-141
-259
-427
-534
-530
-491
-508
-571
-583
-499
-402
-400
-457
-416
-197
54
93
-149
-484
-670
-670
-658
-802
-1075
-1311
-1374
-1261
-1052
-831
-660
-577
-567
-565
-505
-397
-316
-322
-388
-437
-418
-333
-218
-106
-3
96
178
217
212
206
253
358
457
490
488
548
708
870
904
799
684
681
753
744
568
321
172
202
335
437
450
422
436
520
617
640
553
413
320
320
371
382
323
266
302
434
574
634
603
553
548
573
568
507
428
387
392
407
417
439
500
590
666
702
703
688
663
642
663
780
1011
1306
1586
1786
1909
2000
2087
2154
2155
2076
1955
1844
1758
1684
1630
1621
1649
1658
1593
1465
1320
1172
977
721
478
333
290
253
149
12
-72
-43
105
373
759
1238
1753
2284
2847
3408
3855
4031
3853
3400
2843
2326
1876
1443
990
574
323
340
628
1103
1648
2156
2507
2589
2368
1948
1479
1015
482
-170
-817
-1247
-1347
-1198
-972
-767
-554
-284
4
203
225
89
-107
-268
-383
-494
-628
-734
-715
-542
-318
-198
-232
-327
-370
-344
-336
-405
-506
-534
-419
-177
127
419
633
697
564
305
76
-57
-210
-529
-950
-1206
-1129
-865
-696
-680
-600
-350
-233
-698
-1785
-2989
-3744
-3941
-3876
-3762
-3481
-2818
-1788
-608
515
1470
2125
2317
2025
1472
973
672
494
340
236
260
388
507
565
616
703
780
728
525
340
364
599
844
953
1031
1218
1382
1229
783
520
747
941
89
-2093
-4492
-5496
-4604
-2896
-1749
-1331
-622
1234
3893
6173
7212
7015
6094
4888
3621
2464
1597
1099
911
925
1080
1351
1671
1978
2195
2186
1789
996
77
-529
-556
-92
526
997
1213
1212
1059
809
557
419
439
534
567
495
415
427
529
627
665
685
758
904
1093
1313
1543
1711
1722
1563
1386
1388
1587
1764
1660
1244
807
723
1070
1582
1891
1844
1588
1360
1223
1044
682
153
-402
-906
-1460
-2230
-3230
-4212
-4767
-4589
-3665
-2279
-777
676
2149
3762
5422
6784
7479
7366
6611
5533
4416
3437
2698
2218
1985
1976
2181
2582
2995
3151
2910
2388
1814
1278
694
41
-439
-405
210
1046
1606
1690
1491
1322
1310
1352
1311
1149
929
738
633
632
716
827
915
975
1023
1059
1061
985
808
587
438
468
653
834
833
635
392
268
277
307
283
242
262
315
293
152
-31
-134
-139
-135
-206
-336
-432
-427
-338
-248
-235
-333
-521
-728
-871
-905
-871
-867
-959
-1108
-1199
-1135
-938
-749
-708
-835
-1015
-1115
-1115
-1131
-1282
-1544
-1731
-1677
-1404
-1118
-1006
-1044
-1041
-869
-602
-439
-481
-648
-777
-787
-725
-661
-591
-459
-258
-61
43
55
51
79
88
0
-157
-232
-122
99
221
159
78
200
497
676
524
177
-40
-33
-72
-413
-927
-1254
-1183
-886
-693
-691
-667
-399
76
483
570
322
-24
-191
-113
-15
-182
-628
-1026
-1051
-750
-507
-609
-917
-1043
-790
-398
-264
-523
-937
-1163
-1080
-868
-792
-956
-1201
-1280
-1132
-934
-916
-1063
-1103
-874
-538
-390
-473
-520
-314
20
170
26
-217
-365
-460
-616
-732
-562
-113
263
257
8
-77
128
283
4
-658
-1280
-1581
-1700
-1897
-2178
-2296
-2087
-1647
-1160
-676
-154
371
769
1036
1349
1874
2476
2786
2593
2090
1690
1588
1581
1352
845
319
52
100
324
557
688
649
433
160
18
55
109
-23
-325
-547
-489
-230
-4
77
100
178
289
338
295
199
26
-288
-692
-942
-821
-430
-117
-126
-343
-445
-288
-59
-33
-260
-562
-767
-866
-907
-854
-629
-278
1
56
-50
-120
-53
28
-78
-408
-801
-1068
-1174
-1208
-1239
-1234
-1136
-967
-819
-757
-750
-729
-677
-638
-667
-768
-886
-958
-965
-936
-924
-966
-1016
-1015
-969
-949
-988
-1015
-911
-646
-325
-59
136
311
482
631
787
1034
1369
1601
1488
1003
402
-14
-210
-406
-783
-1257
-1565
-1547
-1294
-1003
-765
-525
-232
59
254
345
440
604
804
955
1025
1066
1126
1177
1153
1039
896
785
714
668
657
730
907
1148
1381
1561
1682
1760
1798
1785
1713
1608
1529
1507
1491
1390
1189
1006
990
1153
1321
1300
1098
899
846
868
792
567
306
140
102
153
278
457
601
634
671
982
1650
2376
2753
2738
2706
2950
3258
3162
2561
1897
1626
1671
1566
1078
495
247
390
590
549
304
75
-29
-54
-80
-130
-234
-436
-705
-911
-962
-920
-941
-1063
-1112
-849
-208
651
1516
2295
3008
3674
4217
4504
4460
4126
3632
3134
2764
2590
2568
2534
2357
2094
1904
1830
1680
1258
675
293
301
503
605
632
850
1241
1333
692
-483
-1460
-1741
-1547
-1446
-1622
-1699
-1238
-249
859
1676
2060
2075
1831
1448
1043
691
394
139
-58
-163
-184
-161
-99
17
142
159
4
-228
-349
-296
-177
-100
-71
-55
-95
-275
-563
-821
-965
-1047
-1108
-1054
-829
-737
-1349
-2890
-4753
-5872
-5687
-4656
-3710
-3222
-2706
-1522
296
2034
3000
3064
2542
1753
861
11
-582
-803
-770
-726
-753
-711
-467
-82
217
213
-122
-624
-1072
-1322
-1358
-1261
-1124
-984
-852
-771
-822
-1041
-1315
-1451
-1351
-1092
-855
-727
-654
-558
-466
-454
-520
-571
-519
-382
-244
-153
-100
-85
-126
-220
-303
-320
-311
-386
-581
-786
-855
-786
-734
-836
-1037
-1154
-1091
-953
-923
-1039
-1169
-1185
-1124
-1140
-1334
-1650
-1939
-2105
-2146
-2083
-1932
-1737
-1597
-1612
-1824
-2175
-2545
-2804
-2860
-2720
-2490
-2265
-2008
-1546
-815
-38
406
340
-46
-429
-701
-1004
-1452
-1921
-2196
-2220
-2123
-2016
-1851
-1547
-1202
-1046
-1195
-1516
-1753
-1797
-1754
-1767
-1829
-1819
-1723
-1704
-1966
-2521
-3154
-3601
-3777
-3783
-3759
-3730
-3621
-3335
-2826
-2124
-1336
-622
-123
136
274
433
655
844
847
584
141
-283
-507
-523
-512
-682
-1048
-1396
-1507
-1376
-1206
-1177
-1280
-1408
-1517
-1664
-1885
-2125
-2308
-2421
-2501
-2535
-2448
-2223
-1982
-1892
-1995
-2172
-2277
-2280
-2276
-2357
-2505
-2622
-2639
-2556
-2429
-2314
-2235
-2192
-2180
-2202
-2265
-2363
-2467
-2536
-2551
-2533
-2518
-2513
-2480
-2384
-2253
-2178
-2226
-2376
-2546
-2672
-2763
-2862
-2974
-3049
-3024
-2883
-2673
-2477
-2377
-2428
-2623
-2889
-3136
-3324
-3488
-3684
-3893
-4008
-3920
-3641
-3316
-3098
-3017
-2992
-2941
-2882
-2884
-2954
-3003
-2957
-2844
-2734
-2631
-2479
-2281
-2137
-2131
-2205
-2234
-2214
-2275
-2474
-2623
-2457
-1942
-1372
-1084
-1128
-1281
-1347
-1371
-1542
-1937
-2432
-2832
-3033
-3043
-2898
-2638
-2317
-2002
-1739
-1522
-1338
-1224
-1233
-1358
-1507
-1584
-1587
-1590
-1626
-1627
-1504
-1288
-1136
-1166
-1317
-1407
-1340
-1198
-1121
-1124
-1100
-983
-848
-824
-944
-1104
-1177
-1127
-1004
-885
-826
-852
-941
-1027
-1050
-1022
-1025
-1123
-1286
-1417
-1445
-1387
-1307
-1253
-1224
-1194
-1147
-1086
-1016
-935
-849
-776
-738
-736
-743
-732
-712
-731
-822
-955
-1067
-1135
-1187
-1243
-1259
-1158
-941
-708
-569
-528
-504
-459
-471
-656
-1030
-1465
-1822
-2067
-2290
-2565
-2841
-2984
-2894
-2587
-2137
-1589
-945
-233
430
911
1210
1473
1806
2086
2053
1632
1112
923
1189
1543
1492
937
265
-73
-48
-38
-383
-1021
-1590
-1805
-1680
-1428
-1225
-1083
-951
-823
-754
-786
-906
-1081
-1286
-1479
-1568
-1468
-1216
-952
-787
-673
-485
-244
-143
-299
-557
-633
-472
-348
-514
-858
-1012
-820
-556
-603
-977
-1281
-1156
-685
-290
-288
-586
-813
-719
-389
-120
-129
-373
-625
-694
-586
-451
-418
-475
-525
-524
-508
-541
-637
-734
-776
-776
-785
-809
-788
-662
-470
-337
-346
-441
-489
-450
-434
-577
-863
-1127
-1232
-1206
-1178
-1199
-1176
-1001
-708
-455
-355
-351
-305
-156
13
77
24
-37
15
198
419
580
652
674
698
733
764
780
789
801
828
875
943
1015
1080
1151
1257
1396
1490
1450
1286
1125
1083
1139
1164
1073
928
855
897
993
1083
1166
1257
1325
1319
1247
1166
1113
1056
963
865
834
886
942
915
813
713
651
583
438
232
77
64
166
265
288
289
368
530
666
692
652
679
811
956
1012
1006
1037
1150
1276
1328
1296
1228
1171
1144
1178
1279
1381
1389
1291
1192
1187
1198
1062
749
429
288
308
292
120
-114
-250
-270
-312
-482
-729
-927
-1020
-1009
-863
-498
106
827
1496
2042
2517
2981
3361
3497
3281
2758
2100
1481
994
643
400
256
212
235
254
206
100
20
44
158
251
206
14
-206
-304
-218
-45
24
-129
-428
-648
-610
-343
-65
18
-120
-351
-524
-589
-597
-632
-732
-873
-976
-966
-831
-645
-486
-355
-198
-10
99
21
-203
-374
-342
-154
-6
-19
-141
-225
-205
-155
-181
-299
-439
-523
-535
-512
-514
-581
-718
-872
-949
-902
-799
-779
-915
-1139
-1299
-1323
-1289
-1332
-1469
-1591
-1591
-1465
-1285
-1098
-893
-695
-595
-641
-744
-767
-689
-639
-724
-882
-968
-948
-941
-1008
-1026
-816
-408
-52
51
-22
-14
201
482
605
513
349
267
286
324
327
308
299
305
317
337
373
424
464
487
507
536
571
605
646
707
775
797
738
628
558
606
751
889
940
930
951
1049
1166
1199
1119
997
936
963
1009
987
884
758
675
641
618
583
566
601
676
732
731
692
684
731
786
780
719
691
774
942
1084
1135
1150
1255
1511
1832
2054
2078
1950
1806
1739
1727
1687
1572
1418
1302
1268
1314
1417
1542
1627
1587
1379
1055
734
491
284
13
-344
-691
-859
-720
-251
440
1175
1815
2378
3030
3867
4719
5225
5161
4662
4077
3610
3207
2755
2312
2047
2008
2046
2009
1916
1892
1948
1929
1690
1260
834
586
539
597
651
664
677
756
907
1026
975
748
521
491
674
875
914
826
801
916
1026
930
611
276
140
233
413
527
516
398
215
20
-135
-247
-367
-528
-657
-626
-414
-183
-126
-237
-289
-115
174
294
137
-101
-171
-77
-56
-254
-525
-629
-558
-570
-843
-1238
-1432
-1293
-1023
-914
-1018
-1124
-1037
-817
-722
-888
-1175
-1329
-1246
-1052
-923
-894
-897
-936
-1093
-1358
-1524
-1378
-995
-698
-704
-860
-825
-481
-66
115
18
-167
-280
-339
-399
-402
-258
-15
152
159
127
243
516
756
781
602
367
195
108
100
168
278
345
314
235
188
146
-9
-287
-499
-454
-198
0
-50
-231
-256
2
360
522
355
-31
-422
-679
-771
-737
-642
-554
-502
-465
-405
-291
-156
-77
-151
-406
-743
-987
-1015
-878
-738
-685
-652
-530
-321
-135
-41
13
106
204
195
58
-79
-73
53
125
18
-192
-308
-229
-59
5
-115
-303
-369
-253
-75
6
-35
-82
-33
60
29
-201
-507
-718
-833
-1033
-1428
-1848
-1976
-1701
-1276
-1002
-825
-354
674
1996
3032
3459
3499
3560
3709
3627
3069
2235
1578
1317
1268
1157
986
985
1265
1628
1775
1609
1307
1079
941
771
506
239
115
167
290
378
441
536
647
693
633
557
597
768
934
954
830
687
626
620
548
329
-7
-322
-460
-350
-74
200
357
426
529
735
995
1185
1228
1134
955
744
547
395
291
221
190
235
400
658
914
1089
1177
1221
1246
1252
1232
1159
987
710
411
209
119
18
-200
-460
-578
-524
-513
-721
-998
-975
-516
55
293
147
1
205
656
937
817
479
238
213
306
399
520
703
868
888
791
777
1012
1402
1655
1577
1298
1197
1538
2175
2653
2636
2242
1876
1779
1778
1506
865
158
-232
-231
-86
-56
-151
-215
-161
-45
52
151
326
560
736
811
871
1011
1188
1270
1181
1018
957
1056
1210
1278
1205
1032
865
854
1140
1708
2293
2546
2366
2038
1981
2287
2587
2413
1674
742
89
-131
-120
-147
-275
-361
-240
136
675
1221
1630
1829
1855
1805
1747
1716
1716
1752
1830
1903
1896
1776
1638
1638
1798
1957
1941
1802
1811
2136
2597
2814
2635
2291
2058
1854
1318
316
-754
-1306
-1164
-702
-347
-97
384
1263
2270
2983
3289
3395
3472
3444
3151
2648
2218
2077
2158
2207
2097
1948
1939
2067
2102
1846
1381
983
823
735
383
-322
-1029
-1275
-964
-476
-230
-227
-133
275
888
1428
1729
1741
1393
656
-261
-960
-1187
-1033
-780
-562
-311
-36
93
26
-6
250
660
784
435
5
103
858
1764
2227
2151
1927
1900
2008
1958
1611
1153
853
791
820
791
713
710
823
872
600
-38
-782
-1251
-1252
-874
-332
235
825
1479
2162
2747
3073
3050
2720
2242
1791
1447
1164
886
670
647
884
1283
1676
1977
2225
2456
2575
2457
2116
1728
1478
1392
1378
1369
1366
1354
1310
1245
1223
1287
1360
1312
1099
807
568
491
654
1068
1550
1694
1177
162
-718
-882
-364
262
508
477
672
1409
2477
3362
3698
3460
2849
2083
1349
801
526
479
500
449
356
367
604
997
1277
1242
929
560
317
222
243
381
631
854
862
614
255
-92
-517
-1175
-1959
-2474
-2402
-1867
-1339
-1138
-1137
-937
-324
498
1115
1275
1043
665
344
134
-6
-133
-257
-373
-467
-500
-461
-370
-289
-285
-358
-453
-505
-506
-485
-460
-457
-566
-893
-1435
-2025
-2461
-2693
-2839
-3008
-3117
-2988
-2559
-1987
-1498
-1164
-877
-507
-70
339
691
1049
1449
1803
1959
1880
1677
1472
1261
955
509
10
-413
-702
-873
-950
-924
-816
-709
-693
-783
-900
-968
-973
-961
-981
-1038
-1126
-1211
-1249
-1205
-1093
-986
-968
-1082
-1272
-1435
-1497
-1456
-1387
-1377
-1438
-1479
-1394
-1163
-889
-709
-666
-684
-667
-604
-572
-635
-769
-882
-919
-907
-907
-949
-1014
-1076
-1123
-1157
-1186
-1225
-1291
-1379
-1445
-1441
-1381
-1336
-1358
-1426
-1471
-1462
-1445
-1481
-1576
-1672
-1725
-1733
-1721
-1709
-1707
-1739
-1820
-1915
-1951
-1873
-1702
-1505
-1349
-1232
-1112
-976
-865
-841
-921
-1061
-1192
-1282
-1348
-1403
-1411
-1324
-1148
-961
-848
-818
-805
-745
-651
-590
-608
-678
-733
-723
-654
-571
-511
-483
-476
-477
-477
-488
-521
-572
-620
-639
-624
-599
-596
-626
-673
-702
-698
-680
-696
-779
-897
-969
-931
-806
-700
-710
-830
-954
-984
-923
-857
-869
-958
-1056
-1096
-1059
-979
-906
-873
-887
-936
-1022
-1144
-1288
-1404
-1450
-1436
-1423
-1460
-1519
-1520
-1428
-1298
-1206
-1180
-1189
-1197
-1219
-1283
-1367
-1399
-1351
-1284
-1290
-1389
-1508
-1568
-1565
-1550
-1563
-1583
-1564
-1492
-1414
-1384
-1422
-1479
-1455
-1290
-1051
-929
-1104
-1576
-2137
-2537
-2721
-2868
-3156
-3506
-3599
-3156
-2208
-1085
-145
489
933
1327
1636
1693
1392
849
347
102
93
123
64
-5
72
278
379
167
-326
-852
-1210
-1402
-1538
-1642
-1632
-1440
-1116
-764
-494
-381
-487
-795
-1148
-1342
-1349
-1373
-1594
-1854
-1690
-791
584
1714
2017
1546
885
531
428
106
-749
-1923
-2859
-3160
-2863
-2290
-1734
-1301
-977
-723
-535
-384
-291
-315
-453
-556
-472
-166
264
791
1481
2269
2814
2761
2184
1622
1559
1908
2148
1945
1484
1143
979
698
78
-756
-1516
-2081
-2521
-2852
-2944
-2693
-2202
-1685
-1254
-876
-510
-174
64
185
192
62
-175
-362
-340
-106
176
359
459
568
648
509
15
-693
-1237
-1288
-824
-128
436
689
749
903
1342
1946
2345
2234
1669
1013
625
570
662
701
646
590
626
770
977
1175
1278
1230
1041
800
611
533
577
700
844
933
932
859
769
712
708
734
736
680
594
554
598
649
559
262
-109
-327
-283
-112
-48
-159
-280
-207
83
425
659
775
858
950
1002
974
924
957
1106
1284
1384
1376
1342
1381
1503
1624
1629
1474
1227
1021
956
1026
1135
1182
1140
1076
1059
1091
1118
1096
1022
921
784
581
332
119
40
103
204
259
349
698
1435
2406
3252
3733
3940
4150
4485
4763
4700
4222
3537
2931
2533
2286
2076
1839
1576
1321
1130
1051
1051
1020
847
528
199
34
92
292
485
585
637
756
1002
1285
1435
1349
1071
720
385
87
-153
-265
-198
13
241
376
421
450
474
394
89
-418
-949
-1321
-1510
-1646
-1792
-1819
-1535
-962
-402
-165
-287
-528
-654
-683
-802
-1117
-1523
-1817
-1889
-1781
-1603
-1419
-1243
-1082
-964
-908
-895
-866
-786
-677
-613
-634
-698
-722
-661
-564
-526
-601
-768
-995
-1250
-1501
-1680
-1722
-1629
-1493
-1419
-1407
-1354
-1179
-930
-764
-787
-928
-1015
-936
-756
-622
-604
-623
-552
-331
-19
264
423
445
416
431
495
517
425
257
153
189
294
351
350
395
550
734
813
757
666
623
595
495
323
171
135
194
263
303
346
416
480
482
414
337
300
280
210
60
-119
-250
-295
-258
-173
-66
21
42
-9
-70
-76
-33
-22
-108
-251
-336
-295
-174
-54
28
105
220
366
485
541
571
646
804
988
1093
1068
969
898
891
886
817
697
594
553
580
684
887
1152
1350
1369
1228
1050
907
743
458
61
-298
-481
-471
-366
-267
-157
81
554
1243
1990
2589
2936
3117
3318
3622
3913
3964
3673
3178
2744
2546
2526
2479
2281
2001
1807
1768
1787
1722
1554
1397
1343
1352
1325
1233
1186
1282
1443
1474
1277
992
863
949
1045
935
694
630
901
1254
1256
788
204
-59
55
226
187
36
62
357
734
990
1126
1254
1353
1256
917
560
482
698
921
860
562
331
378
608
745
627
330
32
-148
-197
-150
-59
15
17
-52
-143
-218
-277
-327
-360
-383
-457
-644
-879
-990
-874
-638
-472
-427
-375
-227
-65
7
73
335
724
792
128
-1096
-2156
-2445
-2062
-1636
-1580
-1667
-1365
-492
606
1452
1898
2084
2124
1963
1588
1196
1046
1145
1229
1083
826
785
1118
1613
1904
1851
1652
1580
1657
1646
1362
941
730
922
1334
1587
1477
1161
982
1124
1464
1738
1784
1624
1391
1211
1132
1110
1056
913
741
664
716
756
645
414
265
326
473
485
344
248
325
434
345
50
-234
-321
-268
-229
-208
-58
280
651
842
806
679
606
598
579
503
383
264
209
265
429
618
717
684
586
524
515
511
463
382
319
305
326
363
393
375
259
22
-294
-610
-854
-1035
-1221
-1447
-1657
-1742
-1615
-1230
-567
354
1397
2291
2805
2949
2992
3192
3516
3674
3437
2889
2346
2037
1922
1794
1495
1033
516
54
-283
-449
-457
-368
-263
-197
-167
-128
-39
79
186
218
128
-68
-254
-291
-163
21
147
204
249
265
142
-174
-548
-782
-822
-744
-537
5
1019
2241
3091
3179
2683
2121
1770
1379
505
-917
-2401
-3292
-3286
-2607
-1752
-1089
-657
-286
141
546
741
605
193
-297
-682
-889
-928
-832
-648
-469
-424
-619
-1006
-1367
-1463
-1234
-860
-584
-464
-339
-76
219
286
12
-419
-724
-810
-808
-837
-815
-572
-105
365
634
709
757
893
1045
1070
930
734
618
632
723
824
930
1081
1294
1542
1791
2056
2370
2702
2931
2957
2806
2585
2329
1950
1366
663
57
-281
-357
-275
-101
152
458
761
1036
1299
1540
1668
1592
1349
1102
987
991
1028
1059
1117
1213
1295
1308
1276
1258
1274
1282
1246
1171
1086
1032
1049
1101
1091
948
739
639
749
965
1107
1149
1228
1437
1685
1847
1971
2199
2497
2625
2436
2128
2039
2217
2341
2090
1534
1041
879
970
1051
964
782
684
774
1011
1247
1358
1357
1355
1429
1493
1389
1096
768
588
614
793
1043
1280
1402
1365
1313
1520
2107
2860
3381
3470
3343
3394
3782
4280
4509
4294
3793
3310
3041
2958
2909
2769
2533
2285
2108
2031
2013
1984
1908
1782
1629
1468
1311
1175
1095
1091
1141
1188
1194
1171
1154
1136
1080
989
924
933
995
1022
972
895
858
862
845
783
739
774
855
869
759
595
486
471
474
427
347
295
292
295
281
279
308
320
264
201
284
582
952
1144
1053
816
630
517
321
-76
-589
-1000
-1175
-1134
-958
-671
-276
165
535
753
843
872
854
743
511
224
1
-88
-57
34
146
289
484
714
898
944
837
673
571
563
562
472
302
148
92
133
216
317
436
557
630
640
639
690
806
919
951
871
721
578
507
524
602
703
798
866
907
951
1036
1153
1212
1122
904
692
612
645
653
549
411
367
441
517
476
317
137
24
-2
23
38
-10
-111
-199
-209
-164
-166
-296
-508
-679
-731
-698
-668
-678
-691
-654
-568
-491
-479
-538
-618
-650
-600
-516
-470
-479
-470
-369
-186
-33
-22
-151
-304
-377
-361
-343
-390
-486
-555
-544
-476
-410
-368
-351
-375
-494
-735
-1046
-1337
-1571
-1795
-2056
-2322
-2509
-2556
-2455
-2203
-1774
-1171
-498
104
557
914
1266
1622
1886
1968
1883
1740
1632
1563
1472
1321
1132
940
750
539
311
125
30
8
-4
-49
-98
-102
-71
-65
-129
-241
-353
-451
-555
-656
-698
-637
-516
-417
-391
-415
-443
-465
-514
-597
-680
-708
-651
-535
-419
-359
-369
-415
-442
-426
-408
-445
-552
-676
-760
-798
-822
-852
-872
-864
-837
-809
-772
-703
-602
-507
-457
-456
-490
-546
-635
-757
-891
-1009
-1110
-1206
-1317
-1432
-1495
-1469
-1370
-1275
-1247
-1272
-1265
-1173
-1062
-1056
-1195
-1358
-1377
-1205
-976
-852
-841
-790
-573
-267
-98
-206
-477
-639
-520
-208
55
122
48
-11
16
69
41
-107
-333
-571
-755
-827
-750
-537
-270
-45
103
223
367
531
637
617
495
364
305
325
389
468
562
660
708
669
577
526
574
675
727
683
602
583
644
702
656
507
355
301
350
411
394
291
171
95
69
62
47
22
-17
-85
-188
-307
-406
-482
-567
-673
-761
-773
-704
-605
-529
-473
-401
-317
-266
-290
-369
-454
-527
-611
-717
-807
-822
-760
-686
-664
-692
-705
-654
-563
-512
-533
-597
-670
-776
-984
-1297
-1629
-1891
-2098
-2347
-2678
-2988
-3111
-2967
-2609
-2125
-1556
-925
-309
200
590
947
1327
1641
1727
1521
1160
859
721
670
564
345
60
-203
-404
-554
-661
-741
-805
-868
-929
-954
-920
-846
-782
-755
-755
-772
-820
-902
-985
-1014
-986
-943
-923
-910
-890
-875
-873
-839
-721
-556
-475
-562
-739
-840
-806
-742
-784
-922
-1012
-954
-788
-642
-586
-597
-620
-631
-644
-685
-762
-854
-915
-906
-822
-705
-624
-605
-626
-631
-596
-563
-594
-697
-801
-831
-798
-772
-758
-642
-344
15
173
8
-308
-474
-395
-294
-451
-880
-1308
-1465
-1332
-1105
-968
-923
-853
-686
-467
-283
-170
-96
-25
36
55
40
37
90
197
307
380
413
429
448
483
532
592
649
699
738
771
793
797
787
799
854
930
966
941
901
918
1001
1062
997
801
581
459
457
493
479
410
354
367
442
535
610
660
678
645
556
433
313
228
180
153
125
91
55
21
-1
-13
-31
-58
-92
-136
-180
-206
-187
-108
0
79
100
106
159
258
327
299
214
200
305
450
514
486
466
504
528
456
336
303
384
429
276
-28
-250
-216
-12
89
-107
-530
-930
-1118
-1118
-1137
-1359
-1758
-2091
-2091
-1677
-1002
-308
291
841
1414
1987
2442
2673
2691
2582
2409
2185
1917
1629
1357
1114
885
661
468
335
236
92
-148
-444
-669
-731
-656
-563
-562
-663
-804
-919
-977
-1025
-1144
-1381
-1648
-1744
-1537
-1133
-825
-855
-1176
-1499
-1591
-1492
-1434
-1563
-1806
-1986
-2002
-1880
-1670
-1362
-966
-611
-505
-734
-1132
-1425
-1486
-1468
-1632
-2035
-2429
-2489
-2152
-1684
-1414
-1438
-1582
-1641
-1584
-1504
-1457
-1404
-1317
-1251
-1264
-1312
-1298
-1208
-1142
-1184
-1280
-1323
-1305
-1328
-1420
-1427
-1179
-739
-408
-457
-869
-1363
-1632
-1584
-1369
-1215
-1248
-1403
-1465
-1250
-802
-414
-383
-715
-1110
-1241
-1065
-827
-792
-1004
-1289
-1438
-1360
-1081
-674
-221
185
487
710
946
1257
1584
1784
1778
1638
1497
1425
1391
1337
1255
1187
1152
1123
1088
1092
1188
1354
1497
1546
1512
1463
1458
1507
1568
1571
1438
1133
719
380
316
559
915
1117
1059
867
747
782
887
959
966
908
726
377
-29
-235
-73
330
641
675
606
774
1301
1985
2530
2826
2962
3016
2978
2864
2796
2876
2985
2854
2368
1751
1360
1323
1454
1493
1381
1275
1338
1588
1927
2252
2465
2479
2279
1956
1626
1323
996
655
408
340
404
476
545
751
1179
1714
2172
2533
2947
3508
4107
4564
4833
4989
5017
4765
4176
3484
3040
2925
2859
2552
2069
1764
1850
2147
2278
2087
1759
1551
1528
1545
1443
1246
1134
1272
1651
2071
2283
2185
1895
1631
1500
1419
1226
907
642
623
848
1123
1279
1375
1609
2047
2456
2489
2019
1304
780
654
737
654
235
-298
-566
-385
62
414
480
376
319
352
317
81
-306
-658
-856
-958
-1033
-1011
-761
-278
244
604
792
932
1052
1008
651
65
-470
-753
-844
-947
-1150
-1353
-1414
-1327
-1177
-1015
-844
-696
-679
-842
-1059
-1110
-915
-633
-479
-504
-562
-497
-311
-158
-157
-298
-473
-573
-539
-392
-219
-111
-81
-24
192
566
932
1098
1043
915
852
841
802
754
816
1020
1193
1124
817
529
485
630
677
445
64
-193
-184
1
220
385
453
415
327
289
337
359
236
46
-10
90
95
-153
-353
56
1193
2397
2814
2264
1406
959
908
614
-375
-1782
-2916
-3372
-3273
-2948
-2548
-2033
-1413
-832
-431
-212
-84
-20
-74
-279
-591
-901
-1094
-1104
-927
-628
-323
-132
-103
-170
-212
-143
13
145
149
11
-155
-225
-224
-348
-753
-1247
-1356
-806
112
722
606
-17
-605
-896
-1088
-1441
-1891
-2159
-2097
-1775
-1242
-395
790
2003
2758
2848
2534
2225
2047
1799
1280
567
-42
-308
-208
140
589
1002
1258
1291
1133
895
651
439
308
314
463
672
819
848
769
583
284
-49
-184
94
708
1260
1377
1092
800
793
901
678
-80
-1073
-1788
-1968
-1762
-1460
-1170
-804
-297
234
583
658
568
463
354
123
-281
-676
-773
-461
45
413
504
457
455
480
400
196
1
-72
-61
-103
-256
-469
-687
-888
-1043
-1098
-1078
-1120
-1328
-1612
-1731
-1555
-1206
-901
-697
-464
-90
364
741
948
995
909
704
443
248
232
399
646
871
1073
1315
1609
1918
2184
2352
2402
2355
2240
2081
1932
1878
1974
2149
2258
2238
2218
2384
2740
3120
3463
3950
4745
5637
6075
5679
4645
3580
2895
2453
1818
784
-353
-1024
-823
176
1453
2376
2625
2390
2121
2083
2153
1985
1461
845
485
497
815
1277
1779
2182
2346
2282
2135
2008
1856
1595
1333
1354
1829
2629
3473
4190
4786
5340
5883
6382
6716
6621
5812
4290
2508
1082
257
-238
-779
-1346
-1560
-1145
-226
815
1689
2351
2842
3094
3084
2885
2649
2493
2402
2283
2069
1762
1448
1229
1119
1038
883
626
353
207
315
712
1312
1950
2487
2889
3223
3563
3893
4128
4187
4011
3594
3032
2522
2219
2079
1878
1471
1002
779
925
1207
1282
1038
649
335
166
103
132
274
498
737
953
1140
1300
1429
1513
1532
1444
1238
1034
1009
1148
1190
977
816
1278
2517
3860
4358
3745
2713
2146
2180
2177
1533
337
-786
-1325
-1249
-819
-254
339
866
1222
1400
1519
1688
1840
1768
1374
771
215
-100
-177
-134
-47
62
150
130
-20
-171
-152
44
223
197
-26
-260
-385
-469
-634
-856
-945
-749
-341
36
191
143
47
25
59
64
10
-46
-23
99
273
435
559
650
720
758
725
612
473
390
410
494
574
631
703
817
944
1042
1096
1109
1066
956
846
878
1132
1490
1719
1690
1485
1278
1140
996
753
421
96
-123
-191
-119
42
206
308
352
385
421
416
341
254
258
363
447
375
164
-9
19
224
406
393
198
-10
-77
6
135
213
213
150
50
-39
-40
88
296
473
547
552
567
627
681
653
515
300
62
-150
-254
-169
101
418
614
654
673
797
950
912
591
161
-121
-197
-253
-442
-661
-683
-468
-245
-259
-497
-713
-706
-493
-222
24
301
691
1201
1749
2230
2575
2763
2783
2629
2315
1896
1479
1159
939
746
543
390
368
458
531
477
315
149
41
-39
-143
-281
-415
-519
-601
-683
-752
-791
-788
-750
-698
-651
-593
-468
-249
-8
107
-3
-273
-519
-620
-627
-686
-857
-1053
-1146
-1103
-984
-857
-743
-650
-608
-648
-760
-896
-1027
-1164
-1316
-1441
-1486
-1448
-1389
-1357
-1339
-1273
-1155
-1062
-1077
-1193
-1322
-1399
-1433
-1478
-1564
-1690
-1858
-2083
-2343
-2539
-2579
-2489
-2399
-2410
-2478
-2461
-2278
-2010
-1826
-1837
-2004
-2183
-2244
-2166
-2032
-1955
-1968
-1986
-1886
-1631
-1332
-1153
-1170
-1293
-1375
-1348
-1265
-1206
-1182
-1151
-1091
-1027
-982
-928
-842
-758
-757
-861
-989
-1026
-963
-918
-981
-1123
-1247
-1321
-1387
-1454
-1455
-1348
-1218
-1173
-1172
-1066
-872
-930
-1618
-2874
-4108
-4683
-4476
-3894
-3382
-2983
-2406
-1453
-279
721
1232
1185
714
38
-629
-1136
-1428
-1536
-1547
-1530
-1479
-1363
-1163
-911
-717
-708
-918
-1234
-1471
-1501
-1332
-1056
-767
-520
-356
-308
-367
-463
-513
-491
-432
-368
-291
-189
-131
-159
-198
-124
69
235
267
242
297
408
392
173
-102
-352
-816
-1838
-3327
-4627
-5076
-4677
-4021
-3564
-3132
-2222
-654
1191
2748
3716
4114
4070
3719
3256
2906
2750
2641
2400
2034
1773
1779
1964
2085
1964
1612
1151
694
321
102
93
275
521
690
738
711
650
535
349
172
116
181
246
214
132
107
151
152
52
-36
48
281
431
326
88
18
236
505
456
-29
-690
-1146
-1229
-1065
-884
-803
-764
-635
-347
56
431
628
575
327
13
-249
-425
-537
-608
-640
-639
-628
-614
-574
-496
-423
-439
-591
-819
-1008
-1100
-1129
-1137
-1106
-993
-830
-723
-728
-777
-748
-634
-577
-713
-1002
-1254
-1317
-1234
-1176
-1237
-1338
-1329
-1171
-978
-878
-884
-912
-893
-861
-875
-920
-914
-800
-622
-484
-436
-444
-441
-407
-382
-418
-516
-618
-651
-602
-532
-518
-580
-654
-662
-598
-532
-528
-574
-555
-549
-456
-389
-399
-479
-582
-665
-711
-732
-745
-760
-774
-776
-749
-687
-614
-586
-667
-873
-1137
-1361
-1491
-1538
-1533
-1481
-1373
-1228
-1104
-1040
-1024
-1026
-1061
-1189
-1433
-1729
-1945
-1981
-1853
-1679
-1582
-1578
-1570
-1462
-1261
-1080
-1018
-1058
-1091
-1049
-955
-858
-748
-579
-395
-331
-470
-728
-932
-1009
-1053
-1189
-1389
-1504
-1459
-1360
-1370
-1531
-1755
-1989
-2300
-2762
-3292
-3696
-3862
-3844
-3717
-3408
-2762
-1769
-658
296
1021
1640
2213
2584
2536
2073
1480
1076
937
889
739
464
199
83
117
181
143
-37
-291
-510
-618
-609
-522
-418
-350
-350
-411
-497
-569
-632
-731
-892
-1079
-1226
-1276
-1205
-1018
-762
-531
-410
-409
-468
-531
-603
-732
-919
-1069
-1072
-907
-666
-494
-464
-528
-562
-476
-289
-108
-44
-149
-397
-697
-925
-983
-894
-842
-1050
-1548
-2085
-2341
-2227
-1950
-1768
-1732
-1681
-1465
-1105
-739
-480
-352
-346
-457
-640
-802
-859
-807
-719
-683
-714
-779
-838
-866
-853
-799
-723
-658
-630
-612
-561
-471
-355
-196
63
425
761
903
832
722
762
939
1060
974
691
294
-193
-761
-1272
-1484
-1255
-674
52
795
1541
2270
2890
3320
3575
3693
3630
3313
2803
2335
2135
2230
2438
2575
2604
2597
2602
2596
2549
2472
2388
2267
2056
1778
1581
1646
1986
2408
2637
2533
2188
1831
1636
1618
1667
1662
1558
1401
1275
1232
1260
1324
1409
1521
1661
1797
1887
1922
1928
1947
1979
2003
2008
2020
2096
2234
2355
2391
2381
2423
2511
2489
2243
1927
1876
2213
2634
2710
2381
2043
2071
2337
2367
1902
1177
605
317
117
-171
-455
-511
-259
205
784
1474
2272
3063
3692
4125
4449
4722
4873
4788
4477
4064
3668
3312
2983
2714
2542
2425
2268
2084
2030
2194
2406
2356
1939
1421
1152
1175
1211
1008
641
406
455
652
771
755
698
686
717
750
759
707
539
254
-28
-155
-97
27
71
-7
-161
-341
-533
-711
-824
-867
-913
-1024
-1138
-1075
-714
-148
339
515
396
192
72
-2
-200
-601
-1080
-1448
-1635
-1690
-1655
-1502
-1246
-1032
-1030
-1230
-1437
-1490
-1462
-1543
-1788
-2027
-2073
-1925
-1749
-1687
-1732
-1787
-1786
-1745
-1734
-1813
-1967
-2093
-2081
-1909
-1689
-1561
-1539
-1497
-1334
-1101
-959
-1005
-1161
-1251
-1172
-977
-815
-763
-753
-648
-399
-113
49
38
-32
-30
42
65
-20
-122
-107
43
200
261
263
315
444
550
523
375
219
143
128
89
-25
-167
-239
-200
-116
-115
-259
-468
-584
-533
-402
-340
-398
-473
-444
-304
-149
-75
-106
-228
-429
-686
-918
-1041
-1045
-999
-964
-926
-829
-660
-468
-302
-177
-102
-95
-153
-214
-185
-43
129
208
150
34
-28
-8
14
-51
-191
-282
-205
37
323
544
684
794
897
956
908
734
467
151
-173
-470
-717
-906
-1034
-1090
-1051
-910
-688
-399
-31
430
953
1461
1896
2253
2571
2860
3077
3167
3129
3023
2909
2783
2575
2250
1887
1633
1563
1590
1557
1417
1279
1267
1353
1382
1247
1014
842
813
884
968
1032
1111
1229
1369
1489
1553
1561
1518
1412
1218
939
643
439
385
434
490
513
557
679
854
989
1026
1000
978
973
953
911
880
882
885
842
767
717
700
660
558
450
447
567
690
694
630
702
1033
1483
1743
1630
1259
917
765
709
556
250
-73
-246
-243
-154
-62
33
144
238
269
252
263
359
506
624
673
688
723
792
868
923
955
981
1007
1034
1077
1154
1248
1325
1376
1419
1465
1487
1451
1391
1394
1507
1656
1736
1754
1842
2089
2387
2540
2492
2391
2367
2321
2023
1464
943
752
791
658
128
-532
-844
-688
-468
-678
-1352
-2016
-2170
-1736
-1012
-313
281
888
1626
2462
3192
3576
3569
3333
3036
2646
2031
1310
881
1010
1457
1737
1751
1818
2075
2051
1100
-665
-2241
-2681
-2031
-1173
-780
-662
-93
1324
3187
4539
4520
3000
758
-1114
-1990
-2012
-1727
-1514
-1385
-1197
-848
-339
209
539
463
184
142
321
-71
-1737
-4096
-5475
-4810
-2965
-1881
-2364
-3218
-2676
-385
2385
4239
4850
4729
4325
3749
3165
2860
2836
2655
1912
847
121
8
106
-137
-819
-1568
-2035
-2231
-2311
-2256
-1858
-1015
56
959
1390
1267
707
-12
-518
-528
-87
490
901
1014
865
534
133
-153
-230
-275
-540
-950
-1033
-492
191
38
-1209
-2549
-2753
-1785
-841
-824
-1246
-966
253
1507
2088
2307
2558
2068
-494
-4948
-8902
-9815
-7615
-4704
-3313
-3226
-2452
271
4116
7085
7820
6431
3951
1431
-463
-1496
-1805
-1764
-1714
-1711
-1532
-1037
-347
280
591
420
-164
-928
-1663
-2187
-2290
-1832
-942
-104
179
-161
-712
-1053
-1186
-1423
-1930
-2569
-3215
-3950
-4758
-5195
-4661
-3083
-1133
435
1565
2785
4349
5705
5970
4862
3003
1340
372
-34
-236
-389
-358
-38
497
1055
1442
1570
1442
1073
519
-72
-432
-366
69
576
860
822
550
207
-89
-311
-517
-863
-1537
-2574
-3686
-4313
-4016
-2873
-1480
-460
85
607
1574
2907
3964
4095
3214
1824
566
-236
-624
-777
-823
-818
-808
-787
-617
-202
343
749
804
505
41
-363
-532
-379
9
295
84
-690
-1576
-1929
-1499
-658
-47
-12
-403
-833
-1039
-1021
-944
-966
-1090
-1134
-846
-137
789
1564
1916
1814
1365
683
-113
-856
-1363
-1559
-1514
-1278
-777
58
1120
2110
2762
3023
3039
2927
2658
2159
1498
918
650
707
889
956
820
576
387
354
462
613
649
435
-7
-462
-698
-689
-643
-700
-737
-540
-155
117
105
78
469
1314
2118
2356
2020
1549
1270
1055
570
-260
-1178
-1899
-2341
-2564
-2576
-2343
-1911
-1421
-968
-531
-93
250
342
191
-1
-61
-38
-122
-382
-621
-567
-188
241
394
201
-102
-227
-100
131
274
242
62
-199
-485
-733
-879
-899
-823
-733
-709
-768
-864
-942
-1005
-1072
-1112
-1029
-766
-422
-197
-213
-378
-481
-441
-400
-545
-891
-1257
-1457
-1467
-1379
-1258
-1107
-938
-802
-709
-585
-353
-54
169
231
194
186
260
381
519
689
883
1021
1019
919
851
886
955
925
758
522
336
264
279
313
311
280
291
397
518
495
253
-106
-424
-671
-944
-1283
-1539
-1504
-1144
-642
-215
87
353
643
904
1034
1008
883
715
542
404
349
368
356
221
16
-91
-61
-77
-329
-686
-713
-144
737
1298
1222
834
700
961
1186
901
137
-621
-942
-804
-478
-199
-15
136
301
492
680
809
827
728
593
472
335
122
-151
-399
-583
-772
-1036
-1294
-1322
-966
-305
421
1045
1586
2123
2613
2913
2954
2833
2693
2562
2359
2064
1800
1706
1760
1800
1690
1457
1242
1149
1154
1156
1066
886
696
590
588
611
575
491
445
471
502
458
378
396
569
784
875
796
661
585
557
481
310
92
-102
-255
-375
-444
-424
-318
-194
-116
-81
-42
23
71
50
-37
-139
-214
-266
-323
-371
-355
-252
-146
-151
-269
-372
-354
-291
-349
-538
-659
-566
-407
-450
-649
-556
177
1258
1897
1589
650
-140
-380
-413
-835
-1783
-2796
-3325
-3217
-2713
-2125
-1620
-1241
-1002
-881
-809
-719
-625
-596
-656
-755
-820
-800
-671
-433
-134
109
187
99
-31
-62
45
219
377
501
604
667
635
497
336
275
357
501
584
580
576
664
819
933
934
865
819
836
878
903
924
966
1019
1035
998
948
938
972
1012
1012
954
850
737
665
660
689
685
623
557
562
634
685
640
514
390
315
262
186
89
33
69
196
372
556
736
921
1119
1311
1448
1468
1348
1143
940
784
632
434
229
148
291
614
949
1155
1226
1247
1274
1248
1075
753
392
119
-33
-130
-203
-205
-88
64
63
-206
-646
-1030
-1223
-1257
-1204
-1004
-526
226
1063
1786
2378
2933
3411
3584
3274
2630
2051
1814
1829
1792
1531
1164
933
936
1054
1081
875
434
-135
-660
-963
-966
-752
-504
-353
-254
-41
383
906
1287
1365
1197
988
891
895
885
791
651
548
525
572
663
765
849
877
824
696
533
392
328
354
426
469
444
393
390
452
495
434
280
135
77
57
-51
-266
-442
-438
-295
-203
-277
-414
-433
-310
-202
-232
-332
-348
-259
-200
-262
-357
-348
-235
-161
-219
-340
-394
-347
-271
-225
-197
-170
-163
-194
-214
-154
-22
93
103
20
-52
-39
59
188
308
405
487
566
661
790
946
1082
1145
1136
1117
1151
1229
1285
1287
1272
1306
1399
1498
1555
1585
1610
1632
1626
1599
1579
1577
1545
1433
1270
1154
1157
1244
1319
1317
1292
1349
1523
1717
1805
1760
1679
1663
1683
1617
1418
1208
1152
1254
1340
1260
1080
1001
1112
1288
1361
1324
1308
1399
1510
1523
1457
1452
1575
1711
1696
1520
1343
1318
1432
1542
1566
1550
1576
1652
1714
1700
1623
1559
1553
1575
1580
1566
1576
1644
1747
1824
1814
1685
1428
1073
701
407
218
42
-227
-519
-558
-101
775
1693
2330
2716
3148
3778
4412
4737
4664
4370
4046
3713
3334
2979
2754
2620
2386
1983
1632
1622
1951
2307
2378
2163
1909
1765
1616
1280
785
381
262
345
366
178
-74
-111
190
646
939
913
698
533
548
670
740
687
550
414
346
355
401
415
353
255
212
268
352
374
318
270
256
202
28
-220
-407
-449
-384
-304
-241
-176
-144
-237
-479
-773
-1000
-1095
-1081
-1005
-891
-763
-635
-488
-309
-156
-147
-332
-594
-767
-835
-959
-1233
-1494
-1469
-1124
-751
-649
-796
-865
-638
-260
-85
-265
-599
-773
-680
-479
-376
-393
-395
-292
-144
-48
-40
-84
-139
-204
-254
-211
-38
202
405
550
718
961
1211
1344
1336
1262
1175
1043
830
606
504
560
666
696
635
592
639
722
740
666
569
514
489
433
327
243
258
339
347
169
-118
-289
-200
56
248
254
163
133
194
261
282
268
224
116
-60
-223
-269
-196
-96
-33
22
122
270
428
588
771
933
991
938
865
861
914
926
840
719
662
723
880
1067
1220
1289
1268
1193
1116
1057
998
907
729
430
46
-266
-348
-222
-117
-242
-554
-777
-681
-284
231
749
1282
1852
2420
2929
3382
3806
4130
4207
3970
3537
3131
2887
2779
2698
2579
2430
2289
2183
2125
2102
2062
1960
1802
1651
1567
1550
1540
1495
1456
1482
1568
1611
1508
1278
1069
1028
1155
1314
1387
1395
1448
1591
1727
1739
1651
1631
1822
2173
2463
2513
2344
2131
2003
1917
1730
1382
967
650
515
521
586
666
775
929
1090
1183
1185
1149
1140
1139
1065
899
720
611
533
383
174
96
319
762
1126
1224
1181
1263
1544
1818
1829
1526
1054
587
228
39
49
201
362
446
503
635
854
1053
1129
1088
1020
977
963
989
1071
1188
1281
1312
1309
1322
1355
1384
1415
1485
1580
1635
1617
1598
1691
1898
2082
2112
2004
1894
1877
1928
1948
1854
1635
1355
1159
1241
1678
2299
2754
2790
2488
2164
2059
2103
2001
1547
828
159
-160
-58
282
578
668
592
522
593
778
913
858
643
462
453
537
581
702
1312
2662
4369
5554
5623
4844
4016
3576
3172
2175
475
-1379
-2745
-3403
-3507
-3228
-2626
-1822
-1046
-451
21
516
1136
1427
1566
1489
1334
1191
1108
1132
1298
1552
1717
1627
1286
867
587
523
525
314
-282
-1171
-2062
-2667
-2859
-2654
-2103
-1252
-180
980
2079
3007
3684
4040
4023
3660
3078
2445
1881
1411
990
599
285
129
158
239
190
-12
-223
-302
-302
-381
-561
-707
-706
-617
-549
-498
-411
-389
-687
-1390
-2189
-2607
-2475
-2104
-1993
-2387
-3121
-3796
-4024
-3616
-2682
-1569
-612
154
990
2135
3488
4636
5202
5093
4495
3686
2884
2241
1813
1553
1366
1210
1156
1290
1601
1957
2201
2239
2089
1860
1655
1520
1460
1489
1618
1802
1901
1766
1379
897
534
409
466
556
589
588
626
716
790
765
644
507
437
436
424
337
212
160
262
471
649
720
759
883
1105
1300
1358
1316
1286
1312
1340
1361
1466
1670
1778
1540
977
472
406
757
1147
1278
1247
1405
1940
2682
3257
3350
2891
2082
1276
779
650
683
666
627
809
1379
2197
2897
3203
3101
2768
2382
2012
1657
1327
1073
960
993
1111
1225
1287
1301
1285
1226
1110
977
901
939
1054
1143
1137
1047
937
850
776
679
551
418
333
333
409
512
609
709
842
1008
1153
1238
1286
1350
1436
1470
1391
1229
1083
1019
1021
1057
1137
1285
1451
1527
1462
1318
1188
1064
844
468
13
-388
-680
-900
-1065
-1125
-1039
-863
-682
-492
-172
372
1066
1716
2179
2487
2758
3038
3243
3246
3022
2682
2398
2260
2216
2138
1946
1703
1553
1577
1693
1725
1555
1254
1027
1030
1242
1490
1592
1493
1292
1138
1103
1126
1085
910
659
456
386
438
537
606
616
585
545
516
494
455
392
330
317
359
411
422
383
352
378
449
496
479
431
414
472
590
724
839
920
950
917
822
705
624
611
613
521
296
51
-21
153
415
520
393
205
159
241
250
53
-255
-456
-465
-385
-351
-381
-420
-452
-504
-560
-536
-385
-188
-71
-50
7
220
545
796
836
709
580
569
645
690
646
587
636
825
1057
1207
1252
1285
1370
1442
1370
1114
804
621
638
792
981
1151
1305
1458
1617
1791
1972
2094
2075
1897
1654
1457
1334
1222
1084
961
907
919
945
977
1038
1108
1112
1028
966
1050
1226
1274
1054
725
582
700
822
642
168
-283
-422
-273
-94
-84
-231
-390
-446
-373
-214
-50
44
62
92
230
474
717
857
909
961
1059
1150
1142
1015
859
801
872
962
940
825
815
1052
1419
1604
1431
1058
794
725
626
254
-338
-864
-1124
-1181
-1214
-1286
-1308
-1182
-883
-410
243
1017
1757
2308
2665
2947
3240
3474
3502
3258
2833
2415
2128
1963
1816
1597
1313
1061
947
1006
1158
1275
1263
1100
850
622
505
498
502
399
159
-123
-306
-322
-220
-118
-106
-186
-279
-303
-249
-188
-192
-261
-318
-300
-231
-179
-176
-155
-61
57
89
-5
-134
-167
-75
48
89
36
-39
-66
-52
-62
-131
-231
-305
-323
-294
-237
-155
-43
70
123
67
-75
-222
-313
-377
-500
-712
-937
-1049
-995
-841
-697
-617
-571
-514
-452
-416
-412
-408
-370
-310
-265
-259
-268
-253
-200
-117
-25
55
105
113
105
142
270
457
626
725
770
795
816
847
953
1174
1427
1554
1508
1467
1644
2002
2226
2073
1679
1428
1526
1775
1824
1586
1312
1264
1433
1605
1642
1614
1637
1704
1729
1705
1725
1817
1857
1688
1331
986
815
764
675
506
383
402
511
607
697
879
1145
1326
1275
1042
800
615
408
124
-140
-234
-143
26
203
419
699
978
1142
1162
1089
943
687
339
50
-12
164
412
569
644
745
911
1042
1035
920
820
818
878
925
950
996
1057
1026
756
197
-554
-1321
-1930
-2304
-2490
-2602
-2686
-2606
-2123
-1147
81
1108
1640
1779
1879
2166
2541
2727
2581
2226
1913
1789
1815
1846
1773
1592
1392
1274
1275
1370
1501
1618
1685
1664
1542
1356
1182
1065
981
869
704
533
413
368
401
507
647
716
598
274
-127
-426
-547
-552
-524
-493
-398
-183
142
478
687
690
533
346
237
196
145
89
137
363
655
770
589
248
-7
-68
-39
-66
-159
-196
-74
208
561
874
1056
1057
902
665
422
225
94
-3
-70
-102
-109
-106
-89
-8
187
408
451
240
18
147
601
774
25
-1553
-3050
-3566
-3073
-2298
-1843
-1558
-868
471
2105
3492
4351
4684
4545
3979
3155
2384
1912
1739
1671
1549
1415
1409
1612
1972
2310
2441
2311
2026
1770
1664
1719
1881
2084
2258
2331
2268
2113
1951
1836
1778
1775
1843
1958
2030
1978
1817
1649
1544
1453
1293
1106
1042
1179
1379
1434
1314
1216
1321
1553
1651
1463
1114
830
685
582
434
316
354
550
778
940
1071
1255
1468
1598
1567
1407
1262
1252
1372
1486
1468
1351
1322
1509
1776
1839
1577
1213
1063
1171
1248
1067
785
757
1075
1421
1436
1148
899
900
944
683
54
-637
-1041
-1075
-886
-597
-186
405
1135
1874
2545
3136
3626
3938
3990
3758
3330
2842
2401
2064
1831
1664
1514
1373
1281
1280
1342
1392
1389
1359
1306
1164
868
517
342
470
735
805
549
194
71
252
495
540
389
215
118
48
-41
-83
-11
97
108
20
-38
-13
-5
-104
-243
-253
-115
5
15
49
281
630
792
601
239
-25
-177
-422
-845
-1248
-1377
-1244
-1078
-1024
-998
-883
-739
-732
-896
-1091
-1202
-1292
-1477
-1726
-1871
-1795
-1571
-1373
-1287
-1282
-1298
-1300
-1314
-1352
-1385
-1397
-1399
-1405
-1414
-1412
-1372
-1308
-1246
-1243
-1334
-1482
-1577
-1526
-1321
-1075
-916
-872
-835
-670
-382
-134
-88
-250
-476
-617
-675
-738
-841
-907
-843
-675
-516
-415
-318
-158
-19
-68
-331
-593
-611
-389
-187
-224
-411
-472
-306
-127
-184
-458
-728
-846
-869
-903
-930
-888
-820
-821
-858
-820
-745
-862
-1295
-1730
-1637
-901
-11
420
303
91
168
404
348
-219
-1090
-1898
-2441
-2737
-2820
-2660
-2265
-1766
-1330
-1012
-740
-449
-190
-72
-141
-320
-506
-686
-912
-1135
-1168
-885
-432
-147
-221
-474
-517
-179
305
508
210
-431
-1039
-1326
-1300
-1206
-1279
-1524
-1735
-1750
-1622
-1517
-1466
-1329
-942
-333
310
842
1287
1772
2363
2920
3131
2752
1917
1212
1233
1989
2800
2957
2438
1874
1788
1996
1888
1162
130
-713
-1179
-1377
-1394
-1155
-631
-20
393
518
483
441
396
236
-78
-492
-874
-1047
-898
-479
-14
271
337
344
437
578
603
475
363
464
772
1088
1252
1274
1250
1214
1115
907
614
285
-47
-362
-618
-782
-857
-846
-708
-401
15
368
515
474
385
349
259
-59
-558
-924
-876
-485
-140
-144
-399
-566
-468
-244
-122
-115
-13
364
973
1582
1932
1913
1672
1558
1842
2385
2660
2205
1112
-11
-643
-822
-1006
-1517
-2201
-2653
-2621
-2152
-1480
-836
-365
-125
-25
104
392
754
934
736
213
-353
-667
-612
-286
121
446
614
680
839
1308
2067
2734
2871
2477
2087
2210
2691
2793
2012
668
-429
-815
-752
-771
-1041
-1325
-1405
-1346
-1308
-1292
-1203
-1012
-887
-985
-1216
-1338
-1208
-1004
-998
-1192
-1262
-997
-680
-805
-1340
-1527
-687
818
1862
1903
1764
2664
4582
6004
5491
3235
771
-749
-1541
-2529
-4040
-5492
-6163
-5900
-5043
-3960
-2885
-1986
-1432
-1269
-1442
-1941
-2770
-3769
-4540
-4799
-4681
-4566
-4608
-4565
-4126
-3336
-2584
-2211
-2170
-2157
-1969
-1651
-1376
-1212
-1114
-1040
-1030
-1180
-1525
-2009
-2484
-2797
-2889
-2836
-2786
-2826
-2895
-2844
-2589
-2191
-1823
-1631
-1649
-1798
-1987
-2183
-2387
-2545
-2573
-2453
-2257
-2077
-1965
-1897
-1794
-1626
-1453
-1377
-1466
-1633
-1684
-1530
-1327
-1331
-1560
-1666
-1274
-433
350
599
321
-66
-205
-145
-187
-526
-1077
-1597
-1885
-1877
-1637
-1301
-1009
-838
-774
-744
-686
-606
-572
-630
-780
-983
-1151
-1213
-1164
-1052
-938
-903
-974
-1110
-1224
-1247
-1186
-1099
-1008
-879
-695
-525
-478
-612
-887
-1228
-1545
-1734
-1730
-1552
-1306
-1094
-914
-691
-393
-107
53
78
38
21
92
278
513
619
461
156
6
157
360
212
-309
-659
-288
714
1650
1902
1510
1013
819
848
743
289
-400
-1028
-1339
-1202
-699
-111
259
297
157
69
95
109
-2
-170
-250
-201
-112
-51
17
145
288
313
127
-237
-639
-928
-1041
-1012
-939
-929
-1033
-1198
-1307
-1274
-1144
-1049
-1071
-1173
-1251
-1244
-1194
-1186
-1239
-1294
-1279
-1176
-1034
-910
-830
-795
-801
-853
-957
-1094
-1205
-1209
-1071
-843
-643
-561
-571
-586
-549
-499
-536
-713
-987
-1268
-1500
-1691
-1893
-2141
-2428
-2708
-2927
-3033
-2993
-2799
-2459
-2009
-1497
-967
-458
-8
345
580
704
722
623
394
74
-230
-425
-504
-559
-683
-880
-1065
-1149
-1124
-1077
-1102
-1229
-1385
-1477
-1478
-1470
-1556
-1758
-1992
-2156
-2219
-2230
-2246
-2272
-2284
-2263
-2211
-2134
-2047
-1988
-1993
-2062
-2148
-2197
-2192
-2153
-2100
-2041
-1986
-1945
-1916
-1862
-1755
-1621
-1534
-1547
-1634
-1710
-1699
-1610
-1520
-1506
-1570
-1641
-1641
-1568
-1497
-1513
-1617
-1741
-1817
-1845
-1867
-1913
-1974
-2027
-2050
-2025
-1946
-1844
-1784
-1800
-1832
-1792
-1683
-1623
-1709
-1879
-1967
-1899
-1780
-1748
-1774
-1701
-1456
-1174
-1053
-1096
-1104
-914
-600
-408
-475
-684
-802
-729
-576
-497
-522
-541
-458
-294
-138
-27
77
219
375
471
479
444
415
411
430
498
627
770
860
929
1082
1350
1594
1620
1428
1246
1261
1389
1384
1167
943
940
1105
1166
973
687
563
642
721
610
363
203
263
455
581
536
381
261
243
288
280
162
-12
-145
-207
-242
-294
-332
-306
-221
-130
-50
88
320
570
718
772
884
1144
1398
1373
1017
626
543
755
872
580
22
-355
-303
-31
65
-139
-398
-447
-320
-288
-505
-842
-1078
-1167
-1251
-1460
-1730
-1896
-1864
-1666
-1371
-985
-485
125
767
1313
1663
1831
1957
2167
2414
2471
2164
1601
1110
911
901
806
533
254
161
242
333
338
320
334
320
200
15
-107
-106
-60
-63
-121
-167
-167
-150
-142
-128
-101
-91
-127
-186
-219
-193
-121
-49
-12
-15
-27
-6
53
115
134
122
132
197
282
324
307
262
202
96
-59
-193
-216
-122
-5
50
62
114
235
360
409
365
274
189
132
91
32
-46
-97
-72
11
63
22
-57
-30
161
355
340
120
-37
100
399
476
179
-143
32
749
1419
1404
749
158
216
745
1025
619
-150
-586
-359
232
673
757
673
691
872
1078
1169
1131
1054
1013
1021
1043
1038
1010
1021
1099
1180
1172
1055
901
802
792
851
946
1050
1110
1067
891
646
453
390
432
496
526
549
641
849
1127
1358
1444
1385
1272
1192
1146
1058
879
663
514
476
489
464
396
355
384
440
444
390
352
400
508
588
590
547
526
515
431
294
241
355
530
593
547
549
607
487
65
-333
-228
284
327
-886
-2998
-4646
-4781
-3724
-2701
-2446
-2513
-1992
-618
1031
2242
2792
2850
2563
1976
1270
796
782
1120
1484
1673
1778
1990
2416
2968
3391
3421
2966
2202
1473
1031
889
869
808
665
489
336
217
124
46
-60
-237
-472
-676
-786
-865
-1053
-1373
-1632
-1555
-1086
-490
-137
-140
-269
-240
-59
-8
-293
-770
-1092
-1079
-895
-837
-971
-1081
-948
-621
-379
-417
-655
-850
-877
-843
-902
-1022
-1002
-725
-329
-94
-148
-344
-458
-432
-420
-567
-838
-1067
-1144
-1097
-1024
-998
-1056
-1195
-1349
-1411
-1336
-1202
-1140
-1174
-1161
-968
-638
-334
-141
-20
39
-69
-438
-929
-1211
-1082
-698
-422
-423
-529
-456
-168
107
167
14
-195
-337
-366
-232
102
530
802
745
488
328
359
339
2
-551
-893
-710
-143
407
727
960
1357
1939
2467
2700
2605
2332
2009
1666
1296
946
714
662
722
753
691
610
674
926
1180
1175
841
391
122
129
252
299
279
339
512
612
444
84
-160
-86
176
309
201
58
161
566
1071
1446
1607
1598
1500
1402
1390
1464
1503
1375
1112
902
896
1041
1147
1125
1071
1129
1321
1543
1672
1674
1594
1484
1364
1231
1067
867
649
448
300
221
208
239
281
281
166
-87
-387
-556
-416
67
778
1545
2243
2827
3332
3811
4274
4616
4627
4154
3306
2455
1967
1893
1968
1928
1776
1722
1874
2105
2210
2139
2003
1878
1700
1389
1007
742
716
854
981
996
939
899
911
935
943
933
893
774
551
283
120
181
409
621
675
612
603
770
1061
1292
1316
1124
824
533
304
129
-20
-159
-300
-430
-501
-466
-326
-168
-126
-249
-443
-570
-592
-584
-622
-692
-758
-866
-1110
-1465
-1733
-1720
-1453
-1177
-1116
-1270
-1426
-1398
-1187
-954
-859
-962
-1191
-1397
-1449
-1312
-1090
-953
-999
-1165
-1294
-1279
-1132
-969
-894
-923
-986
-994
-894
-691
-440
-237
-154
-187
-249
-233
-103
65
160
162
171
