504
468
439
427
430
437
443
446
435
408
373
348
340
343
347
354
366
375
364
327
292
285
306
327
322
291
257
232
213
194
184
196
221
230
203
150
103
84
92
108
119
123
123
114
95
79
84
114
152
175
170
146
124
118
129
156
193
231
260
273
271
265
267
281
309
342
368
373
354
321
298
302
329
363
388
398
401
407
415
426
444
477
527
580
611
609
589
580
601
645
685
699
685
661
646
647
656
665
677
698
721
731
719
697
691
710
741
764
772
771
760
734
697
668
668
692
711
696
651
605
582
586
602
610
608
603
598
589
564
530
506
510
535
552
545
527
515
508
486
446
413
412
425
414
362
303
288
332
404
467
510
536
539
506
444
384
358
361
366
346
307
275
275
314
383
459
519
553
570
588
613
634
642
753
674
712
741
736
699
659
640
649
671
689
691
671
636
602
589
605
636
657
651
616
552
455
328
186
60
-32
-95
-159
-242
-326
-351
-254
-25
265
513
670
779
934
1184
1486
1757
1948
2068
2131
2114
1983
1759
1507
1259
979
623
247
-3
-24
132
301
379
418
542
782
1023
1123
1055
907
789
728
688
649
629
643
670
675
651
623
619
633
642
634
620
607
590
564
539
535
560
590
597
568
526
497
487
485
481
479
482
478
449
398
355
351
385
420
427
403
365
330
302
288
292
308
310
279
225
182
165
155
133
108
106
130
143
112
49
4
7
40
65
64
50
37
23
6
1
24
68
109
127
125
123
128
132
134
143
171
209
231
218
183
162
181
232
285
315
321
317
311
306
308
328
367
409
430
423
404
394
397
407
419
438
467
496
514
511
494
481
486
515
562
601
609
583
549
543
575
629
673
693
689
667
632
594
573
582
614
642
644
621
591
576
584
612
646
666
665
646
624
609
599
594
600
621
646
653
628
587
561
570
602
631
637
617
581
536
492
453
427
419
425
437
449
457
468
487
514
541
562
567
553
510
443
370
322
311
328
352
372
391
413
432
442
460
504
574
639
665
653
632
631
653
681
701
710
708
689
655
621
602
605
620
637
651
657
647
614
569
539
534
525
455
299
92
-100
-228
-299
-357
-429
-494
-495
-383
-164
89
290
412
513
678
927
1195
1401
1526
1611
1674
1677
1584
1423
1255
1087
845
477
71
-188
-180
38
283
423
477
546
692
876
1012
1052
1006
910
797
689
613
590
620
679
731
748
724
670
612
579
581
602
613
600
571
539
507
469
437
429
452
486
499
481
451
430
424
424
422
421
421
410
377
328
290
281
295
307
300
280
256
227
187
142
114
121
148
158
127
73
26
5
4
8
13
21
25
12
-21
-56
-67
-55
-35
-27
-33
-47
-67
-96
-124
-127
-93
-40
-7
-15
-46
-68
-70
-64
-54
-32
10
53
67
44
10
2
33
82
118
123
103
82
83
115
171
233
289
337
382
419
435
424
405
407
440
485
513
505
473
442
427
433
453
476
488
479
450
414
392
396
424
464
498
510
493
455
419
409
430
461
478
470
449
425
406
390
378
382
403
430
441
424
386
352
345
370
410
441
451
439
416
391
381
393
425
451
446
406
349
296
253
218
201
219
271
321
337
322
317
349
399
423
400
352
306
266
217
164
132
147
197
249
275
275
268
272
298
345
398
434
426
405
412
433
448
451
456
469
479
467
432
391
368
373
400
434
457
453
421
378
343
312
260
170
45
-99
-248
-394
-519
-600
-617
-562
-429
-229
-2
185
300
385
528
770
1049
1269
1391
1450
1481
1464
1362
1196
1023
850
607
246
-157
-426
-438
-231
37
232
344
443
580
736
854
892
849
757
651
554
484
453
465
507
556
587
589
569
538
507
484
476
489
515
538
537
506
458
417
399
408
432
457
469
459
430
394
366
355
356
360
358
350
336
312
275
233
206
205
221
221
187
127
68
40
50
81
112
121
98
54
9
-14
-8
17
42
55
54
42
25
13
12
25
44
61
70
76
77
68
52
45
70
124
174
185
153
111
93
108
139
170
200
230
251
252
237
225
236
268
307
336
350
346
332
321
330
365
414
457
483
493
491
481
476
488
523
568
596
588
556
524
511
518
538
562
583
593
584
559
532
520
533
557
575
569
540
498
463
446
454
481
511
529
528
511
486
461
446
446
466
489
492
461
415
385
389
411
427
431
434
439
430
390
258
250
241
226
200
163
124
102
109
148
209
275
326
351
353
348
356
387
434
477
498
493
473
454
443
439
438
438
442
446
438
411
373
352
368
414
462
485
476
440
381
297
192
82
-17
-107
-197
-295
-399
-489
-523
-443
-229
62
314
446
491
567
763
1052
1338
1557
1709
1805
1819
1716
1520
1304
1105
870
529
102
-277
-465
-432
-264
-77
83
234
403
570
689
731
701
631
554
487
431
391
374
380
393
395
383
371
373
382
380
351
303
265
256
276
308
327
319
286
251
242
272
328
380
400
383
338
291
259
250
261
276
284
280
264
238
205
176
165
177
197
205
190
159
126
102
90
90
95
93
72
30
-22
-66
-90
-89
-70
-44
-33
-52
-93
-129
-139
-120
-94
-77
-69
-62
-56
-59
-69
-71
-47
0
48
75
74
55
35
28
43
80
127
164
176
161
135
125
146
191
243
282
302
308
310
318
337
370
415
461
495
504
489
462
446
457
490
526
540
525
489
453
430
423
428
435
440
443
446
448
441
426
414
419
442
465
464
432
383
347
344
372
415
445
450
432
408
389
376
374
387
418
451
461
435
394
371
383
417
447
462
457
428
374
309
265
261
282
290
270
236
220
229
254
285
326
378
419
421
373
295
227
196
204
229
247
244
228
220
236
272
310
341
371
408
442
451
432
411
423
474
535
567
559
526
491
465
450
449
463
481
488
473
443
420
420
440
466
476
455
389
274
122
-41
-187
-291
-353
-398
-447
-488
-467
-330
-83
196
421
573
710
889
1105
1307
1468
1601
1712
1750
1651
1413
1113
822
533
194
-188
-502
-618
-499
-242
12
192
333
507
729
933
1033
992
850
688
565
505
508
561
635
689
691
642
576
533
527
549
576
593
589
565
529
497
484
494
517
536
537
518
490
464
450
450
461
475
473
440
381
325
305
329
369
391
385
360
328
292
256
234
237
259
273
261
225
180
142
115
103
106
112
107
81
41
5
-9
1
28
63
93
103
86
53
33
43
81
123
150
163
166
162
146
122
109
121
152
178
179
155
128
120
137
172
213
248
267
262
238
211
204
230
280
333
368
380
374
363
359
372
405
451
491
502
479
440
415
424
459
499
522
521
501
474
455
452
470
500
530
545
538
506
460
425
420
447
487
512
509
486
461
444
439
445
461
481
490
478
447
411
390
392
416
450
478
484
460
418
389
396
438
484
507
501
476
443
402
357
327
325
345
361
355
336
328
346
386
435
474
492
477
428
361
298
260
248
253
270
288
300
299
288
284
306
354
413
456
471
469
469
486
516
543
558
563
567
570
562
538
514
515
559
627
681
694
670
637
617
616
626
638
629
-433
-403
-234
55
366
597
743
891
1119
1399
1631
1767
1854
1950
2016
1948
1707
1373
1051
751
405
7
-327
-450
-336
-101
116
269
408
585
788
954
1031
1006
898
753
618
539
535
591
666
710
700
646
583
543
533
542
556
565
565
550
519
481
455
454
475
503
518
509
479
444
423
428
450
467
459
422
371
325
292
270
256
254
262
264
238
181
122
102
137
198
233
216
163
112
84
71
58
44
41
48
46
20
-20
-48
-46
-24
0
13
15
10
-2
-15
-16
8
56
108
144
153
142
125
117
127
158
200
234
246
236
217
204
207
225
256
289
315
323
312
295
292
312
351
392
423
436
431
413
399
405
439
487
525
542
541
531
512
492
484
501
537
565
562
529
492
477
490
519
549
567
564
539
505
482
484
509
543
571
584
580
563
538
515
503
509
529
552
560
543
510
488
499
536
573
591
584
556
508
452
413
418
465
523
558
561
547
529
515
514
535
569
587
564
507
454
439
463
505
548
585
611
621
612
594
578
568
559
546
528
504
470
428
392
379
400
449
505
548
569
575
582
608
649
695
731
748
749
739
723
706
698
710
740
774
783
756
702
652
633
650
686
715
720
700
671
644
612
557
466
349
220
88
-47
-183
-305
-391
-412
-338
-153
101
330
463
531
643
876
1185
1457
1628
1732
1811
1836
1748
1557
1355
1199
1031
747
350
-7
-152
-46
194
416
556
653
759
884
988
1027
988
890
774
679
626
615
627
647
667
687
703
707
692
658
613
566
532
523
544
576
587
560
508
463
447
454
466
475
486
493
483
447
401
375
381
401
410
397
371
343
316
292
281
291
315
327
309
264
207
163
143
149
169
181
163
111
50
10
1
9
17
20
24
26
15
-14
-41
-38
-2
41
60
51
35
31
39
46
55
86
144
202
224
199
160
147
174
223
265
283
280
264
248
243
258
291
330
364
389
402
406
405
411
436
480
528
560
567
551
521
487
465
473
513
562
586
567
518
475
469
504
562
612
628
605
567
545
558
601
644
665
660
639
617
600
588
582
585
602
626
638
623
587
556
552
572
592
597
591
585
576
561
545
546
574
614
639
634
609
580
561
554
561
580
607
633
644
632
602
577
578
602
624
610
555
484
431
404
398
413
453
513
568
591
577
554
542
542
535
509
471
433
393
346
302
287
321
392
464
500
493
473
474
511
569
621
652
661
653
634
612
602
613
638
659
661
642
613
577
542
517
514
532
550
550
536
526
530
525
481
389
271
152
29
-113
-271
-417
-514
-537
-473
-309
-65
185
353
422
485
655
951
1267
1488
1590
1630
1643
1596
1463
1278
1098
904
614
204
-201
-404
-318
-45
225
388
483
603
772
926
995
965
877
778
686
606
547
526
548
595
640
661
653
624
583
540
508
496
507
529
543
536
507
468
435
416
413
424
440
449
438
408
372
349
345
352
358
357
353
338
302
249
202
187
205
228
223
184
132
91
65
51
43
44
51
48
17
-42
-104
-143
-149
-139
-136
-158
-200
-247
-284
-296
-272
-216
-151
-110
-112
-139
-156
-139
-97
-52
-19
2
19
32
39
42
53
77
112
148
174
180
166
145
133
148
189
239
277
288
277
260
255
268
297
334
373
402
416
410
394
389
405
439
475
498
501
487
461
436
430
454
493
523
526
505
474
444
424
419
436
465
483
471
432
388
366
376
407
438
449
432
401
374
364
366
376
392
417
440
443
417
379
359
372
406
440
460
459
436
399
369
367
395
431
448
434
401
367
349
355
383
416
433
421
385
343
301
256
209
174
165
180
198
201
192
191
210
246
286
308
297
245
162
71
10
-4
23
61
82
84
85
98
122
149
179
222
273
307
300
260
228
239
290
345
375
373
355
329
299
273
264
277
298
306
293
267
240
224
227
250
280
293
255
148
-15
-192
-346
-462
-553
-640
-737
-832
-882
-836
-671
-427
-189
-19
96
224
406
618
806
953
1075
1169
1180
1067
864
655
466
241
-77
-432
-667
-667
-467
-221
-52
41
147
332
562
739
782
688
522
365
267
236
256
305
358
386
370
316
254
219
219
237
241
216
170
127
109
119
145
166
171
160
138
111
85
65
62
82
116
146
152
127
87
56
50
65
82
83
64
31
-9
-48
-74
-76
-54
-30
-29
-62
-112
-157
-182
-192
-195
-193
-189
-194
-214
403
382
398
438
443
347
129
-161
-436
-630
-756
-862
-969
-1035
-999
-853
-639
-377
-52
337
710
965
1090
1175
1302
1444
1507
1445
1319
1213
1135
1022
842
645
510
466
471
477
478
491
529
603
720
841
862
673
287
-140
-460
-697
-995
-1379
-1661
-1610
-1206
-660
-182
180
467
645
651
529
443
493
610
681
733
923
1317
1771
2072
2144
2060
1910
1703
1441
1184
1010
923
854
770
726
801
967
1094
1049
821
529
309
220
222
244
249
243
225
162
28
-158
-338
-463
-521
-532
-537
-582
-688
-828
-923
-901
-779
-660
-648
-729
-780
-676
-418
-128
67
149
180
206
198
94
-124
-420
-750
-1096
-1436
-1693
-1749
-1557
-1219
-927
-784
-712
-561
-308
-98
-93
-278
-479
-555
-523
-468
-400
-250
-7
219
312
282
243
251
240
123
-74
-233
-283
-288
-361
-521
-662
-658
-505
-340
-313
-446
-605
-612
-405
-99
130
203
203
273
461
687
824
810
680
508
350
237
176
169
184
170
106
35
30
106
183
167
54
-65
-100
-54
0
13
9
26
44
-2
-134
-294
-404
-437
-433
-439
-448
-424
-351
-263
-215
-233
-290
-328
-321
-284
-256
-247
-235
-194
-134
-92
-92
-118
-138
-144
-152
-173
-188
-180
-151
-118
-84
-36
24
72
77
38
-7
-12
27
67
62
5
-52
-46
28
102
110
65
46
88
106
-40
-369
-712
-848
-717
-467
-291
-225
-139
97
453
764
887
813
637
455
306
186
89
18
-23
-42
-43
-23
23
86
126
110
34
-61
-133
-167
-172
-153
-102
-37
-29
-129
-278
-310
-115
234
538
686
776
974
1284
1493
1382
954
430
25
-234
-459
-724
-966
-1061
-966
-742
-492
-276
-110
-1
44
29
-19
-68
-103
-124
-130
-113
-65
12
110
198
211
84
-169
-412
-478
-321
-85
29
-27
-92
9
261
475
498
359
200
109
79
107
237
475
688
709
537
400
535
908
1225
1231
982
777
822
1016
1072
818
336
-168
-564
-855
-1070
-1179
-1127
-916
-606
-253
127
510
831
1016
1043
955
831
730
681
679
695
711
752
862
1012
1055
825
329
-191
-449
-357
-74
183
358
556
892
1349
1805
2125
2229
2099
1795
1451
1215
1140
1140
1078
910
733
673
754
882
935
870
740
624
553
505
462
442
468
529
574
563
499
424
371
336
297
233
135
8
-122
-213
-250
-262
-292
-315
-264
-124
14
37
-62
-169
-180
-125
-125
-226
-347
-371
-281
-172
-116
-100
-72
-18
30
42
33
47
102
183
261
309
323
311
291
288
308
323
310
272
245
255
299
360
446
564
683
735
693
618
610
704
803
790
649
479
389
391
424
438
426
399
367
344
360
432
540
625
654
631
574
493
399
317
267
234
184
110
61
81
156
217
201
113
17
-36
-50
-71
-142
-240
-295
-250
-120
8
52
20
-10
20
76
77
-13
-133
-195
-167
-104
-81
-109
-129
-84
21
129
188
195
198
246
340
427
455
427
393
398
426
430
402
391
438
515
566
590
629
704
777
812
839
896
937
858
646
445
409
510
550
397
149
20
93
239
268
143
-10
-45
75
274
454
552
567
551
570
656
782
890
950
974
967
902
766
587
409
231
-5
-328
-675
-910
-946
-799
-549
-252
79
437
792
1111
1375
1552
1593
1484
1292
1123
1031
984
943
926
972
1061
1114
1088
1042
1077
1207
1337
1364
1290
1202
1164
1165
1147
1060
912
762
672
673
751
848
902
893
860
870
947
1049
1088
1010
850
695
620
635
690
721
690
612
557
569
627
664
623
527
456
466
531
588
592
543
469
407
386
401
404
351
251
190
234
352
445
446
392
380
457
582
677
689
637
580
572
613
658
650
587
522
526
618
749
849
883
872
861
886
949
1022
1073
1089
1071
1053
1079
1159
1240
1243
1136
985
911
962
1068
1118
1096
1101
1210
1368
1444
1384
1284
1271
1341
1370
1275
1131
1093
1230
1439
1565
1542
1437
1350
1301
1242
1134
1009
937
942
978
992
976
979
1020
1043
975
815
649
577
600
634
622
597
634
734
801
768
674
619
640
663
606
493
424
455
531
567
545
525
534
531
454
334
272
316
410
455
424
373
361
395
436
463
483
512
555
617
702
786
827
803
713
569
384
187
39
-14
14
63
106
177
312
469
559
534
444
353
259
114
-98
-310
-454
-532
-594
-637
-599
-463
-333
-325
-442
-543
-491
-317
-186
-192
-259
-255
-184
-173
-316
-546
-730
-846
-996
-1247
-1495
-1555
-1348
-995
-689
-515
-388
-181
118
403
548
522
409
323
320
376
428
444
436
436
439
403
287
100
-62
-88
44
231
336
320
256
238
271
282
225
126
31
-46
-104
-112
-26
133
262
257
136
19
-1
60
118
111
46
-26
-66
-55
-7
30
-5
-130
-286
-386
-392
-354
-345
-383
-418
-400
-331
-264
-244
-283
-364
-460
-542
-587
-595
-593
-607
-629
-614
-533
-398
-272
-214
-236
-290
-312
-290
-261
-288
-375
-453
-443
-335
-201
-123
-118
-132
-115
-71
-49
-82
-150
-208
-229
-218
-195
-167
-138
-122
-127
-140
-117
-35
73
143
139
96
68
68
61
20
-28
-39
-8
26
30
21
30
58
76
66
38
8
-32
-85
-125
-126
-104
-111
-173
-249
-274
-231
-178
-177
-232
-288
-306
-305
-333
-400
-467
-493
-486
-489
-508
-489
-367
-161
18
57
-47
-178
-222
-185
-177
-277
-439
-542
-518
-413
-325
-293
-286
-254
-199
-156
-133
-97
-20
71
107
57
-28
-68
-47
-30
-69
-124
-111
-15
65
43
-32
-17
155
365
423
276
60
-57
-54
-69
-232
-532
-841
-1048
-1140
-1163
-1142
-1066
-932
-762
-582
-384
-148
87
215
145
-102
-377
-532
-543
-514
-553
-653
-713
-677
-604
-613
-761
-992
-1218
-1404
-1579
-1749
-1841
-1763
-1503
-1159
-846
-588
-323
-2
333
585
689
672
610
556
526
516
525
547
562
556
534
524
543
581
618
643
661
683
703
711
708
704
690
660
625
621
657
697
697
660
644
686
754
765
687
594
582
664
742
721
622
549
565
612
592
495
401
376
385
357
308
328
460
619
680
631
589
648
774
834
733
493
229
42
-57
-127
-217
-311
-338
-263
-130
-19
48
119
212
257
170
-25
-189
-232
-208
-231
-322
-382
-318
-160
-16
37
17
-21
-50
-77
-117
-177
-255
-342
-408
-424
-375
-283
-188
-115
-67
-34
1
36
49
15
-67
-168
-258
-315
-336
-315
-256
-184
-127
-79
-3
115
240
315
330
339
381
439
466
457
470
543
636
668
614
526
465
440
416
371
320
285
263
240
225
256
355
499
621
652
579
466
399
411
440
389
235
79
54
187
390
559
675
788
922
1023
1030
948
850
789
742
644
477
316
254
316
438
533
571
581
594
598
565
492
419
383
382
386
360
312
297
354
470
559
530
375
191
86
78
75
-4
-130
-187
-103
82
264
386
461
498
478
388
272
198
179
174
152
143
192
275
302
212
33
-154
-313
-467
-622
-721
-686
-493
-200
114
408
679
912
1077
1155
1175
1161
1114
1024
917
857
884
967
1034
1059
1070
1103
1134
1101
1000
898
877
928
958
894
764
664
652
694
707
649
545
449
397
383
386
399
426
476
557
672
806
919
967
933
826
663
464
268
141
136
231
345
411
459
563
713
784
651
345
41
-104
-81
3
64
106
181
310
473
630
739
760
683
550
441
404
417
431
428
429
450
472
469
435
382
322
265
223
207
211
222
233
250
273
287
278
243
192
138
103
121
206
317
372
335
268
274
387
529
591
544
458
416
437
478
496
485
465
442
422
416
428
451
462
461
462
476
486
466
426
398
374
275
31
-315
-580
-597
-387
-147
-45
-38
61
359
739
980
985
856
745
697
656
584
527
533
573
573
526
497
535
602
612
539
444
400
414
447
481
530
609
691
730
709
671
666
709
772
814
819
805
793
774
735
687
659
665
679
660
612
581
606
671
721
719
681
647
632
607
529
390
220
66
-46
-138
-251
-384
-472
-430
-241
-1
135
81
-120
-337
-458
-459
-397
-343
-328
-336
-329
-284
-214
-170
-214
-387
-675
-1002
-1258
-1354
-1267
-1055
-808
-584
-380
-157
99
346
508
528
416
246
102
42
73
151
213
223
197
177
176
168
135
113
154
250
322
306
233
194
219
226
129
-41
-145
-86
75
185
172
118
159
319
467
446
234
-35
-188
-169
-71
-23
-59
-101
-56
82
226
285
237
124
3
-92
-146
-157
-142
-128
-131
-140
-136
-122
-122
-150
-197
-258
-337
-427
-485
-467
-378
-289
-271
-324
-385
-412
-419
-445
-490
-516
-503
-470
-453
-454
-446
-410
-358
-323
-322
-343
-349
-304
-208
-108
-65
-90
-130
-122
-68
-26
-45
-106
-147
-124
-37
82
209
322
399
420
400
376
360
324
236
109
1
-36
-19
-16
-90
-230
-356
-396
-351
-288
-268
-289
-297
-250
-161
-84
-59
-86
-151
-234
-317
-374
-394
-384
-355
-301
-207
-90
3
31
16
14
50
84
60
-18
-71
-21
123
277
349
311
225
189
285
494
698
767
670
524
489
607
771
821
714
555
471
489
562
646
735
814
832
755
644
591
594
539
351
114
-6
53
185
274
339
468
654
749
642
388
158
28
-74
-244
-467
-644
-717
-718
-681
-576
-380
-161
-66
-168
-354
-425
-277
1
221
284
263
278
346
360
216
-69
-389
-676
-938
-1166
-1266
-1127
-747
-283
93
334
512
707
902
1023
1016
894
730
598
555
607
704
795
847
867
866
841
807
779
765
754
736
737
788
857
866
778
668
652
724
757
662
513
483
626
817
894
834
757
747
763
722
624
564
598
662
651
545
441
446
570
708
746
671
555
504
550
630
648
557
399
276
253
297
323
286
217
170
148
124
91
90
143
211
224
172
114
111
149
175
164
128
90
56
39
71
154
242
280
279
296
371
470
527
526
502
494
500
494
469
455
488
577
684
743
716
645
627
710
828
863
770
640
588
640
719
749
736
730
746
755
751
765
812
843
802
705
646
692
806
888
883
841
832
873
908
886
824
767
732
679
586
502
501
583
665
682
677
773
1011
1281
1403
1303
1091
942
923
933
829
579
312
199
286
470
602
622
600
651
818
1024
1149
1137
1043
956
948
1007
1066
1047
941
819
773
837
944
989
934
845
803
824
861
883
907
939
951
910
856
851
899
916
819
637
468
364
290
181
47
-39
-26
49
120
155
156
101
-46
-260
-442
-493
-414
-315
-296
-335
-326
-221
-127
-206
-495
-842
-1077
-1180
-1267
-1398
-1443
-1213
-707
-153
212
396
604
955
1321
1452
1276
972
785
796
909
993
1013
1003
974
913
824
745
689
605
458
310
280
402
558
601
518
451
509
632
648
491
282
198
266
364
385
353
358
410
432
368
250
140
50
-52
-159
-221
-218
-188
-174
-157
-93
-10
7
-89
-229
-313
-313
-304
-367
-497
-628
-695
-699
-689
-716
-777
-833
-838
-790
-725
-681
-659
-644
-635
-645
-656
-623
-532
-441
-428
-493
-541
-501
-407
-366
-425
-513
-543
-501
-444
-411
-379
-316
-229
-151
-84
-9
70
110
72
-11
-70
-81
-83
-117
-171
-186
-134
-55
0
32
83
166
238
252
221
201
221
245
222
146
65
24
28
45
49
34
8
-16
-17
14
65
106
110
88
77
105
152
166
105
-12
-120
-163
-152
-153
-207
-283
-303
-226
-92
18
66
76
89
114
125
106
65
17
-24
-48
-32
39
143
230
274
286
295
305
297
264
224
200
201
217
241
269
298
327
365
424
488
513
477
416
382
385
374
307
213
160
179
242
315
386
454
489
447
337
212
109
12
-125
-311
-496
-604
-582
-428
-205
-20
34
-36
-127
-133
-55
13
-7
-86
-145
-158
-190
-322
-549
-797
-1022
-1243
-1489
-1713
-1797
-1656
-1327
-941
-614
-359
-105
198
497
672
643
460
270
201
254
321
324
313
415
678
985
1168
1168
1074
999
946
836
665
580
786
1374
2206
2970
3366
3273
2813
2220
1622
953
72
-1003
-2012
-2634
-2741
-2472
-2058
-1650
-1296
-1033
-916
-962
-1099
-1248
-1425
-1714
-2120
-2494
-2619
-2414
-2004
-1614
-1381
-1274
-1173
-1014
-825
-670
-562
-473
-387
-345
-412
-591
-807
-951
-965
-870
-721
-575
-459
-400
-415
-492
-563
-552
-453
-342
-306
-352
-399
-373
-296
-260
-321
-439
-517
-496
-395
-266
-154
-78
-42
-40
-37
2
73
128
129
101
109
176
265
327
373
453
583
719
803
827
832
846
863
860
829
777
729
707
725
772
813
821
802
781
770
758
741
719
671
570
426
317
312
397
485
538
624
810
1041
1163
1100
930
785
689
549
306
32
-141
-173
-137
-113
-97
-41
47
111
123
117
140
181
186
143
127
214
383
528
567
524
475
446
388
254
80
-44
-74
-47
-36
-71
-123
-148
-127
-77
-36
-38
-74
-119
-148
-167
-202
-257
-315
-367
-435
-530
-618
-658
-660
-696
-823
-1004
-1126
-1094
-915
-689
-535
-519
-604
-683
-644
-469
-261
-159
-204
-309
-356
-325
-307
-403
-608
-838
-1019
-1154
-1269
-1331
-1271
-1062
-778
-538
-381
-226
7
292
511
592
577
552
540
511
471
479
552
600
529
375
299
412
648
842
921
966
1057
1152
1118
887
558
263
49
-113
-242
-295
-234
-100
16
73
122
205
272
218
-4
-283
-437
-339
24
627
1445
2402
3287
3793
3702
3055
2098
1107
271
-272
-379
33
846
1743
2376
2568
2341
1756
799
-564
-2235
-3896
-5132
-5661
-5479
-4813
-3938
-3045
-2210
-1483
-960
-736
-837
-1178
-1606
-1951
-2077
-1913
-1491
-964
-526
-303
-324
-532
-835
-1110
-1227
-1085
-691
-191
221
420
415
321
252
238
240
212
151
104
94
103
102
89
96
142
215
312
445
604
737
779
719
625
574
572
550
468
381
400
573
829
1035
1102
1054
981
934
878
735
489
226
69
58
123
168
174
202
296
413
467
424
341
297
304
318
318
335
401
498
563
551
485
422
393
387
378
352
318
297
335
493
778
1100
1314
1336
1220
1086
989
870
651
343
43
-166
-271
-297
-244
-118
28
107
94
59
83
156
191
138
49
16
53
87
54
-26
-100
-174
-304
-506
-714
-826
-801
-675
-517
-389
-324
-337
-398
-437
-410
-353
-340
-392
-434
-391
-281
-212
-278
-461
-680
-887
-1095
-1314
-1497
-1562
-1481
-1301
-1086
-857
-599
-317
-49
156
278
325
315
266
207
173
182
221
265
299
318
317
287
231
181
172
209
261
290
282
255
248
275
326
376
422
481
564
637
645
571
464
390
349
269
99
-117
-273
-310
-275
-253
-275
-283
-216
-81
35
60
-10
-105
-165
-173
-162
-166
-194
-230
-257
-264
-253
-240
-243
-269
-307
-339
-356
-355
-332
-287
-244
-251
-327
-424
-456
-405
-337
-336
-401
-446
-404
-302
-225
-211
-219
-197
-153
-131
-150
-174
-170
-147
-141
-152
-148
-107
-59
-52
-86
-115
-97
-54
-37
-54
-58
0
105
189
212
210
242
316
379
380
334
299
304
319
291
210
117
63
64
93
119
127
124
125
145
187
236
245
178
52
-66
-102
-53
14
31
-8
-47
-31
36
105
120
62
-30
-99
-110
-79
-50
-48
-50
-23
38
101
132
131
115
86
37
-22
-47
-9
61
95
67
18
13
64
118
134
122
120
141
172
208
257
310
317
241
117
40
64
148
201
188
168
208
297
349
294
139
-55
-228
-351
-406
-377
-284
-183
-123
-111
-109
-101
-108
-166
-265
-363
-434
-489
-531
-510
-364
-106
164
337
394
379
323
211
29
-196
-422
-652
-914
-1188
-1376
-1371
-1160
-830
-492
-203
45
286
532
760
926
980
909
743
554
425
403
483
602
675
663
602
571
622
723
783
769
731
701
651
547
428
380
418
433
316
113
4
96
301
433
406
294
217
218
261
300
303
251
166
143
271
523
740
771
651
562
627
777
840
738
575
514
587
682
669
523
334
236
278
365
354
197
-6
-102
-30
108
156
68
-47
-67
-2
21
-86
-261
-369
-349
-283
-269
-308
-310
-216
-74
20
38
39
92
184
247
244
224
253
330
376
319
181
64
50
115
151
80
-62
-161
-131
0
114
118
32
-56
-89
-96
-120
-140
-98
21
141
172
119
80
128
215
215
64
-168
-327
-323
-210
-116
-121
-186
-209
-129
-2
62
0
-145
-263
-290
-268
-287
-384
-494
-519
-431
-302
-234
-247
-263
-196
-59
53
62
-13
-84
-81
-37
-33
-100
-192
-227
-176
-87
-33
-26
-28
-4
42
83
105
130
174
227
263
266
256
263
297
342
366
345
298
267
286
341
398
431
441
434
417
402
408
425
423
378
307
246
195
114
-19
-172
-297
-405
-540
-703
-828
-832
-715
-560
-447
-399
-388
-365
-284
-133
37
136
130
69
29
11
-55
-220
-450
-683
-906
-1126
-1293
-1303
-1104
-775
-443
-162
113
433
766
1034
1173
1172
1074
941
834
787
782
787
799
835
895
946
949
919
903
918
929
902
847
803
787
794
818
851
869
852
815
816
874
914
840
653
473
409
452
498
481
432
417
457
517
572
601
587
529
471
476
535
549
449
306
275
396
532
516
360
234
252
349
394
352
286
235
168
64
-32
-74
-93
-167
-303
-411
-413
-321
-199
-87
16
95
115
76
35
31
46
42
32
64
141
192
178
163
216
299
273
78
-164
-261
-150
38
150
163
159
196
255
308
364
417
414
306
153
103
218
381
426
317
174
119
137
122
54
1
27
103
153
161
176
226
267
239
148
66
42
51
22
-68
-163
-196
-175
-167
-223
-308
-340
-284
-190
-131
-116
-93
-33
28
32
-30
-103
-128
-93
-48
-33
-59
-105
-156
-201
-234
-251
-261
-288
-348
-409
-412
-319
-172
-57
-21
-32
-29
-1
15
-13
-56
-63
-34
-18
-55
-121
-154
-118
-34
35
51
17
-22
-16
28
62
33
-65
-182
-260
-296
-330
-396
-483
-564
-619
-648
-647
-609
-537
-456
-393
-356
-328
-279
-196
-103
-35
-12
-32
-86
-172
-305
-490
-707
-923
-1112
-1261
-1352
-1350
-1220
-971
-657
-346
-66
197
458
685
815
820
742
658
605
563
508
461
477
568
677
727
708
677
682
702
679
600
527
512
530
516
450
395
410
488
563
595
610
650
712
744
709
632
566
530
509
480
440
403
385
388
405
407
374
315
266
257
269
241
142
18
-45
-7
93
181
223
238
266
318
372
397
370
296
206
136
109
114
129
144
168
220
304
410
517
613
679
699
668
590
481
353
225
121
60
43
65
118
198
288
368
416
436
446
452
445
414
369
343
373
462
576
667
703
699
696
715
731
704
621
531
505
561
654
719
739
751
791
857
917
948
930
840
680
499
373
332
319
252
127
24
20
105
201
239
211
141
59
-3
-9
51
137
187
183
171
203
280
337
307
191
61
-16
-31
-26
-26
-4
86
232
356
388
338
287
282
282
201
20
-179
-288
-266
-153
-11
138
297
466
631
775
887
954
957
886
769
665
623
642
684
715
729
738
739
718
665
586
489
372
237
101
-11
-79
-94
-54
21
82
75
-10
-113
-157
-115
-43
-19
-53
-87
-62
4
24
-81
-300
-534
-695
-779
-849
-939
-986
-883
-593
-203
152
413
620
837
1064
1240
1310
1283
1207
1130
1083
1087
1143
1211
1234
1189
1123
1107
1152
1197
1181
1119
1095
1162
1284
1374
1392
1373
1383
1436
1481
1466
1400
1340
1328
1346
1350
1321
1298
1321
1374
1393
1337
1248
1194
1186
1169
1095
994
943
967
1011
1007
957
921
931
950
910
797
672
621
674
761
780
702
613
631
757
839
709
365
-16
-245
-283
-227
-176
-136
-43
148
414
688
881
922
818
636
452
293
158
77
95
200
305
347
356
405
453
350
22
-392
-637
-604
-423
-278
-198
-58
233
595
867
962
925
848
783
741
732
765
816
843
821
783
790
850
919
928
858
754
692
708
763
795
780
761
796
880
943
917
824
753
770
827
819
696
526
420
419
446
406
298
219
259
401
528
535
428
301
234
221
197
135
61
13
-15
-46
-76
-60
19
108
141
120
122
202
328
420
437
414
413
454
496
496
470
469
514
557
529
430
343
362
471
556
527
417
343
381
474
515
458
345
230
124
4
-131
-241
-304
-342
-390
-445
-468
-416
-305
-206
-182
-228
-287
-311
-292
-258
-222
-180
-136
-111
-114
-145
-204
-309
-475
-672
-848
-959
-983
-901
-688
-362
-7
291
533
776
1034
1226
1249
1111
934
828
799
789
762
747
777
837
890
918
929
928
911
885
867
868
869
839
775
715
698
720
732
691
609
541
538
594
646
637
568
493
468
498
536
536
490
443
430
445
455
437
399
368
353
350
360
386
418
427
398
350
311
279
219
116
5
-53
-41
-8
-6
-30
-21
51
138
152
58
-83
-166
-146
-72
-44
-107
-203
-251
-223
-174
-160
-175
-170
-135
-109
-124
-156
-149
-91
-22
14
25
64
148
249
327
370
388
393
386
364
332
307
300
312
340
375
412
451
494
537
573
589
582
560
529
507
502
510
510
488
454
436
448
468
467
440
417
424
455
479
473
433
376
320
275
236
191
142
103
85
83
81
82
101
137
167
168
155
164
197
210
172
100
58
81
132
153
134
112
123
166
212
244
271
307
352
394
426
443
450
460
488
532
572
580
560
540
549
582
614
625
622
610
586
546
500
472
467
463
448
443
462
481
451
351
226
121
32
-86
-246
-407
-513
-538
-483
-363
-218
-111
-80
-76
3
189
395
495
467
394
347
294
170
-22
-212
-369
-534
-734
-890
-872
-652
-331
-48
159
350
573
795
942
980
938
868
789
698
611
575
621
724
816
846
822
789
760
714
634
544
487
471
458
413
351
329
377
470
541
545
483
395
328
298
285
252
185
112
80
109
171
220
233
227
231
245
245
215
158
102
70
65
76
85
83
68
50
39
34
20
-17
-73
-121
-134
-116
-105
-124
-153
-148
-92
-28
-11
-52
-116
-161
-171
-151
-99
-23
42
61
49
70
161
270
313
278
251
301
386
397
302
186
151
194
215
143
9
-93
-108
-52
47
171
285
324
248
107
6
6
44
16
-99
-206
-176
37
372
731
1035
1216
1229
1083
867
682
539
345
32
-323
-544
-522
-324
-125
-38
-32
-10
69
147
145
57
-48
-91
-56
7
40
31
21
50
111
164
175
140
80
24
0
21
72
109
105
77
79
141
228
278
273
248
238
232
196
148
148
223
332
412
455
516
632
757
797
713
549
387
273
191
90
-35
-116
-81
86
295
430
454
440
472
544
563
474
318
184
101
26
-68
-144
-153
-127
-159
-297
-470
-544
-463
-307
-210
-229
-305
-323
-229
-73
56
115
130
137
131
63
-98
-299
-472
-602
-752
-980
-1239
-1386
-1310
-1046
-742
-505
-309
-63
252
543
706
732
680
595
463
282
123
70
131
228
282
291
297
313
316
297
291
322
355
335
262
203
211
254
254
179
91
59
70
65
18
-17
8
79
135
153
166
208
256
269
238
201
190
197
190
156
107
64
37
16
-14
-66
-123
-137
-81
7
47
5
-62
-67
-7
26
-41
-168
-240
-210
-158
-171
-210
-132
120
397
475
287
13
-96
4
116
33
-235
-478
-520
-375
-194
-95
-85
-116
-150
-160
-122
-47
2
-24
-102
-151
-128
-76
-72
-122
-160
-133
-71
-34
-43
-54
-21
55
128
158
140
91
37
-3
-11
20
72
109
118
129
178
254
292
238
133
81
138
240
272
201
103
58
66
63
23
-13
-10
2
-21
-74
-99
-50
51
136
162
146
146
198
285
340
310
213
125
98
113
98
31
-35
-41
18
101
184
282
400
495
525
514
529
591
636
596
476
350
282
254
210
141
91
93
126
151
177
258
414
575
633
568
467
415
395
324
172
26
-13
42
78
7
-148
-286
-322
-244
-93
47
81
-30
-208
-305
-246
-117
-68
-163
-299
-345
-292
-247
-307
-469
-676
-877
-1065
-1240
-1378
-1438
-1379
-1170
-837
-467
-151
108
385
717
1014
1136
1047
878
786
799
832
823
814
863
941
955
868
748
677
650
599
500
417
431
522
575
516
396
337
407
545
615
548
400
297
302
362
378
320
253
250
298
316
257
169
134
152
147
67
-53
-109
-53
60
132
121
65
23
33
82
120
79
-63
-243
-344
-306
-203
-186
-310
-478
-543
-481
-407
-442
-575
-684
-676
-576
-474
-421
-402
-390
-386
-398
-403
-368
-302
-249
-254
-299
-335
-342
-347
-377
-427
-465
-492
-529
-580
-602
-538
-391
-235
-143
-124
-131
-124
-106
-101
-115
-131
-137
-141
-155
-169
-166
-149
-137
-146
-172
-202
-216
-196
-136
-47
47
117
152
164
158
122
54
-18
-56
-70
-106
-180
-241
-224
-145
-105
-171
-298
-377
-367
-324
-311
-304
-230
-68
89
126
27
-113
-187
-192
-214
-324
-490
-595
-551
-389
-230
-159
-154
-131
-50
47
99
106
115
152
187
188
181
203
241
244
189
122
93
95
92
101
185
352
504
524
409
275
226
240
212
83
-95
-236
-307
-340
-375
-418
-460
-508
-579
-657
-685
-610
-450
-296
-233
-250
-246
-151
-4
74
14
-125
-232
-284
-371
-570
-830
-1019
-1079
-1095
-1188
-1357
-1466
-1382
-1130
-849
-653
-530
-393
-198
14
181
282
337
370
400
441
500
551
558
516
470
457
458
417
324
248
256
330
374
330
241
210
274
359
353
221
41
-71
-62
10
45
-10
-110
-164
-127
-37
21
14
-14
-1
56
94
64
-13
-74
-106
-158
-267
-394
-461
-441
-390
-380
-412
-434
-426
-434
-486
-541
-530
-445
-361
-353
-410
-455
-437
-375
-330
-350
-452
-640
-881
-1104
-1225
-1216
-1118
-996
-877
-745
-579
-381
-171
20
152
180
97
-45
-163
-208
-195
-179
-198
-240
-266
-248
-176
-78
5
34
3
-46
-63
-23
60
148
212
247
271
296
321
332
330
336
359
385
392
379
368
381
412
435
439
428
411
388
362
360
403
483
560
601
610
604
592
562
495
405
336
322
360
418
479
551
631
697
715
691
659
632
568
433
265
159
168
232
246
174
88
79
174
334
539
811
1178
1606
2015
2332
2526
2584
2478
2168
1659
1041
457
7
-300
-517
-675
-744
-685
-511
-309
-159
-79
-47
-53
-102
-181
-248
-270
-276
-327
-454
-610
-727
-783
-827
-923
-1070
-1182
-1172
-1016
-786
-599
-535
-589
-681
-732
-720
-685
-672
-680
-667
-607
-527
-477
-489
-571
-719
-937
-1209
-1477
-1666
-1741
-1711
-1603
-1420
-1152
-812
-448
-111
182
408
546
580
519
407
299
224
200
233
303
362
366
325
297
311
320
260
130
18
0
50
79
56
51
142
315
459
492
450
432
485
546
529
416
280
204
196
212
213
204
210
229
232
216
208
230
258
237
154
60
14
15
9
-39
-101
-114
-59
14
35
-5
-49
-37
15
39
-2
-61
-51
52
171
207
149
91
109
180
204
129
15
-54
-66
-82
-134
-176
-147
-59
6
-9
-62
-66
13
124
191
205
216
269
363
454
504
507
475
429
394
383
394
390
339
268
255
353
525
668
693
617
538
537
597
644
628
570
519
502
499
471
412
338
275
225
163
50
-133
-347
-507
-556
-514
-463
-456
-450
-358
-150
99
283
372
427
493
544
522
424
327
304
332
308
169
-13
-102
-31
122
221
206
158
199
345
497
543
478
391
359
376
381
346
307
313
372
453
527
586
630
651
635
584
517
459
425
416
427
444
452
445
431
424
410
355
245
111
9
-34
-52
-108
-227
-362
-427
-371
-228
-115
-150
-341
-555
-627
-504
-292
-148
-117
-111
-36
87
145
60
-140
-375
-605
-834
-1060
-1242
-1332
-1303
-1140
-842
-463
-103
150
316
506
790
1091
1260
1229
1088
985
989
1051
1085
1045
947
833
748
725
765
840
911
960
984
980
941
875
815
794
809
816
792
758
749
782
831
848
814
744
682
657
655
625
530
399
295
252
241
222
194
189
216
245
244
226
229
259
283
261
192
93
-28
-151
-234
-246
-218
-238
-338
-445
-450
-331
-198
-172
-250
-330
-339
-317
-344
-427
-490
-470
-392
-319
-269
-201
-87
42
116
100
14
-97
-191
-243
-240
-186
-112
-50
8
96
234
389
489
484
384
247
137
86
77
70
45
19
32
89
153
171
136
99
106
145
152
89
-6
-54
-22
47
76
33
-37
-63
-19
58
112
117
95
78
69
50
8
-48
-105
-164
-224
-271
-278
-245
-210
-211
-230
-213
-129
-13
71
100
109
138
183
222
242
255
267
267
249
227
219
228
252
306
401
501
552
534
502
534
627
689
641
510
412
434
544
635
649
620
620
653
673
646
585
524
467
398
318
256
210
155
92
65
106
167
156
42
-98
-163
-143
-134
-230
-408
-546
-518
-312
-60
55
-40
-231
-309
-193
-29
-30
-231
-444
-492
-411
-397
-548
-755
-865
-880
-917
-1024
-1105
-1040
-815
-520
-221
73
359
609
803
966
1117
1209
1169
1007
848
812
891
969
958
894
853
858
865
857
868
912
929
853
707
609
637
722
733
623
499
501
628
745
740
637
547
518
490
412
344
407
602
772
763
608
495
527
593
511
252
-9
-89
0
95
100
75
111
203
253
205
106
21
-37
-87
-141
-172
-170
-158
-152
-142
-136
-168
-268
-412
-509
-485
-363
-237
-166
-122
-40
97
214
227
136
13
-65
-96
-131
-192
-242
-226
-146
-58
-8
6
26
69
116
129
99
57
39
52
64
40
-19
-64
-34
58
139
147
100
92
168
272
321
290
224
172
132
63
-30
-103
-116
-82
-42
-19
-4
16
55
115
192
267
303
280
217
154
107
56
-22
-125
-221
-287
-328
-367
-404
-415
-378
-290
-183
-102
-68
-75
-93
-99
-83
-69
-76
-117
-181
-235
-247
-205
-138
-96
-104
-139
-146
-102
-47
-44
-96
-140
-110
-17
62
86
87
118
187
241
250
240
250
284
304
291
276
298
360
420
427
369
300
311
432
585
624
470
203
-6
-66
-59
-152
-390
-651
-750
-613
-345
-129
-72
-129
-158
-70
83
170
119
-8
-98
-139
-226
-440
-737
-991
-1152
-1296
-1502
-1722
-1789
-1596
-1204
-787
-458
-192
100
426
693
820
818
773
746
726
700
695
736
802
836
818
791
786
767
690
588
546
607
704
742
715
700
730
747
683
572
517
553
586
499
317
187
221
363
460
431
354
346
433
533
544
459
339
239
166
109
69
57
60
56
47
68
139
238
307
295
212
128
104
145
184
161
81
21
47
145
232
230
144
52
25
60
98
82
32
-1
15
76
163
260
334
339
258
156
128
196
264
223
72
-50
-4
199
404
461
361
243
246
364
466
442
317
212
206
259
282
257
239
268
302
283
235
241
343
470
517
464
383
351
356
334
249
130
29
-25
-35
-17
31
111
195
235
206
135
76
51
27
-50
-185
-329
-416
-417
-347
-259
-202
-182
-179
-147
-71
30
118
151
120
43
-34
-74
-68
-50
-60
-97
-121
-93
-19
70
153
228
310
398
474
514
498
437
366
325
321
310
256
185
166
231
323
349
291
234
244
288
278
197
127
153
255
327
298
199
120
95
80
18
-100
-236
-344
-394
-371
-278
-141
-10
63
61
-3
-81
-131
-137
-128
-141
-199
-289
-394
-512
-651
-808
-971
-1127
-1281
-1411
-1445
-1300
-974
-572
-227
4
180
393
652
876
974
931
819
727
698
731
796
863
911
928
919
903
907
932
958
969
965
969
993
1016
1000
929
837
785
785
793
760
696
659
691
752
769
718
652
622
627
619
575
531
526
541
526
477
453
521
658
765
762
668
586
588
638
627
504
333
221
204
220
205
162
138
148
155
137
124
158
212
217
137
23
-40
-28
6
0
-46
-76
-40
61
183
271
297
268
213
163
121
73
-10
-116
-198
-219
-172
-93
-10
71
162
248
299
304
286
280
285
259
173
58
-19
-26
5
9
-27
-56
-20
88
209
276
271
237
223
231
220
168
98
60
65
73
45
-9
-34
-17
-2
-35
-112
-177
-201
-218
-269
-335
-351
-281
-172
-108
-112
-132
-110
-60
-52
-132
-265
-372
-409
-402
-396
-400
-381
-324
-254
-204
-169
-123
-86
-137
-347
-666
-935
-1005
-865
-630
-429
-292
-150
65
333
564
672
638
504
332
186
116
130
179
189
127
50
48
149
277
329
277
182
101
29
-69
-191
-286
-328
-364
-459
-607
-716
-688
-525
-320
-180
-132
-124
-89
-10
81
142
166
175
187
192
165
99
2
-129
-310
-542
-771
-904
-866
-667
-395
-144
72
311
606
895
1070
1092
1023
967
957
936
871
800
796
863
925
918
864
843
885
939
927
844
759
745
799
846
815
717
646
683
817
954
1001
954
889
879
920
945
888
748
582
455
389
365
347
320
309
331
373
393
375
349
349
378
394
361
289
221
182
158
121
71
27
3
-14
-44
-85
-112
-114
-103
-112
-164
-256
-346
-394
-397
-389
-413
-472
-516
-496
-422
-362
-368
-419
-444
-397
-319
-289
-330
-387
-388
-338
-310
-362
-465
-535
-532
-503
-504
-517
-459
-286
-54
138
249
328
429
551
647
689
690
675
653
624
596
570
530
474
428
412
402
358
280
238
288
379
405
336
256
256
318
343
281
193
164
192
210
186
151
146
157
144
108
82
98
144
200
255
289
271
197
105
43
17
-23
-104
-179
-175
-69
88
222
294
310
299
290
292
284
228
126
35
21
93
189
237
228
209
217
241
247
230
211
216
240
261
265
272
306
360
385
329
202
96
99
206
312
314
218
127
125
170
137
-39
-306
-545
-688
-768
-819
-828
-761
-630
-508
-446
-412
-332
-182
-15
89
99
24
-110
-262
-385
-468
-569
-769
-1046
-1255
-1261
-1075
-827
-613
-398
-107
250
585
837
1027
1188
1287
1274
1173
1068
1032
1052
1066
1036
970
901
851
813
770
707
637
611
666
766
822
771
642
525
464
412
282
36
-269
-528
-656
-645
-548
-439
-341
-221
-40
193
408
532
551
515
500
534
587
616
600
562
532
508
460
371
274
212
175
99
-40
-168
-185
-75
46
52
-60
-174
-188
-133
-122
-222
-389
-524
-577
-568
-544
-523
-492
-442
-385
-343
-320
-305
-276
-222
-166
-129
-114
-98
-59
5
82
155
221
264
260
194
87
-18
-96
-157
-219
-284
-322
-296
-192
-26
159
317
423
487
543
610
676
707
687
631
575
545
534
529
526
543
587
632
633
569
475
407
407
457
496
488
446
414
421
445
430
346
221
108
29
-47
-149
-253
-304
-277
-223
-204
-227
-247
-226
-181
-162
-194
-260
-326
-377
-416
-447
-467
-474
-464
-444
-426
-407
-371
-305
-220
-163
-160
-182
-167
-101
-44
-58
-132
-186
-165
-105
-84
-130
-190
-200
-154
-109
-108
-140
-161
-152
-129
-115
-112
-103
-76
-43
-26
-36
-78
-150
-253
-384
-524
-647
-747
-847
-968
-1090
-1146
-1083
-929
-789
-762
-841
-923
-911
-815
-730
-740
-850
-1021
-1233
-1488
-1752
-1940
-1992
-1952
-1938
-1989
-1976
-1711
-1161
-521
-63
118
169
297
546
784
871
810
724
709
754
812
878
976
1091
1159
1124
1006
882
808
790
807
845
890
907
870
790
720
705
735
753
719
645
576
547
550
556
546
521
498
486
497
529
571
593
579
536
494
471
443
378
280
193
164
188
214
198
169
197
302
407
407
280
128
78
142
206
162
42
-25
37
163
231
207
161
165
195
179
105
49
77
159
199
161
114
134
217
285
286
267
294
364
412
400
371
395
466
502
448
348
292
313
357
361
319
282
296
357
430
490
514
500
476
480
511
514
433
293
214
297
485
594
513
333
260
386
568
593
423
232
209
355
496
495
391
315
325
357
326
230
133
74
27
-49
-147
-207
-199
-130
-50
-19
-60
-141
-209
-236
-231
-226
-232
-239
-231
-223
-230
-241
-227
-178
-122
-89
-64
-6
91
174
178
100
6
-46
-74
-147
-283
-417
-459
-392
-291
-245
-266
-291
-262
-186
-133
-152
-245
-358
-431
-444
-420
-393
-375
-361
-351
-377
-468
-598
-721
-809
-890
-1003
-1132
-1219
-1232
-1189
-1110
-991
-850
-751
-754
-820
-823
-679
-469
-364
-437
-592
-685
-690
-731
-928
-1263
-1598
-1807
-1866
-1818
-1693
-1492
-1211
-873
-513
-159
165
414
559
609
622
651
680
645
547
466
475
552
605
571
490
451
482
540
569
559
529
497
479
485
505
498
434
347
317
388
504
563
533
469
437
424
367
251
142
120
181
240
233
188
186
246
307
311
274
256
280
293
242
151
90
78
44
-76
-135
-383
-412
-362
-286
-209
-127
-39
50
136
223
281
270
192
109
78
87
81
49
50
126
251
349
393
409
424
415
374
336
337
363
365
340
355
455
586
635
573
494
512
632
732
704
565
445
441
532
609
598
523
467
492
585
694
782
835
840
791
704
621
575
547
489
378
259
204
236
308
343
316
275
292
388
500
534
453
324
253
272
297
231
75
-49
-40
63
135
116
81
138
286
402
371
237
157
219
347
394
309
189
170
278
417
482
469
427
396
379
386
447
560
654
647
556
499
554
676
740
683
572
513
539
613
672
687
652
566
468
432
479
543
521
407
305
314
399
437
348
191
79
40
15
-35
-56
33
209
347
343
227
138
157
218
183
7
-202
-296
-257
-215
-296
-492
-683
-792
-862
-961
-1066
-1072
-910
-624
-328
-105
52
200
389
614
799
835
689
464
336
405
596
732
723
638
608
686
792
813
723
584
485
467
507
553
572
561
553
582
639
683
687
681
717
806
890
901
852
815
834
861
806
649
484
408
425
444
403
337
331
409
506
552
545
537
550
543
481
397
358
387
422
386
291
230
259
321
292
140
-27
-81
-14
70
96
111
194
330
414
388
306
254
241
205
115
17
-21
11
64
104
151
227
313
372
394
407
440
481
495
467
418
389
400
439
479
507
528
547
570
594
621
660
699
724
720
684
637
611
629
691
754
769
726
671
660
692
704
643
536
457
451
492
531
557
587
620
618
553
442
332
247
176
105
39
14
50
144
259
343
387
397
397
391
366
312
232
154
120
141
194
250
296
373
512
686
816
856
859
914
1032
1127
1150
1187
1357
1638
1832
1763
1477
1190
1029
917
684
307
-54
-221
-151
69
322
520
627
665
707
810
920
878
595
175
-172
-299
-243
-148
-115
-139
-151
-72
130
394
577
539
283
-12
-151
-109
-39
-90
-249
-385
-414
-391
-427
-559
-750
-972
-1261
-1629
-1972
-2110
-1929
-1488
-967
-510
-126
273
719
1160
1476
1575
1473
1280
1123
1074
1111
1166
1195
1196
1182
1159
1134
1119
1129
1130
1070
953
855
852
919
956
896
785
717
725
749
724
658
606
603
635
666
677
672
671
691
741
803
842
840
818
824
873
921
917
854
780
746
753
771
775
770
765
756
742
743
783
859
919
921
874
836
855
916
955
939
903
898
935
969
963
933
939
1006
1097
1151
1157
1153
1181
1233
1264
1247
1215
1243
1368
1533
1632
1608
1538
1556
1684
1776
1660
1335
997
833
829
825
718
571
507
539
587
585
565
576
594
554
462
402
440
535
585
538
461
445
510
581
584
525
475
487
536
539
448
277
85
-65
-130
-89
54
272
512
686
698
499
139
-269
-641
-1007
-1442
-1929
-2326
-2472
-2352
-2112
-1914
-1827
-1816
-1844
-1895
-1955
-1990
-1968
-1885
-1746
-1554
-1311
-1033
-730
-411
-122
63
99
43
24
128
322
515
658
783
911
1018
1076
1111
1174
1265
1331
1349
1365
1440
1565
1671
1702
1681
1655
1623
1540
1383
1201
1049
924
763
526
272
122
141
282
430
500
507
526
601
701
764
774
764
772
780
725
579
383
218
106
-13
-214
-481
-698
-734
-563
-281
-22
148
269
412
603
794
912
918
842
756
702
673
637
591
570
612
686
717
649
514
414
419
509
592
590
520
456
457
504
535
515
476
452
436
382
288
214
220
272
282
208
118
103
162
204
160
69
19
34
62
51
15
9
58
128
180
198
183
143
84
11
-64
-124
-154
-155
-156
-196
-274
-344
-365
-362
-395
-472
-521
-477
-374
-311
-319
-324
-238
-74
63
99
65
48
94
176
252
302
313
273
183
70
-27
-101
-158
-190
-170
-90
17
115
198
295
411
503
529
505
481
494
528
539
509
472
479
535
598
603
516
363
215
132
124
148
138
63
-55
-156
-196
-176
-139
-135
-177
-234
-254
-212
-134
-99
-190
-429
-750
-1031
-1172
-1158
-1039
-862
-644
-373
-54
270
527
661
659
546
378
205
68
-23
-79
-102
-79
10
157
296
356
318
235
186
197
229
236
228
247
314
402
461
455
382
274
198
211
308
413
436
376
319
353
459
522
464
342
283
355
486
550
509
445
445
481
440
275
68
-69
-127
-217
-413
-636
-739
-660
-483
-331
-260
-236
-205
-133
-8
153
296
368
362
328
297
239
100
-118
-360
-599
-861
-1132
-1296
-1227
-936
-598
-370
-226
0
385
807
1070
1104
1015
958
984
1026
1011
937
863
840
871
911
910
860
787
730
698
673
641
604
578
553
509
445
392
374
387
401
399
383
355
314
263
222
203
190
154
87
19
-15
-20
-36
-86
-151
-205
-258
-349
-493
-628
-667
-589
-462
-380
-366
-368
-334
-282
-272
-321
-389
-433
-460
-493
-519
-492
-398
-283
-201
-147
-80
4
43
-24
-188
-380
-551
-704
-828
-866
-774
-600
-447
-369
-312
-209
-115
-201
-586
-1179
-1696
-1869
-1648
-1219
-848
-638
-458
-116
416
929
1148
974
541
76
-255
-402
-393
-300
-221
-214
-234
-166
35
272
399
355
216
94
44
55
111
193
256
236
109
-63
-176
-169
-62
77
186
254
296
324
333
304
226
109
-18
-118
-142
-63
76
170
145
42
-10
50
150
176
112
40
28
37
-3
-77
-110
-67
11
64
94
149
236
306
321
299
274
239
146
-15
-199
-332
-370
-327
-239
-121
22
180
318
387
371
307
242
189
115
5
-98
-119
-41
63
101
56
-14
-56
-75
-125
-212
-298
-345
-351
-326
-263
-148
-26
15
-71
-216
-296
-275
-249
-322
-464
-537
-480
-406
-479
-715
-968
-1107
-1157
-1229
-1326
-1329
-1150
-858
-591
-384
-144
175
455
551
475
405
468
580
560
370
182
186
370
547
561
439
318
292
340
383
381
333
240
123
29
5
43
75
44
-12
-12
57
114
67
-80
-235
-328
-374
-420
-462
-472
-447
-420
-399
-330
-187
-33
22
-49
-148
-171
-134
-141
-236
-352
-398
-382
-390
-461
-529
-511
-414
-333
-340
-417
-488
-497
-458
-417
-412
-449
-504
-541
-525
-441
-322
-237
-240
-312
-371
-361
-317
-323
-418
-525
-542
-452
-337
-268
-229
-158
-52
27
36
18
37
78
57
-67
-224
-310
-297
-252
-256
-308
-338
-270
-94
119
271
309
252
153
59
-12
-71
-129
-185
-227
-240
-214
-170
-144
-148
-154
-138
-136
-200
-299
-307
-135
110
204
65
-128
-138
18
88
-105
-417
-542
-398
-217
-237
-383
-375
-109
197
263
102
-23
52
202
191
-4
-177
-148
7
69
-32
-129
-29
254
524
619
571
532
563
589
512
345
203
164
184
179
137
141
256
420
506
453
333
274
330
422
435
346
226
159
156
162
109
-24
-221
-422
-565
-628
-634
-613
-544
-375
-111
137
243
214
183
273
445
539
467
319
237
236
188
-26
-356
-657
-856
-1015
-1209
-1375
-1364
-1118
-749
-401
-101
226
601
934
1126
1186
1197
1185
1096
895
682
596
658
741
714
584
459
442
536
681
840
996
1133
1214
1207
1115
987
883
810
710
541
368
310
419
608
740
767
758
798
866
870
774
637
537
496
489
508
562
636
672
615
490
369
299
241
145
28
-33
8
114
207
250
262
263
236
160
58
-25
-80
-135
-195
-211
-145
-31
41
27
-12
12
89
119
39
-107
-204
-182
-72
48
114
116
82
63
97
175
239
231
160
96
100
157
211
234
254
302
359
389
388
391
412
421
388
338
322
347
366
342
311
345
453
540
519
410
322
334
412
452
411
329
276
268
274
276
284
305
316
289
235
200
198
210
199
167
149
173
216
246
269
320
417
507
501
375
207
100
81
87
52
-14
-53
-29
35
104
172
248
318
355
371
414
504
594
619
586
568
613
671
650
530
393
338
372
419
416
384
385
434
488
513
521
542
561
531
436
312
205
130
67
-4
-91
-210
-360
-505
-569
-508
-369
-249
-203
-194
-150
-41
106
256
388
480
484
360
120
-163
-406
-568
-671
-762
-874
-1001
-1090
-1055
-834
-469
-114
67
49
-8
88
389
763
1017
1104
1123
1137
1074
807
343
-146
-481
-658
-837
-1165
-1644
-2156
-2575
-2806
-2776
-2408
-1695
-741
288
1254
2101
2839
3464
3909
4021
3642
2772
1686
844
562
732
910
754
367
173
449
997
1329
1133
506
-193
-651
-769
-614
-336
-95
14
12
17
86
121
-7
-262
-404
-222
223
643
812
771
725
776
806
649
314
3
-118
-84
-77
-198
-351
-357
-165
88
216
160
0
-158
-293
-450
-644
-823
-900
-838
-685
-532
-436
-383
-321
-242
-187
-192
-229
-243
-232
-256
-346
-442
-452
-367
-260
-159
20
372
836
1193
1253
1022
663
311
-34
-443
-932
-1408
-1747
-1871
-1794
-1600
-1380
-1188
-1037
-927
-877
-899
-927
-844
-601
-309
-150
-180
-273
-270
-170
-132
-291
-617
-945
-1136
-1149
-1021
-819
-611
-461
-398
-388
-382
-360
-343
-341
-342
-313
-244
-153
-48
64
169
229
234
222
243
310
385
438
497
617
801
960
1002
937
868
881
953
1000
975
942
990
1149
1339
1431
1358
1164
954
819
755
684
553
416
367
439
548
558
408
126
-213
-552
-860
-1113
-1320
-1508
-1678
-1767
-1677
-1375
-952
-582
-394
-386
-461
-546
-664
-881
-1202
-1547
-1821
-1971
-1994
-1886
-1622
-1222
-779
-382
-22
381
847
1273
1514
1526
1415
1327
1312
1314
1255
1124
986
926
965
1042
1071
1012
928
918
1015
1142
1198
1161
1106
1108
1143
1130
1037
939
944
1063
1183
1183
1078
1007
1073
1227
1311
1233
1056
915
865
854
819
766
739
745
749
722
694
703
730
711
614
485
416
446
513
515
413
286
242
306
373
322
157
9
-6
82
147
116
68
134
323
501
526
387
213
142
183
234
211
141
111
166
255
302
295
292
327
347
275
126
23
79
273
474
578
602
638
740
872
950
926
830
731
676
669
696
749
838
944
1013
999
909
812
772
776
739
622
481
415
466
587
714
836
970
1090
1123
1032
876
756
692
596
392
120
-83
-116
1
185
381
578
747
833
815
755
738
753
696
489
198
-14
-48
55
181
267
312
324
289
229
208
272
378
438
443
485
645
873
1036
1059
984
883
762
579
341
140
60
79
99
40
-79
-181
-214
-184
-132
-78
-6
108
254
377
414
358
262
184
123
29
-136
-321
-409
-309
-48
239
401
389
290
250
334
465
497
361
131
-45
-95
-73
-94
-224
-451
-741
-1062
-1354
-1507
-1418
-1105
-720
-423
-242
-74
184
514
804
967
1010
1004
1005
1037
1119
1244
1351
1359
1244
1091
1024
1078
1172
1199
1147
1093
1092
1115
1094
1003
891
810
764
719
665
640
680
768
832
825
773
745
758
751
650
485
384
451
649
811
798
649
536
592
755
835
719
496
365
428
607
739
750
699
672
674
660
617
578
567
557
510
445
421
462
521
539
500
442
395
355
310
269
254
272
310
363
430
493
520
499
459
444
464
473
439
391
394
476
581
639
642
654
718
790
794
709
605
554
558
555
501
412
340
315
326
345
363
381
394
395
382
359
338
326
321
316
304
287
280
296
334
366
362
324
278
247
217
154
52
-53
-112
-115
-99
-103
-121
-117
-68
11
73
87
52
-4
-50
-72
-80
-93
-123
-156
-157
-115
-51
6
54
119
207
291
331
328
331
378
453
500
481
428
400
426
489
551
594
626
659
698
736
769
788
786
762
722
687
677
701
748
792
803
770
704
633
567
492
394
275
163
92
80
134
237
339
374
315
200
116
117
174
206
165
79
8
-32
-86
-207
-400
-619
-813
-966
-1068
-1076
-934
-644
-287
35
279
489
703
895
982
937
823
738
712
691
621
532
505
570
648
618
452
245
118
109
158
197
226
288
390
491
569
645
746
845
883
847
785
740
716
672
588
505
476
525
621
713
768
803
865
956
1006
929
717
466
293
211
148
42
-84
-158
-137
-32
119
262
332
285
153
34
6
48
80
70
58
82
129
163
179
191
162
33
-187
-396
-490
-473
-435
-413
-345
-163
78
232
221
122
74
101
76
-129
-481
-795
-906
-803
-616
-475
-423
-412
-385
-314
-218
-148
-146
-198
-235
-205
-132
-111
-202
-333
-381
-319
-262
-337
-505
-592
-482
-247
-79
-85
-195
-263
-226
-155
-157
-271
-439
-563
-582
-499
-371
-262
-215
-221
-266
-330
-410
-494
-567
-623
-679
-740
-776
-756
-687
-625
-626
-672
-682
-602
-482
-430
-485
-586
-635
-600
-531
-483
-455
-414
-365
-354
-393
-418
-368
-276
-244
-332
-455
-463
-310
-102
-4
-69
-196
-251
-204
-150
-189
-309
-404
-392
-306
-235
-208
-160
-30
132
179
33
-222
-424
-499
-520
-587
-688
-726
-639
-474
-327
-235
-159
-62
28
61
23
-46
-101
-128
-146
-191
-294
-470
-701
-936
-1110
-1193
-1198
-1161
-1104
-996
-787
-467
-111
160
282
293
285
321
369
364
297
224
215
282
386
467
512
536
569
596
566
449
295
226
308
455
527
482
441
533
714
789
648
396
234
230
248
151
-18
-101
-26
107
174
180
217
323
410
377
246
137
125
161
162
137
178
309
430
422
285
148
104
100
25
-146
-312
-363
-293
-175
-73
-26
-54
-141
-198
-124
63
224
244
185
214
378
520
460
196
-89
-241
-272
-294
-363
-424
-404
-283
-90
127
310
400
381
296
214
167
147
141
159
209
283
368
452
523
555
539
498
472
442
352
201
98
150
328
462
437
331
330
486
639
631
490
385
405
440
360
217
174
276
375
334
208
170
267
374
370
290
242
243
229
187
198
304
427
443
346
246
228
259
275
262
252
253
256
295
407
554
605
498
322
234
283
361
349
276
272
400
574
675
670
636
658
731
759
662
469
324
336
480
607
586
470
443
609
836
889
678
378
250
348
474
399
143
-58
-35
121
201
131
46
80
201
260
204
141
181
279
316
275
267
356
447
372
104
-214
-432
-559
-694
-863
-1001
-1043
-991
-867
-671
-409
-165
-36
-6
54
239
496
665
681
650
710
879
1034
1056
941
786
692
666
643
561
409
241
134
133
214
301
341
347
368
419
470
500
541
615
688
691
590
439
333
322
379
438
447
396
315
268
309
420
492
399
161
-55
-90
37
154
120
-25
-135
-132
-81
-62
-74
-56
-18
-53
-212
-403
-453
-297
-80
-12
-132
-258
-189
70
271
205
-86
-322
-274
0
244
277
165
126
263
444
457
259
25
-65
-28
-28
-151
-289
-277
-97
114
248
336
471
644
728
658
522
461
505
564
549
475
439
464
512
536
546
582
649
689
647
538
443
433
488
530
493
389
301
286
326
362
360
309
199
42
-100
-123
19
239
362
312
190
172
319
500
539
396
204
119
188
337
445
454
402
370
420
521
576
520
386
283
288
388
500
564
579
571
563
558
572
618
665
644
537
388
302
328
412
439
340
174
74
115
233
289
210
85
66
194
330
310
148
19
34
105
62
-118
-263
-217
-25
127
130
46
13
69
149
192
207
220
241
253
269
274
225
83
-143
-379
-568
-705
-804
-842
-780
-617
-402
-181
43
289
530
702
765
738
669
584
484
379
304
281
304
331
343
339
324
302
279
262
269
308
376
447
482
446
338
222
175
216
276
269
184
107
127
241
357
402
388
377
391
395
360
303
261
229
170
75
6
50
211
391
474
436
341
269
262
321
409
454
379
180
-21
-60
99
288
300
116
-82
-125
-30
58
51
3
5
61
131
199
281
367
410
391
354
348
371
389
400
443
517
569
564
543
554
570
532
456
435
513
616
638
583
572
699
922
1101
1146
1078
964
847
753
698
663
600
468
299
180
163
209
224
165
64
-17
-54
-63
-66
-83
-127
-212
-327
-422
-445
-395
-310
-236
-180
-118
-15
147
347
525
629
664
686
748
839
897
882
822
780
776
773
732
647
541
438
364
359
451
618
791
907
968
1024
1111
1203
1235
1173
1044
910
822
787
790
813
842
847
813
759
730
741
759
733
679
671
749
856
886
812
720
705
757
765
657
485
365
369
464
571
656
726
792
825
793
715
644
610
587
526
424
327
260
181
46
-131
-277
-343
-380
-460
-564
-571
-389
-60
263
487
651
839
1054
1197
1193
1081
957
878
817
744
700
747
883
1019
1068
1026
963
937
943
941
900
809
690
600
607
717
856
925
910
887
918
960
927
813
706
674
672
614
510
469
558
700
752
677
561
507
518
524
475
382
283
204
156
150
181
221
234
212
183
175
188
202
191
138
49
-44
-109
-140
-157
-176
-200
-223
-242
-252
-235
-183
-122
-93
-107
-136
-146
-145
-165
-213
-252
-241
-185
-129
-108
-112
-100
-47
32
93
103
63
7
-31
-41
-39
-44
-53
-55
-43
-30
-22
-5
40
104
145
131
73
22
22
64
97
82
40
28
80
171
243
273
285
319
376
413
394
320
222
129
59
22
23
47
62
48
24
29
80
143
167
140
102
99
134
172
188
195
214
239
245
231
221
236
264
281
294
340
439
568
676
735
757
761
749
715
674
652
658
669
661
641
648
702
786
853
875
865
848
839
837
838
841
846
852
851
830
786
718
641
572
527
492
430
331
246
259
399
582
686
668
610
624
734
860
915
888
830
776
697
548
325
75
-149
-334
-504
-667
-780
-763
-574
-266
42
267
419
565
740
903
992
980
900
809
742
717
733
774
812
828
823
814
806
798
796
812
843
870
871
841
801
767
744
731
723
710
683
642
602
587
604
638
671
692
702
706
709
714
715
698
652
585
517
473
462
475
495
516
546
591
637
657
633
576
512
458
405
341
284
259
276
306
319
316
322
346
366
357
319
282
265
264
265
262
264
279
307
340
366
382
391
402
419
424
399
350
313
316
342
352
333
324
369
455
522
529
500
490
518
549
545
510
482
485
510
539
562
586
613
634
640
628
605
582
562
541
513
476
437
411
406
420
439
451
453
458
477
506
519
489
419
351
326
343
352
313
244
197
197
217
219
203
211
267
346
400
404
377
352
346
350
348
333
316
319
354
410
466
504
529
555
585
610
616
605
595
604
639
681
705
697
659
614
575
547
521
482
434
396
402
465
561
642
672
652
607
545
453
329
205
128
104
79
-3
-130
-215
-178
-31
117
162
100
16
3
75
169
214
192
122
34
-61
-153
-235
-317
-430
-595
-780
-908
-904
-754
-516
-264
-49
136
323
529
730
884
966
979
937
852
756
699
723
791
816
737
592
486
478
530
559
530
486
480
515
556
572
571
565
535
456
349
268
239
226
171
66
-24
-45
-9
22
27
45
107
174
199
190
205
273
332
312
222
133
87
58
9
-51
-83
-94
-136
-227
-317
-350
-328
-311
-335
-370
-363
-304
-229
-169
-124
-89
-78
-116
-194
-260
-271
-240
-219
-234
-259
-252
-203
-142
-108
-101
-90
-65
-42
-40
-54
-58
-24
39
101
130
127
119
134
167
179
140
71
28
43
86
106
92
82
110
161
194
201
213
254
299
304
272
249
271
317
331
303
279
309
374
411
398
374
384
417
421
380
338
337
367
378
348
300
275
284
304
308
285
243
203
201
262
372
465
476
410
341
351
433
499
464
338
225
204
255
296
285
258
266
305
332
326
323
361
429
479
480
449
427
438
465
486
489
481
478
490
507
499
460
427
437
472
472
407
319
286
324
365
332
231
131
80
47
-27
-158
-290
-352
-330
-246
-146
-79
-72
-104
-119
-61
51
131
141
138
193
274
240
14
-301
-519
-586
-634
-798
-1032
-1140
-987
-637
-266
9
201
379
572
769
935
1031
1025
921
786
708
714
751
747
692
637
631
676
738
788
818
839
857
876
873
809
675
525
441
453
507
539
549
580
640
675
636
563
534
567
592
546
462
427
461
493
457
371
325
348
379
357
282
211
186
198
211
218
215
200
170
147
150
174
183
160
131
129
146
138
97
57
58
92
116
122
149
216
284
293
237
172
151
163
165
143
122
129
156
188
225
268
294
279
225
163
120
102
103
135
209
297
355
363
363
412
501
566
560
500
447
438
464
503
547
583
569
481
355
274
289
358
385
331
242
207
262
368
462
515
531
514
468
416
395
412
419
344
186
40
16
105
189
172
95
92
229
412
499
445
347
313
345
363
318
254
252
324
411
445
421
405
445
514
527
438
316
278
375
515
568
516
460
486
565
598
549
475
437
424
398
374
393
454
485
453
418
452
540
583
532
438
388
382
356
279
189
127
72
-97
-191
-333
-389
-338
-212
-68
35
76
97
181
368
592
736
742
658
549
413
213
-41
-277
-458
-629
-851
-1080
-1159
-978
-591
-191
72
205
332
546
802
978
994
888
761
678
637
624
647
712
779
779
694
582
516
492
449
353
251
217
260
317
327
298
283
320
382
426
445
460
477
455
369
257
202
232
273
219
65
-76
-89
12
110
112
51
24
72
141
156
99
16
-51
-94
-134
-175
-205
-216
-215
-218
-230
-237
-226
-213
-223
-258
-290
-294
-280
-277
-296
-303
-262
-187
-132
-118
-113
-77
-24
-3
-32
-73
-78
-50
-38
-65
-106
-123
-119
-122
-148
-175
-179
-170
-174
-198
-219
-219
-206
-208
-229
-253
-260
-256
-261
-284
-311
-324
-321
-314
-318
-332
-349
-357
-347
-327
-328
-368
-432
-464
-430
-361
-337
-392
-478
-509
-466
-415
-430
-510
-592
-630
-641
-662
-695
-707
-683
-648
-635
-645
-648
-617
-568
-535
-540
-571
-591
-577
-541
-510
-502
-507
-501
-484
-478
-497
-528
-539
-519
-485
-468
-473
-477
-459
-415
-368
-349
-367
-399
-417
-417
-422
-455
-511
-556
-565
-541
-508
-475
-438
-403
-391
-405
-410
-372
-307
-273
-308
-384
-439
-449
-453
-491
-557
-624
-684
-758
-843
-881
-810
-645
-492
-454
-543
-661
-688
-589
-437
-346
-371
-471
-564
-613
-642
-701
-816
-978
-1169
-1357
-1473
-1436
-1206
-845
-472
-160
106
376
649
866
974
972
901
800
704
651
665
719
758
758
739
736
748
732
663
566
489
460
479
532
594
630
622
598
619
697
761
720
574
427
390
455
512
471
362
289
309
378
409
352
237
115
28
-15
-36
-77
-173
-309
-427
-490
-521
-576
-677
-782
-845
-891
-976
-1091
-1152
-1115
-1057
-1115
-1325
-1571
-1699
-1675
-1581
-1508
-1463
-1392
-1255
-1051
-806
-564
-381
-294
-279
-272
-226
-169
-153
-165
-149
-82
-20
-19
-44
-7
111
228
238
129
-9
-79
-70
-32
-11
-8
10
59
129
184
199
178
153
144
143
128
105
101
128
169
206
246
301
343
337
302
297
353
424
430
360
288
274
287
237
91
-92
-232
-309
-356
-408
-446
-423
-311
-141
3
57
32
-1
12
56
68
19
-40
-30
72
204
291
307
295
314
382
457
490
477
464
491
544
565
517
449
439
513
609
631
555
444
388
416
485
521
487
416
377
404
472
515
497
462
473
532
575
539
423
278
137
-10
-158
-281
-359
-416
-479
-507
-410
-172
83
193
119
-25
-101
-87
-60
-73
-99
-92
-70
-92
-182
-310
-432
-552
-703
-900
-1110
-1255
-1258
-1092
-799
-481
-231
-64
69
213
355
432
414
346
304
330
382
392
343
295
296
302
229
66
-66
-33
155
341
387
315
246
226
181
32
-183
-353
-428
-463
-516
-561
-525
-401
-260
-183
-180
-210
-231
-229
-206
-187
-216
-311
-436
-512
-503
-473
-505
-598
-670
-665
-623
-621
-668
-699
-674
-627
-623
-671
-722
-744
-755
-775
-786
-763
-728
-735
-802
-875
-898
-868
-830
-812
-796
-761
-729
-734
-777
-812
-797
-742
-690
-663
-630
-538
-378
-203
-90
-86
-165
-257
-313
-344
-396
-480
-542
-522
-421
-316
-278
-302
-319
-295
-267
-296
-385
-477
-521
-512
-471
-418
-362
-322
-317
-337
-338
-303
-260
-253
-280
-294
-257
-187
-129
-102
-97
-115
-167
-239
-269
-189
-4
194
307
311
269
255
271
244
111
-103
-298
-397
-407
-395
-398
-375
-249
-2
293
540
683
724
698
635
561
491
431
362
265
146
36
-32
-55
-64
-99
-174
-269
-350
-384
-364
-306
-239
-193
-173
-165
-141
-87
-23
12
-9
-70
-123
-139
-141
-176
-243
-296
-301
-290
-336
-477
-656
-767
-747
-619
-462
-351
-317
-347
-393
-400
-350
-287
-280
-344
-429
-480
-518
-618
-814
-1037
-1198
-1286
-1370
-1484
-1550
-1455
-1178
-830
-535
-323
-132
81
282
414
458
441
399
349
302
283
311
383
475
563
629
653
628
577
550
572
616
636
613
568
528
496
461
429
411
404
385
342
301
299
344
404
441
444
433
434
456
486
498
477
431
387
367
360
340
302
269
269
291
302
289
281
309
359
382
352
299
272
286
306
292
247
202
183
189
204
218
231
239
244
248
254
260
269
283
315
350
368
369
377
399
405
369
317
309
350
384
374
327
307
344
408
448
431
356
263
242
353
519
567
418
229
245
499
743
737
527
385
467
645
717
676
653
699
705
582
425
398
508
586
517
378
365
557
831
1024
1061
1029
1044
1108
1120
1010
841
733
715
696
610
526
567
733
896
969
1033
1213
1452
1555
1430
1245
1229
1400
1538
1454
1217
1046
1046
1127
1170
1190
1269
1393
1424
1288
1099
1075
1267
1495
1534
1347
1135
1114
1289
1466
1473
1310
1109
985
961
1001
1069
1124
1113
1017
893
820
793
731
558
306
103
8
-26
-75
-125
-73
132
403
584
609
572
618
773
918
950
900
893
952
935
680
235
-163
-342
-407
-603
-988
-1304
-1242
-787
-234
127
283
435
716
1030
1179
1094
875
675
544
443
348
294
338
484
667
811
872
859
806
751
728
730
720
668
603
593
667
768
809
793
803
881
942
876
707
589
620
714
700
542
373
332
402
449
380
243
152
158
229
280
248
151
64
47
70
47
-68
-221
-306
-297
-270
-304
-382
-429
-423
-406
-415
-416
-356
-261
-215
-265
-339
-332
-243
-188
-264
-423
-524
-492
-391
-349
-406
-477
-458
-351
-248
-204
-184
-116
-4
59
11
-90
-142
-134
-162
-296
-454
-469
-283
-38
66
-9
-103
-43
167
356
370
219
40
-40
5
111
191
192
128
72
106
226
331
315
183
52
22
88
173
201
148
41
-62
-83
5
124
151
57
-16
82
312
469
426
290
261
370
457
400
282
253
314
320
214
120
170
309
383
357
361
474
587
557
424
383
533
720
728
567
462
588
863
1046
1011
873
837
957
1086
1062
887
706
644
688
723
697
671
709
777
782
708
650
694
799
832
718
526
385
325
287
215
131
108
160
230
264
252
235
258
322
376
386
362
342
336
302
195
21
-157
-301
-452
-669
-911
-1027
-883
-502
-70
242
437
679
1085
1568
1897
1924
1718
1506
1426
1443
1458
1446
1451
1483
1485
1428
1377
1410
1504
1553
1475
1311
1163
1095
1097
1135
1171
1159
1071
952
916
1011
1150
1198
1119
1012
971
989
961
852
745
728
790
839
809
751
745
799
830
772
643
517
438
384
328
281
273
293
299
278
263
292
341
357
331
305
308
305
252
165
115
135
180
185
130
86
112
200
306
397
465
512
541
560
578
572
504
380
267
245
309
362
339
299
368
572
787
860
766
634
590
626
637
549
395
265
224
269
357
437
470
458
450
493
580
656
679
662
651
652
629
561
488
463
484
489
421
314
255
282
332
317
229
144
127
169
202
191
165
166
206
281
387
505
580
560
473
411
431
472
433
307
204
222
334
418
408
367
378
452
534
584
612
635
641
620
605
652
764
865
877
806
744
779
893
971
908
731
566
518
566
596
546
465
448
527
639
698
668
566
420
251
81
-70
-221
-400
-595
-730
-720
-560
-338
-178
-140
-201
-283
-308
-252
-159
-103
-122
-185
-241
-295
-391
-566
-794
-1038
-1299
-1583
-1830
-1903
-1713
-1315
-877
-524
-250
18
306
553
685
680
579
445
318
226
189
209
266
328
358
341
290
237
203
185
165
136
113
109
113
99
61
19
-2
2
14
16
6
-8
-14
-8
-1
-17
-69
-146
-212
-247
-270
-310
-363
-387
-358
-307
-291
-323
-358
-349
-308
-281
-293
-323
-343
-355
-379
-416
-449
-469
-493
-534
-583
-619
-629
-616
-578
-513
-433
-373
-350
-352
-346
-321
-300
-314
-364
-417
-440
-418
-358
-277
-190
-116
-66
-42
-36
-33
-24
-9
-6
-37
-95
-138
-129
-75
-28
-24
-45
-41
7
64
96
103
120
170
240
303
339
347
333
308
285
270
256
234
214
213
242
284
318
336
344
345
333
304
261
219
190
177
179
193
218
252
296
349
410
474
527
563
577
584
606
648
688
699
676
650
654
684
700
661
580
517
524
575
594
534
449
445
554
674
675
550
437
455
571
645
599
505
485
559
628
601
495
404
375
364
299
167
33
-28
-13
16
-5
-86
-191
-288
-384
-517
-691
-873
-1025
-1141
-1220
-1236
-1148
-964
-753
-604
-553
-552
-520
-425
-292
-175
-122
-138
-200
-266
-313
-361
-456
-629
-855
-1065
-1190
-1195
-1065
-807
-463
-118
145
315
463
649
840
925
830
620
436
370
409
473
517
546
577
590
559
490
418
360
297
207
100
23
22
99
210
294
311
280
270
333
426
445
339
199
161
250
337
300
197
204
388
599
637
476
291
249
326
371
289
143
58
73
117
112
62
16
-7
-43
-124
-230
-292
-276
-231
-230
-286
-343
-341
-279
-208
-168
-166
-189
-227
-257
-252
-205
-157
-149
-173
-185
-159
-131
-153
-215
-258
-248
-215
-206
-216
-193
-113
-22
20
8
-6
22
80
118
111
89
85
106
139
181
235
289
320
331
353
402
439
425
388
402
481
537
480
334
223
209
216
141
10
-55
8
102
88
-38
-144
-120
-22
10
-85
-219
-266
-183
-38
71
101
77
46
42
66
92
88
48
-10
-53
-54
-17
34
69
74
60
53
70
110
143
142
104
69
83
154
242
294
294
276
283
318
345
335
296
250
198
123
30
-45
-67
-45
-18
-10
3
43
89
85
-5
-148
-280
-363
-428
-518
-628
-681
-603
-409
-211
-129
-168
-224
-191
-81
0
-22
-103
-145
-122
-113
-211
-418
-640
-806
-937
-1097
-1274
-1358
-1247
-944
-576
-261
-21
212
490
773
969
1024
966
877
814
790
796
826
873
919
940
934
920
918
927
931
926
918
925
946
965
973
978
989
1001
998
968
924
885
858
832
796
761
745
748
759
766
766
760
750
730
698
660
629
616
620
622
610
592
595
625
643
600
498
399
359
364
344
269
188
163
195
218
190
143
139
187
232
221
169
131
141
173
184
171
169
204
268
326
362
393
440
492
514
487
427
368
320
277
236
216
235
285
334
373
417
476
537
575
592
616
656
686
679
649
645
688
742
757
720
671
639
614
566
493
428
392
370
336
297
281
298
319
302
245
183
144
122
93
52
19
10
20
44
86
148
208
235
230
235
278
333
337
269
182
142
151
150
104
50
56
135
234
293
296
269
241
232
256
323
420
508
562
593
636
710
790
834
815
738
634
545
506
519
562
601
618
622
637
670
704
708
667
593
514
440
354
248
144
68
10
-73
-185
-267
-252
-160
-103
-162
-293
-374
-341
-261
-245
-321
-430
-515
-587
-684
-810
-928
-1015
-1101
-1208
-1291
-1255
-1037
-671
-263
91
359
568
757
938
1085
1155
1117
992
844
754
758
828
913
983
1036
1068
1061
1008
940
907
913
905
832
706
598
582
650
729
732
649
562
564
668
761
706
492
285
277
466
646
614
408
269
358
554
587
335
-1
-140
-31
116
91
-64
-126
29
268
361
240
38
-87
-119
-155
-243
-317
-289
-159
-11
79
113
144
213
321
423
449
362
210
97
95
155
151
27
-128
-186
-81
85
196
225
223
235
242
214
150
67
-29
-145
-263
-334
-316
-210
-58
94
208
268
278
270
262
236
161
37
-75
-106
-47
30
49
-2
-71
-105
-103
-101
-120
-167
-221
-263
-269
-222
-128
-37
-9
-45
-81
-67
-38
-82
-225
-375
-412
-326
-233
-229
-278
-261
-133
11
47
-42
-151
-182
-135
-86
-92
-146
-199
-198
-120
5
106
140
137
166
259
367
420
400
352
328
341
367
388
394
380
362
377
458
573
649
632
551
473
426
393
352
311
296
312
349
403
464
502
482
395
278
161
37
-134
-359
-593
-787
-915
-958
-880
-683
-452
-327
-350
-397
-297
-21
262
360
248
55
-106
-248
-419
-601
-744
-877
-1083
-1347
-1481
-1304
-852
-374
-80
44
161
358
579
743
830
845
768
601
455
474
653
798
741
543
430
515
662
657
481
335
387
581
708
653
520
478
571
666
636
498
375
349
378
361
262
144
102
162
265
332
310
212
105
61
109
194
210
99
-71
-153
-72
108
249
268
202
135
125
169
197
149
17
-128
-179
-99
28
74
9
-58
-24
99
189
151
17
-104
-132
-82
-22
0
-4
16
103
243
385
479
508
486
422
321
198
104
91
157
252
303
286
247
257
348
471
519
424
243
122
153
277
370
371
341
365
439
484
470
439
455
511
552
553
542
560
603
634
642
648
664
658
589
474
401
438
529
536
373
136
21
121
304
346
177
-28
-34
209
506
631
545
405
368
419
439
347
191
69
17
7
13
59
163
281
339
327
321
392
509
567
521
433
409
469
540
564
556
550
530
445
317
257
347
515
607
566
513
599
806
941
858
618
436
425
486
445
265
81
18
46
30
-106
-307
-475
-579
-645
-677
-637
-527
-424
-403
-430
-385
-198
76
298
376
319
183
16
-151
-312
-493
-736
-1053
-1374
-1570
-1532
-1251
-821
-364
25
325
573
817
1052
1203
1191
1022
794
622
551
545
560
588
637
686
698
668
638
658
711
731
670
552
454
432
466
499
494
455
414
408
448
518
579
577
500
393
323
310
306
259
178
128
149
209
240
216
174
160
172
178
150
97
49
24
18
15
-3
-41
-94
-148
-184
-189
-168
-144
-133
-130
-113
-64
3
43
34
-4
-35
-41
-36
-41
-48
-47
-41
-32
-6
62
155
214
195
133
116
186
282
313
264
206
211
265
297
273
232
236
299
373
411
406
387
379
376
357
308
240
168
110
74
58
60
81
122
176
224
245
237
219
211
208
182
118
36
-22
-39
-42
-74
-143
-204
-212
-177
-158
-199
-276
-320
-286
-200
-123
-97
-119
-170
-231
-285
-326
-363
-401
-434
-455
-471
-495
-500
-417
-197
133
503
884
1293
1685
1907
1805
1412
940
564
249
-147
-629
-996
-1043
-781
-409
-104
111
291
444
507
445
300
151
46
-14
-45
-54
-41
3
92
198
242
151
-64
-305
-466
-500
-419
-260
-79
37
11
-145
-318
-392
-355
-293
-290
-343
-395
-425
-462
-545
-673
-823
-982
-1146
-1302
-1407
-1399
-1236
-941
-599
-313
-117
46
253
501
690
722
615
487
446
495
560
583
574
574
604
652
687
686
644
577
520
519
571
623
597
466
293
184
190
255
279
228
173
211
343
466
481
403
326
301
280
205
85
0
-10
11
-7
-63
-95
-60
8
44
26
-10
-20
5
43
65
53
7
-41
-56
-26
21
50
46
34
39
61
83
88
84
80
79
82
95
129
179
222
243
254
285
345
402
413
369
323
337
406
457
438
384
380
447
503
459
337
256
292
375
365
218
53
17
114
202
157
10
-108
-118
-65
-42
-81
-145
-204
-267
-344
-406
-426
-431
-484
-602
-715
-744
-676
-578
-523
-517
-520
-498
-467
-460
-495
-549
-584
-582
-553
-514
-455
-354
-197
-13
145
237
263
258
255
261
259
232
189
174
232
359
492
564
578
609
713
852
932
909
850
864
973
1090
1116
1052
989
1003
1074
1113
1083
1038
1057
1143
1237
1282
1280
1272
1262
1225
1145
1044
957
873
754
599
455
373
352
324
237
117
55
123
288
428
438
328
214
208
313
447
532
561
577
596
595
542
426
254
27
-255
-558
-800
-901
-824
-608
-330
-57
190
435
692
926
1076
1104
1033
928
845
800
781
780
797
827
839
808
727
620
527
479
485
526
565
572
550
520
507
509
512
496
464
431
401
370
333
297
284
294
304
278
210
137
104
117
144
147
130
120
126
132
117
87
62
41
12
-28
-66
-92
-111
-126
-123
-90
-50
-52
-104
-158
-162
-131
-136
-211
-308
-345
-297
-219
-171
-159
-142
-100
-51
-21
-12
-12
-18
-35
-51
-45
-11
30
55
61
56
32
-25
-92
-119
-77
4
58
65
77
153
289
415
469
453
417
403
417
438
449
445
435
434
454
488
516
519
495
453
406
359
328
314
306
285
247
208
184
173
156
130
106
84
44
-29
-105
-128
-84
-20
-3
-36
-53
7
127
222
228
168
122
146
217
264
244
187
167
226
330
398
386
327
294
313
321
240
70
-87
-133
-56
63
148
199
261
342
401
403
370
354
370
390
391
400
469
604
755
858
890
867
801
684
518
338
201
128
93
60
33
67
205
411
572
587
445
245
111
106
203
336
444
485
429
275
72
-108
-238
-376
-600
-895
-1119
-1111
-831
-407
-16
265
494
755
1043
1260
1307
1177
949
722
556
476
465
479
473
439
413
437
514
616
706
749
684
449
70
-300
-484
-445
-329
-303
-366
-356
-135
254
634
867
940
914
836
732
640
615
659
709
691
598
502
477
523
572
548
431
260
106
15
-5
23
64
85
61
-10
-107
-193
-243
-253
-242
-233
-236
-243
-249
-259
-281
-311
-331
-325
-299
-281
-288
-306
-302
-265
-224
-220
-260
-300
-296
-255
-232
-262
-326
-362
-344
-305
-296
-328
-363
-369
-358
-366
-407
-454
-465
-433
-385
-354
-346
-339
-311
-258
-204
-171
-168
-178
-184
-185
-192
-206
-212
-199
-175
-158
-151
-139
-106
-58
-17
3
5
0
-8
-31
-84
-166
-246
-288
-289
-283
-304
-342
-344
-283
-199
-158
-180
-206
-184
-121
-83
-106
-159
-190
-185
-175
-191
-218
-218
-166
-81
-4
42
71
115
197
288
340
331
297
295
333
362
339
273
217
197
187
153
97
55
54
78
96
102
118
157
206
233
215
152
62
-35
-126
-203
-271
-355
-467
-586
-645
-594
-453
-337
-350
-486
-630
-659
-557
-403
-300
-287
-334
-383
-395
-399
-468
-650
-908
-1144
-1283
-1345
-1378
-1335
-1096
-632
-116
218
320
366
547
841
1025
939
652
368
232
244
322
385
389
332
275
305
436
569
603
570
600
740
864
793
518
236
142
221
286
209
66
47
232
501
665
641
494
361
334
413
526
594
576
506
490
616
851
1044
1041
819
486
165
-93
-299
-464
-600
-732
-864
-928
-846
-650
-500
-522
-663
-735
-655
-552
-600
-794
-971
-1022
-1013
-1069
-1185
-1253
-1195
-1043
-856
-630
-341
-42
156
212
195
193
212
179
49
-137
-295
-370
-376
-344
-280
-171
-22
116
174
121
-3
-112
-153
-143
-131
-145
-154
-123
-63
-11
12
24
51
77
54
-45
-173
-246
-215
-138
-133
-258
-433
-525
-471
-349
-290
-348
-455
-504
-474
-424
-406
-413
-407
-378
-355
-363
-382
-374
-326
-267
-231
-220
-204
-143
-45
41
70
42
4
4
46
94
123
139
162
187
192
177
167
175
183
187
218
304
404
455
442
427
483
589
642
598
514
465
446
407
338
288
294
327
338
342
393
506
622
669
638
568
500
429
332
202
45
-123
-276
-392
-455
-454
-404
-334
-301
-340
-428
-485
-448
-341
-252
-243
-304
-389
-473
-553
-626
-686
-767
-920
-1119
-1226
-1104
-760
-358
-49
175
423
741
1036
1200
1232
1212
1186
1132
1030
933
914
972
1052
1106
1132
1142
1111
1030
947
923
950
960
912
851
854
935
1033
1093
1122
1134
1109
1030
939
908
953
988
918
750
606
596
696
785
767
674
609
616
636
584
458
331
259
214
125
-7
-96
-73
30
120
146
137
146
178
207
230
261
274
214
88
-10
20
150
234
174
36
-20
60
161
141
-7
-147
-147
-17
118
148
98
80
184
378
538
559
446
297
202
157
110
35
-42
-84
-77
-33
57
196
349
448
460
423
406
439
481
478
427
378
392
478
573
591
496
338
212
178
196
169
68
-28
-28
81
209
264
228
152
92
67
60
50
11
-83
-210
-302
-298
-207
-98
-39
-36
-47
-53
-60
-72
-69
-58
-95
-229
-413
-503
-376
-76
213
329
276
206
241
351
401
297
66
-179
-346
-402
-359
-235
-78
41
73
45
42
120
248
341
343
278
217
207
250
322
396
440
425
334
202
91
40
30
1
-81
-218
-366
-490
-564
-567
-491
-366
-253
-199
-189
-157
-47
114
238
260
199
122
51
-54
-232
-447
-634
-776
-924
-1088
-1172
-1051
-720
-332
-39
167
410
740
1058
1213
1178
1065
995
967
926
853
796
810
882
949
951
888
812
793
841
891
853
715
586
591
726
848
836
720
637
664
747
794
791
787
797
781
725
675
681
699
651
547
476
489
520
458
315
229
286
408
445
362
276
302
407
455
381
277
267
356
418
362
250
220
311
402
354
171
3
-19
81
180
211
231
336
522
685
737
683
597
532
477
395
276
153
61
27
53
131
237
333
384
388
371
361
369
396
446
522
595
619
554
426
302
232
189
95
-85
-283
-377
-302
-104
106
245
312
335
325
266
155
16
-122
-254
-381
-488
-551
-566
-520
-410
-254
-114
-55
-82
-112
-63
56
140
98
-65
-264
-432
-572
-729
-916
-1097
-1211
-1220
-1136
-996
-829
-644
-469
-401
-540
-878
-1251
-1463
-1447
-1292
-1120
-939
-663
-238
275
745
1084
1260
1230
910
240
-698
-1651
-2323
-2577
-2530
-2406
-2281
-1979
-1260
-144
990
1699
1854
1705
1578
1547
1441
1111
630
204
-73
-257
-410
-471
-354
-116
48
0
-211
-420
-530
-565
-578
-566
-500
-410
-375
-442
-585
-760
-953
-1167
-1381
-1559
-1689
-1788
-1836
-1764
-1520
-1156
-793
-514
-298
-79
156
341
391
294
124
-25
-107
-136
-152
-175
-202
-223
-245
-280
-319
-325
-262
-147
-32
44
79
103
136
165
172
139
75
5
-43
-61
-61
-71
-94
-110
-110
-103
-102
-94
-50
27
87
83
32
2
31
82
78
1
-94
-144
-139
-118
-112
-120
-120
-123
-167
-249
-319
-320
-262
-236
-303
-416
-458
-376
-253
-215
-289
-366
-339
-225
-136
-144
-214
-261
-252
-220
-214
-246
-290
-325
-343
-347
-338
-326
-313
-301
-293
-295
-293
-277
-259
-278
-360
-454
-464
-350
-187
-96
-115
-172
-187
-152
-107
-69
-35
-22
-62
-134
-157
-78
60
151
152
121
122
147
146
95
20
-52
-120
-193
-251
-264
-218
-138
-66
-35
-51
-82
-57
51
182
231
177
113
136
229
285
241
152
107
118
135
126
115
127
154
189
256
368
486
541
521
486
497
539
557
534
506
505
499
452
377
331
342
397
452
490
515
532
542
569
628
693
699
617
516
490
540
554
435
205
-6
-100
-109
-144
-256
-389
-431
-331
-149
1
48
21
12
95
262
445
575
642
659
617
481
252
-21
-292
-575
-881
-1149
-1241
-1074
-719
-335
-7
317
703
1086
1284
1205
952
721
613
573
506
419
387
447
555
668
795
926
975
856
616
433
435
542
573
463
332
310
370
387
330
311
427
597
652
538
384
353
447
528
496
389
304
280
280
266
254
273
308
329
330
344
390
430
401
293
184
155
195
219
168
86
69
160
276
308
238
143
107
129
145
112
55
19
-6
-60
-152
-223
-210
-134
-86
-128
-198
-163
44
346
578
634
542
428
385
400
396
316
207
156
208
339
521
775
1086
1347
1388
1148
788
550
506
486
283
-97
-420
-469
-260
-3
112
67
-13
-18
45
82
23
-95
-168
-131
-34
23
-3
-42
-3
113
204
187
94
36
78
181
257
282
310
394
503
558
535
500
538
646
727
696
576
476
465
517
552
533
501
516
594
695
768
798
809
832
876
926
962
981
1000
1039
1100
1164
1209
1230
1241
1256
1270
1270
1254
1238
1242
1268
1299
1312
1298
1257
1184
1077
946
815
704
621
562
519
491
485
518
595
687
739
713
635
578
588
651
716
764
812
867
880
791
599
371
168
-16
-240
-514
-744
-796
-614
-282
45
271
421
579
776
962
1063
1064
1006
941
890
860
860
891
932
942
906
851
809
783
755
720
695
698
723
755
780
797
793
750
675
610
597
624
630
568
467
407
413
412
306
101
-80
-114
-2
136
200
214
279
450
664
792
762
613
453
368
368
386
354
270
210
252
391
523
544
452
347
315
343
357
328
312
370
485
579
609
604
615
629
579
441
297
270
401
584
658
567
419
380
486
592
521
268
30
32
305
672
935
1052
1145
1327
1585
1799
1864
1774
1602
1424
1289
1205
1154
1106
1039
968
930
943
979
1003
1003
991
975
940
873
797
751
743
732
669
557
455
409
418
439
434
410
403
420
429
407
379
395
463
533
544
476
367
252
116
-70
-287
-462
-513
-416
-228
-40
104
222
360
526
655
642
458
199
27
40
178
283
256
151
118
252
466
553
396
91
-154
-209
-135
-100
-176
-270
-258
-144
-41
-18
-53
-110
-201
-355
-538
-675
-745
-829
-994
-1167
-1200
-1034
-773
-596
-575
-620
-607
-518
-414
-335
-238
-79
105
213
186
66
-70
-191
-348
-606
-936
-1220
-1328
-1191
-845
-406
4
318
542
699
791
787
666
447
207
19
-91
-132
-116
-41
86
217
279
214
62
-79
-121
-72
2
53
100
191
320
426
440
367
283
237
200
98
-89
-288
-380
-321
-178
-68
-41
-46
-26
3
-13
-94
-186
-242
-279
-333
-387
-383
-304
-220
-204
-243
-260
-227
-208
-276
-393
-440
-360
-239
-204
-270
-322
-260
-122
-36
-71
-181
-264
-290
-289
-280
-243
-183
-147
-158
-172
-133
-60
-36
-87
-134
-81
59
179
220
235
303
404
456
424
371
375
431
482
503
519
566
640
717
778
827
850
825
766
709
664
600
496
398
390
494
614
633
546
464
486
577
628
585
499
450
455
476
485
492
497
488
459
432
438
450
409
311
234
264
403
555
627
612
577
567
576
582
582
577
551
479
378
311
335
439
553
605
578
526
551
710
950
1117
1079
868
682
685
833
931
848
660
539
564
673
792
913
1020
1042
930
775
746
899
1074
1066
878
695
675
782
843
739
503
246
50
-48
-56
-10
55
130
231
341
407
402
375
431
587
726
751
694
667
679
617
396
84
-172
-334
-466
-585
-591
-406
-82
270
617
1008
1419
1705
1780
1739
1737
1789
1762
1584
1377
1311
1396
1490
1490
1454
1488
1589
1645
1576
1428
1323
1326
1404
1467
1443
1322
1168
1077
1084
1149
1199
1193
1142
1094
1092
1132
1165
1134
1026
920
921
1036
1124
1048
862
771
884
1042
986
691
430
459
705
846
705
455
405
621
864
881
686
496
471
566
626
566
426
299
251
287
357
395
381
354
356
385
410
425
474
588
693
680
537
383
358
466
562
539
426
349
384
476
523
494
455
470
514
511
437
367
383
480
565
558
477
399
383
431
507
578
615
605
580
584
635
677
640
543
485
515
553
482
297
149
156
274
346
283
151
78
105
171
202
185
146
104
65
44
57
87
113
123
143
180
203
185
135
97
85
81
46
-19
-77
-93
-62
-4
60
121
177
226
261
279
293
332
414
515
589
615
619
645
701
760
793
801
802
796
777
749
732
724
694
633
558
489
422
351
265
173
70
-42
-147
-223
-283
-368
-475
-522
-430
-234
-82
-77
-157
-163
-7
238
431
496
453
346
197
22
-154
-324
-526
-796
-1093
-1289
-1265
-1006
-637
-297
-41
170
391
614
787
874
884
851
786
696
623
618
676
726
710
654
626
637
616
509
372
317
387
492
521
462
407
426
483
498
442
366
330
333
329
294
249
224
222
216
193
158
97
-32
-270
-587
-869
-993
-925
-739
-537
-357
-151
129
457
733
869
853
735
571
397
236
119
66
66
78
72
59
64
96
139
171
173
135
65
8
19
123
273
386
405
349
293
301
359
379
273
57
-140
-168
0
243
410
453
445
460
486
473
416
353
293
187
-9
-262
-490
-642
-763
-944
-1231
-1596
-1947
-2191
-2274
-2207
-2058
-1900
-1760
-1611
-1420
-1217
-1092
-1138
-1357
-1663
-1955
-2194
-2398
-2560
-2613
-2478
-2170
-1815
-1549
-1405
-1312
-1182
-1001
-827
-730
-739
-823
-923
-994
-1021
-1023
-1028
-1041
-1038
-1012
-989
-1015
-1099
-1200
-1251
-1222
-1143
-1074
-1053
-1066
-1072
-1033
-950
-865
-816
-816
-839
-843
-807
-748
-704
-710
-764
-838
-904
-943
-951
-922
-860
-789
-732
-694
-656
-606
-567
-593
-704
-864
-1006
-1085
-1125
-1183
-1281
-1357
-1316
-1127
-867
-670
-615
-647
-648
-546
-368
-185
-32
99
210
264
230
135
49
-14
-132
-384
-721
-957
-929
-650
-304
-60
78
240
502
789
957
953
855
770
711
633
538
494
542
634
678
646
590
565
570
566
546
533
547
586
649
739
839
903
903
869
861
889
900
841
734
639
584
535
459
389
378
433
503
534
519
486
442
365
251
133
42
-27
-108
-227
-349
-418
-415
-390
-419
-536
-709
-871
-982
-1049
-1114
-1207
-1318
-1417
-1455
-1407
-1285
-1145
-1043
-987
-934
-844
-725
-625
-561
-507
-423
-327
-273
-271
-256
-148
53
264
402
471
557
746
1037
1334
1507
1481
1280
1001
737
514
292
17
-310
-614
-786
-764
-601
-423
-323
-289
-246
-163
-91
-81
-111
-112
-59
-7
-5
-16
28
129
212
216
175
157
172
167
109
47
54
146
269
358
410
465
555
652
708
701
663
651
670
665
583
437
311
279
328
378
360
275
185
153
178
210
201
167
174
269
419
544
598
605
612
623
603
546
487
461
469
478
474
468
471
482
503
539
573
561
481
378
335
373
410
352
201
69
39
76
74
9
-24
75
273
422
424
350
364
517
685
717
616
532
557
608
526
273
-23
-219
-307
-388
-518
-627
-602
-393
-52
329
675
941
1112
1202
1242
1253
1221
1123
962
799
702
701
772
858
915
924
892
849
834
866
924
965
964
949
980
1071
1159
1164
1079
985
964
1004
1021
961
855
772
716
625
466
292
187
175
209
238
284
399
588
788
927
981
967
910
813
676
518
374
266
192
138
100
79
61
28
-26
-70
-50
54
198
311
369
410
480
567
613
578
480
373
299
269
283
344
447
567
676
752
786
768
708
641
603
596
593
584
597
663
763
844
891
927
944
879
680
402
194
157
253
366
441
524
661
800
827
694
486
326
273
286
318
387
552
827
1145
1408
1555
1587
1532
1418
1271
1119
984
879
805
777
819
934
1079
1187
1207
1140
1035
944
886
848
817
803
827
884
926
906
821
727
682
680
671
626
573
562
595
625
609
560
526
538
581
627
657
661
639
608
596
627
682
710
680
607
534
486
448
397
325
235
129
21
-58
-84
-75
-80
-143
-259
-371
-411
-349
-220
-103
-69
-124
-204
-228
-170
-80
-14
18
42
47
-16
-169
-354
-492
-595
-762
-1056
-1383
-1550
-1443
-1126
-772
-503
-305
-98
156
415
600
654
575
417
267
190
203
261
318
364
418
493
571
618
626
612
584
535
462
384
328
298
274
245
223
235
289
370
462
558
644
682
642
541
432
362
328
297
252
211
200
226
283
360
443
509
544
573
644
761
861
856
730
552
414
343
283
171
15
-112
-152
-113
-50
15
94
179
214
157
49
-17
1
50
54
14
9
79
182
247
271
299
343
353
289
205
212
356
561
696
678
551
453
476
583
644
580
441
349
373
442
456
397
323
289
306
371
493
649
751
737
663
635
668
675
581
458
430
511
574
527
446
460
558
590
457
249
150
213
324
361
329
324
391
486
561
598
600
544
404
234
139
171
290
401
456
473
489
507
522
545
586
621
596
493
369
305
322
341
276
135
21
23
123
225
275
317
416
553
631
581
458
388
429
508
498
364
201
128
156
179
108
-45
-189
-267
-324
-450
-671
-904
-1028
-977
-799
-613
-501
-445
-350
-160
76
255
353
437
548
601
463
139
-200
-400
-505
-706
-1082
-1462
-1581
-1344
-907
-496
-215
-16
195
446
691
854
882
781
629
527
517
562
601
618
647
701
746
747
706
658
630
630
662
742
861
981
1049
1046
999
946
912
900
896
875
823
751
697
685
696
670
581
475
415
406
391
343
310
357
463
530
502
442
464
572
644
580
420
303
296
335
330
272
225
221
226
203
162
143
150
167
192
237
285
301
277
265
321
421
480
443
348
272
251
256
232
161
78
38
79
168
234
232
207
237
325
382
342
246
215
286
367
362
296
280
350
423
408
321
250
232
232
225
246
321
402
411
363
363
485
636
648
481
286
254
408
576
588
446
296
240
242
211
132
64
61
100
131
157
212
304
382
398
362
332
345
391
430
434
408
390
411
464
495
459
382
331
357
437
517
583
642
684
688
681
715
785
800
696
544
492
590
709
701
592
528
569
601
501
324
250
367
557
637
580
508
524
597
628
561
418
236
54
-54
-17
132
260
254
155
111
211
369
453
438
411
440
471
394
190
-53
-259
-426
-611
-837
-1036
-1092
-942
-605
-185
205
521
790
1033
1212
1262
1193
1103
1070
1056
972
837
792
940
1187
1323
1250
1095
1050
1145
1223
1148
971
865
903
979
946
797
689
731
865
930
841
694
652
746
839
793
628
497
503
587
605
510
397
391
502
624
652
591
526
519
546
543
482
382
287
209
129
44
-16
-11
54
118
137
127
145
207
253
225
131
38
-3
-12
-35
-82
-121
-119
-82
-28
36
106
168
215
258
319
395
444
436
388
350
343
351
350
343
353
383
403
400
395
415
450
463
440
420
445
504
534
496
426
394
422
461
440
344
227
161
172
218
248
243
227
228
248
256
224
164
120
124
146
126
44
-44
-53
45
182
264
265
232
215
213
182
106
23
-24
-28
-14
17
99
248
424
554
602
596
570
520
416
274
160
121
129
120
81
77
169
337
480
521
477
424
412
416
384
316
268
286
356
415
430
431
455
482
443
297
76
-133
-255
-280
-249
-221
-232
-262
-232
-86
126
252
187
0
-104
-2
216
364
362
307
309
331
241
-17
-350
-628
-822
-998
-1186
-1304
-1238
-970
-609
-291
-69
100
269
435
555
600
603
604
597
552
475
431
475
571
614
537
393
295
295
341
351
312
276
270
267
241
208
207
231
219
144
49
3
19
42
19
-49
-123
-179
-223
-263
-296
-324
-350
-377
-391
-383
-369
-384
-444
-519
-558
-522
-430
-346
-353
-483
-665
-766
-710
-585
-586
-822
-1166
-1358
-1268
-1053
-992
-1176
-1400
-1390
-1108
-782
-637
-665
-700
-665
-675
-865
-1164
-1335
-1219
-917
-666
-566
-473
-206
170
302
-148
-1134
-2172
-2684
-2471
-1844
-1288
-993
-715
-88
953
2054
2731
2744
2237
1568
1032
720
564
477
430
433
485
555
621
679
719
668
447
73
-302
-521
-562
-555
-633
-801
-950
-993
-936
-821
-632
-311
148
639
1007
1172
1169
1073
911
647
271
-122
-371
-371
-174
56
201
291
457
762
1109
1313
1277
1064
831
690
642
629
604
553
483
411
365
380
449
518
521
438
317
221
178
176
189
195
186
158
127
104
74
4
-128
-292
-432
-528
-626
-781
-1003
-1241
-1414
-1458
-1355
-1146
-924
-788
-762
-782
-754
-663
-574
-563
-634
-725
-795
-863
-976
-1151
-1360
-1584
-1835
-2131
-2439
-2668
-2725
-2588
-2314
-1996
-1698
-1431
-1176
-931
-717
-561
-494
-531
-658
-810
-896
-862
-746
-650
-639
-691
-728
-706
-648
-602
-586
-578
-548
-498
-451
-420
-390
-339
-270
-222
-231
-276
-276
-165
30
196
239
179
111
90
70
-38
-257
-507
-696
-788
-827
-854
-853
-790
-660
-520
-445
-470
-557
-642
-702
-767
-870
-995
-1072
-1062
-992
-928
-900
-872
-805
-716
-664
-693
-766
-801
-736
-593
-460
-412
-448
-490
-457
-347
-247
-243
-338
-444
-481
-451
-420
-429
-462
-460
-403
-329
-286
-280
-278
-256
-223
-201
-182
-133
-46
44
87
79
57
59
85
116
146
175
192
178
136
108
126
167
181
156
131
143
183
216
238
284
371
468
525
520
482
456
460
486
517
540
557
577
599
614
607
585
570
575
572
541
495
489
564
703
863
1004
1105
1152
1153
1153
1201
1286
1329
1258
1104
982
957
978
950
853
768
765
836
915
959
984
1019
1074
1148
1229
1281
1268
1186
1090
1042
1032
982
832
624
461
386
340
252
136
90
178
344
469
493
461
452
489
525
522
502
489
467
388
242
86
-24
-97
-203
-384
-590
-714
-672
-450
-100
293
648
921
1123
1295
1457
1576
1586
1480
1321
1197
1149
1165
1222
1310
1405
1455
1419
1322
1239
1229
1259
1258
1196
1134
1146
1242
1358
1427
1436
1415
1388
1365
1339
1309
1272
1219
1161
1124
1139
1206
1286
1337
1347
1339
1350
1397
1457
1484
1445
1354
1264
1223
1226
1228
1193
1134
1083
1059
1045
1022
996
988
997
995
967
929
912
931
963
982
979
964
955
961
980
1005
1021
1019
1007
1013
1053
1107
1132
1117
1100
1128
1200
1262
1263
1216
1176
1179
1210
1231
1230
1227
1242
1275
1308
1333
1345
1338
1305
1254
1202
1159
1119
1076
1037
1023
1034
1054
1063
1069
1096
1142
1175
1158
1103
1059
1052
1060
1041
981
916
879
866
849
823
815
834
854
840
809
806
847
889
883
831
787
773
755
692
609
573
609
662
667
627
614
670
760
816
818
809
827
858
865
846
838
866
902
908
882
869
897
945
966
935
878
828
787
729
646
570
552
599
652
659
630
621
665
704
648
476
275
157
125
75
-81
-285
-376
-256
-17
136
87
-76
-168
-92
74
182
161
59
-37
-96
-156
-264
-439
-663
-889
-1076
-1191
-1208
-1085
-776
-296
221
586
686
588
481
503
636
753
769
706
659
722
935
1260
1597
1821
1849
1708
1525
1437
1491
1611
1662
1563
1353
1168
1125
1211
1306
1309
1224
1133
1098
1089
1043
967
922
929
907
754
479
224
140
230
368
436
440
461
524
561
499
363
242
185
159
125
110
162
242
242
129
23
62
224
317
211
3
-92
-9
91
42
-123
-234
-213
-157
-176
-232
-213
-113
-58
-128
-240
-264
-197
-154
-209
-302
-350
-367
-428
-532
-574
-474
-302
-210
-268
-400
-486
-495
-485
-518
-584
-622
-601
-520
-396
-244
-95
8
39
24
26
81
148
138
-5
-224
-389
-408
-297
-184
-190
-330
-487
-530
-441
-322
-293
-381
-523
-635
-678
-658
-602
-564
-615
-779
-981
-1079
-1010
-864
-810
-920
-1094
-1170
-1080
-895
-732
-650
-628
-621
-611
-608
-631
-684
-654
-828
-887
-914
-888
-812
-710
-622
-581
-567
-513
-375
-202
-102
-156
-320
-478
-542
-531
-528
-585
-672
-717
-677
-571
-455
-384
-385
-454
-564
-686
-810
-946
-1104
-1260
-1366
-1376
-1271
-1056
-776
-514
-369
-393
-529
-645
-654
-594
-587
-703
-883
-1011
-1023
-980
-999
-1135
-1350
-1562
-1691
-1696
-1578
-1370
-1120
-850
-554
-235
67
299
447
545
614
630
565
451
387
447
607
765
832
795
704
609
526
442
346
251
181
152
153
163
173
202
257
319
361
385
414
462
489
443
327
195
94
24
-58
-169
-277
-332
-310
-236
-144
-50
49
157
257
323
338
302
223
99
-58
-213
-316
-336
-295
-255
-253
-253
-185
-28
151
253
244
203
234
341
414
350
186
79
123
244
291
218
139
180
319
404
333
179
98
157
272
331
314
291
322
391
457
504
530
521
469
402
370
378
356
242
97
63
202
408
495
395
217
131
181
275
298
230
147
133
198
300
392
446
439
366
252
169
169
221
248
232
253
407
682
962
1147
1236
1280
1262
1100
779
407
110
-72
-185
-244
-226
-138
-47
4
80
265
506
623
519
322
277
453
657
654
430
203
178
333
481
503
442
415
458
516
535
526
517
492
417
300
204
173
196
227
219
157
40
-89
-158
-136
-77
-76
-138
-135
33
303
480
458
326
249
268
287
233
160
175
294
425
460
358
151
-111
-379
-606
-783
-929
-1055
-1105
-995
-695
-277
137
451
627
677
663
660
709
767
750
645
555
608
808
1022
1099
1016
877
790
771
748
647
472
311
260
323
401
374
262
218
383
711
973
957
677
334
127
71
24
-147
-421
-638
-657
-476
-221
-29
68
122
177
216
196
113
14
-71
-157
-255
-329
-322
-239
-150
-114
-99
-17
132
237
184
17
-86
3
214
353
292
95
-75
-124
-77
-4
52
73
52
-6
-64
-60
18
112
145
102
43
45
123
234
327
385
437
515
619
703
715
663
607
601
622
597
482
317
185
142
188
282
373
415
379
292
227
236
300
345
323
252
169
94
39
61
216
462
641
608
391
183
145
244
300
192
-14
-150
-116
48
227
352
434
525
652
773
817
741
579
412
290
204
139
122
230
490
819
1076
1189
1203
1213
1259
1273
1143
826
404
65
-34
96
266
269
80
-119
-126
71
288
338
223
90
61
130
217
274
302
288
197
9
-224
-388
-387
-208
61
284
364
320
257
265
316
280
74
-217
-410
-417
-350
-406
-634
-872
-926
-788
-657
-716
-938
-1113
-1062
-806
-499
-262
-104
31
165
284
379
461
534
577
572
529
483
459
450
436
395
311
190
64
-9
11
102
200
254
254
224
194
179
171
151
110
75
109
236
402
508
510
467
469
519
516
369
103
-160
-314
-347
-315
-263
-192
-85
49
179
276
340
390
438
460
410
261
48
-146
-255
-295
-350
-473
-617
-680
-603
-431
-265
-176
-154
-149
-133
-130
-187
-322
-486
-603
-633
-601
-569
-560
-539
-460
-321
-178
-93
-83
-115
-134
-112
-61
-24
-40
-104
-179
-238
-286
-328
-337
-268
-133
-15
7
-53
-91
-30
93
156
92
-49
-162
-184
-132
-56
19
94
147
132
37
-80
-139
-122
-107
-175
-302
-379
-326
-157
49
234
375
450
453
423
426
462
442
310
152
139
328
591
764
826
897
1045
1167
1108
851
534
301
173
63
-81
-207
-198
16
395
825
1203
1492
1719
1905
2001
1912
1587
1089
570
172
-77
-231
-345
-404
-340
-146
84
232
261
224
161
55
-123
-335
-476
-458
-273
71
603
1335
2171
2892
3262
3177
2726
2101
1461
845
188
-577
-1391
-2045
-2331
-2232
-1961
-1786
-1800
-1865
-1793
-1543
-1228
-996
-883
-821
-725
-559
-341
-115
67
151
113
-27
-210
-356
-422
-412
-363
-312
-266
-223
-181
-158
-173
-212
-224
-157
-11
150
261
310
335
371
422
484
570
691
811
853
785
675
631
698
802
823
727
589
512
519
533
472
317
133
1
-52
-39
14
98
192
254
266
255
281
364
427
375
204
21
-72
-85
-99
-148
-172
-111
1
75
74
48
65
118
141
102
40
8
16
30
29
25
50
109
182
238
257
233
188
156
158
175
178
162
154
197
300
425
509
518
466
411
426
533
682
788
814
807
833
892
919
873
793
754
769
764
684
589
588
700
812
805
692
588
561
569
562
588
742
1004
1209
1217
1077
980
1035
1137
1092
833
506
307
302
390
430
397
379
471
652
803
822
733
650
643
666
623
487
343
291
339
417
466
477
452
377
258
158
139
190
231
195
112
66
110
234
398
560
674
699
633
533
477
470
437
306
89
-113
-203
-160
-46
30
-7
-147
-281
-283
-118
113
262
244
91
-118
-329
-531
-728
-917
-1107
-1306
-1489
-1591
-1544
-1332
-1011
-668
-354
-64
238
551
815
951
938
836
722
620
513
412
371
406
447
392
239
87
34
72
112
110
104
144
229
321
402
471
519
522
482
442
438
450
426
335
206
100
58
70
93
79
16
-72
-145
-178
-170
-129
-70
-17
10
8
0
-1
-15
-77
-183
-274
-292
-253
-234
-285
-376
-434
-429
-399
-397
-433
-471
-477
-451
-414
-378
-341
-302
-263
-229
-195
-156
-123
-113
-130
-150
-138
-90
-41
-26
-39
-37
0
49
60
22
-36
-76
-95
-109
-127
-142
-144
-140
-139
-132
-107
-72
-46
-34
-11
45
110
122
45
-81
-176
-201
-201
-249
-357
-453
-463
-386
-298
-259
-265
-274
-275
-293
-341
-397
-444
-491
-547
-581
-548
-471
-430
-466
-516
-490
-389
-313
-325
-374
-376
-360
-466
-763
-1129
-1324
-1229
-951
-689
-537
-413
-175
198
580
803
798
622
391
187
34
-69
-126
-151
-165
-172
-149
-68
47
128
119
29
-81
-154
-169
-143
-106
-89
-122
-214
-337
-458
-573
-693
-814
-900
-910
-836
-711
-600
-562
-616
-723
-796
-764
-645
-534
-524
-626
-770
-893
-989
-1093
-1232
-1404
-1592
-1758
-1829
-1733
-1461
-1095
-753
-485
-250
-1
248
425
483
438
346
243
141
58
25
64
150
233
283
309
340
381
412
415
386
337
285
240
208
187
172
156
138
128
123
99
35
-58
-140
-175
-172
-169
-182
-187
-142
-57
23
49
-3
-80
-113
-93
-78
-126
-212
-249
-189
-105
-109
-212
-308
-320
-264
-227
-231
-214
-123
-12
30
-13
-80
-121
-150
-209
-299
-372
-395
-366
-295
-198
-116
-112
-202
-335
-429
-419
-332
-236
-167
-125
-76
35
229
436
524
417
180
-14
-38
47
93
31
-49
-36
69
151
131
62
61
147
222
212
161
165
233
276
229
158
155
203
183
31
-156
-221
-123
20
91
101
135
212
273
274
260
288
312
236
49
-126
-156
-43
92
147
129
119
175
279
359
352
265
162
109
96
51
-43
-108
-45
127
269
283
219
201
259
309
283
238
282
418
527
511
418
363
392
429
371
208
28
-69
-32
102
231
266
215
181
250
378
412
278
69
-56
-70
-102
-247
-432
-500
-408
-272
-219
-238
-236
-177
-100
-27
80
245
413
495
467
382
283
146
-68
-341
-612
-844
-1027
-1115
-1043
-804
-482
-194
27
232
463
676
791
779
686
579
485
403
355
384
493
623
694
664
563
453
381
352
321
244
119
12
-3
77
176
224
239
279
357
401
337
204
114
111
124
62
-50
-113
-73
3
22
-21
-45
-7
48
51
1
-29
5
55
57
-5
-80
-103
-59
12
41
0
-81
-136
-119
-61
-30
-70
-154
-219
-232
-216
-204
-209
-218
-212
-173
-91
20
111
139
133
156
221
266
232
139
76
69
64
25
-7
32
124
180
168
160
222
302
291
168
36
-7
26
50
32
28
70
121
138
140
178
256
308
280
202
144
142
158
153
116
70
44
50
85
134
168
167
145
155
232
358
456
456
358
233
153
119
76
-14
-128
-200
-189
-108
12
153
301
433
516
554
581
620
645
604
484
356
310
384
530
658
717
704
657
625
627
638
604
502
383
338
411
546
622
572
443
345
356
442
492
425
259
101
51
104
167
168
109
60
72
128
204
287
357
376
316
220
193
296
467
571
527
386
275
268
295
189
-154
-641
-1053
-1224
-1187
-1100
-1052
-966
-722
-329
68
350
530
684
831
911
889
821
786
799
814
780
696
592
501
457
465
488
474
425
414
501
648
757
775
742
711
665
552
402
319
353
416
384
249
132
142
239
290
226
116
70
128
235
315
336
311
267
235
225
228
217
167
93
27
-24
-65
-94
-81
-20
37
23
-56
-118
-98
-38
-48
-161
-283
-294
-189
-72
-14
24
116
247
323
284
184
110
79
41
-39
-124
-152
-113
-41
30
94
159
218
253
256
230
182
127
81
61
78
130
211
306
392
452
489
515
528
515
481
450
436
410
335
223
152
183
292
380
377
306
241
225
235
222
164
74
-19
-82
-78
4
129
228
260
254
274
344
421
445
403
340
309
318
339
348
352
369
401
433
459
491
542
607
668
715
757
792
788
707
549
380
287
304
385
450
464
475
557
731
924
1028
984
841
700
633
628
625
580
481
355
236
162
156
170
123
-13
-160
-184
-45
120
107
-133
-442
-593
-489
-244
-37
78
233
584
1055
1254
742
-541
-2082
-3152
-3392
-3065
-2687
-2469
-2140
-1331
-44
1295
2193
2446
2173
1644
1101
678
416
290
262
333
517
775
1018
1172
1203
1106
873
521
157
-62
-55
122
338
507
608
626
532
336
132
45
115
252
322
268
133
4
-83
-148
-218
-269
-250
-146
-6
101
141
135
109
75
39
14
15
22
-11
-97
-199
-256
-239
-184
-160
-206
-297
-354
-310
-179
-70
-82
-191
-271
-226
-107
-51
-99
-139
-62
74
110
0
-119
-99
8
11
-166
-369
-401
-267
-156
-194
-293
-288
-154
-18
42
113
293
510
578
438
280
332
584
776
726
538
480
675
962
1108
1063
964
927
927
890
823
813
889
978
992
936
881
873
886
878
846
820
801
764
699
632
602
607
598
518
361
185
87
110
210
307
354
371
414
511
640
737
739
634
480
379
398
503
596
637
692
872
1230
1707
2179
2525
2639
2467
2060
1580
1166
812
393
-153
-695
-1004
-959
-650
-276
18
192
262
242
150
18
-142
-350
-611
-868
-1008
-964
-782
-585
-464
-407
-326
-180
-25
43
4
-39
37
250
504
701
838
968
1092
1133
1043
874
712
541
244
-242
-782
-1125
-1135
-905
-650
-498
-416
-298
-84
199
477
673
750
737
719
762
850
907
885
815
756
729
715
712
758
875
1032
1167
1252
1292
1284
1201
1033
822
634
513
448
400
342
302
343
502
730
899
894
739
575
536
608
656
582
422
286
229
225
234
254
293
311
266
186
166
256
379
413
326
222
216
292
335
278
181
156
215
264
228
155
156
270
408
457
416
390
465
604
699
704
675
694
756
780
706
583
517
536
575
561
506
484
540
641
724
762
777
788
793
775
730
676
633
629
682
767
824
804
730
682
709
767
761
668
562
529
574
621
610
559
528
538
554
544
513
492
493
504
516
534
558
576
572
541
499
461
434
415
396
376
376
430
557
729
882
965
982
981
988
984
939
852
739
621
515
457
473
549
618
635
615
618
656
680
643
562
502
505
561
633
713
808
908
980
990
926
804
653
514
417
368
339
290
217
147
132
205
335
436
435
330
203
160
238
381
512
606
666
676
599
430
221
28
-162
-404
-704
-965
-1060
-946
-677
-338
7
324
588
803
999
1194
1348
1390
1303
1159
1053
1025
1044
1065
1079
1087
1075
1032
977
945
951
960
936
882
840
834
848
854
847
847
867
895
919
939
964
983
969
905
810
730
697
692
668
602
534
529
601
683
692
612
519
499
555
617
616
546
463
422
442
497
539
524
450
366
339
386
456
488
486
505
576
652
666
612
565
576
612
605
549
516
567
669
739
741
720
732
775
795
757
687
642
650
698
754
790
801
795
800
833
878
892
845
748
651
591
565
542
506
471
465
492
527
534
507
481
490
529
550
525
477
460
490
529
530
489
446
432
433
412
353
280
227
212
226
251
277
302
327
350
355
328
263
178
111
93
120
158
174
170
175
208
251
272
255
219
186
161
145
149
193
274
352
386
379
368
381
414
440
442
424
401
389
405
449
497
523
528
537
561
567
507
381
238
123
32
-63
-167
-256
-310
-335
-324
-251
-115
17
47
-46
-162
-175
-56
106
200
197
147
96
28
-105
-325
-599
-870
-1085
-1209
-1210
-1055
-736
-301
141
478
673
773
851
927
954
885
749
640
633
708
754
667
454
230
117
140
227
297
351
463
691
1010
1318
1506
1527
1402
1203
1008
868
781
721
667
624
615
645
694
725
705
631
533
447
391
362
355
380
437
500
520
465
342
206
102
41
-5
-74
-185
-316
-414
-424
-339
-209
-109
-75
-88
-103
-106
-107
-118
-132
-135
-122
-94
-49
17
96
163
194
173
90
-20
-104
-122
-88
-68
-102
-160
-165
-93
4
67
83
68
27
-52
-138
-167
-110
-41
-73
-226
-374
-366
-184
33
127
83
16
26
91
94
-37
-249
-418
-484
-490
-502
-512
-439
-252
-44
53
4
-85
-92
-12
59
48
-13
-25
56
178
264
283
256
217
169
99
1
-107
-192
-230
-226
-215
-235
-291
-354
-387
-378
-353
-343
-356
-378
-389
-377
-347
-318
-314
-337
-368
-373
-342
-289
-240
-208
-190
-175
-157
-141
-142
-171
-224
-273
-292
-282
-281
-324
-412
-517
-616
-718
-852
-1022
-1186
-1287
-1307
-1281
-1258
-1234
-1149
-976
-775
-670
-722
-843
-873
-740
-541
-441
-497
-605
-644
-620
-669
-899
-1261
-1610
-1851
-1997
-2096
-2117
-1979
-1661
-1255
-887
-608
-384
-183
-29
30
-17
-125
-238
-328
-384
-396
-357
-276
-189
-138
-130
-139
-136
-121
-122
-154
-190
-188
-143
-99
-107
-166
-225
-251
-253
-261
-272
-264
-238
-231
-263
-310
-322
-285
-244
-246
-283
-304
-268
-195
-144
-156
-226
-314
-392
-469
-570
-682
-764
-779
-755
-760
-820
-879
-841
-699
-564
-562
-683
-788
-754
-616
-528
-582
-702
-720
-577
-390
-321
-398
-495
-459
-275
-77
15
9
12
91
198
237
173
60
-12
1
72
158
223
259
284
323
387
445
445
378
301
282
312
333
301
249
244
314
409
452
413
340
303
316
327
283
197
143
180
277
353
368
362
384
439
475
470
456
454
449
406
345
306
290
256
193
152
181
255
310
314
313
360
447
515
536
540
563
583
563
510
461
458
515
611
705
769
798
818
856
911
926
850
708
591
571
621
653
613
545
538
609
689
691
607
509
455
410
280
50
-160
-190
-32
143
164
65
54
252
545
707
647
489
414
465
564
635
668
686
687
663
623
545
378
114
-172
-377
-480
-536
-566
-510
-322
-69
116
186
235
366
556
691
704
659
672
794
970
1098
1107
1020
926
890
915
936
887
769
650
602
647
747
821
796
686
591
591
660
692
633
554
570
689
797
793
714
682
738
803
781
680
581
533
503
438
344
269
252
279
313
354
416
488
539
542
505
465
439
418
393
368
346
311
256
207
207
276
371
429
424
383
365
401
476
534
525
460
410
444
542
606
569
475
425
472
561
613
613
609
650
740
843
907
897
826
753
737
765
755
669
571
565
669
786
832
825
840
890
909
854
779
764
805
839
839
851
916
1008
1063
1073
1092
1151
1214
1212
1136
1052
1042
1132
1287
1430
1490
1463
1423
1463
1581
1662
1568
1279
909
587
362
210
114
82
100
114
82
36
74
284
643
1027
1290
1370
1353
1412
1637
1902
1947
1625
1085
659
561
710
850
844
803
942
1321
1794
2151
2307
2328
2309
2273
2171
1975
1729
1523
1413
1379
1351
1278
1176
1117
1162
1284
1398
1429
1375
1310
1301
1356
1425
1461
1456
1433
1400
1342
1237
1083
903
717
515
288
81
-18
57
279
539
743
885
1017
1168
1300
1358
1325
1237
1143
1069
1023
1002
991
964
908
844
812
844
921
987
1008
1007
1043
1148
1288
1373
1326
1126
820
503
289
262
415
634
785
828
853
974
1185
1351
1342
1163
932
749
625
533
486
517
598
636
567
437
348
338
330
228
37
-136
-203
-181
-151
-166
-197
-198
-174
-184
-259
-358
-411
-398
-364
-356
-363
-349
-308
-275
-264
-251
-221
-236
-389
-680
-976
-1125
-1124
-1113
-1209
-1362
-1409
-1252
-953
-658
-462
-353
-282
-221
-173
-146
-138
-158
-219
-314
-396
-420
-386
-348
-357
-409
-450
-439
-396
-389
-436
-479
-444
-347
-293
-370
-546
-688
-698
-599
-490
-437
-435
-445
-450
-455
-456
-450
-450
-475
-515
-533
-495
-414
-326
-248
-167
-75
9
60
86
117
171
227
261
285
345
466
613
726
772
775
787
831
882
907
901
895
920
976
1035
1075
1102
1127
1152
1162
1154
1141
1143
1162
1186
1204
1219
1239
1261
1273
1268
1252
1217
1137
985
782
601
493
440
384
311
292
395
586
750
818
836
901
1033
1169
1267
1369
1510
1619
1562
1310
1003
800
695
534
218
-142
-328
-226
81
428
716
935
1093
1184
1207
1185
1123
993
789
577
457
472
565
659
731
804
872
879
786
630
494
430
415
398
364
339
348
378
395
387
387
441
553
673
743
758
787
895
1072
1221
1253
1165
1049
1007
1054
1111
1096
1004
917
921
1016
1117
1143
1091
1022
991
987
968
909
830
764
724
717
746
796
843
855
837
819
834
900
1009
1150
1291
1378
1368
1282
1189
1151
1151
1107
971
791
675
700
844
1011
1112
1131
1112
1100
1089
1024
880
711
622
663
778
865
891
926
1052
1262
1457
1535
1483
1370
1278
1252
1283
1329
1334
1283
1202
1134
1092
1063
1048
1073
1137
1162
1029
725
412
320
531
889
1141
1187
1175
1336
1726
2146
2333
2207
1922
1689
1578
1513
1426
1359
1408
1575
1756
1861
1907
1964
2050
2090
2004
1828
1693
1690
1781
1861
1883
1905
1982
2066
2023
1790
1460
1199
1079
1041
1011
1022
1155
1395
1614
1709
1721
1761
1828
1792
1565
1238
993
891
805
606
340
185
245
417
504
430
294
255
360
517
585
499
299
87
-50
-75
-44
-53
-154
-301
-398
-404
-407
-530
-791
-1093
-1326
-1472
-1573
-1611
-1491
-1148
-653
-165
198
440
629
794
897
877
730
528
371
318
348
388
392
387
432
524
585
549
436
336
309
330
348
357
381
443
528
599
632
629
601
574
563
562
544
490
406
317
229
136
52
9
0
-62
-282
-651
-1014
-1181
-1105
-918
-796
-781
-749
-548
-163
264
548
598
472
302
198
186
207
198
144
75
19
-16
-28
6
84
148
115
-31
-198
-248
-132
74
254
353
389
388
342
248
140
63
20
-30
-105
-164
-151
-73
0
4
-37
-46
18
102
120
60
-5
-4
54
92
58
-19
-78
-101
-131
-201
-290
-347
-352
-326
-284
-212
-105
7
66
42
-39
-123
-185
-240
-313
-408
-511
-601
-666
-698
-684
-617
-506
-377
-263
-185
-153
-162
-201
-256
-324
-405
-497
-561
-545
-431
-263
-124
-59
-42
-26
-9
-31
-113
-230
-340
-423
-460
-426
-315
-181
-103
-99
-114
-130
-221
-460
-782
-1001
-1022
-946
-946
-1037
-1045
-833
-478
-186
-70
-61
-35
42
115
140
99
-41
-303
-622
-842
-863
-771
-757
-891
-1021
-947
-650
-316
-118
-50
11
95
92
-90
-401
-688
-875
-1028
-1238
-1477
-1605
-1512
-1231
-891
-598
-370
-170
22
183
291
368
427
448
397
281
179
182
314
485
563
493
367
334
452
602
612
456
302
365
625
825
766
538
409
495
623
564
329
147
168
306
398
407
408
435
429
361
290
285
295
205
18
-135
-125
10
118
112
33
-14
27
124
216
266
272
264
269
299
339
338
273
190
148
139
95
-8
-72
39
315
533
473
188
-21
60
316
431
231
-104
-248
-96
150
203
-1
-282
-426
-393
-303
-291
-351
-360
-231
-12
167
230
223
224
229
168
19
-136
-187
-108
26
134
189
215
245
289
321
283
137
-100
-341
-482
-497
-440
-394
-379
-365
-324
-223
-43
187
352
329
133
-49
-28
155
242
47
-309
-502
-362
-48
147
133
77
163
388
608
737
807
851
847
784
737
784
887
912
797
644
590
659
729
694
589
514
522
571
589
567
552
581
641
688
697
678
656
619
541
434
358
356
378
323
158
-22
-93
-46
-3
-74
-211
-264
-144
71
236
289
284
297
341
364
339
307
333
405
433
350
186
46
-22
-111
-344
-701
-990
-1030
-830
-558
-336
-113
226
676
1073
1269
1274
1197
1110
992
803
584
431
403
487
617
717
754
754
781
881
1004
1024
882
667
548
585
664
635
490
355
327
382
440
479
538
626
689
674
619
601
639
672
627
519
431
426
484
526
491
398
322
316
364
395
366
303
257
246
249
247
257
302
356
369
316
244
205
191
135
0
-163
-277
-321
-352
-396
-390
-256
-20
173
218
172
196
351
523
551
419
257
184
182
164
104
52
47
65
72
93
181
346
516
601
573
492
442
470
529
516
376
188
105
196
367
459
416
331
319
379
411
341
202
75
16
7
-8
-52
-95
-80
8
115
160
121
63
71
156
253
282
243
192
166
156
148
154
205
295
367
370
308
243
237
290
322
233
-8
-320
-539
-541
-346
-85
110
216
327
538
839
1106
1202
1089
844
601
447
393
391
392
383
374
383
420
463
466
390
232
32
-150
-278
-349
-397
-442
-465
-423
-298
-141
-36
-33
-107
-193
-237
-233
-189
-128
-84
-105
-214
-376
-522
-612
-688
-835
-1085
-1359
-1522
-1487
-1273
-993
-764
-614
-484
-286
-6
280
469
514
458
376
310
249
185
121
62
4
-55
-95
-83
-19
67
128
141
114
66
6
-76
-181
-283
-343
-334
-276
-214
-161
-89
30
178
276
268
183
110
114
179
242
258
223
159
82
1
-74
-141
-201
-262
-313
-326
-292
-238
-205
-214
-251
-286
-313
-349
-396
-434
-436
-404
-372
-366
-375
-367
-323
-272
-266
-312
-366
-358
-274
-169
-117
-134
-177
-192
-169
-124
-71
-17
11
-15
-77
-113
-81
-17
1
-55
-128
-148
-117
-89
-81
-54
21
82
36
-117
-273
-315
-253
-188
-187
-210
-180
-92
-24
-26
-59
-44
13
10
-134
-356
-489
-428
-250
-132
-168
-280
-308
-187
-8
96
73
-13
-77
-98
-121
-187
-287
-382
-424
-409
-372
-342
-323
-290
-228
-158
-117
-117
-128
-127
-130
-149
-142
-25
227
533
765
885
959
1054
1145
1155
1078
1001
1012
1092
1146
1123
1077
1097
1193
1270
1220
1039
830
701
662
629
524
357
211
145
123
70
-36
-156
-230
-254
-272
-313
-353
-351
-303
-233
-151
-30
156
355
448
361
153
-29
-104
-155
-333
-683
-1059
-1246
-1144
-824
-439
-83
234
542
861
1189
1504
1749
1836
1718
1449
1177
1033
1027
1057
1027
929
835
819
896
1030
1163
1252
1280
1281
1329
1476
1696
1896
2006
2035
2038
2026
1945
1757
1507
1285
1137
1026
910
811
785
855
977
1083
1141
1164
1165
1141
1090
1037
1024
1066
1143
1209
1232
1216
1189
1171
1169
1172
1164
1126
1052
963
903
906
967
1024
1018
953
896
911
1000
1103
1162
1175
1178
1189
1179
1112
1003
920
916
966
998
970
921
930
1020
1119
1131
1042
931
875
863
818
690
532
444
464
524
524
455
412
489
663
796
761
565
340
210
187
189
134
20
-91
-140
-123
-78
-45
-39
-68
-142
-251
-356
-398
-360
-294
-272
-307
-333
-290
-200
-144
-170
-250
-308
-328
-360
-437
-523
-540
-468
-368
-325
-366
-428
-424
-323
-180
-42
97
276
489
670
757
767
769
809
846
800
642
426
250
186
235
326
369
330
267
271
372
504
568
537
458
402
391
405
409
363
272
162
46
-88
-254
-397
-438
-341
-190
-117
-164
-239
-229
-126
-4
101
214
330
374
291
137
27
-9
-72
-276
-579
-800
-781
-524
-161
178
480
795
1144
1489
1747
1881
1900
1832
1703
1537
1392
1340
1412
1548
1637
1623
1562
1559
1644
1731
1707
1552
1371
1293
1337
1402
1378
1249
1089
972
925
928
952
961
922
834
738
685
692
734
754
741
729
757
833
932
1015
1055
1049
1001
895
705
432
147
-51
-101
-28
101
250
451
740
1074
1341
1446
1388
1236
1045
815
541
276
128
146
263
374
452
580
831
1139
1323
1269
1060
891
855
860
762
562
388
311
230
9
-306
-489
-407
-195
-125
-271
-407
-261
163
587
768
738
717
851
1081
1247
1264
1159
1009
874
790
757
732
668
562
474
453
477
484
457
438
458
465
379
194
-7
-136
-183
-185
-159
-94
4
98
175
260
377
473
454
305
126
37
45
58
-2
-104
-159
-113
-6
90
151
192
241
296
353
439
581
767
933
1012
1001
976
1012
1087
1117
1042
886
728
611
525
447
383
361
394
452
480
436
323
179
44
-72
-171
-257
-356
-514
-720
-852
-759
-454
-190
-240
-572
-804
-574
64
691
966
956
965
1143
1349
1364
1135
767
331
-175
-701
-1076
-1140
-914
-582
-306
-94
130
388
621
758
793
760
664
487
259
82
60
190
338
346
171
-64
-169
-44
220
402
345
115
-48
43
323
539
502
257
11
-82
-34
55
101
89
26
-56
-103
-66
49
154
148
8
-216
-418
-539
-609
-709
-899
-1132
-1277
-1236
-1051
-858
-742
-682
-628
-603
-673
-828
-971
-1042
-1105
-1260
-1477
-1597
-1500
-1260
-1059
-988
-965
-873
-709
-565
-510
-516
-525
-522
-530
-556
-567
-568
-586
-639
-699
-727
-726
-737
-777
-803
-762
-657
-556
-522
-570
-663
-743
-768
-729
-673
-666
-730
-823
-898
-969
-1099
-1293
-1447
-1423
-1200
-906
-690
-582
-487
-321
-98
81
121
2
-229
-476
-647
-699
-664
-623
-623
-633
-593
-499
-410
-389
-432
-481
-497
-491
-504
-545
-583
-583
-536
-483
-484
-569
-688
-728
-624
-417
-227
-122
-67
9
102
129
30
-144
-282
-333
-338
-370
-431
-463
-411
-285
-153
-85
-104
-172
-231
-248
-250
-275
-327
-362
-349
-314
-316
-381
-474
-544
-583
-636
-732
-832
-855
-766
-624
-532
-543
-621
-691
-708
-685
-655
-621
-572
-516
-475
-477
-523
-610
-737
-920
-1154
-1389
-1546
-1560
-1420
-1188
-954
-764
-584
-353
-68
176
281
255
198
200
249
269
246
232
270
318
305
231
170
158
157
124
97
151
280
388
403
375
402
498
564
510
374
271
262
269
182
-12
-193
-219
-46
237
481
603
632
639
647
614
496
311
142
48
38
77
144
241
362
466
509
467
340
156
-47
-217
-316
-339
-308
-227
-72
158
413
595
644
590
517
470
403
266
89
-15
38
197
343
428
500
617
736
762
681
567
477
386
230
46
-46
5
119
187
191
196
243
292
308
308
335
378
384
344
325
377
465
506
458
367
301
292
329
379
408
402
374
369
415
471
467
397
345
395
516
592
568
535
608
774
874
770
515
305
275
370
428
365
257
251
408
651
846
920
893
834
790
763
745
738
738
731
713
705
753
853
951
977
929
874
851
828
763
684
660
730
829
862
834
832
909
1010
1020
895
703
535
425
353
304
293
322
358
367
363
393
481
578
601
513
371
297
369
558
744
814
738
572
383
185
-54
-337
-602
-785
-860
-834
-702
-433
-48
350
634
761
804
875
1022
1194
1308
1317
1233
1117
1028
979
925
803
606
408
296
295
402
603
879
1145
1278
1218
1048
913
851
750
514
221
77
192
454
664
751
804
908
1023
1043
948
817
732
689
638
564
496
453
417
387
405
492
593
602
500
394
387
476
550
534
465
423
431
462
514
620
761
841
796
705
726
894
1052
1023
824
647
628
696
692
558
404
352
394
433
419
403
448
545
635
678
684
680
681
684
670
621
541
470
463
523
586
582
519
474
508
594
643
612
539
488
468
441
385
338
344
379
364
264
140
106
182
266
240
110
-4
-8
68
129
139
130
131
117
63
3
-8
23
14
-79
-192
-226
-161
-75
-51
-88
-132
-142
-110
-52
11
58
84
115
179
277
366
411
423
427
414
341
209
81
21
21
27
12
19
92
204
279
277
234
204
184
117
-28
-208
-341
-394
-404
-436
-517
-610
-662
-634
-522
-355
-193
-104
-122
-197
-219
-125
33
125
68
-104
-305
-480
-626
-772
-926
-1094
-1280
-1451
-1523
-1418
-1143
-796
-494
-279
-119
31
187
327
413
413
336
241
194
227
312
405
476
511
491
404
272
147
65
10
-44
-90
-82
-7
107
201
251
273
293
331
392
456
486
453
376
314
308
329
307
208
78
-3
-9
17
13
-28
-61
-48
5
52
59
33
3
-17
-50
-118
-217
-304
-339
-340
-354
-402
-445
-427
-349
-274
-252
-257
-220
-123
-25
14
4
17
77
128
106
26
-39
-57
-75
-150
-259
-322
-305
-259
-244
-242
-188
-74
21
27
-15
-5
85
166
150
54
-16
2
58
69
20
-35
-53
-52
-60
-81
-93
-92
-102
-129
-145
-126
-95
-99
-158
-248
-323
-364
-382
-393
-397
-378
-332
-250
-145
-59
-19
-32
-70
-106
-147
-224
-336
-437
-469
-429
-367
-318
-267
-172
-30
103
178
181
163
163
178
175
137
84
48
46
76
128
194
248
256
215
162
164
226
288
279
187
79
34
67
138
196
218
203
163
117
85
71
51
-7
-108
-212
-259
-202
-73
53
107
60
-49
-136
-143
-83
-16
-4
-70
-183
-307
-427
-548
-682
-831
-988
-1126
-1191
-1121
-897
-569
-249
-17
134
269
413
528
563
522
465
447
469
511
580
708
896
1079
1162
1115
993
891
863
883
880
826
762
746
790
842
844
798
760
763
786
775
724
677
668
667
614
491
357
300
332
388
406
394
395
429
470
501
538
600
644
595
439
271
208
255
289
194
-20
-210
-245
-128
15
66
8
-85
-125
-91
-27
-2
-58
-184
-324
-422
-469
-505
-567
-645
-692
-686
-663
-664
-675
-628
-499
-360
-317
-395
-506
-555
-542
-550
-622
-708
-731
-673
-579
-477
-363
-227
-93
3
58
97
124
132
126
134
166
192
179
148
153
196
210
135
-5
-119
-149
-119
-90
-88
-92
-79
-33
69
234
406
491
443
334
285
331
378
321
178
70
75
142
181
173
191
280
394
457
471
495
563
626
618
563
531
547
575
585
610
675
725
667
503
365
355
407
359
174
4
16
185
330
348
326
403
571
673
590
382
197
110
54
-64
-224
-308
-234
-39
151
241
245
241
290
383
470
520
543
551
538
486
391
257
69
-189
-491
-761
-922
-952
-889
-767
-593
-359
-70
257
589
879
1059
1088
989
842
713
607
509
421
363
325
263
172
130
216
405
552
543
431
383
474
592
557
328
66
-50
-3
75
71
13
6
82
161
155
80
17
11
2
-79
-207
-282
-232
-107
-17
-22
-67
-73
-39
-28
-96
-226
-358
-463
-554
-637
-687
-685
-663
-671
-718
-758
-750
-706
-677
-681
-683
-638
-538
-414
-300
-216
-185
-231
-359
-533
-693
-799
-847
-853
-822
-748
-634
-493
-341
-190
-56
37
71
57
37
45
85
125
138
121
96
79
72
72
84
113
149
169
169
177
230
329
431
480
455
379
292
226
197
202
223
237
236
230
238
267
303
330
352
391
459
530
556
514
432
362
331
312
276
229
216
260
330
376
395
434
530
656
748
776
778
810
887
981
1050
1076
1071
1064
1077
1114
1155
1175
1164
1147
1152
1183
1220
1242
1245
1237
1218
1183
1122
1045
977
927
892
863
829
784
733
697
716
814
951
1045
1033
944
868
865
909
928
894
836
788
730
610
412
175
-44
-233
-413
-585
-691
-655
-449
-123
222
515
749
952
1130
1259
1310
1277
1184
1069
960
879
836
832
850
871
877
860
818
766
730
729
752
773
776
769
759
740
700
647
598
563
535
510
497
503
510
499
467
434
418
416
412
404
401
402
394
370
348
350
366
367
337
297
278
290
310
315
305
297
301
308
310
312
319
327
324
311
305
313
317
298
262
244
268
319
361
376
376
381
392
400
410
426
437
419
368
318
311
356
413
443
445
445
464
497
525
537
539
542
546
550
550
550
550
543
523
498
477
470
478
490
496
503
519
543
557
541
500
456
429
414
394
359
318
289
276
271
271
283
310
340
358
372
405
454
478
434
326
223
185
207
231
210
169
176
260
380
466
484
467
465
486
493
445
359
291
290
349
420
461
475
485
511
548
572
557
497
414
348
337
380
431
449
430
410
413
423
402
316
161
-15
-140
-165
-134
-149
-262
-413
-468
-356
-185
-120
-202
-298
-278
-178
-189
-403
-682
-802
-747
-749
-998
-1364
-1477
-1147
-601
-245
-202
-207
46
524
921
1020
909
813
833
913
984
1050
1107
1121
1063
967
883
794
648
484
409
468
573
632
640
672
750
814
788
673
513
350
231
215
322
492
619
653
659
700
753
726
580
387
245
200
223
282
358
439
499
532
541
517
430
269
78
-75
-154
-175
-177
-158
-93
12
107
156
162
150
106
14
-111
-204
-222
-193
-171
-176
-162
-85
36
124
127
61
-6
-25
-5
-3
-58
-146
-208
-200
-143
-95
-77
-58
-14
24
2
-70
-111
-46
97
198
170
51
-43
-35
10
-28
-191
-378
-440
-339
-183
-116
-158
-202
-150
-36
12
-88
-278
-433
-487
-480
-493
-526
-514
-405
-227
-77
-18
-38
-81
-113
-142
-198
-292
-402
-482
-486
-401
-265
-155
-116
-110
-59
73
240
360
405
419
453
514
576
606
604
588
572
572
590
612
611
568
509
479
499
545
564
530
468
429
446
491
504
437
300
142
19
-57
-124
-222
-365
-495
-519
-386
-162
1
-12
-154
-245
-152
80
265
274
159
78
102
132
22
-256
-573
-798
-933
-1062
-1178
-1147
-846
-344
139
450
627
812
1044
1209
1189
1008
800
652
563
511
511
575
655
674
613
537
502
493
467
437
458
539
622
652
655
686
744
758
682
567
496
490
495
460
410
409
456
488
450
376
345
383
420
377
271
203
243
352
404
329
193
131
190
282
276
159
40
26
96
132
75
-17
-59
-40
-10
8
45
121
187
193
159
152
179
169
70
-70
-149
-141
-114
-113
-95
-5
113
159
91
13
41
172
277
263
164
96
131
248
369
425
401
326
251
215
223
249
272
269
227
154
95
113
212
308
302
171
16
-48
4
79
76
-13
-121
-172
-150
-99
-85
-105
-120
-75
26
122
161
159
171
219
266
276
261
257
266
254
210
171
174
211
243
246
239
247
286
345
409
453
448
412
394
424
474
502
507
530
583
625
601
546
531
562
578
525
445
432
507
597
623
600
600
635
629
511
313
141
69
61
34
-21
-25
92
280
403
363
216
97
87
145
173
144
113
133
174
171
99
-14
-155
-350
-612
-878
-1020
-952
-709
-412
-155
68
330
664
1008
1235
1271
1159
1028
977
1010
1050
1031
965
922
939
981
989
939
873
847
877
930
971
995
1011
1029
1047
1060
1062
1038
977
896
832
799
780
744
689
643
630
634
625
595
564
546
537
537
552
584
607
601
566
535
529
519
460
330
182
77
44
51
61
82
154
292
456
590
666
701
704
652
532
375
241
156
95
31
-7
37
159
293
386
444
508
577
591
502
337
189
121
104
77
22
6
85
228
327
305
210
153
180
220
180
69
-9
30
157
286
365
413
457
485
457
371
270
189
130
62
-27
-112
-170
-194
-194
-176
-153
-152
-196
-263
-299
-262
-169
-87
-61
-67
-56
-13
26
29
11
4
12
11
-3
11
80
166
195
142
64
39
80
129
130
97
96
162
262
318
289
195
96
39
26
26
3
-50
-105
-112
-46
70
165
180
111
-9
-133
-235
-315
-389
-463
-509
-468
-319
-125
-8
-44
-183
-295
-304
-248
-208
-215
-234
-239
-262
-344
-481
-631
-784
-976
-1218
-1432
-1499
-1371
-1108
-825
-584
-366
-130
114
306
394
362
252
129
49
39
86
146
200
264
347
417
413
312
173
83
73
92
95
105
181
322
443
474
431
401
430
458
394
219
22
-92
-94
-48
-30
-46
-45
13
109
180
186
139
74
19
-18
-42
-53
-48
-27
10
64
118
146
145
156
207
269
272
187
72
17
24
-3
-141
-329
-437
-404
-323
-319
-389
-400
-260
-37
120
162
194
327
542
705
719
621
517
453
383
258
98
-35
-105
-115
-73
24
170
317
403
411
392
395
417
415
366
284
201
142
120
134
164
154
63
-74
-164
-155
-110
-129
-238
-346
-351
-261
-168
-144
-165
-172
-166
-189
-246
-290
-283
-257
-283
-383
-497
-547
-517
-461
-435
-442
-447
-409
-320
-202
-88
1
67
120
171
218
260
301
350
382
355
260
152
119
191
300
361
358
353
404
490
543
533
491
457
425
359
251
143
69
30
2
-33
-67
-81
-54
17
118
213
275
298
298
308
357
465
627
796
886
828
641
415
231
95
-62
-281
-520
-680
-678
-509
-220
121
439
681
842
959
1063
1149
1167
1088
950
825
753
715
699
721
801
907
972
963
923
923
984
1046
1055
1011
961
925
887
839
791
764
780
843
939
1016
1029
977
916
908
935
911
803
684
658
738
832
857
829
820
855
879
849
788
737
694
631
559
548
626
726
749
698
663
708
776
756
631
499
440
430
395
343
369
524
717
802
752
683
703
768
750
594
407
323
370
461
511
527
575
686
817
908
936
929
925
929
913
860
784
740
747
772
759
706
678
711
752
705
546
369
283
298
327
290
194
111
93
135
196
226
174
7
-250
-498
-620
-568
-414
-287
-257
-273
-214
-7
293
539
604
487
306
188
165
180
171
130
100
104
120
124
122
153
223
294
319
295
263
257
276
300
312
303
261
178
83
38
80
188
292
347
376
422
488
538
537
486
401
288
149
1
-131
-229
-307
-379
-450
-491
-463
-352
-208
-121
-161
-310
-446
-448
-315
-167
-126
-206
-322
-412
-497
-626
-797
-956
-1078
-1188
-1282
-1293
-1134
-804
-402
-47
210
390
541
686
821
906
882
742
560
459
497
609
687
705
726
792
859
853
774
702
695
714
690
611
534
510
528
545
543
524
494
435
354
285
257
263
272
265
265
316
426
551
623
616
562
518
496
440
268
-48
-442
-788
-983
-1001
-893
-731
-550
-334
-53
287
623
868
963
904
734
523
342
236
206
211
195
146
113
157
275
377
363
216
33
-69
-74
-59
-94
-150
-137
-29
83
96
16
-46
1
121
205
198
142
99
73
19
-75
-162
-199
-191
-183
-197
-213
-202
-165
-125
-95
-75
-62
-50
-40
-29
-30
-61
-130
-210
-274
-334
-441
-609
-770
-806
-663
-412
-186
-51
46
197
402
549
519
301
3
-241
-374
-430
-463
-483
-449
-322
-119
84
217
274
304
341
361
316
207
105
82
131
177
172
154
192
287
363
355
300
292
359
421
378
235
103
78
118
101
-40
-234
-357
-370
-356
-421
-581
-763
-896
-957
-967
-953
-925
-898
-887
-887
-882
-864
-845
-835
-838
-869
-962
-1126
-1315
-1459
-1531
-1583
-1674
-1783
-1809
-1668
-1360
-971
-610
-350
-204
-127
-55
22
43
-64
-276
-465
-512
-414
-283
-211
-172
-95
32
118
73
-84
-231
-256
-159
-47
-26
-107
-204
-218
-117
27
98
37
-112
-235
-242
-148
-58
-75
-198
-329
-383
-369
-359
-382
-386
-323
-235
-226
-334
-464
-513
-493
-514
-642
-805
-878
-819
-707
-649
-675
-755
-854
-954
-1029
-1059
-1061
-1076
-1109
-1096
-979
-798
-659
-622
-632
-593
-503
-439
-436
-441
-380
-283
-267
-394
-589
-723
-738
-698
-711
-808
-912
-917
-792
-598
-431
-346
-325
-337
-390
-501
-630
-674
-580
-438
-402
-503
-594
-506
-245
-14
16
-112
-206
-145
-5
46
-61
-237
-359
-392
-413
-490
-595
-642
-575
-421
-264
-168
-128
-107
-84
-61
-43
-37
-63
-147
-278
-382
-382
-282
-190
-200
-267
-254
-99
94
160
71
-20
32
194
306
273
170
134
206
304
354
376
423
505
580
630
686
770
845
858
811
757
743
760
752
687
578
460
372
335
345
385
422
436
430
432
482
591
704
745
683
554
439
393
413
469
531
576
566
475
327
190
96
-4
-194
-476
-733
-832
-736
-522
-294
-92
103
317
556
802
1025
1189
1270
1286
1287
1295
1284
1222
1139
1116
1169
1206
1122
927
761
742
