687
597
576
651
760
797
717
580
489
486
519
508
432
340
289
291
319
350
389
436
470
461
416
380
384
403
375
276
147
54
21
7
-35
-102
-149
-150
-116
-85
-71
-63
-39
1
31
25
-21
-67
-50
60
228
377
459
474
453
434
461
567
733
874
952
1094
1527
2326
3259
3943
4205
4222
4269
4362
4247
3713
2857
1992
1345
912
578
305
147
143
240
331
338
248
92
-73
-211
-320
-433
-568
-692
-740
-687
-585
-542
-643
-878
-1134
-1277
-1270
-1173
-1039
-834
-495
-82
200
196
-23
-214
-229
-163
-206
-382
-493
-357
-6
358
579
667
700
691
594
397
166
-16
-115
-144
-100
24
221
444
629
732
728
607
375
73
-243
-519
-707
-794
-816
-835
-875
-889
-815
-686
-643
-790
-1048
-1212
-1159
-985
-879
-890
-872
-673
-297
110
418
586
598
437
138
-171
-357
-426
-509
-691
-904
-999
-927
-797
-743
-794
-881
-948
-1002
-1070
-1137
-1171
-1187
-1261
-1450
-1711
-1952
-2129
-2281
-2465
-2666
-2816
-2883
-2906
-2928
-2920
-2826
-2674
-2603
-2718
-2961
-3150
-3188
-3167
-3252
-3477
-3693
-3730
-3570
-3343
-3176
-3086
-3012
-2913
-2805
-2714
-2629
-2525
-2421
-2366
-2377
-2400
-2364
-2263
-2160
-2116
-2119
-2104
-2038
-1953
-1890
-1838
-1752
-1620
-1494
-1438
-1464
-1530
-1598
-1660
-1724
-1777
-1795
-1765
-1706
-1643
-1590
-1552
-1530
-1530
-1556
-1595
-1636
-1677
-1725
-1773
-1801
-1785
-1726
-1646
-1573
-1524
-1491
-1458
-1423
-1393
-1373
-1356
-1330
-1296
-1267
-1258
-1266
-1271
-1259
-1230
-1192
-1145
-1087
-1031
-1005
-1023
-1063
-1083
-1071
-1065
-1103
-1179
-1242
-1245
-1192
-1128
-1091
-1082
-1086
-1090
-1088
-1074
-1043
-999
-945
-883
-810
-723
-630
-529
-420
-328
-285
-280
-231
-52
246
564
864
1260
1900
2738
3500
3916
3977
3913
3892
3817
3463
2767
1930
1232
784
502
278
104
38
83
159
185
148
84
5
-122
-332
-598
-850
-1046
-1196
-1342
-1493
-1634
-1774
-1953
-2178
-2389
-2508
-2541
-2580
-2697
-2852
-2942
-2939
-2935
-3038
-3258
-3512
-3737
-3948
-4197
-4479
-4725
-4884
-4976
-5050
-5092
-5018
-4752
-4300
-3770
-3294
-2956
-2763
-2676
-2667
-2747
-2938
-3230
-3548
-3784
-3877
-3859
-3810
-3776
-3736
-3657
-3555
-3493
-3524
-3640
-3784
-3895
-3937
-3900
-3807
-3696
-3599
-3515
-3406
-3241
-3057
-2937
-2930
-2980
-2955
-2758
-2413
-2040
-1753
-1586
-1505
-1486
-1559
-1776
-2127
-2518
-2841
-3060
-3229
-3404
-3553
-3564
-3364
-3018
-2688
-2492
-2415
-2340
-2192
-2007
-1883
-1889
-2003
-2146
-2223
-2183
-2051
-1909
-1842
-1854
-1863
-1780
-1589
-1366
-1191
-1080
-1006
-943
-901
-893
-917
-961
-1011
-1059
-1093
-1100
-1056
-942
-768
-575
-394
-224
-40
138
228
169
2
-157
-243
-313
-448
-624
-699
-571
-286
23
283
529
806
1082
1288
1409
1495
1592
1686
1733
1734
1740
1801
1913
2028
2101
2121
2104
2078
2063
2055
2029
1952
1823
1671
1524
1383
1221
1026
822
660
570
542
544
552
557
547
516
475
443
429
418
397
380
400
466
559
664
787
930
1054
1104
1074
1020
1010
1046
1071
1039
978
952
993
1063
1101
1072
985
864
723
568
410
274
184
150
157
176
187
188
197
230
293
384
503
659
875
1176
1563
1993
2382
2654
2776
2753
2589
2260
1753
1115
453
-129
-586
-932
-1179
-1305
-1293
-1179
-1042
-947
-905
-887
-879
-909
-996
-1124
-1248
-1335
-1367
-1331
-1226
-1090
-1010
-1043
-1153
-1242
-1260
-1277
-1393
-1611
-1811
-1874
-1805
-1706
-1648
-1611
-1544
-1460
-1431
-1505
-1658
-1818
-1932
-1997
-2052
-2136
-2250
-2347
-2380
-2362
-2355
-2413
-2499
-2529
-2463
-2363
-2314
-2329
-2335
-2259
-2102
-1921
-1776
-1700
-1700
-1738
-1748
-1674
-1506
-1294
-1109
-1009
-983
-919
-679
-254
138
226
10
-168
50
606
1049
1039
736
604
871
1295
1519
1473
1373
1386
1475
1548
1626
1769
1920
1950
1859
1807
1922
2120
2213
2146
2045
2028
2058
2020
1905
1838
1910
2058
2114
1989
1782
1678
1758
1921
1993
1918
1800
1772
1834
1847
1708
1484
1338
1327
1327
1183
916
729
779
997
1169
1162
1035
909
817
688
442
77
-375
-870
-1345
-1717
-1949
-2095
-2261
-2473
-2644
-2683
-2619
-2596
-2752
-3105
-3545
-3920
-4149
-4308
-4579
-5060
-5611
-5905
-5741
-5296
-4994
-5084
-5390
-5534
-5381
-5174
-5232
-5601
-6031
-6289
-6366
-6378
-6383
-6356
-6290
-6236
-6208
-6131
-5941
-5698
-5528
-5457
-5390
-5249
-5107
-5094
-5217
-5332
-5338
-5354
-5568
-5938
-6159
-5986
-5544
-5198
-5128
-5126
-4929
-4637
-4655
-5186
-5921
-6355
-6351
-6263
-6457
-6862
-7082
-6897
-6522
-6333
-6457
-6708
-6873
-6959
-7097
-7341
-7594
-7742
-7792
-7848
-7951
-8001
-7859
-7531
-7162
-6855
-6521
-5980
-5224
-4502
-4084
-3970
-3943
-3893
-3995
-4492
-5345
-6224
-6834
-7176
-7436
-7698
-7854
-7798
-7587
-7367
-7198
-7022
-6792
-6576
-6468
-6473
-6478
-6385
-6201
-6031
-5942
-5903
-5831
-5688
-5521
-5399
-5325
-5227
-5039
-4784
-4559
-4431
-4381
-4342
-4275
-4206
-4191
-4261
-4379
-4464
-4454
-4355
-4241
-4185
-4186
-4178
-4122
-4062
-4087
-4234
-4446
-4642
-4792
-4930
-5085
-5233
-5312
-5270
-5112
-4882
-4634
-4378
-4074
-3650
-3086
-2461
-1898
-1473
-1161
-871
-551
-237
-4
116
160
207
315
501
753
1035
1298
1497
1624
1724
1854
2012
2133
2136
2010
1835
1720
1717
1803
1916
2008
2072
2119
2165
2201
2199
2115
1938
1720
1541
1438
1370
1276
1175
1161
1281
1443
1487
1351
1130
957
847
709
490
253
92
20
-36
-118
-186
-192
-172
-225
-412
-689
-944
-1077
-1041
-851
-572
-272
41
424
922
1481
1968
2276
2405
2418
2342
2163
1877
1548
1296
1234
1404
1743
2115
2406
2621
2854
3123
3271
3072
2492
1749
1101
607
168
-254
-571
-753
-955
-1317
-1649
-1522
-728
397
1223
1462
1443
1718
2456
3271
3635
3401
2892
2534
2483
2595
2680
2689
2656
2519
2097
1265
128
-1059
-2130
-3154
-4289
-5548
-6716
-7516
-7862
-7917
-7940
-8079
-8308
-8519
-8631
-8628
-8509
-8262
-7905
-7504
-7153
-6883
-6644
-6376
-6097
-5878
-5750
-5660
-5529
-5330
-5079
-4768
-4365
-3901
-3503
-3282
-3220
-3182
-3074
-2934
-2838
-2762
-2567
-2138
-1494
-728
102
993
1901
2690
3227
3483
3518
3368
3007
2433
1753
1140
700
418
244
171
227
400
615
791
912
1028
1188
1394
1601
1761
1862
1941
2034
2135
2190
2156
2053
1942
1884
1901
1988
2127
2290
2431
2535
2633
2774
2949
3082
3108
3071
3089
3235
3445
3563
3482
3241
2973
2774
2620
2418
2114
1760
1462
1282
1187
1080
873
512
-36
-782
-1689
-2670
-3649
-4613
-5595
-6581
-7487
-8218
-8796
-9356
-10022
-10814
-11650
-12466
-13273
-14122
-15012
-15873
-16615
-17189
-17585
-17818
-17929
-17962
-17924
-17747
-17329
-16641
-15791
-14953
-14211
-13508
-12748
-11959
-11301
-10919
-10798
-10778
-10711
-10556
-10350
-10125
-9859
-9503
-9026
-8434
-7778
-7155
-6650
-6270
-5937
-5564
-5156
-4816
-4627
-4547
-4428
-4153
-3728
-3249
-2782
-2309
-1774
-1158
-510
107
670
1201
1724
2222
2656
3012
3333
3690
4117
4569
4973
5323
5689
6138
6639
7097
7460
7772
8114
8482
8789
8980
9106
9258
9451
9621
9726
9827
10013
10267
10462
10479
10333
10144
10009
9926
9823
9665
9495
9406
9464
9653
9881
10041
10091
10075
10060
10063
10038
9950
9826
9741
9728
9743
9730
9689
9661
9647
9578
9389
9100
8788
8486
8172
7864
7665
7667
7816
7935
7911
7809
7759
7756
7652
7344
6904
6503
6222
6023
5864
5788
5840
5970
6056
6038
5965
5896
5806
5615
5306
4977
4727
4551
4368
4132
3886
3698
3574
3443
3243
3029
2924
3002
3191
3364
3509
3760
4207
4708
4948
4740
4227
3735
3428
3167
2722
2063
1391
910
652
517
415
325
237
126
-6
-113
-173
-233
-365
-584
-833
-1052
-1229
-1376
-1485
-1538
-1563
-1613
-1711
-1822
-1896
-1923
-1921
-1911
-1891
-1850
-1783
-1701
-1634
-1609
-1627
-1660
-1682
-1719
-1821
-2000
-2206
-2379
-2527
-2704
-2910
-3061
-3080
-3003
-2954
-3020
-3164
-3291
-3348
-3358
-3363
-3377
-3395
-3416
-3437
-3422
-3340
-3207
-3082
-3015
-2982
-2925
-2818
-2692
-2587
-2513
-2458
-2422
-2423
-2454
-2471
-2426
-2330
-2243
-2206
-2192
-2146
-2050
-1940
-1857
-1799
-1732
-1641
-1556
-1521
-1549
-1605
-1629
-1588
-1506
-1448
-1464
-1532
-1566
-1504
-1372
-1264
-1246
-1283
-1284
-1198
-1062
-957
-925
-947
-983
-1020
-1069
-1139
-1211
-1256
-1273
-1296
-1362
-1464
-1553
-1577
-1542
-1497
-1488
-1519
-1554
-1560
-1528
-1472
-1414
-1371
-1346
-1324
-1292
-1252
-1223
-1214
-1211
-1194
-1156
-1109
-1067
-1032
-1000
-966
-922
-852
-753
-646
-564
-513
-472
-420
-364
-329
-334
-374
-424
-454
-447
-408
-361
-327
-300
-249
-167
-103
-122
-238
-388
-480
-471
-390
-297
-236
-209
-190
-149
-80
-29
-84
-313
-689
-1094
-1423
-1674
-1928
-2249
-2593
-2848
-2965
-3016
-3123
-3318
-3517
-3619
-3626
-3627
-3668
-3685
-3579
-3356
-3140
-3044
-3055
-3086
-3100
-3151
-3279
-3423
-3474
-3382
-3189
-2946
-2637
-2215
-1696
-1172
-744
-446
-261
-163
-118
-66
58
249
425
543
700
1046
1573
2031
2114
1749
1159
618
183
-306
-979
-1760
-2449
-2918
-3177
-3292
-3293
-3217
-3146
-3165
-3273
-3395
-3487
-3592
-3768
-3991
-4171
-4257
-4281
-4298
-4291
-4202
-4020
-3801
-3614
-3469
-3326
-3155
-2954
-2738
-2524
-2320
-2126
-1920
-1682
-1429
-1230
-1150
-1170
-1203
-1196
-1204
-1319
-1526
-1682
-1642
-1407
-1124
-915
-777
-621
-414
-221
-115
-98
-125
-166
-227
-288
-279
-149
66
269
413
556
781
1085
1372
1565
1683
1825
2045
2306
2519
2638
2692
2742
2816
2890
2917
2896
2879
2920
3011
3091
3117
3111
3128
3178
3218
3210
3154
3057
2890
2625
2317
2103
2083
2213
2362
2467
2617
2944
3457
4008
4417
4628
4700
4700
4626
4436
4129
3772
3448
3195
2992
2821
2700
2668
2744
2891
3039
3131
3158
3143
3129
3157
3249
3392
3534
3609
3608
3594
3636
3723
3761
3672
3481
3283
3131
2984
2784
2558
2400
2349
2329
2232
2040
1830
1674
1558
1426
1266
1111
986
875
761
664
612
589
545
464
372
285
187
67
-32
-41
33
84
14
-147
-262
-242
-139
-74
-101
-165
-191
-187
-208
-255
-274
-241
-237
-360
-596
-805
-872
-842
-857
-988
-1149
-1202
-1120
-1003
-948
-947
-920
-832
-748
-770
-930
-1154
-1329
-1401
-1420
-1491
-1665
-1869
-1961
-1869
-1669
-1512
-1485
-1536
-1544
-1436
-1244
-1041
-883
-794
-761
-713
-553
-244
151
538
921
1425
2153
3023
3783
4247
4460
4600
4747
4773
4485
3838
3012
2284
1851
1732
1778
1791
1673
1527
1576
1943
2505
2972
3123
2996
2802
2714
2742
2797
2807
2755
2645
2492
2345
2269
2289
2365
2412
2353
2164
1912
1697
1595
1583
1559
1443
1284
1223
1292
1328
1139
757
433
360
444
428
217
-20
-87
-24
-48
-290
-653
-946
-1123
-1280
-1479
-1662
-1730
-1661
-1536
-1458
-1492
-1643
-1862
-2073
-2243
-2409
-2632
-2881
-3032
-3024
-2940
-2904
-2908
-2797
-2491
-2154
-2054
-2250
-2539
-2725
-2887
-3273
-3956
-4705
-5239
-5524
-5753
-6048
-6296
-6305
-6053
-5712
-5457
-5341
-5351
-5487
-5731
-6002
-6179
-6234
-6265
-6363
-6499
-6528
-6350
-6042
-5788
-5723
-5832
-5996
-6106
-6161
-6228
-6345
-6479
-6578
-6629
-6658
-6653
-6538
-6271
-5906
-5567
-5319
-5122
-4918
-4758
-4774
-5026
-5415
-5771
-6011
-6189
-6396
-6636
-6840
-6946
-6970
-6956
-6928
-6905
-6924
-7029
-7204
-7357
-7402
-7347
-7267
-7199
-7106
-6959
-6814
-6743
-6722
-6647
-6485
-6363
-6410
-6575
-6644
-6496
-6277
-6246
-6471
-6742
-6813
-6663
-6481
-6419
-6435
-6398
-6249
-6032
-5824
-5665
-5589
-5630
-5770
-5920
-5989
-5988
-6026
-6195
-6454
-6667
-6735
-6683
-6638
-6701
-6871
-7046
-7132
-7139
-7167
-7296
-7493
-7660
-7749
-7812
-7921
-8065
-8138
-8073
-7913
-7754
-7621
-7470
-7294
-7183
-7209
-7313
-7337
-7218
-7069
-7040
-7114
-7086
-6787
-6279
-5791
-5476
-5263
-4973
-4551
-4114
-3786
-3527
-3173
-2636
-1996
-1369
-718
122
1209
2328
3161
3606
3853
4115
4333
4254
3789
3197
2861
2906
3110
3195
3133
3113
3284
3579
3810
3854
3741
3587
3498
3529
3683
3926
4195
4448
4680
4903
5105
5253
5321
5318
5276
5234
5214
5232
5309
5443
5598
5729
5820
5898
6007
6149
6285
6380
6441
6515
6624
6718
6725
6614
6421
6220
6072
5998
5976
5978
5982
5992
6020
6051
6014
5840
5529
5168
4853
4597
4358
4123
3925
3798
3709
3602
3479
3408
3431
3486
3483
3399
3323
3375
3599
3947
4308
4574
4689
4673
4592
4488
4347
4125
3829
3523
3247
2970
2642
2260
1865
1458
981
420
-118
-483
-624
-644
-666
-706
-718
-705
-755
-946
-1221
-1439
-1455
-1181
-593
237
1118
1800
2115
2075
1782
1237
306
-1078
-2695
-4085
-4863
-4997
-4760
-4423
-4024
-3466
-2777
-2204
-2015
-2250
-2691
-3089
-3366
-3609
-3886
-4149
-4298
-4293
-4203
-4126
-4120
-4198
-4332
-4466
-4523
-4446
-4247
-4000
-3805
-3726
-3771
-3905
-4068
-4229
-4411
-4645
-4881
-4969
-4789
-4412
-4082
-4007
-4171
-4380
-4497
-4592
-4840
-5309
-5884
-6397
-6766
-7000
-7115
-7107
-7003
-6853
-6673
-6411
-6022
-5566
-5196
-5038
-5081
-5217
-5365
-5517
-5677
-5800
-5824
-5726
-5536
-5276
-4924
-4465
-3950
-3486
-3129
-2846
-2574
-2322
-2174
-2191
-2318
-2418
-2391
-2248
-2086
-1976
-1911
-1815
-1616
-1305
-938
-592
-303
-42
254
624
1041
1441
1788
2117
2508
3006
3578
4178
4814
5537
6365
7229
8046
8834
9687
10645
11603
12387
12902
13178
13285
13241
12998
12509
11815
11068
10453
10022
9539
8598
6982
4954
3053
1522
-45
-2377
-5806
-9904
-13868
-17201
-19993
-22624
-25261
-27676
-29477
-30428
-30564
-30138
-29488
-28905
-28548
-28382
-28234
-27929
-27416
-26755
-26027
-25217
-24221
-22925
-21291
-19372
-17283
-15157
-13122
-11248
-9522
-7882
-6271
-4683
-3134
-1639
-228
1015
2007
2755
3384
4043
4788
5555
6251
6842
7361
7833
8238
8527
8665
8648
8534
8421
8392
8458
8564
8675
8830
9095
9462
9827
10084
10247
10424
10684
10972
11176
11257
11275
11302
11338
11322
11210
11016
10784
10540
10275
9962
9582
9139
8652
8131
7569
6959
6324
5713
5157
4631
4079
3480
2875
2315
1780
1193
495
-295
-1115
-1910
-2648
-3293
-3809
-4204
-4542
-4866
-5114
-5172
-5014
-4778
-4637
-4629
-4642
-4573
-4469
-4446
-4498
-4458
-4187
-3742
-3300
-2923
-2491
-1875
-1135
-475
-24
281
568
873
1127
1291
1419
1589
1813
2045
2250
2436
2616
2771
2874
2928
2954
2960
2942
2910
2907
2972
3092
3198
3216
3151
3096
3142
3279
3399
3405
3290
3130
2979
2830
2648
2438
2247
2113
2036
2014
2070
2214
2395
2525
2561
2543
2541
2569
2589
2585
2600
2687
2847
3022
3174
3330
3522
3718
3820
3767
3612
2589
2518
2620
2869
3171
3452
3716
4022
4404
4804
5100
5213
5201
5224
5395
5670
5949
6222
6590
7096
7597
7870
7824
7578
7287
6934
6369
5533
4583
3776
3229
2857
2515
2169
1902
1777
1737
1651
1437
1142
891
754
682
574
387
199
138
253
466
645
710
684
645
642
663
666
628
572
525
482
411
298
189
139
151
169
146
93
56
60
72
29
-98
-279
-449
-567
-655
-771
-945
-1128
-1224
-1183
-1060
-955
-933
-956
-939
-849
-732
-658
-639
-622
-560
-473
-413
-387
-326
-165
68
264
345
354
408
566
761
863
816
675
534
433
344
227
71
-93
-224
-293
-305
-292
-290
-299
-283
-226
-189
-281
-545
-902
-1215
-1433
-1641
-1948
-2344
-2671
-2762
-2600
-2333
-2129
-2038
-1984
-1872
-1689
-1505
-1408
-1422
-1500
-1558
-1537
-1441
-1324
-1237
-1182
-1130
-1061
-991
-956
-974
-1017
-1032
-1014
-1008
-1049
-1121
-1171
-1170
-1133
-1098
-1090
-1115
-1143
-1091
-854
-427
15
222
114
-116
-200
-101
-54
-274
-677
-957
-905
-598
-243
56
342
662
973
1212
1388
1543
1670
1715
1664
1586
1564
1611
1688
1758
1809
1826
1777
1662
1527
1427
1365
1288
1156
1003
884
794
664
444
167
-87
-277
-418
-524
-572
-565
-602
-808
-1195
-1620
-1935
-2138
-2363
-2701
-3089
-3379
-3497
-3495
-3470
-3463
-3452
-3427
-3428
-3502
-3615
-3665
-3572
-3373
-3214
-3199
-3265
-3245
-3051
-2762
-2526
-2376
-2207
-1909
-1451
-830
-10
1003
2048
2879
3372
3641
3869
4084
4128
3876
3411
2947
2621
2406
2218
2031
1869
1736
1581
1350
1032
656
259
-131
-494
-817
-1088
-1300
-1431
-1464
-1412
-1327
-1259
-1218
-1177
-1101
-978
-821
-673
-583
-564
-568
-525
-415
-304
-282
-354
-432
-437
-389
-369
-405
-427
-367
-253
-179
-195
-261
-322
-387
-496
-637
-738
-749
-686
-585
-431
-173
185
536
748
782
714
637
571
473
307
105
-53
-82
56
336
696
1058
1367
1613
1802
1907
1869
1641
1274
898
621
446
292
106
-56
-83
69
328
560
674
668
608
557
545
571
606
636
688
834
1122
1514
1916
2249
2495
2651
2670
2483
2084
1570
1083
696
368
22
-356
-685
-865
-865
-775
-741
-842
-1024
-1183
-1292
-1427
-1657
-1924
-2086
-2079
-1993
-1966
-2013
-2019
-1884
-1654
-1466
-1404
-1423
-1427
-1388
-1351
-1353
-1378
-1379
-1351
-1333
-1352
-1386
-1377
-1290
-1156
-1042
-982
-947
-884
-771
-631
-499
-386
-281
-192
-141
-135
-155
-185
-226
-297
-393
-468
-463
-363
-221
-103
-36
23
139
339
559
675
613
434
300
311
399
408
280
142
171
395
664
835
922
1055
1303
1596
1808
1888
1892
1917
2003
2138
2277
2386
2461
2550
2711
2943
3191
3396
3537
3636
3719
3816
3962
4182
4456
4729
4972
5238
5595
6008
6354
6567
6732
7001
7413
7867
8284
8754
9427
10277
11041
11464
11562
11568
11616
11572
11200
10488
9710
9169
8913
8760
8552
8300
8108
8014
7959
7866
7716
7521
7280
6975
6616
6255
5940
5652
5327
4897
4329
3672
3036
2514
2121
1782
1412
1010
640
341
70
-257
-670
-1128
-1589
-2062
-2568
-3087
-3553
-3929
-4266
-4659
-5134
-5609
-5980
-6247
-6519
-6894
-7356
-7795
-8143
-8457
-8853
-9358
-9852
-10195
-10402
-10632
-11007
-11441
-11700
-11645
-11384
-11175
-11175
-11312
-11393
-11332
-11233
-11263
-11468
-11727
-11875
-11859
-11763
-11706
-11705
-11659
-11475
-11200
-10992
-10983
-11160
-11382
-11521
-11565
-11600
-11697
-11838
-11929
-11886
-11709
-11471
-11256
-11090
-10938
-10742
-10491
-10260
-10131
-10106
-10079
-9953
-9738
-9554
-9497
-9525
-9509
-9360
-9103
-8809
-8506
-8195
-7899
-7680
-7556
-7446
-7222
-6856
-6485
-6281
-6252
-6194
-5875
-5299
-4718
-4364
-4208
-4006
-3609
-3149
-2865
-2788
-2694
-2382
-1916
-1545
-1391
-1301
-1030
-553
-73
219
327
409
582
822
1047
1232
1424
1643
1862
2049
2225
2423
2649
2882
3107
3342
3612
3887
4109
4254
4359
4474
4591
4649
4612
4505
4391
4312
4269
4236
4186
4100
3994
3911
3880
3870
3789
3593
3345
3159
3072
3014
2891
2683
2460
2288
2164
2063
1962
1840
1666
1440
1235
1134
1115
1045
822
510
278
192
138
-21
-245
-349
-239
-64
-59
-273
-507
-557
-453
-403
-541
-765
-873
-790
-630
-537
-536
-536
-459
-333
-265
-304
-383
-363
-174
116
389
644
1043
1718
2564
3276
3617
3622
3505
3373
3110
2548
1699
767
-25
-594
-977
-1224
-1348
-1345
-1217
-987
-706
-453
-304
-282
-355
-477
-618
-762
-889
-976
-1026
-1047
-1030
-942
-771
-557
-346
-157
35
253
487
698
839
882
842
792
823
950
1074
1074
946
816
809
894
906
730
437
181
19
-145
-419
-764
-1034
-1141
-1143
-1166
-1261
-1375
-1429
-1402
-1349
-1355
-1460
-1645
-1831
-1929
-1903
-1789
-1645
-1501
-1357
-1222
-1096
-981
-898
-935
-1207
-1738
-2397
-2989
-3405
-3663
-3812
-3841
-3698
-3375
-2942
-2468
-1990
-1533
-1163
-975
-1012
-1211
-1422
-1468
-1219
-639
215
1255
2438
3743
5034
6005
6290
5688
4279
2323
81
-2268
-4522
-6401
-7634
-8137
-8046
-7553
-6773
-5781
-4756
-3979
-3647
-3709
-3955
-4219
-4489
-4764
-4928
-4830
-4475
-4055
-3754
-3586
-3447
-3308
-3270
-3408
-3649
-3842
-3906
-3867
-3774
-3631
-3443
-3272
-3205
-3242
-3281
-3230
-3109
-3039
-3086
-3187
-3231
-3189
-3140
-3159
-3195
-3106
-2831
-2481
-2265
-2278
-2428
-2537
-2523
-2471
-2539
-2792
-3137
-3414
-3523
-3501
-3485
-3581
-3784
-3988
-4064
-3945
-3657
-3294
-2968
-2743
-2593
-2442
-2237
-2002
-1804
-1675
-1578
-1446
-1232
-918
-494
37
625
1185
1669
2115
2598
3144
3703
4211
4675
5171
5766
6447
7150
7833
8508
9210
9939
10649
11297
11891
12503
13190
13940
14673
15317
15882
16448
17064
17679
18192
18586
18990
19522
20146
20735
21259
21852
22720
23809
24423
25703
26860
27834
28141
27818
27170
25420
23538
20575
16572
10869
2908
-7224
-16167
-21887
-22224
-16812
-6640
5227
13589
13777
5787
-4752
-10924
-10080
-4926
447
3581
3777
918
-3409
-5264
-1454
6093
11260
7771
-462
-8839
-12586
-13322
-12583
-7928
4770
21808
31758
28018
15270
6033
9237
19218
22227
12471
-3779
-15001
-14070
-5959
1501
4259
3826
2402
1824
761
-151
-48
1225
1881
717
-1403
-1975
-1523
-188
87
1000
1928
2514
1533
-1587
-3143
-800
1815
453
-5925
-11493
-9349
869
9847
10436
3383
-3046
-2557
3761
7797
5596
-1858
-10478
-17144
-18892
-14218
-1156
16271
28972
28896
16628
1409
-6001
-3304
4265
7236
2647
-5180
-9484
-6347
2039
11665
16528
13992
4841
-7219
-17074
-20450
-16354
-7286
2103
7654
7459
2315
-4975
-11057
-13553
-11978
-7654
-2779
739
2019
1241
-747
-2900
-4317
-4497
-3506
-1926
-505
232
175
-447
-1249
-1831
-1920
-1516
-922
-532
-507
-672
-743
-636
-508
-533
-723
-965
-1184
-1369
-1482
-1442
-1241
-1038
-1025
-1216
-1395
-1327
-1014
-704
-644
-855
-1142
-1300
-1304
-1275
-1320
-1429
-1528
-1584
-1629
-1666
-1649
-1553
-1468
-1547
-1840
-2221
-2496
-2581
-2552
-2543
-2605
-2680
-2675
-2558
-2379
-2233
-2186
-2216
-2235
-2174
-2045
-1904
-1760
-1547
-1223
-841
-504
-226
87
509
973
1334
1526
1628
1756
1924
2059
2126
2184
2300
2462
2580
2599
2576
2623
2792
3010
3153
3188
3237
3464
3895
4355
4605
4565
4368
4184
4026
3735
3187
2454
1770
1309
1053
865
664
508
492
612
745
773
694
611
601
637
631
554
476
488
597
715
757
682
705
744
780
815
865
926
968
986
1015
1093
1200
1280
1305
1318
1374
1466
1523
1493
1408
1348
1347
1375
1391
1409
1473
1595
1737
1859
1965
2084
2222
2346
2426
2465
2489
2514
2544
2578
2616
2657
2696
2739
2806
2909
3027
3127
3181
3186
3143
3051
2913
2750
2585
2427
2265
2102
1955
1842
1766
1709
1655
1590
1493
1329
1047
602
2
-654
-1190
-1445
-1395
-1170
-949
-801
-645
-384
-54
160
71
-359
-996
-1643
-2171
-2562
-2879
-3183
-3488
-3751
-3918
-3982
-4007
-4085
-4255
-4474
-4667
-4802
-4901
-4983
-5031
-5009
-4932
-4863
-4848
-4863
-4829
-4692
-4454
-4154
-3817
-3451
-3081
-2750
-2491
-2300
-2128
-1915
-1639
-1322
-1014
-738
-466
-143
243
621
894
1031
1106
1216
1374
1502
1534
1501
1506
1601
1742
1840
1866
1871
1897
1905
1815
1601
1315
1020
712
351
-60
-462
-797
-1061
-1275
-1436
-1555
-1728
-2104
-2737
-3507
-4222
-4812
-5375
-6008
-6646
-7114
-7307
-7284
-7181
-7064
-6922
-6744
-6576
-6449
-6320
-6119
-5839
-5550
-5285
-4968
-4482
-3809
-3074
-2439
-1946
-1505
-1010
-452
77
480
738
907
1058
1234
1424
1570
1612
1550
1484
1511
1613
1676
1649
1624
1721
1918
2081
2183
2379
2809
3356
3700
3661
3366
3052
2726
2170
1248
131
-869
-1605
-2195
-2802
-3425
-3925
-4210
-4321
-4376
-4443
-4517
-4559
-4537
-4451
-4318
-4148
-3928
-3633
-3269
-2904
-2620
-2420
-2228
-1963
-1621
-1278
-1010
-833
-699
-552
-384
-237
-162
-158
-181
-177
-124
-9
178
436
709
924
1059
1171
1333
1540
1712
1793
1826
1898
2029
2157
2222
2248
2304
2427
2590
2745
2879
3011
3152
3305
3476
3677
3889
4047
4094
4038
3951
3894
3860
3786
3631
3422
3231
3096
2987
2857
2695
2540
2436
2375
2318
2247
2198
2207
2259
2294
2266
2193
2121
2058
1956
1768
1519
1283
1111
991
873
728
565
402
245
83
-91
-281
-486
-701
-907
-1075
-1196
-1293
-1396
-1520
-1659
-1799
-1938
-2092
-2275
-2485
-2711
-2941
-3159
-3350
-3497
-3597
-3670
-3754
-3871
-4014
-4148
-4244
-4299
-4332
-4362
-4396
-4434
-4472
-4514
-4568
-4640
-4717
-4783
-4831
-4880
-4958
-5069
-5185
-5275
-5336
-5405
-5503
-5623
-5736
-5823
-5890
-5938
-5955
-5940
-5915
-5923
-5971
-6024
-6032
-5992
-5949
-5956
-6009
-6038
-5996
-5897
-5811
-5783
-5793
-5789
-5753
-5722
-5743
-5816
-5882
-5874
-5780
-5659
-5588
-5592
-5620
-5588
-5471
-5333
-5260
-5267
-5276
-5210
-5070
-4936
-4901
-5019
-5245
-5401
-5257
-4746
-4102
-3731
-3818
-4118
-4218
-4002
-3791
-3956
-4473
-4927
-4972
-4629
-4138
-3652
-3137
-2566
-2048
-1755
-1728
-1863
-2050
-2222
-2342
-2332
-2099
-1621
-948
-132
803
1794
2650
3118
3050
2566
1975
1513
1169
775
291
-67
-52
312
738
997
1154
1450
1948
2415
2582
2453
2310
2377
2587
2698
2628
2567
2785
3317
3915
4265
4275
4137
4144
4426
4819
5011
4830
4440
4217
4407
4874
5249
5295
5138
5145
5593
6425
7287
7762
7656
7129
6585
6293
6126
5700
4805
3717
2978
2882
3191
3428
3392
3330
3567
4093
4518
4493
4093
3723
3681
3845
3851
3527
3116
3004
3261
3557
3535
3209
2926
2948
3182
3366
3420
3495
3677
3792
3611
3187
2853
2835
2958
2855
2424
1963
1809
1939
1990
1701
1206
850
807
925
964
872
784
822
949
1045
1033
961
929
988
1069
1052
908
785
910
1339
1815
1967
1674
1225
1034
1219
1496
1537
1360
1310
1628
2142
2459
2425
2284
2370
2676
2864
2682
2271
2020
2142
2462
2664
2637
2531
2506
2546
2510
2329
2081
1885
1783
1736
1707
1689
1667
1603
1462
1248
998
748
494
215
-108
-445
-737
-921
-991
-1059
-1277
-1662
-2027
-2127
-1932
-1684
-1637
-1762
-1773
-1517
-1189
-1149
-1516
-2020
-2320
-2381
-2452
-2728
-3116
-3353
-3290
-3009
-2679
-2424
-2314
-2404
-2690
-3058
-3350
-3499
-3587
-3722
-3920
-4075
-4072
-3889
-3573
-3211
-2901
-2716
-2670
-2714
-2765
-2762
-2686
-2567
-2432
-2294
-2139
-1923
-1637
-1313
-1018
-822
-749
-745
-718
-619
-475
-350
-260
-143
61
350
681
1042
1455
1891
2233
2378
2365
2335
2333
2221
1834
1212
606
229
57
-90
-294
-467
-505
-450
-441
-516
-581
-556
-508
-571
-768
-962
-991
-847
-686
-683
-875
-1145
-1348
-1443
-1527
-1739
-2128
-2592
-2972
-3211
-3408
-3712
-4134
-4493
-4558
-4254
-3727
-3193
-2750
-2344
-1894
-1428
-1062
-897
-947
-1150
-1430
-1720
-1954
-2072
-2064
-1994
-1952
-1976
-2019
-2004
-1930
-1883
-1929
-2040
-2111
-2071
-1939
-1799
-1707
-1645
-1571
-1487
-1451
-1522
-1720
-2009
-2315
-2539
-2610
-2546
-2453
-2424
-2441
-2379
-2145
-1817
-1599
-1621
-1819
-2023
-2139
-2221
-2352
-2495
-2520
-2328
-1951
-1498
-1055
-667
-378
-263
-369
-651
-1003
-1365
-1752
-2179
-2566
-2768
-2712
-2491
-2301
-2275
-2396
-2556
-2684
-2801
-2966
-3179
-3369
-3458
-3415
-3260
-3033
-2785
-2604
-2599
-2815
-3169
-3518
-3775
-3940
-4013
-3899
-3501
-2909
-2436
-2395
-2847
-3574
-4332
-5057
-5825
-6651
-7360
-7709
-7585
-7075
-6369
-5622
-4912
-4280
-3795
-3531
-3493
-3596
-3717
-3799
-3871
-3969
-4044
-3991
-3749
-3379
-3028
-2816
-2758
-2776
-2763
-2643
-2434
-2249
-2231
-2404
-2611
-2647
-2452
-2182
-2058
-2150
-2335
-2450
-2446
-2406
-2433
-2586
-2873
-3261
-3663
-3951
-4053
-4041
-4084
-4277
-4533
-4665
-4587
-4384
-4198
-4068
-3929
-3718
-3460
-3239
-3091
-2984
-2879
-2780
-2706
-2637
-2511
-2273
-1906
-1441
-924
-403
87
523
906
1239
1523
1773
2034
2369
2792
3233
3628
4031
4597
5425
6409
7289
7877
8203
8439
8684
8867
8854
8634
8357
8217
8298
8533
8795
9003
9154
9297
9474
9690
9926
10171
10428
10719
11079
11543
12113
12743
13369
13939
14445
14924
15408
15893
16334
16676
16906
17019
16935
15996
15404
13995
11332
7161
2005
-1518
-4616
-8961
-14977
-19952
-21507
-21686
-25010
-31656
30567
-28204
-12959
1640
8307
7856
5313
2729
-1267
-6213
-8423
-6438
-4865
-9572
-19588
-26655
-23685
-11980
878
8748
11068
10208
9101
7776
8158
11060
15618
20725
23529
24331
23724
22778
22483
23218
24595
25836
26364
26118
25398
24530
23684
22933
22342
21930
21584
21088
20289
19233
18134
17215
16573
16141
15760
15291
14706
14083
13516
12999
12423
11701
10881
10101
9419
8727
7853
6760
5598
4561
3689
2858
1919
833
-315
-1419
-2439
-3402
-4358
-5330
-6303
-7255
-8182
-9086
-9964
-10793
-11548
-12233
-12885
-13528
-14135
-14650
-15034
-15294
-15466
-15575
-15619
-15577
-15431
-15169
-14816
-14430
-14064
-13733
-13401
-13018
-12569
-12065
-11539
-11034
-10574
-10153
-9699
-9125
-8438
-7779
-7322
-7114
-7030
-6914
-6742
-6622
-6634
-6716
-6715
-6553
-6289
-6035
-5817
-5570
-5238
-4865
-4558
-4395
-4349
-4317
-4214
-4044
-3876
-3762
-3671
-3537
-3341
-3144
-3018
-2967
-2932
-2898
-2928
-3075
-3299
-3483
-3566
-3598
-3668
-3805
-3979
-4173
-4397
-4653
-4909
-5145
-5386
-5652
-5883
-5982
-5924
-5791
-5670
-5544
-5329
-5006
-4674
-4460
-4383
-4338
-4213
-3984
-3705
-3432
-3136
-2700
-2016
-1114
-202
479
856
1085
1358
1674
1835
1692
1348
1078
1069
1269
1513
1724
1962
2292
2683
3042
3320
3544
3757
3950
4101
4228
4394
4625
4885
5110
5275
5408
5535
5639
5699
5740
5830
6001
6210
6381
6494
6593
6717
6848
6934
6952
6932
6908
6883
6841
6788
6747
6729
6718
6695
6658
6611
6545
6443
6302
6144
5986
5818
5622
5408
5211
5055
4929
4794
4633
4462
4307
4174
4056
3945
3842
3742
3636
3524
3416
3324
3239
3132
2984
2808
2632
2474
2328
2176
2016
1867
1751
1673
1615
1538
1400
1173
864
523
228
42
-22
-8
31
83
190
387
653
902
1049
1068
1002
922
881
889
932
989
1045
1099
1157
1212
1254
1276
1283
1279
1266
1244
1242
1293
1407
1553
1681
1764
1810
1832
1826
1792
1751
1735
1757
1798
1833
1862
1902
1958
2024
2094
2169
2237
2265
2233
2165
2113
2093
2070
2006
1936
1958
2129
2403
2683
2925
3168
3458
3763
4001
4139
4227
4350
4539
4772
5028
5318
5659
6027
6375
6667
6914
7164
7453
7785
8124
8421
8657
8857
9065
9277
9419
9421
9301
9157
9063
9014
8941
8816
8689
8628
8630
8609
8470
8192
7848
7532
7265
6966
6543
6010
5518
5220
5116
5027
4764
4292
3734
3209
2714
2151
1454
640
-224
-1067
-1819
-2406
-2800
-3076
-3359
-3695
-4005
-4182
-4230
-4259
-4359
-4521
-4668
-4732
-4657
-4395
-3946
-3457
-3155
-3164
-3382
-3605
-3770
-4023
-4528
-5231
-5881
-6266
-6382
-6341
-6198
-5934
-5562
-5184
-4888
-4658
-4428
-4213
-4131
-4239
-4412
-4428
-4178
-3756
-3346
-3050
-2857
-2734
-2686
-2705
-2739
-2737
-2727
-2776
-2857
-2811
-2488
-1921
-1323
-902
-692
-582
-476
-384
-374
-472
-657
-894
-1159
-1421
-1635
-1778
-1876
-1998
-2194
-2452
-2712
-2914
-3034
-3111
-3212
-3392
-3655
-3956
-4246
-4522
-4819
-5152
-5483
-5742
-5901
-5989
-6054
-6111
-6148
-6165
-6190
-6263
-6397
-6579
-6791
-7026
-7275
-7510
-7707
-7850
-7947
-8012
-8045
-8044
-8010
-7961
-7913
-7870
-7816
-7752
-7713
-7743
-7840
-7929
-7923
-7819
-7704
-7655
-7644
-7563
-7356
-7095
-6905
-6823
-6770
-6651
-6470
-6311
-6228
-6196
-6167
-6132
-6108
-6082
-6012
-5878
-5724
-5611
-5545
-5477
-5358
-5196
-5034
-4899
-4774
-4628
-4452
-4258
-4064
-3875
-3682
-3467
-3221
-2950
-2677
-2411
-2143
-1866
-1605
-1418
-1334
-1304
-1240
-1099
-936
-823
-752
-627
-373
-35
259
431
516
606
729
840
883
864
832
821
829
847
883
941
996
1015
989
944
911
896
882
855
821
789
768
760
752
725
667
583
506
469
467
462
418
346
284
262
268
261
219
165
140
158
190
197
167
126
112
134
167
184
171
145
126
117
105
68
5
-62
-91
-59
12
65
62
27
23
72
124
120
75
87
229
470
740
1046
1481
2079
2704
3130
3258
3189
3072
2913
2578
1979
1221
516
-1
-357
-642
-881
-1017
-1023
-952
-896
-896
-922
-928
-913
-915
-969
-1060
-1155
-1235
-1309
-1382
-1430
-1443
-1459
-1542
-1705
-1866
-1930
-1913
-1932
-2072
-2263
-2348
-2286
-2202
-2239
-2358
-2373
-2190
-1943
-1850
-1963
-2105
-2097
-1976
-1938
-2071
-2244
-2279
-2182
-2112
-2145
-2161
-2023
-1800
-1715
-1879
-2129
-2217
-2088
-1923
-1890
-1966
-2011
-1939
-1790
-1634
-1485
-1345
-1261
-1279
-1363
-1445
-1501
-1568
-1660
-1709
-1645
-1482
-1309
-1178
-1054
-880
-667
-486
-381
-356
-399
-475
-508
-429
-264
-138
-145
-232
-248
-112
107
287
394
485
606
719
787
852
987
1187
1345
1370
1329
1407
1725
2195
2556
2613
2401
2154
2081
2163
2170
1896
1379
903
732
854
1008
991
878
897
1132
1416
1539
1509
1500
1596
1661
1525
1220
951
863
884
845
688
484
308
198
200
366
658
893
908
733
572
584
694
676
421
43
-233
-312
-291
-328
-469
-606
-609
-486
-412
-561
-926
-1342
-1656
-1894
-2188
-2583
-2944
-3096
-3015
-2854
-2767
-2779
-2802
-2786
-2789
-2900
-3112
-3333
-3482
-3558
-3619
-3695
-3764
-3782
-3711
-3563
-3398
-3281
-3238
-3236
-3215
-3151
-3088
-3083
-3112
-3076
-2911
-2674
-2497
-2433
-2385
-2231
-1983
-1805
-1834
-2029
-2212
-2265
-2251
-2304
-2447
-2547
-2465
-2219
-1952
-1740
-1468
-976
-296
310
579
511
344
276
216
-85
-738
-1558
-2254
-2693
-2960
-3180
-3364
-3465
-3503
-3572
-3719
-3867
-3917
-3878
-3874
-4008
-4250
-4464
-4559
-4560
-4561
-4624
-4710
-4730
-4626
-4417
-4157
-3891
-3626
-3361
-3118
-2946
-2881
-2900
-2938
-2936
-2901
-2881
-2905
-2924
-2861
-2698
-2510
-2386
-2342
-2324
-2278
-2196
-2105
-2019
-1937
-1868
-1821
-1778
-1704
-1591
-1483
-1433
-1440
-1448
-1391
-1252
-1077
-937
-880
-895
-913
-861
-730
-584
-486
-416
-297
-102
98
218
250
263
290
297
243
161
126
149
168
144
124
175
276
320
225
32
-151
-281
-427
-679
-1015
-1289
-1361
-1239
-1081
-1022
-1025
-938
-709
-477
-433
-590
-775
-844
-856
-965
-1181
-1344
-1352
-1295
-1329
-1441
-1467
-1343
-1238
-1356
-1663
-1896
-1887
-1782
-1859
-2173
-2450
-2353
-1820
-1108
-539
-243
-144
-131
-182
-331
-605
-999
-1496
-2063
-2618
-3028
-3213
-3212
-3172
-3209
-3330
-3464
-3561
-3651
-3791
-4000
-4247
-4492
-4704
-4845
-4875
-4802
-4708
-4688
-4761
-4851
-4861
-4755
-4568
-4343
-4097
-3849
-3646
-3536
-3510
-3509
-3501
-3528
-3652
-3862
-4039
-4071
-3960
-3814
-3733
-3712
-3670
-3563
-3444
-3407
-3466
-3546
-3567
-3523
-3474
-3445
-3393
-3254
-3035
-2826
-2718
-2722
-2772
-2802
-2802
-2809
-2844
-2877
-2858
-2778
-2681
-2613
-2560
-2454
-2260
-2032
-1872
-1831
-1872
-1908
-1876
-1747
-1525
-1237
-911
-522
27
818
1780
2682
3299
3611
3789
3973
4094
3960
3507
2907
2426
2188
2128
2122
2123
2160
2257
2388
2512
2626
2758
2932
3150
3410
3716
4077
4504
5010
5597
6241
6896
7533
8175
8875
9656
10476
11280
12061
12836
13581
14240
14811
15385
16026
16641
17079
17394
17924
18920
20117
20775
20216
18420
15872
12863
9166
4441
-1126
-6818
-12012
-16578
-20507
-23374
-24544
-23952
-22395
-20791
-19217
-16947
-13474
-9265
-5339
-2245
338
3020
6000
9047
11948
14706
17296
19465
20973
21946
22826
23902
25014
25728
25766
25288
24651
24076
23550
22912
22039
20938
19683
18343
16977
15645
14371
13119
11815
10446
9104
7932
6987
6200
5458
4710
3999
3392
2907
2500
2106
1713
1380
1189
1171
1275
1402
1485
1533
1600
1733
1951
2231
2512
2701
2724
2590
2408
2301
2307
2361
2389
2386
2393
2403
2343
2141
1791
1313
696
-106
-1086
-2151
-3191
-4177
-5158
-6173
-7193
-8164
-9087
-10011
-10959
-11881
-12692
-13351
-13872
-14278
-14567
-14727
-14763
-14701
-14580
-14427
-14271
-14139
-14050
-14020
-14055
-14146
-14254
-14330
-14352
-14332
-14290
-14208
-14048
-13810
-13557
-13367
-13268
-13226
-13218
-13273
-13440
-13697
-13943
-14082
-14094
-14031
-13943
-13828
-13671
-13505
-13397
-13388
-13447
-13498
-13495
-13454
-13448
-13537
-13725
-13946
-14111
-14183
-14237
-14409
-14774
-15251
-15642
-15791
-15719
-15584
-15508
-15451
-15270
-14901
-14458
-14112
-13908
-13715
-13382
-12876
-12294
-11738
-11215
-10641
-9890
-8867
-7589
-6243
-5110
-4351
-3868
-3422
-2922
-2543
-2515
-2829
-3209
-3382
-3297
-3063
-2754
-2341
-1807
-1240
-750
-351
32
449
864
1224
1544
1904
2353
2873
3422
3982
4555
5124
5642
6073
6428
6758
7107
7479
7850
8207
8551
8876
9153
9363
9516
9641
9745
9802
9803
9791
9827
9927
10046
10137
10204
10298
10439
10594
10710
10775
10811
10832
10825
10772
10679
10567
10450
10329
10211
10115
10051
9996
9904
9742
9530
9323
9157
9014
8845
8619
8370
8163
8029
7924
7776
7564
7340
7164
7032
6880
6659
6399
6172
6022
5920
5803
5641
5455
5284
5137
4988
4815
4618
4420
4237
4074
3937
3826
3737
3648
3536
3399
3258
3131
3003
2843
2640
2422
2225
2067
1938
1823
1712
1603
1492
1387
1300
1231
1152
1024
842
649
504
426
385
341
288
255
270
317
358
368
367
379
402
409
395
385
398
413
388
314
220
142
70
-24
-130
-201
-210
-188
-189
-223
-258
-278
-330
-481
-737
-1023
-1247
-1376
-1471
-1616
-1816
-1986
-2029
-1950
-1855
-1836
-1877
-1899
-1890
-1928
-2055
-2187
-2197
-2086
-1999
-2026
-2075
-1982
-1728
-1466
-1329
-1283
-1204
-1059
-928
-861
-788
-632
-440
-348
-402
-500
-512
-432
-370
-404
-501
-581
-593
-524
-381
-193
-27
32
-29
-131
-175
-144
-106
-119
-173
-196
-138
-32
39
30
-16
-36
-40
-95
-202
-209
47
491
765
524
-201
-1016
-1547
-1805
-2114
-2713
-3489
-4096
-4286
-4102
-3775
-3511
-3381
-3341
-3309
-3233
-3114
-2969
-2792
-2554
-2254
-1942
-1686
-1493
-1286
-994
-658
-399
-281
-232
-114
128
415
633
760
866
999
1109
1122
1066
1072
1246
1554
1864
2068
2144
2125
2044
1939
1869
1866
1873
1786
1574
1343
1241
1307
1432
1468
1377
1245
1171
1169
1174
1123
999
836
657
468
251
-10
-309
-606
-840
-961
-973
-941
-944
-1019
-1144
-1276
-1390
-1493
-1623
-1796
-1985
-2128
-2163
-2078
-1905
-1688
-1457
-1238
-1069
-978
-955
-952
-939
-924
-934
-964
-971
-923
-827
-708
-580
-437
-291
-194
-178
-203
-180
-52
150
348
516
696
926
1182
1404
1588
1791
2040
2275
2414
2463
2521
2654
2809
2882
2859
2828
2865
2943
2991
2999
3030
3125
3253
3357
3426
3477
3510
3504
3465
3438
3450
3476
3477
3456
3453
3483
3511
3500
3462
3439
3447
3451
3416
3350
3295
3264
3228
3148
3019
2866
2716
2563
2389
2194
2005
1852
1739
1638
1519
1368
1199
1032
870
702
510
291
66
-140
-312
-461
-601
-729
-824
-870
-889
-925
-993
-1072
-1115
-1094
-1025
-939
-870
-844
-861
-895
-888
-802
-657
-533
-498
-526
-523
-409
-208
-34
30
0
-33
-9
54
108
140
171
192
179
159
224
429
711
953
1155
1447
1914
2439
2800
2900
2858
2834
2812
2630
2179
1549
936
471
142
-130
-386
-590
-681
-648
-560
-518
-546
-559
-477
-338
-267
-323
-429
-499
-543
-642
-777
-819
-693
-526
-543
-799
-1094
-1173
-1009
-868
-1049
-1562
-2091
-2267
-2033
-1711
-1668
-1928
-2171
-2122
-1864
-1708
-1778
-1870
-1747
-1489
-1408
-1664
-2063
-2287
-2261
-2206
-2355
-2701
-3038
-3194
-3158
-3033
-2896
-2766
-2642
-2543
-2508
-2552
-2631
-2678
-2663
-2636
-2690
-2851
-3028
-3102
-3058
-2999
-3021
-3063
-2986
-2752
-2502
-2393
-2373
-2222
-1830
-1406
-1292
-1585
-2003
-2181
-2051
-1870
-1875
-2001
-1985
-1704
-1317
-1073
-1027
-1027
-934
-796
-778
-949
-1187
-1316
-1290
-1236
-1304
-1507
-1716
-1820
-1859
-1966
-2213
-2523
-2755
-2855
-2890
-2958
-3079
-3202
-3257
-3225
-3139
-3060
-3035
-3074
-3139
-3179
-3171
-3130
-3097
-3101
-3143
-3202
-3244
-3240
-3187
-3128
-3117
-3169
-3229
-3227
-3150
-3055
-3008
-3019
-3035
-3008
-2936
-2853
-2785
-2724
-2648
-2570
-2516
-2504
-2506
-2482
-2428
-2385
-2385
-2415
-2428
-2396
-2340
-2295
-2263
-2212
-2124
-2020
-1942
-1906
-1890
-1860
-1807
-1759
-1759
-1810
-1862
-1846
-1744
-1624
-1582
-1662
-1803
-1901
-1906
-1856
-1837
-1882
-1942
-1958
-1918
-1881
-1901
-1981
-2071
-2141
-2209
-2312
-2445
-2551
-2557
-2443
-2270
-2132
-2076
-2062
-2001
-1875
-1765
-1780
-1938
-2126
-2230
-2247
-2245
-2218
-2049
-1661
-1150
-691
-311
167
890
1729
2346
2529
2393
2218
2119
1927
1435
656
-163
-792
-1221
-1607
-2056
-2487
-2733
-2753
-2699
-2761
-2956
-3123
-3134
-3077
-3165
-3491
-3914
-4229
-4389
-4526
-4745
-4978
-5073
-5002
-4903
-4925
-5061
-5170
-5166
-5126
-5202
-5442
-5742
-5945
-6000
-5983
-5981
-5979
-5897
-5711
-5500
-5371
-5340
-5343
-5321
-5289
-5297
-5358
-5430
-5464
-5426
-5301
-5103
-4882
-4693
-4550
-4411
-4222
-3992
-3781
-3637
-3557
-3517
-3497
-3468
-3382
-3212
-3001
-2825
-2717
-2655
-2604
-2558
-2521
-2487
-2452
-2436
-2452
-2442
-2294
-1964
-1553
-1221
-1058
-1022
-1029
-1048
-1105
-1227
-1390
-1543
-1659
-1728
-1750
-1716
-1604
-1415
-1202
-1076
-1128
-1326
-1491
-1445
-1194
-927
-829
-912
-1041
-1113
-1163
-1289
-1541
-1881
-2256
-2607
-2833
-2787
-2375
-1684
-997
-589
-529
-661
-776
-809
-852
-1034
-1351
-1623
-1594
-1095
-178
859
1615
1813
1487
927
422
26
-432
-1108
-1920
-2573
-2787
-2541
-2073
-1665
-1442
-1343
-1253
-1112
-951
-822
-725
-589
-327
70
494
813
993
1152
1421
1781
2071
2159
2102
2118
2353
2732
3038
3119
3027
2930
2945
3037
3097
3101
3154
3366
3712
4034
4200
4243
4292
4385
4400
4193
3779
3333
3008
2799
2620
2449
2357
2392
2514
2649
2780
2936
3101
3199
3180
3103
3072
3120
3182
3187
3152
3160
3260
3418
3559
3637
3663
3692
3789
3974
4207
4426
4631
4904
5321
5838
6339
6796
7328
8051
8885
9579
9969
10135
10273
10409
10343
9888
9130
8366
7807
7397
6931
6318
5685
5197
4868
4550
4105
3559
3032
2582
2124
1539
832
119
-504
-1091
-1787
-2664
-3639
-4565
-5394
-6206
-7099
-8065
-8990
-9796
-10527
-11303
-12189
-13137
-14056
-14897
-15685
-16471
-17267
-18050
-18810
-19564
-20345
-21169
-22016
-22837
-23583
-24234
-24792
-25247
-25533
-25535
-25144
-24315
-23080
-21512
-19694
-17717
-15669
-13614
-11588
-9639
-7864
-6366
-5156
-4125
-3137
-2142
-1197
-362
387
1127
1877
2584
3210
3805
4453
5171
5871
6443
6845
7126
7364
7588
7770
7836
7732
7471
7160
6946
6924
7071
7273
7438
7560
7705
7944
8291
8700
9095
9408
9628
9800
9992
10225
10454
10609
10653
10608
10534
10498
10539
10652
10801
10937
11037
11098
11109
11049
10920
10772
10656
10548
10361
10041
9638
9253
8916
8565
8142
7670
7224
6850
6558
6380
6371
6514
6689
6759
6725
6719
6841
7042
7189
7228
7241
7326
7479
7616
7695
7749
7819
7869
7822
7669
7506
7432
7446
7465
7439
7420
7479
7591
7637
7541
7385
7341
7503
7793
8059
8241
8403
8622
8872
9029
8982
8718
8313
7872
7471
7146
6923
6825
6874
7046
7236
7297
7151
6845
6493
6135
5696
5070
4279
3496
2905
2553
2341
2151
1960
1832
1810
1827
1755
1522
1195
921
792
765
727
631
555
616
850
1166
1434
1592
1674
1764
1924
2154
2416
2704
3061
3533
4068
4516
4760
4827
4844
4855
4725
4296
3604
2896
2401
2115
1854
1474
1002
553
173
-181
-558
-944
-1277
-1502
-1583
-1502
-1277
-1000
-791
-701
-682
-661
-644
-720
-951
-1280
-1573
-1736
-1796
-1835
-1897
-1966
-2024
-2076
-2123
-2133
-2073
-1974
-1918
-1945
-1994
-1971
-1859
-1753
-1761
-1891
-2063
-2192
-2251
-2264
-2258
-2255
-2273
-2310
-2320
-2237
-2047
-1822
-1669
-1632
-1658
-1662
-1613
-1555
-1552
-1615
-1704
-1771
-1807
-1838
-1890
-1956
-1999
-1997
-1968
-1953
-1967
-1990
-1994
-1987
-2001
-2051
-2108
-2146
-2205
-2353
-2580
-2760
-2748
-2534
-2259
-2073
-1978
-1853
-1613
-1308
-1071
-966
-943
-920
-865
-801
-744
-665
-540
-391
-254
-132
26
274
601
928
1155
1220
1123
905
631
363
148
5
-75
-96
-43
108
349
624
850
967
955
830
622
388
195
104
106
138
147
136
151
200
213
104
-149
-473
-769
-978
-1100
-1163
-1200
-1245
-1328
-1452
-1594
-1742
-1917
-2149
-2421
-2670
-2829
-2905
-2972
-3109
-3336
-3605
-3839
-3989
-4058
-4088
-4118
-4161
-4196
-4180
-4078
-3887
-3652
-3434
-3273
-3142
-2966
-2703
-2390
-2118
-1939
-1806
-1598
-1227
-700
-80
610
1429
2441
3610
4775
5752
6461
6915
7117
6983
6407
5391
4080
2667
1273
-57
-1277
-2293
-3017
-3454
-3698
-3862
-4007
-4137
-4240
-4311
-4373
-4469
-4626
-4810
-4930
-4913
-4763
-4541
-4260
-3842
-3236
-2542
-1972
-1666
-1566
-1523
-1516
-1704
-2232
-3025
-3825
-4422
-4811
-5118
-5418
-5687
-5894
-6084
-6322
-6608
-6883
-7117
-7331
-7543
-7709
-7735
-7555
-7181
-6676
-6119
-5585
-5129
-4759
-4434
-4091
-3705
-3312
-2968
-2680
-2386
-2008
-1533
-1037
-615
-292
15
407
891
1373
1758
2069
2416
2867
3353
3733
3938
4037
4149
4321
4507
4647
4729
4783
4829
4863
4885
4920
5000
5134
5298
5449
5539
5535
5443
5309
5184
5082
4971
4834
4712
4676
4764
4944
5151
5332
5467
5548
5557
5496
5386
5257
5114
4944
4750
4564
4426
4345
4304
4273
4222
4133
4016
3914
3867
3881
3917
3924
3867
3729
3504
3206
2876
2552
2213
1809
1344
917
648
547
494
367
160
-28
-123
-142
-162
-237
-367
-534
-713
-875
-987
-1040
-1064
-1107
-1192
-1305
-1409
-1476
-1503
-1501
-1493
-1498
-1517
-1543
-1578
-1632
-1701
-1755
-1776
-1776
-1793
-1852
-1927
-1970
-1955
-1909
-1876
-1870
-1856
-1794
-1688
-1591
-1553
-1573
-1599
-1573
-1488
-1391
-1335
-1328
-1323
-1263
-1131
-970
-839
-762
-725
-707
-703
-723
-763
-807
-850
-909
-1004
-1125
-1237
-1302
-1307
-1259
-1170
-1045
-882
-671
-425
-180
44
270
537
827
1053
1139
1141
1219
1454
1756
1960
2048
2164
2435
2809
3115
3283
3412
3632
3940
4235
4449
4620
4822
5085
5396
5736
6063
6326
6517
6712
7019
7466
7982
8503
9062
9718
10414
10977
11277
11349
11299
11152
10823
10262
9573
8916
8373
7917
7538
7297
7237
7287
7302
7221
7110
7059
7045
6969
6797
6590
6409
6232
6005
5782
5685
5730
5746
5531
5101
4755
4755
4992
5051
4646
3959
3441
3310
3342
3188
2812
2524
2525
2613
2389
1726
884
140
-562
-1505
-2762
-4027
-4894
-5268
-5405
-5585
-5846
-6047
-6140
-6261
-6563
-7068
-7672
-8283
-8897
-9526
-10095
-10491
-10676
-10749
-10837
-10944
-11003
-10998
-11037
-11241
-11592
-11976
-12377
-12888
-13529
-14140
-14562
-14896
-15431
-16224
-16900
-17019
-16619
-16233
-16271
-16519
-16407
-15711
-14822
-14238
-14010
-13775
-13313
-12820
-12587
-12564
-12413
-11951
-11397
-11092
-11065
-10990
-10540
-9699
-8772
-8130
-7900
-7922
-7898
-7653
-7257
-6946
-6857
-6876
-6752
-6342
-5752
-5207
-4815
-4520
-4233
-3932
-3642
-3368
-3103
-2871
-2691
-2510
-2237
-1847
-1443
-1116
-827
-467
-42
305
478
578
778
1080
1303
1355
1412
1723
2271
2728
2802
2560
2340
2366
2522
2510
2168
1615
1095
763
616
550
449
266
43
-143
-271
-411
-655
-995
-1312
-1516
-1664
-1868
-2122
-2277
-2222
-2043
-1936
-1952
-1936
-1732
-1425
-1272
-1410
-1674
-1793
-1702
-1602
-1705
-1988
-2217
-2202
-1971
-1713
-1582
-1590
-1641
-1641
-1567
-1479
-1467
-1575
-1757
-1920
-2007
-2038
-2084
-2168
-2246
-2263
-2226
-2197
-2228
-2302
-2364
-2374
-2355
-2358
-2400
-2423
-2330
-2087
-1754
-1395
-960
-281
741
1949
2985
3579
3788
3873
3975
3945
3550
2776
1878
1140
627
225
-160
-481
-633
-581
-375
-96
189
422
551
565
516
490
519
554
527
442
404
536
864
1273
1614
1869
2183
2721
3473
4221
4717
4900
4927
5009
5210
5414
5478
5397
5323
5416
5684
5987
6193
6318
6489
6775
7079
7235
7184
7040
6939
6879
6769
6593
6471
6512
6674
6804
6819
6791
6830
6918
6948
6867
6749
6681
6654
6606
6532
6476
6424
6272
5940
5515
5194
5078
5069
4984
4746
4444
4221
4120
4052
3892
3569
3094
2524
1936
1414
1018
754
578
454
393
415
472
425
154
-311
-791
-1141
-1396
-1688
-2054
-2364
-2469
-2366
-2188
-2043
-1907
-1698
-1403
-1082
-794
-567
-444
-507
-802
-1284
-1853
-2472
-3187
-4032
-4918
-5640
-6016
-6013
-5748
-5373
-4953
-4461
-3904
-3425
-3244
-3462
-3925
-4333
-4473
-4389
-4297
-4317
-4313
-4007
-3280
-2340
-1566
-1183
-1090
-1032
-938
-1008
-1460
-2254
-3132
-3920
-4668
-5455
-6151
-6489
-6391
-6086
-5862
-5726
-5425
-4794
-3978
-3286
-2865
-2604
-2358
-2129
-2015
-2013
-1973
-1780
-1482
-1237
-1131
-1091
-969
-708
-410
-237
-250
-360
-441
-469
-518
-631
-724
-698
-623
-720
-1092
-1525
-1646
-1310
-775
-427
-365
-332
-48
474
973
1224
1211
1050
848
677
608
674
809
890
869
837
943
1248
1686
2131
2481
2740
3025
3500
4225
5059
5766
6221
6497
6719
6863
6777
6392
5848
5369
5046
4791
4510
4245
4105
4099
4106
4024
3895
3836
3891
3974
3976
3898
3830
3833
3868
3861
3810
3793
3861
3964
4012
4003
4023
4132
4264
4307
4239
4139
4037
3841
3486
3005
2084
2048
1883
1256
-144
-1827
-3803
-5288
-8203
-12346
-15985
-17793
-19180
-23277
-30636
31048
-29180
-16546
-2859
6176
10654
14231
15044
9086
-1969
-8959
-4715
4032
5844
-3338
-13441
-12862
-2399
4869
1680
-5664
-6635
-404
2987
-1621
-9066
-10370
-2072
8725
14014
11997
5417
-949
-1909
2729
9239
10567
3066
-6499
-6385
5453
17659
20126
11147
865
-3389
-4199
-9028
-16254
-16453
-6791
5048
8262
1884
-5042
-5019
1204
5861
3789
-3921
-13194
-18611
-17740
-8328
2871
10250
7769
-1228
-7037
-2068
9915
18424
11113
-8351
-25691
-26099
-11653
3545
8542
4809
2717
5155
3796
-8999
-24111
-25931
-9388
10761
14694
-587
-18009
-20262
-6040
7383
5171
-11226
-26387
-25583
-8363
14085
25574
20568
3692
-13623
-22769
-21498
-12677
-1038
7189
8857
2159
-8371
-17878
-21079
-18121
-11372
-4432
-343
-361
-3703
-8245
-11737
-12851
-11591
-8987
-6389
-4803
-4584
-5474
-6836
-7971
-8404
-8040
-7130
-6098
-5343
-5094
-5346
-5879
-6364
-6566
-6487
-6342
-6340
-6478
-6548
-6356
-5918
-5457
-5199
-5200
-5338
-5471
-5547
-5604
-5687
-5786
-5839
-5769
-5529
-5125
-4636
-4184
-3829
-3514
-3126
-2641
-2180
-1863
-1642
-1331
-826
-258
126
234
203
204
212
21
-499
-1227
-1894
-2334
-2571
-2721
-2839
-2893
-2854
-2753
-2646
-2545
-2428
-2313
-2260
-2285
-2279
-2078
-1642
-1149
-855
-847
-955
-957
-831
-760
-868
-1014
-914
-427
314
1081
1794
2535
3349
4119
4688
5059
5407
5877
6423
6863
7087
7175
7281
7437
7525
7423
7150
6869
6730
6745
6815
6865
6925
7074
7313
7525
7568
7416
7178
6966
6777
6501
6080
5597
5192
4891
4587
4165
3642
3139
2737
2414
2122
1881
1735
1659
1550
1327
1020
713
451
202
-78
-371
-626
-818
-961
-1082
-1192
-1298
-1419
-1564
-1708
-1812
-1861
-1877
-1894
-1926
-1973
-2025
-2067
-2073
-2039
-1990
-1960
-1956
-1948
-1916
-1895
-1938
-2042
-2140
-2169
-2142
-2127
-2155
-2183
-2138
-2003
-1837
-1718
-1677
-1691
-1713
-1705
-1661
-1605
-1578
-1602
-1651
-1665
-1606
-1503
-1412
-1358
-1300
-1177
-991
-820
-743
-761
-795
-773
-708
-685
-760
-898
-1001
-1005
-927
-840
-798
-793
-782
-738
-675
-624
-598
-583
-555
-506
-446
-379
-299
-194
-62
79
209
321
427
543
669
789
892
994
1122
1279
1437
1571
1698
1869
2099
2325
2459
2478
2458
2504
2635
2763
2784
2686
2562
2510
2538
2558
2488
2328
2158
2049
2006
1990
1967
1948
1952
1983
2027
2092
2195
2342
2508
2669
2813
2931
3001
2991
2897
2755
2628
2598
2774
3227
3900
4590
5095
5398
5657
5962
6151
5928
5190
4178
3257
2595
2099
1636
1234
1001
939
908
774
548
308
57
-304
-836
-1466
-2024
-2385
-2544
-2588
-2621
-2702
-2827
-2947
-3017
-3051
-3111
-3245
-3426
-3588
-3691
-3757
-3820
-3872
-3861
-3744
-3510
-3174
-2752
-2290
-1871
-1569
-1376
-1207
-1013
-837
-764
-801
-843
-772
-578
-340
-119
112
412
783
1157
1448
1619
1688
1685
1627
1521
1371
1181
969
785
685
677
696
664
570
481
465
510
523
422
218
-9
-186
-314
-444
-619
-830
-1023
-1146
-1186
-1172
-1159
-1192
-1266
-1333
-1362
-1388
-1480
-1652
-1840
-1974
-2070
-2202
-2368
-2448
-2326
-2050
-1813
-1766
-1888
-2045
-2171
-2313
-2535
-2820
-3097
-3321
-3493
-3595
-3572
-3410
-3184
-3003
-2911
-2848
-2729
-2531
-2316
-2158
-2077
-2036
-1972
-1849
-1674
-1488
-1319
-1159
-992
-804
-597
-372
-135
94
289
447
585
726
862
967
1046
1143
1305
1521
1726
1844
1857
1804
1737
1673
1586
1465
1345
1287
1317
1387
1412
1348
1230
1128
1067
1017
947
876
852
895
975
1051
1120
1201
1283
1311
1237
1075
894
746
623
483
320
182
116
118
138
137
122
124
156
194
209
197
193
239
347
490
613
680
707
757
884
1092
1327
1504
1571
1528
1440
1372
1321
1228
1068
916
888
1007
1198
1410
1729
2269
2962
3534
3757
3665
3476
3277
2914
2208
1238
305
-365
-806
-1192
-1576
-1848
-1914
-1837
-1780
-1830
-1948
-2063
-2165
-2292
-2449
-2581
-2639
-2631
-2605
-2594
-2575
-2506
-2395
-2308
-2306
-2366
-2402
-2363
-2280
-2231
-2251
-2290
-2275
-2190
-2093
-2049
-2062
-2059
-1978
-1839
-1744
-1778
-1917
-2033
-2017
-1880
-1735
-1663
-1640
-1577
-1411
-1168
-927
-762
-691
-674
-654
-607
-555
-535
-538
-511
-434
-349
-298
-244
-83
220
552
765
844
930
1131
1400
1601
1677
1709
1800
1970
2161
2340
2531
2774
3064
3349
3581
3746
3849
3935
4058
4231
4404
4507
4546
4611
4788
5045
5244
5277
5184
5131
5246
5485
5675
5689
5581
5534
5678
5959
6209
6314
6320
6362
6516
6726
6896
6996
7072
7170
7276
7353
7394
7443
7546
7690
7816
7876
7888
7910
7998
8145
8297
8390
8392
8319
8214
8119
8054
8005
7930
7772
7520
7232
6997
6840
6690
6464
6161
5864
5644
5467
5238
4904
4508
4111
3704
3230
2679
2132
1689
1351
1009
543
-57
-684
-1209
-1624
-2044
-2594
-3278
-3974
-4569
-5074
-5595
-6205
-6863
-7481
-8048
-8638
-9293
-9983
-10662
-11334
-11989
-12528
-12813
-12873
-12988
-13501
-14466
-15539
-16283
-16602
-16845
-17431
-18382
-19262
-19583
-19285
-18769
-18494
-18555
-18672
-18560
-18209
-17821
-17516
-17191
-16715
-16136
-15650
-15331
-15001
-14455
-13705
-12991
-12505
-12152
-11684
-10960
-10011
-8894
-7608
-6203
-4900
-3950
-3414
-3106
-2853
-2719
-2905
-3446
-4101
-4567
-4761
-4803
-4793
-4681
-4373
-3902
-3437
-3119
-2952
-2857
-2786
-2746
-2745
-2744
-2701
-2607
-2464
-2259
-1986
-1690
-1480
-1423
-1467
-1492
-1430
-1339
-1328
-1410
-1482
-1426
-1252
-1093
-1078
-1212
-1396
-1510
-1508
-1429
-1361
-1384
-1503
-1628
-1639
-1512
-1361
-1316
-1366
-1358
-1178
-900
-713
-687
-698
-585
-355
-171
-131
-145
-54
185
466
682
834
982
1141
1265
1335
1387
1453
1531
1613
1724
1874
2013
2076
2074
2102
2205
2294
2224
1969
1671
1499
1496
1586
1700
1851
2086
2394
2701
2963
3203
3458
3706
3867
3883
3771
3610
3478
3395
3326
3232
3120
3034
3015
3042
3050
2992
2895
2839
2881
2989
3080
3116
3156
3287
3513
3732
3822
3769
3662
3580
3493
3315
3033
2752
2597
2566
2536
2415
2248
2168
2242
2387
2466
2418
2327
2328
2454
2607
2652
2550
2409
2374
2468
2549
2453
2163
1861
1750
1850
1984
1966
1788
1614
1594
1728
1895
1987
1989
1949
1911
1888
1869
1819
1693
1459
1163
916
801
797
808
765
684
636
658
719
761
753
701
621
524
436
394
412
437
386
235
47
-81
-119
-117
-141
-209
-294
-372
-420
-425
-413
-466
-664
-971
-1245
-1388
-1482
-1713
-2136
-2550
-2688
-2507
-2250
-2221
-2501
-2910
-3212
-3340
-3431
-3659
-4041
-4403
-4522
-4314
-3887
-3389
-2841
-2172
-1397
-718
-372
-384
-537
-614
-647
-840
-1270
-1722
-1896
-1730
-1443
-1300
-1382
-1614
-1966
-2522
-3321
-4211
-4903
-5205
-5145
-4854
-4376
-3628
-2543
-1226
44
956
1347
1245
773
63
-765
-1589
-2290
-2783
-3042
-3061
-2850
-2444
-1900
-1222
-378
571
1295
1297
324
-1325
-2973
-4154
-5009
-6010
-7319
-8526
-9034
-8628
-7626
-6536
-5671
-5090
-4749
-4605
-4601
-4650
-4731
-4921
-5284
-5733
-6059
-6100
-5886
-5574
-5314
-5164
-5127
-5199
-5349
-5477
-5466
-5284
-5024
-4818
-4733
-4747
-4808
-4871
-4891
-4811
-4613
-4344
-4071
-3813
-3542
-3252
-2992
-2811
-2673
-2489
-2220
-1931
-1721
-1613
-1538
-1413
-1218
-988
-751
-507
-228
111
528
1012
1518
1982
2374
2736
3139
3605
4080
4495
4866
5291
5853
6550
7324
8158
9092
10150
11267
12330
13293
14224
15219
16286
17350
18352
19324
20351
21478
22675
23870
25002
26041
26981
27839
28622
29300
29813
30117
30215
30174
30045
29397
29484
29371
28859
27655
26142
24176
22419
18790
13286
7492
2776
-2103
-10404
-20354
-27351
-25612
-15519
-3059
6090
10454
13202
13533
9632
2020
-4007
-3580
1439
3891
-328
-7044
-8290
-1300
8332
12265
7179
-3203
-10584
-9957
384
15292
25869
24278
10361
-9580
-23926
-26275
-18424
-7157
840
3841
1877
-1812
-5107
-6397
-4839
-1474
2372
3883
3709
2836
2446
3280
5336
7959
10261
11595
11877
11563
11325
11637
12558
13818
15068
16041
16585
16678
16502
16431
16804
17639
18603
19301
19593
19594
19419
19026
18355
17519
16785
16332
16111
15941
15720
15480
15286
15142
15012
14870
14710
14510
14241
13902
13524
13135
12739
12335
11935
11547
11146
10699
10211
9732
9310
8937
8563
8148
7693
7230
6786
6369
5975
5597
5234
4886
4558
4246
3936
3616
3297
3019
2812
2645
2433
2103
1670
1248
968
888
947
1039
1115
1245
1554
2075
2682
3181
3460
3577
3663
3775
3875
3925
3961
4058
4239
4484
4805
5263
5865
6481
6916
7077
7065
7065
7165
7284
7304
7226
7190
7322
7591
7851
8012
8161
8478
9046
9745
10366
10797
11096
11377
11671
11901
11983
11911
11742
11550
11388
11277
11206
11126
10976
10740
10469
10214
9962
9631
9155
8562
7948
7382
6860
6342
5829
5367
4989
4644
4224
3670
3042
2483
2088
1831
1615
1388
1211
1188
1356
1625
1870
2048
2219
2450
2724
2952
3082
3148
3218
3299
3341
3322
3295
3344
3489
3650
3719
3650
3505
3396
3390
3453
3486
3425
3300
3211
3225
3312
3376
3348
3225
3052
2862
2676
2515
2403
2337
2281
2199
2102
2038
2042
2087
2106
2046
1908
1740
1598
1508
1468
1460
1467
1476
1479
1477
1475
1469
1442
1376
1270
1147
1046
987
968
977
1004
1052
1125
1214
1299
1365
1412
1453
1511
1597
1713
1850
1990
2110
2207
2314
2455
2593
2644
2579
2488
2510
2685
2931
3186
3525
4067
4771
5390
5694
5691
5581
5474
5252
4725
3904
3030
2353
1923
1619
1332
1077
918
864
849
805
717
614
515
405
269
125
25
12
71
117
67
-76
-222
-275
-245
-235
-329
-499
-637
-682
-682
-729
-845
-953
-976
-925
-879
-887
-914
-902
-865
-886
-1029
-1266
-1495
-1642
-1728
-1833
-2009
-2221
-2390
-2485
-2546
-2636
-2779
-2946
-3105
-3248
-3379
-3488
-3550
-3567
-3570
-3581
-3567
-3462
-3232
-2917
-2596
-2320
-2072
-1802
-1475
-1100
-708
-322
55
443
873
1362
1914
2513
3124
3701
4195
4582
4877
5123
5345
5536
5686
5813
5932
6011
5969
5764
5462
5187
4981
4722
4217
3384
2337
1288
350
-528
-1466
-2513
-3592
-4581
-5392
-6008
-6452
-6762
-6998
-7234
-7516
-7824
-8096
-8271
-8350
-8383
-8404
-8394
-8299
-8080
-7755
-7393
-7069
-6810
-6597
-6385
-6135
-5837
-5485
-5065
-4556
-3963
-3322
-2680
-2073
-1514
-1014
-591
-259
-9
185
339
442
482
468
444
451
484
500
453
330
162
-8
-154
-290
-454
-675
-934
-1167
-1320
-1410
-1512
-1676
-1869
-1995
-2014
-1984
-2008
-2116
-2250
-2334
-2356
-2351
-2359
-2374
-2376
-2354
-2311
-2250
-2181
-2122
-2074
-2001
-1874
-1712
-1594
-1565
-1569
-1497
-1305
-1065
-880
-768
-648
-451
-207
-3
133
258
450
719
1006
1265
1515
1807
2146
2470
2685
2733
2633
2498
2459
2586
2833
3117
3440
3943
4764
5832
6837
7479
7719
7774
7818
7776
7445
6795
6080
5617
5501
5572
5661
5768
6001
6358
6677
6770
6598
6270
5910
5534
5096
4598
4127
3769
3530
3336
3139
2967
2872
2834
2740
2504
2155
1813
1565
1401
1267
1139
1065
1108
1286
1568
1897
2216
2472
2650
2775
2872
2922
2891
2786
2682
2636
2618
2548
2418
2338
2402
2529
2500
2181
1678
1246
1030
935
772
475
168
6
20
115
199
246
272
282
271
260
289
359
415
413
382
393
472
564
593
555
525
562
633
652
593
525
535
628
716
718
649
603
632
700
733
715
705
763
874
956
948
874
813
811
840
842
798
758
770
827
874
886
911
1005
1146
1239
1224
1150
1115
1143
1159
1091
984
940
978
1002
932
809
746
773
799
727
581
466
429
415
360
282
250
296
378
446
494
548
609
659
694
726
746
728
671
627
657
757
859
914
938
980
1063
1163
1244
1290
1298
1272
1226
1193
1206
1266
1339
1382
1383
1353
1326
1315
1300
1242
1107
914
728
608
564
554
514
399
207
-14
-198
-318
-421
-602
-893
-1212
-1437
-1531
-1586
-1691
-1828
-1905
-1901
-1901
-1992
-2155
-2295
-2381
-2476
-2643
-2860
-3052
-3196
-3345
-3556
-3826
-4128
-4443
-4750
-5004
-5164
-5244
-5283
-5258
-5095
-4787
-4482
-4387
-4579
-4954
-5390
-5912
-6640
-7599
-8640
-9567
-10312
-10931
-11467
-11886
-12159
-12343
-12537
-12784
-13046
-13291
-13563
-13913
-14307
-14628
-14802
-14866
-14912
-14972
-14994
-14920
-14756
-14543
-14291
-13991
-13661
-13353
-13095
-12843
-12535
-12170
-11828
-11577
-11379
-11108
-10683
-10156
-9655
-9248
-8887
-8500
-8086
-7691
-7306
-6841
-6236
-5578
-5042
-4668
-4297
-3756
-3099
-2568
-2329
-2258
-2089
-1720
-1299
-1005
-820
-561
-87
549
1168
1639
1958
2244
2649
3243
3918
4431
4597
4488
4356
4380
4493
4498
4330
4134
4087
4234
4503
4856
5300
5773
6109
6188
6103
6069
6180
6321
6340
6254
6231
6365
6533
6561
6449
6366
6430
6533
6434
6047
5585
5376
5551
5911
6113
5967
5563
5128
4781
4446
3998
3410
2762
2147
1600
1142
809
594
401
129
-188
-398
-439
-483
-766
-1284
-1751
-1922
-1901
-2031
-2503
-3128
-3549
-3634
-3594
-3715
-4040
-4359
-4463
-4358
-4244
-4306
-4559
-4883
-5161
-5385
-5610
-5880
-6165
-6388
-6508
-6558
-6586
-6625
-6682
-6763
-6858
-6936
-6963
-6940
-6922
-6958
-7049
-7148
-7203
-7196
-7136
-7046
-6962
-6917
-6897
-6843
-6705
-6507
-6327
-6221
-6167
-6097
-5988
-5875
-5783
-5684
-5532
-5323
-5085
-4828
-4536
-4215
-3916
-3687
-3515
-3331
-3100
-2855
-2642
-2445
-2206
-1892
-1538
-1212
-931
-648
-286
175
674
1118
1462
1747
2052
2393
2713
2966
3202
3520
3936
4353
4706
5089
5680
6505
7313
7776
7815
7676
7651
7746
7691
7263
6551
5883
5515
5440
5467
5444
5375
5347
5402
5504
5596
5644
5643
5608
5561
5529
5531
5554
5577
5599
5660
5785
5943
6045
6032
5941
5877
5910
5997
6019
5906
5711
5569
5577
5697
5803
5794
5686
5588
5579
5617
5584
5400
5110
4826
4615
4453
4278
4076
3887
3746
3653
3585
3526
3466
3395
3305
3212
3153
3139
3118
3020
2825
2599
2423
2305
2168
1942
1643
1364
1187
1111
1074
1028
980
954
948
924
848
723
573
409
227
27
-168
-303
-338
-289
-221
-187
-199
-243
-333
-489
-694
-867
-925
-879
-831
-845
-859
-762
-578
-500
-688
-1067
-1353
-1333
-1052
-760
-668
-779
-958
-1121
-1298
-1566
-1949
-2384
-2779
-3025
-2996
-2595
-1883
-1103
-505
-161
43
213
276
74
-421
-1000
-1376
-1387
-1050
-485
142
625
774
524
-42
-797
-1647
-2487
-3101
-3256
-2911
-2338
-1929
-1900
-2175
-2583
-3060
-3669
-4450
-5311
-6054
-6458
-6358
-5699
-4621
-3427
-2430
-1767
-1375
-1113
-919
-845
-981
-1320
-1717
-1947
-1839
-1416
-907
-604
-652
-933
-1178
-1233
-1175
-1179
-1277
-1321
-1160
-836
-567
-520
-655
-790
-753
-466
73
793
1544
2150
2562
2926
3434
4062
4517
4473
3878
3002
2181
1575
1133
764
464
296
287
402
570
711
762
701
580
491
492
606
903
1519
2526
3776
4927
5699
6090
6330
6569
6697
6460
5776
4857
4032
3472
3101
2763
2408
2110
1928
1805
1641
1439
1342
1502
1913
2417
2859
3215
3544
3850
4016
3906
3502
2853
1960
728
-934
-2993
-5335
-7900
-10712
-13745
-16791
-19598
-22133
-24589
-27022
-29047
-30035
-29733
-28630
-27565
-26956
-26506
-25753
-24781
-24240
-24682
-25990
-27564
-28912
-29931
-30636
-30882
-30508
-29658
-28760
-28078
-27397
-26297
-24685
-22978
-21693
-20914
-20227
-19166
-17646
-15979
-14525
-13393
-12443
-11518
-10603
-9782
-9075
-8380
-7573
-6627
-5616
-4624
-3693
-2841
-2100
-1496
-974
-403
312
1157
2042
2907
3768
4643
5476
6164
6654
7000
7314
7691
8172
8751
9400
10069
10722
11351
11985
12646
13316
13943
14502
15021
15554
16134
16751
17382
18015
18646
19255
19806
20259
20611
20901
21172
21446
21714
21967
22216
22489
22793
23087
23306
23411
23429
23407
23352
23200
22889
22446
21989
21622
21319
20952
20431
19810
19243
18808
18433
17992
17466
16975
16644
16477
16381
16297
16248
16252
16248
16140
15917
15686
15548
15473
15345
15135
14966
15014
15309
15682
15898
15858
15655
15444
15271
15023
14561
13879
13123
12442
11849
11251
10591
9931
9381
8954
8549
8061
7493
6928
6426
5966
5476
4913
4291
3652
3029
2436
1872
1313
738
161
-370
-800
-1118
-1361
-1552
-1678
-1720
-1732
-1832
-2090
-2421
-2646
-2657
-2556
-2553
-2734
-2945
-2934
-2620
-2164
-1753
-1352
-740
186
1215
1991
2350
2459
2563
2659
2498
1889
960
44
-624
-1063
-1416
-1741
-1978
-2075
-2064
-2018
-1985
-1983
-2051
-2228
-2504
-2795
-3004
-3100
-3112
-3086
-3054
-3036
-3054
-3119
-3215
-3307
-3371
-3412
-3446
-3482
-3522
-3578
-3692
-3897
-4176
-4462
-4693
-4876
-5077
-5343
-5637
-5856
-5923
-5867
-5798
-5810
-5891
-5950
-5919
-5824
-5761
-5788
-5861
-5895
-5848
-5751
-5633
-5467
-5206
-4862
-4519
-4248
-4046
-3864
-3690
-3568
-3541
-3589
-3652
-3685
-3690
-3673
-3621
-3508
-3335
-3132
-2940
-2776
-2633
-2487
-2334
-2200
-2111
-2070
-2041
-1986
-1907
-1833
-1780
-1718
-1612
-1474
-1346
-1257
-1186
-1104
-1013
-939
-891
-846
-774
-665
-537
-415
-313
-213
-87
67
210
288
301
324
433
626
818
946
1039
1171
1359
1539
1655
1724
1801
1894
1964
1997
2042
2160
2335
2484
2551
2562
2595
2694
2824
2923
2957
2959
2989
3066
3146
3173
3153
3159
3214
3223
3041
2661
2282
2149
2309
2570
2701
2659
2594
2653
2838
3033
3126
3069
2869
2573
2268
2044
1923
1828
1655
1371
1042
762
551
352
76
-318
-804
-1312
-1780
-2194
-2595
-3030
-3507
-3991
-4444
-4876
-5325
-5813
-6305
-6734
-7060
-7298
-7497
-7683
-7836
-7904
-7866
-7747
-7582
-7357
-7039
-6628
-6173
-5703
-5156
-4436
-3559
-2683
-1934
-1219
-287
1000
2505
3993
5412
6933
8714
10732
12878
15130
17537
20015
22321
24270
25861
27129
27884
27763
26588
24601
22271
19913
17561
15196
12973
11175
9949
9213
8741
8301
7717
6884
5775
4417
2826
982
-1084
-3198
-5117
-6722
-8121
-9500
-10895
-12170
-13225
-14129
-15025
-15928
-16675
-17096
-17177
-17037
-16783
-16449
-16050
-15637
-15268
-14941
-14612
-14257
-13889
-13510
-13086
-12568
-11963
-11319
-10689
-10100
-9581
-9161
-8846
-8619
-8456
-8332
-8216
-8063
-7839
-7537
-7163
-6709
-6165
-5568
-5019
-4615
-4366
-4191
-4007
-3806
-3637
-3520
-3395
-3172
-2834
-2462
-2162
-1968
-1787
-1496
-1079
-643
-302
-41
244
617
1012
1341
1622
1962
2405
2840
3113
3214
3304
3544
3925
4293
4515
4598
4662
4814
5057
5300
5435
5410
5267
5107
5020
5012
5008
4930
4766
4586
4487
4486
4515
4501
4435
4373
4363
4372
4309
4116
3840
3603
3500
3527
3595
3611
3539
3410
3306
3305
3403
3500
3470
3268
2987
2764
2667
2649
2629
2584
2541
2506
2427
2237
1927
1559
1203
880
565
245
-34
-174
-84
230
657
1041
1298
1452
1560
1633
1625
1505
1309
1102
922
768
635
530
447
335
158
-64
-275
-446
-604
-775
-935
-1026
-1026
-979
-950
-976
-1040
-1094
-1109
-1088
-1064
-1081
-1145
-1207
-1208
-1133
-1028
-946
-893
-830
-735
-637
-575
-550
-537
-534
-567
-652
-765
-865
-938
-998
-1062
-1110
-1104
-1023
-881
-715
-554
-416
-322
-285
-276
-232
-105
97
332
605
994
1553
2201
2750
3061
3161
3169
3111
2879
2381
1696
1038
559
242
-8
-224
-354
-356
-274
-198
-173
-164
-127
-58
4
29
26
23
36
66
104
144
188
229
247
224
193
214
322
474
583
612
604
638
751
923
1115
1311
1498
1653
1754
1815
1872
1954
2037
2090
2107
2117
2158
2250
2394
2565
2721
2818
2843
2826
2808
2814
2844
2884
2906
2892
2852
2813
2809
2835
2831
2736
2565
2400
2302
2236
2117
1914
1698
1579
1577
1606
1564
1441
1311
1229
1165
1045
835
573
299
21
-259
-515
-710
-852
-996
-1168
-1327
-1426
-1482
-1570
-1728
-1931
-2129
-2310
-2501
-2725
-2971
-3225
-3482
-3727
-3936
-4100
-4244
-4392
-4557
-4738
-4940
-5162
-5374
-5554
-5744
-6032
-6430
-6826
-7080
-7190
-7307
-7566
-7931
-8247
-8424
-8523
-8665
-8879
-9113
-9313
-9470
-9575
-9584
-9483
-9344
-9275
-9302
-9345
-9305
-9174
-9034
-8942
-8841
-8607
-8193
-7692
-7236
-6861
-6469
-5952
-5343
-4825
-4595
-4686
-4925
-5059
-4966
-4740
-4582
-4590
-4649
-4534
-4131
-3561
-3083
-2866
-2888
-3002
-3091
-3131
-3148
-3182
-3266
-3397
-3526
-3571
-3477
-3276
-3052
-2861
-2712
-2598
-2512
-2419
-2254
-2001
-1769
-1694
-1780
-1878
-1845
-1687
-1530
-1451
-1402
-1305
-1151
-983
-817
-647
-516
-533
-766
-1101
-1299
-1207
-911
-650
-554
-528
-379
-45
326
531
532
502
660
1073
1621
2108
2412
2548
2599
2601
2477
2100
1416
537
-315
-973
-1438
-1824
-2198
-2537
-2775
-2910
-3007
-3153
-3400
-3747
-4154
-4543
-4870
-5133
-5331
-5452
-5497
-5542
-5685
-5899
-6009
-5885
-5623
-5457
-5477
-5526
-5426
-5224
-5123
-5182
-5218
-5041
-4714
-4445
-4285
-4049
-3599
-3072
-2758
-2762
-2879
-2863
-2684
-2497
-2401
-2333
-2165
-1860
-1483
-1085
-674
-256
122
406
592
734
901
1122
1371
1606
1801
1974
2161
2370
2541
2595
2536
2462
2469
2539
2575
2547
2554
2726
3055
3412
3696
3942
4243
4615
4972
5245
5461
5674
5885
6057
6192
6355
6585
6843
7044
7133
7119
7053
6991
6983
7025
7053
6995
6865
6771
6812
6964
7091
7087
6974
6850
6773
6722
6657
6568
6462
6327
6151
5967
5840
5796
5778
5701
5546
5379
5284
5282
5336
5393
5409
5347
5193
4987
4812
4715
4653
4533
4308
4034
3816
3702
3654
3590
3459
3270
3075
2934
2874
2883
2900
2886
2852
2847
2899
3000
3101
3150
3102
2955
2777
2672
2696
2791
2837
2772
2652
2565
2512
2403
2177
1868
1566
1310
1083
861
662
517
430
371
311
233
139
35
-73
-175
-279
-383
-457
-444
-323
-148
-15
29
19
40
127
206
152
-124
-592
-1096
-1452
-1607
-1694
-1916
-2364
-2919
-3372
-3630
-3793
-4020
-4321
-4544
-4532
-4296
-3994
-3751
-3534
-3230
-2803
-2371
-2063
-1841
-1499
-858
46
970
1686
2148
2470
2751
2950
2932
2626
2088
1463
870
324
-245
-901
-1615
-2287
-2849
-3343
-3905
-4619
-5412
-6090
-6503
-6663
-6715
-6799
-6934
-7039
-7062
-7055
-7136
-7359
-7661
-7931
-8117
-8251
-8397
-8551
-8652
-8699
-8713
-8631
-8316
-7739
-7117
-6737
-6642
-6603
-6436
-6251
-6243
-6295
-5958
-4943
-3545
-2366
-1644
-1004
54
1484
2642
2868
2074
752
-511
-1464
-2237
-3074
-4039
-4929
-5429
-5368
-4862
-4208
-3670
-3360
-3242
-3279
-3467
-3764
-4083
-4370
-4677
-5083
-5559
-5960
-6153
-6137
-6024
-5929
-5916
-6014
-6253
-6622
-6992
-7168
-7035
-6650
-6159
-5627
-4996
-4199
-3278
-2371
-1582
-881
-170
627
1522
2487
3507
4588
5749
7008
8381
9841
11300
12666
13924
15124
16351
17623
18482
20254
22121
23866
24896
25132
24585
22136
18866
14608
10328
5516
-1244
-10435
-20649
-26398
-25114
-16651
-4344
7500
14952
14401
6987
-3992
-11276
-10039
-1790
6369
7469
459
-9079
-13441
-8333
4488
18471
25879
21943
9547
-3494
-6397
3824
19443
27098
18173
-2081
-20841
-25577
-16250
-3075
3198
-1177
-10914
-19753
-21597
-15262
-3249
9603
17420
17553
9689
-624
-7972
-9119
-4059
4500
12759
17616
17876
14472
9729
6135
5226
7096
10650
14341
16925
17895
17514
16530
15771
15807
16776
18422
20273
21865
22922
23443
23642
23767
23922
24079
24201
24324
24490
24629
24603
24367
24052
23802
23584
23218
22609
21885
21271
20856
20575
20370
20276
20312
20355
20232
19895
19430
18872
18073
16859
15285
13650
12240
11105
10128
9245
8538
8118
7974
7975
7980
7917
7785
7625
7493
7437
7469
7563
7690
7854
8077
8340
8577
8709
8705
8614
8527
8508
8545
8565
8503
8366
8197
8001
7740
7409
7092
6883
6768
6626
6383
6121
5993
6046
6155
6170
6081
5996
5992
6041
6073
6065
6040
5985
5852
5632
5383
5182
5031
4856
4599
4297
4041
3881
3778
3643
3419
3121
2809
2520
2228
1874
1437
968
567
295
130
3
-132
-255
-316
-287
-202
-134
-138
-235
-406
-624
-872
-1151
-1453
-1753
-2017
-2214
-2338
-2414
-2477
-2557
-2675
-2825
-2986
-3139
-3291
-3476
-3724
-4022
-4323
-4583
-4802
-5006
-5216
-5418
-5592
-5736
-5863
-5962
-5981
-5887
-5723
-5592
-5571
-5635
-5687
-5660
-5577
-5504
-5461
-5405
-5291
-5131
-4980
-4858
-4733
-4566
-4370
-4202
-4090
-3985
-3794
-3468
-3053
-2649
-2327
-2079
-1844
-1578
-1283
-984
-697
-425
-170
70
323
634
1017
1420
1753
1955
2039
2049
2011
1922
1780
1598
1387
1150
913
735
664
684
723
733
735
779
861
918
902
839
786
746
660
486
273
127
108
192
302
397
493
624
804
1006
1184
1290
1306
1249
1159
1067
982
903
833
786
767
768
792
852
951
1064
1147
1181
1190
1201
1217
1233
1272
1370
1524
1699
1900
2198
2634
3113
3437
3496
3376
3248
3141
2896
2363
1599
843
291
-59
-340
-633
-908
-1099
-1197
-1265
-1366
-1518
-1692
-1853
-1988
-2112
-2236
-2344
-2413
-2459
-2561
-2800
-3159
-3510
-3721
-3782
-3801
-3874
-3979
-4006
-3886
-3671
-3490
-3441
-3523
-3672
-3824
-3961
-4088
-4201
-4283
-4320
-4313
-4267
-4169
-3998
-3748
-3463
-3218
-3050
-2923
-2757
-2510
-2204
-1882
-1551
-1187
-774
-336
80
460
825
1219
1670
2162
2624
2971
3186
3367
3659
4112
4616
5016
5279
5533
5910
6405
6882
7234
7474
7681
7902
8128
8365
8655
9034
9459
9850
10162
10411
10634
10823
10933
10923
10791
10582
10359
10174
10065
10047
10117
10253
10419
10576
10699
10788
10862
10923
10928
10797
10477
10002
9491
9048
8663
8226
7647
6966
6310
5751
5232
4634
3913
3136
2381
1641
859
25
-780
-1474
-2063
-2617
-3175
-3693
-4109
-4444
-4802
-5274
-5866
-6494
-7079
-7599
-8079
-8536
-8944
-9239
-9369
-9347
-9254
-9189
-9191
-9234
-9287
-9376
-9579
-9931
-10372
-10797
-11150
-11471
-11828
-12225
-12570
-12764
-12797
-12752
-12719
-12703
-12625
-12410
-12077
-11734
-11478
-11325
-11223
-11132
-11065
-11038
-11007
-10890
-10647
-10310
-9932
-9517
-9029
-8455
-7847
-7276
-6772
-6312
-5863
-5395
-4902
-4376
-3813
-3215
-2582
-1917
-1236
-580
20
556
1045
1508
1962
2430
2942
3501
4073
4605
5063
5442
5774
6110
6476
6839
7137
7383
7706
8239
8940
9562
9863
9849
9742
9699
9603
9198
8392
7383
6465
5771
5230
4737
4290
3963
3794
3743
3736
3726
3704
3667
3607
3509
3373
3219
3084
2978
2864
2678
2401
2099
1864
1729
1641
1518
1330
1114
928
812
765
747
712
633
540
494
542
664
785
846
850
854
900
984
1063
1088
1033
906
751
611
501
404
305
208
137
109
127
180
256
345
446
585
786
1021
1207
1272
1239
1209
1238
1268
1197
1020
857
822
905
998
1040
1086
1222
1445
1655
1747
1732
1696
1707
1741
1731
1650
1540
1455
1397
1325
1226
1144
1128
1150
1113
954
722
537
458
425
335
166
-12
-118
-143
-145
-178
-248
-338
-450
-599
-791
-1000
-1188
-1339
-1460
-1557
-1626
-1658
-1656
-1638
-1623
-1618
-1613
-1589
-1538
-1466
-1392
-1337
-1303
-1267
-1204
-1113
-1024
-966
-938
-912
-854
-746
-592
-411
-229
-68
71
203
329
441
541
659
814
991
1139
1238
1323
1444
1598
1733
1810
1847
1883
1931
1986
2058
2164
2284
2360
2355
2301
2276
2313
2372
2392
2367
2354
2404
2524
2682
2831
2949
3047
3160
3300
3437
3522
3551
3580
3668
3796
3894
3949
4029
4192
4373
4436
4348
4235
4249
4388
4507
4516
4479
4515
4638
4763
4823
4831
4826
4803
4753
4722
4777
4948
5237
5666
6257
6938
7523
7861
7972
7973
7887
7588
6968
6113
5242
4516
3938
3450
3043
2730
2470
2184
1850
1516
1186
774
192
-524
-1251
-1901
-2489
-3068
-3643
-4197
-4736
-5274
-5781
-6203
-6537
-6873
-7320
-7872
-8402
-8781
-9001
-9193
-9477
-9831
-10088
-10090
-9860
-9586
-9457
-9492
-9578
-9639
-9747
-10003
-10383
-10730
-10920
-10974
-10978
-10934
-10748
-10385
-9956
-9627
-9450
-9359
-9289
-9278
-9376
-9527
-9585
-9460
-9208
-8949
-8745
-8551
-8296
-7980
-7671
-7440
-7283
-7129
-6913
-6613
-6262
-5902
-5540
-5156
-4744
-4350
-4040
-3836
-3664
-3444
-3180
-2936
-2729
-2469
-2075
-1625
-1320
-1261
-1312
-1256
-1058
-910
-994
-1238
-1386
-1283
-1013
-765
-619
-486
-261
44
337
549
693
823
955
1050
1063
1015
992
1074
1240
1362
1355
1261
1211
1259
1324
1306
1217
1167
1224
1341
1433
1458
1414
1254
929
489
83
-178
-353
-625
-1108
-1730
-2321
-2792
-3192
-3626
-4125
-4615
-5018
-5314
-5526
-5657
-5692
-5650
-5609
-5663
-5824
-6001
-6078
-6024
-5905
-5827
-5817
-5807
-5707
-5505
-5294
-5181
-5167
-5147
-5021
-4833
-4739
-4822
-4944
-4862
-4484
-4018
-3786
-3909
-4183
-4296
-4140
-3866
-3688
-3652
-3640
-3541
-3363
-3179
-3028
-2882
-2703
-2484
-2240
-1962
-1619
-1221
-816
-464
-178
78
336
578
747
836
917
1087
1365
1665
1898
2073
2271
2530
2808
3052
3254
3438
3599
3717
3816
3968
4214
4528
4873
5259
5688
6074
6276
6240
6069
5889
5682
5307
4691
3956
3322
2917
2698
2555
2437
2364
2352
2370
2373
2350
2335
2362
2412
2411
2306
2135
2011
2022
2106
2088
1845
1433
1039
804
719
674
576
411
225
68
-26
-59
-84
-175
-350
-526
-590
-509
-381
-328
-377
-462
-532
-605
-740
-924
-1070
-1078
-888
-471
163
900
1557
1972
2114
2046
1781
1228
321
-863
-2131
-3326
-4375
-5185
-5584
-5475
-5004
-4493
-4142
-3852
-3403
-2795
-2322
-2272
-2617
-3063
-3337
-3382
-3285
-3096
-2771
-2255
-1610
-984
-504
-174
151
687
1552
2604
3496
3919
3842
3510
3172
2798
2097
805
-1026
-2983
-4550
-5424
-5656
-5539
-5356
-5199
-4969
-4573
-4068
-3665
-3560
-3787
-4186
-4548
-4760
-4826
-4801
-4734
-4658
-4594
-4570
-4606
-4679
-4723
-4692
-4563
-4339
-4042
-3712
-3405
-3169
-3009
-2876
-2708
-2498
-2284
-2090
-1891
-1647
-1398
-1267
-1342
-1572
-1820
-2009
-2221
-2604
-3185
-3803
-4228
-4341
-4190
-3896
-3545
-3145
-2664
-2098
-1498
-955
-563
-349
-258
-236
-288
-430
-616
-734
-715
-621
-579
-594
-496
-97
589
1335
1888
2160
2212
2131
1940
1637
1242
778
245
-338
-858
-1121
-987
-496
158
797
1381
1963
2556
3082
3438
3616
3699
3777
3889
4027
4173
4325
4469
4562
4580
4547
4529
4582
4726
4963
5309
5788
6391
7077
7811
8625
9604
10790
12104
13387
14529
15546
16515
17444
18242
18841
19301
19763
20273
20764
21204
21249
22249
23095
23183
21977
20052
17671
15627
11850
6213
163
-4635
-8984
-15372
-24012
-30176
-28016
-16906
-2777
7511
12099
13276
12797
9755
4012
-1506
-3739
-3909
-6735
-14675
-24431
-29991
-28080
-19853
-8656
1854
7467
5811
-3169
-12931
-17371
-15311
-10999
-7634
-5541
-687
7001
12754
11264
1942
-10426
-19148
-20046
-12884
-550
12325
20985
22315
16615
7241
-1011
-4501
-2175
4451
12359
18529
21157
20174
16985
13653
11935
12613
15356
19088
22584
24965
25951
25842
25304
25026
25390
26352
27580
28752
29734
30546
31192
31592
31664
31439
31051
30615
30142
29580
28905
28152
27343
26438
25381
24196
22992
21858
20776
19650
18425
17154
15950
14866
13853
12812
11702
10579
9531
8594
7723
6834
5899
4997
4241
3662
3182
2706
2215
1768
1404
1101
820
565
355
165
-55
-298
-486
-563
-576
-612
-689
-737
-692
-571
-437
-315
-200
-114
-111
-211
-365
-512
-650
-800
-940
-988
-887
-662
-398
-155
64
270
438
501
406
162
-154
-447
-675
-872
-1093
-1331
-1520
-1604
-1611
-1638
-1760
-1976
-2220
-2419
-2545
-2612
-2655
-2705
-2759
-2776
-2701
-2511
-2233
-1919
-1615
-1333
-1063
-781
-484
-202
21
156
216
222
183
99
-26
-193
-400
-609
-708
-562
-172
245
421
303
115
91
215
294
278
394
880
1654
2364
2771
2949
3065
3046
2596
1553
128
-1280
-2431
-3347
-4105
-4667
-4955
-5001
-4940
-4869
-4791
-4725
-4771
-5032
-5474
-5907
-6120
-6022
-5653
-5125
-4587
-4194
-4055
-4165
-4418
-4698
-4958
-5210
-5469
-5694
-5806
-5745
-5510
-5161
-4792
-4479
-4253
-4101
-3995
-3928
-3899
-3906
-3941
-3983
-3997
-3930
-3741
-3467
-3232
-3148
-3205
-3280
-3259
-3161
-3080
-3061
-3036
-2918
-2701
-2464
-2271
-2122
-1977
-1813
-1649
-1520
-1443
-1405
-1357
-1253
-1110
-1014
-1041
-1149
-1199
-1092
-866
-632
-413
-110
354
915
1421
1799
2112
2439
2751
2931
2934
2841
2785
2816
2888
2934
2938
2929
2928
2937
2949
2960
2964
2950
2908
2849
2803
2797
2831
2881
2917
2917
2886
2833
2755
2626
2423
2167
1917
1711
1517
1255
885
459
77
-205
-419
-631
-873
-1129
-1378
-1603
-1791
-1924
-2015
-2103
-2216
-2323
-2366
-2335
-2295
-2320
-2400
-2454
-2425
-2353
-2321
-2338
-2320
-2196
-2000
-1834
-1759
-1756
-1791
-1893
-2116
-2437
-2724
-2846
-2785
-2631
-2462
-2252
-1909
-1398
-808
-299
4
95
73
67
142
270
379
444
524
701
996
1357
1698
1992
2274
2589
2940
3289
3606
3935
4381
5016
5796
6589
7298
7945
8604
9272
9850
10241
10469
10633
10784
10863
10792
10599
10415
10400
10625
11038
11465
11690
11576
11176
10646
10047
9261
8146
6774
5431
4374
3648
3175
2967
3095
3472
3777
3697
3225
2603
1974
1189
14
-1533
-3128
-4429
-5337
-5973
-6468
-6836
-7053
-7162
-7260
-7400
-7562
-7710
-7868
-8098
-8419
-8748
-8975
-9069
-9122
-9263
-9512
-9748
-9829
-9748
-9619
-9529
-9431
-9211
-8839
-8416
-8050
-7750
-7451
-7133
-6862
-6698
-6598
-6452
-6193
-5873
-5590
-5376
-5181
-4951
-4704
-4518
-4435
-4424
-4423
-4415
-4449
-4564
-4715
-4803
-4765
-4639
-4527
-4499
-4533
-4546
-4469
-4300
-4085
-3866
-3663
-3469
-3266
-3035
-2766
-2461
-2135
-1810
-1503
-1220
-951
-667
-342
15
363
670
939
1210
1510
1819
2097
2327
2526
2721
2918
3109
3302
3507
3729
3941
4115
4250
4372
4492
4601
4681
4738
4796
4853
4885
4884
4893
4958
5062
5129
5111
5057
5069
5178
5306
5359
5350
5391
5572
5856
6112
6243
6248
6184
6084
5936
5715
5417
5053
4641
4211
3812
3502
3304
3191
3104
3005
2914
2875
2906
2962
2977
2930
2863
2837
2873
2945
3015
3073
3129
3204
3307
3414
3473
3454
3395
3375
3409
3399
3226
2920
2656
2584
2648
2654
2501
2289
2179
2197
2221
2151
2010
1874
1750
1594
1411
1275
1230
1216
1148
1018
909
881
901
885
807
712
650
622
584
501
388
304
294
347
399
384
313
258
285
382
487
561
611
664
707
712
676
639
640
672
700
690
640
584
588
709
937
1186
1401
1656
2098
2757
3435
3866
3964
3886
3798
3656
3255
2501
1567
737
151
-257
-593
-860
-991
-977
-908
-878
-899
-918
-916
-934
-1015
-1147
-1258
-1296
-1268
-1216
-1153
-1054
-892
-689
-528
-474
-506
-518
-423
-247
-109
-82
-112
-78
77
293
471
585
680
799
911
957
923
847
785
781
859
995
1110
1129
1072
1055
1166
1349
1442
1367
1219
1165
1265
1449
1620
1751
1856
1934
1979
2003
2040
2103
2179
2265
2380
2508
2575
2540
2467
2475
2594
2725
2749
2658
2556
2516
2512
2469
2365
2243
2124
1975
1765
1531
1342
1211
1076
884
655
461
319
166
-55
-321
-568
-760
-933
-1139
-1379
-1599
-1756
-1854
-1926
-1996
-2079
-2188
-2328
-2499
-2696
-2924
-3174
-3415
-3609
-3758
-3920
-4136
-4373
-4535
-4578
-4558
-4593
-4741
-4949
-5126
-5232
-5317
-5454
-5665
-5896
-6067
-6146
-6178
-6246
-6402
-6612
-6803
-6936
-7037
-7153
-7317
-7526
-7757
-7988
-8188
-8338
-8469
-8639
-8866
-9079
-9194
-9227
-9293
-9458
-9653
-9755
-9761
-9807
-9975
-10176
-10270
-10264
-10302
-10452
-10618
-10664
-10610
-10589
-10633
-10608
-10396
-10083
-9877
-9858
-9889
-9801
-9584
-9364
-9220
-9116
-8989
-8838
-8693
-8542
-8341
-8093
-7867
-7710
-7580
-7401
-7145
-6852
-6557
-6243
-5886
-5506
-5161
-4875
-4592
-4236
-3793
-3332
-2955
-2680
-2420
-2074
-1635
-1188
-789
-388
80
583
1020
1389
1848
2521
3269
3765
3821
3614
3480
3510
3444
2983
2137
1205
472
-29
-446
-903
-1405
-1889
-2293
-2567
-2688
-2682
-2628
-2595
-2592
-2575
-2515
-2411
-2277
-2126
-1977
-1866
-1813
-1782
-1702
-1536
-1310
-1099
-974
-930
-878
-731
-510
-362
-416
-622
-770
-722
-588
-622
-921
-1290
-1455
-1365
-1238
-1302
-1547
-1757
-1771
-1644
-1557
-1629
-1859
-2159
-2446
-2650
-2745
-2795
-2916
-3157
-3403
-3464
-3284
-3039
-3006
-3289
-3740
-4142
-4420
-4644
-4847
-4920
-4727
-4280
-3742
-3232
-2696
-2021
-1259
-634
-333
-313
-348
-279
-144
-62
-50
-9
142
358
531
624
699
816
954
1040
1045
1035
1108
1317
1616
1926
2185
2377
2524
2664
2809
2949
3080
3237
3463
3734
3959
4074
4138
4279
4536
4781
4866
4817
4826
5010
5236
5259
5023
4746
4687
4844
4971
4872
4638
4529
4677
4950
5114
5071
4911
4777
4707
4634
4495
4303
4128
4036
4031
4065
4079
4062
4065
4131
4226
4255
4166
4010
3899
3881
3886
3820
3700
3644
3717
3835
3840
3684
3482
3374
3360
3316
3144
2881
2627
2425
2239
2033
1832
1679
1588
1548
1565
1647
1752
1800
1756
1678
1623
1551
1375
1097
850
745
739
689
550
414
394
470
530
496
405
343
342
359
324
208
57
-15
86
323
530
529
246
-248
-793
-1197
-1286
-1010
-484
101
705
1500
2610
3797
4540
4495
3851
3125
2622
2204
1582
759
87
-88
246
813
1305
1551
1534
1323
1019
682
298
-190
-774
-1328
-1679
-1777
-1747
-1746
-1833
-1954
-2036
-2090
-2141
-2152
-2052
-1875
-1853
-2253
-3120
-4159
-4962
-5334
-5402
-5386
-5310
-4976
-4224
-3181
-2180
-1487
-1142
-1026
-1056
-1237
-1557
-1910
-2167
-2300
-2384
-2451
-2385
-2014
-1333
-621
-265
-437
-951
-1453
-1752
-1944
-2236
-2681
-3111
-3322
-3248
-2972
-2621
-2260
-1922
-1644
-1472
-1412
-1419
-1446
-1495
-1611
-1811
-2028
-2164
-2170
-2093
-2023
-2014
-2064
-2155
-2280
-2431
-2569
-2635
-2590
-2453
-2284
-2164
-2161
-2270
-2388
-2352
-2068
-1612
-1170
-854
-611
-297
152
651
1056
1290
1402
1521
1772
2213
2797
3388
3875
4267
4670
5140
5583
5857
5947
6005
6183
6464
6719
6911
7158
7572
8093
8533
8813
9008
9186
9261
9125
8833
8527
8208
7700
6926
6056
5243
4325
3037
1473
93
-882
-1936
-4030
-7640
-12504
-15948
-17994
-18814
-21089
-24184
-25401
-22988
-19008
-17169
-18100
-18942
-18408
-19676
-25485
-31472
-28738
-15039
-290
3091
-5132
-11980
-6478
7058
14049
6613
-8105
-16960
-14791
-7126
-1419
683
2027
4370
6573
7373
7008
7135
6548
5361
2705
503
-85
1366
4353
7704
10175
11042
10399
9004
7827
7585
8481
10211
12163
13683
14353
14156
13450
12738
12382
12464
12887
13566
14464
15489
16423
17084
17527
18041
18851
19844
20651
20997
20917
20617
20204
19608
18769
17820
16998
16425
16033
15684
15336
15045
14833
14612
14264
13764
13200
12665
12163
11627
11022
10399
9834
9349
8886
8373
7797
7206
6653
6170
5753
5362
4926
4389
3791
3256
2881
2606
2271
1787
1251
838
588
355
-23
-550
-1078
-1485
-1785
-2067
-2366
-2645
-2865
-3035
-3186
-3317
-3419
-3515
-3654
-3847
-4047
-4210
-4352
-4532
-4771
-5024
-5238
-5391
-5502
-5567
-5555
-5448
-5275
-5093
-4937
-4809
-4695
-4603
-4553
-4546
-4563
-4580
-4587
-4576
-4517
-4375
-4152
-3909
-3720
-3605
-3515
-3379
-3178
-2968
-2808
-2694
-2553
-2337
-2077
-1864
-1770
-1788
-1842
-1865
-1858
-1879
-1993
-2183
-2329
-2257
-1868
-1225
-514
104
595
1034
1474
1864
2080
2032
1742
1325
921
622
452
376
339
308
293
325
412
511
553
498
379
278
262
334
427
457
395
272
135
-6
-184
-416
-657
-807
-791
-606
-329
-53
161
307
420
533
658
782
885
965
1045
1145
1260
1367
1454
1533
1616
1676
1673
1602
1523
1499
1528
1551
1526
1479
1458
1460
1440
1384
1349
1396
1518
1650
1759
1881
2066
2298
2494
2594
2603
2569
2520
2456
2384
2326
2296
2274
2237
2188
2150
2141
2146
2142
2118
2084
2045
2010
1994
2019
2083
2157
2203
2204
2167
2122
2114
2175
2307
2472
2649
2896
3310
3889
4456
4784
4802
4652
4490
4286
3866
3159
2333
1640
1171
813
448
98
-135
-230
-294
-430
-636
-834
-981
-1107
-1251
-1405
-1520
-1574
-1593
-1630
-1710
-1827
-1949
-2061
-2172
-2298
-2437
-2562
-2635
-2639
-2594
-2561
-2611
-2770
-2978
-3118
-3118
-3022
-2930
-2874
-2754
-2449
-1963
-1454
-1084
-879
-742
-577
-394
-257
-184
-125
-19
158
401
717
1119
1572
2002
2334
2561
2747
2960
3214
3468
3693
3909
4174
4519
4911
5289
5625
5949
6293
6638
6914
7081
7179
7302
7489
7682
7786
7773
7725
7753
7899
8098
8263
8372
8468
8593
8734
8839
8883
8892
8906
8922
8907
8862
8854
8963
9192
9437
9574
9576
9513
9473
9455
9380
9197
8943
8696
8487
8268
7976
7613
7265
7035
6962
6998
7067
7129
7194
7287
7384
7406
7279
6987
6573
6098
5606
5121
4658
4218
3783
3334
2873
2413
1952
1449
862
188
-535
-1272
-2017
-2765
-3492
-4166
-4783
-5382
-6000
-6633
-7249
-7840
-8417
-8972
-9445
-9776
-9983
-10167
-10423
-10753
-11071
-11305
-11459
-11583
-11696
-11789
-11868
-11958
-12055
-12097
-12024
-11865
-11731
-11709
-11764
-11779
-11685
-11526
-11396
-11337
-11313
-11264
-11160
-10993
-10751
-10426
-10054
-9706
-9421
-9172
-8896
-8559
-8206
-7911
-7675
-7424
-7087
-6679
-6273
-5893
-5488
-5010
-4489
-3996
-3546
-3085
-2610
-2233
-2060
-2020
-1917
-1653
-1358
-1195
-1097
-805
-200
494
913
953
845
840
883
713
225
-384
-823
-1010
-1093
-1201
-1287
-1240
-1062
-880
-806
-815
-825
-802
-802
-884
-997
-1001
-798
-432
-31
320
645
1022
1453
1843
2100
2237
2347
2482
2596
2619
2556
2475
2427
2410
2411
2444
2523
2632
2749
2878
3019
3105
3036
2795
2511
2355
2352
2365
2259
2065
1960
2052
2265
2423
2445
2415
2481
2692
2958
3161
3288
3418
3616
3837
3994
4039
3995
3892
3733
3509
3244
2971
2700
2433
2211
2095
2082
2076
1970
1767
1571
1465
1412
1319
1171
1051
1031
1080
1097
1021
890
800
808
874
914
862
722
551
407
296
176
11
-186
-360
-474
-553
-651
-805
-994
-1172
-1309
-1426
-1564
-1747
-1950
-2111
-2187
-2205
-2248
-2383
-2616
-2892
-3154
-3396
-3655
-3957
-4276
-4554
-4750
-4878
-4982
-5102
-5256
-5430
-5594
-5723
-5818
-5913
-6037
-6166
-6231
-6184
-6065
-5991
-6042
-6179
-6292
-6321
-6314
-6337
-6372
-6336
-6205
-6048
-5929
-5797
-5539
-5134
-4732
-4500
-4439
-4386
-4215
-3970
-3793
-3746
-3747
-3702
-3616
-3572
-3608
-3664
-3664
-3609
-3571
-3601
-3675
-3726
-3729
-3718
-3726
-3739
-3723
-3674
-3616
-3560
-3488
-3379
-3256
-3160
-3101
-3054
-3001
-2961
-2950
-2934
-2865
-2752
-2672
-2665
-2671
-2581
-2369
-2134
-1980
-1895
-1780
-1585
-1377
-1231
-1115
-906
-545
-104
323
775
1391
2205
3021
3558
3721
3680
3655
3641
3403
2786
1926
1147
671
456
311
138
-19
-76
-11
148
355
541
609
521
362
287
368
514
603
634
707
870
1039
1135
1231
1486
1918
2317
2423
2204
1882
1698
1688
1701
1605
1436
1335
1407
1660
2024
2418
2787
3082
3274
3375
3438
3527
3670
3825
3930
3956
3957
4032
4221
4461
4642
4715
4749
4849
5026
5193
5299
5400
5586
5812
5872
5633
5248
5075
5295
5644
5680
5318
5013
5280
6077
6776
6815
6293
5823
5811
6040
6014
5578
5071
4895
5058
5259
5307
5315
5471
5756
5964
5975
5890
5872
5946
5990
5891
5668
5416
5195
5007
4831
4661
4485
4307
4171
4110
4096
4054
3964
3897
3917
3951
3853
3616
3459
3581
3838
3837
3390
2817
2645
2989
3381
3292
2754
2332
2455
2938
3224
3032
2623
2432
2544
2671
2552
2257
2066
2120
2301
2414
2382
2267
2158
2070
1961
1789
1555
1309
1120
1009
927
785
546
257
-21
-292
-602
-974
-1368
-1721
-1993
-2150
-2153
-2007
-1823
-1763
-1891
-2102
-2255
-2347
-2523
-2872
-3294
-3600
-3719
-3745
-3762
-3728
-3562
-3323
-3198
-3288
-3460
-3506
-3392
-3303
-3407
-3644
-3781
-3687
-3469
-3321
-3310
-3331
-3288
-3202
-3144
-3105
-2972
-2677
-2311
-2044
-1956
-1941
-1844
-1655
-1516
-1536
-1633
-1617
-1411
-1093
-727
-218
557
1500
2278
2625
2590
2428
2249
1882
1109
-31
-1228
-2180
-2807
-3211
-3495
-3659
-3668
-3529
-3329
-3181
-3146
-3206
-3285
-3354
-3464
-3668
-3925
-4112
-4148
-4102
-4106
-4201
-4322
-4406
-4491
-4633
-4787
-4825
-4698
-4503
-4391
-4408
-4464
-4446
-4345
-4253
-4262
-4365
-4467
-4473
-4364
-4217
-4127
-4127
-4178
-4213
-4207
-4193
-4198
-4201
-4152
-4042
-3923
-3850
-3826
-3813
-3802
-3835
-3942
-4074
-4162
-4215
-4327
-4541
-4747
-4783
-4652
-4557
-4681
-4970
-5174
-5122
-4898
-4720
-4674
-4644
-4466
-4138
-3796
-3558
-3417
-3281
-3112
-2969
-2922
-2959
-2968
-2846
-2620
-2421
-2351
-2373
-2366
-2253
-2070
-1898
-1763
-1625
-1462
-1321
-1271
-1336
-1486
-1681
-1896
-2102
-2260
-2334
-2320
-2223
-2038
-1759
-1399
-1011
-670
-435
-326
-324
-395
-505
-627
-742
-842
-914
-949
-929
-843
-706
-567
-465
-401
-334
-227
-112
-62
-112
-222
-339
-470
-657
-889
-1074
-1096
-904
-523
-7
585
1194
1742
2143
2334
2285
2005
1539
982
447
40
-161
-131
105
462
889
1415
2086
2829
3394
3518
3178
2625
2176
1931
1731
1379
888
483
376
539
746
803
726
668
744
923
1152
1454
1864
2284
2504
2429
2233
2181
2305
2343
2049
1511
1083
1020
1249
1512
1668
1798
2039
2419
2842
3184
3357
3342
3214
3124
3187
3362
3501
3547
3636
3956
4488
4967
5133
4972
4688
4427
4117
3582
2768
1811
907
180
-340
-662
-822
-912
-1038
-1243
-1481
-1684
-1830
-1944
-2045
-2122
-2161
-2148
-2066
-1889
-1630
-1363
-1171
-1070
-988
-834
-577
-249
111
508
973
1505
2051
2529
2886
3124
3271
3351
3370
3339
3299
3294
3339
3417
3511
3642
3845
4135
4486
4863
5243
5608
5933
6211
6472
6737
6973
7118
7178
7281
7598
8188
8945
9719
10452
11195
12019
12891
13709
14386
14874
15244
15647
15758
16854
17920
18707
18994
19259
19326
19685
18367
15382
11742
8142
3112
-5852
-16261
-23450
-22242
-13298
-2129
6092
10198
11673
11380
8975
4759
527
-4010
-9326
-15022
-18195
-16081
-6973
5443
16759
22404
19619
8802
-1837
-6034
-424
8048
9732
1464
-7649
-10495
-4809
2549
4975
1752
-1930
-2974
-2190
-266
1938
3430
4398
3028
-127
-3217
-4525
-3535
-498
1485
2923
3055
2017
-36
-1199
-2617
-2040
-355
994
801
441
827
1605
1792
126
-2277
-2838
-2389
-1175
-1550
-2017
-1931
-1183
-2405
-4282
-3604
1872
9418
13375
8812
-900
-8878
-10212
-5584
8
1077
-2272
-8092
-12492
-12897
-8309
204
12142
23440
29471
26564
15418
2385
-5655
-4778
348
3339
1377
-2598
-2943
2183
11197
18059
18928
13153
2868
-8042
-15327
-16062
-10447
-1555
6150
9313
7040
886
-6176
-11233
-12631
-10456
-6226
-2032
442
580
-1083
-3349
-5063
-5607
-4989
-3619
-2045
-788
-227
-476
-1332
-2379
-3224
-3670
-3729
-3525
-3213
-2929
-2749
-2653
-2563
-2431
-2285
-2173
-2074
-1907
-1621
-1260
-905
-586
-264
89
446
752
987
1182
1374
1565
1730
1841
1896
1924
1959
2008
2034
1988
1875
1773
1767
1855
1931
1868
1633
1324
1077
954
914
862
742
582
466
461
552
652
694
693
733
876
1105
1344
1542
1718
1915
2134
2329
2451
2486
2467
2424
2361
2270
2148
2011
1877
1745
1597
1447
1351
1352
1414
1417
1263
976
670
413
157
-188
-627
-1066
-1421
-1700
-1954
-2188
-2351
-2435
-2510
-2655
-2868
-3076
-3226
-3344
-3493
-3698
-3928
-4141
-4326
-4498
-4682
-4898
-5147
-5411
-5659
-5862
-6004
-6086
-6108
-6069
-5974
-5844
-5699
-5560
-5431
-5294
-5117
-4895
-4673
-4522
-4461
-4433
-4360
-4229
-4107
-4055
-4060
-4049
-3984
-3885
-3777
-3653
-3502
-3352
-3257
-3216
-3153
-3005
-2791
-2593
-2457
-2338
-2162
-1923
-1685
-1514
-1411
-1329
-1225
-1099
-976
-874
-778
-656
-497
-339
-253
-293
-451
-665
-878
-1087
-1319
-1583
-1842
-2036
-2137
-2163
-2151
-2124
-2078
-2001
-1895
-1778
-1669
-1566
-1454
-1325
-1197
-1092
-1001
-893
-742
-559
-381
-238
-125
-6
144
313
475
623
781
981
1224
1483
1740
2011
2310
2606
2839
3002
3169
3405
3685
3944
4214
4651
5349
6161
6781
7034
7030
6988
6925
6620
5891
4849
3817
3032
2480
2028
1636
1378
1312
1384
1487
1561
1605
1624
1582
1441
1215
974
780
636
495
317
125
-19
-92
-138
-215
-308
-341
-274
-170
-124
-134
-117
-35
36
4
-110
-176
-126
-69
-195
-549
-964
-1237
-1348
-1467
-1736
-2076
-2268
-2194
-1962
-1780
-1714
-1638
-1404
-1024
-664
-465
-403
-330
-144
125
357
479
536
641
847
1086
1232
1241
1192
1189
1241
1271
1223
1147
1122
1161
1193
1168
1108
1053
987
859
661
445
246
28
-253
-579
-864
-1041
-1140
-1233
-1361
-1501
-1604
-1665
-1737
-1877
-2089
-2301
-2422
-2421
-2368
-2383
-2513
-2669
-2715
-2615
-2490
-2513
-2748
-3085
-3348
-3446
-3419
-3363
-3330
-3311
-3262
-3161
-3031
-2939
-2955
-3096
-3311
-3527
-3710
-3870
-4016
-4098
-4050
-3877
-3675
-3540
-3473
-3380
-3187
-2926
-2713
-2630
-2638
-2626
-2526
-2371
-2258
-2239
-2260
-2232
-2152
-2100
-2127
-2161
-2071
-1828
-1553
-1387
-1326
-1221
-955
-579
-255
-86
-41
-34
-29
-56
-156
-345
-599
-874
-1115
-1272
-1333
-1330
-1298
-1237
-1127
-967
-785
-612
-458
-317
-194
-113
-86
-95
-108
-97
-56
-7
24
18
-16
-61
-113
-188
-290
-392
-445
-422
-346
-245
-128
3
138
265
395
545
700
833
971
1226
1685
2285
2844
3241
3531
3812
4024
3945
3418
2554
1619
780
-2
-810
-1585
-2157
-2448
-2542
-2581
-2610
-2586
-2498
-2419
-2429
-2520
-2600
-2604
-2563
-2556
-2622
-2719
-2776
-2767
-2730
-2727
-2771
-2825
-2846
-2828
-2787
-2729
-2647
-2547
-2466
-2436
-2441
-2436
-2405
-2384
-2408
-2454
-2464
-2416
-2358
-2337
-2337
-2290
-2174
-2046
-1978
-1969
-1958
-1898
-1809
-1730
-1664
-1590
-1500
-1414
-1342
-1269
-1185
-1117
-1104
-1133
-1139
-1084
-1006
-973
-997
-1000
-915
-770
-668
-668
-717
-712
-623
-525
-509
-576
-652
-700
-773
-937
-1152
-1288
-1251
-1083
-908
-796
-704
-556
-355
-187
-139
-222
-386
-569
-735
-860
-937
-966
-953
-907
-847
-801
-788
-791
-784
-779
-835
-975
-1132
-1182
-1079
-917
-838
-876
-940
-920
-816
-717
-692
-719
-730
-676
-552
-381
-200
-59
-6
-35
-75
-47
67
209
315
400
538
772
1053
1290
1445
1570
1719
1873
1964
1962
1925
1923
1968
2006
2002
1979
1989
2059
2170
2280
2358
2415
2493
2623
2783
2885
2869
2767
2670
2627
2600
2541
2474
2485
2607
2782
2935
3068
3231
3421
3552
3540
3403
3252
3187
3231
3340
3444
3495
3492
3488
3555
3693
3789
3731
3527
3329
3268
3300
3267
3088
2861
2731
2708
2682
2589
2507
2529
2644
2807
3075
3566
4226
4770
4929
4755
4563
4533
4468
4021
3129
2129
1425
1106
935
678
374
248
424
754
970
931
738
597
574
565
439
199
-27
-126
-103
-27
51
86
7
-233
-557
-786
-822
-775
-847
-1073
-1267
-1253
-1095
-1012
-1103
-1238
-1242
-1132
-1101
-1262
-1524
-1709
-1739
-1676
-1610
-1583
-1600
-1647
-1673
-1599
-1404
-1191
-1092
-1129
-1192
-1165
-1055
-966
-967
-1040
-1131
-1199
-1205
-1133
-1039
-1030
-1157
-1316
-1337
-1199
-1112
-1299
-1739
-2148
-2280
-2182
-2131
-2327
-2682
-2945
-2970
-2849
-2771
-2825
-2936
-2983
-2936
-2875
-2893
-2992
-3100
-3138
-3101
-3066
-3111
-3240
-3378
-3437
-3401
-3335
-3293
-3266
-3205
-3107
-3030
-3038
-3121
-3217
-3302
-3423
-3640
-3926
-4184
-4332
-4363
-4334
-4301
-4289
-4296
-4304
-4277
-4199
-4097
-4035
-4052
-4120
-4165
-4148
-4097
-4070
-4085
-4101
-4069
-3976
-3866
-3779
-3704
-3594
-3438
-3317
-3325
-3449
-3547
-3495
-3332
-3222
-3253
-3321
-3254
-3016
-2759
-2652
-2718
-2842
-2927
-2981
-3060
-3173
-3280
-3349
-3383
-3397
-3381
-3337
-3287
-3256
-3236
-3199
-3152
-3156
-3256
-3413
-3542
-3611
-3683
-3815
-3970
-4042
-3983
-3865
-3788
-3768
-3734
-3641
-3531
-3471
-3456
-3426
-3356
-3284
-3265
-3301
-3347
-3365
-3369
-3396
-3459
-3542
-3601
-3600
-3539
-3461
-3404
-3360
-3298
-3214
-3139
-3103
-3096
-3085
-3040
-2909
-2604
-2067
-1384
-781
-453
-388
-407
-415
-534
-948
-1646
-2378
-2892
-3163
-3356
-3591
-3806
-3883
-3845
-3845
-3997
-4248
-4451
-4537
-4576
-4654
-4750
-4754
-4608
-4379
-4196
-4128
-4146
-4205
-4314
-4509
-4773
-5002
-5092
-5021
-4854
-4667
-4475
-4235
-3909
-3516
-3136
-2843
-2646
-2493
-2338
-2201
-2126
-2100
-2024
-1796
-1420
-1013
-673
-372
2
464
859
989
834
598
506
586
660
568
343
154
89
56
-95
-385
-680
-842
-853
-784
-675
-482
-146
327
851
1327
1701
1974
2181
2336
2418
2398
2292
2175
2144
2240
2430
2676
2990
3400
3878
4336
4709
4980
5130
5087
4773
4197
3491
2812
2227
1725
1296
987
855
916
1123
1394
1644
1792
1799
1709
1619
1610
1694
1827
1966
2089
2180
2224
2214
2157
2061
1924
1735
1507
1277
1084
959
909
913
927
914
889
922
1067
1312
1596
1866
2133
2427
2751
3061
3306
3482
3636
3835
4121
4468
4810
5098
5353
5637
5967
6278
6494
6615
6719
6854
6980
7018
6956
6860
6777
6662
6433
6070
5644
5217
4769
4249
3675
3141
2717
2368
2001
1577
1150
795
521
285
69
-105
-224
-320
-433
-559
-656
-715
-785
-920
-1108
-1279
-1389
-1481
-1630
-1860
-2117
-2345
-2556
-2816
-3159
-3536
-3879
-4203
-4591
-5032
-5415
-6049
-5658
-5311
-5337
-5984
-6675
-7397
-7462
-8989
-11973
-14789
-16063
-17155
-21204
-28346
32239
-29781
-17506
-3076
6779
11274
13506
13965
9778
603
-7207
-5798
3367
10097
4593
-12139
-29150
32729
-20321
1126
19293
25528
20585
12810
10232
13998
19161
21469
21955
21714
21091
14540
1726
-11310
-15735
-8760
3877
13216
12268
3727
-5385
-8632
-5889
-1976
-3044
-7080
-8304
-3468
2545
3427
-653
-4263
-1306
6286
9827
5391
-4509
-13123
-15148
-10576
-2569
4625
8336
5810
-2041
-9787
-10386
-3214
5485
4892
-5916
-15393
-11002
5383
16673
11717
-3740
-11760
-5513
2996
-1924
-15827
-20985
-6378
16989
28169
19471
1618
-8259
-6196
1163
6882
9627
10784
9683
3941
-3862
-9667
-8412
-1329
7136
12098
11335
5967
-1270
-7360
-10224
-9158
-5172
-465
2614
3027
834
-2637
-5931
-7720
-7725
-6265
-4367
-2804
-2201
-2456
-3321
-4171
-4707
-4638
-4172
-3449
-2842
-2388
-2232
-2219
-2390
-2530
-2656
-2608
-2544
-2436
-2428
-2325
-2146
-1776
-1448
-1150
-975
-689
-348
73
302
403
361
438
563
767
825
833
738
730
712
779
785
817
729
624
416
267
79
-48
-229
-287
-274
-94
23
99
46
80
107
140
-57
-360
-754
-999
-1201
-1307
-1466
-1523
-1553
-1450
-1384
-1279
-1258
-1204
-1251
-1301
-1458
-1561
-1668
-1633
-1588
-1465
-1416
-1310
-1218
-1008
-854
-722
-747
-722
-647
-392
-170
44
148
333
529
843
1179
1724
2361
3045
3432
3563
3466
3433
3328
3074
2448
1709
994
549
187
-94
-417
-581
-667
-611
-608
-564
-571
-498
-486
-446
-481
-426
-382
-266
-249
-225
-261
-176
-86
53
63
88
101
263
395
505
444
396
330
366
321
267
134
120
134
239
255
282
237
267
243
245
144
78
-40
-94
-222
-324
-497
-589
-707
-765
-908
-1005
-1124
-1127
-1155
-1139
-1206
-1215
-1264
-1250
-1314
-1333
-1395
-1381
-1441
-1495
-1653
-1755
-1885
-1932
-2042
-2116
-2255
-2306
-2361
-2295
-2238
-2087
-1972
-1787
-1663
-1507
-1447
-1355
-1329
-1257
-1282
-1306
-1418
-1436
-1426
-1287
-1182
-1023
-916
-719
-557
-340
-196
13
196
459
655
885
1051
1295
1500
1754
1932
2171
2388
2698
2956
3254
3482
3764
3974
4192
4286
4393
4429
4524
4544
4578
4519
4527
4505
4525
4399
4209
3878
3575
3184
2790
2288
1855
1386
895
169
-604
-1329
-1777
-2200
-2691
-3346
-3789
-3977
-4011
-4417
-5234
-6308
-7159
-7856
-8545
-9528
-10530
-11320
-11596
-11583
-11388
-11235
-10977
-10688
-10273
-9910
-9507
-9142
-8640
-8085
-7358
-6602
-5725
-4867
-3937
-3085
-2225
-1493
-779
-206
329
729
1168
1582
2081
2472
2795
2917
3005
3017
3121
3220
3418
3568
3754
3847
3972
4018
4082
4027
3983
3863
3793
3654
3589
3550
3682
3803
3947
4034
4322
4757
5298
5562
5562
5334
5197
5030
4763
4166
3478
2810
2384
2037
1835
1689
1733
1763
1780
1661
1630
1634
1718
1657
1568
1443
1463
1449
1420
1262
1173
1082
1047
864
661
425
354
318
351
293
293
278
341
295
220
53
20
67
277
434
587
629
717
741
759
607
432
215
137
65
66
39
182
421
794
1040
1206
1245
1377
1488
1601
1519
1386
1181
1076
943
864
720
658
583
602
577
617
610
681
698
738
650
577
476
505
486
431
213
77
46
207
263
218
49
70
231
515
639
695
662
702
631
495
211
1
-216
-389
-667
-853
-942
-800
-658
-518
-514
-471
-492
-511
-680
-835
-1032
-1161
-1395
-1614
-1826
-1823
-1775
-1732
-1906
-2094
-2237
-2141
-2014
-1870
-1844
-1729
-1571
-1290
-1090
-909
-856
-787
-808
-789
-814
-750
-747
-749
-878
-945
-989
-906
-913
-980
-1201
-1347
-1440
-1385
-1414
-1498
-1707
-1793
-1791
-1652
-1636
-1698
-1880
-1937
-1945
-1852
-1842
-1791
-1773
-1692
-1738
-1823
-1992
-2036
-2092
-2140
-2346
-2518
-2651
-2615
-2614
-2610
-2713
-2760
-2872
-2976
-3175
-3275
-3352
-3355
-3496
-3655
-3830
-3817
-3770
-3687
-3745
-3780
-3838
-3813
-3882
-3942
-4035
-3977
-3907
-3802
-3834
-3840
-3863
-3787
-3801
-3817
-3890
-3814
-3710
-3530
-3382
-3017
-2456
-1710
-1180
-922
-941
-895
-852
-875
-1249
-1791
-2379
-2742
-3036
-3252
-3512
-3623
-3662
-3573
-3562
-3558
-3663
-3710
-3758
-3679
-3636
-3573
-3609
-3544
-3415
-3153
-3007
-2926
-2965
-2901
-2836
-2719
-2702
-2632
-2566
-2386
-2236
-2005
-1814
-1585
-1481
-1358
-1246
-985
-774
-619
-651
-652
-634
-475
-359
-212
-139
3
105
284
432
661
826
1038
1222
1533
1828
2140
2311
2520
2739
3082
3326
3495
3498
3562
3642
3818
3893
3974
4020
4218
4431
4675
4775
4899
5054
5387
5677
5876
5791
5633
5458
5493
5575
5669
5568
5437
5302
5379
5493
5604
5492
5319
5097
5005
4866
4689
4339
4028
3760
3680
3584
3491
3288
3195
3167
3256
3170
2909
2424
2023
1717
1574
1339
1091
823
767
775
822
714
644
610
699
627
391
-52
-391
-629
-702
-842
-948
-1047
-953
-822
-629
-535
-407
-354
-310
-443
-610
-832
-923
-1029
-1137
-1422
-1723
-2051
-2225
-2384
-2478
-2653
-2758
-2885
-2951
-3126
-3270
-3403
-3353
-3311
-3301
-3478
-3618
-3704
-3620
-3613
-3649
-3776
-3741
-3624
-3426
-3398
-3422
-3485
-3393
-3330
-3306
-3458
-3546
-3555
-3390
-3298
-3251
-3314
-3253
-3144
-2951
-2888
-2865
-2949
-2955
-2972
-2903
-2908
-2916
-3053
-3161
-3294
-3313
-3370
-3374
-3416
-3338
-3272
-3168
-3170
-3111
-3052
-2936
-3017
-3225
-3526
-3582
-3453
-3169
-2981
-2701
-2236
-1425
-627
-51
85
62
-52
-173
-597
-1271
-2132
-2786
-3219
-3394
-3563
-3648
-3707
-3586
-3451
-3273
-3222
-3177
-3223
-3238
-3344
-3418
-3555
-3630
-3768
-3855
-3991
-4033
-4102
-4110
-4181
-4164
-4138
-4004
-3933
-3844
-3825
-3705
-3586
-3402
-3321
-3234
-3217
-3117
-3042
-2901
-2840
-2747
-2711
-2600
-2545
-2461
-2463
-2391
-2325
-2198
-2223
-2327
-2549
-2648
-2703
-2673
-2750
-2793
-2824
-2691
-2599
-2546
-2652
-2698
-2723
-2650
-2698
-2786
-2949
-2951
-2862
-2626
-2448
-2257
-2150
-1986
-1869
-1682
-1537
-1326
-1190
-1047
-1020
-962
-945
-838
-766
-625
-540
-413
-389
-360
-401
-337
-280
-192
-279
-429
-673
-804
-938
-1030
-1261
-1504
-1810
-2024
-2269
-2458
-2703
-2848
-2965
-2934
-2895
-2758
-2638
-2401
-2160
-1837
-1612
-1405
-1327
-1244
-1273
-1305
-1409
-1377
-1281
-1077
-1008
-993
-1032
-857
-588
-288
-250
-340
-506
-522
-564
-619
-753
-646
-283
331
800
1071
1109
1206
1285
1323
1085
771
491
512
673
943
1111
1300
1415
1537
1513
1480
1384
1375
1318
1304
1250
1341
1489
1778
2030
2322
2517
2713
2791
2899
2985
3214
3465
3786
3969
4068
3977
3874
3705
3586
3351
3108
2837
2809
2968
3309
3502
3542
3366
3213
3016
2835
2505
2197
1892
1733
1532
1333
1043
887
824
917
933
926
819
817
874
1131
1445
1856
2179
2552
2992
3720
4516
5204
5438
5390
5210
5174
5036
4659
3878
3052
2364
2016
1764
1584
1376
1363
1465
1712
1870
2011
2053
2171
2261
2402
2450
2534
2572
2701
2787
2901
2887
2864
2751
2702
2623
2620
2550
2514
2412
2378
2279
2179
1920
1645
1308
1068
785
525
158
-170
-538
-835
-1215
-1602
-2082
-2726
-3406
-3808
-4026
-4383
-5174
-5971
-6193
-6047
-6438
-7600
-8626
-8457
-7838
-8862
-12156
-15320
-15956
-12687
-9910
-10984
-15404
-19023
-19572
-19339
-21843
-25991
-26794
-21262
-13314
-9646
-12577
-17209
-17241
-10729
-932
7797
12494
10632
656
-14988
-28829
-32761
-25116
-11970
-811
5591
8954
10336
8200
1658
-5238
-5898
1869
13649
19618
16217
7176
813
3000
12472
22159
24866
18603
7613
-919
-1362
6632
18017
25268
23856
15008
5030
619
4129
12253
18720
19162
14074
8051
6279
10411
17291
21473
19762
13659
8106
7845
13635
21558
25868
23448
16028
8842
7025
11745
19268
23696
21308
13783
6607
4898
9646
16941
21284
19217
11842
3772
635
4715
12746
17634
14361
4662
-4063
-5192
1588
10631
16164
16294
12713
7136
710
-5008
-7334
-4579
1945
8251
10569
7815
1733
-5008
-9959
-11755
-10227
-6551
-2680
-438
-350
-2169
-4803
-7254
-8544
-8456
-7147
-5453
-4048
-3533
-3808
-4635
-5428
-5958
-5992
-5720
-5192
-4694
-4231
-3975
-3782
-3655
-3360
-2967
-2414
-1891
-1318
-829
-347
-17
308
593
1005
1404
1900
2468
3306
4197
4969
5298
5404
5468
5733
5879
5730
5154
4579
4219
4228
4274
4274
4105
3995
3879
3831
3677
3535
3332
3197
2980
2768
2467
2265
2102
2079
1993
1862
1551
1246
921
728
518
350
96
-92
-293
-386
-505
-537
-564
-437
-303
-132
-111
-106
-140
-34
52
134
44
-44
-151
-133
-172
-230
-440
-625
-834
-930
-1061
-1153
-1328
-1441
-1574
-1615
-1731
-1853
-2078
-2223
-2345
-2343
-2394
-2418
-2519
-2552
-2631
-2648
-2721
-2725
-2791
-2831
-2955
-2990
-2991
-2836
-2691
-2489
-2365
-2206
-2127
-2007
-1946
-1823
-1778
-1717
-1747
-1708
-1696
-1611
-1573
-1442
-1312
-1097
-998
-943
-1002
-971
-932
-811
-781
-733
-747
-686
-671
-609
-628
-629
-744
-850
-1018
-1087
-1175
-1221
-1375
-1490
-1605
-1570
-1553
-1537
-1695
-1885
-2135
-2252
-2334
-2313
-2369
-2420
-2550
-2576
-2580
-2479
-2463
-2465
-2582
-2637
-2697
-2654
-2666
-2647
-2698
-2661
-2630
-2521
-2494
-2439
-2423
-2295
-2203
-2114
-2178
-2215
-2249
-2146
-2103
-2071
-2135
-2077
-1957
-1708
-1538
-1358
-1238
-1014
-814
-572
-427
-238
-95
111
238
390
476
633
740
891
962
1082
1147
1276
1350
1495
1600
1765
1844
1941
1952
2007
1980
1970
1879
1881
1892
1998
2016
2049
2048
2212
2422
2694
2828
2958
3061
3304
3521
3742
3830
3968
4117
4391
4604
4831
4996
5303
5688
6248
6822
7524
8256
9097
9812
10377
10631
10751
10691
10546
10116
9492
8671
7946
7298
6811
6304
5891
5512
5297
5054
4776
4285
3729
3067
2436
1660
787
-272
-1257
-2124
-2696
-3157
-3465
-3715
-3699
-3511
-3159
-2976
-3039
-3563
-4436
-5701
-7101
-8579
-9877
-11022
-11830
-12330
-12323
-11927
-11150
-10295
-9405
-8676
-8020
-7557
-7154
-6877
-6540
-6208
-5751
-5284
-4667
-3991
-3153
-2337
-1506
-818
-141
457
1123
1746
2439
3085
3791
4409
5001
5398
5697
5799
5869
5837
5824
5693
5543
5288
5099
4889
4746
4503
4244
3859
3487
3025
2595
2067
1543
928
417
-7
-202
-369
-499
-723
-848
-943
-960
-1120
-1314
-1553
-1645
-1751
-1852
-2061
-2154
-2178
-2078
-2087
-2103
-2154
-2075
-2045
-2036
-2126
-2059
-1872
-1536
-1330
-1214
-1231
-1136
-1004
-788
-718
-740
-943
-1124
-1327
-1428
-1592
-1735
-1954
-2084
-2222
-2265
-2334
-2288
-2234
-2104
-2084
-2080
-2157
-2138
-2133
-2056
-2030
-1912
-1799
-1584
-1407
-1155
-951
-707
-566
-395
-262
-33
129
270
260
273
263
368
424
492
444
439
416
526
632
807
906
1052
1145
1287
1324
1359
1305
1330
1320
1342
1238
1150
1045
1091
1131
1193
1119
1058
951
932
853
810
716
728
735
808
792
819
818
933
1024
1169
1229
1328
1365
1471
1536
1663
1709
1761
1698
1680
1653
1771
1889
2056
2138
2330
2631
3180
3720
4161
4275
4240
4077
3942
3625
3148
2421
1704
1033
592
251
86
-53
-77
-134
-130
-191
-196
-261
-283
-399
-492
-658
-745
-846
-843
-868
-812
-790
-710
-730
-755
-864
-878
-893
-845
-907
-959
-1068
-1092
-1166
-1178
-1206
-1100
-1023
-957
-1063
-1158
-1256
-1229
-1273
-1334
-1489
-1538
-1562
-1485
-1461
-1366
-1305
-1186
-1179
-1180
-1245
-1194
-1126
-958
-841
-687
-626
-522
-439
-218
-14
175
166
148
154
353
520
629
553
546
621
881
1088
1265
1319
1440
1546
1721
1806
1911
1939
2023
2056
2160
2224
2361
2448
2593
2670
2779
2788
2808
2739
2706
2590
2518
2401
2384
2367
2464
2550
2727
2851
3012
3074
3158
3148
3137
3001
2902
2806
2868
2917
2981
2918
2918
2956
3152
3291
3377
3296
3252
3209
3289
3305
3304
3174
3093
3008
3036
2996
2931
2718
2564
2487
2634
2748
2738
2416
2055
1779
1783
1770
1606
1106
578
178
137
218
302
127
-161
-530
-751
-949
-1103
-1393
-1686
-2032
-2276
-2555
-2771
-3022
-3172
-3362
-3515
-3746
-3893
-4047
-4117
-4238
-4253
-4220
-4047
-3994
-4087
-4427
-4725
-4941
-4965
-5067
-5269
-5672
-5996
-6186
-6102
-5994
-5934
-6115
-6343
-6592
-6675
-6755
-6810
-6987
-7128
-7302
-7384
-7505
-7549
-7608
-7546
-7493
-7387
-7402
-7417
-7459
-7312
-7093
-6817
-6701
-6533
-6194
-5466
-4704
-4163
-4093
-4158
-4211
-4181
-4489
-5169
-6097
-6746
-7060
-7092
-7201
-7278
-7247
-6866
-6366
-5875
-5656
-5524
-5428
-5156
-4859
-4497
-4202
-3797
-3339
-2709
-2092
-1448
-940
-473
-149
186
458
787
1012
1237
1397
1656
1856
2009
1955
1901
1854
1951
1969
1920
1722
1626
1614
1761
1820
1814
1650
1553
1488
1542
1497
1400
1178
1054
968
983
900
831
741
798
830
841
676
520
347
281
126
-67
-384
-625
-858
-995
-1199
-1360
-1567
-1703
-1921
-2135
-2421
-2583
-2706
-2741
-2909
-3124
-3425
-3582
-3667
-3629
-3695
-3792
-3978
-4039
-4049
-3944
-3930
-3916
-3962
-3885
-3802
-3655
-3609
-3540
-3534
-3461
-3446
-3378
-3354
-3243
-3173
-3059
-3032
-2936
-2830
-2584
-2384
-2210
-2217
-2224
-2251
-2157
-2111
-2058
-2120
-2148
-2222
-2206
-2196
-2069
-1970
-1846
-1840
-1791
-1746
-1576
-1470
-1385
-1453
-1519
-1649
-1692
-1744
-1704
-1739
-1774
-1870
-1786
-1566
-1179
-930
-817
-899
-916
-905
-804
-830
-909
-1110
-1229
-1317
-1241
-1149
-981
-898
-784
-728
-584
-457
-251
-101
96
215
359
398
444
404
412
342
265
42
-172
-412
-499
-560
-534
-592
-620
-702
-683
-658
-545
-534
-573
-752
-855
-949
-996
-1239
-1559
-1889
-1917
-1757
-1470
-1323
-1180
-1038
-756
-566
-482
-633
-819
-1077
-1269
-1478
-1523
-1471
-1211
-857
-211
692
1874
2913
3620
3851
3993
4187
4521
4611
4373
3754
3087
2396
1777
1052
346
-396
-1030
-1666
-2125
-2431
-2423
-2271
-1962
-1684
-1357
-1145
-995
-1051
-1162
-1400
-1642
-2023
-2403
-2798
-2963
-2935
-2629
-2299
-1973
-1820
-1667
-1552
-1360
-1275
-1215
-1239
-1147
-1055
-950
-1024
-1120
-1230
-1155
-1047
-889
-875
-877
-961
-975
-1023
-983
-960
-836
-750
-592
-433
-99
256
577
557
302
-92
-292
-433
-617
-1107
-1657
-2097
-2162
-2085
-1948
-1957
-1955
-2020
-2068
-2215
-2252
-2194
-1917
-1627
-1267
-918
-398
161
781
1262
1705
1999
2250
2329
2410
2482
2728
2983
3261
3391
3539
3666
3892
4031
4143
4135
4194
4245
4370
4393
4408
4317
4266
4144
4045
3820
3552
3108
2620
2013
1447
844
59
-861
-1602
-2171
-2825
-3894
-5038
-5703
-6024
-6847
-8429
-9891
-10070
-9561
-10242
-13234
-16579
-17324
-14933
-12464
-13080
-16569
-19858
-20849
-20623
-21617
-23692
-23720
-18608
-9425
-1024
1037
-5123
-16695
-27585
-31805
-26710
-14858
-3568
-543
-8174
-21100
-29945
-28733
-19562
-9580
-4280
-3692
-5030
-7246
-11217
-16064
-17198
-10467
2506
14062
16301
7467
-7150
-19282
-23064
-17243
-4653
9402
19284
21240
15409
5403
-3546
-7444
-5111
1846
10206
16762
19611
18689
15459
12046
10231
10757
13227
16535
19518
21443
22156
21946
21329
20833
20825
21391
22327
23270
23901
24082
23898
23565
23298
23182
23164
23184
23282
23561
24028
24508
24776
24769
24598
24356
23974
23316
22400
21445
20673
20123
19685
19269
18895
18608
18388
18176
17957
17769
17622
17461
17215
16868
16464
16058
15670
15300
14954
14636
14332
13998
13593
13125
12651
12247
11924
11615
11235
10763
10273
9844
9481
9110
8665
8162
7681
7274
6922
6554
6116
5616
5104
4632
4221
3854
3492
3116
2746
2426
2191
2032
1904
1767
1613
1451
1280
1078
832
554
265
-24
-321
-617
-880
-1075
-1203
-1300
-1398
-1496
-1571
-1610
-1638
-1693
-1795
-1940
-2095
-2234
-2362
-2511
-2707
-2938
-3170
-3373
-3540
-3684
-3820
-3963
-4126
-4285
-4358
-4257
-3975
-3611
-3290
-3053
-2852
-2639
-2444
-2335
-2328
-2370
-2404
-2415
-2401
-2336
-2173
-1899
-1569
-1262
-1038
-905
-820
-724
-591
-459
-410
-465
-557
-586
-549
-553
-699
-958
-1212
-1390
-1555
-1792
-2065
-2229
-2196
-2050
-1982
-2102
-2344
-2574
-2737
-2918
-3214
-3610
-3959
-4109
-4029
-3820
-3598
-3395
-3162
-2877
-2604
-2450
-2454
-2555
-2655
-2717
-2791
-2923
-3081
-3174
-3142
-3018
-2896
-2848
-2871
-2919
-2955
-2985
-3012
-3018
-2979
-2913
-2874
-2900
-2965
-3000
-2973
-2943
-3004
-3171
-3348
-3412
-3339
-3222
-3148
-3091
-2942
-2646
-2298
-2059
-1991
-2013
-2013
-1967
-1954
-2025
-2128
-2162
-2080
-1914
-1718
-1512
-1287
-1049
-831
-668
-571
-511
-436
-300
-113
47
110
102
138
303
538
714
809
947
1247
1648
1943
2008
1924
1841
1766
1544
1058
395
-239
-715
-1071
-1386
-1655
-1800
-1805
-1765
-1789
-1891
-1999
-2058
-2095
-2175
-2308
-2425
-2449
-2368
-2237
-2124
-2048
-1990
-1929
-1863
-1806
-1762
-1722
-1684
-1661
-1666
-1687
-1701
-1695
-1679
-1666
-1647
-1601
-1524
-1435
-1357
-1285
-1195
-1079
-969
-895
-847
-785
-684
-566
-468
-398
-330
-247
-168
-120
-110
-113
-86
-1
130
262
349
389
431
529
673
779
786
736
745
888
1136
1388
1575
1699
1797
1887
1954
1982
1980
1992
2076
2265
2557
2934
3384
3900
4451
4953
5321
5537
5667
5786
5907
5989
6007
6014
6094
6291
6576
6865
7085
7209
7258
7271
7279
7285
7277
7237
7141
6966
6712
6414
6127
5886
5676
5464
5252
5089
5025
5060
5150
5253
5358
5449
5484
5416
5240
4989
4694
4342
3903
3382
2827
2269
1701
1114
565
151
-83
-188
-250
-295
-276
-153
33
196
285
308
295
266
229
211
238
305
376
423
446
468
503
542
566
574
581
598
611
589
520
419
311
191
15
-254
-607
-997
-1401
-1845
-2354
-2913
-3478
-4027
-4577
-5128
-5633
-6033
-6336
-6609
-6900
-7177
-7389
-7557
-7769
-8081
-8442
-8748
-8960
-9132
-9317
-9485
-9576
-9590
-9593
-9635
-9695
-9717
-9677
-9613
-9549
-9464
-9344
-9196
-9018
-8759
-8359
-7823
-7208
-6531
-5715
-4706
-3608
-2645
-1958
-1479
-1043
-611
-335
-374
-698
-1101
-1396
-1548
-1614
-1628
-1572
-1458
-1344
-1253
-1133
-936
-725
-642
-754
-974
-1137
-1180
-1180
-1213
-1245
-1193
-1039
-859
-712
-551
-297
27
294
413
424
441
519
622
708
787
890
1009
1107
1177
1244
1316
1358
1344
1309
1331
1438
1576
1668
1699
1705
1725
1751
1744
1682
1576
1441
1289
1140
1019
945
923
937
967
1002
1035
1077
1144
1241
1350
1444
1518
1600
1707
1821
1903
1946
1997
2096
2223
2310
2329
2339
2444
2680
2977
3231
3404
3540
3705
3912
4113
4239
4261
4195
4078
3937
3768
3562
3329
3102
2899
2715
2533
2362
2237
2180
2169
2150
2080
1946
1764
1551
1328
1100
865
623
396
249
237
349
499
609
684
796
976
1155
1228
1169
1068
1025
1040
1028
932
789
677
614
536
370
121
-139
-347
-506
-665
-859
-1065
-1231
-1330
-1387
-1459
-1579
-1728
-1861
-1954
-2023
-2093
-2160
-2197
-2192
-2173
-2173
-2187
-2178
-2128
-2066
-2037
-2059
-2103
-2139
-2161
-2185
-2213
-2243
-2277
-2323
-2372
-2407
-2416
-2416
-2436
-2483
-2532
-2559
-2562
-2557
-2565
-2598
-2660
-2723
-2743
-2705
-2656
-2658
-2702
-2705
-2618
-2521
-2544
-2702
-2845
-2821
-2658
-2536
-2565
-2644
-2576
-2301
-1962
-1750
-1731
-1811
-1844
-1754
-1559
-1341
-1158
-947
-552
131
989
1730
2120
2185
2121
2031
1786
1200
299
-657
-1410
-1902
-2236
-2495
-2661
-2702
-2654
-2601
-2583
-2585
-2596
-2637
-2726
-2835
-2900
-2891
-2834
-2764
-2686
-2593
-2492
-2422
-2419
-2471
-2529
-2542
-2502
-2449
-2422
-2421
-2407
-2339
-2216
-2062
-1891
-1708
-1530
-1389
-1315
-1308
-1334
-1333
-1257
-1106
-936
-830
-832
-889
-899
-804
-651
-559
-585
-653
-608
-355
62
498
837
1069
1255
1448
1653
1849
2033
2212
2384
2547
2735
3011
3403
3841
4201
4397
4446
4427
4400
4378
4360
4370
4430
4535
4653
4780
4965
5250
5598
5893
6022
5974
5851
5777
5787
5800
5710
5488
5212
5012
4959
5026
5125
5180
5177
5165
5205
5297
5394
5446
5458
5462
5464
5421
5292
5105
4938
4833
4748
4612
4407
4196
4049
3963
3886
3788
3686
3599
3503
3349
3147
2980
2921
2950
2972
2917
2806
2732
2759
2868
2983
3053
3083
3115
3166
3202
3176
3080
2947
2814
2680
2531
2378
2267
2212
2174
2103
1995
1906
1853
1785
1630
1398
1183
1061
1002
928
808
682
597
544
475
364
212
15
-243
-555
-875
-1175
-1465
-1765
-2055
-2300
-2501
-2712
-2962
-3213
-3417
-3601
-3853
-4212
-4598
-4899
-5104
-5291
-5522
-5756
-5906
-5950
-5955
-6007
-6128
-6270
-6361
-6363
-6295
-6225
-6222
-6282
-6316
-6237
-6069
-5944
-5953
-6021
-5963
-5686
-5287
-4911
-4548
-4047
-3328
-2547
-1992
-1816
-1925
-2131
-2379
-2753
-3311
-3974
-4585
-5037
-5307
-5400
-5316
-5096
-4849
-4671
-4560
-4439
-4266
-4105
-4061
-4160
-4303
-4354
-4255
-4059
-3862
-3719
-3619
-3517
-3399
-3299
-3257
-3287
-3360
-3440
-3507
-3562
-3606
-3633
-3634
-3595
-3510
-3381
-3218
-3046
-2902
-2836
-2876
-3012
-3196
-3377
-3538
-3696
-3867
-4019
-4095
-4065
-3953
-3812
-3679
-3549
-3409
-3272
-3168
-3104
-3053
-2981
-2877
-2761
-2655
-2570
-2511
-2487
-2501
-2538
-2574
-2602
-2622
-2614
-2545
-2410
-2256
-2153
-2121
-2097
-2020
-1909
-1865
-1961
-2151
-2296
-2290
-2148
-1986
-1910
-1925
-1946
-1902
-1794
-1702
-1695
-1762
-1830
-1837
-1785
-1718
-1661
-1590
-1484
-1387
-1398
-1583
-1880
-2112
-2136
-1970
-1771
-1671
-1634
-1505
-1206
-851
-651
-701
-894
-1053
-1107
-1124
-1177
-1236
-1206
-1032
-764
-498
-295
-177
-141
-184
-287
-407
-481
-479
-424
-372
-359
-365
-331
-232
-108
-30
-22
-37
-9
80
197
287
312
260
145
-3
-147
-267
-364
-430
-440
-374
-256
-117
52
300
648
1030
1342
1522
1587
1585
1563
1561
1607
1679
1700
1622
1545
1657
2060
2622
3058
3169
2956
2549
2056
1501
895
289
-238
-629
-834
-797
-468
119
831
1484
1961
2261
2456
2611
2743
2842
2904
2936
2957
2996
3104
3308
3576
3827
4015
4167
4352
4606
4929
5334
5843
6415
6890
7097
7004
6731
6421
6094
5663
5047
4250
3349
2465
1765
1394
1349
1456
1513
1482
1503
1704
2025
2259
2240
1977
1612
1301
1128
1091
1115
1107
1036
956
937
980
1023
1020
988
938
816
569
247
7
-40
47
85
-39
-270
-467
-568
-633
-735
-860
-931
-909
-838
-787
-777
-781
-774
-772
-802
-867
-950
-1050
-1197
-1422
-1735
-2092
-2412
-2605
-2625
-2500
-2297
-2060
-1760
-1339
-806
-253
203
517
734
932
1140
1336
1472
1524
1503
1460
1435
1420
1355
1194
934
575
115
-430
-1019
-1624
-2288
-3073
-3969
-4912
-5926
-7191
-8812
-10594
-12227
-13720
-15876
-17701
-19873
-21647
-24361
-27161
-28550
-28123
-27902
-29885
-32661
-32682
-29754
-28739
32501
27995
-32410
-15553
1826
6120
-3008
-11766
-8376
3146
8273
-685
-16307
-25371
-22814
-14248
-7102
-3111
260
4408
8102
10230
11217
12770
13592
13666
12049
10641
10592
12301
15277
18438
20677
21392
20693
19260
17963
17470
18022
19405
21099
22526
23284
23276
22708
21969
21436
21320
21602
22075
22484
22653
22550
22253
21868
21481
21155
20933
20812
20718
20541
20214
19765
19278
18803
18320
17800
17265
16764
16312
15872
15431
15033
14712
14404
13967
13337
12608
11935
11362
10778
10070
9270
8526
7931
7422
6878
6258
5626
5044
4500
3937
3349
2781
2257
1753
1261
846
596
501
455
400
437
712
1195
1638
1799
1686
1528
1480
1432
1147
557
-127
-618
-814
-832
-830
-846
-811
-669
-441
-198
-5
110
156
178
238
369
550
703
760
711
611
547
575
697
867
1050
1252
1521
1892
2333
2749
3045
3188
3223
3209
3172
3101
2993
2872
2776
2708
2638
2541
2431
2350
2329
2357
2391
2406
2415
2462
2580
2744
2870
2866
2712
2491
2336
2324
2422
2540
2628
2711
2845
3033
3213
3312
3297
3187
3015
2813
2617
2482
2440
2481
2552
2595
2600
2597
2615
2634
2601
2483
2305
2124
1966
1808
1622
1439
1330
1321
1334
1245
1009
715
501
416
382
287
95
-122
-280
-361
-415
-496
-614
-752
-897
-1057
-1241
-1427
-1584
-1706
-1811
-1921
-2035
-2140
-2228
-2301
-2357
-2393
-2433
-2510
-2622
-2698
-2674
-2571
-2503
-2554
-2664
-2683
-2543
-2345
-2249
-2301
-2386
-2363
-2220
-2060
-1979
-1970
-1956
-1889
-1778
-1652
-1518
-1367
-1201
-1039
-900
-782
-669
-553
-435
-335
-271
-253
-273
-310
-353
-402
-460
-511
-536
-530
-512
-503
-500
-481
-440
-403
-407
-457
-519
-559
-574
-590
-624
-662
-675
-646
-583
-511
-458
-436
-444
-465
-470
-432
-332
-184
-33
75
133
178
245
314
323
233
78
-67
-144
-149
-93
20
188
392
608
815
995
1125
1212
1316
1516
1809
2129
2475
2964
3700
4570
5267
5570
5562
5491
5436
5191
4542
3581
2652
2011
1611
1248
850
532
411
438
459
379
227
86
-12
-92
-189
-311
-435
-524
-549
-515
-459
-421
-420
-444
-479
-521
-551
-544
-498
-439
-390
-338
-241
-71
155
401
655
930
1247
1605
1993
2400
2811
3225
3666
4168
4740
5336
5903
6434
6985
7602
8260
8891
9465
10004
10527
11005
11422
11821
12263
12734
13120
13334
13414
13486
13614
13738
13750
13631
13450
13271
13078
12816
12485
12134
11787
11381
10809
10014
9019
7893
6685
5409
4080
2737
1447
287
-670
-1362
-1765
-1928
-1961
-1988
-2094
-2331
-2750
-3409
-4341
-5520
-6875
-8330
-9849
-11395
-12887
-14187
-15166
-15775
-16052
-16066
-15840
-15329
-14478
-13314
-11965
-10587
-9265
-7998
-6778
-5643
-4653
-3821
-3096
-2434
-1859
-1434
-1168
-985
-793
-593
-482
-556
-812
-1148
-1457
-1713
-1958
-2221
-2462
-2577
-2518
-2351
-2215
-2177
-2170
-2075
-1872
-1680
-1628
-1717
-1826
-1866
-1870
-1923
-2038
-2137
-2162
-2152
-2176
-2232
-2241
-2155
-2027
-1961
-1986
-2038
-2039
-1980
-1913
-1875
-1856
-1828
-1789
-1755
-1718
-1639
-1485
-1277
-1082
-933
-808
-665
-497
-346
-241
-176
-123
-74
-54
-75
-130
-198
-261
-300
-283
-193
-58
77
202
355
580
858
1118
1298
1391
1435
1471
1511
1526
1490
1415
1363
1396
1515
1673
1856
2133
2566
3087
3482
3562
3329
2943
2511
1975
1202
176
-934
-1881
-2509
-2825
-2937
-2960
-2934
-2833
-2623
-2333
-2074
-1948
-1951
-1984
-1954
-1863
-1782
-1753
-1740
-1684
-1578
-1467
-1399
-1377
-1363
-1321
-1231
-1087
-896
-675
-441
-216
-4
209
446
722
1019
1294
1515
1690
1840
1947
1964
1876
1745
1653
1601
1506
1320
1110
1008
1063
1180
1225
1158
1056
1012
1043
1094
1113
1084
1024
974
969
1013
1062
1054
977
888
856
887
919
895
822
756
723
718
730
750
745
671
536
413
372
390
369
278
210
278
470
656
752
819
972
1218
1427
1476
1380
1251
1168
1145
1158
1191
1222
1221
1216
1299
1526
1816
1991
1974
1879
1894
2049
2184
2147
1984
1886
1981
2205
2399
2492
2550
2658
2799
2887
2886
2850
2863
2933
2995
2996
2971
3016
3179
3400
3573
3654
3707
3812
3961
4082
4132
4154
4220
4331
4426
4452
4413
4351
4286
4231
4209
4225
4227
4144
3989
3880
3911
4036
4089
3947
3636
3298
3052
2895
2744
2524
2236
1954
1743
1582
1374
1057
691
388
158
-131
-591
-1140
-1557
-1743
-1846
-2078
-2444
-2735
-2793
-2709
-2711
-2894
-3136
-3279
-3317
-3370
-3509
-3678
-3795
-3851
-3901
-3962
-4008
-4030
-4052
-4105
-4172
-4204
-4165
-4073
-3991
-3972
-4024
-4097
-4131
-4102
-4030
-3924
-3754
-3495
-3190
-2934
-2780
-2685
-2581
-2487
-2518
-2758
-3153
-3540
-3804
-3955
-4065
-4160
-4206
-4177
-4095
-3999
-3907
-3823
-3771
-3816
-3982
-4194
-4305
-4238
-4080
-4004
-4103
-4304
-4438
-4425
-4347
-4327
-4393
-4449
-4399
-4241
-4048
-3883
-3766
-3709
-3736
-3852
-4003
-4116
-4173
-4236
-4377
-4587
-4765
-4817
-4746
-4643
-4589
-4578
-4549
-4483
-4426
-4425
-4457
-4455
-4397
-4337
-4335
-4368
-4359
-4285
-4208
-4183
-4171
-4095
-3972
-3929
-4039
-4208
-4249
-4094
-3863
-3698
-3574
-3327
-2864
-2299
-1822
-1507
-1253
-943
-589
-312
-184
-143
-65
112
332
500
571
561
526
517
547
588
605
592
586
631
710
755
704
564
392
207
-18
-293
-570
-777
-914
-1041
-1201
-1376
-1527
-1675
-1883
-2188
-2553
-2912
-3212
-3442
-3618
-3768
-3920
-4075
-4186
-4196
-4103
-3999
-4006
-4166
-4401
-4598
-4710
-4782
-4882
-5004
-5090
-5085
-4998
-4881
-4774
-4669
-4540
-4381
-4231
-4146
-4145
-4182
-4159
-4017
-3806
-3651
-3627
-3669
-3645
-3524
-3421
-3466
-3645
-3817
-3875
-3840
-3788
-3720
-3570
-3320
-3065
-2905
-2823
-2720
-2553
-2408
-2396
-2520
-2657
-2692
-2639
-2601
-2644
-2724
-2739
-2643
-2481
-2341
-2275
-2279
-2317
-2345
-2320
-2225
-2093
-1997
-1990
-2047
-2071
-1978
-1789
-1626
-1607
-1737
-1906
-1984
-1915
-1732
-1510
-1314
-1167
-1013
-726
-227
400
925
1177
1245
1381
1726
2190
2607
2989
3492
4163
4819
5244
5432
5529
5560
5355
4782
3950
3128
2469
1921
1398
934
621
463
365
279
280
467
818
1184
1418
1509
1600
1863
2350
2906
3272
3303
3123
3019
3158
3424
3565
3468
3257
3135
3182
3330
3471
3537
3499
3345
3109
2903
2822
2833
2799
2614
2297
1948
1634
1363
1124
910
715
537
395
340
411
568
730
883
1105
1451
1832
2056
2014
1807
1652
1669
1775
1799
1671
1499
1447
1572
1787
1950
2006
2001
1999
2006
1979
1892
1758
1608
1427
1175
839
488
239
146
157
169
129
76
73
127
178
184
168
164
142
33
-171
-393
-549
-650
-777
-966
-1165
-1300
-1355
-1371
-1356
-1279
-1127
-947
-799
-682
-552
-394
-261
-218
-272
-367
-441
-506
-616
-821
-1116
-1453
-1791
-2126
-2486
-2884
-3290
-3632
-3876
-4061
-4264
-4518
-4769
-4952
-5075
-5213
-5404
-5588
-5683
-5709
-5769
-5904
-5994
-5857
-5461
-4978
-4603
-4347
-4040
-3529
-2831
-2119
-1551
-1170
-891
-577
-131
444
1040
1532
1899
2250
2715
3309
3914
4445
4938
5488
6127
6798
7464
8172
8974
9823
10603
11272
11931
12687
13506
14238
14793
15247
15729
16240
16635
16789
16711
16477
16091
15463
14514
13263
11799
10180
8395
6401
4181
1765
-774
-3334
-5860
-8391
-11036
-13841
-16692
-19369
-21724
-23786
-25675
-27422
-28906
-29977
-30647
-31120
-31573
-31942
-31945
-31398
-30470
-29546
-28789
-27909
-26495
-24595
-22853
-21947
-21896
-22012
-21589
-20553
-19382
-18442
-17561
-16262
-14313
-11950
-9606
-7531
-5732
-4162
-2841
-1771
-847
93
1129
2211
3242
4189
5089
5996
6919
7788
8482
8898
9063
9171
9493
10182
11149
12139
12943
13540
14057
14604
15175
15672
16020
16242
16433
16680
17002
17358
17692
17991
18279
18593
18940
19296
19648
19993
20318
20567
20678
20643
20520
20360
20141
19782
19245
18581
17873
17140
16333
15430
14492
13609
12795
11962
11028
10018
9059
8264
7642
7114
6606
6110
5663
5287
4951
4585
4138
3613
3047
2489
1974
1530
1185
957
828
761
737
775
888
1042
1170
1239
1289
1384
1549
1742
1920
2106
2334
2570
2699
2647
2464
2289
2215
2218
2216
2168
2098
2051
2076
2237
2585
3072
3535
3828
3970
4117
4374
4668
4840
4824
4715
4653
4674
4718
4727
4708
4685
4640
4529
4337
4115
3912
3720
3498
3207
2853
2467
2104
1817
1639
1555
1511
1468
1454
1532
1717
1912
2003
1993
2035
2289
2752
3276
3719
4059
4352
4620
4831
4985
5145
5346
5531
5605
5594
5656
5917
6323
6681
6853
6870
6841
6799
6671
6378
5953
5511
5137
4822
4522
4236
4017
3899
3826
3688
3410
3016
2592
2194
1795
1331
793
247
-247
-697
-1151
-1624
-2053
-2354
-2507
-2572
-2651
-2803
-3000
-3160
