463
136
-25
-386
-267
-647
-647
-74
354
-211
-36
-565
67
778
462
-706
-1200
-2438
-5831
-12486
-17386
-16548
-9376
-3342
-3132
-6767
-7907
-4306
1038
2808
3165
5542
9191
9276
4476
-1204
-2814
-3367
-7966
-17620
-24685
-20052
-5766
9761
16904
16303
11886
5307
-3040
-11052
-13442
-6008
6607
14943
14297
6267
-1312
-6026
-5668
192
8919
13550
6534
-9775
-21196
-15884
1652
12477
4175
-14224
-22558
-12025
4489
10811
4669
-927
6089
20556
25702
14137
-6194
-18128
-16992
-12154
-14841
-20643
-17873
-1830
15359
20174
14444
9621
10852
6911
-9082
-25458
-24589
-4365
15313
15981
3200
-6189
-4319
-2012
-6721
-13228
-9393
1765
7647
-97
-11354
-12329
-1000
11224
14152
8848
3009
-154
-3214
-7564
-9387
-5888
1289
6366
5171
1539
1878
9250
18077
18593
6333
-12604
-26885
-27487
-15212
2207
16146
18097
7391
-9550
-18756
-11338
10501
28946
29493
12616
-3671
-6286
1660
7451
4700
1421
7168
19761
26735
22080
10724
2541
3682
10766
18594
23408
23233
16807
7258
-716
-4153
-3670
-957
2933
6723
7697
1945
-7352
-11751
-4964
9486
20688
19040
5278
-9688
-14680
-6638
7059
16779
18176
13018
5019
-2793
-7130
-4428
7127
19658
21471
10292
416
5025
19546
25878
13190
-5367
-12221
-7148
-6363
-19591
32356
-27129
-1593
18952
16297
-2600
-14536
-8004
6389
12226
7869
4753
9092
14969
12737
842
-9595
-9805
278
8114
2202
-17120
30149
30563
-12384
17275
31681
20921
-1474
-14810
-11609
-1870
1008
-3197
-6275
-3808
-782
-3322
-6452
-2073
10438
19833
15159
-900
-13311
-9354
8581
25905
29954
18118
478
-12132
-13298
-8132
-2600
98
2900
8117
12802
13885
9965
3345
-2677
-6948
-7830
-3173
6714
15910
14324
1284
-14059
-17342
-3582
15858
23448
10268
-12002
-23093
-13344
4724
11247
530
-14309
-16732
-6777
103
-2479
-7368
-1759
10823
17208
9889
-2746
-6700
-711
6476
4082
-6555
-16362
-19666
-14103
-3422
6560
10183
5025
-2864
-5450
-663
4491
-71
-12921
-20782
-13415
3900
14998
8598
-8077
-17177
-7957
12009
24082
16239
-3121
-17918
-19177
-16202
-19308
-27269
-27666
-14144
4098
13878
13791
13575
18300
19523
10206
-2725
-2390
12375
22016
8963
-17778
-29616
-12733
14185
22846
9549
-2370
5334
22895
26113
8822
-9793
-9252
7780
24629
27463
20754
13219
7497
-560
-12523
-20624
-18385
-5197
10065
19769
21588
15911
5335
-7148
-14818
-10987
4283
20276
24835
15501
2311
-2345
2632
8035
6854
2577
4160
11807
15529
6186
-12122
-25818
-26116
-17502
-9224
-6382
-4429
-275
3059
589
-7590
-14249
-14850
-9470
-5100
-4888
-6768
-5644
-68
5264
4234
-4881
-17714
-27620
-30024
-24419
-13784
-2890
3566
2810
-4474
-14646
-22882
-25908
-23319
-17213
-10682
-6222
-4906
-6523
-10042
-13962
-16583
-16683
-14305
-10845
-8085
-6949
-7089
-7698
-8480
-9558
-10743
-11286
-10640
-9274
-8326
-8399
-9017
-9293
-8955
-8501
-8434
-8640
-8653
-8307
-7920
-7843
-8014
-8109
-7926
-7545
-7150
-6844
-6669
-6684
-6887
-7115
-7114
-6837
-6568
-6655
-7142
-7669
-7801
-7456
-6932
-6573
-6506
-6625
-6776
-6894
-6983
-7047
-7072
-7031
-6887
-6628
-6323
-6125
-6151
-6315
6436
6240
6016
5760
5473
5196
4974
4824
4684
4482
4189
3857
3557
3306
3047
2712
2282
1818
1415
1116
877
616
277
-121
-533
-956
-1443
-2028
-2661
-3240
-3739
-4250
-4887
-5648
-6400
-7005
-7478
-7936
-8439
-8919
-9293
-9584
-9913
-10349
-10818
-11185
-11451
-11785
-12361
-13153
-13933
-14493
-14844
-15175
-15626
-16132
-16499
-16619
-16570
-16492
-16427
-16313
-16117
-15894
-15700
-15503
-15232
-14905
-14661
-14612
-14702
-14769
-14730
-14641
-14572
-14472
-14225
-13832
-13465
-13306
-13332
-13343
-13198
-12963
-12807
-12774
-12721
-12496
-12098
-11644
-11160
-10522
-9669
-8793
-8214
-8052
-8079
-7983
-7714
-7506
-7549
-7739
-7770
-7469
-6941
-6392
-5916
-5467
-4978
-4467
-3989
-3566
-3164
-2728
-2221
-1647
-1049
-486
21
512
1041
1608
2147
2575
2866
3063
3251
3508
3849
4221
4540
4772
4943
5108
5279
5427
5549
5665
5778
5860
5911
5977
6101
6234
6277
6208
6136
6182
6297
6302
6121
5911
5886
6027
6079
5866
5558
5510
5803
6075
5897
5278
4675
4477
4571
4527
4134
3634
3383
3438
3538
3475
3338
3331
3486
3628
3609
3483
3428
3537
3756
3963
4057
4050
4040
4113
4249
4331
4300
4282
4487
4981
5606
6174
6637
7027
7259
7119
6530
5736
5108
4762
4486
4080
3681
3646
4131
4893
5533
5869
6012
6123
6184
6085
5836
5610
5567
5675
5760
5747
5757
5961
6359
6726
6821
6618
6308
6096
6034
6046
6054
6022
5933
5772
5573
5415
5351
5359
5375
5354
5313
5278
5275
5315
5381
5413
5334
5140
4947
4902
5014
5135
5111
4949
4782
4714
4727
4736
4698
4620
4503
4345
4200
4152
4225
4304
4234
3974
3651
3427
3325
3212
2985
2691
2475
2399
2365
2233
2011
1839
1788
1712
1388
795
164
-284
-600
-1022
-1632
-2210
-2491
-2505
-2576
-2958
-3559
-4062
-4320
-4510
-4913
-5585
-6330
-6965
-7500
-8055
-8666
-9254
-9786
-10370
-11131
-12087
-13151
-14230
-15268
-16217
-17011
-17644
-18180
-18607
-18740
-18404
-17709
-17069
-16841
-16977
-17108
-16959
-16623
-16381
-16363
-16453
-16482
-16380
-16161
-15805
-15306
-14773
-14403
-14283
-14288
-14188
-13874
-13433
-13012
-12638
-12194
-11565
-10780
-9982
-9298
-8718
-8129
-7480
-6846
-6308
-5827
-5283
-4613
-3918
-3356
-2974
-2643
-2195
-1605
-1021
-610
-399
-263
-67
190
382
390
262
185
315
609
877
993
1051
1272
1747
2298
2642
2663
2541
2552
2776
3028
3076
2908
2731
2743
2941
3170
3306
3355
3367
3337
3210
3011
2855
2814
2829
2769
2603
2444
2396
2428
2415
2304
2187
2170
2203
2108
1784
1353
1033
908
826
604
246
-43
-99
5
41
-115
-359
-495
-479
-471
-632
-934
-1211
-1335
-1337
-1335
-1406
-1534
-1671
-1787
-1855
-1849
-1763
-1653
-1626
-1751
-1995
-2267
-2509
-2738
-3007
-3339
-3702
-4023
-4235
-4305
-4270
-4212
-4196
-4225
-4245
-4240
-4291
-4478
-4785
-5109
-5361
-5579
-5874
-6256
-6626
-6888
-7070
-7293
-7627
-8009
-8335
-8575
-8792
-9045
-9343
-9664
-10026
-10462
-10952
-11410
-11756
-12002
-12236
-12517
-12806
-13000
-13040
-12967
-12879
-12840
-12837
-12826
-12806
-12812
-12858
-12910
-12925
-12919
-12928
-12933
-12863
-12676
-12420
-12184
-11976
-11716
-11377
-11052
-10856
-10769
-10664
-10468
-10273
-10224
-10315
-10373
-10256
-10023
-9843
-9776
-9707
-9502
-9175
-8860
-8654
-8513
-8312
-8012
-7697
-7464
-7313
-7138
-6841
-6441
-6040
-5707
-5376
-4946
-4410
-3886
-3497
-3242
-3024
-2757
-2444
-2131
-1823
-1482
-1091
-686
-298
83
490
924
1340
1674
1906
2071
2238
2438
2632
2753
2779
2778
2860
3063
3303
3468
3548
3640
3819
4046
4228
4331
4419
4549
4662
4646
4478
4259
4097
4000
3903
3761
3603
3478
3395
3324
3262
3227
3212
3159
3032
2880
2810
2869
2990
3068
3059
3014
2992
2978
2904
2744
2559
2426
2340
2192
1884
1449
1048
815
721
615
377
11
-400
-796
-1192
-1633
-2131
-2661
-3216
-3809
-4425
-5003
-5460
-5761
-5954
-6131
-6352
-6613
-6872
-7116
-7376
-7677
-7982
-8207
-8276
-8181
-7968
-7678
-7316
-6895
-6486
-6191
-6056
-6037
-6056
-6101
-6215
-6388
-6517
-6513
-6421
-6373
-6435
-6551
-6645
-6744
-6928
-7180
-7354
-7362
-7317
-7440
-7793
-8181
-8354
-8301
-8258
-8444
-8800
-9034
-8895
-8401
-7796
-7300
-6941
-6598
-6177
-5739
-5441
-5382
-5512
-5676
-5734
-5659
-5515
-5374
-5236
-5043
-4752
-4397
-4073
-3870
-3795
-3779
-3751
-3680
-3563
-3420
-3281
-3201
-3207
-3241
-3180
-2945
-2591
-2284
-2169
-2250
-2414
-2538
-2586
-2603
-2635
-2677
-2686
-2637
-2534
-2387
-2192
-1962
-1750
-1631
-1623
-1661
-1664
-1616
-1573
-1569
-1553
-1451
-1276
-1115
-1032
-979
-876
-753
-753
-965
-1300
-1569
-1677
-1704
-1788
-1963
-2141
-2211
-2148
-2020
-1925
-1917
-1957
-1941
-1791
-1562
-1422
-1489
-1698
-1856
-1847
-1745
-1709
-1792
-1909
-1975
-2019
-2124
-2292
-2425
-2448
-2394
-2359
-2385
-2413
-2363
-2219
-2042
-1897
-1815
-1789
-1794
-1796
-1768
-1715
-1678
-1706
-1809
-1928
-1990
-1960
-1867
-1777
-1731
-1718
-1699
-1659
-1618
-1597
-1571
-1496
-1383
-1314
-1349
-1413
-1338
-1062
-730
-579
-686
-895
-1006
-997
-1020
-1202
-1499
-1769
-1925
-1982
-1990
-1974
-1938
-1905
-1908
-1942
-1971
-1972
-1964
-1983
-2042
-2134
-2234
-2321
-2375
-2397
-2412
-2457
-2546
-2650
-2733
-2783
-2820
-2875
-2958
-3033
-3053
-2996
-2902
-2824
-2753
-2590
-2262
-1845
-1540
-1476
-1557
-1552
-1356
-1116
-1076
-1300
-1600
-1747
-1698
-1608
-1636
-1792
-1961
-2054
-2089
-2140
-2224
-2271
-2221
-2114
-2078
-2185
-2347
-2399
-2284
-2154
-2194
-2401
-2570
-2542
-2395
-2347
-2507
-2749
-2868
-2805
-2673
-2613
-2654
-2710
-2685
-2555
-2369
-2221
-2192
-2288
-2433
-2534
-2561
-2561
-2584
-2615
-2600
-2519
-2423
-2373
-2381
-2405
-2408
-2396
-2404
-2462
-2544
-2599
-2582
-2496
-2389
-2314
-2296
-2308
-2317
-2324
-2350
-2406
-2460
-2461
-2401
-2339
-2334
-2382
-2424
-2426
-2436
-2508
-2612
-2669
-2665
-2672
-2733
-2770
-2678
-2482
-2330
-2302
-2302
-2195
-2025
-1982
-2129
-2288
-2235
-1988
-1798
-1847
-2028
-2081
-1895
-1620
-1478
-1522
-1616
-1601
-1463
-1318
-1274
-1334
-1411
-1429
-1383
-1315
-1251
-1190
-1130
-1072
-1016
-939
-829
-725
-685
-729
-796
-801
-732
-646
-600
-602
-610
-573
-493
-433
-469
-612
-775
-858
-849
-833
-864
-887
-800
-603
-430
-395
-457
-477
-386
-277
-282
-406
-520
-527
-472
-470
-543
-599
-564
-483
-448
-464
-437
-305
-133
-37
-37
-34
27
87
50
-79
-202
-254
-255
-248
-217
-142
-56
-22
-34
-9
72
108
-3
-213
-354
-334
-230
-172
-196
-222
-186
-99
-11
56
89
80
29
-21
-10
68
144
151
90
35
41
99
150
145
110
91
125
206
301
381
435
472
498
507
497
485
447
345
183
37
-2
66
119
64
-23
26
230
383
264
-70
-290
-155
198
359
93
-397
-688
-605
-393
-401
-651
-857
-759
-409
-57
146
266
409
560
648
686
767
920
1038
1005
852
738
763
839
793
589
363
252
232
157
-52
-265
-292
-101
124
187
79
-31
-6
116
188
144
54
15
32
34
-4
-24
6
35
-13
-140
-260
-296
-249
-168
-94
-77
-162
-342
-498
-464
-225
-2
-34
-288
-471
-373
-134
-82
-321
-597
-629
-467
-413
-613
-863
-863
-606
-383
-432
-672
-824
-740
-544
-447
-513
-645
-728
-746
-742
-739
-724
-715
-747
-838
-948
-1019
-1053
-1098
-1161
-1200
-1191
-1173
-1204
-1253
-1221
-1067
-919
-946
-1145
-1307
-1253
-1059
-957
-1040
-1144
-1070
-862
-757
-878
-1049
-1014
-778
-599
-673
-899
-1010
-898
-713
-657
-736
-771
-633
-412
-296
-368
-525
-592
-526
-440
-452
-527
-528
-413
-297
-315
-416
-428
-284
-137
-187
-416
-591
-561
-428
-406
-545
-715
-773
-714
-640
-607
-600
-604
-619
-634
-609
-527
-423
-345
-310
-321
-369
-423
-442
-404
-346
-334
-392
-464
-495
-498
-510
-536
-536
-513
-523
-572
-575
-458
-282
-197
-261
-379
-416
-356
-292
-278
-294
-312
-349
-415
-483
-521
-563
-654
-759
-785
-709
-632
-639
-678
-630
-490
-393
-436
-534
-524
-385
-280
-345
-517
-610
-543
-428
-432
-581
-750
-802
-731
-633
-592
-599
-590
-527
-455
-447
-506
-557
-538
-483
-477
-542
-604
-580
-494
-460
-549
-703
-816
-861
-900
-995
-1126
-1229
-1284
-1328
-1378
-1404
-1387
-1355
-1354
-1358
-1274
-1051
-755
-500
-329
-195
-49
86
149
133
100
109
137
107
-11
-157
-236
-218
-182
-239
-429
-674
-860
-930
-930
-944
-1006
-1086
-1136
-1154
-1164
-1189
-1239
-1313
-1414
-1530
-1632
-1693
-1710
-1701
-1686
-1677
-1684
-1714
-1766
-1822
-1875
-1928
-1992
-2060
-2111
-2143
-2167
-2194
-2224
-2248
-2270
-2302
-2343
-2382
-2410
-2433
-2466
-2518
-2580
-2641
-2694
-2742
-2784
-2811
-2817
-2809
-2808
-2826
-2850
-2856
-2825
-2766
-2717
-2709
-2745
-2804
-2856
-2887
-2906
-2932
-2975
-3025
-3061
-3073
-3072
-3069
-3073
-3081
-3089
-3108
-3140
-3169
-3178
-3168
-3161
-3179
-3210
-3227
-3213
-3175
-3137
-3118
-3126
-3150
-3175
-3183
-3177
-3176
-3197
-3218
-3202
-3141
-3075
-3050
-3066
-3080
-3057
-3010
-2981
-2993
-3030
-3062
-3065
-3032
-2967
-2899
-2863
-2879
-2922
-2941
-2920
-2898
-2918
-2980
-3032
-3038
-3016
-3011
-3028
-3026
-2974
-2902
-2872
-2913
-2989
-3043
-3055
-3060
-3099
-3172
-3241
-3272
-3260
-3231
-3204
-3183
-3169
-3172
-3196
-3228
-3248
-3258
-3284
-3344
-3424
-3479
-3487
-3464
-3442
-3434
-3427
-3409
-3381
-3356
-3338
-3329
-3338
-3373
-3420
-3441
-3411
-3345
-3286
-3261
-3254
-3227
-3164
-3088
-3034
-3018
-3027
-3041
-3047
-3046
-3044
-3037
-3014
-2970
-2909
-2844
-2785
-2728
-2671
-2619
-2581
-2559
-2535
-2495
-2443
-2401
-2388
-2399
-2411
-2403
-2375
-2354
-2359
-2387
-2417
-2427
-2414
-2391
-2376
-2376
-2383
-2383
-2370
-2347
-2329
-2329
-2345
-2357
-2358
-2374
-2443
-2572
-2719
-2829
-2875
-2886
-2913
-2986
-3091
-3176
-3192
-3126
-3035
-3005
-3057
-3104
-3019
-2773
-2475
-2254
-2114
-1955
-1725
-1513
-1431
-1466
-1481
-1388
-1262
-1249
-1375
-1504
-1496
-1373
-1282
-1333
-1485
-1616
-1657
-1642
-1637
-1668
-1708
-1721
-1692
-1638
-1585
-1553
-1554
-1580
-1606
-1615
-1606
-1596
-1596
-1594
-1568
-1501
-1412
-1349
-1350
-1413
-1484
-1511
-1490
-1465
-1475
-1512
-1538
-1530
-1502
-1482
-1466
-1440
-1403
-1372
-1357
-1342
-1314
-1277
-1251
-1242
-1235
-1221
-1209
-1210
-1221
-1230
-1237
-1252
-1275
-1288
-1270
-1221
-1165
-1130
-1133
-1164
-1197
-1205
-1185
-1160
-1154
-1173
-1184
-1157
-1092
-1025
-989
-993
-1017
-1034
-1034
-1017
-992
-963
-926
-873
-805
-729
-657
-597
-551
-524
-516
-520
-521
-512
-497
-485
-480
-474
-467
-457
-442
-414
-378
-350
-342
-338
-306
-226
-122
-38
2
18
43
86
125
144
149
156
167
173
170
171
187
208
215
203
187
180
182
183
178
174
170
159
138
112
92
79
72
72
81
94
94
70
27
-10
-23
-10
14
30
27
9
-6
-6
11
25
21
-1
-30
-53
-67
-71
-61
-35
-3
15
9
-8
-10
9
32
26
-20
-88
-136
-141
-113
-90
-106
-158
-215
-246
-250
-253
-276
-313
-339
-339
-324
-312
-299
-268
-213
-151
-102
-66
-29
10
34
34
20
10
-3
-35
-80
-106
-94
-69
-76
-120
-163
-173
-163
-170
-201
-227
-223
-205
-212
-251
-285
-284
-264
-260
-290
-339
-391
-453
-541
-660
-783
-883
-968
-1079
-1251
-1464
-1647
-1736
-1749
-1776
-1882
-2010
-2019
-1833
-1533
-1269
-1100
-951
-748
-539
-431
-434
-415
-270
-64
32
-47
-171
-166
-17
117
83
-110
-336
-495
-582
-640
-697
-752
-803
-848
-877
-873
-837
-804
-809
-856
-922
-977
-1006
-1007
-983
-944
-910
-900
-922
-965
-1014
-1053
-1076
-1083
-1081
-1077
-1073
-1068
-1065
-1067
-1079
-1095
-1106
-1107
-1103
-1103
-1111
-1123
-1133
-1138
-1148
-1169
-1203
-1241
-1272
-1300
-1338
-1393
-1447
-1469
-1454
-1425
-1416
-1429
-1436
-1420
-1398
-1406
-1449
-1499
-1531
-1551
-1584
-1637
-1692
-1728
-1745
-1756
-1773
-1793
-1812
-1824
-1827
-1820
-1804
-1781
-1747
-1701
-1652
-1613
-1589
-1564
-1521
-1472
-1445
-1453
-1476
-1481
-1459
-1424
-1394
-1369
-1351
-1340
-1332
-1313
-1271
-1224
-1197
-1197
-1195
-1164
-1117
-1079
-1055
-1019
-958
-902
-884
-891
-877
-823
-763
-743
-762
-774
-753
-716
-701
-710
-721
-723
-728
-746
-762
-752
-723
-709
-731
-765
-769
-738
-707
-717
-763
-802
-806
-793
-801
-838
-871
-868
-835
-804
-796
-801
-801
-795
-799
-813
-820
-812
-805
-825
-870
-905
-899
-855
-807
-785
-787
-793
-781
-756
-734
-727
-737
-756
-773
-784
-790
-797
-814
-844
-880
-911
-929
-941
-963
-994
-1014
-1006
-975
-948
-944
-951
-936
-887
-823
-768
-733
-705
-673
-640
-606
-565
-522
-498
-508
-540
-556
-538
-512
-511
-528
-523
-472
-415
-410
-469
-535
-545
-502
-466
-484
-535
-562
-545
-514
-509
-530
-551
-553
-555
-589
-665
-761
-850
-917
-968
-1008
-1046
-1101
-1189
-1311
-1438
-1532
-1591
-1663
-1787
-1921
-1957
-1817
-1540
-1244
-1002
-783
-524
-248
-51
17
27
87
204
275
219
89
17
59
140
149
53
-90
-224
-337
-436
-509
-538
-534
-534
-558
-581
-565
-520
-490
-515
-580
-633
-645
-633
-623
-623
-616
-597
-588
-609
-649
-673
-671
-662
-664
-666
-650
-622
-605
-614
-631
-637
-641
-665
-705
-727
-716
-698
-713
-757
-781
-756
-708
-696
-741
-808
-850
-856
-864
-903
-961
-998
-986
-946
-926
-955
-1014
-1055
-1058
-1045
-1064
-1131
-1216
-1275
-1293
-1288
-1290
-1311
-1348
-1387
-1416
-1420
-1398
-1366
-1345
-1333
-1310
-1265
-1209
-1174
-1169
-1177
-1174
-1158
-1147
-1145
-1138
-1112
-1074
-1040
-1017
-996
-969
-934
-906
-888
-875
-859
-838
-815
-795
-772
-741
-700
-653
-609
-578
-560
-542
-519
-493
-476
-477
-489
-498
-502
-511
-529
-550
-558
-547
-530
-522
-523
-524
-529
-549
-587
-623
-636
-629
-629
-658
-701
-729
-726
-711
-714
-745
-788
-815
-809
-781
-759
-759
-773
-781
-775
-771
-779
-790
-787
-778
-790
-828
-862
-852
-803
-763
-767
-803
-831
-834
-826
-831
-851
-872
-890
-909
-925
-924
-898
-864
-859
-901
-966
-1009
-1008
-999
-1030
-1101
-1153
-1134
-1060
-997
-981
-973
-917
-823
-758
-759
-792
-793
-755
-721
-726
-746
-744
-722
-716
-737
-757
-747
-725
-729
-764
-799
-806
-789
-769
-758
-757
-769
-793
-814
-810
-780
-756
-765
-793
-801
-783
-779
-838
-958
-1082
-1158
-1187
-1213
-1277
-1382
-1489
-1553
-1564
-1556
-1585
-1663
-1728
-1690
-1519
-1278
-1058
-878
-683
-443
-230
-144
-192
-255
-215
-91
-17
-83
-225
-297
-232
-115
-85
-201
-405
-597
-722
-790
-836
-879
-918
-941
-940
-914
-882
-869
-886
-919
-953
-985
-1021
-1058
-1067
-1028
-957
-898
-891
-931
-981
-1013
-1023
-1026
-1025
-1011
-983
-962
-971
-1007
-1033
-1023
-990
-977
-1007
-1054
-1073
-1048
-1008
-994
-1016
-1049
-1072
-1082
-1084
-1077
-1060
-1043
-1038
-1046
-1049
-1035
-1015
-1010
-1026
-1053
-1083
-1118
-1163
-1204
-1229
-1242
-1266
-1310
-1348
-1347
-1312
-1287
-1306
-1353
-1385
-1375
-1343
-1327
-1335
-1345
-1342
-1330
-1323
-1312
-1284
-1241
-1210
-1204
-1205
-1184
-1139
-1097
-1078
-1069
-1044
-999
-958
-936
-921
-893
-854
-827
-817
-802
-763
-713
-677
-660
-641
-606
-571
-560
-570
-572
-546
-505
-476
-469
-469
-464
-463
-478
-509
-540
-560
-568
-573
-582
-593
-594
-574
-533
-490
-476
-504
-554
-589
-589
-574
-575
-604
-643
-661
-649
-618
-590
-581
-593
-625
-664
-694
-705
-707
-725
-770
-823
-842
-813
-761
-732
-746
-777
-788
-774
-755
-753
-772
-799
-820
-825
-807
-775
-755
-768
-811
-845
-845
-830
-844
-901
-962
-977
-941
-897
-874
-855
-804
-717
-632
-580
-551
-512
-458
-421
-432
-480
-524
-532
-516
-507
-518
-540
-556
-555
-538
-509
-485
-488
-519
-553
-559
-538
-528
-562
-623
-662
-658
-639
-649
-685
-706
-698
-705
-776
-903
-1019
-1075
-1092
-1134
-1230
-1350
-1445
-1500
-1534
-1580
-1651
-1731
-1780
-1746
-1607
-1400
-1192
-1007
-809
-566
-324
-183
-178
-222
-199
-95
-16
-63
-198
-286
-239
-119
-71
-173
-370
-547
-637
-664
-687
-733
-780
-798
-784
-757
-740
-736
-748
-779
-836
-907
-969
-996
-982
-940
-889
-843
-808
-783
-764
-738
-700
-655
-624
-617
-632
-654
-669
-676
-680
-687
-701
-717
-724
-713
-684
-655
-645
-657
-680
-705
-729
-754
-777
-792
-798
-804
-818
-831
-832
-822
-818
-833
-861
-887
-906
-927
-958
-993
-1018
-1030
-1042
-1062
-1087
-1101
-1098
-1091
-1097
-1126
-1164
-1188
-1188
-1170
-1157
-1161
-1174
-1172
-1143
-1097
-1055
-1030
-1017
-998
-965
-922
-880
-850
-832
-820
-805
-783
-758
-736
-718
-702
-686
-670
-653
-633
-614
-597
-582
-564
-540
-516
-503
-497
-482
-456
-433
-435
-452
-456
-429
-395
-399
-456
-522
-544
-518
-494
-517
-578
-623
-615
-571
-538
-535
-548
-557
-562
-579
-602
-609
-593
-576
-582
-607
-622
-609
-582
-567
-573
-590
-611
-632
-654
-665
-659
-643
-637
-652
-672
-676
-658
-631
-621
-637
-670
-696
-698
-681
-670
-680
-701
-706
-686
-662
-660
-680
-697
-696
-695
-720
-769
-806
-806
-786
-776
-780
-770
-722
-651
-588
-547
-515
-474
-424
-386
-372
-378
-393
-406
-412
-414
-419
-428
-437
-437
-427
-416
-413
-414
-416
-422
-432
-444
-455
-462
-471
-480
-485
-485
-482
-481
-482
-488
-521
-599
-713
-833
-934
-1024
-1111
-1199
-1287
-1385
-1502
-1613
-1675
-1690
-1714
-1792
-1869
-1825
-1616
-1332
-1098
-934
-754
-510
-282
-183
-202
-207
-108
30
73
-14
-109
-82
58
170
141
-4
-157
-252
-304
-359
-421
-463
-468
-457
-453
-451
-433
-410
-410
-446
-493
-517
-516
-509
-505
-491
-456
-420
-412
-438
-475
-500
-513
-529
-548
-554
-543
-532
-543
-574
-598
-599
-585
-579
-584
-590
-582
-570
-574
-598
-625
-630
-613
-602
-624
-671
-707
-706
-680
-663
-675
-707
-735
-749
-754
-759
-773
-795
-824
-851
-870
-882
-898
-927
-960
-980
-982
-981
-994
-1025
-1053
-1058
-1038
-1013
-1004
-1012
-1018
-1004
-974
-948
-934
-923
-902
-879
-872
-883
-890
-871
-831
-796
-786
-797
-803
-783
-745
-712
-701
-714
-725
-713
-672
-616
-573
-552
-543
-528
-501
-472
-456
-457
-461
-458
-450
-446
-458
-472
-468
-441
-411
-404
-422
-439
-432
-407
-390
-394
-411
-423
-427
-437
-460
-488
-504
-511
-519
-536
-550
-545
-522
-497
-490
-504
-525
-537
-537
-536
-547
-575
-609
-630
-628
-613
-605
-614
-630
-634
-625
-617
-625
-644
-659
-665
-667
-671
-673
-666
-646
-620
-601
-598
-613
-639
-664
-680
-700
-737
-792
-846
-869
-853
-820
-790
-763
-722
-655
-576
-508
-464
-440
-418
-394
-373
-364
-369
-385
-402
-407
-400
-387
-382
-388
-392
-386
-376
-381
-404
-420
-413
-394
-406
-462
-531
-565
-559
-560
-605
-669
-693
-663
-642
-699
-832
-973
-1063
-1107
-1158
-1252
-1384
-1524
-1634
-1689
-1692
-1691
-1741
-1834
-1874
-1764
-1512
-1231
-1012
-831
-611
-353
-156
-83
-66
22
194
325
303
170
89
154
290
338
225
24
-144
-225
-256
-295
-357
-412
-426
-399
-355
-318
-294
-282
-287
-321
-381
-443
-478
-476
-460
-453
-461
-472
-481
-493
-510
-520
-512
-493
-483
-489
-500
-502
-504
-515
-535
-550
-553
-550
-552
-556
-550
-537
-535
-554
-585
-607
-608
-602
-608
-633
-659
-670
-664
-657
-662
-676
-688
-700
-723
-761
-799
-821
-833
-856
-893
-920
-911
-878
-861
-891
-953
-1006
-1028
-1031
-1038
-1056
-1084
-1120
-1153
-1151
-1087
-987
-916
-916
-958
-965
-899
-809
-764
-785
-817
-805
-747
-692
-674
-674
-650
-592
-534
-514
-527
-527
-482
-408
-352
-338
-342
-326
-284
-245
-238
-251
-253
-235
-226
-246
-281
-296
-272
-230
-205
-203
-208
-201
-187
-182
-196
-219
-240
-256
-273
-294
-315
-328
-331
-330
-329
-328
-330
-333
-335
-337
-342
-357
-376
-383
-370
-355
-361
-387
-402
-377
-329
-304
-319
-348
-352
-332
-321
-339
-364
-365
-348
-342
-360
-379
-376
-362
-366
-394
-414
-402
-374
-369
-395
-421
-417
-394
-387
-418
-469
-513
-540
-560
-575
-580
-579
-581
-589
-585
-556
-518
-503
-521
-542
-520
-445
-359
-314
-320
-327
-283
-194
-127
-141
-222
-289
-278
-209
-160
-175
-219
-226
-183
-134
-127
-157
-185
-191
-190
-197
-215
-229
-234
-228
-212
-202
-230
-324
-467
-605
-692
-735
-785
-887
-1043
-1204
-1313
-1348
-1350
-1382
-1466
-1535
-1485
-1291
-1030
-805
-626
-411
-123
149
276
249
213
300
474
570
487
309
208
253
345
335
181
-35
-203
-280
-302
-323
-365
-407
-422
-399
-357
-330
-337
-365
-393
-414
-443
-486
-515
-498
-443
-402
-416
-473
-521
-532
-525
-532
-553
-560
-537
-500
-478
-477
-482
-477
-462
-452
-458
-477
-500
-522
-544
-572
-605
-640
-675
-711
-750
-773
-764
-731
-704
-714
-757
-792
-794
-774
-765
-787
-828
-860
-874
-874
-870
-872
-887
-922
-973
-1023
-1054
-1062
-1061
-1071
-1095
-1117
-1115
-1088
-1061
-1063
-1093
-1116
-1104
-1066
-1036
-1031
-1034
-1015
-971
-926
-902
-897
-894
-881
-860
-838
-819
-801
-781
-750
-705
-661
-636
-629
-618
-584
-533
-490
-472
-471
-465
-438
-390
-347
-332
-350
-374
-367
-323
-276
-265
-291
-314
-301
-268
-249
-258
-271
-263
-241
-231
-245
-269
-280
-280
-285
-306
-337
-358
-359
-350
-352
-367
-382
-381
-364
-343
-331
-329
-332
-324
-301
-273
-263
-291
-345
-387
-401
-409
-442
-495
-527
-521
-507
-515
-534
-527
-484
-445
-452
-496
-534
-534
-509
-479
-450
-413
-371
-337
-316
-301
-289
-282
-289
-309
-344
-387
-424
-428
-385
-323
-279
-267
-263
-235
-182
-131
-103
-98
-108
-125
-140
-134
-101
-63
-57
-84
-113
-112
-89
-75
-79
-78
-59
-42
-50
-70
-62
-18
15
-9
-74
-122
-119
-86
-74
-112
-196
-306
-419
-510
-555
-565
-588
-666
-783
-875
-892
-851
-831
-884
-978
-1002
-883
-655
-429
-265
-116
98
360
552
586
512
475
547
649
660
555
431
385
408
420
360
238
96
-36
-150
-233
-273
-275
-265
-266
-277
-284
-285
-304
-353
-421
-483
-524
-554
-585
-611
-610
-566
-502
-458
-465
-521
-590
-630
-626
-595
-580
-604
-649
-673
-649
-602
-577
-593
-621
-628
-615
-611
-635
-673
-694
-693
-689
-695
-707
-707
-694
-685
-692
-715
-740
-762
-780
-801
-825
-848
-866
-879
-886
-899
-923
-958
-994
-1014
-1018
-1021
-1043
-1087
-1135
-1165
-1175
-1174
-1170
-1160
-1144
-1126
-1104
-1076
-1043
-1019
-1015
-1022
-1022
-1006
-994
-1000
-1012
-1001
-957
-899
-861
-852
-854
-835
-786
-726
-684
-680
-701
-711
-684
-629
-581
-564
-565
-551
-507
-450
-412
-402
-399
-378
-343
-321
-334
-370
-395
-386
-361
-352
-374
-407
-420
-411
-402
-414
-442
-472
-495
-515
-535
-552
-566
-575
-572
-551
-519
-497
-504
-527
-541
-534
-519
-518
-532
-540
-528
-504
-487
-482
-479
-470
-456
-450
-452
-452
-443
-432
-434
-448
-459
-447
-420
-400
-406
-423
-423
-404
-394
-420
-468
-501
-502
-496
-520
-571
-604
-588
-542
-510
-505
-497
-455
-388
-334
-314
-313
-298
-266
-237
-233
-244
-249
-238
-224
-225
-240
-250
-244
-232
-233
-245
-253
-251
-259
-294
-335
-345
-319
-291
-303
-340
-356
-330
-300
-304
-338
-367
-389
-442
-551
-676
-755
-775
-789
-854
-969
-1081
-1150
-1178
-1199
-1247
-1324
-1392
-1387
-1267
-1055
-823
-620
-427
-193
66
249
273
183
125
188
307
333
203
21
-53
27
138
120
-63
-301
-464
-524
-550
-604
-668
-682
-636
-581
-568
-589
-593
-563
-542
-578
-664
-742
-760
-724
-680
-666
-688
-719
-734
-728
-717
-719
-730
-732
-712
-679
-662
-679
-714
-734
-724
-700
-689
-698
-708
-703
-680
-659
-655
-666
-675
-673
-665
-664
-673
-679
-674
-666
-677
-713
-757
-782
-791
-806
-846
-896
-927
-927
-918
-925
-948
-969
-974
-970
-978
-1009
-1049
-1076
-1085
-1087
-1096
-1108
-1105
-1079
-1043
-1022
-1019
-1017
-1000
-980
-973
-978
-975
-953
-921
-898
-879
-847
-798
-752
-730
-725
-714
-690
-672
-681
-707
-724
-715
-691
-677
-678
-677
-654
-607
-548
-494
-459
-449
-459
-473
-469
-438
-398
-377
-382
-391
-370
-309
-234
-182
-173
-196
-233
-265
-290
-311
-335
-366
-399
-421
-423
-408
-392
-386
-385
-386
-394
-417
-447
-468
-470
-462
-462
-479
-501
-508
-496
-482
-482
-496
-505
-500
-488
-491
-518
-555
-574
-567
-549
-541
-547
-552
-542
-518
-501
-508
-537
-577
-615
-648
-679
-705
-720
-722
-712
-691
-657
-611
-560
-519
-490
-462
-426
-391
-373
-375
-376
-353
-313
-289
-304
-340
-360
-351
-335
-343
-376
-405
-410
-401
-404
-423
-434
-421
-396
-389
-413
-442
-451
-441
-435
-448
-475
-517
-590
-706
-846
-974
-1066
-1125
-1175
-1240
-1328
-1425
-1500
-1529
-1527
-1541
-1596
-1649
-1615
-1460
-1236
-1018
-818
-595
-343
-137
-59
-83
-92
-2
134
189
105
-36
-100
-40
58
66
-62
-261
-428
-510
-533
-551
-587
-618
-616
-584
-554
-550
-565
-580
-596
-632
-694
-751
-757
-707
-641
-608
-613
-627
-626
-616
-619
-637
-653
-652
-642
-636
-640
-647
-652
-657
-667
-679
-683
-675
-663
-660
-672
-686
-692
-686
-686
-712
-759
-802
-820
-818
-820
-839
-868
-888
-894
-891
-887
-886
-889
-900
-921
-943
-963
-981
-999
-1013
-1021
-1025
-1033
-1047
-1056
-1052
-1039
-1035
-1047
-1061
-1059
-1040
-1025
-1029
-1046
-1058
-1059
-1061
-1075
-1093
-1090
-1054
-999
-947
-913
-891
-864
-822
-768
-713
-669
-637
-615
-589
-552
-508
-470
-446
-430
-410
-384
-366
-366
-369
-350
-302
-249
-225
-237
-258
-265
-254
-243
-243
-252
-261
-268
-269
-255
-222
-188
-178
-200
-231
-243
-229
-213
-217
-242
-267
-278
-280
-289
-311
-333
-337
-322
-311
-320
-342
-353
-332
-302
-297
-331
-377
-395
-383
-373
-391
-423
-431
-402
-370
-375
-414
-447
-447
-430
-428
-452
-468
-455
-424
-412
-436
-474
-490
-479
-472
-498
-552
-601
-615
-599
-579
-574
-580
-579
-551
-495
-427
-366
-326
-309
-299
-275
-233
-190
-179
-207
-245
-261
-253
-247
-266
-295
-301
-276
-248
-242
-254
-261
-253
-251
-273
-308
-327
-319
-308
-320
-351
-371
-360
-334
-338
-399
-507
-626
-733
-826
-905
-979
-1066
-1182
-1314
-1413
-1441
-1425
-1440
-1525
-1610
-1579
-1391
-1131
-909
-738
-535
-264
-14
29
69
45
139
301
374
287
138
86
173
285
284
150
-30
-169
-249
-298
-336
-361
-374
-387
-399
-392
-355
-313
-302
-338
-399
-457
-498
-519
-515
-485
-448
-431
-447
-471
-480
-470
-461
-468
-483
-486
-477
-472
-483
-503
-512
-500
-481
-471
-476
-482
-479
-472
-480
-504
-526
-529
-521
-524
-548
-574
-578
-563
-559
-585
-631
-670
-689
-694
-700
-720
-753
-785
-793
-766
-721
-698
-726
-789
-841
-852
-833
-823
-847
-885
-903
-882
-839
-800
-777
-763
-744
-720
-704
-698
-686
-653
-602
-560
-542
-540
-526
-490
-449
-430
-440
-459
-466
-459
-450
-442
-421
-382
-336
-308
-303
-300
-272
-224
-183
-173
-184
-182
-147
-95
-64
-70
-93
-102
-90
-80
-96
-127
-140
-122
-91
-77
-87
-97
-91
-77
-76
-88
-106
-122
-142
-164
-178
-173
-154
-139
-137
-141
-146
-159
-183
-206
-215
-215
-223
-242
-250
-231
-201
-191
-209
-229
-232
-232
-251
-293
-325
-321
-294
-278
-292
-324
-346
-346
-332
-320
-320
-339
-372
-405
-429
-440
-447
-462
-487
-522
-561
-599
-628
-641
-633
-608
-578
-553
-536
-511
-464
-391
-321
-283
-280
-283
-263
-224
-195
-189
-189
-177
-165
-173
-203
-223
-213
-190
-188
-218
-253
-267
-264
-267
-284
-296
-287
-271
-277
-312
-352
-367
-351
-324
-320
-366
-459
-579
-696
-791
-862
-926
-1017
-1164
-1359
-1543
-1639
-1637
-1616
-1672
-1797
-1860
-1743
-1467
-1173
-953
-768
-536
-280
-115
-96
-115
-22
196
381
392
267
183
251
406
478
377
160
-49
-177
-238
-272
-301
-321
-326
-325
-323
-312
-288
-263
-258
-286
-339
-393
-424
-423
-389
-341
-309
-314
-356
-417
-470
-500
-504
-494
-486
-494
-516
-538
-535
-500
-450
-419
-426
-459
-483
-472
-431
-396
-395
-420
-440
-433
-413
-404
-408
-403
-387
-382
-414
-468
-499
-480
-435
-408
-418
-446
-468
-481
-496
-515
-534
-555
-591
-644
-692
-711
-696
-669
-658
-671
-693
-708
-707
-692
-668
-643
-625
-618
-614
-601
-576
-549
-529
-519
-510
-500
-494
-493
-494
-488
-472
-445
-404
-358
-318
-297
-293
-280
-241
-188
-152
-149
-162
-163
-138
-98
-62
-43
-38
-39
-36
-24
-12
-10
-16
-18
-8
3
-3
-23
-31
-15
5
0
-36
-73
-85
-70
-55
-56
-71
-86
-90
-86
-84
-92
-112
-139
-161
-174
-184
-202
-229
-251
-252
-230
-202
-189
-201
-230
-252
-251
-236
-232
-258
-297
-314
-290
-248
-221
-219
-221
-207
-183
-170
-174
-181
-178
-170
-176
-199
-225
-243
-258
-283
-320
-359
-389
-402
-396
-362
-302
-237
-188
-156
-120
-61
6
46
42
12
-2
12
32
30
10
2
25
59
70
50
30
33
50
46
12
-28
-45
-38
-41
-71
-108
-121
-104
-85
-92
-117
-127
-102
-79
-115
-227
-368
-471
-509
-520
-563
-661
-785
-888
-949
-983
-1034
-1121
-1207
-1212
-1089
-876
-669
-510
-341
-87
217
433
473
416
431
579
739
757
628
491
468
528
540
421
213
10
-137
-238
-318
-377
-398
-375
-327
-285
-265
-268
-277
-277
-272
-279
-306
-333
-329
-288
-232
-195
-193
-214
-239
-254
-259
-255
-247
-239
-229
-216
-200
-187
-186
-198
-212
-211
-190
-168
-176
-223
-282
-313
-306
-291
-308
-351
-381
-373
-352
-353
-380
-396
-383
-369
-399
-469
-529
-542
-526
-527
-563
-600
-605
-578
-549
-550
-576
-601
-600
-582
-580
-619
-680
-713
-688
-632
-608
-637
-677
-674
-621
-565
-551
-570
-587
-585
-580
-582
-578
-545
-492
-452
-445
-447
-421
-365
-318
-309
-323
-305
-240
-163
-122
-116
-110
-78
-44
-36
-50
-61
-55
-52
-62
-67
-46
-21
-26
-59
-68
-16
64
94
48
-19
-29
29
86
76
11
-41
-36
-3
2
-44
-104
-132
-126
-116
-125
-140
-146
-152
-176
-205
-207
-174
-146
-173
-244
-299
-295
-255
-232
-249
-272
-261
-217
-174
-159
-166
-176
-178
-173
-168
-168
-170
-170
-167
-158
-153
-160
-180
-208
-231
-246
-253
-258
-261
-262
-254
-235
-205
-172
-145
-117
-77
-33
-6
-10
-28
-28
2
34
38
16
3
22
58
72
49
16
6
19
31
15
-25
-55
-47
-9
27
34
14
1
16
47
67
69
66
66
44
-25
-138
-254
-337
-393
-451
-532
-625
-709
-771
-806
-826
-860
-935
-1025
-1044
-923
-700
-488
-353
-234
-24
269
493
519
411
356
461
629
681
572
439
432
550
643
587
402
209
93
38
-22
-107
-172
-165
-101
-58
-81
-139
-158
-116
-79
-121
-228
-297
-255
-135
-46
-46
-101
-136
-121
-88
-84
-117
-161
-187
-176
-141
-111
-109
-127
-134
-113
-85
-84
-111
-131
-127
-122
-143
-180
-186
-147
-107
-113
-147
-161
-137
-119
-155
-228
-284
-302
-305
-320
-344
-353
-347
-345
-354
-358
-347
-342
-377
-444
-498
-502
-475
-472
-523
-587
-598
-540
-474
-478
-548
-600
-561
-458
-391
-420
-498
-523
-454
-359
-336
-391
-444
-425
-360
-331
-366
-395
-342
-230
-160
-187
-245
-236
-154
-90
-108
-156
-137
-44
30
21
-22
4
109
194
182
97
36
56
122
160
141
88
30
-18
-46
-36
13
76
96
50
-21
-52
-2
86
128
79
-17
-73
-40
42
92
68
6
-37
-36
-23
-41
-105
-183
-224
-210
-164
-128
-126
-154
-178
-164
-118
-88
-112
-173
-208
-171
-87
-28
-25
-43
-33
1
-3
-78
-171
-200
-148
-79
-61
-100
-136
-122
-68
-7
26
35
29
21
23
43
83
134
177
193
189
174
160
157
167
184
191
179
149
114
92
95
116
136
133
93
39
9
33
89
115
69
-11
-41
11
72
44
-85
-219
-261
-217
-177
-214
-307
-383
-416
-429
-472
-557
-656
-737
-760
-691
-529
-327
-142
20
184
349
463
476
425
402
446
489
448
344
286
349
480
561
532
434
336
266
210
150
85
28
-6
-13
-8
-3
-26
-71
-105
-125
-153
-199
-227
-181
-68
28
30
-40
-91
-78
-47
-73
-158
-232
-227
-162
-105
-100
-139
-180
-189
-147
-69
-7
-8
-71
-122
-90
1
62
32
-53
-115
-122
-120
-163
-228
-257
-245
-239
-273
-310
-313
-280
-258
-272
-289
-282
-263
-275
-314
-336
-322
-303
-324
-399
-481
-522
-506
-455
-409
-406
-450
-508
-522
-456
-352
-300
-349
-455
-515
923
931
913
881
863
864
867
849
809
763
728
703
676
640
601
572
563
577
597
588
528
452
436
530
697
846
919
948
1005
1114
1216
1243
1191
1115
1066
1048
1047
1065
1113
1183
1249
1288
1303
1306
1295
1261
1211
1158
1107
1049
985
947
964
1029
1091
1103
1060
985
893
785
657
521
397
289
171
6
-214
-447
-624
-714
-776
-896
-1097
-1286
-1338
-1240
-1098
-1002
-900
-676
-321
21
215
314
506
874
1269
1459
1391
1245
1234
1383
1520
1480
1265
1011
838
768
755
749
736
717
686
654
645
678
732
752
696
578
455
381
359
347
301
229
181
193
239
256
201
97
9
-23
-12
0
-12
-31
-18
63
216
404
568
664
700
708
708
682
603
485
367
272
200
143
116
140
201
248
236
178
110
49
-15
-96
-188
-274
-352
-413
-433
-391
-308
-251
-270
-349
-428
-479
-532
-615
-699
-722
-668
-588
-528
-464
-350
-197
-86
-77
-140
-200
-216
-208
-210
-225
-232
-218
-188
-141
-84
-45
-58
-110
-156
-159
-139
-143
-187
-240
-257
-221
-147
-60
9
46
64
106
193
280
297
231
140
91
85
73
35
13
50
121
161
145
115
115
134
125
67
-8
-86
-73
-86
-111
-140
-158
-156
-142
-143
-173
-203
-190
-127
-75
-95
-170
-211
-165
-82
-56
-106
-153
-113
-9
61
36
-44
-100
-109
-113
-158
-233
-287
-286
-244
-195
-164
-155
-152
-130
-83
-43
-57
-126
-186
-175
-106
-75
-161
-336
-487
-532
-501
-480
-503
-512
-434
-272
-90
46
132
197
258
292
275
217
157
134
146
149
116
80
104
212
333
363
274
152
110
159
201
155
61
17
63
140
165
128
83
71
77
74
64
57
36
-45
-190
-341
-432
-455
-457
-496
-582
-691
-786
-848
-880
-909
-975
-1076
-1151
-1106
-914
-656
-431
-248
-41
221
446
530
503
513
642
781
761
567
386
397
568
704
676
543
442
419
406
346
268
232
243
238
177
94
61
107
188
228
186
85
-11
-46
-10
55
100
113
116
134
171
210
241
260
263
233
177
131
132
168
190
178
180
267
433
584
634
587
527
516
540
541
492
410
320
227
137
70
39
22
-20
-81
-106
-51
60
156
187
171
149
126
84
16
-39
-51
-47
-80
-158
-222
-219
-164
-126
-145
-188
-201
-175
-145
-140
-146
-140
-113
-72
-13
62
130
171
192
223
273
318
342
376
459
570
635
611
542
523
585
674
713
691
663
684
766
881
991
1064
1084
1065
1052
1084
1154
1208
1197
1129
1061
1045
1077
1117
1138
1148
1171
1211
1248
1266
1278
1325
1426
1543
1608
1591
1534
1507
1532
1560
1543
1498
1490
1549
1637
1691
1702
1701
1710
1704
1642
1525
1413
1375
1438
1560
1657
1674
1629
1592
1610
1660
1680
1643
1576
1519
1491
1504
1579
1702
1796
1767
1616
1465
1425
1468
1460
1338
1207
1213
1379
1570
1657
1642
1637
1718
1849
1945
1965
1936
1905
1908
1956
2025
2071
2066
2008
1917
1801
1664
1548
1531
1649
1824
1905
1826
1689
1648
1731
1798
1712
1496
1296
1220
1241
1275
1295
1327
1356
1312
1160
965
827
769
710
581
425
357
412
492
472
340
187
88
-4
-180
-421
-559
-451
-140
181
388
539
755
1028
1202
1178
1056
1023
1128
1234
1209
1104
1067
1135
1188
1105
916
744
635
524
366
227
200
278
351
344
298
298
359
405
378
300
250
277
370
475
541
543
489
419
383
402
453
486
473
441
446
517
616
669
640
575
552
598
656
663
626
614
664
733
760
753
771
839
899
883
798
723
707
725
727
711
706
710
686
634
609
640
671
619
498
475
432
455
361
157
-3
-5
73
60
-96
-276
-336
-282
-242
-314
-464
-595
-664
-697
-736
-796
-864
-918
-940
-917
-871
-839
-844
-871
-897
-910
-933
-970
-1006
-1032
-1051
-1064
-1056
-1006
-933
-880
-864
-857
-830
-773
-704
-658
-658
-695
-725
-703
-637
-587
-600
-640
-634
-567
-516
-553
-651
-741
-806
-889
-992
-1059
-1047
-1014
-1049
-1119
-1114
-995
-875
-880
-992
-1072
-1063
-1045
-1109
-1225
-1289
-1276
-1278
-1360
-1477
-1543
-1550
-1565
-1630
-1719
-1798
-1870
-1952
-2020
-2041
-2039
-2078
-2176
-2266
-2284
-2249
-2249
-2332
-2461
-2564
-2604
-2602
-2594
-2602
-2641
-2707
-2741
-2676
-2519
-2372
-2331
-2385
-2424
-2356
-2205
-2070
-2013
-2008
-1995
-1947
-1883
-1829
-1783
-1720
-1638
-1574
-1588
-1669
-1728
-1684
-1575
-1540
-1665
-1855
-1918
-1778
-1567
-1482
-1562
-1660
-1645
-1532
-1436
-1423
-1449
-1437
-1373
-1321
-1338
-1410
-1494
-1540
-1560
-1614
-1751
-1960
-2159
-2277
-2331
-2401
-2565
-2799
-3007
-3097
-3033
-2864
-2673
-2517
-2394
-2239
-2012
-1757
-1587
-1566
-1606
-1558
-1369
-1128
-973
-939
-930
-831
-636
-453
-410
-560
-825
-1038
-1086
-994
-908
-950
-1084
-1154
-1068
-916
-881
-1016
-1197
-1280
-1253
-1228
-1259
-1259
-1150
-989
-939
-1045
-1162
-1132
-997
-958
-1107
-1281
-1253
-1003
-758
-736
-901
-1022
-945
-724
-511
-382
-323
-299
-313
-330
-272
-129
-18
-98
-369
-625
-659
-484
-329
-386
-604
-763
-733
-608
-568
-670
-835
-953
-995
-1000
-1007
-1016
-1025
-1031
-1032
-1030
-1045
-1097
-1177
-1247
-1298
-1366
-1468
-1551
-1529
-1383
-1207
-1128
-1166
-1220
-1176
-1018
-868
-860
-1014
-1200
-1257
-1136
-946
-837
-852
-889
-842
-712
-603
-588
-630
-651
-650
-660
-671
-622
-483
-313
-213
-195
-178
-92
36
126
150
154
179
207
212
201
211
246
252
211
181
230
334
390
342
245
195
209
205
119
-12
-88
-71
-18
-12
-62
-94
-50
25
32
-75
-205
-228
-127
-35
-79
-219
-289
-188
-18
28
-111
-296
-367
-311
-239
-233
-255
-227
-141
-53
0
34
71
94
76
44
51
110
192
252
286
320
373
448
538
616
659
658
654
697
799
915
989
1010
1011
1024
1059
1115
1182
1240
1260
1245
1249
1332
1477
1599
1624
1582
1565
1617
1695
1722
1677
1613
1591
1611
1635
1638
1631
1639
1652
1633
1568
1479
1419
1417
1438
1420
1329
1182
1030
912
826
729
568
337
118
36
151
381
577
680
755
891
1079
1239
1342
1457
1641
1851
1990
2034
2079
2228
2464
2659
2699
2577
2382
2223
2149
2123
2070
1965
1866
1846
1921
2014
2037
1993
1953
1952
1945
1875
1750
1636
1582
1568
1552
1522
1491
1472
1468
1490
1526
1564
1587
1594
1584
1532
1419
1295
1255
1344
1478
1512
1408
1264
1201
1207
1175
1055
906
797
716
621
528
524
650
836
973
1026
1028
1011
972
912
837
722
511
209
-72
-211
-232
-289
-492
-766
-935
-929
-862
-883
-1007
-1106
-1078
-962
-877
-882
-922
-910
-841
-782
-790
-847
-882
-850
-795
-790
-842
-883
-848
-750
-672
-659
-665
-618
-529
-488
-548
-638
-637
-518
-383
-335
-359
-352
-245
-83
48
129
193
250
278
278
303
381
443
408
294
225
281
388
404
318
258
323
443
471
374
287
341
499
608
576
463
370
330
309
292
310
380
476
552
607
692
830
979
1072
1085
1054
1029
1028
1044
1059
1073
1097
1129
1162
1198
1255
1349
1452
1508
1494
1452
1453
1534
1649
1735
1766
1773
1788
1817
1853
1898
1962
2035
2094
2131
2174
2247
2328
2371
2358
2316
2288
2276
2254
2218
2190
2200
2231
2233
2181
2105
2062
2074
2091
2054
1958
1865
1833
1850
1846
1779
1684
1636
1646
1656
1597
1479
1372
1318
1284
1203
1055
876
704
536
356
159
-34
-220
-416
-601
-715
-707
-597
-471
-397
-361
-286
-130
55
173
184
157
202
354
528
617
603
569
595
655
644
502
283
98
10
-20
-65
-148
-233
-271
-257
-222
-202
-223
-277
-336
-368
-374
-375
-401
-451
-502
-529
-541
-559
-590
-621
-633
-616
-587
-563
-547
-527
-498
-475
-485
-524
-551
-534
-491
-475
-511
-563
-584
-575
-581
-619
-645
-617
-551
-509
-522
-547
-518
-434
-362
-363
-436
-526
-592
-622
-631
-642
-669
-702
-697
-605
-447
-318
-310
-414
-533
-589
-611
-689
-866
-1082
-1239
-1273
-1194
-1065
-952
-891
-862
-808
-688
-545
-485
-579
-785
-983
-1073
-1064
-1031
-1017
-999
-932
-806
-664
-548
-477
-449
-465
-530
-620
-688
-702
-675
-646
-631
-606
-540
-436
-336
-277
-272
-315
-384
-447
-466
-429
-361
-301
-260
-218
-168
-136
-145
-182
-208
-210
-232
-304
-392
-423
-373
-317
-357
-507
-672
-743
-719
-690
-725
-797
-824
-779
-723
-726
-783
-825
-819
-811
-864
-975
-1075
-1115
-1110
-1123
-1182
-1254
-1296
-1299
-1293
-1302
-1328
-1363
-1410
-1464
-1489
-1447
-1357
-1289
-1290
-1319
-1288
-1158
-1012
-980
-1110
-1309
-1437
-1440
-1389
-1389
-1463
-1531
-1497
-1352
-1175
-1055
-1014
-1021
-1058
-1134
-1248
-1363
-1425
-1417
-1368
-1324
-1312
-1330
-1358
-1362
-1317
-1248
-1226
-1312
-1476
-1609
-1626
-1560
-1514
-1536
-1592
-1647
-1740
-1923
-2170
-2377
-2487
-2573
-2736
-2963
-3104
-3025
-2757
-2446
-2203
-2014
-1816
-1608
-1458
-1412
-1426
-1396
-1268
-1094
-980
-968
-976
-877
-638
-374
-261
-382
-637
-849
-918
-906
-946
-1079
-1217
-1241
-1132
-985
-913
-939
-992
-1006
-990
-996
-1044
-1098
-1114
-1094
-1068
-1051
-1032
-1000
-970
-964
-976
-981
-964
-939
-923
-922
-930
-956
-1012
-1069
-1074
-1003
-904
-863
-911
-981
-968
-846
-685
-589
-598
-665
-721
-740
-747
-774
-833
-902
-960
-1001
-1027
-1039
-1032
-1012
-1001
-1019
-1065
-1122
-1173
-1216
-1256
-1295
-1334
-1382
-1443
-1494
-1499
-1444
-1361
-1299
-1278
-1282
-1289
-1291
-1284
-1263
-1238
-1241
-1288
-1335
-1319
-1224
-1111
-1049
-1033
-995
-898
-790
-746
-770
-784
-716
-579
-464
-435
-472
-494
-442
-341
-266
-266
-311
-312
-210
-31
130
201
188
148
131
146
175
192
185
165
165
213
295
365
390
399
437
484
460
334
186
138
203
247
146
-50
-161
-83
92
177
101
-26
-63
23
138
194
199
217
266
290
253
194
193
265
320
254
81
-75
-113
-76
-114
-298
-523
-615
-530
-386
-322
-340
-319
-183
11
156
218
249
297
344
349
321
299
280
205
47
-123
-203
-180
-153
-221
-370
-482
-468
-378
-331
-381
-474
-517
-500
-485
-507
-533
-517
-492
-530
-652
-783
-848
-871
-941
-1093
-1258
-1355
-1382
-1403
-1454
-1538
-1665
-1862
-2109
-2326
-2454
-2526
-2602
-2644
-2517
-2160
-1678
-1236
-901
-613
-329
-100
10
37
93
234
408
537
609
676
789
938
1071
1130
1081
958
854
858
958
1039
1006
901
863
954
1085
1110
1004
883
865
946
1019
1013
976
1000
1087
1151
1123
1039
994
1019
1049
1014
949
972
1130
1317
1367
1247
1107
1111
1251
1358
1288
1099
972
1014
1143
1198
1128
1024
996
1052
1109
1101
1038
961
896
840
780
714
634
558
504
484
468
419
337
272
261
280
265
184
71
-18
-70
-119
-187
-256
-299
-325
-376
-479
-604
-696
-731
-733
-747
-792
-853
-902
-926
-908
-837
-750
-725
-822
-995
-1113
-1098
-1007
-977
-1052
-1144
-1134
-1027
-923
-884
-873
-828
-763
-746
-778
-786
-702
-564
-473
-470
-493
-462
-385
-345
-388
-472
-510
-483
-448
-480
-570
-641
-645
-599
-568
-577
-611
-647
-681
-726
-769
-805
-852
-943
-1057
-1141
-1153
-1113
-1074
-1053
-1026
-979
-921
-876
-842
-818
-822
-876
-959
-1012
-1015
-1003
-1022
-1076
-1124
-1147
-1159
-1182
-1228
-1283
-1333
-1357
-1344
-1308
-1305
-1360
-1431
-1424
-1303
-1144
-1052
-1040
-1016
-907
-750
-649
-658
-743
-836
-909
-972
-1006
-967
-851
-720
-656
-670
-678
-606
-480
-396
-427
-542
-655
-708
-711
-695
-675
-656
-659
-710
-805
-927
-1043
-1143
-1236
-1316
-1379
-1429
-1481
-1561
-1704
-1907
-2128
-2326
-2516
-2741
-2970
-3058
-2884
-2506
-2158
-2012
-1985
-1841
-1498
-1152
-1045
-1166
-1257
-1108
-799
-581
-565
-614
-522
-275
-67
-79
-282
-476
-503
-387
-287
-312
-422
-497
-456
-327
-212
-202
-303
-428
-472
-376
-210
-96
-115
-216
-282
-257
-201
-214
-318
-430
-464
-410
-327
-270
-254
-251
-217
-127
-8
72
50
-56
-133
-87
40
90
-29
-217
-284
-170
-21
-11
-135
-231
-192
-87
-66
-151
-240
-251
-217
-210
-209
-155
-54
6
-27
-98
-126
-134
-198
-326
-448
-501
-518
-544
-567
-529
-440
-402
-477
-590
-604
-504
-428
-494
-650
-733
-655
-498
-413
-445
-516
-528
-480
-422
-394
-382
-358
-327
-296
-247
-153
-44
23
35
48
123
229
269
200
113
126
240
343
335
252
197
224
289
335
339
308
253
206
197
226
256
245
216
221
273
314
289
219
164
140
101
8
-109
-179
-187
-169
-156
-131
-72
7
61
56
5
-35
-33
2
17
-26
-106
-142
-89
19
100
98
28
-55
-116
-150
-163
-158
-153
-163
-175
-148
-70
24
91
111
115
131
140
125
97
102
156
208
190
101
35
68
174
236
191
118
147
304
463
497
435
408
500
644
711
663
589
585
644
703
721
708
684
649
599
551
526
495
414
288
180
151
177
163
46
-118
-225
-251
-291
-441
-654
-772
-702
-534
-419
-375
-266
-10
275
386
292
213
370
715
990
1031
961
1039
1348
1707
1893
1883
1829
1831
1823
1702
1514
1412
1481
1614
1646
1561
1505
1609
1827
1989
1987
1872
1770
1747
1787
1870
1978
2071
2076
1976
1859
1840
1929
2016
2000
1916
1900
2009
2144
2169
2072
1975
1978
2040
2032
1900
1731
1649
1692
1774
1804
1778
1768
1830
1950
2064
2118
2113
2089
2073
2051
1992
1895
1834
1877
1996
2067
1984
1794
1664
1709
1849
1894
1763
1604
1624
1842
2060
2093
1987
1941
2050
2176
2119
1887
1708
1749
1907
1944
1789
1640
1704
1930
2086
2026
1855
1765
1793
1816
1751
1654
1627
1661
1665
1612
1570
1604
1686
1753
1807
1901
2041
2144
2137
2052
1987
1977
1959
1873
1753
1681
1681
1699
1693
1696
1737
1778
1744
1629
1517
1469
1453
1378
1222
1075
1027
1062
1073
994
858
747
703
695
677
629
568
524
502
466
371
203
9
-135
-205
-255
-356
-509
-622
-616
-507
-367
-263
-229
-274
-368
-420
-352
-206
-170
-359
-632
-680
-372
57
235
46
-249
-322
-121
126
210
144
86
142
295
476
627
707
704
639
559
476
364
225
108
64
79
89
71
77
159
285
366
357
288
232
233
295
388
476
528
554
580
616
631
583
488
394
300
137
-155
-517
-801
-919
-945
-1006
-1102
-1096
-903
-608
-377
-249
-115
102
329
471
578
807
1204
1623
1899
2051
2244
2558
2875
3022
2965
2819
2695
2606
2525
2452
2415
2420
2431
2418
2393
2382
2400
2440
2458
2398
2227
1986
1777
1679
1664
1630
1512
1350
1231
1212
1271
1340
1377
1373
1345
1311
1284
1259
1219
1149
1052
955
885
837
795
756
745
780
828
829
759
658
588
573
569
527
439
321
192
78
18
37
106
151
122
55
14
13
-13
-115
-265
-387
-446
-477
-522
-575
-584
-529
-451
-418
-458
-533
-579
-569
-538
-552
-624
-692
-689
-619
-562
-561
-578
-548
-483
-467
-548
-660
-694
-622
-523
-483
-512
-558
-579
-576
-558
-522
-475
-444
-443
-446
-415
-349
-289
-266
-274
-292
-317
-363
-415
-433
-386
-309
-282
-343
-441
-483
-419
-290
-190
-200
-312
-440
-476
-365
-170
-41
-92
-282
-432
-397
-214
-67
-103
-287
-465
-545
-567
-621
-737
-879
-1010
-1116
-1185
-1191
-1134
-1064
-1041
-1080
-1146
-1208
-1259
-1297
-1308
-1307
-1335
-1425
-1546
-1640
-1680
-1706
-1766
-1849
-1903
-1888
-1811
-1708
-1600
-1496
-1407
-1335
-1277
-1242
-1261
-1349
-1473
-1560
-1563
-1515
-1482
-1480
-1461
-1372
-1237
-1140
-1139
-1210
-1279
-1302
-1301
-1321
-1368
-1404
-1380
-1287
-1172
-1105
-1126
-1224
-1359
-1487
-1589
-1687
-1830
-2058
-2357
-2647
-2844
-2932
-2989
-3107
-3295
-3466
-3513
-3409
-3231
-3080
-2982
-2890
-2772
-2643
-2543
-2464
-2346
-2154
-1958
-1867
-1924
-2058
-2162
-2192
-2185
-2188
-2200
-2193
-2143
-2036
-1863
-1633
-1397
-1237
-1202
-1264
-1353
-1442
-1554
-1710
-1872
-1980
-2008
-1993
-1978
-1958
-1905
-1826
-1773
-1802
-1912
-2040
-2113
-2125
-2128
-2163
-2217
-2245
-2232
-2218
-2250
-2311
-2333
-2273
-2164
-2082
-2084
-2155
-2238
-2279
-2269
-2243
-2241
-2274
-2311
-2317
-2297
-2292
-2323
-2361
-2356
-2298
-2234
-2209
-2209
-2188
-2138
-2100
-2118
-2180
-2237
-2273
-2311
-2375
-2440
-2451
-2394
-2318
-2280
-2287
-2294
-2263
-2210
-2185
-2213
-2261
-2272
-2233
-2175
-2135
-2104
-2046
-1968
-1922
-1942
-1989
-1977
-1880
-1778
-1768
-1849
-1902
-1828
-1657
-1522
-1516
-1597
-1646
-1607
-1539
-1523
-1562
-1587
-1527
-1400
-1288
-1248
-1249
-1213
-1117
-1024
-1016
-1109
-1224
-1274
-1238
-1168
-1116
-1089
-1055
-1003
-936
-852
-752
-663
-642
-721
-854
-959
-994
-986
-983
-995
-994
-961
-908
-841
-748
-639
-560
-568
-650
-726
-746
-752
-824
-955
-1052
-1052
-1003
-1007
-1074
-1111
-1046
-934
-891
-937
-974
-909
-774
-695
-736
-830
-859
-795
-722
-729
-798
-809
-678
-461
-306
-282
-289
-174
65
240
176
-66
-226
-150
36
82
-86
-292
-323
-176
-12
63
94
156
219
198
85
-18
-42
-44
-113
-242
-333
-326
-262
-235
-273
-328
-356
-385
-480
-671
-928
-1192
-1426
-1606
-1735
-1831
-1909
-1947
-1880
-1673
-1396
-1189
-1128
-1167
-1200
-1190
-1176
-1161
-1057
-781
-388
-39
175
329
544
808
974
926
699
433
247
166
160
175
172
150
155
233
347
398
323
178
66
24
20
48
147
327
507
592
589
587
635
696
713
689
665
652
638
628
641
656
629
558
518
584
726
851
918
970
1044
1109
1108
1062
1047
1111
1224
1324
1389
1442
1489
1521
1539
1575
1633
1666
1623
1500
1352
1252
1236
1276
1312
1291
1233
1218
1314
1483
1604
1584
1456
1345
1331
1377
1369
1252
1072
936
913
995
1102
1152
1118
1060
1067
1166
1285
1317
1233
1107
1042
1074
1154
1213
1220
1188
1148
1111
1083
1058
1041
1037
1036
1013
967
923
929
1010
1118
1167
1120
1039
1012
1059
1107
1074
984
935
954
942
790
551
412
472
610
613
420
206
171
294
366
234
-27
-233
-301
-330
-446
-646
-809
-845
-794
-790
-882
-994
-1011
-933
-878
-945
-1102
-1199
-1153
-1049
-1024
-1114
-1213
-1218
-1163
-1175
-1305
-1465
-1521
-1442
-1308
-1211
-1178
-1184
-1190
-1178
-1148
-1118
-1115
-1153
-1193
-1186
-1123
-1057
-1038
-1058
-1052
-992
-913
-872
-878
-889
-883
-862
-853
-859
-870
-886
-913
-951
-981
-1004
-1036
-1071
-1066
-996
-910
-891
-936
-951
-856
-731
-734
-906
-1103
-1154
-1059
-986
-1046
-1197
-1335
-1437
-1558
-1716
-1853
-1941
-2014
-2079
-2055
-1869
-1574
-1332
-1212
-1123
-957
-767
-693
-761
-808
-675
-401
-173
-103
-110
-19
220
495
630
564
373
191
90
60
51
44
46
42
-3
-84
-134
-89
6
28
-89
-262
-324
-213
-50
17
-55
-176
-249
-275
-318
-394
-449
-450
-430
-445
-495
-530
-538
-556
-603
-624
-551
-418
-348
-393
-469
-450
-312
-193
-237
-437
-651
-737
-669
-542
-485
-554
-663
-681
-542
-324
-201
-257
-415
-524
-519
-460
-455
-537
-662
-762
-789
-742
-653
-594
-630
-722
-772
-738
-683
-695
-762
-768
-652
-527
-526
-619
-627
-452
-220
-161
-330
-527
-516
-294
-78
-53
-179
-275
-220
-67
35
14
-87
-158
-145
-74
4
67
131
206
273
314
348
404
469
485
436
406
471
591
652
609
551
601
753
874
878
822
813
876
933
919
851
776
726
685
635
586
558
560
581
595
591
590
625
687
721
664
549
469
485
554
593
566
513
474
448
435
456
512
529
428
235
90
100
218
291
231
101
32
85
208
322
392
425
436
446
489
580
697
786
802
763
719
714
739
745
713
665
628
607
583
557
567
629
694
668
545
438
482
664
807
759
568
452
551
742
770
524
162
-62
-57
43
45
-108
-320
-485
-589
-689
-832
-1009
-1189
-1345
-1444
-1447
-1326
-1112
-871
-658
-484
-340
-240
-190
-141
-19
185
378
454
423
421
561
788
916
833
595
368
256
244
244
210
177
198
288
414
529
615
673
706
712
686
654
655
695
729
709
635
564
541
553
551
515
491
534
639
739
773
745
708
698
706
706
699
694
686
647
593
587
663
776
838
821
789
820
909
972
949
870
804
794
820
840
817
743
650
597
625
706
756
719
639
619
707
831
880
830
761
760
823
860
806
704
677
781
931
978
869
731
743
929
1118
1120
941
768
752
858
932
915
881
909
962
945
874
875
1014
1186
1240
1174
1153
1291
1507
1638
1643
1644
1727
1806
1750
1575
1451
1487
1598
1614
1490
1353
1328
1400
1458
1434
1360
1298
1258
1212
1167
1166
1228
1306
1323
1249
1143
1096
1130
1161
1081
877
661
565
611
691
694
620
575
627
718
723
597
424
322
306
276
146
-43
-151
-98
43
125
85
-3
-29
10
18
-90
-288
-474
-580
-627
-680
-767
-834
-807
-670
-487
-356
-317
-314
-266
-160
-67
-60
-125
-181
-179
-135
-87
-48
-5
41
73
100
146
211
244
203
126
106
185
285
294
203
109
85
96
48
-80
-200
-223
-150
-77
-91
-190
-305
-384
-433
-503
-630
-800
-943
-979
-876
-682
-474
-304
-173
-69
19
112
272
553
937
1307
1547
1665
1787
2015
2290
2436
2327
2023
1720
1576
1596
1664
1686
1666
1684
1787
1934
2038
2051
2001
1948
1918
1881
1799
1685
1601
1595
1645
1677
1643
1571
1525
1532
1565
1586
1591
1596
1595
1546
1428
1282
1182
1156
1161
1134
1049
942
861
813
762
680
563
433
316
227
166
131
113
100
84
64
51
54
65
63
25
-53
-155
-264
-379
-503
-633
-755
-856
-939
-1008
-1053
-1056
-1019
-972
-952
-965
-977
-969
-961
-976
-1009
-1025
-1022
-1035
-1087
-1150
-1166
-1123
-1074
-1066
-1075
-1039
-930
-787
-667
-584
-520
-443
-348
-242
-139
-70
-53
-68
-70
-41
-22
-64
-156
-216
-186
-94
-25
-11
3
93
244
364
384
334
303
338
395
409
364
314
312
361
429
479
495
476
424
366
330
323
324
293
222
129
48
11
19
53
80
73
30
-23
-55
-41
4
30
-31
-197
-388
-466
-375
-221
-172
-270
-376
-327
-132
21
-24
-207
-329
-286
-175
-149
-222
-258
-144
55
179
154
70
59
131
202
193
123
61
50
80
136
216
297
329
292
217
162
130
80
-15
-121
-175
-161
-136
-145
-172
-175
-142
-102
-98
-149
-244
-360
-478
-586
-694
-830
-1001
-1179
-1329
-1443
-1554
-1688
-1854
-2025
-2155
-2176
-2049
-1810
-1550
-1328
-1105
-806
-448
-167
-68
-86
-57
90
254
302
225
132
108
122
99
43
-5
-39
-97
-180
-237
-234
-208
-246
-375
-537
-674
-785
-905
-1033
-1127
-1140
-1071
-951
-802
-639
-481
-370
-342
-401
-511
-615
-676
-700
-721
-753
-763
-714
-629
-585
-633
-726
-780
-766
-752
-801
-884
-922
-884
-835
-842
-884
-899
-864
-830
-845
-899
-953
-988
-1006
-990
-938
-894
-904
-960
-995
-962
-904
-901
-961
-1017
-1014
-983
-990
-1033
-1050
-1020
-1005
-1079
-1216
-1309
-1298
-1248
-1277
-1407
-1532
-1533
-1400
-1242
-1161
-1152
-1134
-1048
-917
-808
-762
-775
-814
-852
-869
-853
-811
-761
-726
-704
-661
-575
-464
-381
-354
-354
-330
-273
-238
-279
-367
-409
-352
-251
-216
-281
-359
-344
-232
-120
-85
-108
-133
-150
-182
-223
-224
-175
-151
-218
-336
-372
-274
-144
-130
-241
-332
-281
-139
-61
-119
-229
-267
-217
-167
-192
-270
-334
-349
-338
-339
-361
-385
-392
-384
-377
-384
-409
-436
-454
-462
-470
-482
-490
-482
-455
-420
-395
-401
-444
-498
-510
-449
-341
-249
-206
-175
-105
3
90
108
66
8
-41
-76
-95
-86
-57
-39
-56
-92
-105
-75
-29
-12
-45
-102
-140
-134
-90
-38
-15
-33
-65
-77
-68
-66
-84
-115
-143
-182
-260
-366
-472
-575
-725
-961
-1242
-1468
-1564
-1538
-1448
-1314
-1123
-869
-572
-275
-28
110
108
13
-50
12
162
281
317
357
520
804
1066
1179
1149
1062
955
789
560
358
293
363
448
437
355
328
444
658
832
857
752
638
614
684
779
830
815
762
698
646
617
610
623
652
691
717
691
590
456
375
377
378
278
90
-40
14
194
319
296
223
267
463
673
739
644
514
477
551
631
608
445
208
16
-41
-3
9
-102
-305
-473
-513
-465
-464
-589
-781
-921
-948
-911
-894
-927
-973
-1000
-1008
-996
-946
-854
-775
-774
-844
-886
-806
-636
-495
-470
-523
-553
-500
-399
-315
-280
-288
-296
-243
-106
68
180
182
145
205
409
642
746
699
628
669
821
967
1007
957
911
925
981
1025
1033
1031
1072
1155
1221
1209
1137
1093
1146
1269
1360
1356
1292
1230
1193
1168
1152
1159
1170
1145
1073
1017
1042
1127
1187
1164
1089
1027
998
980
946
904
882
902
965
1040
1067
1006
906
851
868
879
802
663
581
613
697
740
735
734
754
749
692
637
655
721
741
676
591
567
606
617
533
383
249
181
148
98
16
-39
1
127
235
222
94
-48
-107
-114
-197
-424
-698
-865
-865
-792
-766
-815
-878
-919
-979
-1112
-1283
-1399
-1434
-1477
-1654
-1962
-2256
-2399
-2415
-2461
-2641
-2865
-2934
-2762
-2467
-2238
-2132
-2020
-1779
-1461
-1246
-1230
-1318
-1333
-1210
-1029
-904
-856
-814
-709
-548
-392
-302
-313
-410
-547
-663
-727
-755
-765
-766
-750
-725
-728
-769
-808
-803
-776
-786
-850
-903
-871
-773
-716
-769
-875
-908
-832
-736
-722
-781
-803
-711
-549
-419
-393
-451
-524
-563
-557
-536
-535
-571
-623
-639
-592
-513
-454
-448
-483
-508
-509
-504
-515
-534
-544
-529
-498
-468
-447
-440
-451
-477
-503
-503
-482
-496
-590
-739
-850
-838
-739
-663
-685
-777
-837
-819
-749
-686
-659
-653
-659
-679
-703
-712
-676
-600
-533
-529
-589
-656
-676
-643
-598
-553
-497
-419
-362
-369
-406
-372
-214
-20
64
-7
-132
-166
-73
73
197
278
334
367
384
423
520
655
744
730
648
587
609
675
708
672
605
569
600
670
730
773
794
815
844
878
899
878
811
742
737
808
863
807
660
564
631
796
888
818
690
665
772
891
901
809
729
736
802
858
868
831
770
718
725
811
936
1027
1037
1006
1000
1043
1114
1157
1131
1019
870
793
853
1006
1119
1106
1026
1013
1115
1240
1266
1175
1058
997
977
932
857
798
796
850
911
926
875
782
710
714
778
803
721
573
464
452
470
402
243
80
-5
-31
-76
-158
-236
-287
-350
-472
-630
-752
-809
-851
-920
-975
-923
-725
-417
-79
233
487
652
719
733
767
839
891
876
799
724
702
738
810
876
887
823
698
578
516
492
448
364
296
301
357
397
394
388
427
481
472
381
263
201
205
214
185
130
88
86
126
182
220
224
201
203
264
336
322
192
42
4
92
191
188
98
15
3
38
65
77
93
112
119
115
103
83
33
-55
-141
-196
-225
-259
-313
-353
-335
-259
-183
-167
-230
-323
-374
-350
-302
-321
-448
-620
-730
-730
-675
-654
-697
-768
-808
-790
-718
-601
-472
-375
-329
-297
-225
-109
-17
-6
-47
-61
-9
57
69
37
37
120
241
314
297
232
186
203
277
364
411
394
354
366
476
624
692
633
532
510
588
667
657
579
550
634
772
852
839
798
816
891
947
931
869
833
852
898
922
902
863
838
838
864
896
906
888
856
825
792
744
678
635
649
703
746
750
753
810
909
976
947
837
719
659
669
714
760
791
813
829
840
848
866
904
949
971
941
880
871
974
1155
1311
1358
1311
1255
1223
1166
1034
870
789
848
965
1017
972
926
994
1190
1405
1510
1454
1297
1147
1095
1149
1230
1235
1123
943
787
706
687
681
663
617
536
413
260
115
-14
-159
-358
-590
-790
-911
-960
-956
-860
-601
-181
252
510
533
444
418
516
655
703
618
464
348
337
438
577
638
546
322
73
-103
-188
-222
-243
-261
-284
-320
-358
-359
-324
-308
-366
-485
-587
-616
-590
-560
-547
-541
-534
-539
-565
-608
-654
-700
-726
-692
-594
-482
-424
-421
-414
-359
-286
-264
-302
-341
-330
-283
-245
-214
-133
23
190
278
262
223
253
342
390
318
156
6
-72
-115
-195
-338
-504
-631
-692
-683
-614
-516
-435
-403
-392
-343
-247
-160
-145
-194
-234
-211
-142
-79
-51
-40
-18
43
156
306
428
440
336
224
226
345
450
415
262
131
124
205
258
221
128
64
73
134
199
240
268
303
345
359
311
212
124
93
89
35
-94
-228
-274
-213
-127
-93
-105
-108
-90
-99
-177
-296
-384
-419
-444
-499
-565
-590
-562
-528
-524
-525
-486
-419
-388
-426
-489
-506
-472
-455
-504
-580
-613
-587
-555
-568
-607
-611
-552
-471
-437
-476
-554
-622
-664
-701
-754
-817
-868
-892
-901
-923
-956
-968
-923
-830
-744
-716
-730
-714
-605
-425
-270
-221
-261
-299
-263
-172
-111
-124
-182
-217
-201
-169
-169
-210
-254
-258
-216
-173
-193
-298
-431
-491
-434
-329
-294
-370
-474
-502
-442
-376
-387
-471
-564
-617
-643
-699
-827
-1028
-1254
-1440
-1565
-1665
-1806
-1976
-2063
-1947
-1638
-1298
-1082
-996
-903
-703
-444
-250
-166
-111
14
209
393
513
590
677
769
808
753
625
491
393
333
304
304
329
358
368
378
409
439
420
330
223
170
178
190
170
163
235
373
481
486
429
408
467
542
542
452
352
325
383
463
497
482
467
498
558
593
566
497
439
419
421
416
395
376
362
334
272
185
97
18
-62
-150
-231
-280
-284
-262
-246
-260
-309
-374
-428
-456
-460
-461
-487
-547
-614
-651
-641
-608
-601
-650
-739
-815
-831
-785
-719
-688
-701
-712
-669
-578
-504
-498
-541
-561
-522
-467
-465
-528
-595
-607
-569
-522
-487
-442
-375
-302
-244
-193
-120
-30
27
7
-60
-90
-37
50
85
38
-26
-24
54
134
147
96
46
59
138
223
249
207
145
123
159
203
189
113
38
28
75
113
104
80
90
136
171
160
115
74
51
34
19
26
69
129
170
186
207
259
325
356
325
265
234
240
235
177
91
57
125
247
334
346
335
373
471
574
630
633
617
616
648
712
785
826
807
755
724
743
773
771
736
707
702
694
659
616
608
641
666
652
617
601
606
603
577
534
488
436
364
271
172
85
17
-51
-158
-330
-549
-742
-852
-911
-1010
-1180
-1317
-1283
-1061
-777
-552
-364
-116
187
409
449
378
369
492
642
675
585
497
519
632
735
756
688
559
413
296
250
264
288
270
212
162
170
232
305
340
321
268
215
196
220
277
339
369
343
272
198
164
165
158
109
40
9
46
113
136
88
11
-24
-3
40
74
107
159
218
237
202
150
122
102
44
-64
-167
-203
-175
-137
-131
-165
-236
-337
-449
-531
-558
-551
-535
-502
-415
-274
-125
2
117
216
225
70
-187
-378
-393
-311
-293
-378
-440
-360
-169
2
87
103
76
-5
-112
-138
-1
229
371
348
273
324
513
677
665
499
327
252
268
326
417
542
648
672
627
596
627
656
595
449
337
360
499
637
680
657
664
743
839
855
754
600
504
541
691
867
972
976
944
982
1126
1284
1309
1145
889
700
659
713
755
735
668
593
549
573
665
770
797
726
647
656
742
801
762
675
641
679
736
786
852
929
956
892
800
784
854
925
929
907
947
1047
1124
1128
1110
1140
1222
1290
1297
1277
1286
1333
1383
1419
1463
1529
1593
1623
1632
1663
1733
1809
1843
1817
1768
1723
1667
1591
1520
1482
1472
1436
1330
1199
1129
1148
1174
1097
908
703
584
539
475
325
125
-32
-96
-101
-115
-150
-153
-72
93
301
505
684
821
897
919
943
1036
1193
1328
1366
1315
1262
1271
1319
1329
1262
1133
976
822
691
599
551
538
536
528
505
459
393
326
273
238
190
100
-12
-95
-102
-53
-18
-52
-143
-229
-254
-234
-226
-250
-285
-300
-308
-329
-357
-371
-381
-435
-540
-634
-646
-586
-547
-593
-686
-729
-685
-617
-591
-604
-610
-589
-594
-658
-738
-774
-754
-727
-736
-779
-830
-879
-933
-965
-933
-856
-828
-915
-1076
-1171
-1136
-1060
-1079
-1221
-1372
-1420
-1374
-1325
-1323
-1337
-1333
-1321
-1331
-1360
-1377
-1377
-1374
-1362
-1326
-1265
-1207
-1167
-1119
-1047
-983
-966
-978
-967
-917
-875
-893
-950
-985
-961
-905
-844
-779
-719
-690
-701
-699
-612
-456
-339
-347
-456
-556
-583
-564
-562
-591
-641
-694
-731
-718
-638
-527
-470
-528
-647
-719
-699
-650
-660
-735
-808
-825
-805
-802
-829
-849
-835
-798
-763
-743
-731
-743
-788
-841
-851
-809
-764
-767
-806
-823
-788
-743
-746
-799
-838
-835
-844
-908
-973
-936
-783
-650
-673
-804
-852
-702
-480
-395
-481
-570
-509
-357
-283
-327
-351
-256
-125
-111
-222
-304
-259
-164
-137
-176
-189
-139
-94
-114
-165
-191
-202
-235
-284
-285
-235
-222
-309
-436
-493
-451
-396
-441
-597
-757
-805
-745
-692
-779
-1019
-1286
-1439
-1452
-1411
-1381
-1307
-1099
-764
-395
-56
255
540
735
777
722
706
792
907
958
957
986
1066
1135
1150
1142
1116
1002
752
448
275
306
421
450
365
295
346
473
540
484
370
291
259
216
133
69
90
184
260
254
193
164
203
256
257
223
211
218
187
73
-72
-155
-151
-122
-146
-236
-335
-386
-368
-299
-224
-189
-219
-282
-317
-294
-253
-251
-277
-270
-215
-170
-182
-217
-196
-114
-67
-140
-290
-398
-402
-364
-393
-502
-599
-626
-606
-603
-629
-629
-579
-525
-537
-617
-689
-688
-632
-590
-597
-633
-653
-633
-565
-453
-331
-260
-286
-367
-416
-388
-335
-350
-440
-513
-488
-382
-276
-210
-164
-96
-14
40
50
32
6
-11
-10
13
51
76
73
58
57
92
160
237
299
320
293
242
218
245
288
299
254
194
178
218
268
284
258
223
201
172
113
35
-25
-35
-5
25
23
1
-8
17
67
110
116
79
6
-72
-126
-154
-172
-194
-208
-181
-94
24
124
205
303
448
600
674
630
534
501
557
622
604
522
489
577
724
809
792
752
783
889
998
1035
998
928
867
828
791
725
625
526
484
520
588
616
592
558
557
562
518
418
291
164
46
-47
-88
-100
-189
-425
-729
-922
-947
-955
-1121
-1381
-1476
-1264
-903
-654
-567
-464
-241
-40
-47
-184
-175
97
432
578
546
589
824
1080
1135
997
859
832
824
728
582
512
559
644
701
728
730
677
577
523
609
792
913
882
781
766
887
1049
1120
1068
955
851
785
750
746
776
813
815
754
668
631
687
783
818
767
712
731
773
705
478
216
84
116
186
174
89
42
86
174
232
233
190
90
-83
-281
-378
-291
-84
71
57
-66
-142
-104
-32
-46
-159
-295
-397
-487
-578
-596
-483
-314
-256
-379
-562
-632
-582
-587
-791
-1137
-1428
-1548
-1556
-1568
-1615
-1639
-1596
-1497
-1373
-1235
-1086
-950
-857
-801
-739
-660
-601
-603
-647
-660
-603
-523
-491
-519
-535
-477
-364
-277
-275
-327
-349
-289
-167
-55
-3
-9
-26
-12
41
100
122
93
40
16
49
132
232
311
363
399
426
444
456
479
512
531
500
417
340
349
472
649
775
795
747
723
761
813
803
714
611
569
596
638
653
662
709
794
878
931
960
1005
1086
1192
1290
1344
1346
1350
1433
1624
1834
1913
1799
1607
1515
1564
1605
1479
1215
1000
976
1087
1175
1153
1064
987
939
893
846
821
803
746
638
550
562
655
708
644
493
348
248
158
40
-90
-211
-353
-555
-787
-946
-985
-982
-1054
-1202
-1312
-1281
-1135
-975
-850
-730
-599
-504
-484
-474
-343
-51
275
464
484
480
608
857
1057
1053
874
673
577
567
532
425
313
279
324
372
365
328
328
389
470
520
524
500
472
450
441
441
437
415
386
375
385
397
397
392
390
381
336
252
181
182
252
312
296
222
182
237
334
368
305
221
216
301
383
373
296
255
295
347
311
175
36
-14
18
41
1
-63
-80
-36
14
24
2
-11
-1
2
-33
-92
-138
-148
-127
-108
-115
-148
-184
-187
-142
-63
-1
9
-21
-33
18
122
229
296
308
279
235
210
226
263
271
216
128
92
164
313
440
492
503
541
624
707
747
751
764
794
806
777
730
705
705
696
651
596
572
588
608
601
582
589
631
666
645
576
513
485
459
386
270
185
195
271
308
232
85
-7
34
149
197
100
-54
-110
-9
148
223
201
205
318
470
528
473
428
488
571
526
324
129
101
205
253
132
-71
-193
-194
-183
-253
-381
-497
-593
-729
-915
-1060
-1072
-986
-935
-984
-1044
-970
-723
-417
-187
-68
2
96
233
393
544
639
637
535
395
295
270
276
241
132
-25
-174
-281
-339
-373
-421
-518
-672
-854
-1017
-1132
-1216
-1315
-1451
-1580
-1609
-1488
-1256
-1009
-815
-656
-496
-343
-246
-220
-205
-130
-6
93
110
82
99
209
368
484
490
384
229
117
102
158
202
181
128
125
200
299
349
335
299
263
219
166
144
185
259
304
305
321
395
476
469
352
214
161
184
178
64
-114
-238
-228
-108
33
116
126
105
115
193
303
359
305
178
91
115
198
239
192
123
121
186
233
188
79
-3
-14
5
-25
-124
-228
-268
-225
-155
-133
-181
-262
-313
-305
-274
-274
-321
-372
-377
-336
-286
-260
-239
-182
-82
11
36
-21
-107
-158
-146
-106
-105
-181
-303
-375
-330
-192
-61
-14
-37
-52
-12
66
133
165
164
138
100
81
116
196
261
259
205
173
209
278
315
294
245
216
231
278
308
281
209
154
185
289
362
316
181
83
104
189
222
166
88
50
44
35
33
90
210
330
395
418
445
479
481
435
367
303
229
126
14
-63
-106
-153
-217
-260
-254
-228
-229
-230
-163
-19
111
141
100
97
172
253
262
224
207
200
122
-29
-118
-10
244
437
437
345
363
544
726
743
619
529
572
662
640
465
244
91
15
-48
-137
-223
-272
-295
-328
-375
-393
-360
-325
-365
-504
-664
-745
-736
-745
-893
-1158
-1351
-1303
-1043
-786
-703
-737
-670
-396
-57
125
123
135
332
638
823
784
672
698
877
1011
943
741
609
638
718
695
562
444
427
467
469
415
373
388
425
418
356
283
243
237
244
247
221
152
61
13
63
178
255
223
98
-31
-81
-29
81
171
170
76
-20
-8
149
356
464
402
242
142
198
374
524
533
424
341
405
570
672
617
493
463
562
670
673
599
575
656
762
783
703
593
523
514
552
603
615
551
436
347
340
377
383
347
326
367
434
465
451
440
451
456
410
330
285
310
362
382
369
373
434
516
557
527
454
388
362
382
434
483
493
456
414
426
494
554
543
471
411
423
489
541
539
488
413
342
317
357
413
404
302
182
149
185
167
18
-167
-236
-168
-94
-126
-233
-297
-267
-212
-223
-306
-406
-486
-542
-571
-559
-522
-499
-500
-484
-410
-316
-290
-375
-513
-606
-616
-601
-632
-700
-727
-668
-565
-504
-525
-568
-528
-390
-244
-194
-242
-282
-213
-64
41
20
-88
-178
-182
-129
-92
-121
-204
-283
-303
-270
-225
-218
-247
-267
-254
-221
-212
-248
-300
-316
-297
-289
-329
-414
-520
-631
-750
-875
-964
-988
-995
-1087
-1317
-1608
-1810
-1874
-1929
-2123
-2434
-2664
-2621
-2332
-1988
-1733
-1548
-1349
-1123
-945
-865
-831
-758
-623
-479
-369
-272
-134
50
246
378
392
293
139
0
-103
-176
-232
-251
-170
-5
144
168
78
-7
17
88
46
-157
-388
-451
-292
-71
19
-40
-114
-78
33
87
9
-138
-223
-181
-62
10
-36
-169
-260
-213
-62
69
73
-31
-131
-140
-82
-67
-138
-228
-241
-184
-158
-231
-347
-380
-305
-249
-328
-506
-614
-550
-425
-397
-485
-551
-505
-414
-422
-550
-680
-702
-647
-643
-741
-877
-948
-931
-888
-859
-837
-803
-765
-740
-729
-720
-693
-649
-602
-578
-588
-612
-593
-515
-410
-358
-378
-388
-282
-53
141
149
16
-32
132
375
443
290
154
266
557
718
596
385
379
597
753
640
383
271
385
514
451
239
105
166
307
353
277
183
147
134
107
83
106
159
189
197
232
318
396
406
347
259
172
84
-21
-100
-96
-4
113
162
126
78
105
207
280
207
-30
-303
-434
-363
-178
-14
65
87
105
139
172
166
107
9
-66
-58
41
167
254
309
393
514
603
573
431
290
236
262
301
306
289
280
301
351
421
478
479
413
309
220
172
154
145
123
64
-54
-220
-373
-453
-472
-502
-588
-704
-803
-881
-969
-1064
-1133
-1170
-1220
-1297
-1328
-1221
-971
-676
-433
-265
-155
-102
-99
-74
55
266
426
441
388
436
650
898
1005
938
800
694
621
545
467
432
451
477
468
447
461
506
521
460
355
284
293
344
364
337
311
341
426
495
474
363
238
190
254
374
453
442
370
308
299
329
356
370
373
381
399
439
508
587
635
625
578
546
545
541
504
449
428
461
517
547
540
534
563
604
597
525
449
443
499
520
446
345
334
424
483
378
157
-7
-23
11
-59
-228
-343
-280
-95
41
41
-26
-45
13
91
119
82
18
-22
3
110
270
414
488
503
527
605
703
747
722
681
681
727
782
826
865
917
958
969
967
970
978
968
949
972
1073
1216
1313
1302
1221
1157
1165
1212
1202
1068
840
625
517
523
573
597
568
493
384
282
258
339
451
458
295
58
-74
-7
162
269
215
45
-116
-164
-88
21
45
-68
-249
-362
-333
-230
-188
-260
-367
-396
-325
-239
-215
-223
-181
-61
74
154
182
204
238
253
230
199
199
220
221
182
137
132
159
174
147
109
109
156
212
226
184
132
128
171
206
191
134
78
43
6
-53
-104
-109
-63
-14
3
4
4
-12
-83
-226
-407
-573
-698
-761
-723
-547
-261
41
265
400
511
645
780
850
826
760
732
771
851
946
1044
1141
1218
1243
1214
1153
1088
1028
963
890
830
810
841
923
1020
1080
1076
1028
992
1007
1060
1097
1087
1057
1057
1113
1196
1249
1232
1154
1065
1027
1067
1165
1268
1323
1304
1243
1198
1211
1267
1290
1214
1053
899
831
841
853
804
715
649
638
653
645
596
529
478
459
470
491
500
493
491
516
557
571
516
404
301
264
278
283
239
163
96
60
26
-31
-110
-191
-258
-316
-374
-418
-436
-428
-423
-446
-488
-511
-496
-467
-459
-475
-480
-445
-382
-338
-326
-311
-256
-173
-121
-140
-190
-195
-121
-9
65
81
82
128
221
324
387
395
363
315
284
293
327
345
312
253
236
294
371
376
292
198
185
250
290
223
96
28
78
180
208
115
-34
-137
-147
-102
-76
-113
-210
-316
-369
-345
-285
-249
-273
-329
-367
-375
-391
-436
-491
-519
-530
-567
-633
-667
-629
-557
-522
-528
-510
-417
-298
-244
-273
-307
-280
-209
-168
-188
-219
-205
-151
-102
-77
-52
-1
59
92
92
93
131
196
246
252
227
195
171
151
131
115
107
90
46
-27
-105
-143
-127
-92
-105
-193
-320
-425
-499
-606
-797
-1045
-1260
-1390
-1451
-1478
-1451
-1323
-1090
-814
-565
-359
-172
8
164
288
397
506
604
677
739
831
975
1132
1225
1202
1071
908
793
749
717
642
526
452
489
610
726
774
769
760
759
736
674
588
507
440
384
349
354
389
423
446
480
538
586
565
460
335
258
231
184
79
-18
-2
140
292
327
248
171
197
285
301
175
-24
-154
-148
-60
2
-3
-23
5
83
156
179
150
95
26
-59
-155
-253
-359
-482
-612
-702
-722
-706
-715
-764
-789
-734
-632
-577
-623
-717
-773
-771
-767
-803
-841
-822
-754
-709
-717
-729
-678
-578
-522
-567
-667
-721
-689
-614
-559
-526
-477
-392
-304
-249
-216
-180
-128
-84
-71
-81
-83
-62
-22
21
62
113
182
264
335
369
380
409
479
562
602
573
519
510
567
642
673
648
606
597
639
721
807
857
842
774
706
698
757
826
835
778
713
706
770
855
902
894
853
820
815
831
851
852
824
783
755
760
802
867
922
958
986
1020
1066
1106
1115
1096
1083
1103
1149
1185
1190
1180
1177
1182
1181
1182
1217
1279
1310
1250
1127
1051
1095
1196
1217
1099
945
904
1004
1123
1132
1024
902
839
813
755
643
522
427
333
185
-9
-183
-289
-350
-446
-613
-781
-843
-761
-595
-426
-268
-66
205
494
717
842
921
1017
1133
1226
1266
1269
1271
1306
1380
1467
1519
1481
1350
1191
1095
1083
1091
1057
974
899
870
881
907
945
1008
1083
1127
1109
1060
1032
1039
1042
991
888
777
692
629
574
538
554
613
665
676
677
724
823
915
940
912
901
936
959
920
856
862
986
1135
1169
1077
976
976
1049
1075
1000
894
832
796
713
600
569
690
862
895
735
550
534
693
844
841
735
675
714
770
772
767
833
924
909
758
607
603
733
837
814
731
702
748
784
751
697
715
828
979
1082
1089
1020
934
896
909
920
856
715
597
597
719
881
1000
1065
1109
1150
1189
1211
1205
1169
1105
1034
986
987
1017
1042
1055
1092
1188
1307
1354
1269
1116
1038
1122
1283
1349
1264
1139
1131
1255
1372
1359
1248
1175
1205
1286
1328
1310
1284
1291
1332
1386
1445
1501
1542
1562
1598
1669
1735
1719
1603
1466
1407
1440
1480
1453
1377
1330
1356
1446
1557
1655
1727
1754
1745
1735
1746
1771
1780
1767
1756
1774
1817
1867
1908
1932
1923
1876
1814
1783
1809
1861
1883
1848
1781
1740
1745
1769
1763
1706
1623
1564
1550
1553
1531
1471
1391
1307
1202
1055
900
801
765
702
514
219
-51
-195
-265
-380
-554
-659
-577
-356
-143
-1
149
363
554
585
479
426
554
752
804
663
515
564
795
1008
1045
924
773
686
670
691
699
653
547
439
404
450
504
485
403
345
351
367
325
220
123
106
158
190
130
-1
-115
-139
-77
1
31
23
11
2
-36
-109
-168
-157
-99
-62
-84
-119
-114
-88
-99
-147
-176
-156
-138
-189
-279
-334
-330
-324
-375
-458
-507
-511
-533
-602
-660
-635
-558
-541
-648
-821
-931
-907
-815
-767
-826
-955
-1052
-1067
-1011
-952
-948
-1001
-1072
-1112
-1094
-1030
-965
-948
-993
-1053
-1050
-969
-884
-889
-975
-1025
-954
-812
-734
-771
-827
-772
-602
-445
-418
-485
-502
-396
-242
-182
-267
-401
-439
-359
-259
-249
-331
-394
-357
-228
-102
-51
-63
-68
-30
16
8
-73
-159
-187
-160
-150
-205
-276
-285
-220
-166
-199
-292
-356
-347
-315
-328
-384
-429
-433
-426
-436
-445
-440
-442
-470
-512
-505
-457
-430
-478
-556
-567
-491
-415
-425
-510
-578
-560
-470
-369
-305
-288
-285
-236
-112
36
115
89
41
66
162
250
287
323
416
516
529
466
468
619
814
856
691
488
447
578
707
678
512
365
347
425
490
470
391
306
226
115
-44
-196
-282
-299
-325
-425
-585
-740
-828
-856
-892
-998
-1171
-1319
-1338
-1183
-917
-653
-426
-177
105
324
378
303
273
396
573
634
543
461
548
771
964
1005
907
768
651
582
563
575
554
468
370
384
546
714
713
539
385
411
549
597
471
309
307
477
624
597
431
287
257
288
287
253
244
302
395
474
523
544
531
488
434
402
383
345
277
225
230
271
285
260
248
287
338
325
236
150
140
188
200
143
72
55
78
74
13
-53
-66
-44
-48
-101
-149
-142
-97
-85
-130
-187
-201
-176
-160
-175
-179
-133
-61
-32
-67
-113
-115
-87
-86
-116
-119
-52
40
84
81
116
236
377
448
443
429
457
490
470
420
425
508
587
594
559
586
707
835
875
837
812
855
928
976
992
1021
1083
1146
1170
1154
1133
1133
1160
1193
1200
1168
1113
1086
1119
1190
1236
1211
1145
1097
1094
1114
1118
1094
1077
1111
1183
1236
1219
1143
1085
1108
1172
1171
1052
886
800
832
902
916
868
839
891
1017
1161
1272
1322
1314
1281
1271
1307
1376
1449
1525
1603
1651
1650
1633
1679
1779
1798
1601
1268
1062
1164
1444
1589
1450
1223
1220
1512
1832
1870
1591
1256
1124
1185
1242
1163
1018
961
1024
1078
1001
822
664
576
473
242
-115
-495
-779
-957
-1109
-1301
-1512
-1649
-1650
-1524
-1363
-1232
-1131
-1008
-839
-658
-499
-336
-104
228
598
898
1070
1147
1219
1338
1455
1480
1370
1193
1080
1091
1152
1159
1094
1040
1062
1118
1125
1044
935
844
748
618
491
458
529
617
633
585
558
592
651
671
649
616
594
593
634
727
830
853
756
622
568
617
664
619
519
477
506
510
436
364
421
586
692
597
357
175
180
310
396
334
190
115
224
468
677
700
564
443
478
628
725
674
555
498
523
529
445
337
310
382
453
442
373
342
401
513
611
657
667
682
743
856
975
1031
997
924
896
937
998
1018
1003
1007
1053
1103
1119
1116
1141
1204
1263
1289
1310
1363
1429
1448
1412
1386
1421
1466
1425
1292
1181
1187
1276
1316
1252
1170
1180
1281
1367
1366
1320
1306
1329
1331
1287
1250
1273
1326
1335
1279
1226
1240
1290
1294
1228
1164
1167
1200
1168
1051
943
935
1000
1017
930
812
770
812
851
818
731
650
585
502
384
268
203
192
184
134
54
10
61
192
309
313
209
94
58
91
91
-1
-136
-227
-245
-234
-238
-257
-270
-289
-339
-409
-450
-430
-377
-345
-359
-378
-368
-359
-419
-583
-807
-1004
-1125
-1200
-1291
-1425
-1568
-1692
-1814
-1952
-2089
-2206
-2334
-2515
-2712
-2774
-2586
-2239
-1964
-1879
-1856
-1688
-1365
-1106
-1073
-1156
-1107
-854
-569
-436
-419
-330
-108
97
118
-33
-199
-276
-297
-339
-415
-481
-519
-551
-582
-598
-610
-651
-733
-803
-807
-766
-760
-817
-865
-812
-689
-640
-756
-952
-1044
-945
-768
-690
-726
-731
-580
-322
-139
-142
-255
-325
-303
-287
-372
-528
-645
-653
-592
-550
-551
-553
-512
-450
-433
-488
-587
-685
-765
-832
-889
-929
-960
-1001
-1048
-1054
-991
-898
-865
-922
-982
-947
-824
-729
-752
-851
-914
-909
-908
-985
-1118
-1228
-1266
-1249
-1224
-1212
-1198
-1146
-1032
-872
-732
-695
-777
-894
-935
-890
-857
-931
-1086
-1201
-1191
-1078
-949
-842
-743
-627
-516
-448
-427
-435
-457
-500
-558
-599
-587
-526
-453
-398
-352
-295
-225
-156
-100
-55
-29
-30
-46
-44
-10
17
-17
-111
-201
-240
-275
-383
-552
-670
-660
-588
-591
-697
-791
-767
-683
-690
-838
-1015
-1081
-1024
-945
-906
-867
-774
-650
-565
-533
-501
-431
-351
-319
-339
-365
-373
-390
-426
-429
-352
-226
-144
-148
-166
-91
73
216
252
210
171
166
155
96
11
-55
-94
-123
-141
-131
-101
-90
-117
-148
-148
-145
-188
-262
-287
-216
-110
-73
-129
-192
-187
-152
-187
-327
-492
-585
-603
-629
-745
-940
-1130
-1251
-1320
-1402
-1548
-1722
-1821
-1761
-1558
-1297
-1045
-795
-508
-209
11
102
132
214
357
444
392
287
299
485
707
789
716
617
607
655
658
572
455
376
340
313
285
289
341
404
423
388
345
345
382
402
359
275
206
172
157
140
127
131
141
136
137
191
306
416
435
362
281
263
287
280
224
172
180
222
238
213
196
231
296
326
290
217
153
121
114
121
138
139
96
17
-31
5
93
121
14
-180
-331
-354
-291
-236
-237
-271
-300
-319
-332
-324
-282
-236
-235
-294
-366
-385
-329
-249
-221
-272
-350
-370
-288
-149
-54
-60
-115
-113
-3
142
206
151
50
14
86
220
330
378
382
390
420
445
425
364
318
326
352
330
276
309
503
773
928
875
724
645
674
686
575
390
271
278
336
349
319
330
436
565
592
466
274
165
212
344
417
347
176
13
-55
-2
141
300
413
461
490
561
667
733
702
606
511
395
185
-110
-313
-242
54
302
302
174
230
600
1056
1248
1105
880
839
961
1023
908
746
708
793
850
800
728
743
821
839
745
633
615
681
720
647
486
346
343
511
753
880
746
379
8
-124
37
311
446
326
30
-257
-377
-301
-162
-161
-388
-697
-795
-522
-86
596
659
789
1015
1217
1350
1510
1771
2023
2085
1962
1872
1986
2206
2312
2226
2083
2025
2028
2013
2000
2085
2255
2330
2170
1871
1678
1687
1737
1640
1433
1346
1519
1833
2056
2088
2026
1999
2008
1948
1768
1565
1481
1566
1723
1794
1696
1492
1325
1285
1329
1325
1212
1078
1046
1128
1189
1123
1002
976
1073
1149
1055
846
721
807
1014
1144
1108
996
922
903
863
725
503
276
135
117
188
278
325
321
304
317
347
329
209
-11
-248
-398
-416
-364
-347
-401
-445
-387
-249
-160
-202
-306
-327
-233
-150
-189
-290
-298
-169
-15
12
-108
-238
-266
-209
-168
-211
-297
-313
-193
13
167
190
170
271
529
772
796
593
352
272
343
402
357
265
233
275
328
369
433
524
591
577
506
454
471
517
531
499
438
372
338
374
466
539
512
390
298
337
461
529
485
404
376
387
350
255
180
171
184
130
39
21
126
267
331
310
303
365
447
514
581
680
778
817
794
782
841
945
1017
1024
978
894
812
783
838
942
988
905
759
688
740
823
824
756
730
802
911
955
903
824
781
766
728
626
467
319
245
244
208
19
-318
-656
-874
-1001
-1171
-1410
-1577
-1537
-1323
-1089
-908
-697
-408
-142
-31
-52
-14
212
526
729
770
806
1002
1317
1547
1543
1327
1064
910
876
859
764
610
521
596
781
895
808
608
493
538
617
549
337
158
153
268
322
234
118
127
249
333
263
99
16
97
235
262
121
-74
-155
-91
11
22
-82
-196
-243
-232
-209
-183
-136
-86
-99
-200
-319
-356
-278
-170
-143
-220
-325
-379
-371
-339
-322
-320
-319
-324
-363
-445
-511
-496
-410
-342
-383
-508
-596
-572
-478
-415
-432
-501
-603
-735
-868
-917
-844
-736
-734
-852
-948
-900
-729
-589
-587
-669
-721
-710
-698
-748
-824
-820
-688
-500
-384
-383
-398
-310
-121
26
-1
-143
-230
-158
-4
77
40
-9
41
177
279
277
207
174
215
273
274
216
158
150
192
237
255
251
244
242
261
323
415
480
450
332
226
206
241
230
134
37
19
82
152
178
183
204
225
203
122
18
-69
-127
-166
-192
-205
-206
-193
-143
-45
68
135
127
70
42
91
174
195
111
-12
-53
40
185
246
167
38
-10
56
144
136
8
-149
-223
-186
-96
-35
-23
-21
22
114
193
196
112
-3
-92
-155
-225
-319
-416
-505
-604
-737
-894
-1031
-1131
-1227
-1356
-1474
-1485
-1347
-1125
-911
-738
-557
-345
-167
-97
-84
18
271
557
697
662
621
741
995
1183
1166
1003
855
804
810
802
777
778
815
855
873
881
898
931
980
1046
1099
1090
1020
971
1028
1146
1183
1039
800
662
692
771
761
697
739
943
1156
1198
1080
980
1020
1110
1085
919
754
720
804
895
925
929
981
1092
1208
1266
1250
1187
1116
1059
1017
987
984
1030
1116
1191
1235
1270
1338
1435
1501
1473
1365
1241
1131
1015
869
719
606
512
395
280
269
417
626
694
542
316
239
380
569
588
390
124
-9
74
297
503
560
457
315
301
470
660
641
351
-24
-224
-181
-67
-86
-246
-393
-393
-283
-185
-156
-136
-59
48
92
34
-51
-56
28
95
57
-41
-82
-18
79
102
51
19
63
158
230
249
233
196
151
120
115
105
38
-75
-145
-96
9
40
-56
-187
-225
-153
-81
-102
-199
-275
-269
-206
-159
-161
-184
-185
-153
-113
-97
-113
-139
-148
-129
-82
-26
23
50
47
28
14
7
-18
-71
-122
-128
-75
0
50
64
68
96
161
240
293
289
241
211
249
330
379
353
286
240
219
175
78
-37
-113
-144
-170
-235
-340
-465
-585
-686
-781
-903
-1070
-1231
-1282
-1167
-955
-778
-688
-609
-458
-286
-205
-225
-213
-54
197
386
463
534
715
963
1110
1065
902
755
673
595
470
327
235
229
278
323
335
318
283
226
153
82
39
24
11
-29
-88
-122
-108
-83
-126
-271
-464
-611
-668
-669
-683
-741
-826
-909
-970
-998
-986
-959
-964
-1032
-1135
-1207
-1212
-1172
-1155
-1202
-1290
-1362
-1400
-1419
-1443
-1478
-1509
-1535
-1570
-1625
-1682
-1707
-1686
-1643
-1620
-1637
-1683
-1724
-1729
-1694
-1661
-1685
-1783
-1912
-1993
-1995
-1973
-2003
-2094
-2175
-2170
-2093
-2035
-2056
-2134
-2191
-2181
-2120
-2061
-2028
-2009
-1990
-1967
-1941
-1916
-1891
-1870
-1870
-1903
-1948
-1971
-1956
-1929
-1930
-1954
-1949
-1886
-1802
-1772
-1820
-1871
-1821
-1675
-1547
-1549
-1652
-1702
-1588
-1386
-1283
-1375
-1557
-1627
-1505
-1312
-1211
-1236
-1282
-1253
-1167
-1115
-1124
-1159
-1197
-1245
-1304
-1315
-1234
-1115
-1069
-1130
-1203
-1176
-1053
-949
-957
-1044
-1114
-1138
-1158
-1224
-1312
-1340
-1259
-1105
-982
-975
-1069
-1140
-1060
-845
-657
-651
-804
-921
-863
-673
-532
-553
-666
-737
-723
-684
-674
-661
-596
-505
-467
-513
-573
-548
-420
-276
-214
-261
-365
-458
-513
-525
-507
-489
-512
-579
-618
-553
-414
-324
-378
-531
-648
-654
-637
-725
-941
-1179
-1337
-1433
-1560
-1754
-1935
-1995
-1920
-1793
-1710
-1674
-1586
-1346
-981
-648
-500
-529
-564
-431
-133
146
239
168
118
233
471
655
669
560
445
393
377
334
244
157
118
115
103
48
-32
-82
-68
-23
-13
-63
-126
-145
-107
-59
-55
-103
-181
-267
-351
-417
-444
-426
-381
-333
-296
-267
-252
-248
-247
-237
-230
-257
-321
-376
-369
-295
-208
-164
-171
-207
-244
-282
-326
-370
-408
-446
-499
-562
-609
-617
-577
-497
-407
-340
-319
-342
-372
-372
-334
-288
-268
-282
-303
-299
-267
-229
-209
-219
-243
-251
-230
-194
-172
-173
-161
-92
31
145
203
232
298
429
566
627
597
538
522
565
631
695
751
801
844
887
956
1067
1182
1233
1198
1134
1124
1184
1244
1234
1163
1102
1086
1084
1052
983
919
885
869
850
830
826
844
869
887
888
869
834
798
764
725
674
624
610
640
679
689
680
696
752
805
802
748
689
654
626
579
517
458
404
352
322
348
415
462
446
394
379
430
501
531
511
490
522
613
721
793
789
717
628
569
538
485
390
302
294
371
454
474
455
482
589
717
774
731
622
499
385
286
217
189
188
181
155
129
146
226
319
326
171
-118
-410
-584
-653
-732
-901
-1102
-1199
-1115
-906
-671
-448
-215
28
221
320
369
455
597
718
750
722
726
806
917
1009
1101
1249
1447
1593
1594
1479
1368
1345
1372
1343
1203
1017
920
965
1081
1135
1078
988
964
991
966
846
738
796
1029
1267
1358
1336
1367
1519
1654
1587
1324
1060
960
989
989
881
760
749
851
967
1033
1072
1131
1188
1179
1102
1062
1149
1323
1411
1284
1010
807
807
928
963
831
674
677
834
966
952
881
915
1051
1104
945
687
575
697
901
984
924
842
854
948
1050
1118
1164
1206
1240
1263
1289
1332
1391
1460
1524
1560
1553
1517
1492
1491
1481
1438
1366
1314
1311
1341
1375
1430
1545
1714
1867
1943
1958
1990
2073
2141
2108
1977
1865
1867
1954
2004
1964
1912
1938
2026
2074
2032
1968
1979
2053
2077
1989
1856
1793
1822
1861
1826
1715
1595
1509
1469
1476
1519
1557
1540
1471
1413
1414
1449
1440
1368
1307
1320
1369
1357
1254
1156
1162
1235
1228
1068
854
735
743
785
761
700
692
742
759
704
662
736
893
978
890
706
605
666
789
824
739
630
606
690
809
867
827
728
649
645
697
727
670
539
424
412
490
566
554
462
364
318
307
277
204
120
56
-11
-140
-348
-577
-745
-847
-974
-1197
-1428
-1498
-1338
-1072
-884
-808
-710
-488
-247
-166
-242
-256
-44
280
459
422
376
527
822
1004
921
685
508
452
423
346
267
246
271
277
260
280
353
408
366
244
141
112
130
158
197
259
309
283
188
131
197
311
317
176
40
80
267
399
344
183
94
131
186
152
53
-1
17
43
36
27
63
137
196
213
215
212
198
166
124
75
10
-67
-120
-131
-141
-193
-275
-300
-227
-127
-111
-188
-268
-288
-281
-321
-413
-496
-529
-556
-610
-645
-605
-510
-447
-472
-534
-550
-495
-426
-400
-421
-459
-491
-503
-482
-417
-340
-290
-279
-272
-223
-119
10
102
121
82
42
59
142
235
270
222
159
165
273
433
550
567
518
493
528
576
554
451
346
337
423
506
514
478
465
503
539
537
528
545
560
512
412
360
429
567
637
569
433
351
363
411
418
361
266
171
104
96
155
234
266
237
182
151
155
180
212
258
302
311
291
298
361
438
460
402
338
352
449
555
578
512
429
411
473
542
540
464
395
413
504
587
600
558
511
472
432
406
404
410
361
246
137
107
111
39
-141
-323
-402
-404
-486
-724
-1007
-1165
-1161
-1104
-1102
-1101
-975
-700
-390
-174
-62
29
148
256
307
336
413
537
652
733
831
989
1157
1231
1183
1086
997
881
683
449
305
305
351
328
252
255
389
526
508
335
170
155
267
358
331
233
182
235
347
437
454
418
376
358
367
370
318
189
24
-106
-136
-59
76
205
299
354
370
358
326
269
180
67
-39
-103
-135
-163
-183
-144
-19
129
185
110
-19
-102
-130
-164
-238
-310
-332
-332
-368
-434
-458
-413
-362
-394
-487
-533
-471
-353
-276
-279
-309
-312
-301
-329
-387
-423
-420
-415
-449
-487
-469
-387
-302
-255
-209
-102
51
165
182
144
133
166
207
235
283
375
464
495
485
500
548
564
501
417
396
443
472
430
370
388
508
638
678
615
515
450
447
483
495
444
360
332
416
552
623
588
538
583
727
870
922
913
937
1019
1088
1067
948
800
686
628
606
572
502
421
401
487
628
726
729
685
675
725
807
891
974
1045
1076
1068
1076
1144
1235
1266
1205
1109
1050
1035
1023
1012
1031
1085
1122
1098
1030
973
949
945
950
970
999
1011
1009
1027
1090
1177
1219
1189
1112
1029
938
819
667
516
408
348
285
155
-61
-302
-461
-482
-393
-278
-193
-113
12
194
377
500
539
537
589
760
1029
1266
1346
1290
1258
1387
1639
1813
1737
1458
1192
1117
1229
1377
1400
1270
1083
958
948
1028
1126
1184
1177
1108
1025
991
1050
1165
1229
1165
1006
854
760
689
590
486
476
597
754
795
660
455
342
384
502
575
545
448
351
288
263
271
303
333
307
212
104
97
243
465
610
603
523
511
611
734
763
685
589
546
549
553
546
550
592
650
690
692
658
613
591
614
674
737
766
756
740
746
788
851
909
938
937
934
972
1073
1209
1333
1409
1437
1445
1468
1520
1583
1625
1622
1598
1600
1663
1774
1888
1959
1971
1932
1864
1810
1811
1873
1932
1925
1859
1810
1845
1944
2018
1995
1889
1773
1708
1690
1667
1608
1538
1512
1539
1579
1589
1576
1591
1641
1670
1621
1506
1401
1360
1350
1303
1199
1088
1033
1048
1092
1103
1054
957
851
767
689
596
489
398
362
379
407
418
423
439
457
446
401
357
347
348
317
272
267
333
426
469
441
405
431
528
641
700
685
639
615
628
627
533
328
98
-25
-18
14
-60
-239
-386
-371
-217
-80
-94
-244
-398
-454
-421
-394
-461
-631
-852
-1062
-1237
-1392
-1556
-1752
-1956
-2112
-2159
-2083
-1956
-1854
-1772
-1623
-1359
-1091
-991
-1090
-1208
-1122
-804
-443
-245
-235
-269
-214
-67
75
120
39
-141
-348
-494
-523
-449
-340
-271
-263
-277
-254
-179
-111
-104
-173
-268
-333
-367
-396
-418
-396
-308
-206
-164
-193
-231
-222
-172
-123
-85
-41
-1
-8
-67
-109
-69
35
103
61
-60
-159
-165
-101
-48
-77
-192
-319
-371
-327
-249
-229
-281
-324
-287
-196
-146
-187
-259
-284
-256
-249
-311
-400
-443
-418
-367
-338
-349
-396
-467
-554
-647
-719
-761
-780
-807
-875
-993
-1101
-1106
-968
-756
-591
-509
-424
-239
15
207
267
261
276
289
194
-32
-266
-363
-331
-301
-362
-449
-433
-286
-103
7
18
-22
-70
-116
-146
-143
-118
-111
-152
-216
-240
-209
-182
-222
-308
-341
-264
-154
-143
-277
-457
-545
-515
-459
-465
-519
-535
-468
-359
-269
-211
-162
-113
-81
-72
-75
-80
-97
-138
-190
-219
-210
-193
-209
-257
-289
-265
-205
-165
-175
-201
-184
-112
-32
6
6
8
27
40
36
41
85
144
167
144
135
195
294
349
342
344
417
532
599
579
526
514
531
511
429
343
321
359
398
412
437
509
598
637
592
505
432
386
336
248
114
-50
-233
-417
-575
-701
-831
-992
-1159
-1253
-1202
-1018
-786
-583
-416
-252
-60
139
294
392
451
485
484
452
447
519
653
751
736
643
572
565
556
475
352
282
296
319
273
195
188
271
352
339
254
200
232
300
320
271
207
180
190
201
199
193
194
192
171
139
128
157
211
232
189
120
94
139
201
215
169
114
98
113
114
88
69
87
128
145
114
68
67
134
224
262
214
118
52
53
91
102
54
-47
-172
-272
-304
-261
-201
-204
-295
-391
-381
-258
-154
-201
-379
-537
-549
-445
-347
-318
-311
-249
-135
-46
-47
-120
-187
-191
-141
-95
-95
-128
-137
-73
64
211
290
271
203
162
198
290
370
381
331
294
338
444
531
533
457
371
321
293
249
181
134
159
245
319
318
251
188
202
283
343
297
172
90
143
276
325
195
-31
-176
-157
-50
6
-31
-92
-97
-27
79
177
217
144
-28
-183
-211
-136
-119
-266
-458
-474
-273
-79
-118
-337
-452
-302
-51
19
-135
-265
-157
118
300
263
131
90
162
218
177
100
98
179
255
278
291
360
455
478
399
311
323
426
494
442
335
286
293
237
58
-136
-179
-74
-7
-142
-405
-569
-533
-447
-531
-799
-1040
-1052
-839
-555
-298
-31
289
596
771
808
839
977
1162
1243
1166
1056
1073
1237
1424
1511
1482
1405
1325
1249
1179
1122
1083
1072
1105
1184
1273
1321
1330
1342
1365
1339
1211
1033
917
902
918
899
882
936
1032
1057
982
905
931
1021
1044
956
852
831
857
823
710
620
619
661
658
594
542
544
555
512
416
341
336
366
354
265
156
115
162
213
175
38
-86
-81
40
132
57
-170
-383
-441
-370
-334
-443
-632
-717
-606
-408
-317
-395
-510
-500
-378
-315
-434
-660
-803
-767
-625
-528
-527
-551
-519
-431
-345
-304
-318
-367
-422
-434
-380
-283
-181
-81
39
179
283
293
225
173
199
269
284
204
99
78
173
317
415
435
422
429
457
464
443
422
441
487
515
523
557
628
676
635
535
481
522
589
578
481
392
379
421
464
493
520
533
505
461
462
510
534
481
394
360
377
356
266
199
243
343
352
243
151
194
322
382
333
296
364
457
447
345
314
452
623
639
502
406
487
653
706
585
426
393
470
508
413
249
160
197
275
265
149
40
54
175
251
149
-91
-301
-371
-361
-415
-576
-764
-890
-951
-1019
-1133
-1265
-1383
-1476
-1510
-1429
-1196
-878
-604
-426
-264
-27
227
340
253
109
112
287
454
433
289
241
409
667
797
715
533
388
302
232
149
73
2
-97
-217
-293
-261
-154
-80
-107
-182
-202
-103
62
172
155
65
28
78
135
105
13
-19
72
183
171
44
-60
-40
32
17
-100
-208
-228
-219
-289
-445
-588
-651
-673
-729
-831
-915
-939
-925
-908
-891
-874
-867
-909
-1010
-1130
-1206
-1210
-1190
-1210
-1305
-1416
-1435
-1327
-1195
-1171
-1276
-1398
-1415
-1343
-1309
-1389
-1511
-1533
-1416
-1291
-1288
-1374
-1385
-1223
-991
-886
-971
-1096
-1089
-958
-873
-943
-1062
-1062
-917
-780
-795
-927
-993
-868
-619
-429
-422
-544
-608
-485
-233
-48
-61
-199
-266
-164
-17
-1
-120
-191
-91
80
115
-27
-166
-130
60
207
177
36
-44
22
164
239
189
86
29
42
57
-1
-107
-175
-162
-112
-88
-101
-105
-76
-32
9
54
100
95
7
-124
-202
-184
-120
-94
-123
-141
-98
-7
85
149
185
197
191
201
263
382
495
534
494
452
478
558
600
539
420
359
414
524
580
560
557
655
804
874
826
763
794
897
941
852
715
674
762
870
886
804
712
677
692
717
715
662
539
355
155
-7
-134
-267
-423
-528
-491
-302
-49
179
377
583
778
896
924
939
1027
1166
1251
1252
1254
1351
1536
1725
1860
1954
2000
1966
1863
1791
1819
1883
1854
1731
1673
1790
2001
2117
2075
1998
2009
2090
2148
2161
2193
2276
2361
2393
2383
2379
2397
2422
2466
2546
2628
2651
2590
2507
2489
2551
2641
2694
2668
2576
2465
2427
2534
2745
2910
2917
2818
2780
2895
3072
3160
3115
3015
2937
2882
2822
2773
2772
2797
2778
2697
2623
2639
2745
2851
2881
2828
2754
2729
2779
2867
2900
2815
2651
2543
2597
2740
2779
2587
2270
2068
2110
2278
2355
2261
2109
2056
2117
2198
2244
2276
2311
2293
2159
1948
1787
1753
1775
1742
1637
1553
1555
1603
1617
1600
1622
1712
1798
1808
1761
1750
1820
1902
1901
1814
1749
1788
1892
1965
1969
1966
2034
2149
2195
2103
1940
1821
1785
1753
1636
1461
1327
1283
1277
1246
1195
1169
1165
1134
1054
981
987
1053
1095
1061
999
989
1051
1121
1131
1071
992
942
942
984
1044
1102
1152
1201
1262
1334
1393
1415
1415
1435
1492
1570
1633
1674
1723
1809
1928
2041
2097
2085
2048
2066
2187
2367
2480
2437
2278
2153
2185
2347
2468
2402
2176
1963
1924
2055
2191
2175
1994
1780
1653
1598
1524
1390
1250
1153
1037
817
532
356
399
525
477
187
-106
-105
214
588
768
756
719
746
768
667
730
856
1074
1225
1244
1266
1466
1822
2093
2061
1758
1408
1192
1083
938
695
442
322
367
488
574
595
585
570
530
445
332
238
184
146
95
43
14
-4
-61
-188
-356
-503
-586
-613
-620
-635
-669
-731
-819
-902
-940
-928
-903
-905
-931
-942
-922
-903
-927
-983
-1019
-1020
-1033
-1109
-1223
-1283
-1237
-1126
-1049
-1057
-1117
-1164
-1180
-1198
-1259
-1372
-1517
-1671
-1802
-1877
-1880
-1835
-1799
-1826
-1907
-1975
-1982
-1939
-1898
-1879
-1856
-1805
-1758
-1776
-1870
-1955
-1946
-1874
-1859
-1958
-2066
-2013
-1776
-1517
-1433
-1531
-1644
-1625
-1508
-1449
-1538
-1704
-1825
-1841
-1780
-1697
-1618
-1558
-1545
-1581
-1607
-1548
-1426
-1340
-1372
-1477
-1541
-1514
-1464
-1480
-1561
-1639
-1699
-1779
-1884
-1932
-1859
-1725
-1672
-1746
-1840
-1822
-1700
-1621
-1675
-1789
-1838
-1803
-1790
-1863
-1957
-1956
-1839
-1705
-1655
-1694
-1741
-1742
-1722
-1739
-1820
-1941
-2059
-2135
-2152
-2113
-2055
-2034
-2072
-2134
-2175
-2180
-2184
-2218
-2272
-2308
-2310
-2278
-2216
-2126
-2025
-1977
-2040
-2219
-2448
-2642
-2750
-2771
-2724
-2628
-2511
-2407
-2333
-2283
-2227
-2138
-2030
-1975
-2027
-2168
-2285
-2251
-2054
-1842
-1798
-1973
-2232
-2370
-2334
-2267
-2360
-2656
-3033
-3346
-3574
-3786
-4014
-4212
-4313
-4318
-4259
-4142
-3936
-3634
-3276
-2920
-2609
-2393
-2348
-2500
-2752
-2935
-2952
-2861
-2766
-2677
-2491
-2146
-1722
-1369
-1159
-1064
-1044
-1104
-1264
-1488
-1690
-1816
-1891
-1969
-2071
-2167
-2209
-2173
-2072
-1961
-1923
-2007
-2184
-2347
-2397
-2340
-2293
-2372
-2573
-2758
-2787
-2650
-2468
-2375
-2386
-2399
-2311
-2134
-1976
-1934
-2007
-2108
-2152
-2127
-2083
-2064
-2064
-2042
-1975
-1879
-1793
-1744
-1726
-1723
-1724
-1729
-1740
-1755
-1785
-1847
-1936
-2012
-2022
-1960
-1878
-1839
-1851
-1848
-1762
-1607
-1464
-1411
-1445
-1499
-1521
-1525
-1559
-1636
-1700
-1687
-1596
-1492
-1428
-1382
-1285
-1122
-974
-951
-1063
-1190
-1198
-1068
-910
-845
-878
-901
-811
-602
-367
-214
-181
-227
-277
-289
-273
-266
-284
-316
-342
-354
-351
-317
-241
-149
-88
-83
-96
-70
14
105
144
129
108
118
144
148
116
76
63
80
102
117
136
176
234
292
342
408
504
599
636
594
524
495
509
509
457
401
412
499
594
637
649
695
789
867
874
811
730
666
619
582
567
587
635
687
731
773
825
892
962
1006
997
954
941
1007
1130
1208
1171
1070
1038
1125
1228
1212
1075
963
1000
1144
1243
1221
1158
1177
1283
1368
1344
1235
1125
1048
969
871
803
819
899
948
879
692
476
312
201
82
-87
-244
-261
-68
252
536
692
779
919
1133
1305
1330
1250
1223
1338
1512
1602
1549
1456
1469
1618
1777
1800
1655
1455
1349
1383
1476
1535
1534
1498
1444
1376
1329
1373
1503
1571
1437
1175
1066
1301
1727
1979
1857
1534
1349
1434
1612
1641
1488
1304
1224
1237
1247
1229
1234
1301
1410
1501
1546
1565
1588
1638
1694
1705
1610
1405
1172
1022
1008
1079
1123
1070
941
837
853
998
1175
1257
1189
1051
980
1025
1094
1059
892
696
589
589
617
610
586
611
713
862
1009
1113
1163
1188
1219
1269
1321
1335
1305
1261
1246
1269
1312
1361
1412
1457
1479
1476
1481
1531
1618
1696
1716
1669
1601
1582
1636
1715
1735
1667
1587
1607
1751
1909
1945
1839
1707
1654
1673
1664
1581
1460
1366
1321
1316
1355
1433
1497
1464
1321
1158
1082
1109
1142
1089
949
792
692
671
712
768
773
683
529
404
376
410
394
273
105
14
45
120
137
88
34
29
37
-2
-102
-209
-261
-276
-332
-466
-622
-698
-656
-572
-564
-662
-761
-741
-604
-483
-505
-659
-821
-889
-877
-862
-889
-942
-987
-1016
-1025
-983
-892
-830
-869
-995
-1118
-1165
-1163
-1183
-1228
-1236
-1187
-1158
-1228
-1372
-1501
-1571
-1619
-1695
-1796
-1904
-2034
-2220
-2426
-2563
-2618
-2699
-2906
-3171
-3293
-3154
-2844
-2566
-2410
-2302
-2126
-1886
-1706
-1675
-1734
-1751
-1640
-1431
-1242
-1154
-1139
-1085
-935
-756
-697
-818
-1034
-1193
-1229
-1211
-1225
-1275
-1304
-1285
-1273
-1315
-1394
-1447
-1440
-1403
-1376
-1353
-1301
-1211
-1120
-1079
-1122
-1233
-1350
-1412
-1405
-1378
-1387
-1411
-1378
-1251
-1090
-988
-972
-993
-1026
-1088
-1183
-1228
-1142
-985
-912
-994
-1091
-1003
-731
-494
-487
-670
-830
-834
-757
-746
-827
-910
-918
-871
-832
-819
-791
-731
-658
-621
-631
-671
-711
-753
-813
-881
-943
-996
-1041
-1081
-1100
-1079
-1040
-1040
-1097
-1162
-1170
-1115
-1063
-1073
-1114
-1103
-999
-842
-710
-643
-610
-565
-480
-375
-310
-318
-365
-379
-315
-209
-128
-93
-50
40
126
140
77
23
58
140
178
150
120
166
261
314
278
218
220
282
317
273
202
204
304
425
476
453
445
520
637
694
645
551
522
586
650
614
477
352
354
466
554
526
428
379
417
468
446
370
308
271
204
95
35
114
281
397
399
378
460
621
711
668
597
634
778
881
841
732
723
868
1042
1078
955
805
771
841
908
895
839
824
865
905
910
924
999
1090
1090
958
797
732
770
794
697
504
351
308
315
262
120
-36
-116
-143
-210
-367
-533
-578
-453
-243
-56
92
273
514
747
873
885
884
958
1091
1191
1209
1178
1174
1236
1328
1391
1383
1311
1214
1124
1048
981
918
866
831
805
770
743
745
778
815
821
803
803
853
940
1022
1067
1084
1100
1109
1078
1004
927
905
941
989
990
952
920
913
921
926
941
999
1081
1132
1121
1073
1042
1038
1026
983
941
940
970
969
909
849
856
936
1006
979
866
763
747
798
832
800
739
715
755
831
876
868
835
813
816
817
786
716
631
575
575
623
680
712
715
715
744
805
871
908
900
864
839
862
952
1081
1204
1286
1321
1335
1368
1431
1489
1475
1361
1227
1192
1293
1408
1375
1207
1104
1228
1484
1598
1443
1196
1139
1319
1507
1478
1276
1129
1153
1237
1236
1160
1143
1236
1334
1337
1284
1310
1462
1627
1675
1598
1522
1548
1634
1684
1678
1696
1808
1965
2037
1967
1848
1811
1867
1906
1832
1661
1492
1396
1382
1448
1583
1741
1832
1807
1747
1801
2022
2286
2415
2357
2223
2172
2246
2357
2396
2336
2265
2277
2388
2519
2577
2566
2579
2682
2826
2903
2876
2812
2787
2803
2813
2809
2820
2846
2831
2751
2678
2698
2787
2819
2734
2624
2601
2627
2520
2164
1674
1291
1102
972
716
353
104
144
424
730
933
1074
1243
1426
1520
1500
1497
1656
1955
2231
2362
2414
2539
2792
3051
3164
3101
2950
2813
2717
2652
2630
2666
2716
2692
2555
2401
2355
2425
2479
2372
2137
1950
1936
2037
2090
2030
1943
1943
2021
2066
2023
1962
1975
2048
2086
2043
1997
2036
2151
2238
2235
2192
2191
2240
2274
2265
2253
2266
2263
2187
2069
2000
2012
2030
1963
1821
1723
1736
1804
1837
1827
1852
1965
2131
2262
2309
2285
2215
2101
1952
1807
1713
1690
1718
1780
1893
2082
2341
2616
2828
2931
2939
2912
2894
2869
2801
2692
2608
2613
2702
2794
2826
2820
2856
2961
3069
3074
2951
2786
2695
2710
2758
2751
2671
2569
2514
2521
2558
2582
2573
2542
2503
2468
2434
2386
2325
2273
2250
2243
2188
2034
1800
1569
1414
1328
1239
1093
912
778
748
803
871
883
832
761
716
694
650
562
463
410
408
398
338
265
244
259
229
114
-26
-111
-160
-274
-488
-696
-775
-742
-740
-849
-991
-1028
-943
-856
-872
-955
-985
-906
-784
-731
-786
-883
-923
-867
-783
-773
-871
-1001
-1054
-989
-880
-827
-839
-855
-825
-783
-797
-868
-948
-1001
-1038
-1078
-1110
-1111
-1089
-1080
-1098
-1116
-1116
-1126
-1207
-1368
-1535
-1619
-1607
-1585
-1668
-1891
-2176
-2398
-2509
-2566
-2642
-2728
-2728
-2600
-2424
-2304
-2232
-2112
-1913
-1759
-1787
-1954
-2053
-1939
-1684
-1477
-1383
-1300
-1127
-902
-747
-718
-761
-813
-875
-964
-1055
-1107
-1113
-1119
-1148
-1173
-1167
-1159
-1204
-1306
-1409
-1454
-1426
-1357
-1285
-1231
-1204
-1197
-1176
-1125
-1066
-1044
-1062
-1070
-1003
-865
-722
-631
-602
-607
-622
-637
-651
-676
-738
-856
-987
-1040
-954
-787
-679
-717
-855
-947
-914
-816
-790
-896
-1049
-1119
-1065
-966
-913
-922
-935
-932
-949
-1014
-1088
-1101
-1034
-964
-974
-1028
-1028
-918
-780
-748
-853
-975
-968
-824
-679
-654
-722
-745
-646
-508
-474
-585
-756
-892
-971
-1015
-1019
-944
-810
-688
-616
-541
-398
-224
-135
-186
-302
-355
-320
-280
-310
-368
-365
-271
-161
-128
-192
-293
-359
-372
-366
-399
-492
-616
-700
-690
-606
-555
-641
-865
-1109
-1245
-1255
-1224
-1244
-1297
-1298
-1201
-1059
-958
-937
-974
-1043
-1137
-1251
-1355
-1432
-1504
-1588
-1642
-1593
-1433
-1262
-1209
-1308
-1466
-1560
-1560
-1544
-1603
-1746
-1885
-1912
-1796
-1607
-1459
-1409
-1419
-1407
-1331
-1227
-1160
-1162
-1212
-1258
-1267
-1230
-1153
-1054
-951
-863
-802
-772
-754
-724
-685
-666
-694
-751
-798
-824
-850
-894
-932
-941
-947
-1016
-1156
-1272
-1265
-1162
-1102
-1180
-1336
-1422
-1379
-1319
-1392
-1627
-1919
-2154
-2327
-2507
-2713
-2868
-2880
-2753
-2572
-2403
-2226
-2011
-1807
-1708
-1726
-1733
-1612
-1404
-1277
-1323
-1428
-1407
-1216
-1017
-987
-1129
-1294
-1369
-1380
-1413
-1494
-1569
-1584
-1558
-1535
-1526
-1512
-1485
-1463
-1478
-1528
-1590
-1645
-1676
-1650
-1544
-1392
-1280
-1271
-1339
-1386
-1347
-1262
-1235
-1314
-1429
-1450
-1333
-1159
-1057
-1063
-1086
-1015
-851
-708
-690
-768
-815
-760
-670
-657
-724
-757
-663
-497
-408
-462
-568
-589
-505
-421
-436
-528
-585
-544
-458
-427
-490
-586
-619
-550
-445
-419
-522
-675
-743
-670
-546
-507
-583
-664
-638
-523
-437
-446
-496
-501
-461
-451
-511
-581
-591
-533
-467
-433
-412
-361
-264
-139
-21
53
73
69
101
184
249
217
109
61
167
338
396
292
177
243
481
694
740
679
671
752
805
727
572
478
492
528
489
392
319
306
306
266
210
197
237
261
193
44
-63
-3
217
452
542
470
378
413
575
710
678
508
342
283
312
358
400
462
532
544
461
348
328
461
680
838
834
686
516
456
532
652
690
601
464
386
406
490
605
746
871
910
853
806
881
1026
1048
843
545
411
530
719
772
686
621
648
659
546
357
253
277
299
203
27
-106
-171
-278
-486
-701
-771
-672
-535
-470
-406
-174
276
768
1056
1054
907
843
946
1106
1158
1059
933
947
1155
1463
1725
1853
1847
1746
1590
1431
1341
1363
1461
1541
1537
1480
1458
1530
1652
1715
1638
1443
1241
1158
1226
1345
1389
1331
1275
1326
1468
1578
1568
1479
1422
1441
1484
1502
1498
1494
1465
1363
1220
1139
1171
1233
1191
1027
861
815
884
971
997
956
854
698
524
424
438
476
387
140
-108
-173
-58
52
10
-137
-227
-207
-195
-325
-555
-723
-740
-707
-786
-991
-1151
-1119
-957
-882
-1023
-1267
-1383
-1292
-1143
-1144
-1318
-1496
-1514
-1399
-1318
-1378
-1528
-1638
-1646
-1596
-1571
-1586
-1600
-1575
-1536
-1519
-1503
-1432
-1313
-1246
-1303
-1413
-1407
-1245
-1092
-1127
-1299
-1354
-1146
-844
-746
-910
-1082
-1016
-776
-650
-776
-989
-1031
-858
-668
-630
-691
-671
-501
-301
-238
-333
-456
-478
-424
-402
-471
-566
-592
-517
-399
-295
-203
-116
-66
-87
-143
-146
-59
39
55
-9
-57
-16
76
135
132
99
70
54
57
118
243
363
389
343
342
446
571
580
448
316
316
422
508
496
450
455
522
586
603
581
548
498
440
422
494
615
675
634
568
576
654
673
527
262
33
-50
-25
-11
-96
-263
-431
-549
-631
-742
-911
-1077
-1146
-1079
-923
-760
-577
-313
49
380
521
463
398
494
726
882
812
617
530
662
879
967
855
663
552
554
565
500
396
348
401
492
527
479
409
383
407
425
373
270
200
241
386
539
610
595
580
625
698
714
670
630
646
691
685
616
564
607
715
783
762
713
717
774
807
755
667
628
671
724
688
557
448
473
593
646
514
274
128
179
310
322
156
-44
-100
-5
82
20
-157
-303
-334
-301
-320
-443
-617
-727
-732
-694
-704
-775
-834
-811
-726
-662
-664
-693
-675
-608
-560
-582
-631
-626
-548
-460
-431
-477
-538
-544
-474
-360
-273
-267
-311
-331
-282
-196
-140
-153
-208
-229
-183
-91
-29
-39
-102
-141
-98
9
79
39
-73
-139
-89
20
71
16
-69
-91
-41
14
31
38
75
106
73
-9
-40
45
181
237
158
34
-15
49
161
225
196
105
32
32
89
130
83
-26
-95
-67
7
34
23
64
194
318
328
263
282
468
712
835
805
764
841
1003
1105
1058
915
811
808
855
857
776
665
613
656
735
757
679
558
484
491
540
569
553
505
455
429
417
395
328
205
57
-77
-191
-329
-526
-747
-923
-1041
-1141
-1272
-1384
-1374
-1199
-945
-738
-620
-545
-467
-397
-359
-323
-207
21
303
552
754
960
1188
1369
1412
1318
1167
1037
924
772
591
491
573
809
1030
1094
1026
970
1023
1118
1119
983
813
747
828
978
1092
1137
1160
1211
1277
1297
1234
1133
1093
1153
1245
1266
1205
1168
1246
1409
1540
1577
1569
1597
1650
1643
1530
1374
1276
1275
1312
1323
1311
1321
1382
1475
1553
1592
1608
1635
1689
1746
1771
1753
1708
1662
1625
1608
1625
1677
1726
1715
1636
1585
1679
1938
2210
2281
2086
1812
1737
1952
2251
2323
2083
1756
1659
1885
2237
2465
2498
2442
2387
2323
2211
2085
2005
1951
1821
1580
1349
1313
1512
1793
1961
1965
1914
1931
2021
2084
2025
1853
1668
1555
1524
1526
1514
1502
1542
1638
1732
1763
1736
1702
1692
1674
1600
1482
1394
1394
1438
1437
1350
1238
1193
1239
1307
1312
1253
1181
1132
1088
1022
946
906
917
939
928
888
863
884
935
974
976
947
910
891
893
895
885
875
893
944
1004
1063
1137
1245
1350
1387
1349
1318
1365
1465
1513
1465
1394
1400
1480
1537
1505
1414
1347
1336
1353
1368
1384
1409
1430
1420
1384
1362
1388
1458
1534
1561
1509
1399
1288
1228
1228
1246
1226
1157
1064
974
906
865
837
786
676
526
425
470
657
878
1030
1120
1235
1403
1545
1596
1607
1696
1881
2044
2081
2048
2104
2318
2558
2643
2533
2357
2246
2197
2126
1999
1890
1878
1944
1997
1981
1922
1885
1880
1848
1732
1555
1402
1330
1305
1263
1185
1100
1031
956
853
745
676
649
622
565
509
498
502
443
294
129
39
27
8
-83
-221
-326
-347
-307
-271
-288
-354
-417
-443
-435
-439
-489
-557
-578
-542
-506
-548
-670
-795
-874
-936
-1028
-1151
-1249
-1291
-1306
-1330
-1364
-1375
-1352
-1320
-1312
-1325
-1337
-1339
-1344
-1354
-1348
-1304
-1239
-1201
-1217
-1255
-1249
-1179
-1096
-1077
-1128
-1170
-1125
-1012
-914
-874
-850
-774
-664
-600
-617
-653
-626
-537
-469
-481
-544
-583
-563
-508
-436
-347
-254
-181
-151
-141
-123
-101
-109
-156
-218
-270
-320
-382
-428
-403
-315
-241
-235
-255
-209
-83
29
39
-20
-49
-13
11
-48
-155
-211
-195
-171
-187
-212
-194
-153
-161
-229
-276
-242
-177
-189
-300
-416
-440
-374
-303
-283
-292
-288
-264
-254
-262
-260
-231
-184
-134
-90
-61
-57
-94
-147
-176
-164
-141
-141
-168
-175
-127
-43
29
76
122
184
208
114
-102
-333
-459
-473
-493
-623
-826
-955
-911
-734
-550
-437
-382
-347
-343
-403
-520
-635
-714
-793
-933
-1111
-1209
-1121
-870
-597
-421
-331
-237
-93
39
80
44
40
137
285
368
335
258
237
271
254
106
-141
-367
-494
-550
-604
-665
-679
-622
-552
-543
-603
-657
-647
-606
-622
-711
-781
-740
-604
-479
-446
-465
-444
-374
-340
-412
-536
-591
-532
-447
-453
-549
-613
-560
-448
-404
-471
-564
-576
-507
-446
-457
-513
-547
-534
-508
-511
-543
-582
-601
-600
-592
-597
-622
-652
-665
-652
-631
-634
-681
-758
-827
-857
-852
-844
-863
-903
-932
-928
-906
-887
-884
-902
-944
-1005
-1055
-1058
-1015
-962
-921
-872
-784
-667
-573
-531
-512
-476
-426
-408
-438
-473
-464
-409
-350
-301
-244
-161
-70
-7
27
58
108
167
211
237
259
285
304
296
264
235
232
251
265
255
229
221
248
290
313
300
263
227
192
152
107
87
116
183
245
269
260
255
276
306
308
272
229
215
238
266
267
238
197
166
147
126
93
50
6
-35
-74
-104
-115
-103
-72
-39
-12
20
62
109
143
154
151
147
149
154
163
184
216
252
283
313
341
351
326
271
218
190
171
136
85
72
139
269
392
468
513
548
546
451
253
18
-173
-299
-409
-552
-720
-862
-941
-968
-993
-1056
-1162
-1267
-1321
-1302
-1221
-1090
-899
-652
-395
-199
-78
45
267
590
889
1024
976
868
855
991
1175
1254
1153
941
763
712
748
746
640
486
388
385
418
421
394
370
378
413
450
461
455
459
506
586
622
549
380
224
182
258
349
351
268
206
274
472
658
677
502
293
258
436
644
662
482
315
354
577
775
789
667
578
613
701
719
620
475
367
309
258
168
62
-12
-14
33
77
87
67
25
-31
-83
-107
-97
-97
-162
-298
-422
-444
-362
-273
-262
-313
-336
-289
-241
-266
-330
-329
-222
-88
-30
-69
-128
-145
-127
-95
-47
27
92
118
140
237
433
624
678
592
499
533
701
878
957
927
866
853
898
962
1004
1016
1027
1064
1125
1179
1212
1245
1297
1353
1371
1334
1282
1278
1334
1385
1364
1281
1229
1275
1380
1433
1390
1313
1288
1321
1348
1329
1303
1313
1338
1320
1243
1159
1115
1098
1065
1000
933
888
851
795
739
737
817
951
1076
1166
1242
1331
1415
1426
1335
1177
1032
947
893
830
772
777
860
951
959
863
730
623
534
403
220
76
50
124
193
183
122
82
78
43
-84
-293
-527
-764
-1016
-1250
-1397
-1451
-1535
-1787
-2161
-2472
-2602
-2656
-2833
-3145
-3365
-3268
-2889
-2493
-2281
-2187
-2019
-1704
-1382
-1223
-1214
-1188
-1038
-818
-672
-642
-624
-497
-289
-146
-168
-306
-430
-483
-505
-551
-611
-632
-593
-526
-479
-469
-475
-470
-452
-453
-505
-600
-676
-663
-566
-478
-493
-586
-655
-652
-640
-704
-807
-827
-717
-598
-632
-808
-935
-854
-635
-501
-594
-815
-948
-902
-789
-773
-880
-986
-970
-851
-765
-810
-944
-1040
-1011
-905
-839
-884
-1004
-1108
-1143
-1135
-1129
-1131
-1120
-1109
-1152
-1270
-1380
-1377
-1255
-1143
-1173
-1326
-1439
-1380
-1194
-1026
-987
-1055
-1134
-1162
-1130
-1061
-979
-909
-896
-941
-991
-957
-818
-662
-606
-677
-775
-786
-728
-699
-739
-774
-709
-562
-457
-455
-461
-365
-197
-107
-164
-258
-246
-135
-55
-83
-141
-112
-3
75
60
24
58
143
189
177
185
258
323
282
179
165
311
491
528
406
295
350
517
631
627
608
671
755
730
613
565
674
832
844
674
493
483
631
758
739
629
572
623
728
814
866
909
954
1002
1054
1124
1197
1234
1216
1175
1185
1263
1341
1332
1241
1179
1230
1353
1406
1310
1158
1118
1217
1316
1268
1121
1063
1179
1334
1333
1163
1016
1036
1145
1153
987
772
674
710
751
694
560
421
307
187
35
-137
-327
-513
-620
-563
-349
-120
-2
43
190
509
829
893
714
589
763
1126
1347
1279
1133
1210
1514
1770
1773
1602
1466
1429
1397
1308
1239
1282
1394
1438
1383
1328
1373
1471
1481
1350
1167
1053
1048
1088
1105
1083
1054
1029
1011
1006
1020
1045
1064
1073
1077
1052
982
909
900
963
1001
922
777
715
799
906
869
698
581
632
764
814
747
674
683
737
753
725
707
697
644
536
438
413
415
366
238
97
30
61
145
196
152
33
-53
-6
160
299
274
109
-22
21
184
290
233
87
29
140
309
368
270
150
188
411
645
701
571
445
506
740
938
938
767
615
618
717
763
684
554
492
526
593
633
638
638
654
678
708
738
740
689
599
543
573
646
660
571
462
444
534
637
666
643
660
761
873
890
796
677
621
631
631
558
425
321
320
417
541
619
625
574
478
337
183
87
113
238
357
394
393
480
701
963
1128
1149
1090
1025
978
953
984
1090
1188
1162
1013
888
916
1051
1102
978
802
767
903
1045
1047
944
908
1031
1212
1267
1142
974
951
1113
1307
1349
1220
1086
1105
1253
1370
1342
1225
1139
1093
981
732
417
153
-40
-222
-407
-490
-376
-125
115
268
401
588
775
836
749
655
711
919
1163
1357
1527
1766
2094
2408
2577
2552
2382
2165
1972
1836
1748
1709
1703
1700
1672
1624
1603
1627
1639
1546
1324
1076
953
1004
1125
1175
1136
1105
1157
1245
1268
1200
1113
1079
1083
1065
1004
935
871
773
618
454
349
302
248
150
51
25
75
139
176
188
181
128
27
-56
-44
47
104
56
-40
-77
-24
38
43
11
2
10
-7
-48
-46
44
157
186
102
-10
-49
-4
60
100
133
185
251
320
400
500
595
622
555
445
377
384
433
476
508
554
616
669
706
754
832
917
948
907
849
857
963
1106
1193
1177
1106
1074
1143
1305
1498
1656
1749
1787
1807
1851
1938
2040
2086
2013
1839
1670
1621
1717
1875
1967
1928
1808
1705
1678
1699
1678
1556
1354
1149
1014
961
950
938
908
862
817
788
768
727
649
560
516
530
535
448
283
152
141
206
212
92
-66
-113
-8
141
204
149
59
26
67
116
108
40
-37
-77
-88
-118
-179
-229
-234
-221
-243
-309
-359
-334
-254
-203
-226
-280
-308
-313
-343
-415
-492
-540
-581
-666
-804
-940
-1013
-1031
-1061
-1173
-1373
-1612
-1844
-2055
-2259
-2472
-2672
-2803
-2811
-2703
-2540
-2376
-2200
-1969
-1693
-1460
-1330
-1245
-1074
-778
-471
-295
-250
-197
-37
158
236
136
-68
-264
-397
-471
-497
-484
-450
-411
-344
-222
-78
-3
-56
-188
-290
-337
-392
-492
-582
-586
-510
-423
-361
-289
-168
-36
36
39
34
63
74
-10
-178
-327
-370
-332
-307
-342
-393
-386
-310
-230
-214
-277
-377
-478
-563
-638
-712
-791
-868
-917
-898
-812
-708
-644
-625
-604
-547
-484
-483
-579
-719
-817
-833
-810
-818
-883
-959
-985
-945
-881
-863
-930
-1072
-1243
-1388
-1448
-1405
-1301
-1229
-1259
-1359
-1419
-1370
-1260
-1209
-1282
-1413
-1480
-1417
-1258
-1092
-968
-885
-812
-735
-674
-665
-725
-818
-892
-925
-932
-928
-898
-812
-695
-617
-622
-688
-768
-852
-959
-1083
-1173
-1210
-1242
-1324
-1435
-1494
-1461
-1390
-1346
-1311
-1229
-1101
-1008
-1009
-1059
-1077
-1057
-1078
-1187
-1325
-1395
-1377
-1343
-1350
-1374
-1353
-1286
-1231
-1234
-1269
-1287
-1277
-1268
-1286
-1321
-1351
-1369
-1389
-1420
-1451
-1486
-1539
-1610
-1667
-1661
-1574
-1450
-1352
-1310
-1297
-1267
-1209
-1160
-1157
-1192
-1221
-1209
-1169
-1140
-1146
-1174
-1195
-1199
-1207
-1236
-1268
-1266
-1220
-1170
-1166
-1197
-1204
-1152
-1083
-1084
-1180
-1315
-1415
-1462
-1499
-1563
-1658
-1772
-1901
-2036
-2152
-2235
-2317
-2438
-2575
-2634
-2546
-2350
-2139
-1925
-1623
-1190
-740
-457
-375
-326
-124
194
403
349
133
6
105
332
496
509
440
390
395
426
436
396
300
178
84
49
54
48
9
-22
-6
46
88
108
133
174
199
171
102
50
40
36
-6
-72
-89
-6
138
252
288
290
330
416
479
456
372
314
329
372
365
307
284
368
529
658
676
613
553
537
531
478
381
312
325
398
459
480
503
577
679
719
647
523
455
470
500
469
396
363
416
510
587
634
671
693
668
600
549
570
634
649
577
495
516
656
815
882
859
841
898
1003
1084
1111
1114
1126
1152
1186
1255
1371
1477
1496
1442
1443
1604
1850
1974
1850
1600
1476
1591
1797
1851
1672
1417
1306
1398
1554
1614
1546
1455
1459
1573
1713
1792
1781
1710
1636
1606
1628
1668
1677
1651
1656
1754
1911
2014
2001
1927
1917
2010
2120
2127
1988
1775
1595
1521
1538
1585
1605
1605
1651
1785
1963
2087
2112
2093
2098
2106
2038
1898
1810
1882
2060
2161
2082
1914
1821
1869
1969
2009
1988
1981
2025
2072
2067
2010
1957
1946
1945
1892
1756
1574
1412
1319
1289
1295
1311
1314
1278
1183
1065
1003
1039
1111
1089
914
677
518
480
461
346
145
-28
-83
-34
64
203
401
646
871
1020
1094
1137
1198
1315
1499
1711
1883
1983
2068
2198
2366
2473
2437
2285
2122
2034
2029
2058
2069
2030
1951
1893
1923
2032
2123
2118
2056
2059
2173
2302
2332
2273
2256
2360
2495
2511
2364
2175
2099
2152
2221
2184
2051
1931
1927
2035
2170
2238
2219
2171
2171
2248
2372
2486
2547
2541
2469
2358
2256
2212
2236
2262
2203
2041
1856
1760
1801
1916
1984
1926
1771
1631
1611
1702
1770
1669
1405
1132
991
972
938
824
698
656
674
639
521
421
443
534
534
372
150
31
53
97
40
-115
-246
-255
-175
-136
-222
-382
-491
-481
-417
-415
-505
-612
-655
-624
-567
-542
-580
-662
-747
-770
-707
-606
-559
-617
-741
-845
-875
-837
-778
-757
-805
-909
-990
-972
-871
-801
-859
-1010
-1117
-1107
-1060
-1097
-1232
-1343
-1333
-1248
-1237
-1367
-1537
-1591
-1518
-1463
-1551
-1727
-1813
-1718
-1564
-1538
-1668
-1789
-1752
-1612
-1558
-1681
-1870
-1947
-1871
-1769
-1770
-1878
-1983
-1977
-1865
-1752
-1723
-1767
-1778
-1681
-1528
-1437
-1458
-1511
-1494
-1410
-1359
-1388
-1426
-1397
-1340
-1367
-1476
-1531
-1436
-1279
-1242
-1372
-1518
-1502
-1339
-1199
-1194
-1275
-1331
-1339
-1358
-1430
-1515
-1562
-1600
-1681
-1787
-1856
-1860
-1875
-1992
-2189
-2359
-2449
-2532
-2690
-2858
-2860
-2632
-2327
-2141
-2090
-1990
-1721
-1418
-1301
-1397
-1488
-1387
-1145
-977
-990
-1069
-1038
-859
-669
-614
-712
-872
-1000
-1072
-1107
-1123
-1110
-1047
-961
-914
-930
-956
-923
-832
-767
-800
-894
-954
-913
-808
-710
-653
-642
-685
-763
-826
-816
-748
-701
-738
-824
-875
-864
-835
-822
-807
-775
-759
-786
-786
-683
-517
-421
-487
-623
-647
-518
-392
-426
-572
-628
-507
-318
-226
-251
-281
-237
-171
-168
-241
-338
-410
-452
-469
-469
-485
-556
-669
-741
-715
-635
-607
-679
-775
-804
-764
-724
-724
-728
-712
-698
-718
-752
-731
-641
-560
-561
-630
-649
-544
-380
-275
-282
-331
-308
-199
-81
-47
-110
-185
-192
-128
-55
-27
-32
-29
19
108
200
276
310
307
293
294
310
320
308
286
279
284
265
208
159
153
196
239
257
274
307
329
314
290
328
416
460
386
248
193
291
441
492
399
281
257
313
334
243
100
7
-3
5
-22
-61
-49
23
100
144
176
233
295
316
286
275
336
434
476
439
384
390
458
514
507
461
435
463
501
499
453
430
478
567
603
542
452
425
478
532
511
429
364
347
337
283
199
132
88
13
-136
-335
-514
-629
-694
-763
-877
-1000
-1051
-964
-759
-530
-358
-229
-89
81
231
314
371
491
689
873
954
957
1013
1190
1402
1501
1420
1244
1117
1105
1145
1142
1072
1005
1009
1078
1148
1170
1142
1080
982
850
728
680
709
741
712
670
739
958
1195
1274
1177
1067
1097
1229
1303
1227
1088
1036
1106
1208
1259
1272
1304
1353
1374
1365
1376
1446
1533
1565
1542
1554
1662
1805
1852
1753
1603
1538
1592
1678
1691
1625
1551
1552
1661
1844
2027
2133
2135
2086
2076
2129
2179
2152
2066
2014
2060
2182
2307
2383
2405
2408
2426
2479
2545
2566
2499
2381
2307
2349
2497
2690
2871
3026
3159
3265
3345
3414
3468
3475
3395
3229
3039
2910
2903
3002
3119
3153
3089
3022
3067
3211
3328
3317
3224
3168
3163
3103
2929
2752
2732
2857
2933
2814
2581
2441
2479
2576
2558
2404
2241
2185
2228
2281
2285
2252
2228
2235
2254
2258
2236
2197
2175
2202
2288
2414
2547
2650
2700
2689
2634
2577
2544
2515
2436
2271
2075
1956
1973
2060
2089
1999
1887
1897
2042
2190
2224
2187
2239
2440
2657
2708
2580
2442
2440
2530
2544
2401
2189
2054
2049
2127
2222
2295
2313
2248
2126
2042
2075
2191
2257
2183
2033
1947
1985
2066
2073
1972
1835
1744
1710
1696
1662
1595
1504
1398
1290
1194
1114
1056
1041
1099
1231
1390
1525
1652
1820
2035
2227
2332
2403
2566
2875
3234
3490
3606
3701
3896
4160
4326
4281
4093
3935
3911
3976
4025
4025
4040
4140
4308
4463
4552
4599
4661
4750
4818
4818
4758
4708
4721
4785
4829
4795
4691
4572
4494
4472
4473
4456
4399
4322
4260
4230
4199
4112
3952
3773
3649
3601
3583
3543
3481
3433
3410
3375
3296
3190
3088
2982
2819
2588
2365
2243
2217
2178
2026
1802
1642
1612
1629
1551
1356
1160
1080
1108
1135
1093
1016
982
1007
1041
1036
992
931
867
797
728
672
648
659
685
698
676
628
597
608
638
642
604
568
576
615
635
604
553
535
552
565
549
534
559
626
692
718
702
665
619
558
492
456
470
508
518
488
484
570
709
785
725
598
532
566
605
539
379
239
191
186
130
1
-129
-188
-186
-176
-191
-211
-203
-159
-108
-83
-101
-154
-218
-282
-343
-406
-460
-489
-502
-530
-590
-644
-638
-570
-504
-505
-573
-634
-621
-532
-416
-334
-313
-331
-308
-282
-194
-127
-118
-143
-148
-127
-128
-171
-201
-148
-44
-4
-79
-170
-142
-4
77
-27
-232
-336
-264
-149
-161
-304
-434
-458
-446
-531
-726
-922
-1019
-1048
-1117
-1276
-1467
-1591
-1641
-1704
-1859
-2058
-2155
-2046
-1795
-1567
-1452
-1380
-1235
-1029
-899
-925
-1007
-975
-781
-536
-351
-199
14
300
550
656
623
530
424
291
145
50
58
146
229
253
250
276
327
341
269
135
4
-76
-103
-96
-75
-72
-128
-261
-433
-579
-684
-796
-953
-1125
-1239
-1263
-1241
-1239
-1262
-1259
-1198
-1096
-988
-894
-808
-728
-667
-632
-624
-642
-675
-696
-683
-631
-570
-535
-527
-522
-498
-467
-472
-548
-686
-839
-940
-948
-888
-832
-843
-924
-1025
-1094
-1127
-1154
-1192
-1230
-1254
-1259
-1246
-1208
-1145
-1088
-1079
-1131
-1206
-1251
-1246
-1226
-1233
-1263
-1279
-1257
-1204
-1160
-1145
-1148
-1147
-1134
-1127
-1141
-1167
-1178
-1153
-1096
-1027
-963
-900
-826
-740
-663
-612
-593
-585
-561
-509
-448
-414
-422
-450
-465
-455
-439
-427
-398
-332
-256
-224
-245
-258
-196
-64
46
51
-40
-142
-183
-170
-153
-171
-216
-255
-255
-194
-77
68
189
249
249
220
192
169
131
62
-35
-142
-233
-287
-294
-258
-199
-133
-70
-9
47
95
132
159
178
195
209
210
185
135
79
45
45
59
45
-17
-98
-139
-115
-57
-18
-7
17
82
158
192
175
160
184
212
176
63
-62
-126
-127
-134
-195
-298
-405
-505
-621
-767
-930
-1083
-1189
-1210
-1126
-963
-786
-621
-427
-161
125
299
291
199
206
382
619
750
736
697
765
949
1122
1153
1028
842
698
634
599
521
402
310
315
413
530
582
547
473
414
389
386
388
379
339
266
192
172
217
254
188
23
-116
-99
64
222
231
111
7
30
147
242
256
244
296
416
504
471
330
204
194
248
205
-19
-317
-492
-474
-386
-391
-507
-592
-538
-407
-338
-376
-426
-393
-323
-352
-531
-768
-910
-901
-816
-774
-809
-861
-865
-799
-682
-538
-410
-381
-509
-714
-785
-591
-244
-46
-180
-509
-713
-625
-406
-364
-617
-990
-1219
-1207
-1056
-902
-763
-560
-269
25
213
281
318
374
388
266
23
-190
-230
-116
4
30
31
139
361
544
565
482
469
581
708
723
652
629
726
878
986
1033
1067
1112
1115
1044
942
889
919
1001
1090
1164
1215
1240
1251
1271
1308
1332
1316
1273
1244
1228
1190
1123
1084
1127
1218
1265
1239
1225
1323
1509
1640
1622
1513
1459
1522
1627
1663
1618
1568
1585
1632
1639
1588
1545
1562
1610
1619
1563
1499
1476
1486
1476
1425
1364
1318
1269
1188
1092
1031
1010
965
842
673
543
487
449
367
252
140
14
-184
-441
-669
-821
-975
-1230
-1559
-1789
-1796
-1618
-1395
-1209
-1033
-836
-647
-512
-403
-260
-103
-19
-59
-156
-168
-40
145
248
206
58
-106
-218
-271
-305
-381
-520
-673
-739
-669
-516
-417
-451
-558
-616
-586
-559
-630
-761
-826
-771
-704
-756
-905
-990
-931
-831
-847
-977
-1083
-1084
-1057
-1116
-1248
-1325
-1290
-1234
-1267
-1363
-1388
-1279
-1141
-1103
-1178
-1266
-1294
-1274
-1256
-1255
-1243
-1238
-1295
-1420
-1530
-1534
-1451
-1407
-1497
-1664
-1756
-1696
-1590
-1579
-1682
-1772
-1743
-1645
-1613
-1696
-1785
-1757
-1622
-1500
-1472
-1489
-1482
-1461
-1479
-1505
-1455
-1329
-1276
-1420
-1661
-1729
-1501
-1194
-1137
-1383
-1643
-1614
-1320
-1055
-1046
-1207
-1276
-1114
-835
-633
-595
-644
-663
-627
-583
-551
-502
-424
-360
-359
-408
-410
-325
-219
-226
-366
-520
-553
-472
-405
-437
-501
-485
-367
-255
-247
-328
-402
-406
-365
-356
-408
-494
-547
-513
-390
-237
-124
-74
-38
54
198
312
318
229
127
76
78
90
96
107
142
200
300
454
610
661
570
444
438
578
705
672
508
399
460
618
733
753
722
687
636
564
515
524
563
573
539
501
522
621
769
890
911
816
703
695
793
863
774
568
409
386
420
386
275
167
52
-157
-485
-810
-1006
-1117
-1276
-1487
-1572
-1362
-937
-557
-366
-277
-126
99
247
215
96
58
149
265
314
344
475
702
870
841
650
472
400
364
266
132
87
172
287
327
306
314
381
424
365
232
142
154
224
275
273
238
202
186
192
222
253
241
175
96
59
79
121
137
115
79
43
11
-13
-19
-1
7
-41
-144
-228
-229
-165
-125
-174
-259
-274
-170
-9
95
102
51
-18
-90
-184
-295
-398
-479
-555
-634
-694
-709
-680
-634
-600
-584
-576
-577
-588
-599
-590
-565
-547
-555
-573
-567
-512
-414
-303
-209
-144
-100
-66
-34
-4
23
53
87
108
111
113
156
251
360
437
481
528
589
641
662
679
740
826
873
866
875
966
1105
1191
1170
1102
1078
1114
1141
1117
1084
1106
1176
1237
1252
1262
1311
1380
1403
1346
1271
1255
1308
1363
1356
1303
1263
1273
1319
1372
1432
1504
1569
1598
1591
1592
1630
1676
1681
1626
1556
1541
1595
1668
1726
1775
1860
1999
2161
2291
2358
2382
2401
2437
2476
2484
2452
2414
2421
2501
2616
2697
2712
2715
2783
2904
2979
2926
2805
2754
2803
2835
2738
2578
2538
2677
2854
2903
2847
2865
3034
3221
3267
3190
3142
3182
3171
2958
2594
2298
2198
2197
2124
1955
1849
1953
2227
2487
2588
2566
2560
2653
2818
2975
3101
3221
3363
3531
3734
3993
4269
4449
4443
4291
4132
4045
3961
3789
3582
3502
3616
3781
3809
3697
3625
3706
3827
3775
3501
3190
3068
3165
3319
3383
3381
3433
3566
3669
3631
3476
3326
3250
3186
3034
2807
2633
2603
2660
2670
2575
2446
2367
2336
2291
2210
2129
2089
2087
2099
2115
2129
2098
1982
1789
1606
1520
1505
1452
1293
1105
1028
1107
1241
1288
1235
1184
1203
1224
1109
847
590
482
502
481
304
48
-104
-56
104
213
201
146
161
265
369
396
359
340
401
509
569
534
462
468
592
750
834
834
830
862
876
815
745
801
987
1118
1022
778
667
851
1177
1346
1237
1027
962
1091
1273
1371
1382
1386
1424
1481
1531
1572
1610
1639
1654
1667
1697
1745
1804
1880
1977
2076
2143
2163
2151
2145
2163
2190
2211
2233
2284
2385
2507
2598
2631
2633
2652
2700
2736
2714
2638
2563
2537
2573
2650
2746
2840
2919
2965
2983
2997
3030
3073
3086
3041
2947
2838
