-613
-627
-623
-600
-585
-605
-652
-698
-724
-744
-778
-823
-854
-848
-817
-794
-802
-824
-815
-738
-602
-448
-320
-237
-197
-204
-285
-465
-746
-1097
-1468
-1808
-2082
-2277
-2395
-2443
-2423
-2335
-2189
-2017
-1856
-1726
-1625
-1560
-1532
-1524
-1498
-1425
-1330
-1246
-1168
-1054
-883
-667
-393
16
626
1385
2126
2700
3084
3316
3372
3182
2762
2249
1766
1284
682
-65
-802
-1348
-1673
-1897
-2134
-2379
-2546
-2564
-2417
-2122
-1725
-1333
-1071
-974
-957
-893
-763
-669
-720
-890
-1042
-1063
-963
-832
-733
-659
-594
-582
-682
-877
-1072
-1176
-1179
-1135
-1088
-1046
-1010
-994
-1011
-1047
-1071
-1073
-1066
-1061
-1053
-1038
-1029
-1045
-1083
-1121
-1135
-1118
-1075
-1016
-964
-944
-966
-1010
-1044
-1063
-1099
-1182
-1286
-1347
-1319
-1223
-1133
-1091
-1071
-1011
-886
-754
-711
-816
-1005
-1138
-1136
-1071
-1094
-1229
-1275
-973
-293
480
1024
1307
1582
2046
2564
2804
2599
2121
1676
1398
1198
971
751
640
659
725
764
784
821
859
837
731
593
502
497
556
642
727
791
828
843
852
878
918
944
931
898
889
934
1005
1037
998
909
823
777
768
772
774
775
793
838
894
921
902
873
915
1056
1224
1288
1190
1007
868
819
784
656
421
159
-32
-114
-121
-110
-125
-187
-292
-407
-505
-579
-644
-721
-814
-918
-1031
-1139
-1215
-1231
-1200
-1169
-1180
-1222
-1237
-1170
-1027
-868
-750
-677
-611
-519
-413
-341
-333
-370
-391
-350
-258
-170
-133
-138
-143
-128
-111
-118
-148
-166
-155
-137
-145
-180
-217
-235
-245
-262
-276
-267
-233
-202
-196
-195
-147
-33
94
143
74
-53
-126
-89
13
69
33
-32
-25
84
225
310
322
303
277
233
164
108
104
131
133
100
102
205
378
513
547
510
462
404
290
120
-22
-67
-28
22
62
152
355
640
904
1066
1147
1215
1295
1349
1334
1266
1212
1233
1319
1428
1539
1672
1828
1924
1878
1717
1586
1570
1564
1394
1086
903
1055
1429
1700
1729
1751
2074
2678
3214
3405
3329
3268
3338
3399
3288
3033
2785
2622
2499
2366
2242
2158
2083
1955
1778
1606
1469
1339
1182
1022
890
780
664
552
483
452
399
283
158
99
84
-3
-230
-491
-595
-491
-335
-325
-479
-629
-636
-542
-507
-615
-793
-921
-965
-998
-1092
-1237
-1366
-1428
-1453
-1518
-1671
-1884
-2081
-2212
-2311
-2453
-2676
-2928
-3124
-3237
-3313
-3415
-3557
-3702
-3815
-3905
-4009
-4151
-4324
-4504
-4676
-4847
-5025
-5206
-5368
-5492
-5588
-5687
-5799
-5878
-5873
-5792
-5708
-5677
-5676
-5631
-5507
-5350
-5221
-5129
-5035
-4923
-4824
-4762
-4701
-4600
-4477
-4395
-4376
-4358
-4260
-4084
-3909
-3798
-3735
-3650
-3510
-3341
-3179
-3026
-2855
-2647
-2397
-2107
-1794
-1507
-1311
-1216
-1165
-1088
-967
-850
-786
-767
-745
-671
-524
-307
-44
213
400
502
576
711
926
1160
1336
1438
1529
1671
1862
2046
2163
2193
2165
2121
2079
2028
1956
1877
1824
1828
1863
1880
1842
1766
1690
1639
1623
1664
1779
1952
2108
2168
2123
2054
2052
2117
2181
2187
2127
1983
1680
1173
551
-32
-548
-1148
-1931
-2694
-3023
-2713
-1999
-1299
-760
-169
659
1558
2158
2324
2283
2300
2337
2167
1744
1326
1188
1303
1385
1219
851
481
228
69
-60
-187
-306
-414
-502
-551
-568
-594
-677
-829
-1010
-1179
-1325
-1438
-1496
-1497
-1499
-1579
-1737
-1871
-1891
-1832
-1827
-1959
-2147
-2230
-2141
-1987
-1922
-1975
-2022
-1947
-1764
-1587
-1485
-1407
-1277
-1099
-960
-913
-912
-880
-827
-828
-909
-995
-974
-831
-669
-579
-548
-498
-399
-312
-293
-311
-299
-245
-225
-307
-446
-525
-470
-324
-200
-166
-205
-260
-273
-205
-31
233
536
807
1006
1138
1217
1229
1140
942
664
363
91
-106
-196
-167
-47
95
195
235
251
284
323
328
285
254
335
568
906
1273
1637
1996
2276
2328
2045
1481
819
216
-303
-783
-1217
-1491
-1508
-1284
-941
-593
-261
76
389
597
649
603
589
671
783
820
785
829
1085
1499
1851
1964
1881
1795
1840
1980
2077
2050
1944
1857
1853
1924
2013
2046
1982
1850
1747
1752
1843
1916
1892
1807
1770
1831
1940
2023
2064
2099
2144
2163
2140
2122
2157
2196
2123
1904
1660
1538
1510
1396
1102
796
737
966
1242
1331
1305
1449
1884
2400
2685
2672
2591
2653
2816
2871
2710
2448
2274
2238
2234
2155
2000
1834
1687
1540
1384
1245
1147
1063
959
839
743
699
678
630
554
501
491
486
438
353
284
249
208
113
-19
-126
-169
-176
-193
-226
-247
-239
-216
-208
-214
-205
-163
-106
-90
-152
-255
-329
-333
-307
-333
-453
-608
-717
-762
-793
-853
-940
-1014
-1052
-1073
-1104
-1156
-1206
-1233
-1245
-1267
-1316
-1379
-1397
-1341
-1240
-1170
-1182
-1257
-1333
-1363
-1348
-1320
-1319
-1377
-1476
-1512
-1387
-1105
-822
-706
-743
-769
-674
-534
-506
-631
-785
-830
-767
-693
-662
-643
-600
-554
-541
-546
-516
-443
-377
-378
-443
-514
-519
-436
-303
-208
-209
-270
-296
-227
-127
-108
-211
-326
-320
-176
-6
61
13
-47
-16
117
273
358
334
230
130
115
181
249
245
219
315
615
1023
1373
1607
1816
2075
2287
2311
2182
2136
2343
2683
2872
2796
2664
2747
3061
3356
3406
3246
3093
3096
3211
3294
3291
3277
3326
3431
3519
3547
3529
3480
3388
3228
2999
2720
2409
2083
1814
1713
1831
2057
2202
2217
2276
2589
3124
3597
3740
3583
3383
3318
3324
3216
2948
2651
2473
2409
2349
2220
2059
1925
1802
1640
1425
1198
1012
870
740
602
466
354
283
250
230
204
178
174
205
247
256
215
137
36
-95
-243
-354
-372
-331
-336
-444
-584
-625
-540
-443
-466
-609
-770
-858
-883
-907
-976
-1094
-1238
-1363
-1440
-1486
-1571
-1748
-1976
-2145
-2192
-2202
-2318
-2566
-2807
-2889
-2820
-2771
-2878
-3087
-3217
-3164
-3017
-2970
-3101
-3297
-3387
-3322
-3218
-3210
-3301
-3380
-3357
-3250
-3151
-3118
-3130
-3138
-3121
-3090
-3065
-3046
-3028
-3004
-2962
-2882
-2767
-2632
-2492
-2350
-2205
-2058
-1911
-1765
-1637
-1563
-1562
-1600
-1617
-1573
-1491
-1429
-1416
-1403
-1316
-1122
-874
-673
-584
-586
-589
-520
-397
-307
-314
-387
-433
-397
-315
-268
-292
-354
-405
-429
-446
-470
-494
-509
-519
-519
-495
-434
-347
-267
-214
-186
-174
-175
-178
-171
-148
-123
-128
-174
-233
-260
-242
-220
-239
-307
-383
-442
-496
-577
-685
-787
-857
-905
-961
-1040
-1115
-1137
-1105
-1087
-1174
-1380
-1592
-1674
-1640
-1678
-1952
-2371
-2635
-2551
-2270
-2129
-2267
-2462
-2399
-2038
-1649
-1503
-1590
-1702
-1694
-1620
-1606
-1693
-1811
-1902
-1973
-2067
-2201
-2350
-2484
-2598
-2706
-2823
-2953
-3071
-3156
-3220
-3285
-3351
-3397
-3413
-3426
-3470
-3542
-3597
-3603
-3579
-3552
-3514
-3444
-3347
-3267
-3227
-3190
-3107
-2982
-2866
-2791
-2720
-2599
-2441
-2310
-2237
-2185
-2093
-1963
-1848
-1772
-1710
-1628
-1539
-1466
-1410
-1338
-1245
-1164
-1113
-1070
-1012
-970
-1008
-1137
-1299
-1440
-1581
-1766
-1964
-2082
-2065
-1963
-1867
-1794
-1678
-1477
-1238
-1058
-995
-1025
-1086
-1130
-1133
-1102
-1054
-1007
-955
-862
-704
-502
-313
-182
-118
-100
-104
-115
-122
-119
-112
-113
-139
-190
-243
-263
-238
-190
-172
-222
-329
-430
-483
-501
-522
-551
-559
-538
-529
-576
-658
-718
-738
-777
-902
-1088
-1234
-1270
-1233
-1227
-1306
-1430
-1521
-1552
-1558
-1594
-1687
-1823
-1961
-2057
-2089
-2086
-2110
-2199
-2331
-2430
-2454
-2436
-2443
-2496
-2543
-2533
-2473
-2421
-2420
-2459
-2495
-2508
-2509
-2525
-2577
-2656
-2734
-2781
-2788
-2786
-2821
-2908
-3004
-3059
-3066
-3062
-3076
-3100
-3112
-3098
-3061
-3011
-2983
-3040
-3228
-3505
-3758
-3920
-4054
-4257
-4502
-4614
-4458
-4119
-3824
-3693
-3602
-3355
-2936
-2544
-2365
-2380
-2416
-2358
-2249
-2177
-2156
-2144
-2134
-2169
-2251
-2316
-2303
-2255
-2266
-2370
-2504
-2584
-2594
-2582
-2589
-2605
-2622
-2662
-2729
-2778
-2756
-2669
-2593
-2591
-2636
-2658
-2642
-2647
-2721
-2827
-2876
-2841
-2778
-2753
-2760
-2747
-2699
-2658
-2659
-2686
-2696
-2688
-2705
-2772
-2857
-2905
-2907
-2895
-2905
-2932
-2953
-2955
-2958
-2985
-3036
-3099
-3162
-3228
-3311
-3408
-3492
-3527
-3506
-3466
-3458
-3482
-3485
-3419
-3300
-3201
-3174
-3195
-3210
-3196
-3180
-3179
-3169
-3113
-3021
-2947
-2913
-2871
-2765
-2620
-2527
-2537
-2591
-2575
-2438
-2253
-2118
-2062
-2011
-1887
-1679
-1451
-1287
-1221
-1215
-1204
-1156
-1098
-1078
-1116
-1170
-1178
-1112
-1002
-910
-881
-922
-996
-1045
-1030
-981
-967
-1022
-1094
-1095
-1003
-911
-929
-1062
-1201
-1250
-1221
-1188
-1174
-1137
-1046
-933
-851
-800
-739
-662
-627
-685
-814
-951
-1049
-1105
-1121
-1085
-1004
-934
-928
-971
-999
-965
-895
-867
-912
-995
-1045
-1021
-938
-856
-832
-885
-984
-1076
-1128
-1143
-1150
-1176
-1225
-1270
-1277
-1217
-1104
-1003
-964
-959
-924
-844
-807
-900
-1097
-1288
-1429
-1605
-1896
-2197
-2279
-2036
-1635
-1349
-1249
-1139
-807
-298
137
310
266
178
130
83
0
-79
-119
-164
-291
-488
-652
-713
-740
-861
-1118
-1416
-1645
-1787
-1912
-2064
-2208
-2288
-2306
-2317
-2367
-2442
-2498
-2521
-2527
-2531
-2536
-2547
-2588
-2667
-2748
-2777
-2738
-2684
-2668
-2685
-2689
-2667
-2657
-2690
-2742
-2761
-2741
-2738
-2797
-2888
-2947
-2955
-2958
-2999
-3070
-3126
-3150
-3166
-3206
-3262
-3308
-3335
-3361
-3413
-3495
-3577
-3622
-3613
-3568
-3532
-3534
-3563
-3572
-3526
-3434
-3353
-3327
-3346
-3357
-3315
-3223
-3124
-3054
-3016
-2980
-2910
-2797
-2661
-2539
-2456
-2409
-2352
-2245
-2091
-1934
-1812
-1722
-1626
-1502
-1369
-1256
-1172
-1101
-1041
-1012
-1025
-1058
-1071
-1058
-1051
-1081
-1140
-1190
-1210
-1195
-1158
-1112
-1067
-1045
-1063
-1109
-1153
-1170
-1171
-1193
-1252
-1317
-1334
-1288
-1221
-1195
-1229
-1275
-1277
-1236
-1205
-1229
-1282
-1298
-1245
-1159
-1098
-1075
-1054
-1010
-954
-918
-906
-905
-909
-940
-1014
-1091
-1119
-1093
-1072
-1113
-1194
-1239
-1205
-1135
-1099
-1115
-1133
-1116
-1081
-1069
-1077
-1064
-1014
-952
-912
-886
-845
-794
-760
-741
-713
-694
-774
-1007
-1303
-1491
-1529
-1573
-1794
-2124
-2286
-2088
-1648
-1258
-1046
-866
-519
-22
412
636
708
774
869
906
830
704
626
610
579
485
353
241
161
86
-1
-91
-170
-227
-251
-242
-219
-223
-272
-340
-391
-431
-497
-585
-636
-602
-515
-453
-449
-452
-402
-315
-266
-293
-361
-413
-441
-475
-519
-534
-494
-429
-396
-418
-455
-465
-457
-483
-569
-686
-772
-800
-806
-843
-916
-979
-1005
-1029
-1117
-1279
-1451
-1554
-1588
-1632
-1754
-1918
-2026
-2030
-1993
-2016
-2125
-2238
-2258
-2177
-2079
-2047
-2069
-2062
-1973
-1834
-1721
-1668
-1645
-1598
-1515
-1431
-1370
-1316
-1239
-1129
-1014
-933
-889
-850
-776
-664
-549
-471
-433
-392
-303
-163
-32
30
14
-28
-31
22
91
123
103
72
80
139
208
226
186
132
112
127
132
86
10
-35
-19
34
65
46
0
-33
-34
-13
9
28
45
59
66
65
80
140
235
314
323
270
234
287
419
540
569
507
431
409
439
474
471
429
373
322
290
284
298
310
289
226
151
104
94
80
23
-64
-127
-126
-92
-86
-119
-145
-138
-162
-314
-586
-848
-1002
-1118
-1348
-1704
-1976
-1938
-1611
-1251
-1057
-947
-681
-169
412
810
959
1004
1085
1181
1189
1097
1000
977
978
892
696
500
407
378
273
28
-258
-433
-467
-470
-536
-625
-623
-506
-378
-350
-413
-465
-463
-473
-573
-744
-891
-951
-953
-962
-1002
-1034
-1028
-994
-971
-979
-1004
-1018
-1005
-975
-945
-931
-937
-955
-984
-1027
-1091
-1165
-1225
-1247
-1239
-1236
-1265
-1319
-1361
-1364
-1342
-1330
-1342
-1360
-1358
-1341
-1339
-1370
-1420
-1460
-1484
-1508
-1555
-1621
-1685
-1714
-1680
-1577
-1437
-1323
-1286
-1311
-1325
-1269
-1168
-1105
-1125
-1178
-1168
-1056
-897
-770
-693
-618
-512
-394
-310
-275
-258
-220
-154
-80
-16
39
103
181
258
315
354
397
455
505
502
433
352
322
349
370
322
209
101
52
55
68
61
38
21
19
31
40
21
-26
-74
-75
2
149
350
601
892
1170
1346
1363
1253
1105
975
839
652
425
232
138
134
154
144
95
16
-88
-213
-337
-424
-452
-435
-392
-324
-222
-97
5
30
-25
-122
-216
-284
-315
-296
-230
-139
-38
80
250
490
744
919
964
934
947
1045
1103
900
338
-419
-1050
-1343
-1367
-1356
-1417
-1410
-1119
-506
232
854
1267
1535
1734
1860
1879
1807
1713
1640
1581
1510
1447
1446
1511
1570
1544
1431
1322
1319
1443
1627
1802
1957
2104
2206
2180
1981
1655
1303
987
696
414
177
63
122
331
612
889
1121
1287
1370
1351
1223
997
697
360
29
-253
-462
-608
-716
-806
-869
-899
-913
-953
-1035
-1125
-1175
-1182
-1190
-1243
-1345
-1466
-1564
-1613
-1609
-1585
-1606
-1717
-1883
-2002
-2021
-1987
-1994
-2059
-2109
-2089
-2036
-2027
-2069
-2115
-2148
-2209
-2309
-2363
-2273
-2061
-1850
-1724
-1636
-1485
-1253
-1010
-811
-633
-448
-281
-176
-112
-15
146
306
377
346
282
254
268
281
274
261
262
278
290
286
263
234
205
170
121
61
-1
-59
-125
-208
-308
-407
-494
-582
-691
-819
-938
-1016
-1045
-1049
-1054
-1069
-1093
-1126
-1165
-1191
-1182
-1145
-1112
-1115
-1151
-1200
-1258
-1339
-1427
-1448
-1332
-1092
-818
-600
-445
-295
-107
96
239
266
189
77
11
24
96
195
311
444
572
655
685
714
788
879
908
841
745
720
792
882
915
918
965
1056
1091
973
740
543
474
444
286
-23
-281
-257
59
437
677
831
1118
1640
2235
2657
2824
2855
2887
2932
2928
2854
2743
2613
2444
2222
1983
1775
1611
1471
1348
1254
1178
1096
995
902
853
851
852
811
723
629
574
581
623
649
617
526
414
320
263
233
212
180
126
58
-2
-36
-57
-96
-174
-272
-355
-406
-433
-451
-466
-479
-497
-529
-585
-675
-801
-947
-1087
-1199
-1285
-1358
-1414
-1427
-1385
-1318
-1283
-1309
-1369
-1407
-1387
-1316
-1230
-1173
-1163
-1184
-1187
-1141
-1065
-1019
-1042
-1106
-1147
-1131
-1079
-1026
-975
-903
-798
-676
-563
-473
-410
-385
-404
-449
-492
-517
-521
-504
-458
-391
-331
-302
-295
-280
-251
-232
-245
-274
-285
-270
-255
-263
-282
-278
-241
-197
-180
-198
-235
-267
-273
-250
-219
-211
-233
-247
-207
-117
-37
-15
-26
-5
73
163
212
234
291
406
532
612
655
722
843
978
1071
1116
1161
1238
1337
1425
1488
1540
1596
1656
1718
1774
1812
1817
1794
1775
1785
1820
1843
1838
1835
1875
1952
2013
2012
1963
1916
1897
1869
1793
1681
1586
1535
1501
1443
1367
1317
1301
1278
1226
1171
1140
1080
896
584
269
68
-66
-293
-647
-930
-899
-545
-121
141
283
531
997
1533
1896
1993
1940
1892
1891
1874
1787
1639
1463
1278
1086
884
672
447
208
-19
-201
-334
-435
-521
-585
-610
-600
-601
-658
-778
-922
-1039
-1112
-1163
-1219
-1276
-1321
-1358
-1411
-1486
-1538
-1519
-1443
-1389
-1416
-1488
-1511
-1451
-1371
-1359
-1422
-1491
-1519
-1536
-1592
-1678
-1734
-1741
-1747
-1806
-1902
-1972
-1991
-2001
-2056
-2157
-2261
-2333
-2384
-2437
-2496
-2543
-2571
-2589
-2604
-2613
-2609
-2600
-2599
-2605
-2599
-2563
-2505
-2454
-2429
-2414
-2367
-2264
-2119
-1972
-1851
-1759
-1679
-1589
-1474
-1347
-1244
-1196
-1185
-1134
-994
-803
-655
-600
-593
-560
-497
-461
-468
-455
-359
-211
-97
-51
-16
77
214
308
310
244
164
98
46
10
-8
-29
-80
-147
-191
-204
-230
-303
-378
-383
-329
-312
-394
-491
-457
-269
-68
-6
-65
-97
0
157
242
219
180
212
282
298
229
151
162
267
381
422
388
344
348
403
468
511
525
517
507
523
588
691
777
790
733
682
711
815
916
952
934
915
929
964
989
988
955
898
842
830
868
924
968
1005
1038
1022
901
685
457
256
11
-359
-790
-1085
-1112
-945
-734
-486
-61
609
1372
2007
2452
2824
3199
3464
3458
3201
2896
2717
2647
2552
2367
2158
2021
1970
1939
1868
1748
1599
1454
1346
1295
1283
1266
1213
1142
1100
1099
1100
1044
917
769
673
666
723
778
779
718
638
586
570
545
466
328
175
59
-7
-37
-55
-88
-160
-276
-398
-470
-481
-492
-579
-748
-916
-1004
-1016
-1034
-1120
-1256
-1375
-1438
-1470
-1521
-1609
-1714
-1798
-1838
-1838
-1819
-1807
-1811
-1815
-1797
-1757
-1724
-1729
-1771
-1818
-1839
-1829
-1803
-1768
-1723
-1676
-1637
-1595
-1522
-1399
-1253
-1142
-1092
-1069
-1019
-934
-861
-839
-853
-858
-830
-788
-760
-741
-707
-646
-582
-542
-529
-523
-519
-531
-569
-615
-637
-641
-668
-742
-827
-860
-826
-784
-793
-844
-875
-862
-847
-884
-961
-1018
-1030
-1037
-1093
-1183
-1240
-1223
-1163
-1117
-1106
-1096
-1047
-963
-882
-839
-834
-834
-809
-765
-731
-728
-725
-675
-569
-458
-393
-366
-322
-234
-138
-91
-105
-133
-136
-123
-126
-149
-156
-132
-98
-91
-116
-145
-150
-147
-167
-219
-267
-273
-242
-233
-281
-346
-349
-276
-242
-399
-740
-1071
-1218
-1260
-1450
-1888
-2329
-2417
-2091
-1665
-1457
-1423
-1237
-719
-74
347
426
354
365
469
525
445
282
123
-15
-167
-337
-498
-646
-820
-1041
-1268
-1441
-1544
-1602
-1643
-1665
-1664
-1651
-1658
-1695
-1740
-1758
-1743
-1723
-1731
-1759
-1763
-1729
-1683
-1661
-1651
-1620
-1558
-1515
-1538
-1603
-1641
-1619
-1578
-1579
-1625
-1668
-1673
-1653
-1622
-1567
-1482
-1422
-1447
-1543
-1621
-1620
-1587
-1618
-1732
-1845
-1874
-1828
-1780
-1773
-1786
-1783
-1769
-1771
-1797
-1841
-1894
-1939
-1950
-1909
-1842
-1787
-1747
-1683
-1562
-1425
-1341
-1321
-1307
-1241
-1135
-1040
-969
-889
-784
-677
-584
-481
-341
-199
-118
-110
-98
-14
113
190
165
97
72
114
170
189
190
219
282
330
319
276
267
318
367
316
135
-92
-235
-237
-170
-155
-240
-356
-395
-316
-187
-117
-148
-243
-320
-327
-269
-197
-158
-160
-170
-142
-64
38
122
172
193
195
185
173
181
227
295
352
382
412
467
539
592
604
593
591
601
596
556
497
456
450
470
488
490
485
488
508
537
567
593
622
658
689
702
706
723
756
780
777
774
797
812
722
488
211
28
-61
-219
-553
-924
-1047
-799
-377
-66
80
277
712
1296
1760
1952
1962
1966
2018
2041
1978
1865
1766
1685
1576
1419
1251
1113
995
850
661
459
298
210
165
117
59
22
21
3
-94
-255
-369
-353
-257
-210
-284
-405
-448
-372
-258
-199
-222
-286
-354
-411
-445
-444
-420
-411
-450
-516
-548
-516
-451
-419
-454
-523
-570
-569
-552
-573
-646
-745
-824
-876
-924
-995
-1084
-1165
-1221
-1253
-1272
-1278
-1268
-1242
-1210
-1174
-1132
-1091
-1060
-1041
-1020
-984
-938
-902
-870
-816
-730
-633
-555
-502
-448
-368
-277
-198
-148
-121
-93
-46
26
102
144
137
124
168
291
425
485
468
454
517
633
723
741
710
673
647
632
640
677
712
693
617
546
543
592
604
528
405
327
334
366
340
239
134
99
126
138
80
-23
-92
-91
-59
-50
-68
-74
-44
-1
25
40
74
132
176
186
194
251
359
467
543
599
666
752
832
888
919
925
897
844
791
751
700
618
543
540
612
667
621
512
475
578
727
778
704
631
672
789
846
798
731
735
761
668
417
145
-4
-64
-211
-510
-791
-804
-508
-122
131
280
536
1000
1523
1874
1993
2017
2094
2206
2238
2149
2025
1960
1951
1930
1880
1847
1855
1829
1680
1418
1156
999
940
884
774
650
588
607
654
669
648
635
656
683
672
614
555
540
562
558
483
373
329
395
514
581
568
558
642
802
936
971
934
901
911
944
967
965
927
844
749
710
769
877
927
875
788
767
839
946
1023
1059
1077
1080
1045
967
874
815
815
862
919
954
963
988
1090
1285
1504
1658
1714
1733
1798
1925
2048
2100
2078
2023
1976
1944
1938
1980
2066
2140
2145
2096
2072
2111
2137
2036
1802
1565
1465
1487
1495
1404
1290
1287
1419
1559
1572
1439
1233
1001
727
414
150
41
105
254
390
509
668
890
1118
1261
1277
1188
1044
878
713
574
493
482
515
555
578
599
647
719
780
786
730
652
601
592
600
594
580
587
631
684
717
719
721
759
825
877
876
816
732
669
647
645
636
615
610
648
715
764
756
703
658
655
683
702
687
648
607
595
634
707
755
695
520
327
220
171
46
-216
-461
-453
-144
247
485
588
792
1239
1792
2177
2297
2288
2325
2425
2488
2458
2386
2333
2282
2185
2043
1917
1855
1838
1806
1717
1570
1406
1293
1264
1279
1251
1133
981
893
897
926
903
837
803
830
856
809
695
594
566
587
587
540
485
480
543
633
694
705
691
696
735
787
815
803
758
703
654
618
594
570
530
471
409
362
328
291
246
202
163
117
68
52
100
186
233
194
115
89
155
261
326
332
322
340
391
464
550
642
713
743
751
792
898
1035
1136
1169
1165
1179
1232
1297
1340
1350
1345
1348
1374
1419
1460
1468
1433
1381
1351
1346
1330
1266
1172
1110
1116
1158
1168
1117
1052
1029
1042
1028
941
809
709
698
758
818
821
767
712
709
756
799
780
690
580
508
489
485
454
396
338
308
301
303
307
316
325
319
301
312
392
528
649
687
653
610
604
605
555
437
297
200
166
167
171
179
208
262
324
366
376
362
345
332
324
312
306
316
344
393
460
539
604
626
618
621
656
664
571
410
351
538
909
1240
1388
1436
1552
1742
1822
1659
1358
1154
1149
1241
1314
1408
1651
2061
2499
2819
3005
3118
3163
3082
2867
2613
2422
2304
2189
2033
1876
1789
1793
1828
1811
1711
1580
1508
1533
1600
1615
1555
1506
1562
1685
1728
1603
1403
1308
1399
1569
1649
1582
1451
1360
1333
1317
1269
1189
1101
1017
946
901
885
880
856
806
747
695
650
594
525
453
386
316
232
133
33
-51
-114
-161
-201
-230
-241
-231
-205
-178
-169
-185
-216
-246
-270
-291
-317
-341
-349
-329
-282
-224
-162
-92
-6
91
179
234
249
242
246
275
315
339
345
357
408
499
601
677
710
717
723
742
760
752
702
622
543
492
472
464
445
417
393
389
405
428
442
440
425
403
374
338
300
265
234
197
142
70
3
-34
-38
-32
-41
-66
-81
-59
2
72
115
121
113
125
167
214
229
203
172
183
250
343
426
498
582
689
786
831
815
775
752
752
746
713
671
655
684
742
794
813
802
777
753
731
697
634
555
491
473
503
550
573
548
496
469
487
497
398
148
-165
-398
-510
-612
-821
-1078
-1183
-1005
-647
-322
-100
150
562
1077
1494
1706
1800
1905
2016
2016
1860
1648
1514
1463
1375
1173
913
715
613
531
400
239
123
86
77
45
12
31
100
136
64
-83
-187
-174
-107
-109
-222
-362
-418
-379
-334
-371
-480
-582
-625
-636
-671
-747
-817
-835
-800
-741
-695
-665
-636
-592
-542
-518
-549
-638
-758
-857
-902
-910
-932
-1004
-1106
-1178
-1181
-1148
-1159
-1259
-1417
-1553
-1625
-1668
-1740
-1844
-1909
-1864
-1719
-1569
-1497
-1496
-1495
-1439
-1360
-1323
-1354
-1410
-1424
-1371
-1277
-1176
-1089
-1030
-1016
-1037
-1037
-966
-840
-739
-724
-757
-737
-609
-434
-317
-310
-366
-405
-394
-360
-342
-349
-366
-379
-389
-401
-419
-442
-462
-477
-491
-517
-568
-638
-698
-734
-754
-784
-838
-915
-1007
-1111
-1213
-1281
-1291
-1261
-1246
-1278
-1326
-1333
-1285
-1240
-1254
-1319
-1373
-1378
-1365
-1386
-1455
-1527
-1551
-1525
-1485
-1474
-1489
-1496
-1456
-1362
-1247
-1155
-1104
-1082
-1066
-1046
-1025
-1009
-1004
-1015
-1043
-1067
-1060
-1019
-971
-941
-921
-890
-849
-833
-863
-918
-949
-944
-932
-937
-945
-918
-848
-779
-738
-712
-671
-645
-728
-966
-1279
-1530
-1687
-1877
-2216
-2609
-2793
-2614
-2221
-1913
-1801
-1686
-1308
-670
-46
318
439
510
662
844
944
920
814
664
483
283
95
-68
-235
-428
-624
-782
-890
-971
-1042
-1097
-1135
-1180
-1251
-1336
-1403
-1432
-1440
-1445
-1450
-1449
-1458
-1501
-1572
-1634
-1651
-1641
-1653
-1709
-1779
-1824
-1838
-1844
-1863
-1894
-1929
-1969
-2020
-2073
-2111
-2130
-2148
-2182
-2224
-2250
-2249
-2240
-2247
-2280
-2330
-2384
-2442
-2504
-2567
-2620
-2660
-2691
-2712
-2726
-2732
-2729
-2713
-2682
-2635
-2580
-2532
-2492
-2453
-2400
-2329
-2239
-2143
-2051
-1969
-1881
-1757
-1582
-1372
-1178
-1036
-932
-831
-720
-632
-604
-620
-624
-585
-529
-489
-444
-338
-151
51
181
227
254
314
386
410
365
292
241
220
210
205
218
245
266
269
271
283
290
264
211
175
186
219
219
170
117
110
142
151
92
-13
-100
-129
-118
-116
-145
-184
-190
-144
-61
16
49
35
14
37
109
179
187
139
114
175
291
369
365
332
359
456
543
553
506
476
493
503
449
356
303
339
428
497
521
537
592
678
748
765
735
695
663
631
605
613
667
716
652
441
189
34
-38
-200
-556
-938
-1024
-705
-231
58
132
286
762
1436
1966
2169
2190
2266
2449
2610
2649
2594
2514
2408
2252
2073
1931
1834
1723
1562
1400
1290
1230
1172
1094
1031
1004
985
938
871
826
819
824
808
774
757
773
806
825
820
798
774
765
784
831
879
880
809
702
639
672
764
807
731
583
490
520
598
588
442
247
128
102
84
-12
-164
-284
-323
-316
-335
-402
-480
-522
-517
-500
-504
-534
-560
-558
-533
-518
-525
-529
-498
-432
-363
-320
-297
-262
-194
-91
23
122
187
228
286
399
557
704
784
804
830
909
1030
1147
1227
1273
1299
1305
1297
1291
1304
1331
1347
1335
1308
1296
1315
1357
1385
1377
1334
1281
1234
1190
1137
1083
1050
1050
1057
1037
989
955
972
1021
1046
1005
911
821
785
808
858
894
898
890
902
950
1013
1058
1065
1044
1013
986
977
990
1025
1062
1079
1085
1112
1170
1225
1236
1207
1197
1256
1369
1470
1512
1511
1519
1560
1604
1594
1505
1366
1237
1159
1120
1081
1026
978
970
999
1028
1027
1010
1013
1028
1009
950
901
900
881
727
431
141
-10
-89
-293
-664
-954
-883
-480
-83
68
120
413
1043
1723
2118
2205
2231
2369
2535
2558
2410
2216
2061
1916
1728
1523
1372
1282
1192
1071
950
853
770
682
610
596
625
616
523
402
350
406
502
545
509
446
402
377
349
314
306
352
444
539
601
615
595
558
515
454
371
273
179
111
71
54
63
117
213
300
308
217
88
10
10
11
-83
-273
-450
-502
-440
-378
-404
-486
-520
-469
-393
-355
-339
-266
-104
87
210
231
199
188
245
367
525
684
813
899
945
959
934
859
733
564
374
202
100
114
260
508
785
1022
1197
1347
1520
1724
1902
1980
1963
1948
2037
2235
2437
2546
2559
2544
2542
2516
2405
2219
2030
1894
1797
1695
1591
1565
1685
1925
2168
2314
2374
2440
2579
2749
2839
2787
2635
2484
2391
2334
2268
2191
2137
2130
2138
2122
2085
2068
2101
2150
2136
2025
1867
1754
1733
1773
1805
1799
1774
1754
1728
1684
1636
1606
1590
1555
1483
1395
1321
1260
1189
1104
1021
955
885
785
653
521
432
406
438
511
592
640
650
653
673
655
497
166
-232
-533
-698
-849
-1099
-1372
-1448
-1210
-792
-442
-237
-17
394
948
1412
1628
1667
1708
1811
1877
1814
1673
1578
1561
1530
1388
1165
979
894
850
740
528
285
106
22
-20
-80
-170
-253
-286
-260
-204
-146
-96
-36
49
150
235
274
262
226
198
184
159
90
-34
-159
-220
-202
-149
-126
-154
-202
-251
-316
-421
-539
-606
-600
-583
-632
-751
-865
-911
-913
-954
-1079
-1242
-1365
-1401
-1366
-1303
-1240
-1177
-1099
-993
-864
-750
-697
-711
-754
-773
-746
-701
-666
-628
-551
-413
-242
-87
33
138
255
375
464
512
552
617
698
761
794
817
859
919
978
1028
1074
1110
1132
1136
1125
1101
1064
1029
1034
1086
1131
1103
1000
913
926
1019
1079
1037
955
955
1075
1225
1296
1280
1251
1255
1244
1158
1020
916
877
837
733
600
548
618
726
763
735
719
752
786
773
746
764
814
832
797
768
800
864
905
923
961
1009
983
838
654
551
545
523
390
198
92
141
274
365
367
314
264
229
198
171
154
138
102
56
44
105
224
323
327
253
195
215
247
146
-135
-459
-642
-671
-710
-881
-1049
-946
-503
20
299
298
284
496
866
1107
1037
756
504
423
488
607
712
770
770
733
712
747
809
819
733
591
476
458
538
662
773
846
893
955
1052
1161
1237
1263
1272
1316
1395
1457
1456
1408
1385
1430
1507
1546
1520
1474
1464
1493
1508
1484
1448
1437
1450
1461
1458
1463
1481
1476
1412
1303
1193
1110
1043
976
922
913
938
957
940
894
835
765
672
561
457
381
342
337
363
419
496
573
632
663
670
667
665
666
668
659
630
589
554
555
608
683
725
701
642
618
664
736
750
683
590
535
523
517
495
470
460
457
439
407
376
346
295
205
80
-64
-204
-321
-386
-394
-371
-342
-301
-232
-155
-124
-170
-256
-311
-331
-383
-514
-672
-761
-747
-685
-648
-648
-640
-594
-534
-499
-498
-508
-502
-465
-402
-335
-282
-238
-178
-85
14
69
61
20
-11
-17
-9
18
85
190
302
392
462
526
580
603
588
556
532
500
439
351
280
257
262
259
240
233
249
256
213
122
32
2
47
116
135
52
-114
-288
-401
-462
-558
-753
-983
-1096
-1001
-779
-585
-479
-360
-100
287
651
869
956
1023
1134
1242
1254
1114
847
515
181
-125
-408
-685
-949
-1158
-1268
-1285
-1256
-1224
-1203
-1205
-1259
-1387
-1548
-1671
-1731
-1773
-1847
-1939
-1976
-1933
-1868
-1841
-1848
-1833
-1773
-1699
-1653
-1634
-1604
-1548
-1482
-1436
-1421
-1446
-1511
-1618
-1752
-1904
-2057
-2187
-2271
-2302
-2293
-2269
-2240
-2200
-2150
-2097
-2044
-2001
-1985
-1995
-2010
-1987
-1921
-1865
-1872
-1929
-1967
-1942
-1865
-1761
-1641
-1530
-1495
-1579
-1696
-1681
-1465
-1186
-1049
-1109
-1218
-1208
-1059
-884
-784
-762
-783
-824
-859
-838
-749
-658
-644
-705
-744
-684
-572
-509
-536
-585
-576
-510
-446
-422
-413
-384
-349
-347
-411
-546
-724
-907
-1048
-1126
-1168
-1228
-1307
-1343
-1284
-1182
-1164
-1298
-1521
-1707
-1820
-1933
-2122
-2347
-2498
-2529
-2505
-2507
-2548
-2592
-2621
-2672
-2778
-2927
-3070
-3185
-3273
-3336
-3365
-3362
-3359
-3383
-3435
-3483
-3516
-3549
-3606
-3691
-3774
-3834
-3853
-3819
-3731
-3617
-3538
-3548
-3627
-3685
-3650
-3551
-3494
-3555
-3694
-3797
-3800
-3749
-3717
-3734
-3774
-3816
-3876
-3949
-3984
-3932
-3831
-3796
-3876
-3986
-3988
-3876
-3825
-3989
-4298
-4516
-4519
-4452
-4530
-4731
-4786
-4502
-4041
-3736
-3686
-3636
-3298
-2714
-2207
-2000
-1982
-1891
-1634
-1342
-1168
-1115
-1089
-1043
-1019
-1055
-1135
-1222
-1314
-1435
-1589
-1744
-1853
-1874
-1811
-1711
-1650
-1667
-1719
-1731
-1683
-1635
-1666
-1784
-1931
-2038
-2084
-2083
-2055
-2013
-1963
-1904
-1820
-1717
-1635
-1626
-1692
-1766
-1783
-1759
-1774
-1870
-1995
-2060
-2051
-2046
-2116
-2234
-2311
-2310
-2287
-2313
-2397
-2480
-2517
-2527
-2549
-2592
-2637
-2675
-2731
-2833
-2966
-3072
-3099
-3047
-2964
-2900
-2859
-2812
-2749
-2707
-2734
-2839
-2981
-3122
-3266
-3412
-3521
-3529
-3423
-3260
-3108
-2973
-2810
-2606
-2406
-2274
-2230
-2249
-2295
-2336
-2328
-2236
-2063
-1857
-1667
-1497
-1338
-1212
-1169
-1235
-1368
-1510
-1645
-1794
-1948
-2057
-2071
-2007
-1929
-1872
-1812
-1715
-1602
-1532
-1548
-1626
-1707
-1750
-1759
-1766
-1793
-1839
-1880
-1882
-1842
-1802
-1811
-1874
-1930
-1914
-1830
-1758
-1764
-1824
-1850
-1800
-1729
-1726
-1807
-1878
-1830
-1654
-1457
-1357
-1363
-1368
-1276
-1126
-1048
-1118
-1264
-1340
-1280
-1145
-1031
-954
-870
-767
-697
-710
-798
-911
-1027
-1176
-1369
-1559
-1674
-1682
-1616
-1525
-1432
-1334
-1220
-1115
-1052
-1037
-1050
-1073
-1139
-1295
-1520
-1715
-1818
-1909
-2135
-2501
-2792
-2770
-2473
-2200
-2173
-2257
-2094
-1528
-812
-345
-263
-347
-309
-90
149
247
190
63
-67
-175
-245
-262
-248
-269
-377
-569
-796
-999
-1152
-1266
-1371
-1497
-1642
-1761
-1810
-1790
-1746
-1707
-1669
-1618
-1575
-1591
-1675
-1771
-1811
-1776
-1724
-1719
-1772
-1832
-1849
-1813
-1753
-1707
-1688
-1692
-1716
-1759
-1809
-1836
-1813
-1743
-1660
-1599
-1565
-1558
-1585
-1658
-1751
-1816
-1835
-1857
-1947
-2086
-2174
-2132
-1997
-1887
-1865
-1881
-1846
-1734
-1615
-1552
-1545
-1538
-1485
-1387
-1267
-1141
-1029
-942
-874
-789
-653
-482
-347
-300
-315
-294
-167
28
173
193
128
91
151
273
372
421
460
529
619
700
806
1010
1299
1527
1534
1324
1079
959
928
808
509
146
-85
-114
-33
52
135
254
378
423
374
325
361
431
402
228
21
-86
-74
-50
-94
-179
-231
-231
-214
-201
-168
-89
12
84
111
109
101
93
89
111
173
261
350
431
503
550
538
467
381
332
320
301
258
216
209
229
250
279
335
389
371
256
138
144
283
413
399
284
245
398
646
773
696
555
543
667
709
492
91
-237
-378
-512
-892
-1477
-1899
-1852
-1447
-1084
-983
-935
-558
227
1099
1676
1885
1952
2092
2292
2406
2351
2167
1945
1748
1600
1498
1408
1279
1090
893
750
671
620
563
503
447
377
281
190
173
255
384
473
482
452
453
503
556
552
471
347
218
109
37
-4
-29
-68
-129
-168
-130
-15
120
216
269
321
379
394
322
197
101
76
63
-16
-151
-228
-131
132
437
651
729
711
637
501
281
-9
-312
-564
-732
-801
-748
-572
-315
-57
144
294
423
530
593
609
611
628
648
664
711
842
1042
1216
1288
1280
1291
1384
1521
1628
1683
1732
1810
1902
1969
2011
2064
2146
2227
2268
2272
2279
2307
2319
2266
2154
2048
2004
2016
2034
2034
2058
2158
2320
2468
2533
2513
2456
2389
2300
2177
2046
1959
1933
1943
1964
2009
2113
2264
2396
2451
2448
2468
2556
2658
2681
2620
2586
2695
2948
3217
3373
3426
3511
3747
4106
4432
4596
4626
4681
4874
5138
5300
5293
5236
5273
5398
5470
5418
5345
5396
5533
5586
5478
5326
5290
5353
5359
5251
5159
5204
5293
5232
4996
4777
4753
4864
4905
4780
4556
4314
4062
3797
3558
3339
3014
2498
1966
1787
2133
2725
3121
3221
3376
3923
4756
5420
5611
5481
5387
5481
5629
5650
5546
5441
5396
5343
5198
4963
4699
4446
4200
3949
3706
3512
3409
3406
3472
3548
3596
3601
3559
3468
3345
3225
3147
3108
3074
3019
2950
2892
2851
2801
2722
2629
2563
2550
2570
2589
2582
2555
2537
2551
2584
2584
2501
2347
2196
2119
2116
2119
2065
1962
1869
1824
1803
1750
1654
1555
1494
1454
1380
1266
1179
1192
1296
1384
1363
1242
1123
1083
1108
1125
1083
997
920
894
933
1022
1123
1201
1257
1325
1432
1558
1658
1715
1752
1805
1872
1927
1973
2040
2143
2246
2309
2334
2362
2405
2432
2408
2348
2298
2275
2246
2178
2087
2031
2043
2103
2163
2204
2237
2273
2308
2330
2338
2333
2299
2225
2129
2055
2025
2009
1961
1873
1793
1776
1817
1859
1859
1824
1796
1796
1804
1791
1760
1750
1782
1832
1858
1853
1856
1906
1992
2060
2076
2076
2120
2208
2280
2287
2254
2250
2300
2356
2356
2303
2257
2253
2270
2270
2254
2239
2228
2202
2161
2135
2150
2180
2167
2089
1985
1913
1896
1909
1921
1909
1869
1827
1809
1811
1760
1564
1224
881
678
583
418
111
-144
-72
351
836
1094
1170
1369
1852
2429
2774
2805
2722
2740
2847
2883
2776
2605
2465
2344
2165
1907
1627
1390
1203
1047
920
829
774
748
746
773
813
831
794
704
592
491
423
390
382
376
356
326
313
339
402
467
491
462
406
356
326
303
267
225
205
222
257
275
265
248
241
237
225
221
249
297
313
267
206
224
342
462
470
371
300
374
547
670
668
628
684
850
1005
1054
1045
1106
1265
1416
1447
1388
1374
1477
1621
1684
1645
1607
1670
1815
1943
1993
2004
2054
2170
2312
2426
2506
2587
2697
2823
2923
2976
3000
3030
3071
3088
3048
2958
2875
2835
2819
2779
2690
2586
2522
2502
2475
2385
2242
2117
2065
2070
2069
2024
1956
1912
1898
1874
1799
1681
1562
1470
1390
1294
1187
1107
1078
1082
1072
1027
965
923
905
889
850
787
715
649
599
587
624
691
736
732
719
763
877
988
1008
940
877
896
976
1024
991
918
872
871
873
850
821
811
815
802
758
710
692
708
726
714
676
642
640
683
756
804
758
590
368
204
124
9
-273
-684
-988
-976
-686
-361
-165
-9
318
867
1445
1826
1971
2013
2072
2131
2125
2044
1938
1828
1681
1482
1284
1155
1084
973
754
474
262
201
247
275
210
86
-10
-34
-26
-45
-103
-166
-202
-199
-150
-43
106
235
283
252
203
185
174
113
-6
-124
-170
-139
-91
-74
-73
-50
-9
-6
-75
-182
-247
-236
-188
-183
-255
-369
-466
-516
-540
-584
-675
-808
-940
-1010
-969
-830
-676
-594
-605
-634
-587
-454
-317
-257
-273
-290
-243
-141
-43
21
73
149
257
366
445
480
488
507
565
653
739
782
792
815
878
974
1066
1127
1140
1092
990
872
788
758
733
654
518
393
352
403
499
588
632
613
534
449
436
519
616
611
491
350
283
275
230
102
-40
-103
-68
-16
-29
-118
-222
-272
-247
-198
-217
-347
-523
-607
-530
-365
-258
-272
-339
-368
-364
-403
-517
-643
-706
-712
-728
-783
-828
-807
-716
-605
-526
-516
-597
-749
-896
-954
-907
-836
-844
-930
-996
-964
-877
-853
-965
-1153
-1296
-1325
-1278
-1256
-1328
-1456
-1518
-1427
-1246
-1171
-1347
-1686
-1939
-1971
-1921
-2034
-2339
-2579
-2509
-2192
-1909
-1823
-1787
-1565
-1132
-700
-473
-438
-433
-353
-236
-172
-199
-297
-425
-552
-666
-768
-876
-996
-1109
-1192
-1254
-1325
-1401
-1452
-1462
-1465
-1496
-1528
-1495
-1373
-1233
-1166
-1189
-1244
-1270
-1268
-1271
-1291
-1311
-1311
-1285
-1224
-1114
-966
-825
-741
-728
-748
-768
-786
-826
-891
-960
-1007
-1019
-998
-945
-870
-804
-797
-872
-999
-1115
-1194
-1262
-1357
-1469
-1538
-1525
-1457
-1409
-1429
-1492
-1538
-1532
-1492
-1454
-1438
-1448
-1473
-1501
-1510
-1488
-1447
-1423
-1436
-1466
-1461
-1390
-1269
-1149
-1067
-1018
-977
-930
-880
-833
-791
-753
-727
-705
-662
-574
-459
-380
-381
-426
-428
-350
-251
-230
-302
-373
-336
-196
-69
-60
-162
-276
-317
-286
-242
-228
-247
-283
-322
-353
-362
-359
-371
-434
-539
-634
-675
-656
-607
-551
-484
-406
-344
-330
-352
-363
-333
-296
-307
-365
-399
-348
-231
-125
-70
-20
83
229
343
366
317
261
230
212
194
181
177
170
148
135
168
249
320
317
236
138
89
97
114
93
35
-9
10
84
159
186
160
140
177
242
233
61
-246
-544
-722
-828
-1021
-1367
-1723
-1846
-1650
-1295
-991
-777
-511
-95
381
733
890
938
986
1039
1044
999
964
965
945
839
659
467
285
68
-214
-510
-735
-862
-937
-1009
-1056
-1031
-944
-868
-868
-927
-964
-931
-862
-829
-855
-888
-857
-759
-665
-641
-679
-718
-719
-706
-714
-729
-697
-598
-482
-411
-386
-363
-323
-302
-344
-437
-521
-556
-563
-585
-636
-695
-741
-767
-781
-788
-798
-819
-852
-885
-905
-920
-945
-979
-992
-964
-896
-803
-704
-613
-543
-486
-415
-310
-195
-123
-123
-158
-155
-76
47
147
193
208
241
322
441
548
598
580
538
529
571
615
595
511
423
388
406
417
364
256
161
136
177
231
249
223
180
147
133
135
152
181
191
150
58
-32
-61
-23
30
35
-28
-126
-199
-216
-198
-200
-262
-360
-422
-399
-321
-257
-237
-218
-140
-10
89
87
4
-67
-56
20
93
123
138
188
276
364
422
451
463
445
384
316
317
423
576
680
699
698
753
850
901
838
696
579
552
584
603
594
604
670
771
853
890
881
800
616
360
124
-36
-187
-422
-698
-828
-696
-411
-198
-108
47
458
1070
1623
1934
2060
2179
2368
2562
2673
2685
2654
2625
2607
2587
2547
2442
2217
1841
1345
802
298
-106
-394
-600
-767
-904
-961
-878
-662
-408
-234
-195
-250
-307
-318
-319
-374
-484
-583
-598
-527
-444
-422
-468
-538
-594
-634
-674
-724
-775
-809
-809
-770
-700
-637
-615
-628
-631
-589
-532
-524
-593
-690
-743
-737
-728
-776
-866
-931
-930
-894
-880
-906
-937
-929
-873
-794
-720
-660
-608
-552
-480
-398
-329
-296
-294
-293
-260
-194
-118
-57
-19
6
37
91
170
254
307
307
284
305
407
559
696
782
836
897
973
1021
1005
933
843
765
698
624
535
448
383
346
332
327
314
278
223
167
126
106
94
70
27
-25
-64
-84
-101
-147
-236
-341
-396
-341
-183
5
156
276
434
670
931
1115
1170
1147
1148
1215
1313
1386
1440
1527
1689
1897
2078
2198
2278
2342
2369
2308
2147
1952
1837
1851
1956
2082
2191
2287
2391
2512
2668
2867
3088
3274
3382
3446
3552
3745
3970
4108
4091
3981
3901
3900
3874
3676
3298
2908
2676
2558
2354
1985
1639
1592
1883
2250
2446
2530
2762
3248
3801
4165
4290
4335
4412
4445
4319
4066
3846
3743
3674
3505
3220
2935
2747
2619
2441
2172
1888
1705
1647
1634
1577
1466
1365
1311
1269
1180
1043
924
882
905
945
968
986
1014
1047
1063
1048
1010
955
877
774
669
594
562
550
526
482
433
396
367
341
319
295
252
164
34
-106
-231
-344
-472
-636
-825
-1009
-1162
-1268
-1325
-1347
-1359
-1378
-1398
-1407
-1405
-1414
-1453
-1522
-1601
-1669
-1722
-1754
-1758
-1732
-1695
-1679
-1694
-1719
-1712
-1653
-1566
-1497
-1467
-1453
-1405
-1298
-1165
-1055
-995
-954
-881
-759
-625
-534
-500
-486
-443
-360
-271
-215
-195
-187
-180
-188
-231
-308
-389
-437
-438
-399
-345
-294
-241
-163
-47
83
176
204
193
195
237
305
372
429
475
510
539
582
666
787
896
942
927
900
896
910
915
915
940
1003
1072
1102
1093
1103
1183
1313
1414
1428
1376
1334
1355
1413
1444
1416
1357
1316
1309
1311
1290
1238
1174
1120
1084
1054
1009
947
885
853
855
875
883
852
790
741
748
802
799
638
343
61
-99
-209
-441
-815
-1104
-1058
-698
-300
-73
81
411
982
1579
1957
2095
2164
2284
2414
2457
2399
2305
2206
2079
1913
1747
1612
1479
1290
1047
814
648
545
459
364
265
177
100
26
-46
-106
-149
-185
-219
-250
-280
-312
-348
-379
-399
-427
-483
-560
-616
-618
-595
-613
-693
-777
-792
-738
-694
-726
-811
-871
-876
-877
-943
-1075
-1207
-1288
-1334
-1399
-1504
-1616
-1690
-1724
-1754
-1803
-1857
-1887
-1888
-1886
-1913
-1965
-2009
-2010
-1970
-1927
-1916
-1937
-1944
-1887
-1760
-1610
-1498
-1442
-1408
-1346
-1240
-1121
-1032
-991
-980
-959
-906
-834
-760
-689
-615
-531
-446
-379
-332
-288
-228
-152
-85
-49
-42
-35
0
66
152
253
368
482
564
577
513
403
290
182
54
-117
-308
-450
-485
-414
-294
-189
-121
-71
-9
72
147
194
202
181
150
126
126
166
245
350
456
549
634
715
802
897
1001
1114
1231
1329
1392
1428
1464
1532
1638
1748
1807
1799
1774
1805
1906
2001
2008
1940
1903
1974
2109
2185
2139
2042
1999
2017
2000
1876
1697
1593
1634
1769
1879
1923
1968
2090
2253
2306
2141
1841
1603
1514
1434
1183
817
634
862
1380
1838
2052
2204
2580
3199
3785
4079
4107
4089
4157
4247
4254
4175
4077
3975
3813
3575
3339
3196
3132
3033
2814
2514
2250
2103
2041
1973
1852
1707
1596
1534
1480
1398
1300
1225
1181
1135
1057
957
866
799
747
692
639
599
564
509
425
331
249
186
134
87
40
-10
-70
-143
-218
-286
-357
-452
-575
-708
-821
-899
-960
-1028
-1117
-1223
-1330
-1423
-1494
-1543
-1577
-1610
-1646
-1675
-1682
-1670
-1661
-1676
-1712
-1736
-1728
-1700
-1687
-1694
-1686
-1626
-1523
-1429
-1374
-1330
-1245
-1119
-1016
-995
-1033
-1047
-983
-875
-796
-773
-760
-700
-591
-478
-405
-377
-373
-373
-365
-345
-322
-323
-366
-422
-437
-382
-298
-255
-275
-314
-316
-283
-257
-268
-301
-330
-356
-395
-448
-503
-558
-618
-678
-707
-692
-667
-680
-732
-785
-815
-853
-939
-1049
-1109
-1084
-1016
-981
-1006
-1049
-1064
-1046
-1019
-1008
-1021
-1054
-1084
-1073
-995
-874
-771
-728
-730
-732
-716
-702
-714
-741
-742
-695
-611
-527
-456
-384
-300
-221
-206
-295
-455
-574
-565
-445
-317
-274
-299
-286
-178
-43
-29
-218
-532
-804
-955
-1059
-1233
-1453
-1544
-1356
-945
-533
-265
-56
293
833
1374
1666
1667
1574
1608
1795
1970
1974
1807
1590
1425
1304
1159
967
765
581
410
234
68
-31
-25
53
122
119
58
6
3
23
12
-47
-108
-124
-115
-154
-280
-432
-503
-457
-385
-415
-581
-778
-876
-838
-751
-738
-852
-1044
-1209
-1277
-1251
-1187
-1145
-1154
-1209
-1285
-1353
-1398
-1432
-1489
-1597
-1745
-1885
-1969
-1992
-1987
-1987
-2004
-2037
-2092
-2172
-2262
-2328
-2346
-2330
-2322
-2358
-2429
-2488
-2497
-2462
-2434
-2453
-2508
-2557
-2565
-2530
-2467
-2394
-2324
-2280
-2273
-2284
-2281
-2255
-2234
-2248
-2292
-2322
-2305
-2248
-2189
-2157
-2156
-2171
-2188
-2199
-2206
-2224
-2261
-2310
-2350
-2366
-2368
-2381
-2422
-2473
-2510
-2520
-2513
-2508
-2509
-2510
-2500
-2480
-2453
-2425
-2402
-2391
-2387
-2373
-2325
-2243
-2159
-2111
-2099
-2081
-2016
-1912
-1817
-1760
-1723
-1662
-1557
-1424
-1284
-1144
-1005
-876
-754
-611
-418
-193
-7
91
134
209
361
535
642
661
659
709
819
929
996
1032
1082
1158
1228
1248
1212
1156
1112
1083
1039
960
870
816
832
890
914
883
856
904
982
936
677
319
63
-53
-226
-626
-1110
-1337
-1156
-813
-655
-708
-652
-240
386
870
1052
1091
1193
1344
1387
1268
1087
933
761
490
152
-123
-259
-329
-457
-669
-906
-1090
-1199
-1257
-1294
-1337
-1403
-1491
-1574
-1625
-1633
-1607
-1564
-1525
-1511
-1538
-1595
-1638
-1630
-1577
-1522
-1495
-1497
-1497
-1480
-1451
-1422
-1393
-1370
-1360
-1366
-1368
-1341
-1287
-1239
-1228
-1245
-1251
-1231
-1216
-1250
-1338
-1438
-1502
-1527
-1554
-1618
-1715
-1801
-1828
-1782
-1694
-1620
-1598
-1624
-1652
-1634
-1559
-1472
-1426
-1437
-1466
-1453
-1380
-1285
-1205
-1145
-1080
-999
-920
-861
-810
-736
-641
-569
-545
-545
-527
-485
-455
-453
-445
-391
-309
-256
-250
-249
-206
-135
-87
-86
-113
-147
-184
-221
-238
-231
-220
-227
-224
-162
-32
97
164
183
205
245
257
209
139
111
133
141
89
9
-23
28
124
201
242
269
308
353
380
390
410
455
500
513
505
539
664
847
990
1031
1014
1033
1120
1219
1252
1210
1155
1146
1182
1228
1266
1305
1353
1396
1410
1392
1358
1325
1301
1278
1257
1262
1312
1392
1452
1448
1392
1352
1394
1489
1522
1388
1107
826
666
577
381
-8
-437
-624
-450
-108
107
124
180
537
1160
1747
2049
2106
2142
2287
2457
2509
2422
2282
2151
2013
1841
1675
1564
1486
1361
1154
925
774
736
740
693
569
434
366
375
395
358
282
244
288
366
392
346
293
304
371
425
427
409
423
472
516
532
538
567
618
655
661
663
696
746
763
715
636
596
626
667
638
531
424
383
387
345
227
107
66
84
63
-40
-133
-99
60
216
252
195
164
221
308
331
275
212
215
286
383
472
556
646
738
818
869
887
875
850
838
854
885
917
962
1048
1187
1335
1434
1468
1482
1523
1589
1629
1614
1560
1511
1495
1501
1493
1443
1348
1248
1196
1213
1259
1268
1219
1145
1094
1067
1032
969
891
819
752
686
639
643
696
755
776
756
733
741
780
823
835
804
750
714
730
781
814
791
747
754
847
988
1104
1164
1204
1274
1364
1409
1369
1270
1185
1150
1135
1103
1058
1055
1122
1217
1272
1268
1244
1236
1236
1210
1146
1080
1058
1089
1145
1207
1274
1338
1343
1223
983
733
563
439
221
-125
-414
-401
-58
371
647
806
1094
1624
2204
2560
2633
2609
2650
2716
2678
2523
2358
2252
2155
2002
1818
1676
1590
1488
1318
1119
961
870
813
747
655
546
444
382
368
358
298
197
133
155
204
168
34
-78
-42
119
260
283
249
294
469
677
788
771
704
686
743
828
882
883
857
840
852
886
927
960
977
978
978
1007
1083
1178
1248
1284
1313
1351
1377
1357
1307
1269
1256
1237
1208
1230
1358
1559
1727
1814
1883
2012
2172
2272
2293
2321
2441
2614
2727
2744
2750
2830
2958
3044
3059
3062
3122
3226
3317
3358
3351
3299
3196
3061
2935
2822
2684
2500
2330
2266
2307
2344
2282
2157
2095
2140
2190
2113
1908
1711
1635
1656
1660
1584
1478
1419
1418
1420
1380
1309
1242
1196
1156
1116
1087
1082
1081
1046
964
864
787
745
709
655
593
554
548
551
527
472
417
390
391
387
352
297
260
267
297
307
278
233
206
200
193
171
143
118
83
22
-54
-104
-100
-64
-42
-58
-99
-130
-141
-148
-164
-184
-208
-267
-410
-645
-906
-1103
-1240
-1425
-1737
-2088
-2262
-2146
-1857
-1614
-1475
-1281
-868
-307
161
382
428
470
562
620
572
449
329
229
119
-1
-91
-140
-201
-332
-512
-677
-793
-886
-992
-1097
-1168
-1214
-1280
-1379
-1466
-1490
-1456
-1422
-1426
-1450
-1453
-1425
-1396
-1392
-1404
-1407
-1394
-1375
-1362
-1349
-1328
-1294
-1252
-1212
-1185
-1179
-1204
-1260
-1336
-1408
-1454
-1479
-1511
-1573
-1653
-1721
-1773
-1829
-1907
-1984
-2017
-1995
-1945
-1891
-1816
-1690
-1524
-1374
-1285
-1248
-1218
-1167
-1112
-1078
-1060
-1021
-930
-786
-621
-480
-383
-325
-277
-220
-157
-111
-89
-73
-19
100
264
413
492
496
466
457
481
500
474
406
349
352
412
474
491
464
430
418
409
366
283
194
134
99
51
-26
-107
-152
-157
-163
-212
-307
-406
-474
-516
-563
-632
-700
-737
-742
-749
-785
-843
-889
-903
-905
-931
-990
-1055
-1086
-1074
-1049
-1042
-1060
-1078
-1081
-1069
-1053
-1038
-1030
-1052
-1124
-1230
-1320
-1354
-1346
-1351
-1399
-1461
-1492
-1478
-1447
-1421
-1396
-1368
-1357
-1381
-1419
-1428
-1392
-1352
-1361
-1416
-1458
-1436
-1357
-1285
-1259
-1249
-1208
-1145
-1149
-1289
-1506
-1660
-1702
-1751
-1951
-2244
-2366
-2131
-1669
-1285
-1091
-881
-403
287
866
1121
1174
1293
1553
1782
1829
1766
1778
1913
2039
2027
1901
1789
1753
1743
1694
1601
1509
1460
1458
1488
1528
1556
1562
1555
1545
1531
1501
1456
1416
1398
1393
1372
1328
1285
1263
1254
1227
1166
1088
1017
953
875
771
654
550
469
402
336
268
194
108
0
-126
-256
-381
-512
-659
-822
-982
-1114
-1207
-1272
-1330
-1400
-1483
-1567
-1638
-1696
-1750
-1803
-1847
-1867
-1859
-1831
-1793
-1754
-1726
-1719
-1737
-1758
-1752
-1698
-1607
-1513
-1441
-1386
-1316
-1207
-1070
-949
-884
-877
-894
-897
-875
-842
-821
-820
-823
-820
-802
-776
-756
-755
-774
-807
-846
-895
-959
-1037
-1117
-1190
-1257
-1318
-1368
-1392
-1389
-1372
-1359
-1362
-1383
-1423
-1480
-1545
-1609
-1663
-1711
-1750
-1773
-1772
-1753
-1735
-1736
-1746
-1753
-1761
-1782
-1815
-1826
-1786
-1711
-1652
-1636
-1628
-1568
-1435
-1272
-1138
-1051
-982
-900
-804
-722
-678
-678
-709
-752
-790
-816
-834
-844
-841
-817
-773
-721
-669
-620
-574
-544
-554
-612
-692
-744
-737
-681
-614
-580
-572
-544
-471
-393
-403
-546
-760
-946
-1096
-1299
-1599
-1865
-1884
-1599
-1205
-946
-841
-656
-186
486
1063
1336
1374
1401
1537
1707
1773
1687
1513
1326
1147
962
768
583
423
296
205
126
32
-72
-136
-122
-63
-58
-163
-314
-390
-350
-281
-282
-344
-364
-294
-217
-243
-361
-449
-419
-332
-320
-423
-547
-589
-558
-536
-562
-590
-575
-541
-540
-562
-546
-469
-393
-398
-483
-585
-671
-768
-903
-1049
-1152
-1211
-1273
-1358
-1411
-1368
-1236
-1104
-1054
-1092
-1150
-1157
-1100
-1034
-1021
-1062
-1081
-1003
-838
-689
-638
-664
-667
-591
-489
-447
-479
-508
-462
-349
-231
-137
-48
58
156
200
189
169
178
205
212
176
116
66
41
30
17
-18
-94
-218
-367
-499
-586
-648
-729
-849
-976
-1060
-1094
-1118
-1173
-1263
-1355
-1416
-1449
-1482
-1533
-1590
-1620
-1606
-1566
-1548
-1590
-1681
-1764
-1796
-1785
-1782
-1829
-1917
-1998
-2027
-1993
-1929
-1885
-1892
-1951
-2023
-2057
-2030
-1975
-1952
-1989
-2056
-2090
-2063
-2014
-2004
-2043
-2077
-2060
-2010
-1990
-2030
-2076
-2060
-1981
-1911
-1908
-1946
-1954
-1905
-1837
-1799
-1784
-1745
-1665
-1567
-1476
-1389
-1321
-1333
-1480
-1706
-1891
-1998
-2144
-2450
-2826
-2991
-2766
-2298
-1913
-1752
-1610
-1197
-496
199
606
725
781
941
1160
1298
1295
1210
1111
1011
890
753
620
481
305
97
-99
-238
-320
-387
-463
-538
-588
-614
-638
-680
-727
-746
-730
-715
-746
-833
-938
-1004
-1015
-1007
-1035
-1110
-1191
-1228
-1222
-1222
-1275
-1384
-1510
-1615
-1692
-1748
-1798
-1859
-1945
-2054
-2165
-2246
-2288
-2313
-2353
-2432
-2551
-2686
-2801
-2862
-2871
-2878
-2928
-3013
-3078
-3082
-3046
-3019
-3017
-3012
-2977
-2921
-2865
-2804
-2710
-2586
-2475
-2415
-2389
-2343
-2246
-2117
-2006
-1931
-1858
-1743
-1590
-1447
-1359
-1320
-1274
-1181
-1059
-957
-901
-860
-774
-621
-439
-295
-229
-225
-227
-194
-138
-111
-145
-214
-255
-233
-168
-111
-82
-53
-7
24
6
-43
-70
-45
-12
-38
-129
-218
-240
-210
-194
-236
-309
-351
-338
-302
-290
-313
-341
-345
-322
-305
-322
-377
-449
-494
-482
-422
-358
-328
-329
-324
-288
-231
-190
-183
-206
-251
-309
-358
-374
-352
-318
-300
-290
-262
-214
-182
-198
-256
-325
-385
-438
-482
-504
-506
-503
-479
-393
-245
-107
-60
-102
-156
-192
-289
-505
-772
-965
-1090
-1283
-1580
-1784
-1653
-1219
-798
-631
-597
-364
204
883
1352
1526
1591
1733
1955
2137
2206
2180
2103
1979
1808
1625
1474
1364
1257
1120
956
802
704
676
691
709
694
645
596
576
589
610
614
605
608
640
676
673
620
567
574
637
680
640
542
475
492
556
589
565
522
509
529
545
526
468
396
335
290
253
206
146
90
46
8
-41
-102
-157
-195
-216
-235
-250
-252
-239
-229
-228
-222
-192
-145
-99
-53
23
139
258
334
376
458
647
916
1155
1273
1288
1316
1453
1677
1883
1991
2015
2038
2113
2211
2265
2242
2184
2153
2164
2166
2126
2088
2135
2291
2466
2534
2464
2359
2345
2438
2537
2533
2433
2334
2330
2430
2560
2636
2631
2589
2569
2578
2556
2445
2265
2115
2069
2103
2124
2077
2001
1965
1983
2004
1980
1917
1857
1829
1828
1836
1834
1815
1790
1785
1811
1840
1830
1779
1743
1774
1846
1881
1840
1775
1776
1863
1970
2025
2031
2046
2094
2130
2094
1981
1845
1736
1655
1564
1446
1326
1248
1229
1251
1282
1311
1339
1374
1437
1534
1637
1659
1528
1292
1091
1003
921
679
304
66
207
634
1006
1120
1154
1432
2015
2618
2937
2963
2929
2998
3114
3145
3073
2989
2953
2923
2840
2702
2549
2400
2239
2060
1873
1693
1540
1439
1409
1428
1429
1373
1284
1226
1206
1164
1051
898
800
800
842
833
757
688
698
780
859
869
817
749
703
691
708
731
723
665
569
470
386
303
206
108
37
8
-1
-28
-92
-176
-256
-318
-379
-470
-610
-774
-910
-980
-988
-966
-935
-893
-839
-776
-724
-699
-699
-709
-691
-597
-406
-165
43
176
265
366
469
487
353
113
-106
-210
-214
-185
-156
-93
42
230
422
577
691
768
782
713
584
450
361
318
306
319
350
396
440
469
485
504
538
589
645
693
722
725
688
569
345
82
-62
32
304
555
648
667
832
1242
1744
2077
2132
2050
2046
2206
2422
2536
2497
2386
2316
2338
2415
2484
2506
2498
2499
2528
2569
2599
2618
2645
2686
2712
2688
2610
2519
2456
2423
2387
2341
2315
2344
2409
2449
2420
2328
2228
2159
2119
2101
2110
2158
2219
2228
2145
2009
1884
1762
1539
1151
696
373
265
245
151
18
60
384
807
1043
1023
963
1089
1360
1544
1510
1364
1296
1354
1439
1459
1416
1347
1238
1056
828
628
498
395
245
36
-181
-348
-445
-509
-581
-683
-803
-906
-964
-984
-998
-1032
-1083
-1127
-1160
-1203
-1271
-1350
-1409
-1428
-1417
-1403
-1409
-1442
-1496
-1558
-1612
-1640
-1647
-1650
-1666
-1679
-1673
-1658
-1665
-1705
-1756
-1787
-1790
-1806
-1853
-1914
-1953
-1961
-1955
-1956
-1954
-1942
-1930
-1935
-1948
-1929
-1858
-1765
-1706
-1701
-1711
-1695
-1654
-1636
-1666
-1717
-1728
-1664
-1555
-1455
-1395
-1358
-1296
-1189
-1062
-974
-940
-913
-826
-673
-500
-355
-225
-73
99
237
302
328
390
515
654
736
758
784
874
1015
1135
1199
1228
1273
1340
1398
1428
1451
1488
1537
1579
1613
1657
1705
1719
1669
1586
1540
1565
1631
1687
1714
1735
1770
1812
1856
1915
2000
2083
2118
2101
2089
2146
2277
2424
2518
2546
2552
2585
2664
2772
2868
2920
2934
2933
2951
3013
3114
3221
3285
3265
3178
3097
3093
3158
3210
3181
3102
3084
3194
3364
3450
3381
3226
3131
3168
3272
3310
3208
3034
2923
2938
3000
2949
2721
2422
2208
2110
2006
1804
1577
1508
1659
1908
2110
2284
2574
3040
3549
3911
4068
4114
4148
4179
4169
4102
3984
3807
3561
3298
3116
3058
3044
2942
2722
2485
2341
2294
2258
2165
2047
1981
1986
2011
2013
2006
2024
2066
2096
2111
2158
2261
2355
2326
2133
1866
1647
1499
1335
1090
812
618
583
672
808
939
1052
1139
1198
1239
1287
1344
1389
1394
1354
1300
1282
1331
1457
1645
1877
2130
2374
2568
2673
2669
2571
2400
2161
1852
1500
1171
939
830
840
954
1146
1379
1589
1735
1832
1920
2022
2125
2215
2287
2352
2416
2499
2633
2807
2941
2940
2819
2714
2738
2874
3008
3082
3148
3251
3335
3295
3126
2947
2851
2795
2668
2465
2314
2338
2509
2684
2760
2743
2716
2735
2786
2813
2756
2601
2397
2224
2127
2062
1961
1808
1682
1660
1712
1737
1680
1589
1540
1545
1541
1467
1334
1203
1128
1114
1129
1136
1115
1077
1060
1090
1144
1163
1108
1007
921
879
857
828
810
841
925
1021
1079
1090
1076
1062
1047
1016
944
832
706
622
613
650
664
618
551
528
557
582
548
479
442
444
413
273
60
-100
-150
-187
-362
-679
-937
-917
-614
-241
0
127
330
722
1192
1533
1642
1591
1496
1401
1292
1166
1049
946
834
708
603
552
528
462
324
160
29
-53
-122
-217
-332
-434
-495
-512
-500
-478
-459
-449
-442
-432
-425
-437
-493
-580
-658
-681
-649
-618
-633
-678
-679
-602
-506
-497
-607
-743
-780
-697
-610
-633
-750
-837
-806
-705
-660
-741
-899
-1031
-1074
-1062
-1078
-1162
-1275
-1329
-1277
-1163
-1085
-1113
-1216
-1307
-1332
-1314
-1303
-1302
-1265
-1180
-1103
-1088
-1117
-1102
-1008
-897
-844
-828
-737
-509
-228
-47
-19
-50
-21
78
150
122
19
-79
-127
-134
-127
-96
-35
19
25
-18
-59
-54
-17
-9
-59
-138
-173
-127
-25
68
100
82
52
45
54
55
41
30
13
-37
-125
-201
-194
-95
19
53
4
-50
-50
-18
-25
-96
-184
-232
-229
-212
-200
-169
-90
24
126
172
160
116
60
0
-54
-84
-93
-121
-205
-316
-348
-229
-41
45
-52
-216
-254
-115
46
49
-103
-256
-307
-306
-362
-479
-551
-518
-451
-479
-615
-728
-702
-590
-574
-770
-1076
-1278
-1300
-1297
-1467
-1785
-1999
-1891
-1527
-1178
-1024
-967
-792
-428
-36
181
198
159
195
282
298
184
9
-125
-203
-306
-496
-730
-914
-1020
-1109
-1251
-1429
-1553
-1577
-1548
-1536
-1551
-1560
-1549
-1550
-1583
-1619
-1615
-1581
-1561
-1574
-1587
-1576
-1570
-1604
-1665
-1700
-1687
-1667
-1683
-1710
-1693
-1633
-1586
-1592
-1610
-1576
-1489
-1419
-1421
-1487
-1564
-1618
-1655
-1695
-1743
-1805
-1882
-1952
-1968
-1911
-1825
-1771
-1760
-1738
-1649
-1514
-1417
-1407
-1455
-1479
-1433
-1352
-1301
-1304
-1318
-1280
-1172
-1022
-863
-709
-564
-442
-351
-280
-199
-105
-16
41
60
67
87
140
230
336
416
446
459
518
645
778
831
786
712
681
697
704
655
572
524
569
705
867
968
954
847
727
658
622
544
379
185
73
109
242
358
376
309
236
209
210
182
86
-58
-177
-189
-75
101
221
198
42
-143
-249
-244
-192
-194
-294
-425
-457
-304
-29
197
229
87
-63
-65
73
191
166
43
-23
66
246
363
347
273
268
350
411
341
160
5
-11
86
185
223
237
279
318
273
127
-34
-144
-265
-520
-890
-1162
-1109
-745
-315
-37
134
419
923
1492
1873
1965
1884
1809
1793
1778
1703
1567
1409
1260
1137
1043
970
878
720
508
311
189
130
61
-70
-230
-341
-366
-345
-347
-384
-418
-418
-409
-434
-494
-550
-573
-586
-637
-739
-864
-952
-959
-884
-782
-741
-820
-974
-1082
-1067
-994
-1002
-1148
-1331
-1398
-1319
-1221
-1232
-1350
-1470
-1525
-1552
-1621
-1738
-1847
-1908
-1942
-1990
-2056
-2113
-2143
-2152
-2147
-2126
-2097
-2071
-2055
-2028
-1969
-1882
-1785
-1681
-1558
-1429
-1347
-1348
-1392
-1389
-1290
-1147
-1052
-1039
-1043
-975
-812
-623
-500
-469
-474
-436
-333
-222
-169
-184
-209
-188
-126
-68
-39
-22
10
56
85
84
70
63
66
59
26
-23
-65
-89
-101
-118
-147
-176
-183
-164
-143
-161
-229
-321
-389
-415
-430
-479
-562
-625
-620
-564
-513
-503
-504
-468
-395
-339
-336
-351
-329
-256
-189
-184
-222
-227
-153
-41
30
24
-19
-39
-20
4
-10
-61
-119
-152
-145
-104
-45
8
33
35
39
65
99
118
124
153
227
318
362
327
259
220
200
101
-173
-576
-931
-1106
-1171
-1314
-1590
-1805
-1707
-1298
-869
-669
-618
-407
105
704
1067
1123
1093
1194
1386
1469
1361
1178
1065
1014
914
724
536
449
431
352
146
-116
-297
-346
-334
-358
-436
-509
-531
-516
-510
-523
-529
-521
-532
-590
-679
-754
-796
-824
-853
-869
-844
-782
-728
-723
-759
-793
-793
-766
-748
-760
-801
-859
-927
-996
-1044
-1060
-1070
-1120
-1228
-1355
-1442
-1454
-1406
-1329
-1250
-1187
-1156
-1163
-1198
-1254
-1340
-1467
-1626
-1784
-1912
-1997
-2028
-1984
-1867
-1726
-1627
-1586
-1546
-1434
-1237
-1000
-770
-560
-375
-245
-200
-226
-269
-300
-353
-477
-660
-814
-853
-763
-592
-402
-229
-93
-5
44
76
99
83
1
-118
-192
-168
-88
-46
-76
-119
-102
-29
26
7
-54
-84
-52
13
51
26
-60
-174
-274
-334
-354
-366
-395
-435
-455
-436
-394
-364
-360
-366
-354
-311
-254
-217
-216
-231
-216
-141
-39
27
37
39
89
172
210
160
89
96
195
299
322
284
269
308
352
338
267
177
77
-51
-203
-329
-399
-450
-536
-645
-681
-580
-410
-303
-294
-280
-147
50
128
0
-216
-347
-389
-479
-659
-740
-513
-33
416
670
907
1446
2335
3234
3743
3786
3609
3459
3350
3122
2671
2062
1451
947
571
307
156
110
112
88
14
-46
16
218
452
587
606
606
662
735
748
723
762
896
1018
1019
954
989
1182
1388
1420
1272
1091
987
921
812
703
722
903
1119
1225
1194
1073
866
522
34
-502
-979
-1372
-1715
-1993
-2117
-2049
-1884
-1773
-1758
-1742
-1625
-1434
-1306
-1339
-1505
-1701
-1856
-1971
-2088
-2227
-2368
-2473
-2502
-2436
-2283
-2086
-1900
-1757
-1643
-1522
-1384
-1264
-1209
-1229
-1278
-1288
-1221
-1090
-942
-821
-745
-712
-711
-722
-710
-638
-494
-307
-141
-49
-50
-133
-275
-447
-621
-768
-882
-971
-1034
-1048
-992
-883
-780
-730
-723
-725
-728
-762
-854
-971
-1042
-1039
-1008
-1016
-1074
-1124
-1117
-1068
-1041
-1072
-1141
-1202
-1220
-1188
-1123
-1052
-1001
-977
-960
-924
-879
-871
-922
-990
-998
-918
-800
-715
-670
-620
-526
-411
-324
-283
-271
-273
-297
-359
-446
-514
-532
-507
-480
-487
-524
-554
-543
-504
-484
-511
-569
-610
-604
-574
-554
-540
-505
-459
-476
-627
-871
-1071
-1162
-1243
-1464
-1801
-2010
-1875
-1455
-1032
-793
-628
-291
276
855
1192
1250
1206
1226
1320
1409
1449
1459
1460
1443
1404
1362
1323
1254
1101
859
578
318
122
2
-52
-62
-68
-100
-150
-186
-187
-164
-151
-178
-239
-301
-333
-336
-336
-361
-413
-473
-526
-573
-631
-702
-775
-822
-828
-801
-776
-785
-830
-881
-905
-895
-894
-946
-1054
-1167
-1221
-1210
-1191
-1236
-1356
-1493
-1576
-1594
-1604
-1662
-1760
-1832
-1826
-1769
-1734
-1764
-1830
-1868
-1842
-1768
-1682
-1599
-1518
-1431
-1332
-1223
-1116
-1038
-1016
-1047
-1091
-1110
-1099
-1076
-1054
-1019
-951
-851
-739
-632
-536
-451
-384
-343
-324
-312
-297
-268
-229
-190
-173
-192
-231
-257
-257
-253
-267
-287
-275
-218
-160
-150
-176
-176
-120
-61
-77
-185
-319
-404
-433
-459
-518
-583
-605
-572
-511
-454
-404
-335
-244
-155
-91
-33
58
203
363
488
564
633
735
865
983
1064
1129
1212
1321
1445
1574
1708
1833
1921
1955
1956
1959
1979
2000
2001
1976
1943
1924
1930
1967
2019
2060
2074
2067
2070
2105
2168
2230
2256
2239
2209
2189
2143
1970
1612
1169
828
662
525
233
-167
-373
-157
357
813
1011
1107
1368
1829
2259
2450
2431
2368
2341
2293
2180
2051
1961
1874
1711
1464
1212
1016
845
629
374
143
-23
-147
-257
-332
-335
-292
-291
-393
-564
-704
-764
-792
-871
-1005
-1116
-1136
-1084
-1043
-1065
-1125
-1171
-1191
-1220
-1286
-1379
-1462
-1520
-1566
-1615
-1663
-1687
-1676
-1654
-1655
-1705
-1794
-1888
-1954
-1987
-2010
-2054
-2124
-2198
-2246
-2262
-2263
-2270
-2290
-2312
-2317
-2303
-2280
-2258
-2232
-2187
-2117
-2046
-1995
-1960
-1902
-1791
-1656
-1561
-1534
-1526
-1460
-1318
-1159
-1055
-1002
-930
-788
-599
-429
-313
-221
-111
20
133
195
224
264
341
433
502
540
569
613
671
720
747
757
753
728
684
646
638
654
658
626
573
536
530
541
557
585
625
653
645
612
598
618
636
614
567
547
563
563
501
408
370
429
519
548
494
425
422
497
596
666
701
727
765
818
878
933
960
943
892
854
872
947
1030
1070
1061
1041
1039
1040
995
884
736
624
591
618
634
599
550
565
666
768
771
707
731
924
1134
1096
750
352
200
256
181
-225
-710
-813
-398
189
538
643
833
1324
1931
2308
2347
2253
2262
2390
2494
2489
2418
2354
2307
2235
2112
1939
1715
1443
1157
915
746
636
562
516
502
499
469
402
343
339
375
390
359
323
334
367
351
271
180
142
154
158
131
130
214
360
461
453
381
337
359
390
336
167
-56
-221
-265
-227
-211
-303
-480
-635
-689
-656
-630
-691
-840
-1020
-1175
-1277
-1319
-1314
-1304
-1351
-1480
-1636
-1729
-1732
-1696
-1698
-1762
-1841
-1866
-1806
-1684
-1540
-1404
-1310
-1287
-1330
-1388
-1411
-1397
-1393
-1435
-1510
-1568
-1574
-1539
-1501
-1494
-1532
-1600
-1659
-1672
-1636
-1600
-1624
-1712
-1807
-1843
-1829
-1826
-1877
-1968
-2055
-2122
-2163
-2157
-2090
-2008
-2002
-2100
-2211
-2227
-2155
-2121
-2210
-2350
-2390
-2274
-2103
-2007
-2011
-2033
-2005
-1936
-1880
-1863
-1870
-1877
-1864
-1807
-1684
-1509
-1342
-1244
-1211
-1171
-1060
-891
-748
-690
-668
-580
-385
-158
-9
40
62
126
210
248
223
186
184
212
245
294
378
469
503
470
447
515
642
704
631
497
430
482
578
608
521
335
115
-61
-168
-271
-487
-842
-1159
-1199
-920
-567
-398
-375
-207
290
929
1357
1449
1415
1497
1671
1723
1555
1301
1145
1093
1001
797
568
420
327
168
-104
-406
-616
-713
-776
-873
-984
-1055
-1073
-1083
-1132
-1206
-1254
-1255
-1243
-1263
-1328
-1406
-1459
-1488
-1507
-1516
-1492
-1426
-1360
-1354
-1417
-1489
-1504
-1472
-1450
-1470
-1502
-1510
-1502
-1521
-1561
-1562
-1506
-1471
-1551
-1741
-1918
-1975
-1931
-1906
-1980
-2104
-2161
-2093
-1959
-1862
-1864
-1921
-1942
-1895
-1840
-1860
-1941
-1967
-1847
-1630
-1461
-1435
-1482
-1458
-1299
-1080
-925
-884
-903
-893
-802
-652
-510
-439
-441
-453
-398
-259
-100
-2
18
27
118
305
503
588
508
341
233
254
330
329
199
36
-20
68
207
273
247
200
209
270
295
207
9
-206
-330
-337
-297
-302
-377
-456
-462
-383
-282
-237
-279
-374
-453
-469
-414
-332
-274
-259
-257
-225
-147
-45
44
110
171
249
345
438
500
531
569
648
764
877
940
940
899
857
855
916
1011
1064
1013
886
793
819
932
1021
1026
999
1020
1087
1136
1149
1187
1274
1310
1166
872
634
604
673
585
263
-40
12
458
986
1284
1372
1545
1989
2558
2949
3041
2994
3013
3104
3112
2954
2732
2608
2602
2567
2384
2108
1912
1873
1885
1785
1546
1311
1221
1247
1232
1081
872
757
779
836
809
691
582
575
664
755
752
634
465
334
283
287
285
243
178
117
78
76
129
230
320
316
209
85
45
74
65
-44
-190
-270
-273
-278
-327
-354
-290
-184
-154
-224
-269
-182
-36
-12
-172
-348
-341
-162
-9
-36
-166
-204
-73
109
195
180
178
261
375
435
451
514
676
860
954
940
923
1008
1183
1332
1363
1307
1262
1292
1368
1419
1419
1404
1424
1473
1501
1479
1444
1466
1576
1708
1762
1695
1562
1457
1424
1429
1406
1331
1231
1158
1152
1216
1303
1345
1315
1251
1228
1271
1330
1338
1287
1240
1246
1301
1355
1374
1380
1411
1481
1569
1635
1656
1651
1656
1684
1702
1671
1597
1540
1549
1612
1676
1713
1734
1767
1798
1801
1774
1742
1723
1699
1649
1592
1575
1612
1661
1664
1609
1541
1509
1511
1514
1507
1520
1580
1663
1731
1774
1810
1825
1739
1500
1181
933
811
705
496
245
172
408
832
1191
1386
1545
1825
2220
2581
2800
2897
2928
2905
2809
2677
2577
2518
2422
2221
1958
1749
1655
1622
1563
1455
1338
1257
1204
1148
1091
1056
1037
991
900
796
729
713
713
698
668
644
615
544
427
306
226
184
139
81
49
79
139
159
118
75
98
170
204
152
75
68
134
181
124
-10
-119
-152
-158
-215
-320
-408
-438
-429
-413
-386
-334
-266
-213
-174
-100
22
137
169
115
50
54
135
236
302
323
338
400
526
676
778
811
853
1017
1322
1643
1837
1917
2040
2317
2659
2869
2864
2758
2719
2778
2827
2775
2665
2613
2664
2752
2776
2721
2652
2632
2634
2571
2396
2172
2037
2072
2212
2316
2290
2169
2063
2048
2095
2119
2063
1942
1813
1720
1663
1614
1556
1496
1433
1358
1275
1221
1241
1335
1445
1502
1491
1472
1515
1626
1736
1767
1692
1554
1434
1387
1395
1394
1335
1251
1216
1272
1384
1470
1476
1423
1366
1339
1330
1293
1208
1098
1018
996
1002
982
921
869
870
886
844
749
700
746
794
692
437
204
133
127
-42
-430
-809
-893
-659
-363
-240
-247
-134
270
880
1456
1834
2028
2159
2309
2465
2546
2494
2320
2084
1844
1620
1414
1224
1056
911
774
640
534
487
488
485
436
349
267
222
203
182
156
146
168
196
187
129
67
63
125
188
183
109
33
2
-5
-34
-94
-144
-156
-151
-169
-211
-243
-244
-232
-220
-193
-138
-87
-101
-197
-307
-354
-348
-375
-502
-692
-839
-869
-810
-740
-711
-715
-707
-660
-584
-509
-452
-397
-325
-237
-156
-89
-8
122
286
424
495
523
572
671
786
872
931
1005
1116
1225
1287
1305
1324
1377
1442
1473
1458
1430
1420
1422
1416
1393
1369
1353
1320
1254
1179
1138
1140
1137
1079
980
907
901
931
925
858
766
688
622
546
453
359
276
201
136
100
99
114
125
154
244
412
604
728
715
568
343
102
-118
-324
-542
-780
-1006
-1151
-1169
-1074
-935
-821
-759
-737
-731
-730
-732
-744
-771
-816
-873
-914
-916
-890
-870
-885
-929
-977
-1021
-1071
-1125
-1157
-1145
-1113
-1092
-1080
-1056
-1036
-1096
-1282
-1518
-1672
-1739
-1874
-2197
-2591
-2771
-2601
-2264
-2051
-2011
-1899
-1489
-859
-310
-26
77
176
321
431
456
446
447
423
324
190
114
120
132
82
5
-20
27
94
146
223
372
555
672
673
615
595
640
693
690
637
603
642
742
846
916
960
1016
1098
1189
1257
1291
1301
1302
1301
1298
1287
1258
1199
1113
1022
949
895
840
769
687
612
548
490
423
342
244
130
12
-90
-162
-206
-241
-289
-358
-433
-490
-519
-536
-569
-628
-690
-718
-702
-662
-623
-585
-530
-457
-385
-337
-315
-305
-294
-280
-265
-247
-227
-217
-221
-225
-205
-156
-100
-69
-81
-123
-173
-217
-260
-315
-387
-464
-528
-573
-611
-653
-699
-736
-763
-796
-851
-927
-1012
-1101
-1198
-1300
-1382
-1422
-1427
-1430
-1457
-1496
-1520
-1520
-1513
-1523
-1552
-1590
-1624
-1649
-1659
-1655
-1645
-1646
-1655
-1651
-1617
-1560
-1496
-1424
-1331
-1217
-1106
-1016
-938
-854
-767
-706
-682
-674
-663
-651
-652
-652
-618
-556
-511
-516
-545
-539
-481
-419
-402
-426
-445
-433
-402
-378
-367
-343
-284
-204
-158
-222
-411
-646
-823
-951
-1157
-1518
-1898
-2036
-1823
-1437
-1146
-993
-765
-293
310
765
938
944
958
1001
976
854
721
647
572
404
146
-106
-300
-480
-700
-930
-1099
-1194
-1260
-1328
-1362
-1329
-1268
-1253
-1308
-1379
-1414
-1409
-1391
-1369
-1332
-1288
-1273
-1301
-1334
-1328
-1279
-1221
-1187
-1172
-1161
-1145
-1116
-1062
-982
-906
-887
-943
-1034
-1096
-1115
-1133
-1186
-1253
-1281
-1249
-1203
-1209
-1290
-1404
-1492
-1527
-1530
-1535
-1560
-1598
-1624
-1616
-1572
-1521
-1494
-1491
-1484
-1442
-1372
-1299
-1235
-1164
-1073
-977
-898
-840
-783
-709
-620
-530
-441
-342
-229
-118
-37
1
7
17
54
106
132
109
64
58
121
213
273
272
241
221
222
223
207
181
154
119
63
-9
-73
-118
-172
-268
-405
-539
-627
-673
-713
-768
-822
-844
-842
-852
-898
-962
-1008
-1027
-1044
-1084
-1149
-1220
-1282
-1324
-1335
-1321
-1303
-1298
-1303
-1285
-1225
-1140
-1069
-1037
-1038
-1059
-1091
-1131
-1162
-1176
-1184
-1210
-1260
-1307
-1325
-1312
-1286
-1266
-1259
-1277
-1333
-1424
-1521
-1601
-1655
-1695
-1735
-1774
-1809
-1838
-1846
-1801
-1706
-1643
-1737
-2023
-2370
-2594
-2666
-2781
-3128
-3616
-3895
-3719
-3234
-2830
-2700
-2627
-2263
-1560
-826
-379
-219
-107
120
389
544
547
489
444
394
298
172
70
11
-40
-119
-225
-331
-401
-423
-410
-393
-403
-436
-462
-462
-451
-455
-479
-504
-508
-506
-526
-575
-633
-659
-634
-588
-570
-598
-635
-643
-632
-665
-786
-959
-1091
-1133
-1127
-1160
-1259
-1367
-1416
-1413
-1411
-1460
-1560
-1689
-1842
-2019
-2195
-2338
-2450
-2565
-2697
-2801
-2820
-2763
-2705
-2706
-2756
-2791
-2782
-2766
-2790
-2848
-2882
-2851
-2774
-2704
-2669
-2650
-2602
-2507
-2376
-2235
-2106
-2000
-1913
-1820
-1695
-1543
-1400
-1307
-1260
-1218
-1144
-1041
-932
-829
-727
-632
-568
-537
-504
-434
-343
-287
-290
-313
-305
-257
-205
-178
-171
-173
-194
-239
-286
-309
-315
-327
-350
-337
-260
-160
-125
-182
-255
-236
-109
22
48
-26
-95
-72
19
87
96
95
138
197
201
146
127
230
412
543
544
478
466
549
652
685
636
571
549
568
591
591
575
572
595
628
634
600
550
522
537
568
575
554
516
486
493
551
633
640
477
184
-70
-179
-254
-498
-897
-1137
-933
-390
74
202
194
452
1079
1753
2102
2095
1999
2033
2164
2246
2224
2152
2064
1926
1729
1542
1443
1410
1340
1176
968
811
743
728
715
686
649
600
531
449
395
405
467
516
506
445
386
365
363
347
311
276
256
245
240
253
286
317
314
278
256
288
357
402
385
332
305
337
398
429
394
318
252
222
210
185
134
75
36
32
48
59
62
78
128
199
247
243
216
225
291
366
383
339
313
377
504
599
607
581
616
732
855
910
908
921
995
1096
1162
1174
1174
1196
1229
1237
1214
1186
1174
1168
1146
1106
1064
1026
983
926
868
826
800
772
725
672
637
632
645
648
622
565
495
438
409
394
367
313
249
208
213
255
309
349
378
408
457
527
607
674
715
740
771
821
881
940
998
1062
1128
1182
1215
1248
1303
1379
1437
1443
1410
1382
1393
1426
1439
1417
1385
1377
1390
1399
1394
1397
1423
1453
1451
1420
1408
1435
1467
1468
1449
1447
1436
1322
1078
822
686
628
456
99
-222
-202
183
617
808
837
1029
1529
2108
2439
2463
2396
2430
2526
2537
2425
2283
2181
2080
1922
1719
1536
1387
1227
1028
820
653
545
471
413
374
356
343
310
245
163
87
29
-23
-91
-182
-276
-346
-383
-396
-408
-434
-475
-516
-542
-548
-555
-590
-661
-738
-780
-781
-778
-805
-855
-887
-887
-879
-903
-962
-1034
-1097
-1153
-1220
-1299
-1373
-1421
-1442
-1452
-1480
-1537
-1595
-1617
-1592
-1562
-1589
-1676
-1754
-1747
-1653
-1553
-1517
-1528
-1508
-1412
-1279
-1182
-1144
-1116
-1037
-908
-788
-717
-678
-620
-523
-419
-352
-332
-326
-301
-256
-208
-170
-130
-76
-24
-13
-62
-140
-192
-189
-157
-153
-192
-226
-202
-126
-64
-68
-120
-160
-160
-164
-241
-403
-587
-701
-702
-630
-564
-550
-567
-560
-510
-470
-511
-642
-809
-953
-1063
-1157
-1228
-1233
-1160
-1059
-985
-937
-870
-776
-698
-656
-602
-486
-336
-245
-242
-254
-201
-108
-70
-99
-86
74
346
597
763
917
1143
1402
1557
1534
1393
1251
1159
1093
1038
1025
1070
1140
1201
1260
1333
1368
1260
994
695
486
338
118
-184
-374
-248
145
541
767
932
1260
1785
2297
2595
2685
2705
2723
2679
2521
2299
2099
1936
1757
1541
1320
1132
974
821
679
560
448
327
211
148
171
250
310
301
214
67
-118
-314
-491
-616
-664
-648
-601
-550
-484
-366
-184
12
139
147
69
-19
-65
-73
-72
-74
-77
-84
-98
-110
-105
-100
-138
-239
-364
-447
-465
-469
-517
-597
-641
-611
-549
-534
-590
-660
-679
-637
-577
-537
-516
-488
-439
-379
-324
-284
-250
-206
-132
-28
86
179
252
330
433
555
677
798
924
1049
1155
1243
1343
1476
1619
1723
1769
1794
1847
1935
2030
2110
2174
2227
2267
2290
2302
2312
2318
2307
2274
2236
2216
2228
2271
2319
2346
2341
2332
2352
2408
2461
2472
2452
2454
2515
2613
2699
2746
2768
2792
2828
2871
2915
2956
2992
3027
3082
3174
3293
3400
3466
3487
3486
3484
3503
3556
3638
3710
3732
3715
3730
3839
4017
4156
4178
4114
4071
4127
4253
4353
4372
4337
4324
4382
4491
4596
4661
4695
4727
4775
4832
4869
4869
4846
4817
4763
4628
4387
4131
4004
4039
4087
3972
3724
3610
3854
4364
4824
5043
5169
5477
6022
6564
6862
6926
6946
7023
7077
7001
6825
6660
6552
6432
6234
5993
5798
5682
5596
5483
5342
5204
5103
5037
4988
4959
4956
4972
4974
4916
4793
4665
4614
4668
4759
4787
4716
4615
4586
4662
4775
4821
4764
4660
4591
4583
4598
4587
4543
4494
4456
4410
4337
4245
4163
4104
4053
3989
3909
3829
3766
3723
3697
3675
3632
3544
3415
3274
3152
3058
2980
2904
2823
2739
2671
2645
2673
2733
2775
2772
2752
2762
2809
2854
2853
2817
2793
2812
2865
2935
3023
3128
3220
3262
3270
3314
3452
3648
3799
3842
3805
3752
3680
3511
3190
2773
2379
2075
1833
1601
1400
1317
1399
1583
1748
1831
1860
1891
1928
1930
1872
1779
1699
1652
1633
1638
1665
1705
1727
1706
1648
1573
1500
1429
1371
1342
1348
1366
1359
1315
1258
1214
1190
1169
1150
1138
1134
1127
1103
1075
1073
1111
1171
1218
1232
1225
1230
1265
1319
1354
1344
1297
1246
1212
1187
1152
1106
1067
1042
1014
969
915
877
854
823
769
707
664
632
582
526
520
582
626
526
271
6
-141
-224
-420
-768
-1062
-1047
-728
-368
-187
-104
132
616
1158
1502
1583
1540
1518
1526
1496
1403
1264
1089
873
633
425
277
145
-42
-290
-538
-730
-860
-960
-1055
-1149
-1241
-1335
-1423
-1485
-1505
-1493
-1472
-1463
-1461
-1452
-1430
-1401
-1380
-1367
-1356
-1346
-1338
-1337
-1338
-1331
-1313
-1295
-1287
-1290
-1298
-1306
-1313
-1318
-1332
-1372
-1448
-1544
-1618
-1642
-1637
-1657
-1731
-1826
-1887
-1885
-1859
-1871
-1942
-2036
-2095
-2091
-2047
-2009
-2007
-2025
-2028
-1991
-1932
-1887
-1874
-1870
-1840
-1773
-1692
-1628
-1582
-1526
-1438
-1322
-1205
-1105
-1020
-937
-846
-746
-645
-551
-470
-403
-348
-299
-249
-192
-128
-62
-6
37
69
97
118
120
89
37
-10
-30
-31
-36
-44
-35
7
66
104
101
68
25
-36
-133
-265
-403
-518
-601
-666
-730
-805
-880
-932
-936
-882
-801
-747
-752
-792
-800
-727
-585
-437
-340
-309
-323
-357
-401
-438
-428
-326
-130
107
323
509
711
965
1240
1443
1504
1437
1329
1267
1274
1318
1361
1394
1440
1518
1635
1783
1931
2051
2101
2056
1960
1921
2008
2151
2188
2048
1851
1765
1775
1686
1399
1112
1141
1544
2035
2310
2424
2706
3322
4050
4529
4649
4620
4666
4783
4809
4668
4442
4232
4039
3819
3585
3403
3309
3239
3097
2859
2584
2374
2291
2310
2334
2272
2123
1965
1879
1877
1915
1948
1960
1952
1923
1873
1816
1762
1708
1629
1514
1382
1269
1195
1155
1127
1079
987
856
725
623
542
440
301
166
88
52
-13
-153
-329
-463
-537
-618
-777
-1006
-1233
-1401
-1507
-1575
-1607
-1600
-1582
-1607
-1709
-1853
-1976
-2048
-2104
-2200
-2347
-2489
-2560
-2548
-2499
-2469
-2465
-2458
-2425
-2387
-2374
-2383
-2375
-2329
-2273
-2247
-2250
-2234
-2166
-2070
-2001
-1982
-1979
-1949
-1892
-1851
-1853
-1877
-1870
-1803
-1706
-1640
-1635
-1663
-1669
-1634
-1585
-1565
-1577
-1583
-1547
-1478
-1418
-1394
-1384
-1348
-1269
-1175
-1115
-1102
-1107
-1075
-982
-863
-781
-764
-769
-719
-586
-430
-334
-318
-315
-258
-150
-47
18
78
182
318
428
483
520
584
671
727
722
689
684
725
779
807
810
820
854
899
918
885
814
748
721
726
713
652
552
472
457
477
459
378
288
258
254
140
-151
-500
-723
-800
-937
-1292
-1722
-1880
-1605
-1136
-844
-803
-722
-331
273
738
853
747
677
728
781
721
573
431
318
180
-15
-223
-383
-501
-633
-811
-1010
-1150
-1173
-1097
-998
-954
-973
-1000
-983
-930
-886
-871
-862
-838
-816
-816
-811
-746
-616
-496
-462
-500
-513
-440
-333
-289
-332
-388
-377
-299
-223
-207
-241
-281
-294
-282
-261
-243
-230
-214
-186
-149
-127
-146
-199
-237
-219
-172
-168
-245
-345
-361
-244
-68
52
74
64
115
247
386
452
445
430
465
557
671
779
881
993
1117
1239
1341
1415
1487
1583
1703
1807
1864
1899
1974
2120
2278
2368
2377
2377
2430
2511
2541
2491
2417
2394
2426
2451
2422
2366
2341
2368
2406
2391
2307
2196
2128
2132
2171
2174
2110
2018
1975
2012
2091
2145
2147
2119
2081
2029
1951
1875
1829
1796
1713
1556
1397
1356
1472
1647
1745
1736
1724
1818
2008
2177
2235
2206
2185
2232
2320
2380
2378
2340
2322
2356
2425
2483
2503
2490
2478
2485
2507
2536
2567
2589
2592
2577
2565
2584
2640
2696
2719
2734
2788
2898
2994
2962
2767
2509
2315
2180
1961
1590
1228
1152
1443
1855
2077
2090
2193
2630
3279
3781
3933
3875
3879
4024
4172
4188
4093
3988
3898
3751
3502
3210
2980
2838
2721
2556
2337
2141
2039
2026
2031
1988
1893
1779
1670
1568
1485
1459
1509
1593
1643
1632
1591
1543
1484
1404
1316
1236
1156
1054
947
891
900
923
894
827
800
847
898
869
768
694
708
765
769
689
588
536
528
505
441
369
322
302
283
248
211
190
190
200
218
243
262
262
247
245
279
337
371
361
331
335
400
504
592
643
686
769
902
1032
1085
1046
994
1018
1136
1263
1309
1279
1258
1313
1422
1511
1540
1525
1496
1464
1442
1450
1492
1531
1520
1457
1383
1328
1275
1206
1145
1132
1148
1121
1018
899
850
877
899
840
724
630
597
586
558
529
534
559
548
483
427
461
577
680
691
630
587
617
691
739
734
694
643
585
529
497
493
488
459
429
448
522
593
597
536
475
461
473
463
407
314
201
79
-27
-87
-100
-121
-208
-339
-411
-362
-266
-284
-483
-738
-877
-895
-968
-1213
-1500
-1577
-1366
-1068
-916
-888
-733
-296
292
758
968
1018
1063
1140
1178
1122
983
809
638
506
447
449
450
373
192
-58
-359
-698
-1030
-1297
-1488
-1664
-1871
-2039
-2024
-1793
-1518
-1429
-1558
-1706
-1674
-1498
-1403
-1533
-1780
-1933
-1904
-1773
-1637
-1497
-1341
-1235
-1268
-1417
-1547
-1585
-1627
-1811
-2120
-2372
-2420
-2302
-2170
-2076
-1950
-1730
-1476
-1311
-1282
-1313
-1309
-1282
-1320
-1461
-1642
-1763
-1780
-1736
-1705
-1735
-1824
-1927
-1995
-2010
-2002
-2005
-2000
-1926
-1749
-1532
-1387
-1358
-1372
-1325
-1207
-1096
-1054
-1050
-1000
-868
-707
-595
-557
-559
-541
-476
-374
-288
-260
-287
-320
-307
-256
-225
-254
-321
-361
-333
-252
-158
-76
-17
-1
-66
-224
-445
-670
-875
-1078
-1299
-1507
-1625
-1606
-1485
-1344
-1240
-1169
-1094
-1014
-969
-984
-1036
-1082
-1111
-1143
-1193
-1241
-1258
-1243
-1229
-1245
-1280
-1297
-1277
-1238
-1215
-1213
-1207
-1164
-1089
-1031
-1032
-1077
-1097
-1035
-918
-844
-879
-987
-1058
-1022
-923
-872
-933
-1056
-1138
-1129
-1075
-1067
-1137
-1242
-1302
-1281
-1222
-1186
-1177
-1147
-1081
-1062
-1195
-1458
-1698
-1812
-1907
-2171
-2603
-2925
-2862
-2479
-2119
-2015
-2019
-1801
-1262
-653
-268
-144
-95
16
141
193
183
164
112
-61
-340
-575
-639
-599
-644
-855
-1113
-1245
-1225
-1188
-1260
-1423
-1572
-1652
-1695
-1736
-1739
-1641
-1468
-1334
-1318
-1362
-1324
-1159
-993
-1002
-1203
-1419
-1460
-1338
-1255
-1363
-1591
-1733
-1697
-1613
-1672
-1904
-2145
-2221
-2126
-2013
-2016
-2136
-2268
-2325
-2311
-2286
-2305
-2372
-2461
-2547
-2621
-2674
-2680
-2623
-2525
-2460
-2479
-2541
-2537
-2409
-2225
-2108
-2092
-2079
-1966
-1789
-1690
-1729
-1788
-1734
-1588
-1504
-1548
-1592
-1475
-1214
-995
-942
-966
-903
-741
-621
-639
-715
-697
-558
-401
-321
-307
-302
-289
-274
-231
-135
-30
-23
-153
-313
-358
-268
-179
-226
-375
-461
-386
-241
-203
-347
-577
-732
-758
-735
-776
-911
-1071
-1167
-1162
-1076
-976
-932
-977
-1095
-1224
-1286
-1250
-1146
-1052
-1022
-1037
-1004
-845
-596
-410
-422
-619
-849
-977
-1001
-1008
-1052
-1094
-1077
-1008
-940
-891
-817
-689
-555
-503
-572
-705
-799
-806
-769
-778
-864
-974
-1018
-962
-876
-851
-915
-1015
-1068
-1037
-961
-937
-1075
-1404
-1799
-2072
-2167
-2234
-2446
-2728
-2771
-2368
-1714
-1236
-1119
-1109
-823
-220
354
568
455
315
368
569
745
817
838
857
858
798
672
514
340
151
-41
-198
-272
-236
-113
37
136
130
29
-113
-237
-304
-301
-253
-229
-287
-391
-418
-287
-91
-32
-209
-492
-639
-562
-412
-389
-515
-628
-585
-419
-272
-228
-252
-289
-351
-485
-674
-824
-866
-837
-834
-915
-1040
-1133
-1185
-1257
-1386
-1528
-1592
-1555
-1504
-1538
-1652
-1729
-1675
-1537
-1447
-1469
-1539
-1561
-1515
-1451
-1410
-1374
-1316
-1249
-1200
-1161
-1085
-963
-845
-787
-796
-814
-783
-688
-565
-466
-422
-419
-397
-312
-188
-110
-144
-263
-381
-437
-447
-451
-455
-425
-360
-309
-320
-379
-425
-415
-386
-414
-544
-735
-895
-963
-952
-924
-934
-993
-1080
-1163
-1208
-1193
-1128
-1065
-1047
-1066
-1077
-1064
-1065
-1121
-1211
-1272
-1280
-1279
-1303
-1318
-1252
-1093
-916
-807
-790
-828
-873
-900
-892
-846
-797
-792
-840
-885
-854
-757
-687
-718
-825
-916
-930
-900
-884
-887
-871
-829
-798
-803
-819
-805
-780
-815
-924
-1011
-970
-832
-770
-903
-1148
-1315
-1354
-1437
-1726
-2106
-2247
-1969
-1477
-1144
-1076
-993
-571
143
768
1010
951
891
987
1130
1151
1023
832
632
413
187
14
-86
-200
-431
-748
-1019
-1165
-1218
-1258
-1284
-1247
-1145
-1046
-1007
-1003
-980
-940
-936
-993
-1078
-1142
-1174
-1188
-1187
-1156
-1098
-1037
-986
-926
-860
-833
-888
-990
-1054
-1028
-960
-924
-928
-903
-801
-667
-591
-623
-735
-882
-1039
-1197
-1334
-1421
-1464
-1501
-1566
-1653
-1719
-1733
-1712
-1682
-1648
-1585
-1487
-1390
-1336
-1303
-1227
-1086
-955
-937
-1026
-1095
-1015
-801
-602
-526
-523
-465
-289
-56
148
295
409
504
558
559
546
595
740
934
1076
1081
961
833
826
956
1090
1086
935
760
671
645
590
489
410
393
383
316
228
215
293
356
309
192
126
147
166
110
36
40
102
100
-27
-183
-236
-183
-149
-223
-357
-438
-436
-420
-444
-476
-456
-385
-326
-330
-386
-453
-501
-517
-500
-467
-482
-595
-763
-861
-810
-692
-665
-786
-944
-998
-945
-909
-964
-1055
-1101
-1109
-1145
-1208
-1217
-1137
-1064
-1134
-1329
-1474
-1439
-1304
-1294
-1515
-1827
-2010
-2043
-2140
-2480
-2944
-3188
-3011
-2585
-2263
-2173
-2089
-1718
-1061
-422
-75
4
40
175
338
396
313
171
62
6
-45
-140
-286
-437
-538
-580
-622
-730
-873
-946
-890
-774
-722
-767
-828
-827
-776
-745
-763
-786
-771
-731
-712
-740
-806
-877
-919
-902
-828
-750
-742
-822
-919
-927
-831
-727
-732
-862
-1016
-1075
-1016
-928
-928
-1048
-1203
-1281
-1257
-1208
-1230
-1339
-1462
-1521
-1509
-1496
-1541
-1629
-1691
-1690
-1659
-1669
-1752
-1859
-1913
-1883
-1801
-1725
-1671
-1626
-1583
-1542
-1494
-1417
-1309
-1210
-1170
-1184
-1182
-1095
-927
-745
-627
-592
-599
-593
-545
-465
-393
-350
-316
-243
-113
14
58
11
-40
-8
72
89
-13
-151
-189
-91
58
152
162
114
17
-118
-221
-200
-75
3
-95
-303
-402
-261
2
153
82
-106
-235
-227
-123
17
149
236
251
232
263
377
497
511
409
313
336
473
623
725
806
894
960
951
882
818
778
704
551
385
326
411
554
647
686
755
892
1021
1030
911
768
708
724
739
724
726
774
800
706
502
336
301
285
95
-267
-524
-430
-71
222
279
307
627
1248
1842
2113
2116
2128
2292
2474
2477
2274
2014
1826
1723
1645
1572
1506
1449
1385
1310
1222
1104
935
706
431
151
-77
-215
-258
-245
-206
-123
33
226
333
261
75
-57
-52
16
14
-86
-180
-159
-23
129
197
157
42
-93
-203
-277
-342
-403
-427
-377
-277
-218
-255
-342
-367
-307
-268
-364
-575
-760
-796
-691
-563
-528
-609
-716
-726
-599
-426
-354
-443
-590
-641
-557
-452
-431
-451
-396
-235
-48
73
126
165
216
270
336
448
586
671
672
688
849
1136
1374
1415
1313
1245
1294
1367
1337
1203
1070
1017
1037
1085
1134
1169
1164
1088
963
843
766
720
681
666
693
736
747
715
691
726
786
785
676
521
418
401
410
366
282
254
352
538
685
718
680
687
795
922
951
869
788
823
963
1091
1129
1103
1098
1155
1244
1305
1313
1270
1197
1130
1112
1153
1200
1189
1123
1084
1145
1279
1363
1293
1104
926
878
965
1077
1102
1021
932
935
1035
1123
1079
902
696
537
384
168
-86
-236
-174
55
306
507
720
1042
1451
1815
2043
2164
2259
2325
2296
2161
2019
1963
1946
1821
1542
1248
1129
1201
1287
1208
982
780
725
769
775
684
547
452
419
410
379
323
258
197
143
110
106
116
115
97
93
125
177
196
148
40
-87
-193
-267
-319
-362
-411
-464
-502
-509
-484
-460
-488
-584
-692
-744
-726
-697
-727
-828
-937
-990
-1005
-1060
-1199
-1359
-1418
-1320
-1128
-961
-862
-769
-613
-421
-297
-302
-375
-402
-341
-247
-185
-137
-37
124
271
326
305
288
323
371
376
344
347
429
553
654
717
776
854
930
969
972
967
981
992
948
841
733
710
785
857
811
670
590
697
912
1004
846
559
380
398
470
428
275
156
159
222
229
167
116
123
127
58
-63
-126
-68
65
171
200
198
232
308
384
427
462
540
669
806
906
967
1022
1085
1140
1151
1091
947
737
515
350
277
277
325
434
636
912
1163
1298
1342
1423
1631
1910
2104
2121
2057
2102
2344
2650
2767
2582
2248
2015
1957
1898
1656
1322
1211
1511
2057
2513
2757
2995
3465
4094
4556
4631
4442
4295
4327
4406
4339
4101
3842
3684
3594
3452
3204
2915
2680
2521
2389
2230
2046
1877
1741
1624
1513
1415
1342
1286
1236
1201
1200
1228
1236
1197
1139
1113
1118
1091
987
842
729
667
604
484
321
169
62
-17
-93
-168
-222
-245
-234
-192
-142
-135
-210
-347
-471
-530
-552
-617
-758
-912
-987
-951
-874
-843
-882
-935
-941
-902
-873
-904
-982
-1034
-1009
-922
-841
-810
-815
-798
-713
-574
-439
-373
-372
-364
-263
-61
143
233
204
157
180
252
279
223
157
168
247
316
327
324
375
484
587
623
600
571
575
597
591
544
477
423
378
308
192
49
-72
-159
-239
-335
-417
-440
-418
-421
-499
-603
-638
-585
-537
-583
-689
-725
-614
-429
-326
-367
-464
-492
-422
-343
-337
-390
-411
-343
-212
-85
-1
56
117
188
248
272
269
273
303
335
331
301
295
337
369
321
222
193
306
460
476
323
180
235
443
575
487
291
208
286
345
221
-30
-235
-349
-496
-747
-953
-887
-529
-119
131
280
570
1094
1665
2026
2123
2106
2109
2104
2006
1840
1708
1646
1551
1327
1013
746
592
459
231
-83
-347
-443
-404
-370
-436
-569
-676
-717
-744
-818
-932
-1021
-1050
-1040
-1028
-1030
-1037
-1043
-1057
-1078
-1101
-1134
-1192
-1273
-1348
-1397
-1437
-1498
-1565
-1583
-1527
-1458
-1464
-1563
-1675
-1713
-1684
-1680
-1766
-1917
-2057
-2150
-2219
-2294
-2364
-2401
-2406
-2412
-2433
-2445
-2424
-2389
-2379
-2400
-2416
-2394
-2344
-2300
-2263
-2196
-2082
-1948
-1841
-1774
-1717
-1642
-1552
-1464
-1385
-1305
-1227
-1164
-1117
-1049
-908
-687
-442
-249
-135
-55
56
214
369
455
464
454
494
598
720
812
865
915
988
1066
1109
1100
1060
1033
1031
1033
1024
1026
1077
1179
1272
1295
1254
1210
1214
1239
1226
1164
1109
1112
1153
1166
1129
1090
1103
1154
1182
1159
1128
1145
1209
1265
1281
1290
1342
1427
1474
1431
1341
1293
1326
1367
1322
1180
1041
1000
1045
1086
1062
1004
989
1032
1078
1077
1043
1017
1011
988
924
841
783
749
694
602
514
472
435
285
-20
-359
-565
-629
-725
-980
-1271
-1318
-1015
-572
-285
-193
-57
325
856
1251
1359
1288
1226
1229
1218
1136
1010
878
722
518
305
158
91
22
-122
-319
-488
-580
-624
-680
-770
-876
-975
-1065
-1154
-1238
-1303
-1331
-1335
-1343
-1386
-1456
-1505
-1484
-1398
-1313
-1295
-1343
-1390
-1388
-1363
-1384
-1480
-1602
-1673
-1668
-1633
-1625
-1651
-1666
-1629
-1555
-1504
-1522
-1595
-1668
-1696
-1682
-1653
-1628
-1602
-1561
-1503
-1438
-1383
-1355
-1376
-1462
-1593
-1718
-1799
-1840
-1869
-1894
-1886
-1822
-1710
-1585
-1471
-1369
-1273
-1191
-1122
-1047
-947
-821
-691
-570
-466
-380
-306
-227
-123
-2
82
85
37
31
122
266
362
376
375
444
574
673
670
600
549
565
599
581
497
403
361
376
400
387
341
294
271
276
304
352
400
421
388
318
254
223
214
203
196
210
241
256
223
167
149
194
259
272
214
152
173
288
409
440
363
260
219
245
277
261
213
181
193
236
293
362
438
498
523
531
555
590
598
559
513
513
552
556
500
470
562
719
751
549
251
94
113
79
-208
-621
-802
-576
-146
157
268
412
789
1317
1746
1935
1938
1877
1812
1759
1732
1707
1621
1450
1263
1158
1107
965
644
236
-75
-221
-293
-398
-542
-648
-677
-665
-669
-722
-834
-985
-1122
-1200
-1228
-1263
-1333
-1395
-1387
-1322
-1285
-1333
-1435
-1526
-1598
-1702
-1862
-2023
-2102
-2084
-2046
-2069
-2166
-2283
-2367
-2425
-2514
-2683
-2922
-3165
-3350
-3462
-3543
-3651
-3809
-3986
-4126
-4206
-4260
-4344
-4474
-4600
-4662
-4655
-4635
-4649
-4681
-4673
-4604
-4524
-4499
-4529
-4543
-4476
-4335
-4191
-4101
-4054
-3995
-3887
-3750
-3625
-3531
-3442
-3325
-3175
-3024
-2898
-2792
-2685
-2567
-2452
-2352
-2260
-2154
-2022
-1879
-1755
-1665
-1589
-1486
-1342
-1190
-1084
-1044
-1034
-1014
-977
-947
-927
-887
-809
-719
-666
-653
-627
-544
-427
-340
-307
-295
-260
-208
-165
-144
-134
-135
-159
-195
-195
-119
8
109
144
149
193
291
396
458
483
502
528
548
554
560
577
588
571
527
482
454
430
394
350
326
335
349
335
292
245
213
188
140
66
1
-31
-44
-62
-74
-51
-24
-103
-354
-683
-921
-1032
-1183
-1520
-1920
-2059
-1779
-1292
-964
-885
-786
-378
295
900
1186
1208
1201
1295
1424
1467
1394
1268
1140
1008
850
674
510
371
245
111
-36
-169
-253
-283
-288
-303
-334
-359
-362
-363
-391
-448
-506
-524
-494
-434
-377
-352
-372
-416
-440
-405
-329
-279
-315
-433
-554
-589
-528
-454
-462
-560
-664
-686
-631
-591
-640
-756
-850
-874
-865
-902
-1012
-1149
-1256
-1329
-1394
-1460
-1514
-1555
-1613
-1691
-1742
-1709
-1600
-1501
-1494
-1556
-1591
-1526
-1384
-1255
-1189
-1167
-1148
-1118
-1080
-1030
-955
-860
-779
-724
-654
-512
-300
-92
33
69
80
113
154
162
141
123
126
127
110
106
159
263
349
358
307
264
264
273
251
196
144
108
74
32
3
8
40
66
78
92
114
127
105
67
54
82
109
91
42
19
58
137
214
275
335
399
448
480
524
613
730
822
868
907
982
1070
1100
1048
983
984
1038
1057
999
933
963
1086
1198
1211
1149
1107
1131
1172
1170
1145
1154
1203
1248
1270
1312
1393
1424
1281
981
692
531
402
126
-277
-532
-420
-46
268
373
456
776
1320
1811
2041
2065
2078
2159
2216
2158
2020
1885
1775
1641
1447
1222
1022
859
698
506
279
51
-120
-198
-193
-166
-176
-238
-322
-383
-395
-359
-311
-296
-338
-413
-450
-397
-274
-154
-98
-105
-125
-120
-99
-108
-170
-258
-315
-310
-259
-209
-190
-185
-164
-132
-134
-191
-261
-277
-229
-197
-259
-390
-473
-418
-268
-154
-155
-221
-248
-182
-60
43
77
40
-36
-95
-85
-6
80
105
73
61
139
297
459
559
601
631
689
780
894
1015
1126
1213
1283
1358
1458
1568
1644
1650
1594
1529
1505
1527
1555
1548
1504
1460
1443
1442
1428
1392
1359
1346
1334
1302
1263
1258
1303
1356
1361
1309
1250
1232
1251
1262
1234
1183
1141
1130
1139
1151
1153
1146
1139
1158
1208
1260
1271
1233
1199
1225
1301
1361
1342
1275
1249
1312
1415
1457
1408
1339
1346
1444
1541
1545
1471
1418
1462
1573
1654
1650
1591
1539
1517
1505
1475
1415
1329
1226
1146
1146
1227
1317
1359
1374
1430
1512
1486
1260
932
694
580
425
104
-231
-276
50
489
761
907
1219
1832
2521
2950
3043
3008
3045
3119
3053
2770
2362
1975
1674
1437
1221
1010
817
662
568
532
515
491
456
409
337
232
123
55
28
-14
-97
-160
-121
3
90
48
-73
-131
-65
43
63
-30
-132
-151
-109
-107
-206
-361
-492
-571
-628
-690
-744
-767
-768
-766
-759
-721
-653
-602
-625
-726
-849
-939
-981
-985
-963
-923
-868
-794
-677
-504
-321
-223
-274
-418
-491
-373
-111
123
227
298
527
980
1487
1806
1862
1808
1841
1993
2131
2155
2115
2133
2256
2423
2563
2681
2809
2945
3051
3111
3145
3167
3170
3149
3128
3135
3157
3146
3078
2982
2910
2885
2889
2891
2872
2851
2847
2848
2810
2693
2515
2351
2252
2181
2076
1951
1895
1960
2067
2072
1925
1724
1590
1527
1453
1331
1221
1199
1261
1342
1405
1475
1574
1671
1710
1679
1614
1560
1520
1475
1419
1378
1369
1381
1381
1341
1280
1245
1266
1319
1339
1280
1166
1077
1072
1120
1129
1035
882
785
806
879
904
884
916
1030
1097
944
592
267
144
118
-54
-422
-738
-740
-472
-209
-88
54
442
1031
1548
1822
1967
2181
2454
2584
2454
2181
1960
1839
1706
1484
1251
1122
1093
1039
884
675
508
409
321
191
48
-52
-94
-112
-122
-102
-43
14
4
-76
-152
-154
-97
-61
-96
-160
-173
-105
-8
53
64
50
34
14
-15
-46
-64
-77
-107
-155
-203
-246
-293
-356
-430
-488
-527
-579
-670
-782
-868
-902
-906
-916
-939
-954
-951
-951
-967
-976
-931
-814
-668
-556
-495
-435
-311
-124
61
165
182
171
195
253
306
342
394
488
604
701
778
883
1042
1224
1371
1467
1557
1669
1764
1783
1720
1631
1556
1471
1332
1167
1070
1098
1197
1251
1205
1129
1131
1237
1351
1355
1230
1075
999
1013
1041
1008
918
834
805
824
846
853
857
865
868
852
824
794
761
706
614
494
376
290
246
249
287
330
351
348
345
372
419
448
425
363
309
303
343
392
412
393
355
325
314
310
303
297
295
294
293
310
363
432
479
478
432
344
165
-149
-550
-906
-1149
-1353
-1629
-1932
-2054
-1851
-1430
-1038
-794
-575
-207
292
731
969
1034
1040
1030
973
870
779
734
697
614
499
424
425
454
434
353
256
202
208
243
275
302
346
423
516
596
653
714
803
897
945
933
917
956
1033
1076
1043
982
969
1013
1051
1023
953
913
934
992
1041
1069
1078
1066
1031
989
964
952
917
833
719
620
558
509
442
356
267
193
138
102
101
138
185
209
202
189
193
215
237
247
244
236
236
258
307
371
435
506
605
721
806
821
792
797
875
975
1013
964
899
898
958
1011
1004
959
935
955
980
954
869
776
730
740
756
719
627
531
480
467
446
391
314
230
118
-44
-219
-339
-379
-396
-464
-569
-626
-572
-434
-305
-246
-250
-280
-328
-415
-550
-695
-793
-809
-754
-662
-555
-426
-262
-75
87
169
155
78
-13
-86
-139
-184
-221
-238
-217
-161
-91
-30
12
38
45
21
-41
-119
-163
-137
-49
46
97
104
118
179
260
271
153
-39
-186
-253
-343
-567
-860
-994
-817
-437
-117
28
152
483
1036
1586
1905
1971
1941
1952
2004
2012
1909
1704
1463
1266
1154
1091
1005
849
661
519
451
405
331
241
187
192
230
265
289
299
274
205
125
76
54
15
-62
-137
-162
-154
-180
-258
-313
-257
-112
0
-19
-132
-208
-161
-41
29
-23
-157
-275
-326
-345
-390
-479
-572
-626
-630
-604
-580
-591
-653
-752
-833
-851
-825
-826
-894
-998
-1064
-1057
-1013
-983
-981
-997
-1019
-1037
-1023
-957
-869
-825
-851
-891
-854
-727
-576
-475
-417
-349
-246
-145
-78
-26
67
223
400
538
605
616
618
649
715
784
803
750
675
676
793
951
1019
932
771
681
711
751
649
388
123
32
140
299
344
251
124
62
60
48
-17
-103
-150
-137
-85
-14
74
176
265
297
264
204
168
169
177
173
164
180
225
271
294
298
299
292
252
186
126
102
99
75
18
-30
-43
-50
-94
-166
-197
-162
-133
-214
-395
-539
-540
-450
-433
-581
-815
-1011
-1148
-1295
-1494
-1722
-1973
-2293
-2664
-2918
-2861
-2527
-2199
-2120
-2205
-2132
-1730
-1199
-889
-919
-1090
-1149
-1065
-1006
-1099
-1302
-1492
-1627
-1778
-2017
-2321
-2602
-2808
-2954
-3098
-3267
-3431
-3548
-3606
-3626
-3646
-3694
-3772
-3866
-3949
-3997
-4006
-4007
-4036
-4104
-4183
-4235
-4232
-4168
-4051
-3896
-3720
-3536
-3355
-3189
-3063
-2993
-2969
-2973
-3002
-3068
-3154
-3205
-3183
-3121
-3083
-3073
-3011
-2854
-2691
-2667
-2806
-2965
-2984
-2877
-2809
-2887
-3032
-3068
-2924
-2696
-2524
-2453
-2414
-2330
-2189
-2029
-1886
-1770
-1678
-1600
-1523
-1432
-1323
-1206
-1089
-973
-849
-719
-586
-460
-344
-235
-126
-19
73
137
169
186
202
219
225
222
230
257
277
253
183
110
86
99
95
30
-76
-167
-213
-244
-310
-430
-577
-704
-783
-821
-842
-869
-909
-954
-987
-1002
-1003
-1004
-1006
-1004
-990
-963
-940
-931
-929
-907
-847
-770
-725
-737
-772
-769
-709
-638
-608
-616
-608
-551
-479
-447
-461
-485
-490
-493
-524
-577
-615
-608
-563
-515
-494
-504
-522
-517
-465
-386
-338
-354
-394
-378
-303
-285
-435
-698
-896
-952
-1013
-1270
-1663
-1881
-1699
-1259
-923
-857
-835
-529
87
690
974
952
887
965
1124
1188
1093
928
794
687
539
329
106
-81
-250
-451
-698
-930
-1079
-1147
-1200
-1288
-1391
-1456
-1479
-1518
-1607
-1710
-1763
-1763
-1778
-1854
-1954
-2002
-1979
-1939
-1944
-1994
-2039
-2048
-2042
-2059
-2098
-2139
-2176
-2222
-2276
-2307
-2291
-2254
-2261
-2344
-2453
-2507
-2483
-2446
-2467
-2551
-2631
-2646
-2604
-2562
-2565
-2609
-2665
-2707
-2736
-2756
-2768
-2765
-2738
-2680
-2598
-2504
-2404
-2295
-2170
-2045
-1949
-1895
-1856
-1782
-1650
-1480
-1313
-1164
-1015
-834
-615
-391
-214
-113
-69
-29
50
163
266
334
388
465
574
687
771
831
886
940
968
958
935
950
1010
1077
1104
1086
1061
1059
1070
1061
1014
940
872
832
825
839
852
853
855
877
919
950
936
878
813
782
780
785
777
763
754
752
760
783
821
860
871
848
812
796
798
796
774
741
705
665
611
558
531
541
556
534
467
402
391
426
440
376
258
185
233
353
419
377
317
371
510
535
301
-84
-369
-474
-599
-948
-1398
-1577
-1290
-770
-415
-317
-177
311
1062
1703
1993
2038
2103
2290
2473
2504
2385
2217
2069
1919
1725
1495
1274
1086
910
723
534
396
344
353
352
303
237
210
222
209
124
7
-52
-16
66
119
129
140
187
248
277
263
232
216
214
204
171
121
86
88
122
152
138
79
9
-33
-46
-56
-88
-136
-173
-182
-168
-146
-131
-139
-186
-265
-339
-374
-371
-362
-370
-383
-375
-342
-303
-273
-251
-230
-202
-161
-101
-25
52
109
152
200
263
329
395
471
576
701
820
924
1027
1132
1219
1263
1276
1290
1320
1343
1334
1309
1315
1376
1464
1528
1543
1528
1516
1523
1533
1530
1507
1475
1459
1475
1513
1540
1533
1497
1455
1422
1394
1365
1347
1355
1381
1395
1383
1363
1366
1385
1388
1352
1302
1275
1283
1310
1340
1375
1426
1482
1529
1566
1607
1652
1681
1678
1653
1633
1633
1645
1662
1683
1708
1737
1768
1807
1855
1897
1910
1899
1895
1918
1947
1948
1924
1925
1989
2075
2120
2118
2131
2189
2191
2003
1646
1320
1184
1141
943
532
182
236
722
1319
1719
1955
2304
2923
3646
4170
4353
4302
4213
4180
4177
4151
4075
3955
3808
3665
3561
3507
3460
3353
3166
2946
2768
2672
2626
2573
2501
2456
2478
2535
2545
2453
2294
2145
2054
2015
2020
2085
2217
2377
2507
2604
2720
2885
3041
3089
2993
2835
2723
2699
2717
2709
2648
2550
2438
2331
2249
2207
2188
2146
2042
1875
1687
1532
1434
1377
1314
1198
1026
851
738
698
681
634
562
518
526
542
506
431
391
436
529
587
584
575
630
748
854
885
846
797
791
835
900
964
1029
1107
1210
1333
1459
1564
1636
1680
1708
1718
1691
1621
1527
1440
1380
1336
1282
1208
1133
1084
1067
1063
1040
976
886
801
744
715
689
648
589
533
514
540
577
571
495
395
347
367
386
331
214
133
149
212
227
179
155
220
326
359
289
202
193
247
272
215
117
50
19
-20
-93
-179
-252
-313
-374
-426
-452
-463
-485
-516
-519
-469
-396
-363
-389
-433
-426
-327
-161
-7
29
-94
-288
-392
-354
-336
-545
-960
-1267
-1165
-720
-309
-188
-194
56
693
1434
1896
2013
2034
2185
2418
2538
2467
2317
2212
2139
2000
1777
1564
1445
1378
1258
1045
809
662
623
624
588
510
445
439
481
527
544
533
517
516
538
562
566
543
522
536
579
604
574
504
437
380
296
163
20
-62
-49
18
59
37
-23
-69
-83
-89
-131
-228
-365
-508
-627
-712
-778
-848
-936
-1035
-1120
-1159
-1144
-1102
-1074
-1085
-1125
-1162
-1174
-1155
-1117
-1086
-1087
-1129
-1181
-1197
-1153
-1072
-992
-931
-877
-818
-765
-722
-668
-577
-472
-415
-432
-467
-431
-307
-176
-132
-178
-224
-201
-130
-92
-125
-185
-221
-235
-272
-353
-448
-518
-556
-589
-635
-688
-736
-783
-837
-884
-898
-888
-904
-981
-1089
-1162
-1175
-1177
-1226
-1312
-1360
-1321
-1237
-1181
-1177
-1166
-1085
-944
-809
-723
-654
-543
-377
-200
-72
-5
40
104
192
278
348
413
491
586
682
781
895
1023
1141
1220
1260
1296
1357
1430
1489
1536
1599
1697
1806
1872
1888
1910
1982
2064
2044
1864
1625
1488
1478
1440
1233
958
897
1190
1648
1961
2060
2181
2557
3110
3540
3675
3629
3617
3690
3716
3596
3381
3176
3005
2814
2583
2361
2193
2046
1858
1633
1432
1297
1206
1092
928
751
608
501
399
274
145
53
16
14
9
-14
-45
-74
-115
-194
-309
-428
-518
-573
-623
-691
-758
-785
-756
-705
-694
-741
-814
-871
-911
-968
-1067
-1187
-1288
-1361
-1430
-1519
-1623
-1713
-1770
-1809
-1854
-1915
-1980
-2034
-2062
-2054
-2007
-1937
-1871
-1829
-1801
-1767
-1716
-1659
-1615
-1589
-1569
-1531
-1462
-1375
-1294
-1228
-1153
-1032
-873
-739
-691
-714
-716
-646
-555
-529
-581
-626
-584
-477
-393
-372
-374
-343
-285
-239
-221
-210
-198
-201
-220
-212
-131
8
128
171
152
128
126
120
79
7
-66
-114
-138
-146
-133
-84
-4
71
116
141
174
220
248
231
185
162
190
242
275
283
313
400
518
603
635
659
716
786
812
785
762
799
875
917
890
836
819
852
899
930
942
941
925
903
904
935
967
966
940
943
1021
1147
1228
1173
966
709
544
502
444
208
-169
-415
-273
206
691
918
966
1129
1540
2010
2261
2233
2099
2036
2038
1991
1850
1684
1553
1421
1216
939
675
493
361
202
8
-139
-148
-46
32
-9
-122
-186
-154
-114
-176
-324
-427
-396
-282
-207
-232
-317
-392
-438
-471
-495
-498
-482
-471
-489
-516
-509
-456
-392
-358
-367
-406
-447
-484
-521
-559
-588
-593
-579
-586
-650
-767
-878
-935
-961
-1034
-1186
-1355
-1449
-1441
-1403
-1406
-1431
-1401
-1299
-1197
-1170
-1197
-1182
-1083
-984
-989
-1092
-1167
-1110
-948
-821
-818
-887
-906
-815
-677
-600
-624
-688
-715
-689
-658
-658
-674
-667
-625
-580
-561
-559
-539
-497
-469
-494
-569
-660
-742
-823
-923
-1033
-1126
-1189
-1243
-1304
-1354
-1366
-1351
-1362
-1436
-1549
-1652
-1729
-1815
-1938
-2069
-2161
-2203
-2239
-2305
-2377
-2409
-2395
-2382
-2410
-2463
-2495
-2486
-2457
-2435
-2423
-2412
-2396
-2371
-2336
-2295
-2252
-2213
-2172
-2121
-2063
-2009
-1949
-1854
-1728
-1626
-1610
-1665
-1698
-1632
-1506
-1428
-1442
-1460
-1368
-1160
-974
-940
-1026
-1073
-968
-782
-700
-832
-1084
-1257
-1256
-1190
-1226
-1366
-1433
-1264
-898
-522
-245
11
385
882
1349
1635
1724
1714
1704
1724
1746
1710
1572
1340
1103
959
924
901
788
591
416
322
275
221
170
171
210
204
111
-11
-68
-45
-39
-126
-274
-372
-354
-255
-171
-168
-240
-335
-396
-406
-401
-434
-529
-646
-715
-706
-658
-619
-601
-575
-546
-561
-656
-800
-917
-974
-1015
-1094
-1212
-1308
-1330
-1287
-1227
-1198
-1224
-1292
-1370
-1427
-1449
-1455
-1471
-1486
-1460
-1367
-1248
-1165
-1124
-1062
-932
-779
-691
-690
-695
-610
-446
-300
-233
-194
-97
56
174
199
194
256
377
444
387
292
314
495
697
759
682
623
713
904
1032
991
832
703
684
727
743
705
660
649
659
646
610
589
607
622
569
446
330
302
356
414
413
359
303
290
305
315
295
253
208
169
136
103
73
56
57
54
20
-41
-84
-62
15
81
70
-9
-84
-101
-72
-53
-78
-136
-188
-200
-170
-116
-70
-61
-94
-134
-131
-80
-41
-49
-71
-44
12
-13
-179
-410
-576
-667
-808
-1061
-1291
-1286
-1018
-672
-428
-253
27
467
920
1202
1294
1323
1387
1453
1456
1402
1352
1322
1261
1134
991
912
905
880
752
544
370
317
350
355
275
162
108
137
179
174
141
143
193
250
266
239
205
188
186
181
165
136
113
123
171
218
210
128
21
-49
-67
-61
-71
-109
-162
-220
-271
-304
-320
-352
-430
-545
-648
-695
-692
-685
-712
-768
-823
-851
-849
-831
-823
-836
-865
-884
-871
-830
-779
-730
-690
-652
-614
-592
-587
-586
-561
-500
-412
-321
-228
-117
14
130
192
214
249
323
394
410
383
385
460
562
617
621
644
732
846
908
895
855
841
848
839
805
767
740
712
660
583
504
442
394
344
286
240
226
237
236
192
115
44
9
-4
-32
-85
-131
-141
-127
-122
-139
-152
-132
-99
-90
-112
-125
-98
-51
-26
-27
-5
77
190
264
267
239
232
243
230
167
87
37
24
17
-4
-22
-17
2
12
-9
-53
-97
-123
-132
-162
-256
-403
-532
-590
-629
-772
-1053
-1314
-1348
-1136
-883
-785
-784
-637
-220
324
740
935
1019
1111
1193
1192
1110
1024
958
842
625
368
181
96
27
-117
-330
-526
-634
-659
-652
-654
-671
-688
-699
-704
-720
-752
-796
-834
-854
-858
-862
-873
-888
-901
-924
-970
-1032
-1087
-1120
-1138
-1166
-1213
-1260
-1284
-1273
-1239
-1211
-1221
-1284
-1374
-1439
-1439
-1400
-1393
-1460
-1564
-1620
-1593
-1541
-1558
-1675
-1825
-1919
-1931
-1920
-1949
-2016
-2055
-2011
-1896
-1778
-1711
-1694
-1682
-1637
-1572
-1521
-1500
-1493
-1478
-1444
-1393
-1328
-1249
-1165
-1089
-1024
-951
-857
-751
-664
-612
-575
-524
-458
-403
-373
-348
-301
-245
-220
-240
-266
-245
-167
-73
1
58
109
141
131
91
67
76
63
-38
-227
-419
-536
-592
-668
-811
-980
-1092
-1109
-1065
-1022
-1008
-1001
-967
-897
-811
-736
-684
-643
-584
-492
-384
-289
-211
-129
-25
90
196
310
493
781
1129
1443
1661
1805
1911
1956
1872
1629
1288
958
699
519
412
391
467
612
775
926
1068
1194
1260
1239
1165
1103
1062
962
752
507
353
295
169
-160
-574
-770
-580
-171
152
305
512
998
1683
2248
2479
2473
2463
2534
2578
2495
2330
2196
2108
1976
1744
1471
1249
1087
912
681
432
235
118
40
-35
-105
-145
-157
-183
-250
-337
-394
-402
-395
-421
-489
-557
-585
-579
-586
-650
-768
-898
-1000
-1061
-1098
-1129
-1153
-1155
-1129
-1088
-1059
-1057
-1080
-1111
-1145
-1184
-1235
-1294
-1350
-1394
-1432
-1468
-1499
-1520
-1529
-1539
-1557
-1576
-1584
-1578
-1582
-1616
-1674
-1716
-1705
-1649
-1598
-1585
-1585
-1540
-1426
-1279
-1153
-1060
-970
-857
-733
-633
-572
-533
-488
-425
-346
-257
-163
-70
9
73
132
191
246
287
307
319
340
381
436
489
519
520
510
517
543
553
515
446
407
432
485
496
446
381
346
324
271
190
135
145
184
183
134
108
166
285
376
381
332
311
358
442
510
541
567
621
709
808
907
1009
1122
1234
1327
1396
1460
1530
1587
1594
1553
1507
1490
1497
1499
1488
1483
1499
1518
1516
1499
1509
1554
1597
1580
1486
1388
1392
1524
1670
1637
1351
964
712
650
575
282
-140
-342
-108
388
774
926
1096
1577
2308
2928
3169
3118
3060
3131
3223
3187
3000
2751
2512
2294
2110
1980
1898
1800
1627
1399
1185
1028
901
759
608
502
469
478
470
417
364
373
449
534
564
521
442
370
321
287
252
205
145
80
38
32
26
-28
-138
-239
-259
-198
-138
-150
-219
-278
-289
-281
-296
-341
-401
-473
-557
-636
-681
-688
-681
-678
-662
-605
-527
-479
-482
-505
-506
-488
-490
-527
-563
-552
-485
-386
-273
-145
-14
96
171
232
314
420
514
559
567
585
645
738
827
890
932
969
1019
1087
1168
1236
1266
1263
1270
1326
1421
1491
1480
1402
1322
1295
1323
1369
1400
1408
1407
1424
1463
1503
1500
1439
1360
1325
1351
1383
1372
1336
1348
1436
1536
1568
1532
1503
1522
1540
1484
1358
1255
1244
1297
1335
1331
1331
1394
1513
1630
1702
1735
1751
1754
1734
1701
1683
1682
1657
1570
1436
1317
1274
1308
1371
1421
1442
1438
1418
1402
1424
1499
1588
1608
1526
1420
1417
1541
1630
1479
1071
629
376
267
44
-410
-860
-934
-563
-75
175
217
393
913
1588
2047
2141
2049
2023
2118
2213
2214
2132
2018
1880
1698
1470
1217
962
713
491
310
159
28
-57
-54
25
86
39
-113
-274
-360
-378
-390
-436
-490
-495
-435
-340
-265
-250
-304
-395
-474
-515
-535
-566
-620
-669
-678
-648
-609
-589
-592
-613
-665
-753
-862
-955
-1016
-1053
-1081
-1100
-1099
-1084
-1076
-1073
-1053
-1002
-942
-906
-906
-924
-949
-983
-1024
-1056
-1067
-1070
-1089
-1106
-1062
-920
-715
-540
-456
-441
-419
-344
-237
-152
-112
-92
-59
1
84
198
353
534
690
778
802
815
844
868
850
790
734
718
734
753
764
788
836
879
878
833
786
776
798
804
772
746
789
896
982
958
836
717
676
677
623
486
341
278
302
356
408
489
615
733
769
721
671
681
721
714
640
566
569
643
723
745
714
686
692
710
694
644
601
612
662
692
685
700
797
930
976
885
755
720
782
807
699
547
538
722
938
964
756
499
396
425
353
10
-460
-687
-452
57
442
534
569
886
1499
2069
2287
2185
2036
2028
2104
2110
1993
1820
1675
1578
1497
1375
1182
937
715
581
501
381
199
55
33
86
81
-23
-114
-98
-29
-44
-183
-332
-376
-334
-319
-379
-461
-501
-511
-543
-599
-649
-702
-794
-926
-1043
-1109
-1159
-1250
-1363
-1404
-1336
-1256
-1293
-1445
-1575
-1587
-1535
-1562
-1718
-1910
-2015
-2008
-1971
-1969
-2010
-2064
-2119
-2187
-2262
-2318
-2329
-2302
-2254
-2197
-2135
-2084
-2060
-2035
-1951
-1801
-1648
-1575
-1575
-1552
-1441
-1289
-1194
-1175
-1134
-998
-821
-711
-687
-661
-560
-432
-362
-354
-326
-235
-141
-121
-154
-142
-39
82
119
61
-9
-9
56
118
120
73
17
-12
-4
16
21
-10
-71
-134
-175
-197
-227
-275
-306
-274
-189
-129
-173
-292
-360
-286
-123
-20
-62
-174
-215
-131
5
80
66
20
3
30
79
135
198
262
310
324
292
227
161
133
158
205
231
232
234
254
268
262
268
335
437
466
363
216
175
254
289
128
-168
-392
-453
-495
-686
-951
-1018
-746
-326
-63
-3
115
520
1107
1555
1697
1667
1692
1799
1829
1703
1534
1463
1451
1323
1012
687
561
633
687
558
314
160
171
212
139
-7
-72
-15
24
-76
-243
-297
-196
-100
-167
-349
-453
-389
-265
-249
-345
-425
-393
-308
-294
-376
-471
-486
-424
-366
-363
-399
-431
-456
-506
-597
-697
-769
-824
-904
-1005
-1067
-1034
-940
-880
-916
-1003
-1061
-1065
-1059
-1091
-1164
-1243
-1285
-1250
-1137
-998
-907
-884
-864
-790
-692
-657
-693
-686
-539
-307
-148
-137
-182
-145
-4
138
200
208
231
300
397
513
649
783
875
907
900
885
882
900
943
980
944
810
673
658
773
869
812
657
581
668
802
837
771
735
803
887
860
704
545
500
561
620
593
502
437
474
596
705
721
658
614
650
722
741
687
645
688
793
881
903
886
889
939
1013
1063
1037
924
783
716
761
845
859
792
730
754
835
896
914
926
942
921
859
814
833
887
904
861
795
707
545
310
83
-69
-203
-412
-648
-705
-455
-11
369
581
735
997
1373
1721
1895
1875
1755
1666
1679
1763
1795
1681
1470
1307
1264
1245
1112
865
642
538
488
386
258
209
269
326
273
159
116
174
217
145
7
-50
24
131
146
71
10
32
94
117
80
32
10
-21
-117
-252
-326
-267
-137
-82
-175
-320
-356
-237
-102
-132
-346
-592
-711
-710
-716
-814
-956
-1028
-995
-919
-863
-817
-745
-662
-629
-670
-735
-746
-686
-596
-525
-474
-421
-363
-305
-238
-145
-43
20
8
-30
-7
101
225
274
253
261
375
554
680
686
623
602
676
790
852
837
804
822
900
982
1017
1012
1009
1029
1052
1054
1047
1061
1091
1084
994
850
739
720
754
754
684
600
573
601
625
619
619
668
743
778
744
676
626
602
580
543
510
498
510
548
617
703
774
807
812
817
831
837
816
778
750
755
792
839
866
856
830
821
835
831
773
676
602
591
624
644
614
553
512
521
552
524
386
194
77
77
60
-142
-496
-733
-629
-260
64
164
194
436
957
1519
1850
1910
1865
1862
1899
1891
1793
1619
1403
1182
1004
889
812
724
611
512
446
371
259
154
129
186
226
173
82
62
114
117
-9
-166
-174
2
192
214
87
-9
44
181
237
151
7
-74
-47
37
102
113
87
60
52
31
-42
-164
-282
-356
-399
-468
-578
-662
-650
-535
-393
-293
-226
-135
-6
105
133
99
123
309
626
913
1028
991
936
951
977
894
681
450
319
298
312
325
384
540
758
930
990
983
999
1068
1138
1145
1090
1035
1030
1074
1139
1214
1308
1404
1445
1380
1241
1122
1093
1132
1151
1099
1017
969
959
923
824
699
613
580
556
510
464
450
465
479
497
561
693
845
935
920
824
687
523
329
121
-68
-224
-358
-471
-529
-496
-382
-252
-168
-145
-144
-123
-73
-20
0
-36
-112
-181
-203
-184
-166
-182
-222
-250
-260
-273
-304
-331
-323
-285
-260
-275
-312
-345
-388
-456
-518
-522
-477
-489
-634
-851
-1007
-1081
-1202
-1470
-1788
-1936
-1820
-1581
-1401
-1283
-1060
-630
-97
339
583
685
730
741
689
557
340
53
-256
-490
-585
-588
-625
-767
-933
-982
-895
-795
-808
-920
-1003
-982
-922
-935
-1052
-1187
-1242
-1197
-1111
-1054
-1046
-1064
-1091
-1126
-1180
-1254
-1330
-1379
-1374
-1313
-1241
-1209
-1229
-1249
-1201
-1072
-928
-850
-864
-921
-954
-935
-892
-870
-904
-990
-1095
-1167
-1184
-1176
-1209
-1310
-1456
-1603
-1731
-1840
-1912
-1911
-1817
-1663
-1513
-1395
-1275
-1096
-858
-642
-554
-637
-815
-941
-906
-739
-565
-480
-440
-314
-38
297
519
542
442
364
381
451
495
494
494
537
609
664
682
676
665
647
610
557
521
526
572
634
688
717
715
690
659
625
563
445
291
167
120
126
120
84
69
118
204
252
224
160
118
104
77
8
-75
-127
-118
-51
41
118
153
159
176
225
263
224
104
-9
-15
85
193
221
190
196
289
419
479
422
300
197
153
134
92
13
-79
-152
-187
-176
-126
-73
-47
-27
55
225
390
413
271
83
-65
-269
-704
-1350
-1921
-2137
-2037
-1905
-1899
-1845
-1472
-772
-55
385
543
631
791
970
1057
1038
991
962
925
854
788
787
848
879
796
616
452
418
524
681
814
919
1027
1125
1163
1131
1088
1083
1083
1029
930
875
925
1032
1099
1108
1131
1234
1391
1517
1544
1479
1371
1268
1189
1122
1034
917
822
833
980
1196
1381
1479
1492
1427
1259
967
592
218
-106
-386
-627
-776
-748
-528
-233
-34
-27
-164
-327
-444
-545
-694
-895
-1077
-1151
-1089
-932
-750
-594
-493
-448
-444
-456
-461
-446
-407
-346
-284
-247
-235
-211
-131
3
138
227
289
381
517
629
627
499
325
199
128
47
-94
-270
-409
-470
-476
-479
-513
-588
-702
-837
-950
-980
-911
-804
-734
-720
-711
-656
-566
-494
-468
-465
-454
-433
-418
-397
-340
-247
-158
-119
-126
-136
-115
-69
-13
57
159
283
393
452
466
462
461
459
446
428
419
427
441
451
460
473
490
506
512
507
499
511
548
593
617
607
592
627
719
788
723
493
207
10
-80
-202
-481
-830
-993
-802
-376
1
199
380
777
1386
1942
2202
2194
2145
2206
2319
2339
2222
2049
1902
1778
1626
1428
1215
1018
833
653
493
375
311
289
291
305
317
315
290
240
174
108
50
0
-38
-55
-48
-35
-43
-80
-123
-145
-141
-133
-145
-177
-216
-245
-255
-243
-219
-205
-217
-242
-247
-220
-199
-236
-348
-494
-622
-732
-867
-1046
-1223
-1326
-1329
-1279
-1239
-1221
-1201
-1164
-1132
-1128
-1145
-1160
-1174
-1206
-1260
-1297
-1269
-1164
-1024
-908
-841
-799
-734
-624
-492
-409
-421
-499
-546
-492
-370
-275
-252
-246
-165
-2
149
203
169
143
172
207
162
27
-123
-213
-245
-264
-284
-269
-189
-72
25
82
129
193
263
304
295
246
173
88
12
-43
-90
-163
-268
-359
-368
-276
-142
-50
-41
-87
-133
-150
-155
-176
-225
-296
-357
-385
-372
-334
-298
-280
-279
-283
-284
-287
-304
-342
-382
-389
-348
-287
-264
-307
-380
-418
-411
-419
-502
-633
-720
-705
-629
-579
-584
-602
-614
-654
-752
-857
-904
-939
-1099
-1426
-1771
-1960
-2032
-2208
-2581
-2932
-2957
-2643
-2306
-2201
-2207
-1983
-1404
-720
-272
-137
-112
3
195
319
285
131
-52
-204
-304
-365
-433
-561
-768
-1007
-1217
-1385
-1533
-1690
-1848
-1991
-2108
-2182
-2191
-2145
-2094
-2078
-2084
-2063
-2001
-1955
-1992
-2103
-2203
-2223
-2179
-2137
-2132
-2125
-2064
-1948
-1835
-1766
-1727
-1667
-1564
-1446
-1349
-1274
-1205
-1154
-1158
-1231
-1328
-1379
-1372
-1373
-1452
-1589
-1696
-1717
-1699
-1743
-1882
-2045
-2146
-2183
-2215
-2274
-2316
-2293
-2225
-2175
-2155
-2100
-1953
-1758
-1620
-1583
-1576
-1497
-1327
-1147
-1041
-1006
-971
-893
-787
-699
-648
-618
-580
-518
-433
-336
-261
-233
-246
-256
-224
-158
-122
-163
-257
-317
-292
-234
-234
-319
-415
-439
-406
-395
-434
-454
-384
-270
-234
-330
-477
-555
-556
-572
-672
-810
-899
-900
-848
-781
-701
-607
-523
-469
-428
-364
-273
-188
-127
-58
58
210
333
385
393
406
449
496
515
499
470
463
510
625
784
932
1012
1014
985
974
966
897
735
539
417
409
439
422
376
412
566
696
629
389
192
171
173
-59
-514
-834
-706
-249
117
172
166
487
1178
1876
2232
2260
2232
2324
2472
2530
2462
2324
2151
1952
1757
1611
1517
1403
1211
971
760
623
544
478
405
335
284
259
255
251
227
185
140
109
92
74
42
-13
-86
-151
-167
-118
-49
-19
-54
-109
-126
-100
-77
-97
-160
-241
-316
-379
-419
-429
-429
-454
-521
-602
-659
-688
-731
-822
-951
-1077
-1172
-1234
-1266
-1251
-1169
-1032
-890
-782
-696
-591
-450
-310
-215
-158
-101
-17
93
225
384
550
681
767
865
1028
1225
1347
1328
1257
1294
1485
1707
1814
1801
1800
1921
2136
2315
2360
2282
2165
2091
2074
2080
2059
1999
1935
1908
1920
1947
1970
1991
2005
1994
1951
1902
1867
1820
1717
1557
1414
1354
1350
1314
1202
1076
1023
1059
1115
1113
1043
958
904
882
862
815
743
673
635
642
678
721
767
816
860
873
841
784
737
717
701
656
582
512
486
513
569
605
588
522
458
446
493
545
540
476
421
445
533
611
640
648
669
649
501
243
19
-69
-114
-304
-642
-866
-712
-235
226
428
491
735
1282
1912
2309
2383
2300
2258
2300
2347
2324
2217
2043
1822
1599
1428
1328
1253
1129
937
725
559
472
436
400
338
253
166
92
37
15
41
103
154
162
141
128
132
107
16
-118
-225
-266
-259
-242
-219
-152
-18
156
294
321
213
11
-223
-453
-693
-956
-1210
-1386
-1440
-1400
-1329
-1259
-1185
-1112
-1073
-1091
-1147
-1199
-1232
-1265
-1315
-1362
-1376
-1354
-1317
-1280
-1237
-1175
-1091
-994
-886
-767
-645
-537
-448
-362
-255
-132
-36
-12
-48
-72
-8
148
323
435
471
491
555
661
751
768
721
669
659
686
707
699
687
708
765
806
778
684
582
535
542
549
500
387
255
177
197
292
391
436
439
462
534
612
625
569
512
501
505
459
362
291
300
355
382
363
356
399
451
444
392
387
491
648
735
711
666
721
885
1045
1087
1010
911
874
894
910
886
843
813
785
723
621
513
427
367
322
299
336
456
628
768
788
670
495
359
261
83
-266
-683
-898
-719
-235
267
603
864
1266
1863
2465
2838
2939
2904
2868
2825
2708
2510
2297
2113
1917
1651
1333
1045
827
632
405
174
52
124
342
562
681
714
737
790
835
825
765
694
628
573
553
611
744
861
853
715
561
486
454
346
122
-114
-231
-226
-213
-268
-337
-320
-226
-178
-267
-450
-613
-699
-748
-821
-928
-1036
-1116
-1168
-1216
-1293
-1416
-1582
-1748
-1854
-1870
-1825
-1776
-1746
-1705
-1597
-1413
-1208
-1065
-1025
-1056
-1097
-1104
-1080
-1046
-1015
-985
-947
-889
-785
-616
-418
-264
-203
-210
-216
-185
-147
-153
-206
-260
-283
-289
-305
-322
-302
-242
-186
-172
-186
-169
-99
-24
-20
-104
-209
-264
-270
-291
-364
-454
-503
-495
-475
-486
-515
-518
-483
-452
-462
-500
-522
-505
-463
-420
-375
-320
-267
-240
-234
-207
-137
-65
-48
-90
-119
-68
45
150
208
252
321
404
452
441
403
383
399
437
487
540
580
578
527
457
410
395
378
317
214
138
164
292
450
558
605
618
587
468
273
88
-29
-150
-378
-667
-787
-570
-127
265
480
675
1069
1638
2124
2334
2336
2339
2428
2503
2452
2293
2144
2068
2025
1945
1822
1702
1617
1547
1443
1269
1054
878
806
822
837
782
682
631
685
791
854
836
787
774
812
850
842
792
742
735
774
830
857
834
778
728
713
717
707
662
600
557
544
537
497
411
305
230
216
232
214
129
16
-39
7
103
149
96
-7
-63
-34
34
63
30
-16
-14
41
104
140
164
217
301
381
430
464
524
626
730
791
807
830
918
1071
1229
1327
1353
1364
1414
1508
1585
1594
1539
1472
1428
1397
1354
1303
1279
1300
1340
1352
1319
1273
1277
1360
1487
1587
1613
1579
1543
1535
1527
1458
1299
1085
884
739
647
584
534
494
471
473
504
559
618
670
733
835
982
1143
1276
1378
1477
1583
1655
1641
1538
1415
1354
1374
1424
1441
1430
1457
1578
1768
1936
2009
1997
1972
2000
2084
2175
2233
2256
2285
2361
2493
2646
2779
2863
2880
2845
2784
2716
2624
2459
2196
1880
1608
1430
1302
1160
1026
1029
1268
1689
2135
2517
2887
3327
3802
4168
4336
4356
4331
4282
4148
3906
3639
3448
3329
3194
2983
2743
2566
2476
2412
2303
2140
1972
1857
1802
1778
1756
1729
1708
1707
1716
1707
1657
1571
1488
1438
1411
1371
1295
1213
1168
1169
1188
1202
1219
1259
1311
1334
1304
1238
1171
1108
1037
955
884
844
820
784
729
676
638
608
566
497
391
247
82
-54
-115
-111
-107
-152
-228
-267
-234
-163
-112
-97
-80
-31
38
91
117
144
207
299
382
420
424
434
485
570
660
731
782
820
853
889
943
1014
1080
1112
1106
1098
1137
1229
1328
1375
1343
1270
1216
1215
1237
1225
1146
1036
962
964
1012
1039
1010
944
883
849
823
781
723
662
617
592
586
588
594
600
613
638
679
722
754
772
789
820
868
925
980
1038
1112
1207
1303
1367
1375
1347
1321
1318
1313
1264
1163
1053
991
993
1018
1028
1025
1031
1047
1042
997
946
935
969
998
983
946
927
942
979
1040
1128
1196
1143
934
679
535
503
407
120
-225
-329
-64
379
706
865
1070
1505
2077
2523
2697
2697
2707
2782
2830
2760
2590
2414
2288
2185
2032
1801
1533
1294
1114
961
787
601
471
434
448
427
347
275
276
321
324
261
206
246
361
433
388
279
224
265
330
339
298
281
313
340
304
225
167
139
83
-38
-161
-192
-136
-104
-195
-371
-516
-573
-603
-695
-843
-970
-1040
-1103
-1208
-1308
-1321
-1243
-1176
-1206
-1285
-1289
-1175
-1037
-993
-1040
-1072
-1016
-905
-819
-783
-759
-719
-674
-639
-595
-516
-419
-361
-363
-374
-321
-192
-52
24
27
17
59
152
235
249
188
93
11
-37
-64
-80
-83
-84
-103
-145
-193
-225
-241
-259
-291
-338
-405
-501
-618
-720
-778
-805
-847
-920
-985
-996
-962
-939
-960
-1005
-1039
-1063
-1102
-1160
-1206
-1221
-1229
-1267
-1328
-1372
-1381
-1381
-1404
-1451
-1484
-1482
-1464
-1459
-1471
-1483
-1482
-1481
-1501
-1547
-1608
-1670
-1725
-1773
-1809
-1830
-1839
-1843
-1847
-1841
-1821
-1801
-1802
-1816
-1804
-1752
-1690
-1649
-1612
-1537
-1460
-1497
-1697
-1950
-2100
-2154
-2295
-2625
-2956
-2962
-2566
-2047
-1720
-1554
-1221
-533
298
896
1134
1231
1430
1714
1892
1869
1757
1697
1690
1639
1508
1364
1274
1206
1086
907
740
654
637
622
572
515
499
531
570
578
563
561
585
610
610
586
570
578
591
583
559
556
594
637
628
556
478
449
453
419
308
174
105
118
129
52
-95
-208
-219
-182
-210
-348
-514
-596
-582
-566
-632
-764
-870
-890
-853
-836
-878
-956
-1017
-1031
-1009
-977
-957
-950
-935
-885
-790
-678
-600
-574
-563
-512
-407
-294
-225
-209
-214
-198
-144
-62
23
85
122
163
242
366
487
550
553
540
540
538
503
443
400
394
397
367
315
290
319
374
409
414
410
409
398
361
311
268
242
212
161
94
39
17
39
89
151
210
253
275
281
286
303
327
345
349
342
342
367
421
495
562
594
574
516
461
444
455
456
419
367
338
349
373
376
360
350
353
335
278
210
184
213
236
194
120
108
189
247
115
-205
-516
-654
-709
-925
-1355
-1702
-1623
-1142
-672
-559
-671
-559
6
751
1211
1230
1073
1078
1294
1515
1558
1431
1254
1095
950
808
675
534
335
66
-216
-428
-538
-593
-659
-741
-803
-814
-780
-744
-739
-754
-756
-732
-701
-687
-704
-745
-795
-833
-830
-774
-689
-616
-572
-536
-485
-425
-392
-399
-416
-412
-394
-399
-431
-451
-419
-350
-296
-290
-316
-335
-334
-340
-386
-480
-598
-688
-720
-701
-675
-673
-684
-662
-585
-488
-425
-415
-420
-393
-326
-242
-161
-85
-9
70
160
277
415
537
615
669
753
893
1044
1142
1184
1230
1318
1404
1420
1380
1378
1473
1603
1651
1583
1497
1501
1592
1662
1622
1500
1401
1383
1410
1411
1368
1317
1298
1303
1293
1253
1212
1197
1202
1191
1140
1066
1018
1017
1047
1071
1065
1031
995
989
1025
1079
1101
1064
998
978
1045
1159
1245
1278
1309
1392
1514
1610
1638
1621
1601
1591
1582
1562
1536
1518
1523
1561
1630
1693
1694
1627
1564
1575
1640
1649
1538
1371
1292
1360
1470
1490
1412
1344
1342
1305
1106
775
493
359
256
6
-349
-527
-318
148
528
654
719
1019
1590
2169
2484
2533
2521
2591
2695
2705
2576
2377
2180
1980
1741
1469
1231
1066
936
782
601
458
405
397
347
229
119
96
151
203
215
233
299
372
367
250
82
-74
-210
-356
-504
-606
-626
-590
-550
-530
-513
-476
-430
-406
-420
-454
-470
-450
-408
-375
-359
-345
-320
-307
-345
-444
-560
-640
-680
-724
-812
-930
-1021
-1047
-1026
-1015
-1043
-1078
-1056
-955
-821
-721
-670
-620
-527
-411
-340
-342
-374
-365
-293
-204
-146
-123
-90
-15
103
232
341
417
469
521
581
635
660
662
677
719
758
746
688
652
685
743
731
622
498
465
529
612
662
717
836
1001
1118
1120
1024
881
688
412
68
-247
-448
-541
-595
-637
-611
-462
-225
-9
100
125
151
222
300
310
238
149
126
175
222
213
192
264
471
731
927
1038
1161
1382
1647
1816
1815
1707
1603
1538
1472
1385
1332
1372
1473
1540
1527
1496
1544
1689
1833
1853
1738
1604
1569
1601
1516
1184
717
379
306
337
219
-58
-203
41
587
1107
1414
1634
1993
2504
2952
3177
3226
3229
3208
3086
2850
2586
2364
2146
1863
1546
1300
1177
1100
968
794
665
616
579
463
277
114
34
1
-70
-196
-312
-339
-286
-238
-265
-353
-429
-439
-402
-377
-394
-440
-478
-495
-500
-505
-511
-515
-534
-581
-644
-690
-705
-722
-781
-867
-927
-925
-893
-905
-998
-1135
-1259
-1354
-1454
-1584
-1731
-1848
-1897
-1875
-1807
-1733
-1676
-1633
-1584
-1522
-1467
-1455
-1490
-1525
-1502
-1408
-1293
-1209
-1144
-1038
-864
-673
-544
-500
-482
-419
-295
-149
-22
72
130
150
168
242
378
483
431
218
-2
-67
24
115
87
-14
-54
24
158
263
321
362
380
344
257
168
116
78
10
-93
-184
-223
-217
-204
-195
-185
-166
-144
-119
-76
-4
66
91
73
65
113
198
239
190
109
104
215
360
423
381
317
323
403
485
516
508
497
491
481
477
501
549
578
546
472
416
419
454
462
409
321
263
260
287
315
344
395
440
390
196
-66
-274
-408
-587
-899
-1220
-1294
-1020
-596
-305
-178
26
503
1123
1558
1645
1542
1512
1619
1705
1630
1438
1270
1175
1082
912
689
489
332
173
-3
-151
-209
-182
-142
-142
-169
-181
-179
-205
-289
-403
-491
-537
-582
-661
-754
-806
-800
-782
-812
-895
-972
-980
-922
-863
-873
-957
-1057
-1109
-1108
-1096
-1120
-1196
-1302
-1410
-1486
-1524
-1547
-1584
-1642
-1704
-1755
-1800
-1844
-1856
-1796
-1679
-1580
-1562
-1600
-1606
-1555
-1530
-1618
-1800
-1962
-2037
-2055
-2062
-2041
-1932
-1750
-1593
-1520
-1471
-1342
-1136
-969
-928
-953
-907
-748
-570
-474
-440
-367
-207
-22
95
137
170
260
408
571
725
865
978
1035
1034
1005
993
1007
1027
1034
1034
1038
1054
1077
1105
1152
1217
1267
1258
1188
1100
1062
1097
1152
1150
1067
964
933
1017
1175
1322
1408
1432
1434
1447
1475
1488
1443
1328
1197
1137
1177
1264
1315
1315
1330
1414
1532
1593
1556
1468
1408
1406
1433
1452
1455
1451
1449
1441
1413
1351
1247
1107
962
847
780
775
817
863
872
836
793
773
734
601
369
123
-72
-242
-433
-594
-585
-355
-36
193
322
517
899
1373
1718
1828
1793
1766
1788
1792
1711
1542
1313
1044
764
527
369
275
169
5
-182
-312
-330
-270
-234
-300
-453
-613
-711
-750
-777
-819
-844
-804
-701
-594
-535
-523
-515
-487
-467
-503
-610
-739
-816
-821
-796
-810
-876
-955
-1001
-1023
-1074
-1176
-1294
-1360
-1357
-1331
-1342
-1392
-1431
-1414
-1353
-1299
-1295
-1349
-1434
-1511
-1550
-1536
-1488
-1438
-1413
-1409
-1406
-1383
-1326
-1234
-1137
-1081
-1106
-1184
-1224
-1164
-1021
-877
-783
-709
-604
-465
-341
-270
-242
-242
-272
-338
-407
-426
-386
-333
-298
-256
-157
-25
51
13
-96
-179
-185
-161
-181
-259
-348
-400
-399
-362
-321
-323
-408
-553
-660
-626
-447
-229
-86
-27
38
169
314
362
278
131
17
-48
-131
-283
-457
-553
-526
-432
-371
-385
-424
-398
-278
-125
-17
24
43
97
188
268
294
277
261
261
251
206
150
129
156
196
217
217
228
261
320
404
498
544
484
346
232
207
223
184
74
-16
-24
-10
-71
-212
-364
-501
-672
-870
-966
-833
-512
-184
45
268
633
1121
1534
1697
1621
1453
1319
1239
1170
1076
953
816
676
534
381
205
3
-220
-466
-743
-1027
-1250
-1366
-1404
-1424
-1456
-1474
-1459
-1452
-1515
-1649
-1791
-1889
-1956
-2051
-2188
-2322
-2395
-2393
-2344
-2290
-2255
-2250
-2277
-2315
-2338
-2341
-2350
-2396
-2482
-2585
-2681
-2768
-2855
-2955
-3072
-3204
-3345
-3481
-3593
-3663
-3699
-3736
-3796
-3865
-3905
-3902
-3888
-3910
-3978
-4067
-4142
-4184
-4183
-4130
-4042
-3983
-4005
-4080
-4107
-4005
-3812
-3634
-3534
-3478
-3392
-3247
-3066
-2887
-2733
-2627
-2571
-2529
-2441
-2293
-2144
-2061
-2040
-2016
-1950
-1880
-1849
-1834
-1771
-1648
-1538
-1487
-1454
-1368
-1243
-1174
-1212
-1292
-1299
-1218
-1153
-1181
-1253
-1255
-1158
-1053
-1037
-1087
-1103
-1045
-984
-1000
-1079
-1122
-1058
-913
-775
-712
-715
-723
-683
-584
-470
-401
-415
-476
-507
-453
-344
-259
-240
-254
-225
-113
35
128
112
16
-84
-144
-185
-262
-383
-495
-543
-523
-481
-467
-491
-529
-542
-511
-442
-366
-331
-359
-409
-396
-291
-174
-185
-366
-611
-771
-823
-890
-1092
-1363
-1494
-1349
-1012
-677
-449
-258
4
345
680
930
1074
1121
1083
1006
966
997
1029
952
754
545
434
400
333
187
30
-68
-113
-164
-216
-184
-37
146
248
241
205
218
269
277
185
12
-193
-384
-524
-596
-600
-574
-563
-580
-607
-612
-582
-525
-457
-412
-424
-493
-561
-554
-464
-372
-372
-471
-579
-618
-595
-575
-604
-669
-739
-799
-843
-856
-823
-778
-777
-829
-877
-858
-795
-762
-782
-789
-720
-598
-528
-572
-685
-767
-765
-701
-620
-540
-458
-369
-266
-139
4
130
210
244
262
272
267
254
279
367
467
498
436
336
256
195
123
54
38
93
165
229
332
527
759
888
853
729
629
575
505
413
385
466
569
572
487
466
600
792
869
775
630
564
589
638
677
735
819
886
911
935
1016
1150
1271
1332
1349
1377
1418
1444
1450
1461
1491
1505
1463
1390
1362
1424
1526
1567
1509
1421
1404
1475
1558
1591
1595
1634
1725
1815
1845
1820
1786
1760
1709
1582
1375
1137
930
766
600
385
148
-11
11
213
499
776
1043
1343
1660
1918
2077
2182
2281
2322
2207
1961
1775
1831
2088
2308
2291
2064
1809
1632
1464
1186
781
347
4
-196
-260
-196
-23
194
339
349
268
183
123
13
-204
-456
-602
-590
-519
-511
-543
-482
-283
-83
-52
-186
-307
-278
-159
-99
-143
-206
-218
-219
-281
-398
-508
-576
-621
-660
-671
-644
-622
-644
-695
-726
-759
-850
