1191
1266
1322
1318
1279
1258
1265
1259
1199
1088
959
833
713
604
529
491
461
409
336
277
241
189
83
-68
-211
-309
-382
-468
-563
-627
-628
-584
-539
-518
-513
-511
-509
-514
-525
-534
-537
-532
-515
-479
-432
-388
-347
-294
-226
-162
-137
-158
-196
-213
-196
-164
-138
-125
-126
-146
-187
-237
-273
-276
-242
-190
-137
-91
-36
39
119
168
165
145
161
222
287
318
341
421
569
719
807
841
877
930
946
884
797
783
873
983
1017
971
937
984
1069
1081
962
757
571
468
436
426
407
372
333
302
291
314
360
398
392
337
267
218
176
94
-43
-180
-244
-213
-149
-128
-170
-240
-318
-435
-639
-941
-1277
-1559
-1750
-1875
-1972
-2023
-1957
-1731
-1399
-1069
-784
-476
-62
416
809
1025
1149
1353
1670
1950
2019
1883
1693
1561
1446
1232
898
536
245
36
-144
-325
-482
-572
-599
-594
-574
-528
-431
-283
-112
38
136
184
191
177
161
151
127
59
-48
-146
-191
-200
-244
-345
-436
-417
-285
-144
-99
-141
-160
-82
56
151
149
102
92
151
237
293
304
302
321
355
376
369
353
354
365
359
322
282
276
305
333
329
302
287
303
336
367
396
424
452
480
504
526
538
526
487
439
401
374
343
307
283
289
327
383
444
509
571
609
601
547
476
417
375
322
236
125
18
-60
-104
-115
-93
-51
-31
-78
-176
-244
-214
-111
-48
-107
-238
-313
-277
-202
-196
-271
-339
-336
-290
-267
-278
-265
-193
-107
-71
-86
-95
-52
26
89
107
88
60
60
110
209
311
355
324
266
261
332
427
474
455
421
440
534
666
777
838
857
862
873
885
882
856
814
759
702
672
678
695
679
617
569
608
716
779
703
539
447
517
659
701
587
447
431
533
603
540
408
343
385
442
410
296
194
178
227
266
248
196
158
157
185
211
225
236
257
286
311
329
357
406
468
519
549
569
595
623
642
660
686
713
720
701
684
695
715
704
662
645
697
777
787
683
527
419
380
334
212
37
-106
-173
-203
-270
-389
-507
-599
-707
-876
-1064
-1171
-1145
-1050
-979
-945
-868
-684
-415
-111
221
610
1033
1398
1641
1809
2007
2260
2454
2453
2250
1975
1754
1607
1476
1318
1147
999
897
842
823
833
862
883
885
874
869
885
920
953
965
955
942
931
898
811
678
566
540
601
660
622
485
354
325
389
439
403
320
285
320
339
267
140
73
123
228
285
271
257
312
411
466
416
287
145
40
-28
-80
-130
-166
-172
-144
-105
-76
-58
-54
-84
-163
-274
-356
-368
-351
-391
-509
-621
-633
-555
-505
-581
-749
-885
-903
-836
-787
-824
-913
-963
-918
-807
-712
-680
-688
-685
-641
-563
-461
-355
-279
-260
-272
-244
-141
-15
49
34
27
111
264
402
479
529
603
700
781
823
842
859
871
876
876
889
928
984
1041
1077
1080
1062
1050
1065
1092
1085
1020
918
828
789
805
844
864
837
776
728
734
787
825
796
710
628
595
595
577
521
474
480
532
577
574
562
591
652
662
572
439
371
394
418
348
223
170
245
351
345
213
74
37
66
37
-91
-241
-322
-335
-345
-377
-391
-359
-323
-342
-399
-416
-357
-282
-285
-385
-498
-537
-489
-419
-383
-380
-367
-306
-203
-99
-31
-6
-3
0
0
-17
-57
-96
-102
-73
-31
-1
25
72
144
213
254
272
296
349
421
483
524
554
594
644
687
699
670
612
550
509
495
488
468
428
385
360
348
315
220
75
-52
-102
-99
-134
-270
-465
-628
-740
-866
-1056
-1283
-1481
-1619
-1699
-1688
-1523
-1220
-912
-720
-596
-366
43
485
734
728
636
662
851
1079
1221
1275
1341
1509
1784
2078
2285
2353
2317
2245
2162
2027
1802
1523
1276
1109
977
803
584
401
323
343
387
407
418
462
545
632
701
762
825
859
826
726
602
496
417
356
313
310
359
456
576
662
629
397
-29
-537
-972
-1243
-1350
-1313
-1125
-771
-278
274
804
1258
1576
1702
1615
1369
1046
690
319
-3
-167
-127
27
157
234
366
630
927
1045
886
542
179
-114
-351
-561
-740
-900
-1111
-1428
-1819
-2176
-2396
-2439
-2279
-1889
-1284
-550
189
869
1499
2066
2463
2535
2222
1625
929
284
-238
-619
-851
-956
-986
-990
-965
-893
-833
-941
-1348
-2006
-2681
-3115
-3220
-3084
-2839
-2543
-2197
-1839
-1551
-1400
-1385
-1466
-1611
-1805
-2031
-2264
-2491
-2721
-2946
-3124
-3218
-3254
-3294
-3381
-3525
-3751
-4094
-4522
-4858
-4868
-4457
-3782
-3114
-2584
-2090
-1461
-689
27
454
523
376
235
240
386
564
678
723
766
880
1066
1263
1401
1453
1415
1297
1131
983
926
968
1032
1039
978
910
884
878
850
812
829
953
1178
1445
1691
1901
2095
2310
2579
2912
3266
3567
3769
3894
4004
4115
4161
4052
3771
3415
3117
2957
2905
2886
2855
2834
2895
3074
3303
3423
3318
3027
2689
2391
2092
1719
1319
1022
889
854
899
1192
1944
3082
4203
4899
5129
5182
5271
5267
4867
3984
2868
1862
1115
552
70
-324
-561
-651
-713
-870
-1152
-1506
-1889
-2307
-2763
-3206
-3537
-3692
-3697
-3632
-3556
-3488
-3436
-3419
-3436
-3448
-3401
-3255
-2974
-2521
-1890
-1138
-365
364
1065
1807
2625
3485
4298
4969
5431
5691
5831
5938
6019
5988
5779
5431
5061
4736
4431
4104
3778
3514
3324
3145
2916
2660
2443
2288
2139
1931
1669
1416
1221
1071
922
760
611
500
407
287
128
-36
-158
-228
-280
-343
-418
-491
-559
-625
-683
-718
-723
-715
-716
-719
-699
-655
-627
-653
-724
-782
-793
-787
-818
-902
-985
-1007
-962
-900
-868
-861
-845
-809
-780
-791
-834
-874
-884
-875
-868
-868
-864
-850
-833
-820
-806
-786
-774
-776
-776
-742
-670
-597
-559
-553
-549
-540
-557
-619
-695
-734
-727
-723
-758
-790
-744
-614
-480
-420
-408
-329
-93
275
668
973
1137
1148
1024
818
599
412
240
45
-171
-342
-400
-357
-289
-272
-332
-469
-689
-977
-1272
-1472
-1519
-1433
-1258
-1002
-637
-168
323
734
1024
1213
1334
1380
1329
1201
1068
1008
1039
1099
1112
1046
938
854
833
866
918
961
986
986
969
951
955
992
1040
1065
1060
1053
1066
1086
1081
1047
1025
1058
1144
1238
1292
1297
1278
1260
1255
1259
1258
1239
1200
1146
1096
1058
1026
982
903
789
663
552
445
296
76
-179
-363
-383
-247
-54
100
176
180
114
-28
-220
-413
-606
-867
-1249
-1686
-2013
-2116
-2051
-1982
-2019
-2127
-2193
-2159
-2063
-1971
-1907
-1855
-1795
-1722
-1629
-1493
-1308
-1109
-953
-866
-826
-785
-717
-628
-533
-431
-319
-214
-150
-144
-174
-186
-147
-68
13
76
134
205
284
348
387
413
439
464
466
425
336
214
88
-5
-55
-93
-160
-261
-357
-426
-505
-649
-870
-1113
-1325
-1492
-1611
-1654
-1573
-1362
-1077
-760
-387
102
707
1345
1905
2333
2645
2889
3085
3218
3250
3146
2911
2598
2282
1998
1728
1448
1171
946
808
744
706
660
605
556
515
467
391
289
183
106
80
97
137
186
245
320
413
520
634
750
855
934
980
1024
1113
1271
1471
1653
1783
1885
2000
2127
2206
2180
2060
1919
1821
1757
1669
1522
1337
1168
1042
935
811
658
495
341
195
49
-85
-183
-234
-266
-333
-463
-630
-773
-858
-918
-1012
-1159
-1314
-1429
-1514
-1635
-1848
-2157
-2539
-2971
-3396
-3705
-3787
-3644
-3397
-3155
-2880
-2430
-1757
-1021
-465
-203
-152
-165
-184
-249
-393
-586
-781
-957
-1099
-1169
-1126
-995
-861
-790
-781
-791
-787
-761
-701
-596
-473
-399
-413
-453
-419
-278
-122
-68
-130
-207
-210
-166
-173
-279
-423
-511
-511
-479
-476
-508
-536
-534
-509
-473
-417
-329
-222
-134
-87
-59
-5
97
211
269
237
154
104
122
169
168
96
11
-16
16
29
-31
-128
-171
-127
-65
-87
-201
-319
-354
-320
-312
-404
-571
-730
-842
-955
-1142
-1402
-1657
-1838
-1945
-2007
-1987
-1803
-1440
-1036
-780
-726
-726
-590
-288
35
228
298
383
584
880
1165
1361
1453
1454
1374
1244
1116
1050
1057
1103
1145
1178
1234
1344
1504
1680
1826
1910
1926
1896
1863
1876
1954
2067
2158
2195
2197
2203
2228
2245
2242
2241
2266
2309
2321
2266
2148
2004
1873
1787
1780
1866
2007
2129
2174
2147
2084
1983
1798
1505
1155
837
593
385
161
-69
-251
-366
-474
-672
-997
-1382
-1712
-1922
-2032
-2090
-2101
-2019
-1816
-1517
-1171
-782
-305
267
846
1310
1623
1872
2159
2481
2720
2766
2618
2360
2077
1805
1546
1310
1114
962
843
746
670
625
616
626
627
599
550
506
486
488
496
496
489
469
425
360
306
300
346
404
428
412
390
393
414
422
408
391
396
414
415
386
354
362
413
467
482
452
414
398
395
383
353
324
312
312
300
267
233
217
218
219
202
168
130
98
69
34
-11
-64
-112
-151
-182
-213
-247
-281
-309
-326
-333
-342
-369
-416
-472
-522
-553
-562
-556
-554
-570
-599
-620
-617
-601
-601
-626
-653
-655
-643
-650
-689
-724
-704
-628
-557
-550
-597
-626
-587
-503
-447
-469
-533
-549
-460
-310
-210
-214
-267
-260
-159
-45
-17
-72
-112
-68
20
72
77
95
166
244
266
237
233
289
359
377
345
330
374
445
485
483
478
492
501
470
422
403
422
440
421
384
371
398
425
415
390
402
465
532
555
544
550
595
643
643
596
537
494
455
404
350
303
246
154
42
-22
20
149
277
342
360
384
430
466
454
399
322
235
140
72
79
177
318
442
528
599
680
770
854
914
928
884
807
767
819
931
1001
971
894
873
934
997
982
908
856
872
909
898
831
755
701
658
596
522
462
426
400
375
360
357
348
308
248
212
231
288
334
325
263
194
165
187
223
212
128
-1
-130
-245
-374
-548
-761
-967
-1134
-1249
-1309
-1291
-1182
-985
-738
-472
-179
183
650
1194
1729
2154
2430
2614
2803
3020
3174
3131
2851
2436
2043
1744
1495
1216
895
597
384
266
218
216
238
240
188
94
10
-26
-36
-69
-133
-182
-187
-178
-212
-284
-334
-315
-253
-223
-260
-324
-354
-337
-309
-310
-336
-348
-320
-266
-221
-209
-221
-237
-243
-247
-262
-290
-318
-334
-344
-366
-408
-444
-445
-410
-373
-367
-385
-400
-403
-409
-435
-463
-469
-467
-486
-522
-524
-451
-330
-236
-206
-202
-163
-82
0
43
60
90
153
241
334
417
479
519
551
586
614
604
543
472
452
495
539
514
426
358
369
420
407
279
103
-11
-28
-21
-69
-168
-241
-239
-195
-171
-184
-192
-162
-111
-84
-88
-93
-61
7
85
149
201
249
300
341
366
381
403
442
501
566
613
623
601
584
607
651
625
441
97
-300
-614
-781
-817
-741
-529
-166
295
745
1111
1402
1646
1795
1740
1432
965
532
281
229
292
380
461
566
734
965
1201
1340
1312
1143
936
789
725
706
709
764
888
1029
1097
1056
974
941
958
929
769
490
174
-108
-337
-489
-499
-313
8
299
419
369
268
198
134
3
-182
-296
-218
53
414
772
1104
1415
1655
1733
1609
1348
1062
830
654
515
419
388
423
488
534
521
423
221
-81
-445
-810
-1127
-1392
-1625
-1843
-2056
-2274
-2523
-2811
-3103
-3343
-3503
-3622
-3753
-3884
-3933
-3864
-3777
-3834
-4070
-4296
-4250
-3871
-3377
-3075
-3086
-3292
-3511
-3689
-3910
-4277
-4819
-5479
-6140
-6650
-6885
-6843
-6658
-6481
-6343
-6144
-5789
-5295
-4761
-4261
-3804
-3371
-2929
-2433
-1853
-1236
-696
-314
-50
180
381
472
434
377
411
488
440
228
50
136
477
831
1007
1077
1269
1701
2258
2736
3022
3144
3186
3197
3162
3019
2721
2312
1940
1769
1833
2009
2150
2244
2397
2674
2998
3213
3237
3108
2936
2809
2765
2803
2889
2964
2983
2958
2958
3025
3126
3177
3136
3043
2967
2926
2892
2857
2836
2822
2756
2594
2407
2351
2520
2832
3113
3300
3502
3848
4299
4652
4734
4560
4311
4178
4240
4455
4730
4986
5194
5356
5482
5560
5564
5499
5400
5276
5108
4880
4650
4509
4500
4544
4505
4304
3959
3529
3070
2628
2234
1905
1629
1388
1167
953
709
400
36
-334
-675
-1007
-1356
-1676
-1863
-1847
-1673
-1458
-1288
-1169
-1066
-953
-849
-799
-849
-1011
-1219
-1348
-1299
-1098
-862
-690
-582
-470
-330
-221
-234
-394
-650
-925
-1164
-1340
-1440
-1457
-1404
-1311
-1219
-1147
-1079
-982
-852
-749
-755
-889
-1077
-1204
-1223
-1182
-1158
-1162
-1148
-1091
-1024
-995
-991
-956
-868
-772
-724
-725
-718
-662
-565
-463
-388
-363
-422
-589
-820
-1014
-1074
-992
-846
-720
-632
-538
-394
-211
-42
55
52
-45
-210
-394
-536
-590
-564
-513
-483
-475
-452
-391
-308
-241
-214
-227
-267
-323
-382
-425
-436
-404
-326
-215
-111
-72
-115
-191
-231
-217
-209
-282
-443
-627
-765
-843
-889
-927
-955
-965
-959
-945
-934
-930
-927
-908
-858
-786
-723
-693
-678
-634
-551
-464
-426
-439
-448
-388
-245
-66
84
169
195
192
187
190
190
163
99
8
-95
-202
-304
-386
-434
-467
-530
-647
-756
-725
-469
-50
366
669
916
1270
1822
2497
3121
3580
3893
4159
4445
4723
4899
4895
4699
4383
4040
3716
3396
3057
2726
2468
2325
2273
2251
2228
2216
2211
2184
2105
1985
1875
1816
1795
1767
1710
1645
1600
1572
1535
1485
1452
1468
1519
1545
1502
1412
1344
1329
1325
1252
1086
871
662
467
263
46
-150
-295
-401
-506
-626
-746
-841
-910
-978
-1075
-1209
-1358
-1476
-1530
-1529
-1523
-1547
-1573
-1543
-1444
-1337
-1297
-1325
-1347
-1301
-1210
-1146
-1142
-1155
-1115
-1007
-883
-805
-788
-796
-787
-748
-697
-659
-647
-647
-630
-573
-481
-378
-269
-121
96
335
483
483
421
457
639
827
834
644
441
413
553
691
694
567
398
241
94
-33
-100
-94
-62
-61
-81
-40
129
399
668
847
923
944
968
1013
1065
1099
1115
1124
1139
1160
1180
1196
1201
1192
1168
1129
1066
966
831
687
559
444
317
165
1
-147
-277
-410
-555
-703
-835
-959
-1091
-1232
-1357
-1457
-1549
-1660
-1786
-1890
-1936
-1934
-1934
-1971
-2032
-2068
-2049
-1990
-1934
-1905
-1892
-1874
-1848
-1825
-1807
-1777
-1719
-1646
-1581
-1531
-1485
-1426
-1349
-1254
-1136
-997
-851
-703
-537
-335
-108
105
281
444
622
798
916
957
983
1071
1216
1333
1359
1336
1349
1429
1521
1563
1558
1552
1554
1523
1445
1366
1347
1374
1368
1286
1174
1104
1078
1036
945
847
801
790
745
646
562
572
664
738
709
594
480
432
451
496
533
551
565
603
679
763
790
715
544
323
78
-201
-513
-785
-910
-829
-592
-314
-67
170
462
811
1119
1245
1129
856
575
376
235
72
-139
-353
-514
-618
-703
-804
-927
-1071
-1227
-1365
-1432
-1379
-1203
-950
-669
-372
-36
365
841
1356
1836
2204
2434
2566
2663
2741
2760
2656
2395
1992
1512
1066
747
556
385
126
-197
-444
-514
-477
-513
-727
-1055
-1360
-1580
-1758
-1952
-2153
-2297
-2344
-2315
-2263
-2221
-2180
-2104
-1969
-1800
-1662
-1597
-1580
-1543
-1436
-1275
-1120
-1012
-942
-878
-806
-748
-740
-790
-840
-797
-601
-279
81
413
727
1069
1443
1778
1986
2034
1966
1858
1767
1714
1687
1670
1660
1668
1714
1790
1870
1926
1946
1929
1878
1807
1745
1725
1756
1807
1830
1815
1795
1808
1853
1903
1939
1972
2014
2052
2066
2048
2015
1974
1903
1774
1612
1483
1440
1459
1457
1375
1234
1100
1014
944
831
641
389
115
-154
-405
-640
-863
-1076
-1277
-1460
-1620
-1747
-1828
-1848
-1809
-1730
-1637
-1543
-1438
-1310
-1156
-991
-843
-739
-683
-654
-624
-578
-533
-518
-534
-552
-543
-512
-491
-494
-502
-487
-450
-420
-406
-388
-339
-273
-236
-252
-288
-282
-207
-95
-5
48
101
195
322
434
494
518
545
593
636
644
623
608
620
645
658
651
643
649
658
653
628
597
573
566
569
568
553
513
460
421
416
438
454
439
399
363
352
356
343
286
185
71
-18
-61
-65
-60
-69
-89
-104
-104
-94
-87
-86
-93
-115
-162
-218
-239
-194
-106
-36
-15
-7
49
161
275
333
341
349
388
435
447
414
367
341
336
326
298
260
225
196
165
140
147
194
250
275
268
267
310
378
416
394
337
284
241
184
104
19
-45
-91
-151
-254
-402
-575
-755
-939
-1138
-1351
-1558
-1711
-1761
-1693
-1532
-1325
-1106
-858
-528
-72
491
1057
1505
1801
2009
2222
2446
2595
2587
2419
2159
1879
1617
1384
1172
958
717
473
287
196
173
150
106
80
104
147
152
122
120
184
275
315
286
241
242
295
361
420
486
575
670
734
746
722
692
672
666
675
692
702
683
621
534
454
396
347
288
220
181
215
328
487
646
780
889
973
1009
959
812
597
372
179
32
-71
-139
-177
-181
-146
-72
23
98
112
63
-13
-73
-101
-106
-101
-96
-96
-100
-99
-83
-61
-61
-98
-156
-199
-207
-196
-201
-236
-291
-345
-376
-372
-341
-317
-330
-368
-390
-360
-299
-261
-262
-264
-223
-148
-85
-57
-39
7
88
167
212
217
201
180
155
121
76
29
-8
-21
0
50
122
207
289
352
388
395
373
319
229
120
26
-31
-69
-117
-166
-182
-159
-134
-147
-186
-203
-195
-219
-312
-426
-470
-414
-335
-323
-381
-433
-426
-387
-374
-405
-449
-481
-507
-535
-551
-544
-529
-538
-574
-599
-577
-520
-480
-490
-521
-517
-457
-377
-326
-317
-316
-284
-230
-199
-217
-257
-269
-228
-157
-95
-58
-25
34
129
243
353
438
485
484
433
357
291
246
198
126
53
27
53
81
65
20
10
58
106
89
20
-17
27
111
160
158
168
240
352
438
468
477
511
575
644
702
769
866
981
1084
1163
1231
1308
1388
1449
1479
1481
1469
1456
1446
1437
1424
1406
1384
1367
1362
1360
1333
1266
1170
1071
972
853
699
532
373
224
62
-123
-323
-524
-731
-944
-1138
-1264
-1289
-1221
-1107
-996
-905
-800
-595
-209
347
945
1433
1768
2043
2360
2694
2912
2910
2716
2450
2209
2016
1853
1706
1569
1438
1325
1252
1234
1247
1244
1186
1086
992
948
961
969
864
567
101
-398
-766
-911
-855
-691
-515
-362
-193
58
403
757
974
987
875
797
860
1047
1271
1477
1652
1776
1800
1703
1536
1383
1278
1169
983
718
450
282
272
377
484
462
258
-45
-275
-333
-308
-409
-775
-1343
-1922
-2354
-2586
-2612
-2416
-1992
-1389
-694
59
860
1626
2171
2316
2037
1476
797
94
-575
-1117
-1435
-1512
-1423
-1246
-997
-682
-382
-222
-277
-524
-892
-1314
-1733
-2088
-2363
-2648
-3081
-3692
-4328
-4768
-4905
-4797
-4541
-4141
-3556
-2806
-2025
-1350
-825
-431
-179
-125
-297
-636
-1020
-1336
-1515
-1536
-1435
-1288
-1165
-1096
-1083
-1152
-1372
-1765
-2242
-2643
-2868
-2952
-2980
-2982
-2921
-2769
-2581
-2458
-2452
-2528
-2614
-2664
-2677
-2686
-2744
-2914
-3224
-3631
-4051
-4422
-4772
-5179
-5675
-6198
-6650
-6976
-7188
-7309
-7316
-7165
-6855
-6439
-5971
-5455
-4869
-4217
-3543
-2881
-2227
-1560
-896
-272
300
849
1410
1970
2484
2937
3354
3768
4172
4533
4825
5063
5278
5483
5660
5780
5831
5836
5819
5787
5729
5634
5507
5364
5212
5055
4896
4748
4603
4436
4232
4018
3851
3754
3692
3619
3541
3509
3541
3580
3542
3404
3233
3111
3049
2990
2890
2777
2719
2736
2778
2789
2773
2785
2829
2808
2585
2138
1634
1324
1340
1589
1858
2017
2121
2317
2659
3033
3256
3224
2973
2620
2276
2017
1882
1847
1821
1700
1478
1270
1187
1200
1148
911
558
274
171
193
222
215
211
220
174
4
-269
-547
-760
-910
-1016
-1050
-960
-748
-494
-276
-105
88
380
773
1191
1528
1724
1806
1875
2027
2260
2454
2466
2242
1864
1466
1117
801
498
259
185
335
667
1086
1531
1992
2451
2828
3007
2943
2704
2421
2186
2002
1832
1659
1512
1433
1436
1498
1582
1641
1631
1533
1376
1225
1135
1108
1102
1082
1050
1026
999
926
780
588
414
298
223
147
52
-50
-149
-259
-401
-563
-710
-808
-862
-902
-947
-993
-1023
-1033
-1035
-1040
-1048
-1054
-1060
-1075
-1106
-1146
-1178
-1193
-1194
-1194
-1203
-1212
-1211
-1196
-1181
-1176
-1183
-1194
-1204
-1220
-1254
-1301
-1329
-1309
-1243
-1168
-1123
-1107
-1081
-1005
-890
-784
-717
-663
-573
-435
-297
-229
-253
-335
-423
-493
-560
-649
-764
-876
-926
-872
-719
-520
-333
-166
11
205
385
520
646
836
1117
1428
1681
1852
1970
2051
2065
1966
1758
1489
1209
950
738
608
575
619
698
780
855
919
960
972
959
926
872
804
748
741
780
820
802
703
567
454
389
339
256
132
7
-75
-108
-126
-165
-225
-290
-343
-378
-390
-380
-356
-325
-281
-213
-133
-69
-41
-30
0
55
96
89
57
62
138
256
355
410
456
536
634
690
675
632
654
782
978
1179
1380
1620
1897
2120
2188
2105
1993
1952
1933
1774
1377
842
404
216
213
198
38
-208
-371
-350
-195
-40
23
8
-15
-1
51
112
156
176
172
152
137
141
174
243
340
440
516
551
551
537
529
527
524
512
488
458
433
431
458
501
535
543
535
531
551
592
642
685
718
738
738
712
659
581
479
346
182
4
-158
-304
-468
-672
-897
-1099
-1273
-1458
-1668
-1840
-1874
-1742
-1520
-1305
-1108
-854
-487
-34
412
779
1048
1236
1371
1480
1570
1604
1519
1284
948
605
306
29
-261
-553
-786
-906
-919
-887
-865
-870
-885
-893
-899
-920
-958
-992
-1003
-997
-1004
-1050
-1114
-1161
-1172
-1177
-1211
-1273
-1317
-1298
-1229
-1166
-1151
-1166
-1146
-1046
-882
-721
-623
-593
-590
-570
-524
-478
-459
-467
-477
-469
-446
-427
-406
-355
-252
-118
-4
48
46
33
52
106
169
209
222
228
245
280
329
387
438
451
413
357
366
493
696
855
894
856
850
913
990
1030
1066
1165
1315
1434
1487
1557
1751
2036
2238
2208
1964
1683
1531
1547
1650
1735
1757
1742
1754
1850
2012
2139
2119
1923
1646
1429
1350
1379
1426
1432
1411
1413
1462
1534
1589
1609
1606
1596
1570
1510
1418
1335
1288
1249
1150
946
666
398
198
46
-116
-326
-550
-730
-845
-927
-1041
-1214
-1408
-1550
-1598
-1576
-1563
-1613
-1701
-1752
-1738
-1716
-1769
-1899
-2003
-1979
-1836
-1690
-1638
-1653
-1634
-1515
-1346
-1231
-1213
-1237
-1221
-1150
-1083
-1069
-1095
-1110
-1091
-1069
-1084
-1127
-1157
-1140
-1084
-1022
-963
-883
-759
-601
-448
-337
-267
-207
-129
-37
40
91
134
208
323
448
548
629
724
847
972
1062
1114
1167
1250
1355
1444
1508
1577
1682
1818
1939
2010
2042
2079
2151
2247
2335
2404
2466
2529
2582
2606
2604
2601
2605
2589
2521
2398
2263
2163
2111
2071
1997
1878
1744
1643
1595
1577
1541
1453
1321
1179
1057
949
829
683
515
351
209
94
1
-79
-152
-217
-261
-263
-218
-156
-119
-134
-191
-253
-290
-303
-314
-348
-412
-497
-585
-673
-781
-920
-1083
-1254
-1426
-1604
-1765
-1850
-1789
-1574
-1259
-922
-592
-235
206
764
1405
2031
2537
2889
3142
3388
3646
3843
3885
3751
3508
3236
2966
2701
2451
2238
2071
1941
1846
1800
1816
1874
1930
1947
1917
1862
1816
1806
1826
1832
1789
1702
1612
1539
1465
1368
1258
1165
1094
1014
906
788
680
573
442
293
172
101
53
-22
-130
-230
-296
-346
-406
-473
-520
-554
-610
-696
-766
-770
-728
-712
-759
-816
-810
-747
-714
-775
-887
-956
-945
-895
-866
-866
-863
-851
-850
-868
-886
-880
-865
-878
-930
-992
-1033
-1048
-1047
-1036
-1023
-1026
-1051
-1080
-1082
-1047
-993
-951
-937
-943
-949
-934
-885
-820
-772
-762
-765
-744
-687
-632
-620
-646
-670
-662
-624
-573
-530
-505
-499
-494
-459
-380
-278
-198
-158
-135
-99
-39
36
118
213
313
393
431
445
480
545
615
656
672
692
741
799
827
830
850
928
1042
1114
1107
1063
1058
1110
1152
1114
1010
931
937
987
992
923
837
800
822
854
846
790
704
616
555
545
583
624
617
556
501
511
594
700
778
826
874
944
1024
1085
1119
1152
1213
1292
1334
1298
1213
1164
1202
1278
1295
1224
1130
1090
1107
1123
1110
1098
1116
1134
1108
1050
1025
1052
1079
1050
979
932
941
971
976
959
946
946
944
941
955
996
1032
1032
1006
993
1010
1032
1019
960
885
824
790
770
740
688
627
588
582
595
591
560
524
513
530
554
570
582
606
640
667
670
644
601
565
556
571
572
524
425
324
276
286
313
310
263
202
163
153
155
149
114
31
-104
-270
-425
-543
-644
-780
-967
-1164
-1318
-1435
-1574
-1776
-2011
-2221
-2388
-2540
-2678
-2737
-2645
-2409
-2115
-1830
-1526
-1114
-547
120
758
1259
1598
1837
2054
2260
2384
2332
2074
1685
1276
906
566
230
-91
-362
-560
-702
-820
-921
-991
-1023
-1032
-1052
-1105
-1177
-1232
-1247
-1227
-1197
-1168
-1136
-1096
-1053
-1015
-974
-921
-864
-817
-779
-744
-711
-705
-738
-783
-802
-805
-834
-910
-987
-1000
-946
-896
-903
-937
-916
-792
-593
-381
-203
-75
8
72
146
237
299
271
142
-19
-123
-142
-126
-140
-194
-249
-259
-218
-156
-112
-92
-72
-24
43
83
49
-56
-183
-303
-446
-652
-899
-1098
-1171
-1124
-1013
-848
-569
-113
477
1050
1470
1706
1818
1875
1898
1863
1751
1579
1396
1254
1196
1231
1325
1426
1490
1509
1492
1453
1416
1395
1378
1328
1238
1161
1168
1270
1382
1417
1377
1346
1382
1457
1514
1543
1574
1620
1661
1691
1754
1872
1970
1914
1654
1312
1084
1072
1208
1348
1414
1456
1562
1756
1976
2145
2230
2210
2052
1723
1246
714
210
-277
-812
-1372
-1769
-1773
-1327
-629
36
535
942
1367
1778
1994
1873
1446
889
371
-49
-387
-659
-865
-1032
-1223
-1478
-1767
-2039
-2299
-2622
-3032
-3401
-3494
-3164
-2511
-1815
-1308
-1019
-830
-672
-624
-816
-1247
-1733
-2059
-2151
-2120
-2111
-2156
-2185
-2149
-2093
-2107
-2231
-2424
-2628
-2826
-3042
-3285
-3508
-3652
-3700
-3705
-3778
-4056
-4638
-5524
-6567
-7499
-8044
-8066
-7651
-7021
-6347
-5617
-4683
-3493
-2242
-1291
-889
-969
-1206
-1279
-1075
-695
-276
136
583
1110
1704
2308
2847
3230
3364
3225
2904
2571
2374
2341
2386
2392
2293
2085
1800
1492
1206
964
753
562
396
275
195
101
-57
-260
-421
-472
-438
-412
-451
-524
-574
-612
-700
-853
-1003
-1087
-1161
-1343
-1626
-1801
-1614
-987
-90
834
1685
2523
3411
4255
4847
5027
4822
4422
4054
3839
3736
3637
3496
3394
3441
3638
3848
3902
3714
3325
2854
2452
2238
2235
2355
2491
2668
3049
3732
4569
5224
5478
5418
5311
5299
5295
5147
4846
4530
4288
4067
3759
3359
2960
2629
2327
1974
1549
1101
685
311
-34
-346
-600
-784
-902
-984
-1060
-1144
-1232
-1315
-1398
-1483
-1540
-1513
-1370
-1165
-1011
-985
-1045
-1086
-1051
-990
-990
-1065
-1139
-1124
-997
-801
-611
-474
-393
-334
-262
-170
-93
-67
-97
-147
-171
-147
-78
21
131
243
361
497
647
778
852
873
884
919
964
977
946
909
910
954
1009
1045
1062
1073
1072
1045
983
900
813
731
669
652
699
797
894
957
1005
1096
1261
1460
1611
1652
1580
1431
1246
1059
898
765
626
451
269
167
206
351
480
487
353
143
-70
-249
-400
-542
-692
-853
-1008
-1110
-1125
-1050
-918
-771
-639
-539
-474
-436
-401
-347
-269
-191
-150
-159
-202
-236
-222
-155
-63
22
102
206
342
474
539
510
429
365
353
373
393
407
442
527
653
783
869
907
941
1020
1147
1261
1298
1267
1248
1298
1380
1397
1307
1172
1098
1120
1186
1219
1197
1166
1188
1276
1385
1456
1478
1490
1528
1573
1559
1460
1341
1310
1400
1531
1577
1480
1288
1089
932
806
666
485
286
124
43
36
55
56
37
20
4
-48
-163
-323
-472
-560
-581
-570
-563
-569
-567
-530
-466
-423
-457
-582
-747
-894
-1001
-1067
-1070
-974
-773
-514
-242
52
390
725
917
841
506
41
-438
-909
-1397
-1877
-2260
-2465
-2492
-2415
-2318
-2238
-2184
-2152
-2148
-2178
-2228
-2250
-2193
-2024
-1747
-1361
-837
-162
576
1207
1602
1795
1936
2118
2260
2209
1934
1573
1307
1187
1121
996
800
614
524
536
585
606
577
533
506
491
446
354
257
214
245
308
333
293
217
148
118
130
165
206
239
270
310
358
395
411
425
458
502
519
488
422
355
299
241
171
98
27
-48
-129
-197
-237
-266
-326
-424
-516
-556
-546
-539
-568
-615
-637
-625
-605
-603
-613
-625
-641
-681
-739
-784
-788
-756
-723
-707
-690
-634
-543
-461
-433
-448
-455
-423
-384
-390
-447
-505
-517
-491
-475
-500
-550
-589
-600
-600
-613
-643
-672
-690
-700
-711
-720
-714
-689
-669
-676
-711
-745
-759
-754
-736
-699
-631
-535
-427
-315
-206
-125
-99
-140
-233
-354
-487
-601
-643
-574
-419
-237
-58
142
365
533
553
429
272
161
57
-115
-311
-363
-151
248
637
884
1019
1151
1318
1454
1477
1366
1173
974
827
756
760
802
835
832
795
754
745
775
822
855
859
847
851
891
957
1014
1035
1025
1010
995
957
868
748
657
636
653
638
554
439
352
308
272
213
145
104
102
131
181
259
357
440
485
506
534
581
622
631
619
611
613
611
602
607
631
635
570
441
312
238
199
129
0
-131
-186
-170
-166
-245
-387
-514
-589
-654
-766
-912
-1024
-1057
-1033
-1010
-1011
-1016
-1000
-957
-900
-844
-803
-786
-783
-760
-692
-592
-492
-402
-304
-175
-36
80
164
241
328
413
467
472
440
397
365
351
336
291
202
102
40
13
-59
-249
-535
-815
-1020
-1188
-1395
-1624
-1758
-1693
-1440
-1107
-773
-426
0
543
1183
1859
2487
3001
3385
3683
3948
4171
4271
4175
3901
3549
3205
2881
2549
2200
1874
1616
1427
1276
1129
980
840
713
592
450
268
68
-90
-160
-151
-128
-149
-212
-263
-267
-230
-179
-131
-93
-82
-115
-178
-218
-193
-118
-53
-32
-34
-11
52
121
151
130
89
50
8
-56
-135
-200
-231
-252
-307
-396
-474
-500
-494
-518
-588
-649
-639
-570
-517
-519
-533
-496
-409
-339
-330
-363
-393
-406
-418
-427
-416
-380
-346
-335
-337
-326
-304
-309
-347
-379
-360
-287
-199
-136
-102
-70
-14
65
152
221
252
240
204
176
181
217
254
270
273
288
324
352
342
300
272
285
304
273
191
135
175
292
382
374
305
272
318
392
411
361
304
298
339
370
355
319
305
321
330
293
222
164
155
181
202
201
196
210
232
235
209
171
144
127
103
62
12
-26
-36
-11
31
53
37
-1
-24
-15
3
1
-4
29
106
178
185
137
105
136
196
212
173
137
156
205
215
160
68
-33
-169
-374
-615
-792
-820
-713
-545
-364
-158
103
394
650
824
918
951
921
812
644
493
430
459
509
499
425
358
379
487
591
592
485
368
350
448
577
636
606
542
512
534
577
606
612
610
620
654
712
781
830
846
847
868
917
957
951
916
894
903
904
848
746
655
615
603
572
518
478
479
496
494
476
482
527
587
630
661
696
728
715
639
544
498
511
532
501
418
313
206
94
-28
-158
-303
-481
-669
-782
-746
-574
-354
-141
117
520
1092
1753
2399
2975
3466
3856
4127
4295
4393
4399
4233
3847
3320
2814
2429
2120
1785
1394
1027
776
646
558
461
365
297
246
171
60
-42
-83
-64
-40
-61
-123
-180
-197
-173
-130
-84
-37
12
64
114
153
177
187
187
169
132
90
72
87
102
66
-33
-143
-204
-220
-257
-374
-550
-699
-763
-762
-765
-814
-887
-935
-937
-931
-969
-1074
-1219
-1361
-1479
-1573
-1646
-1685
-1659
-1557
-1402
-1235
-1084
-956
-851
-779
-749
-757
-792
-845
-899
-929
-916
-868
-822
-809
-823
-822
-773
-684
-591
-528
-488
-448
-392
-324
-257
-210
-191
-205
-251
-309
-357
-373
-347
-299
-252
-206
-139
-47
32
43
-22
-97
-98
-14
95
175
249
391
632
908
1136
1290
1402
1487
1515
1464
1375
1313
1290
1262
1190
1105
1071
1098
1132
1107
1012
881
761
679
635
614
589
559
564
635
749
833
844
817
812
835
829
760
680
661
705
755
770
765
767
765
730
679
669
717
782
821
847
909
1026
1161
1277
1359
1405
1407
1369
1336
1359
1430
1480
1452
1370
1300
1280
1280
1253
1201
1161
1156
1179
1209
1232
1221
1133
931
630
286
-31
-250
-303
-147
207
673
1156
1614
2031
2349
2455
2271
1852
1376
1004
793
706
703
782
954
1202
1476
1701
1805
1743
1542
1286
1067
920
822
732
621
481
312
157
98
197
406
601
722
855
1127
1508
1736
1522
786
-242
-1180
-1747
-1881
-1703
-1375
-985
-535
3
574
979
956
359
-699
-1882
-2828
-3340
-3454
-3342
-3151
-2921
-2602
-2169
-1723
-1475
-1607
-2117
-2821
-3496
-4027
-4442
-4796
-5097
-5324
-5491
-5650
-5823
-5966
-6019
-5945
-5746
-5415
-4930
-4277
-3481
-2635
-1859
-1253
-845
-579
-371
-178
-24
38
3
-77
-153
-230
-345
-506
-658
-731
-707
-643
-633
-735
-953
-1256
-1612
-2005
-2429
-2868
-3302
-3706
-4058
-4338
-4543
-4683
-4782
-4863
-4933
-4996
-5061
-5152
-5284
-5447
-5586
-5627
-5535
-5352
-5163
-5014
-4868
-4650
-4350
-4041
-3785
-3539
-3192
-2686
-2099
-1547
-1064
-578
-20
586
1156
1654
2130
2641
3163
3609
3921
4136
4319
4464
4510
4430
4285
4149
3990
3701
3257
2797
2483
2322
2171
1942
1741
1736
1947
2214
2400
2541
2745
3008
3192
3200
3090
2979
2881
2709
2415
2079
1823
1663
1522
1355
1213
1177
1251
1366
1477
1603
1784
2006
2208
2335
2386
2387
2373
2337
2271
2192
2145
2146
2158
2125
2050
1999
2006
2006
1915
1775
1760
1994
2372
2660
2775
2897
3255
3826
4348
4616
4676
4708
4768
4750
4576
4313
4070
3839
3531
3135
2763
2517
2363
2167
1853
1431
951
486
161
98
289
538
633
566
528
651
803
723
315
-228
-625
-766
-750
-691
-586
-368
-29
362
722
995
1139
1111
917
637
385
227
163
156
180
227
275
299
297
287
289
306
325
340
358
388
423
448
449
429
402
381
367
359
364
402
474
544
553
474
354
272
272
322
359
361
366
417
509
599
652
672
679
686
696
712
732
744
720
643
526
399
283
182
102
68
105
209
336
437
495
517
498
395
157
-196
-572
-866
-1046
-1141
-1187
-1180
-1114
-1021
-944
-892
-842
-791
-780
-835
-914
-935
-866
-757
-681
-655
-646
-646
-688
-801
-957
-1096
-1195
-1270
-1327
-1329
-1257
-1160
-1135
-1216
-1342
-1433
-1489
-1557
-1627
-1591
-1354
-957
-548
-244
-41
138
351
605
876
1135
1346
1500
1667
1959
2408
2884
3183
3208
3038
2817
2611
2390
2127
1864
1676
1607
1639
1734
1849
1942
1984
1955
1835
1610
1332
1146
1213
1537
1914
2091
2009
1855
1823
1860
1695
1157
400
-229
-530
-611
-714
-926
-1109
-1100
-915
-722
-658
-711
-786
-834
-889
-998
-1141
-1239
-1233
-1154
-1084
-1087
-1150
-1198
-1173
-1075
-961
-876
-828
-799
-777
-763
-761
-756
-727
-668
-596
-533
-489
-454
-416
-363
-291
-211
-143
-109
-124
-179
-241
-274
-270
-259
-285
-358
-434
-453
-396
-296
-195
-98
19
151
248
262
213
172
181
213
212
176
163
218
323
418
466
468
436
372
282
189
114
56
1
-41
-41
16
107
197
280
370
464
529
545
527
516
529
551
552
524
473
415
362
325
313
312
301
271
239
229
243
248
214
145
67
-8
-85
-160
-213
-223
-210
-218
-266
-320
-334
-307
-289
-322
-395
-470
-524
-568
-611
-641
-637
-603
-571
-569
-599
-641
-665
-661
-633
-598
-579
-592
-621
-639
-637
-635
-662
-709
-737
-718
-671
-636
-623
-603
-556
-507
-508
-569
-648
-701
-733
-779
-855
-932
-981
-1005
-1016
-991
-883
-690
-483
-335
-235
-89
179
525
827
1008
1111
1238
1433
1647
1795
1839
1811
1783
1799
1857
1909
1901
1831
1747
1691
1634
1504
1305
1180
1306
1689
2135
2424
2547
2682
2960
3295
3471
3377
3116
2855
2660
2484
2282
2099
1995
1951
1891
1784
1681
1649
1669
1666
1589
1453
1308
1175
1045
918
797
665
473
198
-120
-413
-646
-845
-1059
-1304
-1559
-1799
-2010
-2176
-2283
-2322
-2296
-2203
-2028
-1767
-1436
-1060
-663
-277
47
262
389
501
638
750
734
550
280
46
-108
-237
-404
-605
-788
-927
-1035
-1126
-1196
-1243
-1288
-1348
-1399
-1402
-1346
-1276
-1244
-1245
-1245
-1234
-1248
-1293
-1298
-1178
-933
-663
-456
-298
-114
113
305
377
332
251
190
135
63
10
43
158
270
301
270
280
405
613
786
842
812
804
906
1099
1267
1306
1210
1072
992
992
1021
1024
999
989
1019
1072
1116
1146
1174
1205
1224
1214
1172
1110
1038
963
887
806
704
563
391
218
81
-18
-100
-168
-205
-208
-199
-208
-231
-234
-202
-164
-161
-195
-230
-234
-216
-214
-248
-301
-343
-366
-369
-359
-347
-346
-358
-368
-348
-284
-198
-129
-96
-77
-33
52
165
268
335
371
405
464
551
636
683
688
684
703
738
760
746
720
723
765
823
868
888
887
865
831
811
832
869
858
765
638
569
601
678
711
671
613
607
664
746
803
813
792
776
795
852
901
897
848
807
823
877
912
899
867
860
882
904
903
882
854
817
771
722
682
649
605
545
482
440
426
417
391
351
329
354
415
474
497
488
473
473
487
500
492
453
391
335
322
363
418
429
382
328
330
388
442
439
393
375
430
530
612
646
660
696
757
808
816
796
794
833
889
925
936
950
985
1030
1055
1048
1015
970
926
896
887
893
893
876
856
847
838
796
703
575
447
339
244
149
53
-34
-114
-207
-334
-499
-688
-887
-1097
-1321
-1540
-1701
-1741
-1641
-1434
-1183
-929
-647
-275
216
774
1287
1667
1928
2154
2402
2631
2731
2633
2376
2066
1772
1498
1221
948
713
542
437
387
381
406
438
461
475
485
480
459
449
487
579
680
730
725
722
764
836
893
917
935
974
1012
1019
1002
1008
1059
1112
1105
1028
951
942
995
1039
1015
939
881
879
900
880
799
711
671
677
667
600
501
443
450
467
426
321
203
121
63
-23
-156
-311
-454
-589
-734
-877
-981
-1037
-1082
-1139
-1187
-1182
-1112
-1023
-957
-913
-865
-810
-774
-772
-787
-801
-812
-822
-809
-745
-643
-553
-507
-480
-420
-328
-267
-282
-349
-401
-396
-345
-278
-204
-117
-23
69
157
248
326
352
317
272
284
363
449
487
495
533
627
725
758
713
628
536
445
357
292
265
253
223
177
163
203
251
239
155
54
-1
-11
-26
-79
-144
-165
-116
-30
39
59
38
1
-32
-55
-68
-72
-69
-62
-61
-59
-39
9
77
135
154
130
92
77
102
156
210
236
229
209
206
246
322
397
431
430
454
552
697
798
796
739
734
819
922
951
909
889
948
1032
1044
969
892
884
924
932
877
790
707
621
530
462
453
470
436
340
261
279
353
352
210
22
-75
-83
-144
-352
-595
-643
-394
14
332
455
478
547
686
783
735
561
397
387
576
913
1305
1682
2014
2281
2447
2483
2422
2326
2226
2082
1847
1570
1373
1331
1394
1453
1466
1458
1449
1404
1299
1174
1087
1027
905
678
417
235
156
82
-75
-300
-515
-696
-876
-1038
-1088
-977
-817
-839
-1164
-1673
-2110
-2317
-2339
-2305
-2262
-2109
-1714
-1037
-169
709
1446
1992
2395
2726
2979
3058
2875
2468
2002
1635
1387
1138
771
292
-198
-606
-939
-1255
-1577
-1854
-2013
-2021
-1909
-1747
-1605
-1546
-1644
-1943
-2432
-3009
-3509
-3798
-3854
-3780
-3708
-3680
-3608
-3387
-3021
-2646
-2427
-2420
-2554
-2717
-2822
-2838
-2771
-2681
-2635
-2644
-2637
-2531
-2343
-2196
-2209
-2403
-2694
-2986
-3213
-3341
-3367
-3353
-3391
-3504
-3593
-3533
-3350
-3230
-3296
-3459
-3543
-3557
-3713
-4088
-4351
-4019
-3014
-1880
-1294
-1389
-1636
-1447
-792
-168
-16
-293
-597
-592
-256
207
577
711
563
190
-251
-601
-811
-960
-1148
-1379
-1563
-1604
-1479
-1241
-982
-809
-816
-1031
-1388
-1728
-1889
-1808
-1546
-1242
-991
-787
-555
-252
80
361
583
837
1205
1644
1997
2154
2184
2263
2480
2731
2858
2843
2848
3022
3315
3524
3512
3333
3139
3002
2868
2663
2409
2197
2066
1960
1816
1645
1516
1468
1461
1433
1363
1276
1205
1165
1165
1218
1316
1413
1473
1511
1574
1648
1638
1468
1227
1116
1239
1500
1724
1855
1993
2244
2588
2921
3161
3267
3227
3086
2996
3119
3403
3554
3341
2889
2595
2690
2990
3125
2978
2795
2883
3277
3742
4034
4075
3906
3601
3244
2915
2635
2332
1937
1514
1263
1320
1613
1935
2127
2155
2051
1814
1424
925
435
52
-225
-471
-722
-914
-977
-921
-861
-919
-1120
-1395
-1665
-1899
-2092
-2200
-2150
-1922
-1605
-1334
-1166
-1032
-833
-596
-503
-719
-1197
-1672
-1880
-1778
-1556
-1411
-1370
-1305
-1121
-870
-693
-681
-804
-975
-1126
-1229
-1274
-1258
-1192
-1106
-1021
-934
-833
-736
-674
-648
-624
-586
-572
-633
-764
-921
-1089
-1313
-1625
-1936
-2076
-1952
-1643
-1318
-1061
-821
-531
-234
-49
-25
-73
-69
24
153
285
472
803
1290
1836
2308
2644
2887
3116
3346
3510
3515
3338
3050
2760
2530
2337
2115
1838
1548
1330
1231
1222
1221
1182
1135
1138
1182
1182
1069
883
733
683
692
675
607
542
538
589
640
647
611
566
541
540
539
500
408
285
163
49
-72
-212
-353
-473
-565
-617
-594
-450
-161
248
725
1195
1544
1636
1400
897
282
-326
-944
-1649
-2412
-3053
-3366
-3295
-2971
-2587
-2273
-2044
-1868
-1710
-1556
-1420
-1340
-1341
-1402
-1434
-1355
-1159
-917
-703
-537
-392
-259
-164
-112
-35
162
500
882
1182
1373
1537
1753
2001
2173
2207
2134
2027
1910
1761
1585
1434
1348
1300
1235
1155
1126
1175
1226
1171
987
768
619
562
536
494
446
438
492
594
710
805
849
831
760
646
500
330
159
-4
-179
-401
-662
-905
-1068
-1150
-1204
-1279
-1364
-1418
-1424
-1402
-1381
-1368
-1363
-1376
-1427
-1515
-1615
-1698
-1743
-1746
-1720
-1682
-1632
-1543
-1379
-1136
-858
-605
-410
-270
-165
-85
-34
-18
-37
-89
-163
-227
-240
-185
-91
-3
63
124
191
245
264
266
288
333
346
271
117
-39
-133
-176
-226
-312
-403
-434
-358
-179
60
298
486
603
668
720
765
756
629
371
64
-165
-242
-205
-155
-145
-125
-18
167
316
340
276
238
277
322
283
167
73
64
90
55
-68
-208
-279
-259
-195
-136
-97
-64
-22
31
83
109
97
53
-8
-75
-154
-245
-322
-347
-309
-252
-239
-293
-383
-470
-559
-687
-874
-1096
-1296
-1429
-1471
-1405
-1226
-968
-702
-491
-326
-150
49
192
154
-102
-458
-738
-861
-895
-951
-1041
-1055
-890
-575
-241
10
195
393
647
945
1274
1654
2086
2507
2837
3064
3250
3423
3509
3403
3102
2729
2413
2176
1943
1674
1440
1366
1489
1691
1778
1646
1360
1100
1000
1035
1076
1041
972
978
1114
1327
1500
1539
1401
1104
718
344
66
-104
-233
-400
-618
-823
-940
-946
-897
-880
-945
-1082
-1227
-1332
-1394
-1425
-1424
-1385
-1342
-1374
-1524
-1733
-1881
-1902
-1842
-1796
-1803
-1818
-1792
-1736
-1702
-1722
-1783
-1853
-1892
-1865
-1759
-1609
-1484
-1429
-1421
-1399
-1344
-1300
-1320
-1386
-1425
-1374
-1247
-1117
-1027
-948
-822
-648
-491
-430
-466
-524
-531
-488
-455
-474
-521
-540
-512
-469
-454
-487
-565
-670
-783
-869
-910
-920
-941
-991
-1038
-1035
-974
-904
-880
-904
-928
-900
-813
-703
-612
-548
-476
-351
-156
61
217
261
215
155
131
124
91
41
48
184
439
734
996
1212
1405
1580
1707
1756
1730
1662
1588
1535
1512
1514
1531
1558
1604
1666
1721
1733
1677
1574
1487
1477
1542
1595
1520
1266
893
530
273
142
109
167
353
705
1202
1756
2264
2638
2814
2760
2499
2113
1701
1317
951
590
287
142
194
353
472
488
472
516
599
620
536
426
395
442
479
459
418
383
300
113
-110
-192
-55
176
298
257
186
232
377
471
398
187
-34
-159
-159
-79
14
77
129
234
433
690
918
1052
1095
1081
1034
958
878
842
868
928
967
965
958
985
1047
1109
1128
1099
1055
1034
1044
1060
1049
1009
969
960
990
1034
1062
1065
1055
1047
1043
1023
969
886
799
725
649
552
444
362
320
266
138
-66
-282
-449
-590
-759
-951
-1074
-1038
-862
-652
-486
-328
-74
332
839
1329
1709
1966
2154
2345
2565
2761
2824
2686
2392
2072
1829
1660
1493
1290
1096
969
908
855
784
717
673
612
479
281
108
45
90
163
199
214
257
333
388
370
291
212
176
158
105
6
-87
-106
-30
91
181
202
174
160
193
248
265
209
114
51
58
97
115
94
55
16
-35
-113
-211
-302
-373
-422
-442
-433
-422
-453
-532
-597
-577
-491
-442
-506
-631
-700
-666
-620
-665
-791
-885
-872
-798
-765
-806
-855
-836
-756
-676
-650
-662
-673
-676
-682
-692
-686
-662
-642
-649
-660
-619
-509
-375
-291
-281
-299
-286
-229
-162
-124
-107
-71
14
133
248
341
424
526
643
736
779
785
803
865
952
1009
1013
993
996
1031
1062
1054
1018
987
960
899
786
651
546
483
422
325
200
92
23
-25
-73
-120
-151
-176
-225
-312
-407
-471
-510
-574
-690
-826
-925
-973
-1013
-1075
-1137
-1144
-1080
-989
-925
-887
-838
-759
-679
-626
-589
-536
-465
-416
-414
-427
-399
-315
-227
-184
-185
-186
-160
-122
-101
-97
-88
-62
-39
-39
-53
-51
-19
24
53
69
95
140
190
237
282
324
341
310
260
247
300
370
387
345
317
374
495
586
582
506
431
400
388
352
278
201
164
182
231
278
307
328
355
387
414
435
449
437
358
198
11
-102
-92
-15
23
-15
-58
-15
124
276
350
330
257
179
114
71
72
124
207
295
383
489
605
676
651
543
413
297
178
20
-152
-274
-321
-349
-430
-583
-771
-967
-1177
-1393
-1548
-1571
-1468
-1308
-1134
-908
-571
-119
391
898
1376
1809
2159
2405
2574
2710
2800
2770
2574
2262
1945
1691
1482
1272
1059
892
804
785
805
847
904
947
936
851
728
628
591
592
579
524
456
424
444
476
473
428
379
357
355
344
318
296
297
304
295
285
331
460
615
691
631
503
433
482
582
606
500
339
251
302
447
584
658
692
756
897
1102
1318
1481
1557
1543
1472
1391
1330
1267
1109
764
240
-281
-526
-332
199
775
1166
1392
1643
2034
2450
2641
2460
1980
1401
895
536
318
184
45
-162
-399
-551
-552
-468
-429
-474
-523
-491
-404
-348
-331
-266
-119
-27
-186
-628
-1120
-1335
-1149
-744
-410
-269
-195
5
352
638
632
308
-146
-502
-684
-774
-872
-990
-1085
-1161
-1293
-1536
-1848
-2143
-2402
-2718
-3186
-3775
-4339
-4743
-4984
-5164
-5369
-5591
-5763
-5835
-5825
-5773
-5696
-5576
-5381
-5138
-4954
-4946
-5146
-5449
-5681
-5737
-5628
-5390
-5002
-4414
-3657
-2858
-2120
-1423
-688
58
648
937
964
932
1010
1189
1341
1374
1314
1239
1183
1129
1056
967
859
712
523
333
206
159
139
75
-53
-218
-380
-537
-697
-847
-958
-1025
-1082
-1169
-1296
-1445
-1600
-1752
-1889
-1986
-2026
-2022
-2005
-1981
-1909
-1750
-1506
-1226
-950
-688
-442
-223
-38
126
269
370
400
367
310
250
168
72
67
306
827
1479
2042
2440
2796
3272
3857
4364
4610
4588
4470
4454
4610
4849
5036
5127
5199
5346
5576
5795
5954
6128
6369
6658
6923
7162
7434
7710
7853
7762
7512
7243
6951
6506
5931
5501
5484
5791
6036
5949
5652
5431
5352
5196
4774
4172
3634
3274
2997
2691
2381
2185
2165
2282
2466
2666
2859
3014
3078
3044
2917
2723
2497
2247
1934
1500
959
409
-46
-402
-746
-1120
-1433
-1546
-1456
-1348
-1443
-1790
-2264
-2739
-3192
-3627
-3963
-4059
-3868
-3466
-2924
-2211
-1302
-344
397
754
800
706
513
118
-522
-1247
-1811
-2094
-2161
-2128
-2049
-1930
-1814
-1775
-1848
-1980
-2102
-2199
-2287
-2353
-2346
-2250
-2135
-2096
-2152
-2229
-2260
-2255
-2265
-2283
-2231
-2055
-1825
-1688
-1724
-1864
-1964
-1956
-1902
-1909
-1994
-2062
-2012
-1844
-1654
-1539
-1515
-1528
-1536
-1558
-1638
-1782
-1937
-2038
-2061
-2019
-1938
-1824
-1672
-1487
-1291
-1110
-964
-857
-773
-696
-616
-532
-439
-317
-157
16
155
239
298
380
499
617
695
740
793
890
1021
1143
1241
1341
1485
1677
1868
2005
2083
2144
2243
2392
2559
2676
2677
2542
2319
2099
1924
1737
1448
1059
693
479
405
333
154
-91
-289
-399
-498
-662
-859
-1004
-1067
-1093
-1127
-1146
-1099
-989
-865
-762
-681
-621
-588
-571
-526
-405
-213
-7
166
308
438
543
579
522
412
327
332
450
662
929
1200
1430
1597
1693
1714
1647
1479
1221
923
651
456
364
377
478
643
851
1082
1322
1540
1688
1725
1671
1600
1582
1631
1701
1746
1781
1849
1958
2059
2092
2047
1963
1878
1802
1728
1654
1593
1551
1521
1489
1445
1391
1349
1335
1333
1294
1166
945
688
455
261
74
-145
-389
-623
-819
-983
-1126
-1250
-1341
-1398
-1435
-1477
-1538
-1607
-1660
-1683
-1691
-1717
-1782
-1866
-1925
-1924
-1879
-1835
-1824
-1834
-1823
-1757
-1640
-1503
-1377
-1262
-1152
-1058
-1007
-1014
-1048
-1063
-1044
-1038
-1094
-1183
-1217
-1150
-1043
-996
-1054
-1175
-1305
-1457
-1662
-1887
-2028
-2029
-1978
-2027
-2202
-2304
-2044
-1291
-214
847
1653
2235
2801
3472
4117
4451
4280
3661
2819
1950
1146
464
-10
-199
-140
32
211
420
738
1148
1483
1572
1375
1012
649
394
264
228
235
227
168
77
23
53
149
238
270
257
232
202
151
81
30
24
40
23
-51
-153
-227
-247
-237
-239
-276
-324
-342
-329
-355
-509
-802
-1118
-1299
-1279
-1143
-1032
-1003
-1005
-954
-836
-689
-565
-493
-485
-530
-585
-584
-488
-315
-120
60
217
360
506
676
889
1125
1323
1432
1465
1492
1575
1708
1825
1864
1816
1713
1598
1487
1364
1224
1111
1089
1186
1372
1585
1775
1915
1993
2005
1960
1880
1761
1576
1329
1090
946
928
992
1093
1224
1366
1428
1317
1064
815
666
545
302
-73
-410
-551
-532
-517
-610
-774
-930
-1078
-1265
-1475
-1635
-1711
-1744
-1780
-1803
-1768
-1681
-1599
-1560
-1537
-1483
-1394
-1298
-1217
-1162
-1143
-1155
-1154
-1084
-955
-854
-854
-928
-964
-901
-794
-745
-781
-821
-761
-590
-403
-295
-267
-232
-122
38
163
194
157
131
169
263
365
412
369
253
128
47
-18
-152
-394
-677
-889
-993
-1048
-1108
-1141
-1082
-930
-767
-647
-524
-319
-38
214
347
383
423
523
648
724
719
658
590
546
533
547
585
640
697
749
806
888
1006
1140
1251
1304
1310
1304
1305
1294
1240
1125
969
826
777
897
1181
1509
1722
1759
1716
1731
1808
1813
1656
1434
1335
1422
1572
1655
1701
1842
2081
2240
2143
1816
1458
1236
1140
1056
922
777
697
703
730
697
541
246
-146
-569
-953
-1242
-1391
-1378
-1231
-1023
-825
-669
-523
-321
-30
312
640
919
1197
1554
1991
2387
2584
2530
2298
1977
1559
994
333
-213
-430
-281
68
426
744
1105
1541
1947
2151
2062
1741
1340
984
721
538
416
344
307
297
322
386
465
518
511
465
416
384
366
369
414
507
600
616
527
391
287
241
208
146
76
42
45
31
-20
-57
-8
115
213
210
161
184
310
422
379
198
57
94
250
322
195
-28
-128
-34
88
29
-211
-412
-381
-183
-67
-158
-311
-294
-86
98
74
-82
-154
-63
57
44
-80
-165
-141
-65
-32
-62
-107
-129
-109
-33
76
128
60
-65
-110
-20
92
59
-120
-273
-251
-87
55
62
-21
-61
13
167
315
393
391
346
294
262
263
292
331
341
287
187
136
217
411
584
609
488
359
340
424
500
483
405
345
344
371
384
377
380
394
388
328
229
160
157
185
173
101
33
38
97
112
21
-114
-150
-20
182
303
271
182
177
283
393
378
218
17
-104
-122
-105
-124
-180
-223
-217
-175
-129
-99
-75
-45
-19
-10
-15
-6
28
66
69
21
-37
-42
41
179
305
388
443
506
590
687
782
849
858
802
730
720
782
845
849
836
905
1066
1192
1171
1056
1005
1089
1213
1250
1200
1156
1151
1132
1062
980
934
884
764
601
504
523
574
533
406
311
322
365
322
168
-10
-124
-185
-257
-367
-493
-613
-733
-850
-935
-974
-1018
-1151
-1388
-1648
-1835
-1928
-1989
-2069
-2129
-2082
-1906
-1666
-1440
-1216
-899
-415
190
762
1177
1436
1638
1863
2090
2230
2209
2037
1785
1529
1326
1181
1072
976
892
848
858
881
877
853
848
865
854
789
710
681
707
735
748
787
855
853
686
416
219
183
208
132
-82
-313
-439
-452
-426
-408
-405
-413
-431
-437
-405
-357
-343
-371
-398
-390
-374
-416
-525
-627
-659
-627
-574
-530
-500
-474
-446
-402
-349
-323
-371
-490
-610
-646
-572
-450
-369
-358
-374
-359
-297
-235
-238
-315
-416
-482
-509
-530
-553
-549
-504
-461
-482
-563
-604
-518
-346
-220
-225
-319
-371
-310
-200
-164
-265
-445
-593
-633
-579
-496
-428
-360
-252
-98
50
129
121
67
25
24
44
55
54
58
85
137
196
247
283
304
316
326
336
340
334
327
335
367
412
452
490
538
591
626
627
613
609
600
550
450
363
350
401
438
415
372
376
432
470
438
372
345
377
422
448
489
596
756
896
968
998
1043
1110
1153
1141
1086
1026
966
869
714
533
404
387
467
587
694
806
977
1232
1500
1659
1629
1438
1176
916
676
451
260
133
82
101
191
361
594
835
1018
1112
1132
1110
1060
958
754
404
-80
-603
-1031
-1282
-1371
-1363
-1287
-1104
-777
-339
130
566
953
1288
1526
1594
1442
1104
682
304
59
-34
4
139
340
583
861
1164
1458
1653
1626
1317
814
309
-70
-372
-760
-1323
-2008
-2719
-3421
-4066
-4485
-4459
-3952
-3236
-2660
-2302
-1902
-1191
-259
466
605
154
-589
-1320
-1930
-2451
-2905
-3256
-3481
-3603
-3665
-3677
-3603
-3424
-3173
-2945
-2847
-2919
-3079
-3156
-3019
-2665
-2205
-1756
-1367
-1038
-759
-513
-252
61
375
545
441
87
-325
-583
-587
-398
-159
14
103
172
299
490
651
685
587
465
413
440
506
592
718
860
934
890
806
830
1005
1206
1278
1188
1025
861
672
424
174
43
79
224
386
548
743
948
1070
1034
859
642
480
408
399
394
361
339
436
732
1163
1535
1678
1604
1483
1474
1572
1633
1520
1215
839
574
567
820
1178
1447
1573
1687
1963
2423
2861
3049
2947
2705
2500
2380
2290
2195
2136
2159
2251
2390
2633
3083
3739
4398
4787
4808
4623
4459
4343
4062
3411
2462
1549
987
812
815
806
795
896
1119
1295
1255
1027
796
646
448
18
-602
-1088
-1130
-744
-250
55
155
258
532
934
1284
1453
1437
1313
1153
988
817
629
419
204
22
-95
-148
-169
-183
-193
-188
-182
-212
-305
-443
-556
-575
-502
-409
-370
-394
-446
-527
-692
-988
-1374
-1743
-2013
-2167
-2215
-2140
-1920
-1571
-1126
-583
67
747
1256
1423
1274
1026
864
765
574
225
-156
-386
-403
-299
-203
-167
-171
-198
-258
-345
-421
-450
-441
-435
-466
-526
-573
-574
-533
-482
-446
-432
-435
-438
-425
-395
-370
-387
-452
-508
-478
-343
-163
-26
47
118
245
416
553
601
571
515
466
425
396
400
447
501
515
481
447
453
496
530
521
486
456
444
435
415
357
244
61
-177
-425
-627
-731
-699
-526
-262
-19
63
-105
-497
-979
-1397
-1677
-1878
-2119
-2420
-2613
-2455
-1875
-1097
-498
-291
-379
-500
-507
-480
-569
-797
-1032
-1115
-984
-667
-213
354
986
1588
2057
2364
2593
2849
3154
3413
3503
3395
3163
2902
2643
2377
2110
1882
1726
1635
1592
1608
1718
1921
2149
2312
2361
2315
2216
2084
1909
1694
1471
1289
1175
1119
1106
1144
1248
1407
1566
1667
1690
1660
1606
1535
1441
1326
1198
1065
936
815
700
577
426
246
53
-133
-310
-492
-687
-898
-1121
-1349
-1577
-1799
-2007
-2196
-2361
-2505
-2634
-2748
-2835
-2886
-2913
-2937
-2963
-2959
-2893
-2786
-2701
-2678
-2689
-2677
-2627
-2582
-2577
-2595
-2577
-2483
-2313
-2074
-1767
-1414
-1075
-823
-690
-653
-668
-716
-797
-906
-1023
-1116
-1155
-1107
-956
-732
-504
-332
-214
-105
26
155
234
253
258
299
370
432
465
491
542
617
681
717
737
777
852
939
1001
1031
1046
1065
1085
1087
1079
1101
1216
1459
1801
2151
2401
2501
2507
2531
2630
2754
2809
2765
2663
2553
2430
2296
2201
2176
2099
1749
1036
165
-518
-866
-1059
-1359
-1797
-2143
-2181
-1943
-1638
-1425
-1319
-1278
-1292
-1361
-1431
-1430
-1345
-1249
-1210
-1219
-1218
-1166
-1076
-988
-918
-869
-844
-845
-866
-889
-886
-831
-708
-542
-399
-354
-411
-485
-476
-375
-281
-284
-357
-353
-149
241
675
1000
1147
1117
933
618
205
-253
-717
-1184
-1652
-2055
-2264
-2200
-1926
-1626
-1465
-1449
-1487
-1527
-1613
-1795
-2021
-2167
-2164
-2066
-1948
-1782
-1461
-941
-323
208
530
656
689
732
819
923
972
904
728
517
373
344
419
539
647
715
740
727
703
704
748
803
782
619
344
87
-39
-55
-93
-240
-417
-469
-355
-204
-163
-238
-304
-309
-350
-545
-856
-1112
-1212
-1225
-1265
-1311
-1202
-848
-357
53
280
427
668
1076
1578
2041
2391
2644
2876
3151
3459
3710
3784
3634
3330
3004
2744
2536
2315
2048
1762
1511
1324
1182
1055
925
792
669
558
442
316
206
160
196
269
314
317
328
381
420
344
130
-108
-217
-161
-69
-89
-218
-290
-135
257
731
1108
1320
1423
1509
1622
1732
1771
1697
1536
1369
1279
1295
1368
1424
1426
1387
1349
1327
1303
1268
1230
1196
1154
1087
1014
981
1012
1074
1099
1063
1005
962
882
644
186
-391
-840
-944
-664
-155
386
873
1355
1920
2560
3132
3435
3336
2872
2242
1689
1329
1097
854
562
343
316
427
479
344
104
-75
-166
-304
-578
-863
-941
-774
-561
-522
-662
-803
-821
-777
-791
-870
-903
-813
-667
-588
-616
-680
-692
-637
-565
-511
-463
-391
-303
-226
-174
-122
-53
21
76
118
190
318
467
564
580
562
586
679
794
867
883
881
907
969
1044
1104
1142
1164
1176
1178
1175
1176
1189
1214
1244
1279
1310
1330
1331
1329
1344
1375
1384
1335
1242
1168
1170
1232
1283
1267
1204
1156
1171
1239
1299
1291
1206
1104
1059
1096
1144
1112
993
873
838
861
844
741
619
569
586
579
495
384
321
309
277
181
54
-41
-97
-164
-273
-387
-451
-442
-397
-372
-382
-397
-372
-301
-234
-233
-295
-341
-291
-160
-65
-103
-224
-283
-199
-63
-24
-113
-211
-201
-105
-33
-31
-27
55
187
263
225
118
36
7
-8
-70
-195
-350
-495
-599
-659
-708
-806
-1001
-1275
-1540
-1699
-1725
-1677
-1616
-1539
-1390
-1139
-823
-486
-119
315
801
1245
1555
1740
1897
2091
2268
2309
2151
1861
1567
1347
1180
1013
830
653
509
400
324
301
334
377
347
208
18
-116
-147
-128
-141
-222
-332
-428
-488
-518
-524
-514
-499
-479
-439
-364
-279
-235
-258
-314
-356
-357
-333
-318
-337
-387
-441
-460
-425
-360
-317
-309
-305
-271
-219
-191
-207
-226
-211
-191
-246
-408
-619
-771
-808
-777
-776
-854
-969
-1037
-1010
-920
-850
-848
-896
-954
-1006
-1069
-1146
-1205
-1208
-1165
-1127
-1116
-1100
-1036
-928
-828
-772
-740
-690
-610
-533
-476
-433
-385
-333
-292
-268
-239
-190
-148
-140
-155
-143
-74
25
99
132
159
220
300
357
369
358
361
381
393
375
350
348
384
437
482
509
526
537
545
549
547
526
479
423
398
430
499
549
549
525
533
587
645
647
589
516
465
433
394
348
321
317
307
255
183
152
182
220
208
166
169
251
336
319
195
79
66
122
131
33
-102
-157
-95
10
64
43
-5
-23
3
46
69
53
21
14
47
99
131
125
102
98
135
205
280
335
364
383
407
438
451
426
378
339
318
292
239
171
136
157
198
195
123
28
-18
15
88
134
130
126
187
319
461
548
576
591
629
676
692
674
661
687
739
777
783
779
796
836
868
865
824
772
742
734
716
656
557
455
379
322
266
209
151
71
-56
-206
-298
-266
-139
-20
16
-10
-35
-39
-67
-177
-380
-656
-963
-1232
-1381
-1367
-1235
-1091
-988
-875
-641
-226
305
816
1199
1439
1608
1777
1961
2111
2164
2102
1953
1764
1569
1388
1240
1115
979
808
618
465
385
354
297
146
-113
-430
-697
-796
-676
-384
-25
323
671
1065
1499
1893
2153
2240
2176
2008
1780
1526
1283
1088
980
982
1065
1148
1156
1091
1024
997
962
839
645
502
507
624
731
765
772
818
885
902
842
735
592
370
57
-272
-517
-690
-954
-1451
-2120
-2732
-3098
-3230
-3258
-3231
-3033
-2522
-1712
-785
58
734
1261
1632
1778
1662
1361
1013
702
421
156
-47
-132
-127
-142
-249
-393
-481
-513
-595
-801
-1061
-1217
-1188
-1043
-901
-811
-742
-679
-663
-739
-887
-1021
-1082
-1083
-1078
-1101
-1130
-1148
-1185
-1291
-1467
-1629
-1669
-1560
-1395
-1317
-1401
-1558
-1590
-1333
-785
-118
440
775
959
1142
1374
1539
1470
1127
641
212
-42
-119
-79
1
49
18
-86
-219
-382
-676
-1223
-2006
-2817
-3418
-3760
-4012
-4364
-4825
-5251
-5586
-5991
-6720
-7855
-9212
-10499
-11528
-12251
-12630
-12563
-11954
-10820
-9294
-7512
-5549
-3471
-1398
510
2145
3478
4553
5437
6200
6902
7563
8148
8618
8973
9253
9466
9567
9505
9287
8986
8681
8406
8153
7901
7627
7313
6950
6549
6122
5671
5195
4715
4265
3863
3484
3106
2741
2433
2212
2048
1891
1721
1579
1522
1561
1656
1764
1885
2054
2281
2520
2715
2857
2997
3174
3355
3487
3600
3827
4280
4901
5468
5757
5709
5437
5082
4696
4232
3628
2895
2125
1457
998
766
671
575
375
35
-444
-1062
-1808
-2623
-3411
-4085
-4604
-4990
-5287
-5492
-5535
-5336
-4917
-4432
-4059
-3839
-3645
-3315
-2820
-2255
-1706
-1169
-623
-122
249
499
746
1079
1438
1669
1684
1530
1329
1158
1022
903
789
666
513
337
186
111
127
194
270
346
435
533
608
621
556
436
297
151
-11
-187
-351
-467
-518
-505
-439
-331
-210
-113
-60
-36
-14
13
26
25
38
89
160
211
237
277
358
459
523
515
452
373
306
270
280
330
386
408
403
416
481
564
599
569
519
505
524
525
477
407
354
321
262
146
-2
-131
-222
-294
-366
-437
-485
-504
-487
-405
-205
132
551
944
1229
1383
1417
1333
1136
870
613
407
232
50
-104
-118
72
375
601
623
491
359
317
312
242
92
-48
-92
-38
51
126
184
230
240
182
61
-77
-181
-231
-223
-168
-89
-25
-7
-28
-42
-15
47
96
88
26
-52
-121
-189
-286
-415
-542
-616
-619
-566
-490
-403
-298
-166
-19
109
186
198
169
136
119
99
44
-32
-73
-28
92
224
327
421
551
721
888
1016
1114
1214
1315
1382
1400
1415
1482
1598
1686
1668
1545
1396
1298
1265
1244
1185
1097
1037
1040
1087
1111
1067
964
851
758
669
542
368
177
6
-148
-321
-532
-749
-927
-1064
-1205
-1388
-1599
-1781
-1897
-1953
-1975
-1973
-1935
-1860
-1773
-1696
-1636
-1584
-1528
-1460
-1369
-1258
-1144
-1041
-938
-804
-621
-422
-272
-226
-283
-403
-530
-619
-648
-605
-504
-373
-241
-107
50
244
443
575
567
402
141
-115
-292
-375
-408
-440
-485
-521
-535
-558
-643
-807
-1023
-1257
-1511
-1792
-2051
-2189
-2133
-1902
-1589
-1268
-935
-546
-84
429
949
1428
1824
2102
2272
2387
2487
2540
2467
2239
1919
1608
1342
1081
787
497
300
242
276
324
361
420
526
643
702
672
584
491
400
290
148
-5
-140
-253
-354
-441
-494
-499
-472
-450
-461
-503
-560
-616
-667
-712
-747
-768
-778
-781
-785
-795
-809
-820
-816
-790
-757
-747
-775
-815
-825
-790
-742
-732
-773
-829
-868
-902
-971
-1077
-1173
-1198
-1136
-1033
-944
-890
-847
-786
-708
-646
-636
-684
-765
-855
-937
-989
-988
-937
-885
-886
-931
-957
-926
-882
-900
-987
-1049
-1006
-887
-810
-844
-928
-935
-807
-626
-522
-543
-607
-575
-390
-140
20
24
-44
-42
71
208
278
296
355
511
729
926
1065
1155
1208
1227
1235
1266
1331
1396
1427
1438
1471
1549
1656
1762
1844
1881
1847
1726
1553
1406
1336
1330
1317
1261
1199
1203
1291
1404
1471
1488
1480
1441
1328
1124
901
755
699
637
491
306
209
255
362
406
344
227
119
41
-19
-70
-115
-162
-204
-203
-139
-57
-57
-175
-337
-431
-434
-438
-529
-658
-668
-455
-102
207
372
472
670
1019
1388
1604
1629
1584
1605
1703
1777
1755
1651
1529
1416
1292
1140
986
852
716
536
308
82
-84
-185
-258
-347
-449
-527
-555
-548
-536
-532
-504
-410
-245
-72
36
75
118
245
456
659
762
764
751
797
893
974
1013
1046
1122
1237
1343
1406
1456
1541
1670
1798
1865
1852
1793
1742
1748
1810
1886
1922
1906
1876
1869
1846
1731
1495
1205
943
694
378
-13
-338
-441
-321
-139
-22
90
376
914
1576
2155
2546
2784
2947
3051
3044
2870
2508
1970
1310
613
-30
-555
-951
-1243
-1462
-1615
-1687
-1680
-1621
-1545
-1477
-1414
-1352
-1297
-1260
-1206
-1070
-827
-540
-315
-194
-109
27
220
411
568
721
903
1090
1236
1338
1450
1602
1749
1824
1838
1881
2010
2189
2325
2381
2415
2494
2617
2721
2750
2709
2644
2578
2505
2427
2367
2349
2340
2269
2108
1905
1755
1692
1652
1538
1321
1079
918
861
838
760
608
442
322
239
134
-35
-239
-403
-494
-548
-623
-727
-808
-811
-759
-732
-785
-889
-958
-967
-979
-1073
-1237
-1368
-1387
-1327
-1287
-1305
-1326
-1282
-1182
-1107
-1091
-1091
-1047
-969
-921
-925
-923
-849
-722
-634
-635
-665
-630
-510
-387
-341
-360
-365
-316
-250
-220
-222
-220
-206
-221
-283
-342
-325
-221
-101
-42
-46
-62
-52
-22
-5
-7
-16
-23
-33
-47
-46
-7
66
139
178
179
165
160
158
149
135
144
191
247
269
245
216
213
221
198
127
46
7
28
71
84
40
-34
-83
-72
-35
-48
-144
-265
-311
-250
-157
-121
-150
-168
-130
-83
-95
-157
-197
-186
-179
-234
-323
-363
-323
-268
-269
-316
-338
-299
-245
-230
-259
-285
-273
-238
-207
-187
-157
-102
-33
28
66
99
169
302
469
601
648
634
644
738
885
999
1018
970
927
941
997
1059
1107
1147
1199
1273
1366
1467
1561
1636
1693
1732
1741
1700
1601
1466
1331
1214
1092
932
731
519
313
101
-144
-431
-750
-1092
-1447
-1785
-2044
-2174
-2181
-2127
-2061
-1959
-1745
-1353
-792
-166
383
771
1024
1243
1489
1710
1776
1608
1255
859
538
311
127
-57
-231
-340
-351
-283
-196
-132
-93
-43
32
99
117
100
113
200
333
442
486
491
498
515
514
483
443
421
400
346
257
176
131
110
72
4
-62
-92
-93
-103
-147
-220
-309
-413
-529
-631
-691
-719
-769
-865
-962
-986
-919
-824
-778
-803
-851
-876
-872
-865
-881
-929
-1005
-1082
-1122
-1106
-1066
-1051
-1080
-1108
-1085
-1009
-930
-894
-895
-895
-875
-852
-846
-849
-831
-777
-706
-647
-610
-567
-488
-372
-256
-183
-161
-165
-168
-166
-166
-160
-130
-74
-9
54
125
223
342
450
525
577
618
641
625
576
540
563
628
676
682
695
779
922
1031
1031
950
884
872
857
786
680
631
682
779
842
856
871
923
987
1007
957
861
755
672
635
648
692
738
771
801
841
885
914
908
857
772
671
571
500
479
499
526
529
512
514
562
618
614
518
389
311
304
307
271
231
260
365
471
514
517
528
541
504
419
365
397
460
455
372
317
368
472
501
421
340
368
485
575
560
479
432
465
536
572
552
509
488
499
532
573
622
681
750
826
908
977
992
923
782
632
543
551
647
802
982
1164
1348
1560
1813
2054
2182
2140
1992
1870
1828
1805
1728
1618
1558
1574
1602
1578
1517
1456
1366
1195
952
715
510
275
-37
-340
-500
-538
-667
-1058
-1633
-2153
-2508
-2823
-3204
-3476
-3321
-2665
-1858
-1323
-1096
-805
-125
809
1540
1786
1707
1684
1917
2282
2562
2673
2680
2649
2582
2461
2295
2101
1868
1578
1265
1008
869
805
710
495
165
-195
-479
-640
-695
-683
-637
-575
-538
-600
-800
-1088
-1334
-1448
-1468
-1510
-1620
-1673
-1459
-915
-250
185
209
-31
-227
-220
-134
-195
-457
-753
-896
-865
-774
-702
-612
-467
-334
-322
-427
-510
-446
-253
-58
56
112
148
139
32
-139
-265
-285
-263
-305
-437
-598
-729
-843
-975
-1119
-1250
-1372
-1530
-1748
-2000
-2218
-2378
-2505
-2647
-2831
-3044
-3252
-3429
-3570
-3695
-3821
-3936
-4014
-4035
-4000
-3908
-3744
-3515
-3279
-3105
-2994
-2868
-2654
-2360
-2061
-1811
-1583
-1304
-951
-553
-155
216
553
858
1129
1362
1538
1634
1670
1715
1842
2049
2254
2379
2433
2496
2636
2833
2991
3041
3003
2954
2954
3004
3066
3115
3163
3232
3316
3401
3468
3524
3607
3737
3879
3983
4043
4132
4324
4613
4901
5123
5326
5614
5971
6198
6072
5555
4834
4126
3475
2781
1981
1187
603
354
397
595
846
1102
1324
1450
1418
1225
921
580
241
-81
-363
-574
-676
-654
-544
-407
-307
-271
-298
-367
-453
-528
-582
-627
-704
-867
-1126
-1409
-1597
-1598
-1418
-1128
-806
-477
-136
219
553
794
880
790
557
257
-36
-272
-435
-526
-557
-556
-554
-555
-529
-465
-398
-398
-488
-617
-701
-707
-676
-657
-645
-599
-510
-420
-373
-350
-286
-144
43
209
324
397
448
467
441
376
306
248
192
123
38
-47
-128
-231
-380
-563
-735
-853
-916
-947
-959
-942
-881
-781
-656
-479
-201
180
570
850
997
1110
1290
1515
1647
1581
1349
1077
850
657
450
219
-4
-186
-314
-390
-423
-432
-439
-457
-480
-514
-582
-677
-759
-785
-761
-734
-727
-716
-665
-584
-515
-474
-429
-343
-235
-158
-135
-120
-42
143
409
676
854
885
767
552
305
60
-190
-467
-761
-1011
-1134
-1087
-910
-704
-570
-542
-590
-663
-723
-753
-737
-652
-493
-279
-40
208
463
716
930
1050
1031
885
684
532
484
512
533
476
345
199
90
18
-53
-146
-250
-328
-359
-356
-348
-360
-394
-433
-469
-514
-593
-718
-861
-971
-1011
-986
-930
-871
-813
-749
-679
-621
-585
-554
-496
-404
-305
-233
-193
-156
-91
1
88
150
200
266
357
451
519
554
572
592
611
620
613
595
576
567
563
556
538
508
474
443
410
359
277
173
75
16
-3
-10
-30
-59
-59
0
105
198
224
178
110
66
55
43
-4
-77
-132
-127
-69
-1
38
48
71
133
216
275
280
245
216
225
263
302
329
355
386
409
390
314
198
79
-14
-74
-109
-124
-114
-71
-3
68
115
121
89
33
-33
-103
-155
-162
-117
-42
27
63
68
50
3
-75
-163
-226
-246
-235
-217
-187
-112
29
199
318
325
228
105
36
38
60
45
-2
-30
-1
61
93
64
5
-34
-41
-37
-52
-89
-132
-170
-210
-256
-314
-386
-463
-526
-566
-584
-600
-624
-648
-666
-687
-738
-838
-998
-1212
-1461
-1724
-1984
-2234
-2451
-2587
-2596
-2492
-2335
-2158
-1932
-1606
-1202
-791
-380
100
679
1246
1654
1914
2220
2709
3263
3585
3502
3132
2734
2458
2279
2100
1852
1526
1160
853
706
718
751
646
392
129
-14
-39
-19
16
105
255
399
479
522
606
761
913
963
891
779
727
770
866
946
964
928
864
786
705
630
557
479
406
372
406
492
567
580
546
523
527
501
379
165
-75
-292
-497
-724
-969
-1181
-1306
-1335
-1296
-1231
-1170
-1125
-1084
-1018
-923
-835
-800
-820
-842
-819
-764
-729
-744
-774
-758
-681
-585
-517
-484
-454
-396
-316
-231
-140
-29
115
279
433
548
613
637
651
678
718
737
702
626
592
704
994
1384
1740
1982
2141
2310
2538
2766
2889
2856
2717
2578
2499
2469
2441
2390
2324
2263
2199
2112
1988
1837
1678
1514
1320
1072
787
514
299
136
-22
-211
-424
-612
-753
-875
-1021
-1191
-1342
-1427
-1452
-1461
-1493
-1545
-1576
-1542
-1427
-1259
-1095
-977
-898
-798
-630
-420
-253
-175
-132
-34
136
294
350
314
288
333
407
434
410
409
489
635
778
877
950
1016
1084
1163
1273
1420
1563
1645
1657
1635
1609
1560
1452
1308
1209
1214
1298
1372
1380
1342
1307
1292
1260
1164
986
758
525
324
191
156
212
314
416
505
599
701
770
758
682
591
514
427
313
218
210
284
348
323
233
168
175
217
246
266
306
354
362
312
246
219
231
210
90
-92
-221
-220
-143
-153
-362
-709
-1023
-1208
-1350
-1594
-1930
-2185
-2202
-2011
-1771
-1566
-1325
-946
-442
83
555
976
1363
1698
1945
2118
2253
2342
2326
2169
1916
1657
1433
1234
1056
922
842
785
717
646
623
668
733
753
704
610
515
437
393
401
465
550
611
620
595
587
636
731
809
799
694
588
583
669
731
682
577
540
600
667
642
555
519
572
636
630
585
602
718
875
987
1037
1062
1070
1029
909
740
588
493
430
360
261
152
62
7
-28
-77
-155
-256
-349
-415
-455
-495
-557
-646
-736
-791
-795
-780
-807
-885
-958
-961
-899
-837
-822
-822
-771
-651
-509
-378
-257
-173
-186
-304
-394
-282
32
337
432
366
385
617
911
1019
886
695
610
596
507
318
151
113
177
242
269
301
350
361
281
140
13
-69
-138
-227
-307
-315
-242
-147
-89
-76
-76
-63
-47
-53
-94
-162
-233
-286
-317
-341
-380
-435
-483
-502
-499
-484
-472
-475
-512
-598
-702
-755
-713
-621
-576
-620
-695
-709
-648
-583
-566
-568
-532
-466
-431
-448
-459
-396
-280
-193
-168
-164
-127
-72
-54
-80
-112
-121
-125
-140
-144
-109
-60
-56
-110
-177
-207
-211
-227
-267
-292
-255
-165
-64
6
18
-20
-65
-60
-2
31
-50
-222
-353
-329
-186
-69
-73
-144
-160
-79
25
59
16
-37
-52
-27
8
42
75
105
128
145
152
128
53
-53
-149
-219
-276
-339
-401
-450
-498
-561
-620
-619
-541
-456
-459
-567
-703
-778
-771
-751
-776
-864
-982
-1091
-1184
-1301
-1495
-1769
-2077
-2357
-2578
-2741
-2840
-2847
-2737
-2516
-2186
-1725
-1136
-476
164
755
1348
1957
2493
2826
2947
2975
3008
3019
2912
2664
2361
2078
1820
1569
1370
1293
1336
1409
1411
1346
1303
1345
1448
1524
1513
1431
1355
1351
1417
1479
1475
1415
1372
1400
1464
1475
1395
1289
1256
1302
1330
1258
1128
1055
1090
1170
1178
1075
915
758
611
450
273
120
23
-21
-37
-52
-72
-76
-37
41
88
14
-163
-304
-282
-138
-51
-133
-280
-280
-64
211
329
240
70
-36
-56
-57
-88
-150
-221
-288
-332
-334
-297
-256
-253
-281
-291
-249
-169
-113
-128
-217
-333
-420
-457
-481
-541
-654
-759
-756
-607
-391
-241
-206
-216
-180
-100
-78
-187
-371
-505
-512
-395
-180
101
376
540
546
467
395
304
67
-366
-854
-1170
-1238
-1179
-1126
-1070
-916
-643
-344
-135
-65
-163
-453
-934
-1495
-1950
-2144
-2041
-1690
-1178
-590
25
664
1303
1784
1855
1374
517
-312
-823
-1081
-1360
-1779
-2160
-2256
-2032
-1718
-1577
-1717
-2071
-2524
-2984
-3385
-3674
-3832
-3884
-3851
-3733
-3554
-3428
-3493
-3801
-4236
-4601
-4785
-4811
-4752
-4607
-4317
-3877
-3373
-2869
-2319
-1644
-894
-246
186
497
881
1393
1883
2190
2318
2418
2595
2826
3026
3153
3214
3215
3150
3036
2901
2733
2479
2128
1732
1358
1022
695
380
158
118
265
495
662
683
576
440
358
303
159
-199
-758
-1360
-1843
-2204
-2615
-3262
-4180
-5235
-6240
-7089
-7752
-8233
-8538
-8685
-8705
-8613
-8401
-8077
-7717
-7440
-7326
-7377
-7538
-7732
-7886
-7941
-7873
-7699
-7468
-7228
-7009
-6787
-6485
-6010
-5327
-4521
-3718
-2945
-2085
-1001
296
1626
2808
3772
4513
4990
5153
5074
4965
5007
5176
5290
5219
5043
4953
5050
5249
5381
5346
5175
4957
4753
4577
4429
4318
4252
4211
4150
4040
3903
3784
3700
3608
3447
3199
2926
2722
2651
2700
2805
2899
2949
2934
2834
2652
2436
2255
2123
1962
1672
1227
721
286
-10
-170
-212
-121
132
549
1086
1659
2161
2486
2573
2446
2197
1903
1580
1208
810
472
271
208
199
164
84
-8
-98
-207
-362
-562
-773
-953
-1071
-1113
-1087
-1040
-1034
-1106
-1234
-1356
-1446
-1523
-1617
-1721
-1808
-1870
-1924
-1971
-1983
-1935
-1849
-1770
-1712
-1636
-1497
-1295
-1082
-920
-843
-825
-813
-759
-669
-587
-551
-542
-510
-431
-329
-235
-138
2
190
374
500
576
657
784
930
1032
1045
959
782
523
200
-158
-513
-846
-1152
-1427
-1655
-1809
-1872
-1847
-1770
-1695
-1658
-1653
-1639
-1593
-1546
-1543
-1587
-1610
-1550
-1425
-1307
-1240
-1187
-1091
-965
-878
-851
-822
-723
-577
-480
-468
-461
-359
-179
-42
-23
-39
63
336
669
900
970
934
870
804
736
680
641
572
413
189
34
83
321
568
633
474
225
60
36
70
37
-118
-334
-490
-503
-379
-199
-52
8
-17
-89
-158
-192
-196
-206
-250
-325
-387
-397
-353
-296
-274
-303
-356
-391
-397
-407
-473
-609
-760
-850
-862
-852
-877
-919
-912
-831
-733
-680
-663
-626
-552
-484
-469
-488
-489
-474
-504
-624
-786
-888
-896
-887
-960
-1123
-1270
-1295
-1215
-1158
-1223
-1368
-1454
-1400
-1269
-1195
-1228
-1289
-1261
-1100
-835
-510
-144
252
654
1033
1366
1630
1776
1756
1569
1268
930
617
373
218
136
89
65
106
252
472
662
727
651
496
330
184
53
-66
-158
-200
-181
-114
-36
19
50
72
90
85
42
-25
-79
-109
-147
-217
-292
-313
-251
-132
-11
68
98
89
70
71
108
158
170
118
37
-13
-6
27
41
24
-3
-24
-55
-110
-163
-173
-135
-103
-137
-231
-304
-285
-197
-135
-166
-263
-343
-355
-334
-350
-425
-518
-575
-590
-588
-595
-603
-595
-568
-537
-503
-458
-400
-347
-324
-345
-397
-454
-491
-494
-454
-377
-282
-186
-89
36
207
393
495
405
90
-341
-675
-739
-536
-236
-5
145
366
783
1320
1731
1819
1596
1248
960
784
668
562
473
436
463
546
661
777
853
859
804
711
606
497
412
400
478
587
638
593
502
445
431
400
315
223
208
309
466
594
671
749
877
1030
1141
1167
1128
1075
1027
944
790
600
458
415
424
409
358
337
401
498
518
432
314
224
115
-86
-319
-414
-314
-188
-232
-405
-427
-111
381
707
726
634
692
907
1054
973
765
647
686
750
720
632
599
641
649
525
313
150
112
143
133
62
1
2
32
20
-46
-115
-160
-222
-352
-525
-656
-697
-679
-658
-632
-572
-491
-449
-479
-529
-544
-552
-648
-855
-1058
-1123
-1048
-976
-1035
-1196
-1318
-1326
-1281
-1305
-1440
-1602
-1694
-1685
-1589
-1421
-1181
-894
-607
-331
3
475
1068
1638
2040
2268
2444
2676
2930
3070
3009
2796
2545
2327
2129
1923
1720
1555
1442
1358
1292
1263
1278
1293
1239
1099
936
831
802
796
748
644
514
398
311
249
196
127
34
-57
-95
-52
47
163
292
458
649
801
848
808
762
754
745
659
486
298
191
191
238
258
214
145
117
155
207
208
147
84
81
137
199
241
283
334
352
303
228
214
289
379
391
325
266
283
353
402
391
352
326
314
292
253
215
189
170
154
145
136
103
39
-9
28
158
298
357
325
280
283
318
326
299
272
262
235
176
132
170
270
341
321
241
182
173
173
143
103
96
116
116
77
36
40
88
125
108
58
39
87
169
216
201
165
160
174
150
53
-70
-142
-145
-134
-151
-168
-121
-5
123
201
231
257
300
331
319
283
270
313
399
478
516
524
556
653
776
832
758
603
492
491
544
544
476
431
484
592
649
627
609
676
793
846
776
647
564
550
540
472
369
306
323
378
406
389
370
386
427
451
431
383
335
307
299
306
324
345
373
440
562
709
801
804
770
796
899
989
960
812
660
609
657
712
697
615
536
520
563
601
575
478
370
303
270
218
120
-5
-128
-255
-408
-581
-742
-883
-1049
-1294
-1611
-1925
-2168
-2326
-2425
-2475
-2466
-2393
-2269
-2079
-1760
-1264
-642
-38
424
747
1030
1346
1657
1869
1940
1899
1788
1617
1386
1141
949
833
744
627
487
391
394
487
608
687
699
664
620
599
614
654
693
709
704
700
726
772
781
701
547
395
308
273
233
163
98
84
129
200
252
245
149
-28
-208
-294
-273
-235
-274
-384
-462
-441
-366
-332
-381
-460
-503
-505
-497
-488
-451
-376
-303
-282
-305
-303
-241
-169
-181
-290
-394
-374
-235
-104
-78
-106
-48
149
373
467
399
285
250
317
415
475
480
444
393
379
455
604
729
731
632
545
548
584
555
449
345
285
227
132
53
83
211
295
241
135
142
290
429
407
254
131
142
239
315
348
390
471
560
618
646
672
694
684
639
592
586
630
689
733
770
829
920
1013
1064
1053
1009
980
980
975
925
827
713
615
537
467
395
332
302
318
367
405
391
332
280
283
321
325
250
126
18
-40
-54
-40
-16
-4
-33
-93
-127
-98
-53
-76
-194
-340
-433
-469
-512
-602
-703
-754
-742
-712
-716
-750
-767
-729
-653
-607
-650
-763
-854
-836
-731
-645
-663
-761
-832
-805
-697
-577
-489
-418
-335
-234
-132
-46
11
41
59
77
100
112
117
143
227
344
410
368
259
195
232
312
333
265
193
224
375
559
653
578
332
-12
-359
-659
-933
-1205
-1420
-1434
-1168
-711
-250
83
301
460
512
341
-73
-566
-886
-888
-603
-158
355
944
1664
2519
3419
4187
4668
4835
4806
4750
4745
4742
4641
4398
4045
3605
3034
2291
1468
805
504
554
751
930
1160
1630
2367
3122
3544
3510
3218
2961
2874
2874
2841
2784
2831
3079
3462
3766
3779
3462
2983
2572
2314
2095
1734
1186
611
210
40
-31
-186
-493
-866
-1181
-1389
-1500
-1534
-1495
-1414
-1380
-1487
-1713
-1935
-2040
-2065
-2158
-2398
-2716
-2961
-3056
-3044
-3016
-3017
-3048
-3130
-3276
-3462
-3611
-3657
-3604
-3522
-3472
-3456
-3462
-3480
-3521
-3617
-3841
-4285
-4955
-5655
-6028
-5808
-5057
-4155
-3460
-2991
-2466
-1659
-699
-2
108
-324
-948
-1397
-1532
-1448
-1309
-1191
-1077
-898
-620
-303
-55
41
-2
-120
-274
-461
-644
-713
-596
-415
-439
-823
-1375
-1669
-1438
-826
-220
164
468
958
1647
2209
2271
1738
840
-119
-1012
-1906
-2893
-3929
-4838
-5453
-5727
-5705
-5457
-5016
-4399
-3677
-2944
-2249
-1566
-850
-120
553
1124
1617
2081
2524
2911
3226
3505
3790
4078
4317
4470
4554
4599
4608
4559
4456
4333
4216
4080
3874
3568
3172
2702
2151
1547
995
642
561
676
844
1010
1240
1593
1999
2277
2312
2159
1961
1807
1687
1571
1486
1479
1557
1687
1820
1922
1964
1921
1792
1597
1361
1088
790
534
416
427
452
402
318
284
274
163
-58
-209
-146
-30
-201
-727
-1202
-1151
-591
-74
-78
-470
-671
-321
330
713
546
63
-298
-321
-134
24
51
30
71
182
277
281
193
45
-133
-340
-569
-767
-876
-898
-888
-889
-903
-949
-1074
-1303
-1578
-1793
-1894
-1915
-1913
-1899
-1823
-1639
-1372
-1097
-886
-768
-683
-520
-206
213
603
871
1043
1209
1382
1465
1352
1053
678
329
40
-193
-348
-391
-343
-271
-227
-193
-112
18
126
153
119
119
238
490
801
1078
1250
1287
1178
920
548
137
-217
-467
-630
-747
-822
-813
-689
-492
-329
-281
-355
-487
-605
-672
-679
-628
-539
-435
-321
-175
22
241
413
474
421
314
224
200
258
376
501
583
623
693
850
1068
1260
1361
1370
1307
1164
931
640
350
86
-177
-434
-594
-561
-352
-123
-21
-66
-183
-329
-550
-893
-1307
-1663
-1879
-1961
-1954
-1864
-1657
-1335
-967
-650
-447
-363
-374
-459
-584
-700
-767
-780
-768
-762
-758
-723
-628
-479
-321
-215
-189
-219
-235
-193
-111
-59
-89
-173
-218
-157
2
178
283
308
309
353
455
569
633
639
640
697
820
970
1126
1327
1624
1995
2322
2466
2373
2092
1713
1297
860
389
-101
-549
-855
-933
-791
-538
-315
-185
-114
-44
32
69
31
-67
-188
-292
-350
-352
-325
-301
-280
-233
-153
-104
-172
-354
-543
-622
-580
-498
-447
-427
-419
-444
-539
-685
-783
-747
-598
-457
-438
-543
-659
-671
-567
-457
-474
-667
-950
-1175
-1246
-1173
-1051
-962
-924
-889
-799
-649
-479
-345
-282
-291
-358
-444
-491
-454
-331
-173
-43
27
54
64
68
51
-16
-141
-289
-382
-351
-215
-70
3
32
112
265
377
310
60
-248
-523
-815
-1205
-1649
-1991
-2125
-2109
-2044
-1929
-1671
-1257
-799
-376
109
804
1653
2357
2651
2580
2417
2345
2260
1933
1310
587
10
-335
-505
-556
-489
-321
-146
-65
-71
-65
3
37
-115
-471
-852
-1020
-887
-581
-289
-83
108
370
683
949
1078
1063
959
823
687
569
480
422
385
352
326
324
354
406
455
468
424
329
221
163
192
289
371
365
268
148
64
2
-91
-217
-293
-248
-108
12
27
-36
-98
-126
-172
-293
-471
-626
-714
-757
-794
-824
-806
-724
-607
-498
-422
-378
-364
-375
-395
-401
-391
-392
-437
-503
-520
-438
-282
-154
-161
-330
-574
-752
-774
-674
-574
-572
-662
-761
-782
-679
-463
-175
121
352
486
560
652
812
998
1094
992
699
364
201
328
664
984
1120
1117
1162
1365
1630
1769
1688
1462
1226
1040
884
748
676
721
869
1028
1096
1039
905
778
717
704
686
659
676
779
926
1013
981
873
776
716
637
486
292
120
1
-99
-216
-332
-394
-384
-343
-325
-333
-318
-239
-114
-7
32
13
-12
4
49
83
74
38
3
-18
-44
-93
-154
-190
-176
-121
-70
-67
-117
-170
-165
-83
20
58
-7
-122
-193
-170
-89
-17
18
52
127
243
361
457
539
629
728
816
877
918
963
1028
1107
1181
1227
1242
1245
1268
1332
1426
1514
1564
1580
1591
1600
1556
1391
1095
737
410
142
-118
-420
-737
-972
-1028
-881
-583
-216
148
473
757
1013
1252
1455
1587
1628
1616
1642
1798
2116
2543
2977
3325
3549
3668
3719
3712
3615
3383
3011
2567
2153
1844
1637
1469
1292
1126
1034
1030
1046
993
857
716
658
691
745
760
741
728
735
741
727
709
711
734
757
767
772
780
783
768
741
722
721
728
720
694
659
631
618
621
631
629
597
538
479
449
449
455
438
389
325
268
234
219
206
181
144
114
99
80
32
-48
-128
-180
-213
-250
-304
-364
-412
-431
-404
-331
-245
-208
-258
-361
-431
-422
-379
-385
-461
-545
-555
-476
-363
-278
-233
-198
-157
-121
-118
-151
-198
-229
-230
-198
-133
-46
46
124
196
285
396
495
529
490
441
460
556
651
665
612
565
583
642
687
687
658
635
631
634
623
595
571
574
603
621
591
517
448
430
449
461
445
409
373
327
270
231
250
315
365
355
308
273
266
255
223
187
168
147
92
12
-44
-51
-44
-70
-138
-211
-267
-306
-327
-311
-256
-200
-178
-177
-154
-99
-69
-116
-192
-203
-124
-40
-48
-130
-180
-139
-62
-34
-56
-67
-45
-41
-88
-127
-78
43
122
78
-42
-113
-77
13
63
45
4
1
56
141
216
257
267
275
300
337
364
368
374
423
507
570
562
511
511
619
778
864
829
765
806
971
1133
1158
1053
943
924
966
971
906
824
772
715
594
407
202
8
-200
-444
-676
-806
-795
-690
-561
-424
-252
-15
296
673
1081
1439
1656
1709
1678
1675
1713
1683
1464
1056
584
189
-89
-305
-521
-743
-927
-1026
-1034
-988
-935
-903
-893
-884
-872
-872
-890
-901
-879
-816
-732
-661
-622
-596
-550
-452
-305
-143
-11
74
135
201
283
365
430
473
504
534
571
623
687
752
798
817
817
822
849
893
915
884
795
684
606
582
573
511
370
198
54
-58
-198
-405
-632
-798
-894
-1003
-1182
-1369
-1435
-1362
-1288
-1364
-1564
-1717
-1705
-1602
-1582
-1702
-1845
-1855
-1715
-1541
-1438
-1404
-1371
-1307
-1252
-1250
-1293
-1334
-1336
-1302
-1251
-1192
-1125
-1046
-959
-871
-781
-690
-613
-568
-549
-528
-476
-393
-307
-239
-185
-121
-35
62
158
256
364
484
610
741
871
984
1061
1093
1105
1128
1166
1191
1192
1201
1266
1390
1519
1603
1649
1703
1776
1817
1781
1704
1678
1753
1880
1968
2008
2078
2240
2441
2564
2557
2480
2409
2331
2182
1937
1647
1350
1025
661
360
281
463
749
947
1039
1160
1405
1677
1782
1637
1339
1020
697
323
-86
-407
-521
-434
-258
-83
103
348
645
915
1069
1083
998
882
785
724
695
682
666
651
659
712
803
899
975
1025
1036
971
796
525
241
54
32
175
445
799
1190
1581
1956
2309
2619
2822
2853
2702
2462
2265
2155
2078
1959
1797
1656
1566
1489
1379
1260
1201
1209
1212
1168
1134
1197
1342
1448
1416
1268
1095
914
642
248
-148
-397
-506
-640
-911
-1214
-1349
-1299
-1275
-1450
-1685
-1641
-1149
-400
274
774
1292
2014
2875
3603
4007
4121
4110
4083
4032
3881
3554
3030
2377
1731
1201
798
453
122
-163
-327
-352
-294
-220
-176
-196
-306
-505
-771
-1097
-1509
-2038
-2638
-3172
-3495
-3586
-3566
-3605
-3767
-3940
-3969
-3835
-3714
-3819
-4169
-4579
-4845
-4925
-4907
-4855
-4727
-4468
-4085
-3619
-3080
-2490
-1943
-1597
-1530
-1638
-1721
-1679
-1583
-1562
-1636
-1678
-1531
-1158
-676
-263
-10
129
265
434
558
543
383
172
3
-98
-151
-164
-128
-80
-107
-252
-459
-624
-716
-809
-1011
-1349
-1748
-2104
-2349
-2475
-2526
-2570
-2657
-2774
-2854
-2850
-2778
-2703
-2648
-2571
-2421
-2201
-1957
-1713
-1452
-1166
-884
-641
-419
-163
147
470
752
996
1253
1556
1867
2112
2257
2344
2440
2569
2701
2789
2825
2839
2862
2891
2895
2853
2762
2633
2491
2366
2284
2237
2183
2090
1983
1925
1943
1996
2021
1997
1952
1905
1844
1765
1702
1687
1707
1701
1647
1592
1596
1666
1734
1745
1711
1677
1663
1647
1602
1538
1484
1446
1394
1295
1160
1032
945
879
784
624
420
251
139
42
-76
-168
-163
-66
33
106
234
476
731
836
847
1058
1655
2384
2738
2511
2052
1862
2025
2152
1887
1321
840
675
715
748
724
729
786
791
677
504
365
256
60
-267
-613
-829
-877
-876
-963
-1120
-1180
-1013
-686
-410
-317
-323
-246
-21
227
311
162
-125
-403
-574
-631
-618
-592
-583
-584
-565
-515
-467
-462
-507
-578
-673
-817
-1014
-1223
-1402
-1558
-1733
-1933
-2082
-2092
-1953
-1739
-1530
-1321
-1040
-621
-75
502
1000
1359
1596
1782
1973
2154
2243
2158
1887
1512
1167
957
900
931
948
891
761
588
402
208
0
-232
-496
-773
-1005
-1107
-1033
-832
-617
-475
-418
-408
-420
-462
-543
-647
-739
-792
-788
-719
-601
-482
-389
-287
-114
124
309
305
119
-86
-152
-87
-40
-125
-300
-419
-390
-240
-64
57
92
48
-41
-129
-184
-215
-244
-268
-254
-181
-81
-19
-30
-99
-200
-349
-583
-896
-1215
-1449
-1553
-1531
-1390
-1114
-714
-269
114
394
630
888
1132
1249
1174
984
832
801
846
869
827
750
694
686
724
783
822
794
670
478
289
169
127
126
117
78
26
-13
-40
-84
-169
-287
-399
-478
-535
-598
-679
-765
-838
-889
-906
-879
-821
-781
-807
-899
-1005
-1074
-1100
-1117
-1145
-1169
-1161
-1109
-1028
-941
-866
-818
-808
-829
-864
-901
-928
-928
-882
-788
-672
-567
-482
-400
-311
-238
-225
-304
-496
-779
-1071
-1252
-1254
-1143
-1071
-1116
-1186
-1126
-888
-597
-407
-345
-323
-267
-186
-122
-67
11
98
122
38
-102
-190
-177
-111
-78
-118
-195
-239
-209
-124
-46
-20
-50
-105
-147
-165
-178
-188
-165
-78
59
170
174
70
-56
-108
-78
-39
-42
-49
8
135
269
358
418
469
462
320
53
-202
-300
-230
-97
12
118
288
528
758
902
947
929
854
695
466
244
112
83
86
46
-44
-134
-200
-276
-407
-596
-818
-1065
-1346
-1640
-1865
-1935
-1848
-1692
-1552
-1427
-1243
-932
-491
26
536
966
1278
1484
1639
1789
1914
1946
1829
1593
1327
1106
923
721
457
169
-50
-118
-31
132
274
340
339
314
278
198
50
-131
-253
-241
-111
61
218
372
559
779
976
1085
1086
1006
898
811
770
771
774
743
674
597
525
434
265
-8
-335
-600
-671
-489
-117
287
592
783
939
1116
1260
1252
1020
610
141
-265
-545
-677
-656
-493
-213
146
536
915
1258
1540
1715
1716
1509
1171
859
700
677
655
520
300
117
49
68
104
133
178
244
287
287
283
338
442
501
442
315
248
319
465
553
516
430
426
558
746
857
829
716
615
562
522
462
403
384
387
347
221
58
-49
-73
-89
-177
-324
-452
-512
-550
-633
-767
-899
-987
-1045
-1099
-1133
-1105
-1021
-962
-1000
-1096
-1132
-1045
-916
-879
-937
-946
-789
-568
-529
-800
-1220
-1478
-1411
-1121
-819
-597
-379
-56
379
825
1164
1323
1313
1191
1044
929
851
794
757
766
830
922
1014
1097
1169
1198
1144
1023
913
874
888
883
840
808
833
866
803
603
354
192
179
250
288
248
185
180
251
340
380
351
279
174
21
-189
-405
-530
-495
-309
-37
263
583
943
1331
1691
1943
2027
1938
1734
1499
1300
1159
1053
955
863
796
767
764
764
747
719
683
629
545
449
379
367
409
469
508
502
437
304
127
-51
-210
-374
-573
-782
-928
-962
-903
-815
-717
-571
-346
-50
293
680
1106
1525
1850
2050
2180
2315
2441
2458
2288
1977
1650
1396
1199
1007
824
704
667
641
526
328
173
161
233
198
-52
-402
-609
-546
-320
-138
-102
-157
-229
-324
-505
-791
-1113
-1386
-1588
-1742
-1871
-1911
-1725
-1201
-383
489
1140
1476
1634
1789
1908
1773
1249
486
-185
-536
-595
-530
-453
-352
-184
38
238
333
276
89
-147
-354
-528
-738
-1012
-1261
-1344
-1210
-963
-753
-644
-585
-503
-379
-254
-196
-260
-455
-689
-794
-655
-332
-25
100
76
90
265
524
664
567
318
117
87
176
243
233
218
300
476
623
625
494
353
308
350
385
364
315
306
363
448
501
495
439
364
309
303
344
391
385
313
231
217
291
388
420
383
359
426
563
665
652
555
472
458
470
428
320
203
133
107
89
69
76
129
201
243
247
254
279
291
246
147
44
-15
-31
-34
-36
-26
-9
-5
-22
-25
21
90
110
47
-40
-49
59
212
306
305
261
239
250
255
227
181
155
169
212
263
318
383
454
516
548
554
573
626
691
711
660
588
574
642
718
710
613
522
536
635
707
666
539
429
406
446
478
464
419
373
341
315
290
262
222
164
92
19
-41
-96
-168
-262
-356
-415
-424
-404
-385
-394
-439
-513
-604
-698
-806
-956
-1163
-1394
-1574
-1652
-1635
-1560
-1438
-1253
-1002
-719
-429
-103
301
760
1171
1440
1584
1708
1876
2045
2109
2014
1800
1564
1369
1208
1038
845
652
499
402
342
300
267
206
53
-221
-535
-730
-706
-534
-373
-327
-362
-355
-233
-28
167
265
235
90
-153
-502
-962
-1474
-1901
-2110
-2072
-1863
-1539
-1064
-366
518
1389
2021
2320
2351
2223
1997
1678
1281
855
473
195
60
73
200
375
522
590
569
472
337
209
121
91
124
206
296
343
322
258
205
192
195
163
79
-15
-66
-66
-55
-79
-128
-142
-81
26
87
45
-64
-138
-117
-62
-94
-258
-444
-475
-275
56
340
489
561
667
839
1006
1078
1031
904
745
602
515
521
621
771
908
1003
1070
1130
1180
1200
1182
1123
1020
881
745
680
721
829
923
964
992
1069
1191
1292
1315
1278
1248
1264
1297
1294
1233
1128
986
797
566
350
240
282
422
545
581
579
640
792
931
910
686
356
59
-148
-302
-430
-491
-430
-257
-45
153
341
527
661
670
548
374
232
134
48
-23
-48
-23
11
23
39
95
170
186
109
-17
-127
-204
-295
-454
-669
-864
-941
-869
-720
-648
-757
-984
-1137
-1101
-977
-951
-1031
-976
-541
230
1028
1585
1913
2188
2482
2680
2661
2468
2256
2107
1974
1810
1680
1693
1874
2126
2307
2341
2206
1927
1581
1248
960
667
312
-80
-408
-625
-810
-1075
-1417
-1742
-2022
-2339
-2724
-3037
-3117
-3008
-2944
-3047
-3144
-2954
-2421
-1753
-1137
-549
82
620
812
615
315
210
247
135
-220
-502
-307
374
1131
1560
1648
1702
1937
2248
2364
2154
1744
1348
1075
908
805
757
771
820
849
830
778
721
672
616
548
475
401
313
193
30
-182
-456
-796
-1180
-1558
-1895
-2243
-2755
-3579
-4692
-5843
-6691
-7065
-7085
-7030
-7069
-7142
-7097
-6919
-6791
-6914
-7286
-7675
-7814
-7611
-7167
-6604
-5937
-5094
-4067
-2991
-2070
-1419
-1004
-716
-470
-254
-71
108
334
656
1079
1561
2033
2425
2696
2855
2959
3092
3315
3638
4021
4406
4757
5072
5357
5599
5792
5962
6184
6513
6919
7317
7637
7865
8042
8208
8374
8524
8627
8657
8582
8342
7853
7063
6041
4973
4016
3166
2295
1374
605
265
405
755
979
989
969
1105
1351
1491
1397
1145
905
764
690
630
589
602
656
682
629
507
375
287
252
233
190
112
15
-74
-140
-188
-237
-296
-353
-376
-344
-271
-206
-190
-222
-262
-274
-254
-231
-240
-281
-325
-338
-311
-268
-236
-212
-174
-109
-27
54
134
229
333
421
476
522
598
717
839
909
904
853
811
824
899
1005
1097
1164
1242
1377
1564
1736
1824
1803
1695
1512
1249
908
531
189
-57
-161
-93
138
466
789
1043
1240
1408
1518
1485
1270
950
658
474
379
311
251
222
244
293
325
318
284
238
172
67
-78
-235
-368
-462
-534
-617
-735
-894
-1078
-1247
-1367
-1443
-1509
-1589
-1672
-1740
-1809
-1907
-2019
-2068
-2000
-1861
-1753
-1705
-1616
-1349
-866
-254
373
963
1522
2056
2552
2986
3315
3461
3362
3047
2647
2297
2028
1776
1490
1201
991
906
913
938
932
884
807
724
644
560
468
379
312
270
232
168
71
-30
-91
-86
-17
86
186
262
319
372
424
458
459
438
416
405
392
363
322
293
291
309
332
350
367
389
431
505
612
734
843
923
973
1004
1024
1029
1017
982
921
836
727
589
423
239
58
-106
-263
-439
-649
-864
-1040
-1156
-1233
-1314
-1426
-1561
-1698
-1819
-1923
-2019
-2115
-2210
-2296
-2362
-2407
-2436
-2459
-2474
-2478
-2479
-2486
-2504
-2518
-2506
-2462
-2402
-2347
-2294
-2218
-2105
-1966
-1833
-1725
-1630
-1524
-1403
-1287
-1197
-1129
-1053
-951
-833
-730
-653
-592
-525
-447
-366
-301
-259
-238
-228
-211
-173
-115
-58
-19
2
25
64
110
139
132
101
70
62
80
107
125
133
145
178
222
246
228
178
132
112
119
144
190
253
309
333
329
334
367
394
363
265
156
93
83
85
74
59
63
84
105
118
125
124
110
92
96
132
176
198
198
203
223
235
215
175
153
166
185
176
136
100
88
88
66
7
-77
-154
-204
-224
-218
-200
-183
-178
-185
-188
-177
-155
-139
-136
-129
-99
-53
-20
-14
-18
-4
27
39
12
-32
-60
-63
-64
-73
-66
-17
60
114
109
45
-45
-150
-277
-420
-557
-674
-771
-856
-941
-1030
-1130
-1247
-1377
-1521
-1682
-1851
-1984
-2002
-1859
-1595
-1299
-1023
-715
-283
298
934
1478
1847
2070
2234
2409
2596
2726
2713
2512
2170
1811
1532
1327
1095
755
354
41
-87
-68
-26
-36
-66
-42
43
107
68
-67
-220
-326
-386
-438
-502
-554
-555
-477
-335
-170
-35
37
51
38
32
54
114
206
308
384
410
408
410
413
359
196
-49
-269
-377
-374
-332
-299
-244
-115
81
257
325
292
249
261
301
282
183
93
116
254
388
409
328
239
200
177
101
-44
-217
-380
-524
-655
-770
-871
-979
-1093
-1177
-1196
-1165
-1150
-1199
-1282
-1333
-1320
-1288
-1304
-1386
-1483
-1526
-1500
-1453
-1450
-1504
-1560
-1571
-1560
-1588
-1656
-1674
-1556
-1339
-1158
-1091
-1061
-930
-679
-441
-346
-371
-381
-283
-114
27
98
151
249
395
550
679
784
876
956
1021
1084
1165
1271
1377
1448
1485
1519
1561
1581
1547
1491
1495
1594
1713
1748
1695
1676
1791
1984
2097
2059
1973
2009
2214
2472
2657
2753
2850
3015
3221
3387
3450
3406
3293
3140
2958
2741
2502
2269
2052
1807
1488
1113
774
533
326
13
-457
-968
-1358
-1599
-1803
-2050
-2263
-2305
-2160
-1963
-1843
-1789
-1700
-1540
-1389
-1346
-1411
-1506
-1568
-1591
-1590
-1564
-1499
-1394
-1265
-1121
-961
-788
-631
-516
-436
-349
-217
-46
121
248
349
470
629
793
899
932
936
967
1033
1096
1121
1124
1140
1176
1198
1178
1140
1132
1177
1242
1269
1219
1101
958
829
730
652
568
462
340
212
70
-100
-305
-532
-762
-988
-1213
-1426
-1573
-1596
-1477
-1276
-1070
-865
-578
-112
516
1140
1573
1768
1852
1992
2236
2445
2436
2148
1698
1288
1044
932
813
577
250
-26
-129
-70
37
77
25
-57
-104
-100
-74
-60
-68
-93
-121
-147
-175
-210
-242
-243
-208
-155
-110
-77
-47
-16
-10
-42
-86
-110
-111
-116
-141
-172
-177
-155
-131
-128
-140
-155
-168
-176
-164
-136
-130
-181
-268
-320
-290
-214
-171
-200
-264
-312
-329
-341
-365
-395
-419
-446
-476
-490
-473
-431
-390
-369
-360
-356
-360
-365
-358
-337
-324
-336
-349
-323
-255
-194
-185
-210
-217
-188
-156
-160
-191
-214
-224
-243
-275
-288
-265
-235
-251
-318
-372
-357
-299
-273
-314
-366
-351
-263
-161
-103
-85
-73
-47
-17
1
7
7
-12
-46
-59
-27
40
98
130
170
253
365
449
475
477
507
575
642
681
689
679
658
632
620
638
669
685
668
633
607
604
636
703
767
769
689
590
559
604
642
595
490
431
464
513
489
406
367
424
518
551
504
438
401
381
336
268
213
184
150
95
50
63
125
184
192
155
123
119
115
76
9
-30
6
92
146
124
71
83
196
327
367
294
207
212
304
382
363
258
149
87
65
49
20
-25
-83
-141
-183
-200
-208
-221
-238
-244
-243
-266
-326
-401
-463
-524
-614
-738
-859
-946
-1011
-1077
-1132
-1141
-1110
-1101
-1171
-1299
-1406
-1449
-1468
-1525
-1599
-1583
-1402
-1097
-795
-567
-339
28
574
1151
1555
1715
1751
1844
2034
2180
2140
1916
1647
1434
1247
999
717
528
486
485
368
133
-42
-8
172
301
266
148
90
136
221
271
278
255
193
100
32
48
151
278
380
458
537
631
726
810
876
900
880
838
800
759
683
564
449
393
381
356
290
213
179
205
264
324
352
336
301
296
342
401
402
348
326
398
522
584
555
523
577
685
737
692
626
627
678
690
632
581
614
700
725
619
452
345
349
390
355
213
48
-33
-3
69
93
39
-44
-108
-154
-224
-334
-457
-537
-556
-531
-492
-444
-370
-269
-169
-116
-119
-140
-131
-90
-62
-85
-142
-170
-141
-105
-137
-242
-342
-357
-303
-294
-431
-704
-1009
-1276
-1543
-1889
-2275
-2496
-2321
-1711
-874
-87
535
1094
1704
2301
2663
2615
2204
1655
1194
903
733
615
532
513
583
713
826
843
751
601
446
306
174
74
60
155
296
382
371
304
242
165
-2
-277
-567
-740
-769
-743
-751
-758
-655
-411
-148
-35
-109
-239
-270
-180
-73
-39
-43
27
229
505
747
867
837
684
458
222
11
-186
-393
-587
-697
-683
-585
-501
-493
-543
-619
-721
-841
-921
-886
-735
-561
-448
-389
-342
-365
-600
-1111
-1739
-2197
-2314
-2162
-1945
-1776
-1575
-1169
-473
409
1234
1763
1911
1791
1623
1536
1483
1320
985
583
289
202
287
429
538
591
618
667
786
1004
1304
1628
1898
2066
2144
2175
2179
2125
1959
1664
1282
872
464
55
-354
-741
-1086
-1395
-1683
-1947
-2167
-2360
-2568
-2821
-3091
-3320
-3486
-3617
-3741
-3841
-3876
-3850
-3808
-3779
-3735
-3633
-3483
-3343
-3247
-3161
-3046
-2919
-2836
-2802
-2737
-2562
-2290
-2013
-1780
-1537
-1204
-801
-445
-216
-51
181
519
860
1083
1181
1265
1430
1665
1896
2065
2160
2194
2190
2200
2274
2407
2524
2549
2495
2449
2473
2538
2572
2540
2468
2383
2285
2177
2093
2072
2091
2078
1993
1883
1834
1868
1918
1905
1825
1743
1704
1686
1638
1545
1441
1356
1283
1199
1112
1054
1038
1036
1008
947
881
836
800
748
674
605
561
524
457
356
252
168
95
5
-105
-209
-291
-350
-392
-409
-394
-367
-353
-325
-215
-7
202
275
191
94
143
318
432
338
115
3
165
529
891
1125
1272
1437
1640
1804
1860
1826
1770
1723
1658
1545
1418
1356
1397
1495
1556
1527
1445
1376
1350
1334
1283
1193
1104
1049
1020
986
933
870
807
735
656
593
573
584
584
543
483
443
432
422
378
301
216
141
74
15
-33
-74
-128
-210
-307
-380
-417
-448
-510
-604
-693
-745
-770
-795
-827
-840
-808
-740
-675
-645
-644
-648
-634
-604
-579
-571
-577
-571
-534
-467
-398
-348
-315
-286
-254
-229
-230
-271
-357
-474
-595
-691
-757
-812
-871
-930
-981
-1047
-1164
-1335
-1513
-1643
-1725
-1780
-1803
-1746
-1590
-1374
-1146
-916
-664
-378
-67
270
644
1020
1322
1504
1619
1761
1938
2034
1931
1641
1291
1001
792
629
490
388
344
370
473
640
825
956
999
984
966
973
994
1012
1022
1025
1011
979
946
938
958
985
996
990
989
1016
1062
1095
1076
1002
909
844
819
805
769
704
631
575
536
500
459
413
369
327
285
232
162
84
19
-24
-59
-123
-229
-358
-473
-560
-635
-714
-787
-840
-881
-943
-1044
-1168
-1282
-1363
-1423
-1476
-1522
-1548
-1553
-1550
-1549
-1548
-1535
-1510
-1484
-1463
-1441
-1408
-1363
-1309
-1238
-1136
-1009
-882
-789
-738
-704
-662
-601
-527
-453
-391
-348
-326
-304
-262
-194
-122
-76
-66
-69
-50
4
76
140
184
203
192
156
113
88
87
95
89
69
65
99
173
260
329
359
338
275
208
185
214
242
215
143
99
141
240
318
329
302
287
293
296
283
279
304
336
338
302
263
253
262
246
173
55
-62
-136
-170
-192
-237
-304
-364
-389
-382
-375
-396
-444
-491
-515
-522
-538
-575
-612
-622
-603
-577
-559
-531
-470
-382
-300
-254
-244
-249
-268
-312
-374
-422
-431
-412
-391
-368
-306
-187
-43
61
96
84
65
37
-22
-111
-186
-201
-167
-128
-113
-101
-63
-10
22
21
12
21
27
-1
-55
-87
-69
-30
-24
-49
-57
-24
11
-11
-95
-200
-296
-402
-543
-709
-857
-956
-1007
-1031
-1057
-1107
-1177
-1246
-1303
-1380
-1528
-1724
-1852
-1812
-1636
-1460
-1370
-1292
-1084
-689
-177
364
913
1458
1940
2303
2585
2887
3207
3385
3263
2876
2445
2145
1959
1753
1466
1174
968
855
791
764
787
832
824
730
593
500
488
519
541
538
525
527
568
657
770
848
852
816
834
945
1067
1076
957
843
884
1083
1291
1369
1331
1286
1300
1324
1273
1153
1057
1041
1066
1067
1056
1110
1248
1386
1426
1367
1308
1333
1405
1424
1346
1225
1140
1106
1065
952
759
526
300
103
-73
-244
-418
-596
-763
-896
-967
-963
-908
-858
-870
-945
-1032
-1087
-1118
-1159
-1221
-1274
-1285
-1269
-1260
-1262
-1234
-1149
-1044
-977
-961
-951
-902
-808
-698
-590
-478
-347
-198
-31
147
315
452
560
677
845
1062
1278
1445
1569
1696
1851
2010
2123
2160
2142
2111
2108
2139
2176
2172
2109
2010
1919
1850
1779
1672
1516
1329
1146
985
839
685
504
291
69
-128
-292
-452
-630
-810
-952
-1040
-1107
-1196
-1300
-1365
-1345
-1262
-1184
-1165
-1187
-1192
-1140
-1038
-927
-838
-779
-740
-707
-661
-580
-459
-324
-220
-170
-153
-113
-18
113
221
260
239
213
239
330
433
482
461
426
449
542
650
704
698
690
730
810
880
907
901
897
913
940
965
975
964
930
885
859
872
912
941
939
922
920
936
936
893
815
741
695
676
667
656
645
637
623
596
554
508
462
392
264
86
-79
-167
-186
-221
-340
-519
-675
-764
-835
-981
-1235
-1551
-1841
-2043
-2125
-2085
-1949
-1762
-1548
-1281
-903
-386
229
855
1403
1821
2108
2301
2447
2559
2598
2499
2251
1917
1588
1310
1061
802
536
299
127
29
-8
-1
32
69
95
98
82
63
54
55
49
17
-37
-83
-88
-43
31
97
136
157
183
225
278
336
404
480
555
604
624
645
703
781
822
791
738
742
814
872
846
769
741
793
833
758
591
464
455
500
475
347
197
106
59
-19
-154
-304
-418
-505
-604
-718
-803
-819
-771
-706
-673
-682
-707
-714
-689
-645
-612
-598
-574
-503
-375
-229
-103
-3
100
216
320
374
387
405
462
538
587
593
592
648
787
974
1146
1259
1330
1415
1554
1734
1898
1995
2021
2005
1983
1968
1962
1964
1962
1941
1890
1821
1758
1709
1657
1577
1463
1337
1214
1086
933
758
598
477
379
262
102
-73
-226
-351
-477
-624
-768
-865
-910
-958
-1062
-1216
-1360
-1443
-1473
-1504
-1572
-1655
-1693
-1635
-1484
-1304
-1172
-1118
-1104
-1075
-1015
-972
-996
-1082
-1174
-1217
-1198
-1135
-1051
-961
-882
-816
-749
-667
-588
-558
-600
-677
-732
-757
-807
-929
-1087
-1177
-1130
-988
-858
-805
-796
-755
-649
-523
-457
-502
-653
-868
-1081
-1231
-1286
-1261
-1206
-1169
-1149
-1101
-998
-863
-761
-737
-783
-850
-885
-873
-827
-770
-703
-613
-495
-379
-301
-270
-260
-242
-235
-284
-406
-551
-646
-663
-641
-630
-632
-618
-572
-524
-511
-546
-625
-776
-1048
-1450
-1900
-2276
-2500
-2579
-2568
-2499
-2362
-2145
-1864
-1553
-1241
-953
-719
-561
-452
-310
-32
431
1027
1626
2120
2492
2808
3118
3378
3468
3298
2903
2421
1995
1673
1421
1191
985
842
774
750
723
683
660
673
711
733
726
715
733
773
800
801
795
803
806
772
704
652
647
663
647
591
534
515
519
502
461
424
403
372
301
203
130
99
77
34
-17
-35
-3
46
79
101
139
200
254
261
195
30
-237
-547
-782
-837
-716
-524
-359
-224
-36
250
581
842
943
875
703
514
370
272
173
54
-35
-21
99
233
306
348
443
583
641
506
228
-30
-172
-244
-331
-433
-479
-437
-357
-306
-282
-236
-163
-131
-206
-378
-562
-688
-768
-856
-944
-944
-808
-631
-597
-783
-1058
-1195
-1096
-880
-731
-698
-667
-512
-260
-51
-14
-151
-339
-408
-249
117
561
958
1276
1566
1866
2129
2244
2128
1783
1280
723
208
-198
-485
-687
-840
-967
-1070
-1143
-1185
-1215
-1274
-1417
-1660
-1934
-2150
-2301
-2463
-2691
-2929
-3080
-3144
-3216
-3329
-3351
-3098
-2564
-1983
-1605
-1445
-1297
-1011
-682
-529
-643
-885
-1077
-1202
-1402
-1784
-2275
-2683
-2872
-2830
-2596
-2184
-1578
-812
13
785
1467
2063
2552
2873
2981
2918
2801
2741
2764
2834
2899
2937
2947
2928
2868
2736
2492
2095
1579
1013
439
-168
-832
-1529
-2245
-3055
-4078
-5339
-6727
-8181
-9840
-11866
-14081
-15924
-16888
-16987
-16676
-16306
-15745
-14595
-12741
-10535
-8494
-6877
-5604
-4453
-3272
-2033
-781
413
1486
2429
3305
4190
5132
6107
7068
7983
8827
9593
10320
11085
11939
12835
13614
14100
14201
13974
13576
13122
12612
11989
11246
10478
9801
9239
8696
8069
7349
6614
5956
5424
5008
4674
4380
4090
3786
3473
3171
2890
2635
2407
2218
2085
2007
1965
1928
1880
1837
1827
1853
1890
1904
1902
1913
1945
1968
1947
1875
1783
1701
1644
1610
1595
1583
1530
1394
1163
866
550
263
53
-43
-37
5
18
8
41
151
275
299
179
-22
-197
-290
-314
-305
-280
-243
-203
-177
-169
-162
-149
-153
-210
-316
-416
-433
-350
-232
-171
-185
-204
-166
-100
-100
-203
-325
-346
-254
-167
-201
-326
-394
-312
-144
-37
-54
-116
-103
4
101
91
-21
-152
-230
-264
-291
-314
-302
-237
-155
-102
-84
-67
-24
24
35
-10
-85
-153
-206
-263
-338
-418
-477
-507
-523
-540
-546
-520
-458
-390
-350
-348
-360
-362
-348
-327
-322
-352
-412
-473
-498
-487
-470
-485
-534
-588
-629
-654
-671
-687
-703
-727
-764
-798
-813
-817
-832
-859
-865
-830
-785
-774
-784
-761
-680
-603
-598
-634
-609
-475
-311
-243
-301
-376
-337
-172
5
83
65
52
132
291
433
478
423
321
211
77
-117
-377
-664
-903
-1008
-918
-656
-332
-65
115
286
519
766
886
783
518
247
88
46
54
61
61
73
116
192
277
326
307
241
176
126
74
19
6
81
209
288
242
108
-7
-38
-24
-40
-114
-202
-243
-212
-137
-90
-144
-308
-503
-606
-572
-472
-409
-402
-370
-233
10
320
683
1102
1529
1865
2050
2133
2217
2324
2366
2249
1974
1638
1330
1064
806
535
268
41
-127
-232
-288
-323
-366
-428
-495
-545
-576
-607
-654
-707
-741
-740
-713
-677
-643
-604
-550
-474
-384
-301
-252
-251
-289
-333
-351
-334
-288
-216
-121
-12
92
181
264
351
410
388
274
125
18
-30
-78
-179
-308
-372
-317
-179
-48
25
62
101
144
155
109
12
-109
-237
-367
-486
-577
-630
-653
-659
-649
-614
-547
-451
-347
-271
-244
-265
-302
-319
-304
-281
-278
-289
-287
-256
-222
-213
-224
-205
-124
-5
85
105
77
60
91
159
231
284
315
333
356
406
485
570
622
633
629
646
678
692
669
629
610
621
635
628
607
605
635
682
720
737
741
742
740
725
694
652
608
571
544
528
522
532
565
625
699
759
782
775
766
766
749
689
603
540
536
557
548
503
482
536
639
705
677
598
550
568
601
582
503
408
336
277
192
73
-40
-101
-93
-42
14
68
144
270
439
606
714
745
733
734
764
789
773
722
684
690
718
709
638
547
503
523
543
480
318
129
8
-18
-10
-47
-145
-236
-245
-162
-39
77
185
296
365
315
131
-100
-259
-325
-391
-541
-738
-858
-826
-690
-552
-465
-403
-338
-284
-274
-316
-385
-454
-519
-583
-649
-721
-816
-955
-1128
-1304
-1467
-1642
-1849
-2061
-2207
-2238
-2174
-2076
-1967
-1816
-1585
-1277
-918
-516
-71
381
760
1010
1164
1303
1439
1496
1393
1141
838
568
341
132
-52
-176
-228
-233
-218
-186
-131
-70
-44
-64
-102
-112
-79
-29
13
56
137
272
426
542
601
643
721
846
984
1104
1207
1312
1428
1552
1684
1829
1975
2092
2163
2197
2222
2257
2300
2346
2400
2464
2517
2532
2505
2461
2416
2348
2223
2036
1831
1655
1505
1341
1125
865
591
323
53
-229
-512
-778
-1020
-1244
-1445
-1605
-1702
-1729
-1714
-1693
-1689
-1688
-1658
-1582
-1483
-1406
-1370
-1348
-1295
-1193
-1072
-967
-881
-778
-624
-431
-252
-126
-46
39
171
343
507
622
693
756
837
928
1003
1060
1108
1152
1182
1197
1212
1233
1258
1285
1319
1369
1423
1451
1431
1377
1325
1290
1259
1216
1169
1144
1143
1126
1047
919
811
791
845
879
816
682
589
612
708
767
716
595
496
467
465
431
358
303
309
349
361
329
314
364
447
487
450
384
361
387
412
404
382
370
360
339
325
341
366
346
280
244
295
394
444
410
353
349
400
439
422
367
316
295
306
341
372
370
342
330
366
430
468
457
426
405
388
355
326
342
409
483
513
502
495
537
626
725
786
781
723
657
635
669
720
735
702
655
637
672
745
820
863
863
839
821
809
765
651
490
345
256
190
94
-28
-133
-200
-263
-367
-515
-671
-817
-963
-1113
-1227
-1253
-1168
-991
-756
-483
-165
233
744
1349
1942
2396
2672
2856
3057
3256
3322
3154
2803
2403
2038
1712
1411
1159
960
778
589
433
375
402
409
311
137
-25
-127
-186
-224
-239
-235
-232
-246
-247
-201
-131
-107
-144
-180
-142
-35
49
43
-26
-72
-54
-2
11
-53
-164
-276
-361
-436
-529
-635
-715
-742
-749
-792
-881
-967
-1010
-1031
-1087
-1192
-1284
-1306
-1277
-1275
-1336
-1410
-1421
-1358
-1285
-1262
-1277
-1287
-1278
-1277
-1297
-1314
-1292
-1228
-1160
-1111
-1070
-1014
-929
-821
-698
-570
-455
-372
-317
-243
-102
100
288
395
442
531
729
981
1167
1239
1272
1369
1523
1633
1640
1611
1652
1780
1905
1940
1910
1912
1994
2103
2148
2099
2007
1940
1920
1917
1880
1782
1652
1543
1478
1428
1339
1200
1052
933
839
738
629
544
495
459
406
336
263
177
58
-72
-151
-146
-111
-123
-181
-204
-145
-57
-22
-33
-6
82
138
87
-8
2
151
306
333
271
262
346
411
360
255
233
308
361
305
211
218
352
501
554
516
472
477
516
554
566
537
475
421
425
484
532
517
465
454
511
562
527
415
319
308
347
337
221
40
-128
-240
-313
-385
-470
-560
-644
-716
-768
-785
-769
-751
-760
-802
-851
-880
-881
-856
-807
-744
-690
-655
-620
-549
-437
-329
-260
-220
-171
-109
-64
-45
-3
113
279
404
429
397
380
382
349
254
147
84
57
-3
-135
-300
-439
-560
-726
-962
-1210
-1382
-1438
-1405
-1326
-1197
-981
-654
-223
296
903
1576
2241
2789
3155
3376
3548
3717
3820
3750
3478
3089
2714
2414
2164
1906
1628
1376
1198
1090
1005
920
866
887
954
940
731
358
-10
-243
-383
-582
-907
-1264
-1526
-1686
-1832
-1989
-2051
-1926
-1696
-1566
-1666
-1911
-2091
-2072
-1875
-1591
-1252
-807
-189
598
1437
2120
2434
2268
1677
849
-22
-841
-1608
-2336
-2966
-3375
-3459
-3212
-2765
-2321
-2040
-1956
-1970
-1966
-1922
-1910
-1995
-2132
-2190
-2077
-1833
-1600
-1498
-1539
-1654
-1787
-1944
-2131
-2290
-2318
-2184
-2010
-2006
-2307
-2835
-3331
-3554
-3472
-3264
-3131
-3130
-3143
-3038
-2811
-2593
-2518
-2593
-2702
-2688
-2452
-1987
-1361
-673
7
643
1217
1702
2060
2276
2366
2345
2214
1991
1749
1584
1549
1618
1705
1758
1772
1736
1628
1453
1296
1248
1295
1316
1208
993
782
626
465
207
-146
-513
-827
-1103
-1374
-1619
-1766
-1785
-1716
-1625
-1515
-1335
-1067
-758
-476
-239
-3
264
534
761
936
1104
1297
1477
1583
1591
1549
1521
1525
1527
1478
1370
1248
1168
1156
1185
1200
1165
1094
1025
965
893
806
762
823
978
1137
1226
1272
1370
1570
1817
2018
2126
2158
2164
2186
2250
2357
2466
2533
2554
2576
2647
2767
2893
2991
3053
3088
3091
3058
3009
2970
2933
2868
2752
2593
2409
2205
1988
1786
1622
1476
1294
1068
876
813
887
994
1032
999
986
1054
1154
1188
1105
940
760
595
425
227
10
-197
-378
-546
-717
-892
-1044
-1150
-1223
-1298
-1395
-1494
-1554
-1553
-1513
-1460
-1388
-1261
-1054
-800
-561
-363
-143
199
701
1276
1775
2111
2325
2523
2739
2902
2922
2785
2552
2291
2028
1776
1562
1411
1308
1218
1135
1079
1058
1037
974
862
738
639
567
506
446
390
329
228
61
-159
-365
-478
-476
-400
-329
-293
-244
-126
58
225
283
208
50
-116
-259
-390
-529
-687
-850
-985
-1064
-1091
-1106
-1154
-1231
-1295
-1311
-1287
-1263
-1257
-1256
-1241
-1223
-1229
-1263
-1303
-1333
-1355
-1380
-1393
-1375
-1323
-1261
-1221
-1213
-1227
-1243
-1244
-1222
-1183
-1148
-1132
-1126
-1105
-1063
-1032
-1048
-1106
-1161
-1174
-1150
-1124
-1120
-1137
-1162
-1168
-1113
-962
-723
-467
-278
-189
-170
-177
-198
-243
-305
-363
-422
-512
-631
-703
-625
-376
-28
321
611
812
892
836
711
664
815
1126
1426
1545
1446
1217
975
752
475
29
-620
-1348
-1914
-2119
-1944
-1561
-1182
-904
-688
-452
-170
102
277
312
242
157
136
205
353
569
842
1115
1273
1239
1093
1016
1114
1322
1520
1702
1983
2421
2888
3175
3167
2903
2470
1908
1231
495
-219
-858
-1401
-1806
-2003
-1955
-1725
-1449
-1227
-1078
-978
-930
-963
-1082
-1248
-1402
-1514
-1592
-1642
-1633
-1536
-1382
-1263
-1237
-1259
-1229
-1112
-1004
-1026
-1171
-1301
-1306
-1221
-1170
-1208
-1258
-1229
-1123
-1013
-944
-886
-810
-741
-731
-781
-836
-857
-850
-840
-826
-789
-727
-671
-649
-656
-659
-638
-596
-552
-512
-487
-493
-535
-603
-668
-709
-743
-802
-904
-1019
-1104
-1152
-1188
-1248
-1341
-1439
-1501
-1501
-1428
-1298
-1141
-982
-825
-650
-442
-203
70
381
709
1004
1218
1367
1521
1722
1911
1978
1868
1633
1369
1124
893
671
483
360
299
277
273
283
313
349
373
373
340
286
240
226
246
267
262
241
239
280
343
396
423
445
479
522
563
597
628
647
632
580
532
540
607
672
676
634
625
697
806
855
807
718
668
677
696
689
675
693
759
840
905
949
984
1011
1022
1024
1021
1012
981
926
874
851
854
855
827
779
739
716
707
708
726
768
814
830
796
736
689
661
615
520
393
296
273
304
335
338
339
371
412
403
323
212
130
81
14
-102
-235
-320
-322
-275
-236
-236
-273
-323
-373
-426
-487
-552
-613
-667
-727
-804
-880
-920
-910
-884
-893
-937
-953
-895
-793
-724
-733
-781
-805
-797
-806
-863
-935
-966
-942
-891
-831
-748
-626
-492
-391
-345
-329
-313
-297
-300
-314
-313
-279
-235
-216
-227
-240
-231
-202
-176
-180
-231
-311
-377
-385
-335
-296
-321
-386
-401
-319
-199
-134
-141
-143
-84
-2
35
25
30
67
66
-31
-168
-221
-150
-53
-51
-141
-207
-165
-62
-8
-35
-72
-49
16
44
8
-36
-21
48
105
109
104
156
269
379
434
452
492
567
628
627
582
557
587
648
700
737
772
808
815
773
700
639
602
565
496
400
312
263
244
219
161
63
-73
-240
-418
-568
-649
-640
-550
-394
-179
86
392
733
1124
1576
2060
2502
2839
3075
3270
3466
3636
3707
3642
3457
3199
2913
2625
2351
2095
1843
1580
1317
1090
926
803
659
447
177
-89
-286
-389
-427
-448
-476
-498
-490
-440
-365
-291
-242
-234
-263
-308
-343
-357
-362
-378
-405
-419
-405
-378
-368
-384
-396
-370
-312
-270
-287
-343
-377
-349
-283
-236
-237
-251
-226
-161
-102
-79
-73
-43
12
43
19
-36
-80
-102
-128
-168
-191
-170
-125
-98
-92
-70
-14
39
54
51
89
179
254
256
210
211
308
444
524
516
475
474
535
618
674
681
660
653
680
723
755
774
797
825
836
819
812
860
938
949
842
696
649
733
810
725
486
285
288
442
518
374
131
51
243
517
586
394
173
172
357
475
371
159
72
173
311
343
290
275
346
428
436
366
259
145
48
10
52
125
154
125
120
209
348
419
361
238
154
143
154
135
94
87
125
161
140
88
67
92
111
82
42
57
104
93
4
-70
-31
66
64
-96
-273
-292
-166
-67
-111
-231
-291
-270
-263
-325
-392
-383
-324
-306
-350
-363
-270
-116
-34
-94
-236
-332
-316
-207
-79
3
13
-24
-51
-14
86
175
176
74
-48
-99
-54
34
95
111
109
114
128
145
160
168
135
38
-98
-203
-237
-236
-281
-394
-513
-568
-570
-617
-766
-949
-1037
-992
-912
-908
-942
-860
-570
-172
146
326
512
892
1490
2125
2591
2858
3056
3312
3611
3824
3842
3659
3366
3056
2770
2510
2258
2000
1744
1534
1428
1430
1472
1458
1362
1232
1116
1005
875
748
684
688
688
613
495
428
451
490
459
371
316
327
330
256
134
51
49
70
45
-20
-53
-17
43
72
57
21
-17
-67
-132
-188
-216
-229
-252
-285
-294
-256
-192
-146
-139
-155
-169
-182
-211
-260
-317
-365
-391
-389
-359
-324
-316
-332
-322
-249
-147
-97
-146
-253
-344
-405
-485
-618
-750
-790
-691
-486
-236
3
215
417
639
878
1078
1156
1102
1003
974
1039
1121
1146
1118
1076
1041
1005
981
1002
1049
1047
953
836
825
955
1121
1181
1106
988
917
897
881
847
816
799
794
797
827
886
929
905
820
727
677
665
641
574
475
387
330
297
268
239
224
223
195
100
-41
-140
-129
-49
-15
-75
-152
-135
-26
60
36
-49
-85
-36
28
34
2
-4
40
96
123
116
92
61
29
18
41
82
117
146
187
234
258
255
266
337
454
540
546
518
555
701
885
985
950
834
737
688
633
510
333
194
167
237
316
345
355
419
556
698
766
770
790
858
911
874
768
716
772
826
726
480
272
263
385
422
257
-5
-186
-291
-512
-986
-1610
-2133
-2394
-2414
-2284
-2027
-1608
-1038
-416
130
515
705
713
568
322
14
-343
-736
-1092
-1298
-1297
-1157
-1034
-1016
-1042
-988
-804
-534
-230
140
628
1187
1666
1936
1994
1900
1628
1081
285
-482
-845
-650
-80
542
1062
1544
2083
2632
3049
3230
3178
2941
2577
2170
1827
1616
1516
1454
1385
1311
1228
1112
947
760
574
360
65
-302
-632
-805
-828
-848
-1020
-1349
-1685
-1883
-1947
-1944
-1928
-1904
-1870
-1842
-1825
-1790
-1796
-1952
-2204
-2318
-2169
-2047
-2423
-3314
-4067
-4013
-3253
-2473
-1892
-743
1856
5585
8886
10449
10481
10261
10562
10832
10011
7896
5444
3855
3577
4218
5175
6171
7192
8253
9263
10061
10532
10666
10500
10131
9695
9314
9091
9062
9155
9181
8903
8143
6878
5297
3695
2276
1019
-246
-1604
-2947
-4131
-5214
-6455
-8031
-9790
-11342
-12432
-13163
-13850
-14685
-15576
-16305
-16788
-17151
-17595
-18230
-19008
-19799
-20494
-21052
-21479
-21759
-21822
-21576
-20999
-20167
-19161
-17977
-16542
-14842
-12998
-11183
-9440
-7653
-5701
-3648
-1752
-263
780
1554
2256
2952
3570
4038
4383
4689
5018
5359
5663
5895
6043
6115
6127
6108
6061
5967
5808
5621
5478
5421
5419
5416
5412
5470
5636
5874
6096
6241
6341
6485
6722
7031
7348
7626
7868
8106
8346
8559
8694
8741
8724
8665
8543
8332
8054
7777
7547
7333
7058
6687
6264
5856
5473
5075
4629
4148
3673
3232
2842
2520
2275
2077
1868
1614
1346
1120
950
793
590
317
3
-292
-503
-588
-555
-462
-361
-247
-75
167
410
572
643
673
679
603
401
144
2
89
345
589
683
625
524
485
535
606
585
406
118
-123
-178
-42
141
198
74
-149
-348
-452
-467
-433
-381
-330
-271
-146
128
592
1182
1751
2171
2420
2574
2713
2842
2908
2861
2691
2416
2061
1657
1247
868
522
203
-46
-133
12
332
659
851
903
919
961
974
852
582
262
8
-160
-298
-437
-541
-563
-520
-480
-485
-519
-541
-542
-547
-567
-585
-580
-553
-513
-460
-390
-309
-238
-196
-175
-157
-123
-68
-11
11
-47
-185
-365
-566
-796
-1035
-1168
-1053
-678
-220
122
341
609
1012
1359
1343
885
257
-162
-254
-212
-278
-477
-625
-557
-295
-19
78
-92
-492
-969
-1319
-1387
-1173
-844
-588
-449
-301
-9
393
698
711
439
83
-144
-180
-99
7
119
237
338
393
420
483
614
764
863
902
953
1083
1286
1501
1669
1759
1746
1615
1408
1230
1182
1261
1378
1454
1505
1596
1730
1806
1712
1430
1045
669
340
35
-278
-570
-765
-816
-750
-666
-642
-687
-740
-755
-745
-770
-857
-964
-1026
-1011
-953
-912
-909
-922
-930
-946
-1007
-1115
-1221
-1268
-1246
-1192
-1142
-1096
-1043
-988
-953
-940
-920
-874
-822
-809
-844
-896
-938
-989
-1090
-1243
-1376
-1395
-1260
-1028
-795
-610
-452
-272
-65
108
163
76
-87
-219
-263
-257
-266
-287
-253
-128
8
31
-106
-344
-634
-1010
-1483
-1874
-1882
-1397
-692
-199
-66
-14
332
1001
1627
1812
1463
816
214
-96
-45
228
458
434
207
65
250
691
1056
1052
680
178
-207
-382
-422
-475
-670
-1043
-1529
-2019
-2411
-2632
-2627
-2373
-1941
-1483
-1126
-860
-565
-164
284
642
847
956
1074
1261
1515
1792
2045
2225
2292
2237
2088
1883
1655
1417
1165
902
658
497
476
588
734
790
695
493
281
118
-5
-118
-203
-203
-92
72
194
240
264
311
332
226
-3
-176
-90
262
654
860
889
962
1242
1627
1842
1716
1334
929
666
546
494
468
481
550
659
800
986
1197
1358
1383
1272
1140
1119
1241
1423
1559
1609
1633
1713
1870
2024
2031
1824
1515
1338
1435
1714
1946
1989
1895
1799
1751
1694
1550
1282
909
524
294
349
626
880
938
894
943
1052
910
305
-545
-1159
-1298
-1207
-1279
-1562
-1712
-1435
-853
-397
-368
-685
-1044
-1242
-1327
-1445
-1648
-1853
-1951
-1919
-1806
-1661
-1523
-1459
-1539
-1751
-1965
-2042
-1984
-1940
-2037
-2255
-2479
-2656
-2848
-3116
-3394
-3525
-3398
-3039
-2576
-2113
-1687
-1294
-956
-726
-650
-729
-901
-1087
-1253
-1399
-1518
-1573
-1541
-1459
-1414
-1445
-1495
-1474
-1374
-1282
-1280
-1327
-1305
-1156
-944
-797
-762
-771
-742
-668
-617
-639
-693
-683
-563
-383
-253
-249
-331
-392
-375
-328
-335
-400
-417
-267
64
481
858
1144
1352
1518
1661
1791
1902
1968
1952
1859
1750
1697
1722
1798
1892
1999
2117
2222
2298
2370
2489
2661
2803
2815
2689
2533
2467
2503
2545
2505
2398
2320
2331
2372
2323
2128
1855
1628
1501
1418
1287
1085
862
670
488
229
-181
-727
-1306
-1776
-2044
-2109
-2044
-1935
-1805
-1620
-1347
-1025
-765
-663
-726
-863
-976
-1015
-978
-858
-601
-169
386
921
1317
1570
1775
1993
2169
2187
2014
1747
1532
1424
1374
1307
1206
1099
1009
941
907
921
980
1041
1052
1003
924
845
766
674
579
517
513
550
579
559
495
423
379
373
379
355
275
155
43
-27
-62
-102
-165
-225
-241
-214
-189
-203
-245
-269
-261
-255
-286
-348
-402
-428
-448
-477
-496
-473
-415
-364
-348
-358
-367
-372
-386
-406
-408
-386
-374
-393
-426
-433
-413
-407
-432
-451
-416
-342
-297
-316
-355
-341
-252
-146
-91
-101
-131
-130
-94
-50
-20
3
29
61
86
91
80
68
72
99
148
209
269
312
325
317
302
297
303
305
277
216
159
168
284
475
652
741
746
730
738
757
742
666
540
400
285
225
225
240
207
113
20
-6
15
-5
-114
-261
-348
-359
-367
-437
-540
-596
-579
-544
-553
-594
-606
-552
-459
-376
-335
-334
-355
-378
-388
-380
-372
-394
-442
-482
-480
-443
-404
-383
-371
-353
-343
-357
-383
-391
-371
-358
-384
-434
-456
-432
-409
-443
-517
-550
-491
-395
-367
-435
-515
-505
-416
-340
-345
-391
-391
-318
-221
-156
-118
-72
-6
63
131
210
301
380
428
466
539
655
773
849
884
924
996
1082
1142
1169
1191
1237
1307
1366
1387
1380
1382
1419
1473
1487
1418
1293
1178
1111
1064
978
835
683
576
498
388
201
-35
-256
-438
-598
-745
-837
-817
-682
-496
-322
-154
73
412
844
1284
1644
1895
2063
2198
2325
2426
2455
2364
2145
1839
1516
1233
1010
830
665
508
374
284
240
235
248
250
211
120
2
-97
-144
-148
-148
-176
-237
-305
-349
-353
-330
-309
-310
-317
-301
-253
-207
-198
-223
-248
-238
-205
-181
-184
-197
-197
-178
-152
-131
-115
-97
-69
-40
-21
-17
-26
-42
-60
-94
-159
-251
-343
-404
-429
-445
-481
-542
-599
-624
-609
-584
-587
-638
-721
-795
-835
-854
-885
-935
-971
-960
-914
-881
-887
-905
-889
-837
-798
-806
-838
-846
-826
-815
-833
-847
-813
-743
-692
-684
-683
-648
-595
-564
-557
-530
-456
-362
-289
-227
-133
2
134
215
260
314
399
492
561
600
626
661
717
793
868
907
891
846
821
829
830
777
675
580
537
539
551
549
532
500
449
391
352
349
360
345
306
294
354
464
538
516
429
374
412
517
605
626
607
608
656
731
792
823
832
831
823
813
810
831
885
958
1010
984
861
681
527
441
384
292
164
91
169
410
730
1035
1267
1417
1484
1479
1426
1334
1162
883
561
355
374
555
713
740
710
769
946
1122
1163
1046
833
565
227
-185
-612
-961
-1165
-1210
-1103
-880
-594
-299
-14
261
489
566
394
-11
-497
-893
-1127
-1250
-1323
-1326
-1192
-903
-546
-249
-101
-129
-342
-763
-1359
-1963
-2322
-2286
-1943
-1539
-1231
-935
-465
211
874
1246
1252
1079
996
1125
1397
1676
1893
2061
2233
2414
2534
2499
2255
1837
1317
708
-43
-953
-1895
-2630
-2974
-2936
-2684
-2422
-2260
-2189
-2129
-1982
-1720
-1446
-1349
-1561
-2037
-2567
-2927
-3008
-2846
-2554
-2254
-2024
-1864
-1687
-1412
-1073
-843
-911
-1320
-1932
-2538
-3005
-3304
-3484
-3629
-3829
-4137
-4511
-4834
-5045
-5206
-5458
-5870
-6404
-6981
-7549
-8044
-8349
-8318
-7918
-7263
-6490
-5625
-4606
-3443
-2286
-1323
-619
-104
303
584
677
587
424
315
298
297
205
-19
-313
-584
-790
-958
-1120
-1257
-1307
-1232
-1060
-848
-620
-366
-111
62
53
-167
-566
-1095
-1715
-2343
-2816
-2949
-2702
-2240
-1802
-1468
-1088
-488
285
966
1363
1571
1873
2432
3164
3934
4787
5879
7203
8477
9382
9868
10153
10401
10509
10240
9542
8662
7934
7495
7233
6970
6645
6336
6120
5957
5676
5149
4420
3657
2977
2340
1655
960
429
184
187
362
769
1513
2451
3114
3072
2371
1513
967
740
481
-48
-685
-1046
-904
-375
228
637
751
590
212
-321
-905
-1382
-1624
-1661
-1673
-1843
-2135
-2292
-2103
-1666
-1336
-1391
-1771
-2143
-2217
-1971
-1603
-1324
-1205
-1205
-1257
-1312
-1333
-1293
-1200
-1100
-1040
-1015
-970
-861
-715
-630
-692
-902
-1143
-1254
-1141
-866
-587
-402
-267
-97
58
3
-376
-919
-1291
-1298
-1060
-825
-658
-390
117
759
1267
1463
1374
1115
765
393
105
-10
13
60
83
158
359
606
702
518
115
-342
-739
-1066
-1340
-1536
-1612
-1564
-1430
-1248
-1043
-834
-637
-441
-194
159
607
1066
1437
1699
1905
2109
2294
2378
2298
2078
1809
1571
1379
1203
1021
844
693
584
525
526
591
691
772
796
767
724
701
707
733
762
776
762
727
698
701
726
731
685
610
565
584
640
678
671
653
670
725
760
708
552
336
134
-20
-147
-289
-452
-595
-676
-702
-725
-779
-847
-887
-895
-912
-960
-1007
-1012
-988
-997
-1074
-1200
-1366
-1614
-1986
-2409
-2687
-2645
-2280
-1737
-1152
-547
118
818
1428
1785
1778
1405
799
209
-112
-67
213
501
688
876
1216
1695
2091
2163
1864
1362
865
477
197
3
-96
-101
-62
-51
-91
-162
-245
-361
-526
-709
-854
-942
-1005
-1077
-1143
-1183
-1213
-1282
-1401
-1521
-1577
-1557
-1513
-1481
-1457
-1417
-1367
-1340
-1346
-1356
-1318
-1218
-1090
-986
-925
-884
-826
-746
-681
-663
-670
-634
-516
-355
-239
-206
-205
-153
-38
56
41
-77
-205
-256
-226
-182
-178
-198
-203
-187
-187
-218
-263
-318
-457
-785
-1284
-1723
-1795
-1401
-763
-243
3
155
496
1076
1617
1786
1503
985
524
260
151
104
69
42
27
37
93
194
292
311
219
48
-141
-287
-347
-300
-176
-57
-7
-26
-61
-89
-144
-247
-334
-311
-183
-70
-82
-182
-223
-114
83
235
291
298
323
369
389
352
256
115
-52
-206
-302
-314
-270
-230
-234
-258
-251
-192
-118
-92
-146
-264
-411
-585
-801
-1053
-1294
-1468
-1584
-1695
-1823
-1905
-1852
-1656
-1414
-1229
-1082
-851
-460
4
341
447
424
484
721
1027
1204
1182
1069
1019
1075
1150
1127
976
751
530
369
289
265
256
242
237
259
291
288
251
235
275
322
303
223
176
255
425
561
594
572
594
671
712
639
480
349
319
361
389
349
250
148
99
116
182
254
304
363
488
690
901
1021
1032
1014
1036
1074
1044
915
751
639
595
579
566
581
644
710
709
613
463
302
129
-93
-363
-611
-782
-909
-1080
-1312
-1491
-1488
-1347
-1281
-1440
-1706
-1824
-1704
-1544
-1582
-1786
-1879
-1697
-1385
-1226
-1289
-1372
-1271
-1066
-989
-1129
-1317
-1330
-1142
-916
-787
-719
-581
-330
-59
127
235
362
558
740
806
747
674
674
711
695
606
521
485
432
288
101
21
94
209
227
177
202
368
560
645
631
644
741
840
837
763
739
821
934
987
970
959
1024
1156
1291
1357
1300
1149
1036
1058
1169
1215
1113
970
967
1127
1271
1234
1043
877
849
921
993
1019
1012
972
907
880
959
1098
1134
968
711
578
643
758
730
543
366
345
455
550
515
362
211
163
232
334
363
301
230
237
327
442
512
527
505
477
482
554
682
775
762
678
650
749
889
915
798
682
708
828
870
760
634
658
794
835
649
361
205
248
320
241
38
-127
-173
-175
-235
-359
-496
-653
-868
-1087
-1177
-1081
-915
-831
-826
-755
-504
-123
276
635
967
1252
1432
1521
1624
1781
1875
1745
1393
1028
845
828
779
584
333
194
212
272
265
211
177
165
107
-26
-149
-164
-74
20
24
-57
-141
-150
-88
-36
-69
-187
-299
-319
-252
-206
-253
-349
-402
-388
-378
-421
-473
-471
-426
-398
-403
-388
-326
-255
-217
-199
-173
-157
-190
-260
-298
-280
-270
-318
-367
-327
-205
-114
-135
-209
-227
-184
-161
-211
-285
-330
-339
-345
-355
-341
-315
-319
-368
-416
-406
-341
-271
-240
-248
-257
-241
-187
-88
27
102
98
41
5
36
99
118
72
33
73
155
178
102
20
68
249
405
394
249
131
152
268
360
363
320
302
331
373
393
395
408
442
457
404
296
226
283
433
526
456
293
208
271
380
390
297
212
215
267
293
286
300
346
377
351
285
232
215
217
203
158
87
14
-18
15
82
117
82
9
-33
-18
13
20
12
29
76
113
117
119
169
253
287
222
116
77
134
195
170
81
36
97
202
261
269
291
355
422
449
449
457
466
440
397
404
478
554
553
503
512
623
751
776
699
634
647
682
631
490
362
333
364
361
295
236
239
284
303
279
249
242
230
173
73
-34
-125
-216
-318
-405
-445
-451
-480
-566
-688
-797
-885
-983
-1115
-1253
-1341
-1344
-1273
-1147
-984
-798
-597
-361
-49
350
776
1122
1343
1504
1696
1916
2046
1980
1757
1533
1412
1348
1224
1001
776
663
666
703
715
717
738
758
728
654
609
635
692
699
642
587
591
632
646
617
578
554
528
467
382
307
248
190
121
52
-8
-65
-115
-129
-90
-34
-20
-58
-100
-98
-67
-66
-118
-190
-243
-280
-327
-392
-453
-492
-502
-488
-452
-401
-351
-304
-238
-135
-20
53
57
23
13
55
116
141
110
57
27
35
63
88
108
136
177
215
236
253
289
334
350
309
240
214
257
321
328
270
220
243
301
291
174
29
-26
34
121
155
153
190
300
438
559
674
806
934
1009
1024
1040
1105
1187
1216
1178
1130
1126
1157
1180
1177
1175
1193
1214
1220
1220
1239
1279
1296
1254
1169
1106
1114
1176
1221
1182
1061
909
771
636
463
233
4
-136
-134
-9
174
356
525
707
926
1167
1369
1463
1431
1326
1237
1211
1226
1226
1173
1079
991
946
938
928
875
785
694
631
576
493
388
309
289
289
234
100
-56
-149
-169
-171
-218
-313
-401
-426
-386
-320
-281
-271
-238
-134
12
94
30
-137
-268
-267
-181
-124
-137
-149
-85
44
181
310
436
492
349
-26
-462
-706
-668
-508
-441
-500
-534
-415
-190
-26
-24
-154
-346
-577
-848
-1113
-1287
-1339
-1323
-1325
-1364
-1390
-1366
-1306
-1244
-1181
-1098
-1007
-943
-889
-736
-379
157
697
1066
1240
1343
1481
1616
1611
1380
980
561
250
75
-25
-118
-205
-211
-41
318
739
1040
1131
1094
1071
1109
1131
1043
860
685
591
548
488
396
317
281
262
220
158
125
138
155
131
82
49
21
-75
-289
-558
-779
-953
-1240
-1801
-2594
-3385
-3956
-4297
-4544
-4782
-4952
-4961
-4831
-4709
-4734
-4934
-5268
-5709
-6269
-6944
-7679
-8373
-8927
-9286
-9446
-9436
-9272
-8939
-8401
-7654
-6747
-5746
-4683
-3548
-2330
-1060
199
1383
2456
3397
4171
4736
5085
5286
5439
5601
5743
5792
5726
5606
5518
5473
5396
5219
4963
4712
4520
4352
4136
3867
3639
3560
3625
3711
3698
3592
3516
3567
3702
3778
3724
3619
3621
3824
4179
4571
4915
5189
5401
5549
5611
5575
5433
5178
4821
4398
3976
3618
3357
3176
3017
2815
2538
2218
1931
1734
1608
1474
1274
1045
891
878
965
1029
971
784
541
309
121
-30
-161
-285
-399
-478
-499
-472
-430
-405
-405
-415
-442
-512
-629
-760
-875
-986
-1115
-1236
-1274
-1193
-1041
-911
-845
-804
-740
-645
-552
-480
-423
-374
-340
-326
-324
-328
-354
-420
-517
-600
-630
-599
-514
-383
-214
-29
156
342
522
661
699
618
485
398
398
433
442
424
447
561
728
862
903
863
790
724
671
631
609
609
614
603
574
547
532
499
398
222
32
-105
-188
-283
-449
-657
-826
-918
-979
-1080
-1235
-1395
-1512
-1592
-1652
-1684
-1645
-1518
-1339
-1154
-967
-733
-409
-3
423
798
1089
1311
1498
1665
1784
1806
1706
1505
1257
1007
777
577
416
292
195
118
77
100
189
296
352
326
240
143
74
43
47
77
112
118
74
1
-41
-10
72
136
131
74
37
72
165
271
355
409
442
460
470
485
517
553
569
553
524
515
537
584
644
706
758
782
777
766
773
794
808
797
773
761
765
768
753
728
707
697
692
680
662
638
606
560
501
434
371
321
292
283
272
219
103
-51
-181
-250
-295
-389
-554
-722
-807
-798
-772
-810
-910
-994
-1011
-987
-988
-1042
-1112
-1147
-1146
-1141
-1152
-1161
-1144
-1106
-1080
-1081
-1085
-1055
-982
-906
-866
-862
-856
-821
-766
-722
-697
-677
-648
-617
-591
-561
-510
-446
-399
-378
-362
-322
-267
-226
-212
-198
-155
-99
-69
-84
-108
-106
-87
-91
-143
-216
-270
-301
-338
-398
-457
-486
-481
-468
-462
-454
-428
-392
-365
-363
-376
-385
-383
-380
-388
-407
-432
-457
-472
-468
-438
-393
-359
-350
-358
-357
-330
-288
-256
-251
-263
-278
-287
-297
-314
-340
-368
-390
-402
-402
-397
-392
-384
-367
-339
-312
-297
-292
-292
-298
-320
-357
-388
-391
-370
-345
-320
-280
-216
-154
-123
-114
-81
-10
47
28
-63
-149
-167
-133
-104
-111
-133
-148
-165
-189
-193
-152
-92
-89
-170
-280
-342
-345
-360
-441
-554
-623
-640
-675
-785
-937
-1062
-1149
-1260
-1430
-1579
-1583
-1413
-1177
-992
-858
-657
-302
163
615
961
1207
1409
1603
1779
1905
1942
1849
1621
1315
1025
807
639
476
304
165
100
94
103
106
116
134
128
68
-28
-95
-79
6
100
164
209
266
330
358
321
244
184
164
148
86
-21
-103
-98
-16
70
103
98
104
135
161
166
190
280
415
526
588
646
759
917
1054
1120
1117
1070
991
893
796
722
664
604
549
537
571
595
545
432
320
237
125
-70
-316
-519
-633
-704
-803
-923
-998
-995
-964
-978
-1038
-1081
-1059
-1008
-1009
-1081
-1161
-1174
-1115
-1046
-1014
-1016
-1020
-1009
-993
-977
-954
-928
-918
-926
-915
-867
-817
-814
-856
-879
-841
-773
-736
-753
-785
-794
-787
-793
-811
-807
-765
-698
-626
-550
-469
-395
-333
-251
-104
103
311
463
572
690
834
966
1037
1050
1052
1071
1083
1048
981
942
972
1047
1103
1098
1065
1063
1117
1181
1207
1198
1206
1269
1365
1442
1480
1509
1569
1654
1724
1743
1715
1671
1644
1650
1685
1730
1758
1752
1729
1734
1794
1895
1998
2077
2124
2149
2159
2157
2149
2132
2084
1980
1823
1639
1469
1333
1237
1177
1126
1032
857
621
399
255
179
93
-64
-262
-407
-423
-321
-177
-66
-12
13
38
74
123
197
290
373
417
433
475
577
702
773
771
744
754
805
862
916
1000
1129
1269
1373
1426
1452
1467
1453
1387
1280
1168
1080
1024
995
978
952
897
818
726
629
499
303
39
-260
-548
-784
-944
-1014
-990
-880
-703
-486
-222
135
635
1248
1829
