39
71
88
86
88
118
169
208
219
218
234
271
300
300
280
274
293
321
330
315
294
279
268
252
226
195
164
137
112
90
77
78
93
114
132
140
144
153
177
204
222
226
226
230
235
227
203
175
159
153
146
137
142
174
231
290
332
361
394
442
494
535
560
578
601
630
660
693
731
769
789
780
756
740
744
753
747
721
693
684
698
716
719
706
696
698
707
703
675
634
612
629
665
677
638
562
482
419
362
290
205
145
162
293
524
779
969
1058
1116
1255
1514
1798
1958
1934
1801
1677
1600
1509
1331
1061
749
454
213
53
-6
24
96
163
219
284
371
458
515
527
489
408
309
235
219
259
318
354
360
344
314
267
214
181
181
202
214
207
196
195
195
177
142
116
120
139
142
114
75
52
50
49
32
9
-2
-3
-13
-47
-91
-121
-136
-161
-211
-266
-294
-293
-296
-328
-375
-399
-395
-394
-420
-461
-487
-489
-488
-499
-510
-504
-482
-459
-439
-413
-379
-352
-346
-348
-331
-291
-255
-242
-236
-207
-146
-78
-32
-8
15
50
90
120
134
136
138
151
182
224
260
278
285
300
331
363
377
372
366
365
361
347
330
330
344
349
326
284
243
212
173
110
24
-63
-129
-170
-204
-255
-314
-340
-278
-118
85
255
362
442
548
686
801
826
743
603
483
424
414
410
381
338
324
364
445
521
554
550
544
568
619
666
683
678
684
727
791
836
836
804
768
743
723
715
734
772
787
744
668
617
616
617
562
463
402
437
541
639
690
717
767
848
931
987
999
957
862
746
661
647
700
792
903
1031
1171
1302
1412
1525
1683
1893
2088
2179
2126
1987
1862
1810
1769
1608
1256
792
393
179
108
40
-116
-329
-517
-647
-721
-715
-573
-286
37
270
397
522
727
955
1069
1004
829
658
541
464
413
411
471
567
646
678
667
634
576
491
385
273
181
133
133
163
188
191
180
173
160
108
8
-88
-110
-40
48
50
-66
-236
-371
-437
-466
-491
-503
-475
-409
-342
-300
-267
-208
-134
-94
-123
-200
-261
-275
-261
-258
-282
-316
-335
-337
-335
-341
-349
-347
-331
-310
-296
-290
-271
-217
-138
-63
-19
-3
12
43
80
99
90
66
55
78
133
201
256
293
331
383
438
465
443
384
323
285
266
246
218
195
196
222
256
272
261
231
202
183
166
142
113
97
108
143
185
222
248
263
268
267
275
304
349
383
387
365
344
339
339
319
278
237
219
226
239
248
257
277
304
331
353
371
394
423
451
472
485
497
517
554
597
628
633
617
595
576
564
558
562
579
594
593
575
556
548
541
518
472
415
361
324
315
330
349
341
300
247
208
186
160
126
120
192
365
608
864
1076
1223
1329
1445
1605
1778
1880
1848
1701
1525
1384
1264
1100
855
556
268
45
-98
-165
-172
-144
-103
-60
-11
52
117
161
164
117
36
-49
-104
-113
-79
-17
47
87
80
22
-64
-141
-183
-194
-196
-198
-196
-179
-151
-122
-87
-44
-3
-3
-58
-138
-184
-173
-146
-163
-228
-283
-282
-240
-217
-239
-284
-323
-361
-422
-502
-560
-576
-579
-615
-695
-791
-868
-921
-955
-974
-988
-1022
-1081
-1118
-1076
-963
-864
-847
-876
-855
-756
-657
-646
-706
-738
-700
-646
-641
-657
-620
-514
-413
-375
-371
-325
-221
-119
-77
-77
-77
-81
-122
-188
-209
-135
-12
73
85
69
79
104
106
104
147
236
293
246
133
88
198
393
489
375
110
-114
-144
13
176
159
-53
-278
-318
-160
14
24
-128
-278
-296
-230
-211
-273
-307
-190
55
261
267
77
-133
-178
-45
86
57
-91
-172
-72
122
248
271
308
436
594
686
733
830
1003
1139
1142
1068
1054
1130
1181
1094
909
774
780
876
929
870
748
665
668
716
737
704
651
615
581
513
427
405
508
665
707
553
316
187
237
319
221
-100
-453
-598
-463
-199
-4
52
62
149
363
670
1005
1291
1464
1495
1411
1291
1195
1093
904
596
234
-75
-272
-367
-389
-350
-261
-164
-109
-93
-59
33
137
143
-4
-234
-396
-396
-272
-151
-126
-173
-204
-173
-132
-161
-256
-316
-239
-33
205
402
557
688
760
705
518
292
118
-5
-148
-347
-545
-652
-629
-512
-364
-226
-116
-47
-23
-29
-34
-17
10
11
-38
-117
-180
-187
-154
-136
-175
-255
-325
-356
-368
-385
-402
-388
-343
-306
-320
-371
-405
-384
-318
-251
-211
-198
-208
-246
-308
-369
-389
-347
-264
-180
-110
-37
66
195
307
355
334
285
252
257
302
380
478
567
619
641
669
718
751
714
599
474
411
415
430
421
419
464
533
554
498
415
378
379
343
241
131
102
154
196
143
11
-106
-150
-162
-202
-269
-290
-218
-101
-35
-46
-63
0
136
255
284
258
280
409
587
708
722
688
706
803
908
935
878
819
841
955
1083
1128
1066
972
946
1016
1112
1137
1069
989
992
1086
1201
1250
1215
1155
1120
1105
1066
985
896
856
888
945
945
861
743
669
652
615
473
228
2
-59
93
368
619
759
820
919
1162
1550
1964
2247
2327
2282
2244
2259
2243
2078
1751
1360
1000
694
431
239
179
250
356
402
406
465
608
736
726
568
371
240
191
167
133
102
107
149
192
186
104
-28
-133
-159
-149
-195
-329
-459
-464
-354
-272
-335
-488
-566
-478
-308
-212
-250
-353
-419
-407
-336
-256
-218
-248
-321
-369
-334
-232
-145
-134
-167
-173
-124
-65
-53
-84
-107
-96
-78
-88
-121
-150
-164
-176
-194
-212
-221
-217
-201
-179
-179
-238
-341
-395
-307
-103
60
59
-47
-65
103
345
472
422
303
255
307
390
432
413
348
278
258
328
460
562
578
546
554
622
682
645
525
431
449
551
622
593
533
560
687
790
741
582
487
555
677
664
507
419
588
932
1168
1111
862
668
643
673
581
336
65
-94
-103
-25
55
94
91
60
28
12
4
-10
-33
-59
-62
-5
132
332
535
685
769
824
890
955
972
918
827
761
734
717
695
688
711
738
733
701
691
736
805
843
823
775
737
734
762
795
799
763
714
683
660
602
496
385
319
276
195
74
-5
58
272
548
775
902
950
1007
1170
1468
1799
1995
1984
1863
1799
1841
1865
1722
1389
978
622
378
231
148
107
114
190
340
534
715
848
945
1035
1098
1078
958
802
718
747
821
840
759
626
531
507
514
480
395
304
233
154
26
-128
-214
-178
-77
-18
-27
-8
122
319
435
371
186
43
38
118
152
69
-75
-169
-162
-106
-92
-158
-262
-341
-381
-417
-473
-536
-574
-585
-600
-646
-710
-758
-776
-784
-798
-804
-774
-705
-629
-584
-564
-528
-455
-374
-328
-322
-312
-253
-156
-78
-61
-83
-82
-34
24
42
23
22
83
174
227
208
162
161
230
321
369
353
310
289
304
336
354
341
297
235
189
186
224
261
260
226
204
224
257
246
174
89
48
56
57
13
-47
-58
-1
71
100
86
81
115
154
145
85
24
10
36
58
50
28
34
88
173
245
253
185
76
1
18
109
192
196
128
77
120
245
358
367
272
162
117
132
142
113
89
132
230
303
295
248
233
261
270
205
102
27
-5
-26
-36
7
102
171
143
55
43
157
264
175
-143
-479
-573
-371
-63
117
115
89
223
547
921
1169
1229
1180
1147
1177
1208
1138
923
615
313
68
-135
-338
-534
-658
-665
-580
-480
-405
-325
-208
-79
-20
-56
-119
-134
-122
-175
-320
-443
-418
-268
-160
-230
-424
-558
-528
-421
-393
-477
-541
-460
-280
-168
-213
-318
-324
-209
-130
-241
-524
-837
-1078
-1272
-1479
-1675
-1770
-1721
-1569
-1369
-1131
-845
-554
-347
-279
-305
-338
-354
-403
-535
-712
-849
-889
-846
-783
-754
-773
-812
-820
-739
-519
-157
295
753
1137
1383
1443
1291
969
572
184
-196
-628
-1122
-1561
-1771
-1692
-1443
-1238
-1202
-1294
-1366
-1320
-1170
-1001
-889
-850
-852
-834
-747
-592
-419
-312
-323
-414
-486
-475
-406
-340
-291
-213
-75
76
136
62
-77
-162
-136
-53
-11
-52
-121
-148
-118
-76
-66
-85
-103
-118
-150
-201
-242
-253
-271
-353
-497
-618
-628
-537
-444
-429
-469
-478
-412
-328
-308
-367
-439
-462
-445
-441
-476
-508
-486
-417
-360
-362
-398
-406
-353
-274
-229
-237
-266
-280
-274
-270
-281
-306
-336
-371
-418
-473
-513
-519
-488
-438
-402
-407
-454
-519
-557
-548
-519
-527
-610
-746
-874
-958
-1019
-1096
-1189
-1250
-1243
-1171
-1034
-811
-508
-222
-75
-69
-37
177
539
836
915
836
770
783
774
623
345
46
-216
-454
-678
-847
-909
-868
-765
-626
-466
-328
-270
-292
-329
-327
-311
-346
-439
-503
-451
-295
-140
-74
-94
-134
-158
-211
-344
-520
-626
-593
-494
-475
-585
-709
-692
-522
-338
-269
-302
-338
-328
-324
-386
-486
-544
-531
-495
-489
-509
-513
-496
-502
-578
-718
-878
-1033
-1195
-1365
-1500
-1538
-1483
-1414
-1402
-1431
-1417
-1323
-1227
-1230
-1331
-1428
-1452
-1449
-1503
-1594
-1600
-1451
-1232
-1101
-1111
-1148
-1076
-886
-692
-605
-628
-685
-708
-695
-678
-675
-674
-658
-629
-599
-568
-504
-376
-191
-7
109
139
131
142
189
236
254
242
223
209
202
224
303
434
552
579
496
366
269
214
146
23
-128
-238
-275
-258
-218
-154
-55
60
138
148
113
88
99
125
132
118
110
132
180
228
252
243
216
195
192
198
193
181
196
256
332
373
360
336
352
404
434
408
366
378
458
550
588
570
546
549
550
509
424
332
265
228
224
268
341
384
348
269
252
348
479
518
439
355
369
444
445
300
66
-169
-394
-646
-909
-1078
-1051
-851
-606
-434
-352
-284
-138
107
379
557
555
400
226
151
178
204
136
-36
-252
-456
-612
-690
-667
-558
-442
-395
-401
-360
-199
38
222
265
200
122
87
77
55
18
-12
-40
-99
-200
-307
-375
-386
-361
-324
-283
-234
-184
-153
-147
-161
-186
-209
-225
-232
-233
-238
-252
-269
-274
-267
-262
-267
-277
-286
-301
-334
-389
-442
-480
-509
-550
-604
-647
-664
-671
-700
-746
-779
-781
-780
-818
-886
-939
-948
-941
-967
-1029
-1080
-1091
-1080
-1077
-1079
-1055
-998
-935
-896
-873
-840
-794
-754
-731
-713
-690
-673
-672
-675
-654
-597
-517
-433
-353
-281
-228
-203
-190
-167
-137
-128
-155
-195
-205
-174
-125
-87
-62
-33
8
51
80
89
77
48
7
-38
-85
-129
-169
-199
-215
-221
-226
-224
-198
-141
-75
-32
-21
-13
21
71
96
79
50
52
80
85
39
-33
-81
-88
-86
-97
-99
-66
-9
29
31
28
56
95
95
37
-39
-77
-63
-30
-1
37
110
212
308
369
404
447
514
578
584
515
415
360
383
442
470
443
402
397
427
449
433
396
372
364
320
203
34
-119
-210
-268
-358
-502
-632
-640
-471
-179
111
299
372
408
502
693
923
1091
1141
1109
1083
1116
1183
1216
1170
1032
819
568
341
210
193
238
268
272
315
451
642
789
826
766
668
570
466
357
271
246
294
377
414
349
170
98
176
233
196
87
-14
-51
-20
74
215
338
345
209
60
81
285
469
417
136
-137
-192
-59
58
10
-179
-375
-470
-438
-341
-293
-380
-576
-729
-713
-568
-463
-497
-582
-585
-504
-468
-549
-665
-707
-678
-657
-663
-636
-554
-498
-545
-651
-699
-678
-695
-793
-876
-828
-658
-491
-385
-285
-139
-8
6
-86
-161
-146
-115
-187
-345
-439
-369
-201
-91
-112
-198
-251
-246
-210
-155
-67
25
59
27
-9
11
50
1
-187
-418
-557
-567
-515
-478
-483
-503
-515
-505
-459
-386
-325
-339
-430
-510
-474
-307
-118
-40
-110
-234
-284
-219
-117
-93
-181
-306
-359
-302
-192
-117
-121
-168
-183
-116
6
92
72
-13
-40
52
196
272
246
219
295
446
548
528
443
405
458
544
586
567
531
550
653
806
932
982
967
930
878
778
619
461
378
367
346
265
172
145
181
195
116
-25
-155
-233
-231
-112
140
440
644
703
765
1006
1419
1796
1952
1884
1745
1662
1623
1550
1390
1143
840
547
329
220
187
172
142
118
129
191
303
453
613
724
750
710
669
676
715
724
645
479
283
145
111
143
169
163
181
280
435
540
509
380
257
193
156
93
-8
-100
-127
-88
-27
2
-23
-70
-91
-69
-41
-67
-165
-289
-369
-370
-334
-335
-412
-521
-574
-519
-399
-303
-285
-320
-349
-354
-359
-397
-472
-546
-588
-588
-546
-468
-361
-249
-172
-170
-240
-340
-401
-381
-309
-258
-284
-352
-352
-210
25
207
233
141
65
100
206
274
244
162
119
164
286
436
579
675
690
631
569
594
735
898
946
828
644
537
548
578
525
401
288
216
145
49
-11
26
118
158
124
97
147
218
208
132
99
136
122
-44
-279
-391
-291
-119
-75
-212
-413
-527
-507
-422
-370
-421
-563
-702
-718
-572
-334
-100
91
276
470
621
682
677
667
660
610
498
388
367
442
531
551
510
491
550
652
710
672
559
453
419
455
504
509
469
432
433
455
444
387
328
300
284
217
87
-31
-53
33
161
269
373
529
756
1007
1226
1399
1566
1765
1977
2117
2099
1929
1721
1589
1517
1364
1021
571
228
113
143
142
64
30
150
371
539
580
572
599
640
622
534
459
460
504
514
470
428
431
454
436
353
243
167
148
169
190
174
110
20
-56
-96
-116
-150
-214
-286
-333
-342
-327
-312
-307
-299
-264
-207
-176
-223
-335
-430
-435
-382
-385
-505
-667
-722
-619
-463
-387
-406
-437
-416
-385
-401
-450
-478
-484
-538
-675
-817
-848
-749
-631
-610
-683
-749
-728
-633
-530
-463
-431
-425
-434
-446
-427
-356
-246
-152
-111
-106
-90
-28
64
145
200
240
269
274
243
197
179
197
214
192
152
158
239
359
450
485
489
490
491
478
441
367
243
78
-76
-155
-148
-116
-119
-142
-120
-30
74
124
112
88
81
65
18
-27
-14
54
108
98
53
38
56
44
-40
-149
-197
-163
-105
-74
-48
35
180
315
381
396
410
432
428
393
375
411
464
472
437
427
481
547
536
437
331
296
321
335
302
250
222
234
264
279
263
206
119
37
-3
12
47
53
20
-24
-47
-55
-78
-127
-178
-189
-121
33
256
501
704
828
904
1017
1236
1522
1735
1750
1589
1401
1314
1296
1186
873
404
-58
-392
-593
-726
-827
-876
-846
-742
-605
-466
-336
-220
-139
-127
-206
-346
-455
-446
-323
-190
-161
-237
-318
-320
-280
-300
-419
-556
-599
-519
-374
-232
-129
-94
-161
-322
-500
-608
-657
-748
-956
-1222
-1396
-1374
-1198
-1013
-944
-1013
-1148
-1262
-1323
-1359
-1420
-1523
-1639
-1723
-1758
-1752
-1712
-1631
-1526
-1453
-1475
-1580
-1680
-1704
-1665
-1639
-1659
-1678
-1637
-1547
-1473
-1450
-1444
-1405
-1339
-1286
-1262
-1239
-1203
-1172
-1160
-1134
-1057
-943
-855
-820
-802
-746
-654
-571
-532
-523
-522
-548
-632
-753
-841
-847
-804
-780
-794
-796
-723
-568
-379
-213
-92
-19
4
-29
-91
-121
-80
-1
40
18
11
117
319
487
495
371
263
274
347
334
172
-50
-202
-250
-272
-357
-508
-656
-735
-736
-700
-660
-616
-561
-496
-422
-337
-247
-177
-159
-192
-239
-272
-302
-370
-483
-582
-597
-527
-425
-333
-243
-127
2
98
135
131
113
76
9
-69
-122
-140
-152
-177
-196
-177
-133
-124
-185
-279
-329
-297
-220
-177
-214
-295
-347
-345
-350
-457
-691
-978
-1222
-1402
-1562
-1728
-1848
-1828
-1629
-1321
-1025
-834
-746
-681
-538
-289
-6
189
232
167
83
27
-26
-129
-313
-582
-906
-1222
-1450
-1553
-1559
-1531
-1495
-1433
-1335
-1229
-1138
-1041
-910
-795
-803
-980
-1216
-1332
-1260
-1108
-1055
-1180
-1411
-1617
-1739
-1824
-1938
-2093
-2234
-2304
-2311
-2307
-2321
-2312
-2222
-2067
-1947
-1946
-2024
-2052
-1958
-1816
-1774
-1880
-2021
-2051
-1945
-1805
-1734
-1726
-1716
-1684
-1674
-1723
-1793
-1824
-1816
-1828
-1901
-2003
-2073
-2097
-2117
-2175
-2258
-2308
-2287
-2225
-2198
-2251
-2337
-2368
-2314
-2239
-2237
-2307
-2348
-2281
-2140
-2034
-2012
-2002
-1908
-1729
-1568
-1512
-1544
-1564
-1502
-1379
-1275
-1245
-1264
-1253
-1160
-1013
-898
-875
-922
-971
-987
-993
-1024
-1079
-1122
-1128
-1106
-1077
-1056
-1052
-1081
-1141
-1209
-1257
-1299
-1373
-1487
-1590
-1630
-1616
-1600
-1605
-1591
-1514
-1402
-1338
-1357
-1405
-1397
-1325
-1253
-1238
-1269
-1288
-1267
-1228
-1201
-1201
-1219
-1244
-1263
-1263
-1248
-1240
-1250
-1258
-1226
-1148
-1060
-998
-960
-909
-826
-732
-662
-622
-589
-546
-502
-470
-446
-405
-332
-244
-178
-157
-160
-147
-100
-43
-23
-56
-108
-137
-133
-122
-122
-124
-107
-71
-42
-40
-51
-47
-17
7
-20
-98
-193
-271
-343
-439
-561
-663
-697
-637
-492
-289
-76
89
169
209
302
482
672
758
704
584
495
446
374
221
-20
-314
-617
-888
-1099
-1259
-1399
-1529
-1614
-1613
-1542
-1467
-1437
-1442
-1433
-1379
-1282
-1144
-978
-818
-707
-635
-547
-422
-346
-435
-703
-1008
-1182
-1200
-1183
-1238
-1328
-1342
-1234
-1080
-982
-955
-938
-884
-814
-779
-791
-819
-843
-851
-839
-801
-749
-714
-711
-721
-712
-682
-661
-658
-656
-635
-606
-600
-623
-655
-680
-704
-737
-779
-817
-845
-876
-912
-941
-944
-916
-867
-814
-777
-760
-747
-714
-647
-575
-540
-550
-565
-533
-439
-321
-228
-168
-109
-18
97
187
212
169
92
19
-32
-64
-82
-80
-57
-23
1
13
37
89
158
210
219
205
211
270
369
469
537
566
574
579
584
586
579
560
530
500
493
522
567
593
577
530
486
454
406
318
211
141
126
129
97
30
-23
-30
-12
-12
-37
-54
-44
-24
-16
-13
13
67
127
175
229
315
422
502
532
540
565
603
614
582
545
552
589
593
534
458
428
438
411
296
138
33
9
-1
-63
-154
-185
-119
-29
-13
-86
-158
-143
-64
-16
-53
-134
-184
-183
-165
-162
-159
-121
-28
125
344
614
891
1124
1315
1529
1811
2107
2297
2297
2133
1877
1570
1183
691
138
-367
-699
-786
-641
-342
16
382
757
1137
1471
1669
1669
1503
1278
1095
975
869
719
540
419
427
518
550
417
188
53
127
323
435
374
270
328
611
963
1161
1128
993
950
1057
1193
1197
1048
898
882
945
887
621
310
215
380
560
490
198
-25
33
261
393
311
153
112
217
326
333
275
249
274
266
151
-10
-85
-22
95
134
56
-38
-26
92
210
261
273
312
385
477
601
770
897
837
574
320
316
544
747
714
524
434
584
851
1018
1012
905
793
707
627
556
516
532
615
752
890
950
902
826
838
943
998
836
479
150
53
143
179
2
-282
-441
-390
-281
-291
-399
-444
-337
-177
-107
-150
-201
-175
-96
-33
-28
-95
-212
-315
-307
-164
12
82
22
-40
20
172
287
305
289
309
336
296
197
132
156
215
212
152
147
282
488
612
596
531
537
595
570
388
167
98
223
378
368
184
0
-27
94
239
321
333
291
203
105
78
149
224
164
-42
-257
-358
-369
-419
-555
-678
-682
-551
-340
-70
261
594
830
949
1061
1281
1573
1769
1754
1589
1421
1323
1253
1136
948
699
412
130
-71
-131
-74
6
28
-5
-32
5
118
280
430
477
381
205
91
143
314
452
458
387
366
441
520
493
353
197
108
76
27
-77
-194
-253
-218
-113
6
95
148
189
244
316
380
396
355
276
187
110
46
-10
-67
-138
-240
-366
-475
-500
-422
-304
-259
-332
-451
-502
-473
-475
-605
-813
-959
-966
-898
-858
-851
-813
-738
-687
-670
-601
-421
-221
-174
-325
-488
-457
-222
20
88
5
-36
106
382
617
655
488
228
27
-16
80
193
196
76
-33
26
265
540
688
653
504
339
223
192
263
392
487
486
448
486
620
758
803
768
690
522
214
-141
-327
-239
-45
-21
-234
-496
-575
-437
-201
22
173
185
3
-286
-466
-390
-177
-87
-210
-384
-394
-238
-81
-28
-24
-14
-60
-258
-535
-651
-469
-149
4
-107
-267
-204
106
435
552
456
337
354
516
694
776
758
727
753
841
947
1038
1116
1175
1180
1141
1151
1283
1447
1465
1271
1038
973
1061
1103
1002
911
1010
1224
1284
1091
846
798
921
978
863
772
959
1400
1818
2001
2030
2147
2474
2880
3146
3155
2967
2731
2556
2442
2309
2061
1674
1231
879
704
685
710
680
604
547
564
646
741
790
743
578
349
167
113
132
115
41
-1
63
165
174
77
12
74
176
169
59
15
129
263
221
24
-92
26
249
337
238
129
173
329
435
420
356
322
301
241
159
117
117
106
52
-21
-77
-119
-154
-171
-163
-178
-263
-390
-468
-451
-401
-400
-443
-445
-370
-285
-275
-323
-357
-358
-378
-439
-467
-372
-170
7
49
-11
-23
117
355
506
431
183
-35
-60
88
228
214
83
1
77
269
443
514
499
459
421
379
339
323
339
360
356
322
291
296
317
309
257
206
191
181
120
11
-58
-8
136
270
317
295
282
324
400
454
440
360
255
183
179
218
239
204
119
26
-42
-66
-42
7
35
15
-16
4
95
197
255
281
325
379
380
315
275
347
506
642
702
741
818
890
869
746
598
482
374
243
138
138
237
341
382
402
478
598
670
632
534
459
421
362
254
138
96
131
157
91
-58
-198
-257
-257
-298
-433
-575
-560
-314
47
314
372
316
373
670
1121
1519
1717
1741
1722
1731
1713
1564
1258
851
422
8
-387
-711
-881
-862
-707
-529
-408
-338
-255
-114
58
173
155
-5
-220
-367
-389
-312
-213
-150
-129
-122
-114
-115
-124
-132
-138
-151
-205
-313
-426
-450
-355
-222
-167
-213
-270
-241
-167
-197
-390
-641
-790
-802
-789
-843
-899
-819
-584
-338
-198
-107
76
397
715
856
796
643
499
378
242
61
-185
-531
-986
-1430
-1677
-1665
-1542
-1509
-1599
-1661
-1554
-1325
-1133
-1047
-995
-904
-811
-762
-708
-545
-285
-88
-72
-162
-186
-103
-41
-76
-116
-15
215
405
457
468
591
811
957
915
773
688
690
670
564
444
427
527
646
683
635
570
538
524
485
396
277
180
147
183
248
280
241
150
78
89
180
279
289
188
62
34
133
256
280
186
64
0
-7
-23
-90
-187
-265
-307
-333
-355
-354
-295
-170
-35
23
-44
-170
-220
-125
41
113
22
-126
-160
-19
182
285
240
130
58
55
77
78
42
-21
-100
-181
-244
-275
-285
-305
-354
-421
-475
-500
-508
-523
-560
-623
-712
-827
-974
-1157
-1364
-1572
-1750
-1888
-1979
-2001
-1912
-1689
-1383
-1096
-884
-677
-356
101
568
872
970
969
986
1031
1005
838
549
207
-142
-467
-733
-910
-1010
-1092
-1184
-1246
-1215
-1087
-935
-820
-730
-627
-519
-466
-507
-603
-664
-644
-578
-540
-570
-641
-692
-675
-579
-444
-324
-265
-284
-352
-420
-443
-413
-364
-345
-376
-422
-421
-356
-279
-269
-346
-445
-484
-463
-455
-520
-622
-659
-569
-407
-299
-327
-450
-545
-530
-456
-454
-595
-817
-987
-1035
-1000
-958
-941
-923
-875
-797
-709
-630
-592
-614
-675
-719
-699
-649
-638
-668
-656
-531
-328
-157
-77
-45
8
83
139
165
196
252
306
332
362
446
585
722
810
854
890
938
985
1019
1031
1018
986
963
979
1032
1078
1077
1044
1024
1039
1051
1011
919
834
802
810
805
764
720
726
791
866
900
896
910
987
1119
1245
1308
1303
1268
1238
1206
1137
1004
827
660
547
502
504
527
550
558
548
539
561
607
622
551
421
334
376
519
648
680
646
637
688
745
739
666
580
530
506
484
461
459
480
496
489
462
438
424
404
373
344
329
316
281
225
176
149
122
59
-48
-178
-307
-424
-513
-554
-530
-436
-265
-1
341
683
927
1048
1134
1298
1549
1759
1805
1690
1536
1454
1432
1373
1200
913
581
279
57
-69
-102
-64
20
135
276
430
581
713
800
810
722
561
396
299
279
297
315
338
390
461
513
524
515
517
529
514
450
357
279
234
211
191
174
161
155
152
152
157
165
166
154
135
129
143
162
152
90
-10
-105
-165
-196
-229
-280
-334
-366
-370
-347
-305
-254
-214
-204
-221
-233
-214
-173
-132
-100
-66
-31
-16
-33
-60
-59
-23
12
15
-8
-28
-27
-22
-33
-61
-99
-139
-173
-181
-140
-44
77
190
279
350
415
474
521
556
578
588
594
614
664
741
814
855
864
866
865
838
768
675
603
571
549
492
398
309
260
239
204
140
81
71
119
196
266
317
352
360
329
262
188
132
86
19
-78
-176
-225
-210
-152
-88
-40
-1
31
58
89
130
175
206
213
214
240
296
370
451
560
708
865
976
1026
1065
1140
1217
1203
1065
888
804
841
904
919
930
1018
1161
1221
1107
911
801
818
831
711
496
334
317
407
517
600
643
621
517
377
280
245
195
59
-109
-154
21
354
666
830
896
1038
1378
1839
2210
2356
2324
2254
2185
2002
1603
1057
543
162
-122
-356
-481
-407
-145
169
408
553
643
682
658
597
549
518
436
283
153
186
413
707
888
893
813
762
752
720
650
613
710
930
1135
1170
998
746
597
635
766
799
600
239
-26
10
289
508
433
156
14
188
477
545
310
45
9
133
139
-82
-344
-430
-377
-378
-511
-653
-680
-645
-659
-724
-716
-582
-425
-385
-487
-635
-730
-753
-724
-644
-528
-445
-452
-527
-564
-490
-339
-225
-243
-387
-584
-733
-769
-702
-618
-601
-658
-694
-612
-422
-239
-168
-183
-183
-119
-39
-8
-34
-62
-66
-66
-87
-103
-79
-21
23
21
8
14
25
8
-42
-77
-58
1
57
91
131
211
327
423
445
382
287
224
211
217
204
169
135
124
145
187
229
245
225
193
189
248
356
470
556
607
637
659
699
778
886
991
1058
1081
1083
1096
1143
1224
1316
1365
1328
1229
1163
1219
1393
1582
1673
1642
1547
1460
1410
1402
1430
1444
1383
1232
1080
1063
1229
1475
1621
1565
1364
1153
1007
895
733
501
262
98
48
104
245
458
706
923
1080
1244
1509
1861
2166
2301
2303
2290
2272
2114
1733
1268
950
823
715
477
230
215
462
716
743
614
578
717
843
767
570
493
618
789
824
753
749
876
1029
1082
1040
976
900
780
657
639
750
858
824
672
549
534
563
544
512
558
669
717
634
535
581
764
915
921
841
814
869
896
782
538
272
73
-52
-136
-195
-205
-139
-28
45
14
-99
-200
-217
-177
-169
-222
-248
-152
34
170
179
142
183
308
367
261
79
3
119
321
427
369
222
111
118
258
478
645
649
517
417
498
722
890
862
677
466
308
202
162
236
389
468
367
179
125
293
511
546
378
211
223
367
452
401
313
319
416
490
486
485
581
741
817
752
671
721
866
920
778
578
521
607
637
507
375
452
686
790
630
428
510
883
1203
1187
921
728
778
952
1047
1019
969
982
1039
1101
1160
1231
1316
1405
1497
1571
1581
1511
1447
1494
1650
1795
1812
1716
1608
1551
1519
1474
1428
1382
1288
1103
886
757
774
835
791
627
463
391
359
262
89
-55
-82
-10
93
210
363
533
672
773
922
1183
1484
1654
1604
1429
1303
1304
1341
1252
945
478
21
-258
-304
-207
-131
-146
-159
-34
245
539
693
690
630
581
501
338
152
76
169
333
420
395
352
386
472
508
446
345
282
261
226
149
71
35
37
39
28
31
69
120
149
149
134
115
76
4
-93
-190
-254
-262
-221
-180
-194
-261
-305
-251
-136
-98
-230
-457
-604
-581
-481
-469
-585
-715
-734
-647
-569
-580
-654
-705
-698
-657
-616
-578
-532
-488
-467
-472
-480
-470
-443
-416
-402
-389
-355
-287
-197
-114
-64
-50
-56
-63
-52
-24
7
23
21
17
44
105
170
198
178
138
107
92
91
110
158
209
219
178
138
148
192
193
114
8
-35
14
96
137
119
81
66
86
118
134
109
37
-54
-105
-72
27
131
166
123
60
58
137
236
262
176
41
-35
-1
100
187
217
217
242
323
437
528
558
542
536
566
578
479
264
63
24
141
267
287
242
238
295
319
252
141
70
28
-68
-234
-371
-399
-347
-295
-262
-208
-142
-140
-246
-390
-479
-519
-608
-791
-976
-1017
-853
-553
-235
23
204
346
516
757
1038
1259
1325
1246
1121
1008
881
681
395
75
-220
-466
-667
-819
-903
-936
-953
-947
-841
-576
-233
2
9
-127
-203
-129
-30
-88
-303
-484
-463
-289
-150
-143
-187
-171
-83
-1
18
11
29
56
37
-51
-167
-238
-229
-165
-113
-140
-251
-373
-410
-324
-193
-130
-182
-276
-307
-250
-184
-205
-319
-437
-482
-454
-414
-406
-408
-395
-383
-405
-457
-497
-495
-474
-466
-465
-435
-361
-271
-193
-135
-101
-113
-191
-292
-335
-278
-153
-21
100
242
430
643
833
962
1015
998
945
905
906
932
955
987
1061
1163
1225
1191
1113
1091
1137
1145
1018
803
675
724
852
886
783
663
658
759
827
768
625
525
539
623
684
672
619
595
639
713
744
694
604
559
594
670
719
727
737
780
828
827
778
730
713
693
628
536
490
541
647
731
775
832
945
1088
1192
1225
1217
1204
1192
1164
1134
1139
1185
1231
1232
1193
1159
1156
1158
1124
1055
994
962
932
863
751
638
560
521
498
472
436
387
326
266
217
170
101
0
-124
-255
-379
-485
-552
-560
-504
-381
-185
72
319
472
523
584
776
1095
1395
1541
1550
1561
1657
1768
1750
1542
1223
924
712
572
468
410
447
604
838
1060
1216
1321
1416
1506
1526
1422
1228
1046
961
958
969
961
955
987
1040
1060
1017
944
897
897
910
892
835
780
767
802
853
881
887
900
944
994
1000
932
819
725
686
677
658
620
589
582
584
576
560
549
522
443
312
192
147
166
173
111
3
-76
-95
-93
-132
-229
-349
-444
-494
-509
-504
-496
-489
-474
-434
-355
-256
-170
-109
-61
-3
72
152
226
292
343
368
367
366
395
446
481
483
479
505
556
588
577
547
535
539
523
474
439
470
562
647
666
632
610
649
728
779
761
703
679
733
839
934
988
1028
1087
1157
1199
1201
1198
1224
1261
1269
1236
1199
1188
1193
1182
1142
1098
1078
1081
1079
1058
1032
1019
1029
1051
1061
1048
1020
1007
1027
1074
1111
1106
1058
997
954
931
912
880
833
786
762
775
823
879
911
904
866
830
813
804
780
742
714
724
764
801
818
834
881
948
975
913
776
629
533
499
489
467
449
514
732
1079
1420
1605
1620
1606
1718
1950
2143
2162
2040
1904
1816
1704
1474
1146
816
537
275
2
-228
-318
-244
-90
47
146
244
359
452
479
450
406
371
340
310
299
334
414
501
546
528
456
360
279
239
238
247
228
180
130
103
89
57
3
-44
-63
-67
-84
-122
-166
-215
-286
-382
-461
-483
-466
-465
-509
-556
-560
-523
-498
-513
-544
-561
-571
-598
-634
-648
-633
-624
-655
-706
-727
-702
-662
-641
-630
-602
-544
-480
-427
-376
-310
-224
-133
-47
34
114
185
237
274
314
360
397
410
405
410
445
495
526
526
514
515
530
537
523
503
503
533
578
617
642
668
714
781
844
872
856
824
812
839
884
910
913
921
967
1056
1163
1252
1309
1347
1383
1428
1473
1492
1467
1393
1287
1174
1068
964
851
728
609
512
445
411
406
428
458
474
478
494
542
597
613
575
524
518
558
579
531
451
422
480
577
637
647
653
689
729
733
700
678
694
720
711
661
622
655
765
896
977
981
941
936
1026
1193
1348
1404
1344
1219
1086
962
825
652
446
254
150
196
387
630
820
954
1133
1442
1812
2064
2080
1916
1725
1592
1473
1283
1004
695
431
254
169
153
156
125
71
62
146
266
310
255
209
278
418
471
377
258
296
514
755
858
822
740
673
606
536
499
490
429
252
50
-18
78
190
176
111
194
464
720
749
583
419
350
243
-49
-455
-734
-753
-642
-633
-787
-922
-851
-597
-363
-287
-323
-341
-325
-388
-601
-868
-1010
-967
-856
-812
-818
-735
-483
-153
69
95
10
-39
8
53
-34
-253
-452
-482
-326
-108
34
68
55
84
194
341
408
282
-22
-296
-306
-30
252
247
2
-107
199
756
1127
1088
852
789
965
1098
927
532
227
196
327
405
386
396
506
625
608
463
321
286
306
257
115
-24
-77
-44
33
130
221
249
173
35
-69
-109
-159
-281
-425
-467
-383
-286
-296
-390
-443
-388
-277
-189
-137
-82
-11
55
109
173
262
355
430
519
654
809
909
901
813
715
636
557
452
324
198
100
54
82
180
312
421
486
522
563
628
701
737
713
633
543
488
465
424
327
198
100
62
64
109
249
512
835
1087
1227
1363
1626
1984
2257
2309
2210
2131
2123
2065
1842
1507
1215
1027
856
623
413
382
545
728
762
685
686
849
1035
1054
896
740
733
836
889
813
679
612
655
736
760
683
542
434
453
608
789
843
727
561
506
571
624
539
364
255
307
432
476
396
298
298
375
399
293
126
22
14
20
-32
-118
-156
-139
-139
-204
-286
-296
-218
-139
-144
-214
-262
-245
-210
-222
-279
-319
-306
-256
-216
-193
-149
-59
41
94
115
172
312
494
605
576
462
382
416
533
632
642
566
469
429
477
577
640
610
522
496
621
851
1031
1051
954
887
930
1003
953
722
428
247
255
368
455
460
430
460
593
777
895
875
728
550
421
355
321
322
386
503
611
646
634
661
760
870
903
829
693
560
467
429
430
427
378
294
254
297
374
391
325
266
284
336
327
247
207
320
525
654
605
449
350
390
496
538
479
413
492
760
1106
1340
1350
1218
1151
1282
1520
1620
1429
1078
881
1020
1334
1459
1213
776
487
485
574
483
189
-81
-94
153
482
740
902
1019
1116
1191
1265
1364
1480
1541
1499
1389
1302
1257
1157
894
491
108
-93
-111
-76
-82
-78
47
292
513
583
531
494
538
575
494
334
258
368
574
701
678
607
619
715
780
719
561
422
384
451
561
648
673
631
557
514
527
560
549
482
410
375
350
285
192
128
122
126
84
7
-50
-68
-92
-145
-180
-146
-79
-79
-177
-279
-281
-204
-178
-282
-456
-572
-579
-537
-526
-544
-539
-480
-396
-336
-320
-321
-298
-239
-172
-135
-141
-167
-168
-128
-61
4
54
92
130
175
230
290
340
368
371
367
365
363
358
373
436
536
610
605
540
492
504
533
500
384
243
152
121
113
102
95
103
109
104
114
181
299
406
436
391
321
262
206
133
53
-12
-59
-105
-149
-161
-118
-51
-7
4
17
64
136
198
238
278
341
416
470
482
463
434
417
420
443
481
521
553
581
614
652
681
693
700
717
738
733
702
696
762
882
953
894
736
600
564
591
580
484
358
290
306
340
325
254
158
59
-46
-155
-246
-285
-257
-164
-13
175
367
523
635
738
891
1122
1409
1666
1785
1722
1551
1409
1361
1315
1113
708
245
-61
-117
-5
121
171
153
124
142
225
331
388
353
247
140
70
31
27
103
275
456
496
361
198
193
368
560
607
520
441
458
525
548
508
470
480
504
482
414
364
380
435
453
387
266
160
127
169
239
268
224
148
109
134
166
134
42
-29
-18
44
63
4
-74
-103
-77
-37
-8
30
90
145
165
163
192
274
373
435
444
447
493
583
676
731
755
794
890
1037
1190
1321
1441
1575
1708
1776
1744
1653
1564
1486
1382
1255
1182
1224
1337
1422
1466
1591
1909
2353
2713
2849
2817
2764
2730
2590
2215
1655
1102
708
460
237
-21
-231
-262
-89
170
363
426
417
426
479
531
527
457
374
344
393
487
564
581
558
556
604
661
667
630
632
727
869
957
946
895
887
936
992
1016
1026
1052
1084
1088
1058
1019
990
957
893
807
743
732
762
787
764
685
601
577
633
705
686
526
294
117
52
26
-80
-302
-562
-773
-930
-1083
-1240
-1336
-1300
-1128
-873
-576
-246
114
484
842
1196
1557
1889
2134
2278
2364
2439
2483
2425
2238
1982
1733
1504
1273
1046
883
832
864
903
919
960
1080
1249
1379
1410
1358
1282
1225
1190
1175
1176
1179
1152
1078
989
939
945
965
947
894
866
898
954
968
911
817
728
653
576
501
460
468
500
502
445
361
313
324
359
363
314
238
168
111
52
-7
-41
-48
-64
-128
-219
-267
-222
-122
-61
-87
-160
-193
-156
-101
-97
-153
-213
-215
-161
-103
-82
-93
-87
-35
47
112
134
128
129
152
177
185
186
204
243
288
325
365
426
515
611
682
714
724
736
764
802
838
868
892
906
908
893
874
867
885
921
947
942
913
883
874
877
871
846
819
812
820
818
804
814
879
968
1004
941
827
749
738
733
664
534
424
400
453
530
595
649
698
730
750
773
804
828
829
823
843
891
934
936
908
892
903
902
852
757
666
614
601
609
616
613
593
574
581
620
650
621
535
452
427
439
419
352
296
303
353
375
340
296
297
335
359
354
368
471
670
898
1064
1136
1173
1271
1475
1721
1882
1886
1776
1665
1604
1545
1404
1160
860
563
304
111
13
12
70
139
191
229
266
302
330
346
345
310
248
211
269
435
644
802
862
850
823
806
781
716
601
462
335
242
183
150
126
94
37
-48
-137
-188
-181
-146
-130
-152
-181
-173
-121
-62
-35
-45
-72
-95
-98
-68
-11
38
38
-25
-116
-190
-231
-262
-310
-371
-412
-416
-399
-389
-391
-388
-367
-342
-333
-353
-387
-409
-407
-380
-338
-285
-219
-137
-48
30
87
126
162
209
274
364
476
589
662
663
615
590
645
759
845
838
776
757
836
962
1026
981
878
806
799
816
802
745
678
636
618
607
588
565
547
536
522
495
449
384
309
244
214
223
249
257
230
191
176
193
206
177
111
41
-13
-74
-167
-268
-325
-309
-249
-192
-145
-86
-5
73
122
153
202
276
344
380
396
424
471
507
499
458
420
415
435
455
460
468
495
531
554
565
582
603
592
517
400
312
293
311
295
224
154
140
169
190
188
184
196
230
320
528
855
1181
1366
1418
1498
1729
2014
2127
1969
1691
1515
1498
1494
1357
1097
835
655
552
491
437
369
262
136
74
146
327
487
493
347
185
165
308
472
491
348
220
299
545
696
536
134
-201
-236
-49
86
7
-183
-263
-120
168
420
500
384
169
20
22
107
107
-59
-282
-378
-289
-143
-96
-158
-243
-294
-334
-376
-410
-452
-554
-717
-835
-807
-711
-761
-1035
-1346
-1435
-1270
-1095
-1131
-1318
-1426
-1353
-1225
-1204
-1288
-1362
-1396
-1480
-1645
-1773
-1738
-1576
-1462
-1474
-1492
-1351
-1090
-941
-1061
-1343
-1540
-1559
-1536
-1642
-1853
-1975
-1882
-1653
-1466
-1388
-1339
-1241
-1143
-1157
-1290
-1397
-1348
-1187
-1099
-1198
-1379
-1443
-1329
-1176
-1162
-1309
-1468
-1501
-1414
-1314
-1280
-1302
-1350
-1423
-1538
-1678
-1793
-1856
-1884
-1917
-1965
-1992
-1959
-1870
-1781
-1747
-1785
-1866
-1944
-1995
-2027
-2051
-2051
-2009
-1926
-1828
-1749
-1707
-1690
-1666
-1617
-1566
-1558
-1606
-1653
-1614
-1465
-1281
-1170
-1157
-1172
-1148
-1092
-1055
-1058
-1073
-1072
-1068
-1080
-1083
-1038
-967
-941
-996
-1076
-1101
-1065
-1047
-1100
-1188
-1226
-1187
-1145
-1176
-1275
-1374
-1427
-1455
-1501
-1575
-1646
-1660
-1569
-1367
-1107
-875
-737
-682
-619
-450
-172
110
265
244
115
-3
-40
-61
-209
-547
-980
-1321
-1476
-1511
-1534
-1549
-1458
-1244
-1046
-1011
-1104
-1141
-1025
-881
-903
-1096
-1264
-1252
-1127
-1061
-1102
-1133
-1084
-1046
-1140
-1327
-1438
-1376
-1242
-1194
-1260
-1326
-1314
-1287
-1343
-1486
-1629
-1689
-1689
-1704
-1774
-1852
-1857
-1761
-1617
-1524
-1556
-1687
-1808
-1838
-1792
-1764
-1815
-1919
-2014
-2068
-2103
-2143
-2182
-2196
-2194
-2211
-2271
-2353
-2404
-2386
-2331
-2317
-2390
-2504
-2552
-2491
-2401
-2382
-2435
-2449
-2347
-2214
-2185
-2261
-2304
-2211
-2050
-1975
-2051
-2207
-2325
-2340
-2261
-2140
-2075
-2156
-2352
-2466
-2310
-1964
-1745
-1871
-2195
-2358
-2207
-1958
-1930
-2138
-2308
-2231
-1994
-1823
-1800
-1813
-1775
-1745
-1812
-1957
-2078
-2139
-2207
-2311
-2377
-2314
-2144
-1976
-1875
-1821
-1771
-1731
-1732
-1761
-1758
-1703
-1640
-1626
-1626
-1557
-1382
-1154
-975
-903
-930
-1013
-1110
-1174
-1152
-1034
-903
-864
-930
-956
-782
-442
-168
-141
-286
-361
-237
-31
83
86
100
186
289
363
455
582
646
530
292
121
118
158
75
-113
-251
-270
-267
-358
-509
-612
-657
-752
-962
-1196
-1319
-1321
-1328
-1442
-1621
-1749
-1785
-1774
-1737
-1624
-1388
-1093
-903
-912
-1004
-927
-556
-59
261
246
33
-109
-81
-34
-168
-502
-886
-1184
-1378
-1527
-1633
-1641
-1527
-1358
-1222
-1140
-1073
-988
-896
-827
-798
-815
-879
-967
-1011
-944
-779
-619
-576
-667
-805
-892
-900
-874
-865
-888
-924
-943
-937
-921
-918
-927
-931
-915
-896
-910
-962
-1023
-1069
-1107
-1148
-1185
-1194
-1177
-1165
-1175
-1187
-1176
-1158
-1177
-1238
-1294
-1304
-1294
-1332
-1430
-1517
-1515
-1435
-1367
-1375
-1427
-1436
-1359
-1244
-1174
-1178
-1211
-1209
-1152
-1078
-1035
-1030
-1028
-991
-917
-841
-793
-768
-743
-697
-630
-556
-492
-461
-466
-474
-441
-367
-310
-325
-392
-434
-410
-376
-408
-489
-517
-430
-293
-232
-279
-338
-309
-203
-133
-177
-299
-402
-436
-429
-434
-459
-465
-429
-370
-324
-299
-270
-229
-211
-239
-293
-315
-288
-262
-299
-383
-437
-432
-433
-525
-691
-817
-830
-777
-753
-766
-729
-583
-397
-286
-277
-287
-237
-159
-148
-234
-332
-336
-241
-123
-36
42
159
292
368
354
310
314
367
387
315
191
110
116
161
163
95
5
-51
-48
-5
58
129
191
207
151
40
-66
-133
-204
-375
-673
-960
-1009
-712
-217
165
256
198
303
728
1300
1698
1764
1618
1483
1466
1510
1504
1384
1143
811
461
209
126
175
233
216
148
121
190
306
391
410
377
310
222
139
112
173
283
353
329
267
266
348
426
409
322
286
374
512
560
462
292
162
108
73
9
-50
-31
84
220
266
193
94
72
107
73
-114
-358
-456
-324
-115
-55
-181
-311
-253
-30
144
102
-103
-273
-278
-170
-91
-117
-195
-231
-204
-179
-208
-267
-288
-241
-176
-153
-155
-117
0
157
290
376
431
466
465
435
419
452
512
546
539
541
611
735
854
936
1014
1124
1254
1362
1434
1493
1545
1559
1520
1480
1510
1605
1678
1649
1536
1445
1464
1580
1697
1727
1657
1560
1523
1578
1681
1766
1809
1834
1867
1901
1932
1994
2112
2240
2277
2173
2001
1892
1890
1910
1847
1695
1551
1492
1497
1496
1460
1425
1427
1449
1447
1420
1411
1453
1525
1571
1567
1556
1589
1661
1714
1706
1654
1609
1591
1577
1542
1500
1474
1472
1473
1469
1475
1511
1568
1609
1607
1560
1493
1433
1403
1405
1416
1397
1329
1225
1121
1039
968
873
739
599
531
601
794
1014
1157
1210
1275
1466
1791
2122
2322
2365
2337
2326
2339
2308
2172
1930
1633
1343
1107
939
827
757
728
750
818
903
979
1044
1112
1169
1174
1107
1010
949
949
977
997
999
988
952
884
804
751
734
722
691
665
686
743
767
713
618
558
556
555
490
367
257
202
189
179
157
145
160
191
213
208
175
130
85
44
7
-21
-22
16
87
148
164
137
93
54
14
-43
-122
-198
-246
-252
-229
-199
-185
-192
-203
-197
-173
-151
-147
-150
-126
-54
60
181
287
372
441
507
582
671
764
848
925
1023
1162
1331
1495
1627
1728
1820
1915
2010
2093
2154
2188
2208
2218
2217
2190
2127
2040
1952
1870
1790
1703
1616
1549
1502
1459
1408
1358
1325
1311
1302
1294
1295
1312
1332
1335
1322
1304
1295
1290
1283
1271
1257
1238
1217
1202
1204
1222
1242
1253
1255
1258
1272
1296
1323
1351
1375
1395
1413
1429
1441
1450
1461
1475
1487
1490
1486
1489
1507
1531
1540
1529
1513
1508
1509
1496
1468
1442
1430
1424
1405
1373
1338
1301
1246
1169
1101
1062
1029
952
831
732
714
780
896
1060
1305
1623
1927
2127
2245
2398
2658
2947
3103
3048
2855
2668
2553
2470
2333
2101
1803
1506
1277
1142
1084
1055
1014
962
929
941
991
1035
1029
958
850
751
688
651
611
569
555
596
666
703
679
619
573
555
551
542
540
562
594
604
579
546
527
513
465
364
239
142
105
113
133
153
200
304
457
601
669
638
543
442
359
281
178
43
-110
-251
-355
-416
-443
-461
-491
-539
-591
-630
-650
-653
-645
-635
-633
-638
-643
-633
-598
-540
-475
-423
-397
-384
-352
-280
-172
-68
2
44
94
174
279
385
479
554
606
640
680
745
826
881
888
872
873
904
936
944
929
907
869
802
722
685
723
807
867
882
880
907
964
1011
1021
1004
979
945
889
827
804
834
884
897
864
827
825
845
832
760
660
586
558
549
532
510
501
515
542
566
582
594
610
644
707
795
883
945
980
1000
1021
1043
1055
1055
1049
1046
1046
1058
1090
1148
1230
1318
1409
1507
1621
1735
1816
1844
1818
1752
1650
1524
1392
1278
1187
1093
981
871
811
825
886
955
1039
1182
1400
1653
1872
2032
2155
2274
2380
2442
2436
2366
2236
2046
1810
1567
1356
1169
966
722
485
335
307
348
372
349
329
370
464
531
516
443
379
344
307
236
161
144
211
314
378
383
377
410
471
501
460
382
348
400
493
537
504
449
453
524
590
583
513
434
383
337
259
149
53
15
28
45
18
-47
-83
-19
137
292
349
308
235
192
179
166
147
119
68
-3
-37
13
116
189
202
219
290
360
324
204
149
236
337
252
-45
-360
-489
-415
-273
-191
-207
-294
-363
-278
37
449
657
482
105
-62
169
542
629
319
-59
-107
211
556
601
372
178
271
570
765
663
415
353
596
876
828
420
36
58
424
686
548
207
104
387
752
830
608
402
443
641
739
632
475
464
611
740
643
302
-62
-190
-17
223
237
-6
-210
-82
330
685
707
448
150
-34
-130
-211
-283
-337
-405
-513
-579
-468
-158
182
337
264
91
-14
2
78
118
70
-42
-149
-181
-108
9
61
2
-120
-213
-225
-201
-229
-321
-390
-354
-228
-113
-44
68
343
745
1070
1172
1150
1251
1582
1972
2154
2058
1853
1731
1734
1761
1735
1651
1518
1323
1083
892
849
930
1007
974
854
756
766
880
1044
1191
1262
1205
1045
897
887
1026
1179
1197
1056
883
809
838
873
840
774
751
775
786
744
700
730
839
936
935
844
748
719
740
748
712
658
620
592
558
526
526
562
587
567
528
524
566
600
572
487
408
370
345
293
206
121
66
48
64
89
93
61
26
44
130
232
270
232
195
236
346
441
453
393
332
332
394
476
527
531
514
525
584
665
720
741
764
826
931
1037
1106
1156
1226
1317
1378
1367
1315
1320
1437
1605
1696
1647
1524
1455
1477
1498
1404
1198
1000
909
917
940
931
926
974
1070
1147
1157
1112
1052
979
868
738
673
737
868
916
825
715
756
955
1126
1100
939
847
905
977
917
789
788
960
1114
1058
879
839
1025
1226
1182
915
700
705
802
766
605
536
695
942
1013
839
599
520
633
765
732
499
191
-16
-42
34
52
-87
-353
-614
-755
-749
-643
-497
-361
-232
-38
315
833
1349
1622
1596
1493
1593
1913
2149
2012
1568
1195
1153
1300
1269
893
384
93
134
317
396
344
333
487
734
927
1037
1161
1364
1555
1587
1443
1283
1263
1380
1491
1475
1351
1208
1106
1045
1009
991
977
926
810
667
600
691
911
1108
1126
949
725
639
719
796
680
379
104
33
125
182
99
-16
-4
125
197
97
-93
-215
-222
-215
-281
-384
-412
-322
-180
-73
-18
28
84
124
115
51
-41
-118
-138
-86
1
47
20
-9
74
295
501
488
226
-84
-185
-24
184
192
-30
-269
-309
-153
-11
-82
-356
-653
-804
-795
-729
-663
-551
-319
1
292
484
624
795
989
1120
1151
1149
1170
1179
1119
1058
1137
1354
1493
1350
1001
742
730
805
717
460
270
313
475
522
407
302
332
403
315
15
-327
-505
-465
-339
-271
-278
-255
-109
134
347
431
402
355
351
374
380
370
375
407
447
472
490
507
497
442
359
307
312
347
377
398
424
446
439
401
361
331
269
92
-241
-668
-1039
-1204
-1119
-870
-603
-413
-271
-81
196
491
687
753
760
815
952
1130
1305
1484
1698
1943
2161
2289
2302
2209
2038
1803
1525
1231
950
690
443
202
-23
-188
-269
-295
-328
-391
-431
-361
-173
28
134
139
121
116
55
-144
-424
-609
-593
-470
-437
-568
-736
-771
-638
-443
-286
-173
-67
16
31
-26
-95
-136
-180
-281
-440
-583
-656
-657
-620
-580
-564
-592
-652
-707
-738
-783
-897
-1062
-1185
-1212
-1202
-1241
-1305
-1258
-1040
-808
-814
-1152
-1642
-2004
-2140
-2170
-2264
-2432
-2528
-2412
-2086
-1670
-1280
-968
-758
-683
-772
-982
-1206
-1351
-1420
-1483
-1578
-1662
-1646
-1495
-1271
-1080
-985
-987
-1047
-1116
-1158
-1148
-1077
-960
-840
-766
-749
-750
-731
-710
-757
-912
-1119
-1280
-1362
-1436
-1566
-1698
-1693
-1480
-1137
-815
-598
-456
-321
-174
-54
-8
-50
-160
-304
-431
-495
-478
-413
-361
-361
-403
-448
-472
-487
-517
-569
-627
-679
-717
-733
-708
-619
-476
-328
-225
-161
-86
37
188
322
412
470
529
599
666
707
714
711
731
778
808
782
720
702
779
910
1005
1030
1039
1090
1159
1170
1094
981
890
801
655
461
305
256
270
241
116
-47
-162
-224
-307
-457
-625
-697
-595
-344
-53
169
292
382
531
773
1044
1231
1260
1152
988
839
715
567
330
-22
-438
-812
-1051
-1142
-1150
-1146
-1144
-1108
-1018
-904
-815
-761
-724
-702
-727
-815
-928
-998
-996
-950
-908
-895
-910
-956
-1044
-1158
-1247
-1262
-1218
-1184
-1216
-1294
-1343
-1323
-1271
-1267
-1331
-1412
-1451
-1458
-1501
-1614
-1749
-1833
-1852
-1869
-1939
-2043
-2107
-2094
-2042
-2022
-2061
-2122
-2166
-2196
-2247
-2328
-2411
-2466
-2509
-2584
-2692
-2769
-2742
-2610
-2450
-2338
-2271
-2188
-2055
-1912
-1827
-1821
-1855
-1884
-1903
-1929
-1960
-1966
-1925
-1856
-1790
-1732
-1663
-1578
-1498
-1438
-1384
-1306
-1204
-1110
-1055
-1019
-956
-852
-746
-690
-681
-682
-664
-641
-632
-625
-602
-586
-628
-746
-875
-934
-915
-893
-937
-1032
-1109
-1127
-1112
-1106
-1114
-1117
-1114
-1120
-1134
-1137
-1118
-1095
-1099
-1134
-1187
-1244
-1307
-1366
-1396
-1387
-1361
-1353
-1370
-1378
-1346
-1286
-1241
-1246
-1289
-1323
-1308
-1247
-1168
-1096
-1021
-925
-815
-724
-670
-633
-595
-582
-643
-778
-913
-967
-949
-944
-1011
-1111
-1159
-1129
-1068
-1038
-1044
-1060
-1083
-1128
-1184
-1206
-1168
-1113
-1105
-1159
-1227
-1260
-1260
-1267
-1300
-1335
-1324
-1233
-1050
-810
-579
-410
-289
-130
144
500
807
961
975
951
958
965
890
693
400
61
-268
-532
-684
-714
-677
-637
-607
-544
-412
-246
-129
-104
-143
-182
-199
-222
-272
-323
-317
-235
-127
-70
-86
-124
-114
-41
51
115
143
167
215
274
309
302
273
261
290
337
356
327
270
223
188
145
84
28
0
-12
-40
-86
-114
-88
-22
29
23
-49
-165
-298
-425
-539
-663
-824
-996
-1117
-1151
-1144
-1171
-1248
-1296
-1250
-1138
-1060
-1059
-1082
-1047
-943
-829
-769
-768
-783
-794
-811
-840
-861
-848
-811
-785
-781
-755
-649
-482
-362
-390
-559
-748
-853
-885
-942
-1074
-1231
-1309
-1270
-1167
-1078
-1023
-964
-863
-731
-605
-513
-448
-391
-344
-325
-332
-340
-322
-275
-222
-177
-140
-106
-74
-48
-23
4
16
-4
-57
-107
-121
-100
-66
-27
27
100
174
228
251
249
231
203
176
165
173
201
240
282
317
341
364
407
473
534
556
541
524
537
572
604
629
669
733
792
821
831
858
901
912
856
763
697
680
670
628
569
538
547
558
536
503
507
556
609
628
656
781
1048
1397
1703
1884
1974
2078
2259
2470
2588
2527
2303
2023
1788
1628
1495
1320
1075
806
593
497
511
577
634
656
649
630
609
580
539
493
450
411
373
330
301
324
423
566
667
655
549
434
375
363
335
261
174
127
127
138
120
72
19
-25
-72
-136
-200
-223
-186
-115
-62
-52
-50
-7
80
148
131
31
-75
-115
-95
-73
-95
-141
-169
-167
-153
-145
-137
-129
-149
-218
-319
-408
-457
-477
-492
-495
-455
-353
-205
-58
43
78
64
34
5
-42
-136
-261
-350
-344
-264
-184
-139
-90
13
142
210
175
92
48
74
113
104
55
40
144
365
583
647
511
309
233
323
419
347
147
33
135
341
440
370
244
147
21
-187
-365
-348
-172
-76
-183
-280
-62
446
851
837
538
366
506
721
700
461
298
381
559
596
474
359
347
360
317
276
332
444
500
535
710
1041
1277
1163
794
559
694
979
1000
649
249
176
442
729
781
652
570
629
722
705
596
527
557
589
476
190
-133
-315
-299
-214
-237
-433
-695
-840
-771
-535
-281
-123
-68
-32
94
359
725
1068
1295
1398
1433
1462
1482
1438
1288
1043
748
436
112
-225
-517
-669
-643
-510
-390
-330
-277
-164
-19
57
6
-123
-231
-277
-306
-354
-378
-303
-129
43
99
42
-22
-8
64
103
55
-29
-66
-25
58
133
188
229
245
212
137
69
47
48
22
-42
-91
-72
-11
14
-44
-147
-210
-206
-189
-220
-298
-359
-350
-292
-270
-339
-463
-551
-551
-512
-530
-626
-725
-737
-666
-596
-594
-641
-670
-655
-645
-690
-772
-817
-776
-676
-583
-533
-496
-426
-314
-211
-169
-192
-228
-227
-191
-148
-114
-73
-12
56
103
129
166
227
282
274
200
126
125
195
253
221
118
48
93
221
302
249
112
31
94
237
307
217
46
-43
43
224
336
299
187
134
183
268
320
332
326
295
225
149
159
273
401
420
336
283
353
505
630
684
704
709
683
655
726
946
1200
1292
1164
1001
1029
1263
1483
1462
1231
1028
1049
1279
1532
1662
1680
1692
1751
1808
1769
1606
1401
1236
1129
1039
952
914
957
1059
1134
1122
1054
991
952
919
914
1012
1255
1545
1719
1762
1832
2108
2544
2865
2862
2599
2339
2248
2236
2108
1779
1355
992
763
636
560
515
514
595
782
1035
1240
1288
1177
1016
915
872
793
625
437
352
434
645
869
988
955
804
663
636
703
727
595
350
163
149
252
327
318
300
350
431
442
366
308
355
442
412
227
65
114
370
607
634
514
478
641
876
986
954
934
1017
1106
1054
883
766
800
870
789
530
267
176
264
398
460
456
459
506
575
627
655
682
724
763
763
718
677
705
786
823
746
603
514
534
598
629
646
742
932
1108
1167
1144
1149
1218
1270
1235
1153
1103
1100
1092
1070
1105
1226
1342
1341
1240
1189
1275
1406
1419
1301
1201
1246
1387
1480
1468
1429
1452
1524
1567
1539
1481
1443
1428
1393
1310
1197
1103
1070
1110
1194
1276
1322
1342
1375
1444
1535
1603
1611
1567
1518
1521
1593
1690
1739
1723
1694
1712
1769
1806
1782
1726
1686
1654
1591
1499
1429
1408
1387
1311
1205
1155
1192
1244
1227
1145
1082
1088
1122
1106
1022
916
830
750
650
544
481
492
567
697
895
1170
1468
1699
1819
1886
2007
2228
2474
2609
2560
2366
2135
1946
1791
1607
1341
1002
664
417
310
327
411
514
621
731
833
912
963
999
1024
1018
954
831
699
620
615
656
686
671
623
577
548
526
507
504
540
600
643
626
554
481
453
473
499
485
431
369
338
344
357
353
326
278
212
130
46
-24
-79
-138
-214
-294
-354
-383
-402
-429
-461
-482
-488
-496
-514
-532
-537
-540
-567
-622
-665
-657
-602
-552
-538
-531
-474
-357
-240
-194
-213
-220
-151
-42
10
-38
-109
-97
13
124
148
116
128
216
286
233
80
-39
-36
30
31
-72
-190
-219
-154
-75
-50
-73
-98
-99
-92
-101
-122
-141
-153
-171
-203
-240
-262
-257
-231
-205
-192
-187
-174
-142
-93
-31
46
114
133
87
30
46
165
296
299
130
-94
-195
-111
45
120
79
39
138
392
683
872
916
886
877
917
959
945
875
798
773
807
864
908
942
1007
1121
1248
1307
1272
1204
1205
1311
1453
1522
1487
1423
1423
1497
1577
1617
1635
1664
1705
1727
1715
1672
1588
1443
1260
1108
1055
1112
1244
1416
1612
1808
1975
2136
2365
2701
3057
3273
3270
3124
2971
2867
2751
2528
2187
1793
1425
1135
968
953
1080
1279
1462
1594
1713
1868
2052
2185
2181
2020
1783
1580
1467
1430
1419
1425
1487
1610
1727
1742
1640
1524
1519
1633
1734
1685
1491
1303
1246
1302
1357
1325
1221
1111
1022
942
871
837
842
842
793
709
645
628
632
602
516
383
242
125
46
8
6
30
75
134
184
202
186
163
153
144
108
46
-13
-45
-55
-59
-46
-7
47
90
127
192
296
397
437
421
410
445
488
479
415
352
346
389
442
484
523
565
613
669
733
784
793
753
693
654
639
634
632
651
696
741
751
720
685
672
677
662
601
513
446
439
480
522
542
570
641
743
815
815
783
800
884
952
925
824
752
771
838
870
846
811
799
777
702
594
531
556
632
695
731
781
880
1005
1098
1129
1113
1080
1031
960
870
783
716
666
618
581
572
577
553
472
358
275
262
290
292
241
190
224
362
530
638
654
626
628
694
804
924
1056
1243
1518
1848
2143
2328
2437
2583
2836
3122
3296
3296
3204
3146
3143
3098
2935
2685
2434
2211
1981
1727
1510
1414
1441
1507
1533
1524
1553
1654
1787
1870
1858
1766
1651
1558
1499
1458
1404
1331
1250
1168
1077
959
814
672
571
520
494
453
379
286
205
160
151
165
179
191
223
295
389
468
511
537
555
543
470
360
275
247
235
179
100
84
175
317
414
435
439
465
478
423
310
207
154
130
102
76
75
100
124
138
160
202
235
232
207
202
235
277
294
290
293
315
343
362
368
372
379
388
393
384
343
272
208
185
195
187
135
85
107
213
330
393
409
435
492
539
524
444
344
268
228
211
198
184
170
168
189
237
299
349
371
361
329
298
280
278
269
238
193
173
208
287
361
388
369
341
331
338
340
318
275
236
218
228
261
311
365
418
470
519
566
611
644
648
609
537
457
407
404
432
448
432
406
411
463
525
551
540
525
535
550
538
502
473
469
470
439
361
262
191
181
236
337
475
661
908
1195
1466
1663
1793
1906
2032
2125
2110
1974
1796
1662
1575
1458
1252
988
744
568
440
314
188
96
70
107
167
221
259
295
351
435
523
583
610
641
725
869
1024
1123
1143
1116
1082
1052
1014
966
919
881
836
768
686
613
559
505
435
358
296
260
236
208
179
158
145
125
90
49
18
-10
-51
-99
-122
-105
-84
-124
-247
-402
-514
-567
-611
-701
-831
-938
-961
-889
-766
-654
-593
-580
-585
-565
-507
-434
-388
-393
-435
-472
-466
-413
-342
-295
-286
-285
-241
-143
-41
9
4
1
63
186
303
354
343
325
360
452
544
550
438
278
204
290
471
592
545
379
249
257
349
367
218
-22
-194
-216
-157
-136
-178
-196
-118
19
128
161
156
167
195
229
270
337
407
430
405
388
432
517
580
591
575
553
516
450
356
228
33
-245
-523
-653
-560
-320
-82
75
179
302
466
626
708
651
450
170
-39
-59
81
221
197
16
-153
-143
42
230
274
181
82
78
151
219
241
218
165
110
80
65
-12
-237
-568
-803
-762
-494
-245
-188
-262
-285
-188
-52
57
198
428
645
675
503
322
309
383
291
-111
-677
-1132
-1345
-1399
-1445
-1523
-1565
-1514
-1388
-1233
-1086
-963
-885
-857
-881
-968
-1138
-1358
-1500
-1410
-1088
-767
-706
-914
-1136
-1148
-1022
-1016
-1224
-1456
-1489
-1367
-1333
-1499
-1688
-1671
-1460
-1290
-1331
-1495
-1576
-1500
-1393
-1411
-1563
-1738
-1840
-1860
-1852
-1863
-1909
-1982
-2045
-2063
-2031
-1976
-1937
-1943
-2003
-2102
-2210
-2280
-2291
-2272
-2279
-2328
-2374
-2366
-2317
-2284
-2286
-2292
-2273
-2260
-2293
-2349
-2359
-2291
-2200
-2150
-2137
-2102
-2018
-1915
-1842
-1809
-1795
-1786
-1781
-1774
-1743
-1681
-1609
-1550
-1500
-1446
-1402
-1379
-1374
-1367
-1352
-1338
-1325
-1294
-1243
-1197
-1183
-1196
-1201
-1180
-1174
-1236
-1360
-1494
-1588
-1621
-1599
-1543
-1485
-1456
-1451
-1429
-1350
-1238
-1159
-1149
-1181
-1202
-1190
-1172
-1170
-1192
-1252
-1338
-1399
-1358
-1207
-1053
-1017
-1090
-1118
-993
-816
-791
-977
-1186
-1203
-1010
-812
-799
-928
-1003
-908
-726
-646
-754
-963
-1138
-1226
-1275
-1329
-1368
-1349
-1297
-1281
-1294
-1221
-1001
-738
-650
-820
-1059
-1142
-1055
-1019
-1203
-1493
-1646
-1603
-1571
-1729
-1939
-1911
-1585
-1262
-1228
-1362
-1263
-751
-126
183
139
119
410
840
1005
762
367
127
20
-205
-650
-1132
-1410
-1460
-1455
-1506
-1541
-1450
-1245
-1085
-1099
-1229
-1312
-1233
-1044
-899
-891
-984
-1063
-1054
-993
-975
-1050
-1178
-1300
-1404
-1509
-1594
-1588
-1456
-1277
-1183
-1208
-1238
-1177
-1088
-1137
-1382
-1666
-1791
-1743
-1706
-1803
-1939
-1935
-1781
-1643
-1665
-1811
-1952
-2042
-2122
-2204
-2243
-2234
-2246
-2326
-2387
-2293
-2064
-1906
-1979
-2176
-2239
-2063
-1850
-1871
-2130
-2329
-2198
-1791
-1436
-1372
-1518
-1603
-1463
-1193
-1001
-975
-1033
-1038
-927
-753
-615
-578
-630
-715
-814
-965
-1189
-1414
-1521
-1478
-1393
-1395
-1480
-1516
-1425
-1297
-1277
-1375
-1458
-1457
-1459
-1551
-1649
-1581
-1334
-1118
-1125
-1277
-1326
-1175
-1004
-1043
-1291
-1525
-1566
-1453
-1324
-1225
-1103
-946
-818
-750
-671
-505
-314
-244
-357
-544
-639
-592
-501
-480
-538
-618
-652
-610
-491
-334
-217
-207
-290
-370
-360
-259
-144
-79
-62
-63
-65
-57
-6
112
262
361
351
273
228
255
288
234
79
-89
-174
-167
-132
-130
-145
-107
9
138
174
75
-80
-168
-151
-129
-234
-479
-740
-876
-871
-834
-864
-951
-993
-901
-666
-351
-58
136
217
260
377
603
848
981
946
808
659
540
426
283
91
-165
-470
-747
-890
-867
-769
-720
-732
-692
-509
-247
-52
25
67
161
271
277
144
-21
-99
-89
-95
-181
-307
-388
-396
-361
-302
-202
-69
42
73
26
-38
-73
-87
-108
-147
-190
-227
-251
-259
-265
-292
-351
-424
-480
-523
-576
-638
-665
-642
-636
-738
-934
-1097
-1118
-1035
-985
-1026
-1072
-1009
-845
-702
-674
-734
-797
-827
-856
-916
-990
-1049
-1083
-1101
-1095
-1048
-967
-891
-849
-828
-803
-774
-760
-769
-774
-737
-650
-548
-482
-457
-429
-357
-250
-160
-128
-137
-138
-108
-82
-103
-160
-189
-152
-81
-30
-2
46
137
237
279
249
190
159
165
171
143
81
24
11
49
101
131
151
217
356
512
586
552
495
521
625
695
648
526
449
483
568
604
562
500
488
532
583
606
605
606
627
661
694
723
758
806
865
919
949
945
919
898
913
955
974
937
876
857
909
977
987
944
928
998
1101
1122
1016
866
798
826
849
771
608
463
399
379
337
267
234
298
458
665
865
1034
1170
1310
1507
1788
2099
2315
2357
2260
2141
2082
2052
1960
1764
1506
1281
1159
1145
1205
1303
1418
1534
1634
1710
1763
1804
1832
1829
1781
1688
1591
1540
1555
1616
1687
1744
1762
1707
1559
1343
1145
1045
1040
1042
954
762
543
383
307
278
242
185
132
108
130
194
278
351
392
400
386
366
346
330
323
327
326
298
232
147
77
31
-11
-85
-212
-371
-509
-577
-576
-550
-550
-581
-612
-618
-611
-609
-608
-582
-522
-456
-411
-380
-329
-251
-184
-167
-193
-202
-152
-58
24
61
69
86
133
191
231
241
232
225
231
246
260
266
271
283
301
319
331
339
349
361
364
344
296
234
181
155
152
139
99
53
46
99
176
229
248
275
337
397
402
354
322
352
408
411
345
277
277
334
383
388
384
407
447
468
475
524
635
757
815
795
765
797
884
950
936
853
770
737
752
776
771
731
678
642
643
666
677
653
609
573
558
536
481
405
346
324
317
304
305
350
421
442
377
291
279
364
492
625
790
1017
1262
1444
1563
1720
1980
2258
2386
2301
2111
1969
1905
1823
1634
1348
1044
780
581
461
434
478
530
549
559
612
727
851
919
905
837
753
666
580
513
500
547
608
608
512
368
265
252
293
317
293
259
270
336
416
468
483
482
478
469
452
432
418
405
388
366
341
304
246
176
113
58
-15
-128
-262
-370
-429
-461
-504
-571
-643
-696
-718
-703
-656
-593
-550
-540
-532
-478
-369
-246
-156
-103
-60
-1
86
198
319
411
436
410
405
464
545
557
475
383
375
439
488
484
489
573
705
769
696
554
469
491
551
556
481
398
389
477
613
719
748
718
683
682
716
747
748
733
740
783
835
868
889
926
986
1025
994
903
818
805
855
891
849
742
641
586
540
447
309
197
176
236
298
302
263
260
353
531
710
796
763
664
595
604
651
650
565
449
399
467
620
773
871
918
956
1006
1050
1055
1029
1013
1041
1095
1127
1120
1106
1133
1198
1246
1226
1145
1060
1009
983
957
931
936
996
1114
1281
1488
1711
1917
2073
2172
2246
2344
2477
2601
2642
2537
2304
2027
1795
1631
1481
1263
963
651
429
357
404
486
524
514
502
544
644
747
791
759
691
643
634
638
625
604
614
669
729
737
682
614
597
637
687
690
654
619
615
621
611
593
596
623
645
639
628
651
712
771
800
815
850
908
951
948
901
834
763
687
604
522
448
382
322
273
243
237
245
255
259
252
234
213
204
212
231
236
221
205
216
260
311
339
352
387
461
544
584
577
584
655
771
861
887
887
921
988
1028
1008
958
928
921
901
860
843
883
949
977
952
918
918
923
869
743
610
545
550
565
551
531
555
629
705
737
724
696
665
634
617
650
745
865
946
965
948
946
965
975
955
919
879
815
702
570
510
574
704
761
675
531
487
617
838
992
992
884
772
729
759
818
859
858
827
806
852
983
1142
1249
1252
1172
1075
1015
1008
1035
1067
1060
994
929
955
1064
1130
1035
821
649
616
644
601
466
323
244
240
358
667
1133
1547
1718
1724
1849
2230
2670
2863
2726
2411
2067
1697
1322
1084
1045
1021
750
282
14
235
764
1110
1028
758
656
767
859
798
709
740
802
689
420
288
526
986
1273
1171
870
710
796
939
935
805
704
709
752
749
725
761
869
950
922
801
677
601
548
469
356
253
179
92
-45
-201
-292
-276
-222
-248
-380
-515
-539
-454
-352
-316
-325
-332
-346
-398
-483
-541
-545
-536
-574
-658
-720
-707
-627
-545
-496
-486
-487
-471
-437
-428
-473
-514
-449
-253
-43
-1
-156
-322
-288
-67
87
-31
-321
-449
-209
222
474
367
89
-19
158
408
462
281
69
41
203
395
489
497
527
633
759
800
723
589
504
520
600
662
679
690
744
843
942
1026
1107
1180
1205
1158
1071
1001
945
856
723
613
597
652
712
760
850
1006
1148
1170
1088
1035
1116
1286
1404
1396
1335
1331
1410
1501
1524
1477
1431
1441
1491
1525
1506
1463
1451
1492
1552
1586
1574
1540
1500
1446
1362
1268
1213
1211
1225
1206
1157
1111
1088
1064
1008
927
856
834
904
1092
1385
1689
1884
1950
2007
2214
2577
2918
3038
2915
2704
2574
2545
2499
2315
1978
1578
1237
1031
936
884
823
765
767
876
1075
1285
1430
1480
1453
1384
1303
1215
1123
1045
1013
1026
1023
946
824
754
780
807
697
449
254
303
562
796
812
652
541
657
955
1204
1170
818
378
193
398
764
888
641
332
348
680
924
764
358
111
151
216
56
-214
-299
-153
-20
-75
-191
-155
16
129
122
118
177
146
-104
-379
-355
-37
176
-25
-416
-465
-4
515
547
98
-287
-175
263
506
311
-50
-147
118
456
559
402
199
137
232
373
453
432
337
261
302
489
708
782
633
386
265
366
581
721
705
636
661
814
985
1054
1011
933
904
959
1102
1294
1445
1477
1415
1397
1537
1742
1765
1484
1081
890
1042
1330
1439
1295
1108
1116
1328
1555
1624
1541
1416
1320
1247
1158
1059
994
994
1048
1114
1148
1138
1111
1112
1155
1193
1166
1065
956
914
952
1028
1093
1141
1203
1291
1370
1392
1349
1273
1207
1159
1116
1078
1088
1174
1285
1313
1208
1042
951
988
1088
1160
1211
1323
1518
1717
1835
1915
2080
2369
2648
2728
2574
2313
2095
1944
1768
1482
1089
666
315
131
140
267
391
442
467
561
739
906
957
891
785
702
630
529
433
424
540
703
774
711
630
665
787
812
609
296
148
274
485
490
243
2
27
280
484
452
269
149
156
160
39
-151
-262
-241
-195
-244
-366
-433
-376
-285
-313
-503
-724
-811
-749
-671
-706
-842
-948
-927
-816
-730
-745
-836
-916
-920
-846
-748
-684
-655
-608
-512
-404
-368
-432
-507
-468
-306
-161
-181
-352
-495
-457
-272
-123
-146
-292
-390
-325
-146
4
48
26
30
83
131
122
65
10
-16
-15
-2
24
54
64
36
-19
-74
-116
-172
-263
-370
-444
-447
-385
-294
-204
-130
-70
-11
61
144
226
284
294
242
143
44
-9
-21
-48
-132
-248
-319
-305
-246
-207
-202
-185
-127
-62
-25
-4
55
167
281
338
344
354
408
484
531
518
459
380
303
234
193
197
237
282
310
337
406
515
590
569
469
366
305
273
246
246
295
352
322
184
32
-24
3
-9
-121
-233
-188
52
364
594
716
828
1040
1351
1647
1791
1738
1559
1377
1257
1156
978
689
355
74
-100
-183
-203
-165
-66
76
226
355
454
522
570
597
582
497
354
239
244
381
553
648
645
605
573
528
451
409
507
750
1013
1167
1214
1262
1356
1404
1289
1008
679
411
223
70
-53
-102
-43
95
244
357
434
495
546
584
604
622
639
645
632
617
649
757
890
940
850
692
610
664
763
770
660
543
515
554
560
493
412
393
441
510
580
663
745
781
752
698
679
704
732
737
738
761
803
843
874
908
941
936
872
782
728
737
769
766
713
642
601
603
628
641
616
551
470
402
370
374
399
420
426
429
448
493
556
611
641
644
637
637
645
648
633
595
545
494
452
422
401
388
385
397
418
439
457
472
486
492
488
475
461
455
468
502
551
593
605
574
515
464
441
427
386
306
230
208
251
311
335
323
326
375
438
461
437
424
474
565
622
610
559
520
498
456
369
266
207
235
354
523
679
779
845
965
1197
1485
1686
1710
1610
1511
1476
1436
1292
1028
720
442
206
3
-147
-207
-185
-139
-112
-84
-5
129
258
328
336
320
308
297
287
298
347
410
446
433
394
357
327
292
253
228
231
252
273
282
284
286
294
314
348
372
356
304
258
260
294
305
263
210
202
242
274
252
196
164
180
208
196
137
61
-5
-56
-97
-129
-157
-197
-250
-286
-266
-184
-82
-10
11
6
9
40
94
153
188
184
161
160
207
281
339
353
341
338
361
408
473
552
630
684
704
705
714
733
742
721
685
666
678
701
710
697
679
665
643
602
542
475
409
345
283
235
206
181
146
102
73
76
101
121
121
104
79
44
11
9
48
92
85
25
-12
42
169
283
333
359
431
559
686
776
845
936
1054
1167
1253
1324
1400
1481
1554
1611
1649
1659
1634
1590
1559
1553
1548
1505
1416
1314
1244
1223
1236
1249
1239
1189
1105
1004
914
851
815
774
701
595
489
423
418
459
503
520
531
597
758
981
1175
1275
1319
1397
1547
1695
1737
1647
1490
1334
1172
956
673
362
67
-200
-437
-623
-732
-775
-787
-798
-808
-804
-782
-761
-759
-792
-864
-952
-1004
-973
-869
-741
-627
-517
-386
-242
-125
-66
-37
17
109
198
239
241
256
317
396
439
426
396
396
426
441
409
355
328
337
331
257
134
27
-22
-54
-136
-280
-422
-490
-477
-446
-452
-494
-531
-541
-539
-548
-578
-619
-657
-680
-686
-684
-687
-699
-695
-644
-549
-455
-412
-419
-421
-374
-294
-240
-250
-294
-310
-269
-205
-171
-187
-215
-211
-166
-110
-76
-68
-67
-61
-62
-81
-118
-157
-197
-246
-294
-314
-293
-268
-294
-374
-441
-429
-361
-332
-400
-507
-549
-490
-405
-388
-443
-498
-497
-454
-420
-417
-421
-401
-356
-307
-282
-296
-337
-387
-432
-485
-574
-706
-854
-976
-1052
-1088
-1107
-1124
-1149
-1181
-1203
-1194
-1171
-1180
-1251
-1348
-1390
-1336
-1245
-1206
-1240
-1281
-1266
-1207
-1161
-1160
-1171
-1167
-1163
-1179
-1190
-1157
-1092
-1063
-1107
-1185
-1213
-1180
-1149
-1178
-1242
-1254
-1159
-1005
-916
-993
-1193
-1356
-1353
-1222
-1159
-1279
-1440
-1359
-939
-405
-71
8
68
306
616
722
536
238
37
-93
-325
-695
-1019
-1150
-1156
-1207
-1320
-1351
-1213
-1036
-995
-1071
-1078
-947
-845
-962
-1243
-1447
-1456
-1420
-1553
-1827
-1990
-1879
-1632
-1530
-1669
-1880
-1929
-1769
-1576
-1556
-1766
-2060
-2239
-2218
-2061
-1893
-1775
-1701
-1639
-1604
-1585
-1517
-1409
-1410
-1646
-2030
-2291
-2260
-2083
-2018
-2127
-2248
-2299
-2400
-2631
-2822
-2740
-2471
-2411
-2776
-3285
-3453
-3158
-2792
-2807
-3231
-3697
-3874
-3760
-3573
-3511
-3621
-3810
-3930
-3864
-3633
-3389
-3300
-3407
-3578
-3655
-3596
-3462
-3345
-3320
-3402
-3542
-3661
-3711
-3728
-3755
-3782
-3735
-3577
-3384
-3263
-3253
-3290
-3310
-3333
-3408
-3523
-3594
-3569
-3492
-3473
-3548
-3631
-3628
-3569
-3585
-3761
-4021
-4185
-4151
-3989
-3859
-3848
-3919
-3976
-3947
-3833
-3695
-3620
-3648
-3738
-3792
-3755
-3677
-3643
-3668
-3681
-3642
-3625
-3717
-3880
-3951
-3831
-3630
-3538
-3600
-3662
-3577
-3394
-3293
-3364
-3512
-3581
-3519
-3401
-3304
-3234
-3164
-3088
-3033
-2998
-2961
-2923
-2919
-2977
-3068
-3130
-3110
-3013
-2900
-2836
-2836
-2852
-2814
-2705
-2579
-2516
-2523
-2542
-2529
-2508
-2517
-2538
-2512
-2462
-2498
-2694
-2958
-3079
-2908
-2511
-2106
-1869
-1794
-1714
-1472
-1072
-709
-595
-769
-1043
-1185
-1154
-1130
-1297
-1633
-1950
-2128
-2237
-2402
-2618
-2737
-2668
-2495
-2397
-2443
-2521
-2470
-2264
-2044
-1988
-2134
-2373
-2550
-2575
-2494
-2425
-2423
-2456
-2451
-2381
-2287
-2235
-2267
-2378
-2516
-2609
-2598
-2472
-2297
-2182
-2202
-2326
-2440
-2470
-2457
-2523
-2722
-2962
-3105
-3103
-3031
-2988
-2976
-2926
-2806
-2670
-2615
-2680
-2804
-2909
-2963
-2980
-2994
-3038
-3101
-3149
-3166
-3154
-3131
-3090
-3012
-2932
-2936
-3043
-3147
-3090
-2858
-2646
-2670
-2912
-3112
-3062
-2835
-2681
-2713
-2774
-2670
-2439
-2295
-2350
-2466
-2455
-2317
-2195
-2157
-2101
-1924
-1705
-1590
-1572
-1479
-1244
-1047
-1108
-1379
-1572
-1485
-1239
-1122
-1253
-1478
-1578
-1511
-1420
-1427
-1507
-1552
-1515
-1460
-1484
-1596
-1738
-1850
-1913
-1942
-1960
-1989
-2063
-2173
-2206
-2080
-1862
-1733
-1775
-1836
-1727
-1504
-1433
-1613
-1766
-1556
-1082
-833
-1097
-1559
-1625
-1144
-593
-497
-777
-887
-547
-75
55
-168
-313
-128
90
-76
-557
-813
-494
105
389
191
-48
110
584
891
756
417
281
437
638
659
563
565
747
978
1089
1023
871
740
665
587
440
221
2
-113
-58
164
495
827
1030
1077
1096
1280
1667
2041
2120
1857
1508
1348
1377
1346
1069
631
246
7
-153
-303
-395
-357
-253
-227
-309
-362
-254
-44
79
9
-164
-278
-268
-187
-96
-15
55
94
94
98
138
180
155
57
-33
-49
-6
23
14
4
9
-1
-50
-84
-36
59
92
6
-124
-181
-161
-173
-285
-423
-455
-368
-276
-277
-334
-339
-270
-228
-293
-412
-466
-438
-443
-577
-778
-894
-870
-811
-834
-933
-990
-944
-841
-757
-700
-630
-549
-500
-495
-499
-465
-395
-319
-255
-208
-189
-194
-182
-100
27
94
28
-118
-206
-178
-117
-111
-122
-35
157
298
247
65
-40
34
146
87
-160
-366
-326
-99
77
59
-64
-127
-98
-66
-78
-77
-15
43
17
-32
62
324
554
534
288
66
43
117
51
-213
-483
-554
-450
-365
-407
-453
-330
-53
174
207
146
197
408
603
594
395
198
144
198
259
312
415
569
678
684
660
731
882
962
865
662
534
555
623
617
561
582
713
827
780
604
487
538
659
654
457
223
160
300
471
489
371
307
469
808
1094
1145
1022
973
1185
1595
1951
2071
1972
1809
1680
1559
1373
1095
743
343
-57
-359
-455
-330
-128
-28
-76
-147
-76
153
383
447
330
170
109
174
285
359
391
409
412
369
274
161
81
47
33
22
14
27
47
42
6
-26
-18
28
59
27
-56
-117
-115
-92
-125
-244
-377
-421
-353
-258
-228
-281
-356
-387
-371
-363
-414
-516
-610
-639
-595
-526
-467
-410
-324
-219
-150
-143
-146
-97
-26
-43
-187
-344
-378
-291
-219
-239
-253
-129
125
361
506
653
916
1237
1440
1437
1326
1261
1287
1349
1423
1522
1633
1669
1595
1501
1503
1575
1548
1316
971
702
588
549
493
449
508
677
872
1023
1134
1237
1358
1377
1442
1571
1729
1803
1734
1611
1577
1651
1697
1581
1340
1132
1056
1057
1025
928
846
841
873
854
752
628
572
608
682
705
644
559
547
660
845
980
991
938
935
1029
1116
1068
899
779
850
1046
1159
1075
921
911
1096
1295
1308
1134
942
856
837
776
655
562
554
568
530
444
387
382
367
285
174
141
230
388
543
683
837
1027
1237
1451
1660
1837
1940
1950
1894
1808
1694
1527
1311
1082
852
602
336
117
18
30
59
38
-7
-3
74
167
222
241
244
222
160
102
129
263
412
453
356
219
161
200
254
234
139
37
-2
29
90
140
171
200
232
253
244
210
183
181
187
158
73
-23
-44
56
224
337
314
205
153
238
377
401
240
1
-149
-167
-159
-239
-389
-496
-503
-461
-449
-473
-470
-405
-320
-274
-273
-275
-249
-220
-230
-293
-363
-381
-319
-207
-99
-12
88
233
393
504
544
567
634
728
770
723
658
684
820
978
1066
1081
1102
1180
1290
1371
1394
1376
1351
1334
1329
1336
1351
1359
1352
1338
1331
1336
1341
1341
1343
1360
1393
1431
1453
1455
1459
1496
1574
1646
1641
1538
1401
1326
1346
1410
1442
1417
1381
1375
1406
1460
1521
1579
1612
1609
1594
1610
1682
1780
1851
1874
1866
1859
1858
1848
1816
1764
1704
1644
1591
1567
1577
1608
1624
1605
1560
1518
1475
1402
1279
1153
1092
1104
1103
1012
859
738
688
650
566
474
470
594
789
1000
1237
1530
1835
2077
2240
2395
2592
2777
2842
2747
2552
2360
2223
2132
2037
1886
1647
1373
1172
1136
1247
1403
1525
1624
1767
1977
2190
2319
2338
2284
2197
2084
1936
1769
1635
1580
1578
1544
1420
1255
1160
1181
1237
1213
1105
1009
1000
1035
1015
934
883
925
990
962
825
692
672
760
843
842
787
762
825
957
1084
1129
1069
947
830
750
675
551
364
148
-40
-158
-189
-135
-23
99
185
235
286
355
402
365
224
38
-106
-160
-143
-114
-108
-102
-58
38
150
229
270
301
350
407
456
502
579
713
884
1044
1152
1202
1224
1260
1330
1406
1441
1409
1346
1306
1306
1309
1270
1186
1092
1017
957
893
815
726
642
581
558
566
576
570
555
553
563
561
535
505
508
550
605
650
682
716
761
823
901
970
997
971
929
933
1000
1084
1130
1134
1145
1195
1261
1297
1294
1283
1284
1272
1212
1111
1021
985
995
1011
1016
1029
1071
1152
1264
1403
1549
1658
1700
1692
1684
1688
1651
1525
1352
1242
1247
1288
1227
1039
847
782
841
901
894
893
1023
1287
1542
1661
1677
1751
1973
2260
2437
2418
2275
2133
2039
1937
1750
1457
1098
735
424
206
93
68
98
168
284
443
613
740
799
804
775
711
599
444
290
192
175
204
213
169
106
86
125
184
212
205
200
212
217
190
146
128
160
224
285
332
363
376
389
423
464
461
380
265
213
249
269
155
-63
-212
-177
-42
15
-49
-96
-18
90
69
-58
-81
97
262
130
-262
-535
-418
-92
23
-199
-432
-322
50
269
124
-115
-39
405
860
982
801
637
726
1014
1279
1337
1180
926
725
677
748
806
725
523
371
404
594
787
873
900
991
1140
1186
988
598
233
71
86
123
90
15
-20
30
174
394
649
848
897
759
505
255
111
137
294
449
483
409
405
597
884
1027
915
724
667
703
614
352
172
349
785
1062
915
542
375
590
944
1073
883
580
393
354
375
415
506
624
615
367
8
-166
-5
303
433
279
69
73
291
461
380
135
-56
-109
-140
-257
-407
-457
-394
-357
-478
-715
-884
-844
-623
-377
-252
-251
-223
3
452
961
1307
1399
1344
1301
1306
1256
1064
769
465
199
-37
-216
-268
-168
-4
113
185
315
546
774
859
806
739
742
760
712
627
615
721
858
910
857
764
673
581
507
509
610
736
785
740
696
733
823
855
769
616
489
433
420
410
402
419
459
497
506
501
515
542
547
499
431
401
420
438
405
335
280
255
214
119
11
-34
-1
55
84
93
120
161
186
207
284
430
560
574
492
454
566
762
886
871
805
820
925
1017
1017
951
895
876
857
814
774
778
818
868
913
949
976
981
967
954
938
878
749
610
572
681
864
994
1031
1051
1133
1261
1343
1317
1233
1162
1119
1060
955
834
746
715
717
719
698
636
537
432
380
395
413
356
242
192
298
502
664
731
794
942
1131
1221
1163
1060
1044
1107
1144
1105
1040
1014
1025
1044
1112
1270
1443
1467
1278
1026
934
1051
1190
1141
910
673
573
583
614
653
718
748
647
448
332
417
603
694
655
656
841
1119
1282
1291
1330
1526
1741
1741
1517
1319
1323
1393
1266
889
491
295
243
94
-266
-672
-894
-889
-818
-834
-927
-970
-885
-716
-552
-459
-420
-379
-304
-203
-98
31
224
470
696
827
867
899
1008
1183
1341
1421
1438
1454
1494
1544
1599
1659
1695
1656
1545
1435
1389
1381
1330
1219
1128
1123
1163
1152
1072
995
982
981
901
736
566
445
359
277
220
225
272
291
255
203
188
206
204
149
57
-40
-112
-143
-126
-72
-21
-12
-37
-58
-57
-66
-110
-167
-185
-150
-115
-125
-148
-113
3
135
191
160
114
115
146
150
100
21
-48
-86
-81
-22
75
161
196
193
209
265
320
327
281
229
211
216
220
221
237
286
357
419
433
384
307
256
255
265
215
103
14
34
146
245
248
180
133
163
236
280
262
218
210
256
324
351
300
197
120
139
252
363
388
340
317
386
499
552
508
435
412
422
387
287
203
222
313
358
291
186
165
249
336
314
182
40
-13
24
82
107
129
227
440
720
965
1125
1253
1435
1685
1896
1937
1799
1602
1459
1356
1176
849
437
75
-160
-290
-371
-427
-441
-413
-365
-308
-231
-139
-86
-126
-236
-328
-351
-349
-396
-489
-541
-496
-398
-339
-353
-390
-409
-429
-492
-578
-613
-572
-510
-492
-503
-470
-375
-295
-320
-447
-570
-608
-598
-662
-863
-1107
-1223
-1139
-970
-897
-974
-1077
-1060
-922
-817
-876
-1060
-1211
-1232
-1176
-1165
-1235
-1295
-1259
-1159
-1113
-1185
-1316
-1383
-1344
-1267
-1219
-1200
-1164
-1106
-1078
-1099
-1136
-1148
-1154
-1214
-1328
-1419
-1398
-1255
-1082
-999
-1054
-1191
-1279
-1232
-1077
-948
-958
-1094
-1222
-1213
-1057
-863
-758
-794
-925
-1047
-1085
-1044
-1002
-1039
-1151
-1267
-1305
-1258
-1196
-1177
-1205
-1239
-1238
-1200
-1143
-1076
-986
-858
-722
-648
-693
-830
-969
-1046
-1096
-1205
-1387
-1557
-1601
-1490
-1309
-1169
-1106
-1072
-995
-860
-720
-642
-648
-709
-776
-821
-834
-818
-766
-686
-610
-580
-596
-627
-633
-603
-554
-521
-526
-576
-651
-723
-774
-803
-821
-829
-819
-804
-806
-838
-874
-877
-834
-783
-770
-809
-873
-922
-923
-881
-823
-771
-713
-607
-414
-154
106
311
467
636
857
1096
1264
1281
1148
938
748
623
518
339
42
-295
-518
-536
-414
-320
-360
-480
-546
-494
-389
-339
-369
-426
-463
-495
-554
-632
-692
-728
-771
-847
-948
-1047
-1137
-1220
-1274
-1267
-1207
-1152
-1152
-1195
-1220
-1203
-1184
-1222
-1319
-1415
-1451
-1421
-1373
-1352
-1369
-1398
-1412
-1407
-1407
-1420
-1424
-1413
-1410
-1451
-1532
-1598
-1610
-1595
-1624
-1722
-1840
-1910
-1927
-1942
-1988
-2046
-2088
-2121
-2170
-2223
-2230
-2179
-2122
-2108
-2109
-2041
-1876
-1699
-1631
-1683
-1740
-1693
-1564
-1487
-1550
-1687
-1762
-1712
-1602
-1540
-1562
-1607
-1591
-1497
-1380
-1307
-1299
-1314
-1294
-1224
-1144
-1120
-1173
-1258
-1305
-1283
-1227
-1195
-1210
-1243
-1252
-1221
-1174
-1150
-1170
-1220
-1267
-1282
-1268
-1248
-1233
-1222
-1207
-1191
-1193
-1221
-1255
-1266
-1247
-1228
-1252
-1332
-1433
-1490
-1460
-1354
-1234
-1167
-1167
-1187
-1159
-1062
-941
-870
-882
-938
-962
-911
-818
-762
-787
-862
-909
-894
-856
-848
-868
-872
-840
-817
-849
-908
-904
-801
-672
-623
-677
-750
-739
-635
-525
-494
-529
-560
-541
-513
-533
-591
-604
-510
-332
-147
15
198
433
681
870
981
1080
1220
1372
1447
1397
1262
1120
998
852
623
309
-28
-294
-436
-470
-459
-452
-448
-411
-325
-208
-100
-24
15
19
-3
-19
13
106
228
330
390
418
435
439
413
359
296
249
213
158
57
-88
-243
-382
-505
-638
-780
-891
-916
-843
-721
-615
-549
-494
-413
-308
-225
-206
-251
-322
-376
-395
-389
-389
-412
-443
-456
-440
-416
-420
-466
-535
-590
-609
-597
-585
-604
-650
-685
-677
-643
-638
-695
-790
-857
-876
-883
-913
-954
-961
-912
-820
-702
-562
-413
-282
-184
-106
-23
52
83
64
36
43
77
97
93
99
139
192
227
250
291
357
403
391
330
273
263
300
361
414
440
446
466
545
695
867
984
1021
1031
1078
1160
1218
1213
1168
1135
1132
1132
1116
1108
1127
1134
1060
899
736
666
676
648
494
267
114
115
188
186
70
-46
-29
116
264
310
287
299
388
493
532
494
436
413
423
433
424
407
402
421
462
514
552
545
483
373
242
113
1
-83
-123
-101
8
208
474
759
1017
1234
1429
1628
1835
2016
2124
2119
2002
1821
1651
1525
1400
1193
870
516
282
249
353
445
437
368
339
409
535
632
663
648
625
614
611
613
629
663
705
729
702
616
499
406
368
373
383
376
370
391
445
506
548
555
527
475
422
397
409
437
450
432
395
356
328
323
352
394
403
349
258
201
224
299
356
364
356
378
430
471
457
389
301
229
186
172
187
244
347
476
587
644
653
648
650
642
585
488
415
422
508
618
709
783
860
936
982
977
916
799
627
430
272
203
209
223
202
175
204
298
397
445
442
415
373
297
188
89
47
55
73
73
65
89
164
281
410
506
533
509
488
507
525
452
259
43
-64
-27
45
31
-57
-95
1
183
326
375
383
424
498
558
577
581
600
629
652
669
703
742
738
670
590
585
690
849
980
1048
1072
1092
1134
1191
1239
1248
1208
1146
1100
1072
1029
953
841
685
442
122
-142
-179
44
379
625
731
808
952
1133
1256
1284
1251
1193
1116
1045
1016
1019
1004
934
840
772
686
479
161
-94
-111
64
218
251
278
464
754
875
688
393
319
529
736
660
379
230
406
735
887
754
527
423
453
506
558
715
992
1209
1175
926
711
721
869
890
656
318
137
210
431
620
675
613
488
352
250
183
87
-99
-342
-510
-489
-325
-184
-188
-310
-412
-389
-284
-232
-336
-573
-806
-905
-846
-731
-675
-698
-737
-750
-758
-774
-768
-726
-692
-703
-734
-710
-600
-469
-375
-299
-192
-68
7
30
77
200
328
371
328
264
217
163
106
115
214
321
341
314
377
548
682
670
596
620
750
809
717
650
816
1130
1253
1013
643
506
662
784
595
223
45
239
591
788
762
707
783
937
1021
985
912
884
888
882
873
910
1015
1134
1192
1146
1027
929
939
1047
1146
1130
1014
933
984
1117
1189
1142
1058
1032
1060
1091
1124
1216
1341
1382
1265
1089
1040
1174
1349
1387
1270
1131
1073
1076
1065
1025
1008
1040
1103
1197
1368
1616
1853
1985
2035
2139
2374
2640
2744
2602
2337
2134
2050
1967
1735
1360
980
721
575
457
336
301
429
657
806
774
644
607
743
951
1074
1061
992
960
990
1049
1078
1008
798
504
262
173
200
218
165
133
234
430
568
543
406
291
270
327
410
481
526
535
526
556
677
841
936
880
711
573
573
696
822
845
781
719
695
660
573
503
558
738
902
905
779
678
658
601
406
175
102
225
362
352
274
324
538
707
660
492
446
613
815
819
638
534
707
1053
1250
1096
730
494
598
940
1228
1276
1137
992
941
936
891
762
545
250
-69
-277
-246
1
270
386
387
448
634
787
746
594
583
791
998
986
873
1007
1488
1968
2040
1745
1551
1785
2242
2452
2278
2048
2151
2603
3105
3439
3653
3887
4150
4364
4499
4593
4627
4525
4258
3907
3580
3308
3074
2887
2774
2710
2602
2399
2169
2015
1950
1910
1849
1793
1778
1764
1690
1563
1453
1391
1322
1171
962
798
748
775
796
789
803
894
1055
1241
1430
1633
1862
2103
2326
2517
2684
2829
2928
2942
2861
2719
2552
2359
2111
1826
1576
1423
1365
1348
1339
1345
1374
1410
1433
1461
1531
1639
1729
1745
1686
1579
1452
1317
1193
1106
1053
998
913
831
823
909
1016
1054
1014
966
961
961
909
813
749
766
810
791
703
635
668
770
832
786
664
550
504
523
576
625
641
608
526
419
320
258
244
253
226
135
13
-55
-15
100
207
246
219
147
49
-39
-62
-5
55
23
-103
-206
-176
-36
87
104
49
14
28
53
64
89
147
199
197
164
175
271
398
467
455
431
464
552
635
675
688
702
731
762
775
745
666
565
499
500
524
498
411
346
380
486
550
499
387
326
342
357
287
138
-6
-87
-130
-190
-280
-366
-408
-407
-389
-366
-330
-277
-238
-243
-284
-322
-322
-279
-197
-66
122
345
552
720
873
1034
1173
1218
1136
976
826
717
613
474
322
208
169
198
258
317
347
343
339
368
415
418
321
132
-67
-197
-228
-177
-74
56
200
363
575
854
1153
1371
1442
1408
1380
1425
1487
1456
1296
1075
885
734
552
299
11
-233
-400
-508
-574
-578
-515
-445
-422
-428
-386
-264
-137
-100
-150
-192
-167
-118
-122
-193
-296
-406
-524
-619
-637
-575
-515
-534
-611
-652
-615
-557
-555
-606
-634
-595
-522
-469
-461
-469
-456
-426
-438
-534
-692
-833
-893
-888
-894
-955
-1032
-1063
-1045
-1030
-1044
-1057
-1044
-1035
-1079
-1163
-1221
-1208
-1142
-1061
-983
-922
-910
-954
-987
-919
-754
-615
-617
-742
-869
-916
-912
-923
-949
-932
-877
-860
-909
-925
-787
-519
-284
-211
-239
-194
-8
214
344
395
480
633
746
710
560
441
418
414
325
148
-33
-150
-208
-238
-242
-221
-213
-254
-323
-350
-301
-245
-299
-497
-746
-911
-951
-948
-1012
-1171
-1343
-1428
-1409
-1362
-1359
-1399
-1423
-1402
-1365
-1353
-1360
-1355
-1335
-1335
-1364
-1379
-1331
-1225
-1122
-1062
-1029
-995
-977
-1008
-1079
-1129
-1108
-1040
-1004
-1036
-1089
-1074
-950
-763
-610
-563
-615
-707
-786
-848
-944
-1132
-1415
-1717
-1951
-2080
-2143
-2211
-2303
-2398
-2461
-2459
-2362
-2149
-1875
-1672
-1638
-1716
-1715
-1497
-1126
-806
-685
-736
-829
-844
-731
-488
-173
73
109
-48
-193
-117
164
415
412
160
-129
-260
-216
-118
-94
-184
-357
-565
-777
-988
-1209
-1444
-1691
-1956
-2259
-2596
-2896
-3045
-2988
-2796
-2622
-2555
-2547
-2493
-2377
-2304
-2377
-2574
-2763
-2837
-2818
-2794
-2799
-2777
-2661
-2451
-2208
-1994
-1825
-1689
-1576
-1498
-1470
-1493
-1554
-1630
-1698
-1750
-1799
-1865
-1947
-2020
-2070
-2110
-2153
-2186
-2180
-2126
-2073
-2081
-2153
-2220
-2212
-2145
-2103
-2134
-2187
-2167
-2045
-1893
-1797
-1761
-1709
-1582
-1405
-1247
-1138
-1052
-951
-839
-751
-700
-674
-662
-667
-687
-701
-688
-657
-641
-653
-673
-679
-674
-691
-739
-782
-783
-754
-742
-761
-764
-696
-575
-475
-448
-464
-461
-427
-416
-472
-568
-642
-671
-696
-766
-862
-913
-878
-801
-777
-857
-993
-1076
-1054
-986
-976
-1061
-1169
-1194
-1109
-980
-892
-868
-874
-869
-835
-772
-684
-592
-528
-492
-431
-294
-104
51
111
109
134
218
302
314
249
173
146
162
172
139
69
-16
-109
-210
-309
-389
-437
-455
-432
-329
-128
126
340
467
564
728
977
1210
1297
1223
1081
967
878
753
551
296
35
-194
-363
-457
-504
-567
-691
-836
-913
-894
-847
-855
-917
-961
-949
-912
-900
-909
-912
-898
-897
-929
-967
-994
-1026
-1093
-1184
-1249
-1255
-1224
-1211
-1241
-1295
-1344
-1384
-1426
-1461
-1468
-1439
-1401
-1382
-1382
-1375
-1347
-1325
-1344
-1398
-1436
-1404
-1310
-1205
-1128
-1065
-983
-876
-774
-699
-641
-585
-542
-539
-577
-625
-648
-642
-621
-596
-575
-568
-579
-593
-583
-551
-538
-578
-656
-723
-755
-771
-797
-816
-798
-755
-737
-757
-763
-696
-577
-496
-506
-548
-516
-381
-218
-116
-95
-101
-79
-9
92
183
217
168
80
52
140
291
391
393
366
406
515
604
617
601
637
727
781
731
623
568
598
633
563
391
231
181
217
236
180
108
101
165
226
226
190
189
241
298
312
296
294
327
371
393
386
363
330
284
225
160
104
77
86
116
132
110
62
27
24
22
-30
-141
-259
-319
-308
-268
-250
-269
-299
-319
-318
-298
-269
-227
-152
-22
171
406
628
794
912
1033
1187
1328
1362
1232
992
765
630
558
458
271
41
-139
-207
-181
-115
-65
-58
-94
-159
-199
-161
-35
122
213
203
155
166
266
364
367
294
268
356
467
448
281
138
204
458
688
714
561
402
352
371
355
272
185
160
213
322
468
632
771
822
769
630
466
337
247
157
26
-111
-161
-78
62
120
50
-20
67
323
570
633
520
404
432
575
696
703
619
520
476
495
520
450
233
-41
-195
-134
8
17
-107
-130
151
601
863
786
618
686
973
1140
962
638
547
772
1033
1063
956
1008
1297
1533
1381
870
378
255
480
741
767
555
336
323
525
759
792
561
206
-51
-107
-47
4
19
44
66
-8
-210
-397
-376
-171
-53
-255
-668
-938
-860
-568
-369
-400
-532
-588
-523
-427
-378
-372
-375
-374
-346
-251
-83
80
137
77
12
64
224
368
379
242
50
-78
-87
-19
46
52
-15
-134
-259
-334
-308
-225
-194
-282
-440
-529
-459
-297
-179
-161
-158
-48
186
463
705
901
1070
1204
1298
1391
1527
1675
1715
1570
1324
1152
1130
1140
1012
718
418
274
293
360
375
330
287
286
339
427
510
541
489
383
297
297
382
485
538
536
520
533
586
627
595
486
387
382
465
537
522
470
494
615
728
734
666
625
647
669
637
592
593
612
574
463
364
345
360
315
190
77
50
78
82
51
41
86
136
115
35
-24
-14
47
112
150
150
117
80
82
131
175
148
59
1
39
132
188
178
175
247
366
450
478
525
650
797
861
813
762
823
972
1064
994
819
699
733
880
1023
1103
1132
1149
1170
1182
1180
1167
1141
1099
1047
1013
1024
1069
1120
1154
1169
1165
1117
1003
831
654
528
461
416
374
349
359
393
426
464
535
634
687
649
580
595
712
803
755
647
676
906
1154
1213
1102
1052
1204
1422
1475
1333
1173
1145
1196
1177
1069
997
1041
1113
1070
902
733
664
685
745
823
912
953
887
746
661
721
831
795
541
241
156
375
740
1022
1139
1207
1379
1664
1935
2066
2024
1854
1614
1338
1055
784
511
192
-182
-558
-817
-894
-830
-750
-718
-671
-514
-287
-159
-229
-372
-367
-192
-69
-183
-398
-380
-1
490
731
652
510
517
615
633
538
471
528
628
662
656
728
910
1090
1158
1098
989
886
816
806
882
1000
1072
1067
1036
1075
1210
1356
1392
1283
1120
1049
1114
1209
1184
1044
970
1112
1375
1496
1335
1052
932
1054
1209
1168
940
743
721
808
864
843
841
913
982
916
727
582
630
794
845
683
483
514
816
1104
1085
821
655
784
1017
998
655
300
261
511
720
639
359
173
243
451
563
478
308
233
318
453
515
485
459
519
648
746
768
756
779
845
905
918
887
850
827
810
776
717
667
652
664
663
642
664
789
977
1090
1040
898
825
892
1015
1063
1000
891
817
821
927
1129
1332
1386
1253
1099
1125
1317
1437
1315
1067
949
1043
1184
1210
1167
1200
1310
1349
1238
1089
1044
1073
1019
817
585
473
499
586
695
860
1077
1257
1334
1377
1515
1780
2052
2172
2108
1959
1822
1707
1568
1365
1089
744
354
-3
-211
-203
-43
123
194
211
273
418
566
624
572
457
318
158
-5
-103
-69
90
274
354
293
163
72
76
132
145
64
-79
-204
-258
-245
-208
-194
-235
-346
-496
-611
-631
-579
-548
-617
-762
-883
-931
-961
-1061
-1230
-1371
-1400
-1332
-1252
-1205
-1154
-1044
-897
-803
-823
-942
-1096
-1252
-1415
-1571
-1668
-1662
-1584
-1516
-1497
-1487
-1423
-1314
-1243
-1268
-1369
-1470
-1519
-1515
-1475
-1412
-1345
-1310
-1335
-1384
-1384
-1302
-1203
-1189
-1288
-1400
-1398
-1266
-1114
-1054
-1085
-1120
-1111
-1094
-1117
-1164
-1183
-1194
-1278
-1452
-1609
-1621
-1494
-1366
-1335
-1350
-1280
-1092
-881
-757
-740
-776
-826
-885
-954
-1027
-1125
-1275
-1440
-1512
-1430
-1273
-1192
-1240
-1303
-1250
-1082
-926
-878
-913
-941
-923
-869
-794
-680
-546
-461
-476
-562
-639
-654
-620
-579
-558
-549
-530
-490
-439
-410
-424
-464
-477
-452
-442
-507
-632
-733
-757
-751
-796
-905
-1015
-1078
-1126
-1218
-1351
-1465
-1519
-1546
-1599
-1667
-1684
-1583
-1374
-1150
-992
-893
-749
-458
-40
355
573
597
558
583
640
563
238
-260
-713
-962
-1045
-1124
-1300
-1501
-1563
-1417
-1158
-943
-853
-839
-823
-782
-746
-732
-722
-707
-718
-766
-804
-757
-618
-483
-455
-526
-596
-573
-475
-423
-512
-732
-990
-1193
-1321
-1428
-1565
-1737
-1905
-2022
-2078
-2095
-2096
-2092
-2104
-2188
-2367
-2567
-2643
-2532
-2352
-2317
-2507
-2761
-2835
-2677
-2490
-2510
-2746
-2985
-3029
-2881
-2703
-2612
-2604
-2622
-2632
-2637
-2634
-2600
-2547
-2528
-2564
-2621
-2640
-2606
-2552
-2501
-2439
-2353
-2265
-2208
-2172
-2111
-1999
-1870
-1778
-1728
-1671
-1563
-1417
-1290
-1213
-1169
-1128
-1084
-1055
-1065
-1123
-1216
-1318
-1394
-1417
-1401
-1393
-1421
-1469
-1506
-1514
-1499
-1466
-1416
-1362
-1334
-1338
-1341
-1319
-1306
-1361
-1500
-1660
-1769
-1809
-1809
-1788
-1734
-1647
-1559
-1488
-1412
-1310
-1221
-1210
-1281
-1347
-1321
-1214
-1110
-1073
-1078
-1059
-987
-895
-840
-851
-919
-1005
-1065
-1070
-1036
-1000
-988
-1005
-1029
-1048
-1060
-1068
-1077
-1104
-1149
-1184
-1187
-1182
-1220
-1325
-1455
-1562
-1662
-1818
-2040
-2243
-2316
-2232
-2072
-1930
-1833
-1735
-1570
-1307
-964
-600
-283
-63
49
74
37
-44
-172
-370
-662
-1028
-1369
-1573
-1614
-1579
-1557
-1542
-1454
-1262
-1040
-902
-867
-865
-830
-767
-718
-691
-659
-588
-458
-265
-38
155
252
274
309
421
583
723
810
888
997
1122
1224
1284
1308
1300
1257
1196
1155
1140
1109
1023
911
850
879
958
1017
1022
1001
986
980
962
924
882
863
882
936
988
994
935
835
753
727
735
705
584
401
253
239
365
514
541
416
263
240
373
530
573
522
514
637
829
975
1046
1121
1251
1382
1438
1419
1395
1403
1391
1303
1159
1033
956
886
786
680
625
642
700
775
860
948
1014
1055
1111
1205
1284
1271
1174
1112
1176
1305
1336
1207
1047
1032
1170
1298
1279
1169
1139
1259
1423
1482
1431
1396
1476
1625
1718
1699
1635
1629
1701
1779
1782
1707
1621
1576
1570
1558
1514
1459
1425
1415
1405
1375
1342
1331
1336
1321
1265
1190
1137
1125
1120
1080
1004
952
968
1015
1013
920
791
702
655
585
454
332
335
493
719
903
1016
1112
1249
1427
1617
1797
1951
2052
2095
2111
2141
2178
2153
2009
1760
1479
1226
1017
845
728
697
760
878
1005
1142
1302
1476
1616
1664
1611
1496
1378
1296
1258
1258
1288
1331
1366
1388
1394
1384
1356
1310
1263
1230
1198
1134
1032
930
889
936
1029
1093
1084
1019
955
939
977
1032
1066
1074
1086
1142
1253
1380
1459
1448
1354
1222
1095
997
926
876
834
793
743
702
692
710
711
649
537
441
413
438
454
445
463
555
690
788
815
818
865
953
1018
1020
984
972
1016
1094
1165
1195
1187
1168
1177
1248
1366
1466
1485
1417
1311
1228
1186
1154
1085
964
823
728
725
807
906
960
949
908
889
907
924
894
802
681
583
545
558
579
569
524
474
442
432
417
359
236
73
-68
-128
-108
-65
-31
20
150
380
645
848
956
1012
1082
1167
1204
1133
973
822
758
771
779
730
673
700
835
981
1028
972
911
925
995
1044
1040
1022
1050
1133
1219
1258
1243
1204
1183
1180
1173
1163
1201
1333
1521
1649
1652
1646
1835
2269
2737
2952
2843
2630
2569
2664
2686
2439
1978
1540
1326
1332
1388
1352
1221
1110
1130
1256
1344
1266
1014
723
550
571
729
876
866
674
457
447
711
1027
1086
835
528
449
631
872
1000
1043
1090
1125
1079
952
831
777
753
690
569
424
289
197
198
291
382
371
268
189
183
172
71
-76
-169
-212
-322
-542
-770
-852
-769
-631
-547
-537
-585
-673
-747
-744
-700
-752
-973
-1254
-1390
-1316
-1169
-1099
-1096
-1049
-914
-766
-654
-545
-410
-296
-270
-322
-356
-287
-109
97
238
278
279
380
641
953
1084
934
680
600
759
949
932
710
500
461
538
574
502
385
312
306
338
381
431
471
474
418
308
194
146
200
321
400
356
220
144
229
410
531
497
377
303
328
392
421
430
490
616
731
775
770
797
894
1002
1037
982
904
893
987
1151
1291
1332
1279
1188
1119
1086
1071
1072
1095
1132
1154
1147
1138
1163
1215
1240
1199
1101
1005
967
1006
1094
1194
1295
1426
1618
1858
2080
2232
2337
2462
2626
2764
2787
2703
2623
2624
2658
2587
2322
1944
1629
1470
1410
1324
1189
1110
1182
1372
1541
1609
1630
1693
1784
1812
1763
1737
1791
1832
1712
1454
1259
1264
1365
1344
1165
1005
1016
1109
1098
985
969
1169
1427
1485
1324
1208
1349
1645
1807
1698
1475
1364
1404
1459
1428
1361
1356
1418
1464
1437
1361
1285
1238
1234
1249
1218
1080
857
680
669
794
867
742
476
273
256
352
405
367
324
367
456
468
351
191
131
226
392
490
474
439
514
711
893
905
748
585
566
665
734
704
669
771
990
1151
1116
911
703
599
544
425
234
90
96
227
352
361
262
139
42
-65
-243
-496
-720
-771
-599
-321
-161
-236
-421
-468
-275
-22
35
-125
-227
5
546
1128
1535
1799
2073
2412
2746
2984
3114
3156
3107
2988
2886
2904
3036
3177
3255
3320
3482
3766
4093
4359
4542
4718
4961
5253
5489
5569
5488
5328
5162
4993
4779
4509
4216
3932
3662
3385
3090
2793
2514
2299
2206
2234
2297
2296
2259
2336
2594
2896
3026
2949
2843
2865
2939
2865
2617
2382
2319
2345
2232
1910
1563
1409
1449
1508
1460
1356
1314
1382
1498
1579
1609
1605
1605
1630
1662
1675
1657
1630
1654
1749
1858
1911
1886
1830
1787
1759
1731
1719
1741
1773
1763
1705
1658
1685
1767
1809
1750
1631
1561
1593
1680
1722
1675
1575
1483
1429
1384
1298
1175
1070
1041
1080
1130
1156
1171
1197
1212
1174
1098
1053
1062
1057
954
786
665
662
703
666
545
447
451
498
493
450
483
647
837
907
834
730
693
700
664
567
471
433
453
511
626
803
976
1043
976
868
834
888
939
904
797
708
700
767
860
947
1013
1033
1001
953
945
981
1005
980
948
1005
1192
1429
1569
1539
1404
1296
1276
1283
1206
1019
842
828
994
1179
1202
1054
915
951
1132
1272
1248
1135
1100
1198
1328
1364
1307
1264
1303
1372
1365
1262
1138
1097
1160
1260
1299
1248
1183
1201
1317
1429
1414
1269
1118
1093
1190
1278
1267
1203
1192
1248
1271
1180
1026
919
886
854
797
823
1040
1352
1502
1353
1091
1052
1349
1738
1882
1717
1479
1423
1570
1734
1748
1595
1353
1095
849
648
524
481
485
503
530
567
624
705
798
879
897
815
661
528
501
579
679
739
778
834
891
884
774
610
475
411
404
436
506
567
523
329
81
-44
15
106
19
-265
-531
-557
-355
-136
-59
-93
-107
-60
-40
-113
-232
-298
-309
-347
-469
-613
-676
-639
-582
-586
-661
-758
-842
-906
-945
-945
-911
-900
-945
-1015
-1040
-989
-901
-837
-807
-771
-690
-574
-458
-375
-341
-355
-391
-406
-376
-310
-250
-220
-202
-150
-44
87
180
182
90
-50
-176
-253
-292
-321
-347
-352
-320
-258
-186
-121
-73
-46
-43
-51
-50
-37
-36
-61
-99
-125
-124
-113
-117
-142
-175
-198
-195
-155
-74
30
118
169
200
253
342
437
487
475
433
410
432
491
552
584
572
529
491
481
482
461
411
384
439
564
650
605
466
376
425
540
559
437
281
217
246
276
258
221
189
117
-28
-194
-291
-310
-316
-321
-225
40
361
536
505
444
578
923
1267
1391
1285
1111
1021
1015
971
780
417
-43
-485
-814
-997
-1061
-1052
-1008
-954
-908
-866
-805
-718
-645
-636
-705
-802
-871
-901
-919
-924
-899
-852
-850
-957
-1149
-1318
-1384
-1369
-1352
-1358
-1338
-1253
-1150
-1117
-1177
-1267
-1311
-1319
-1348
-1433
-1533
-1588
-1588
-1568
-1569
-1607
-1660
-1697
-1695
-1668
-1668
-1737
-1875
-2027
-2133
-2191
-2246
-2331
-2427
-2486
-2501
-2513
-2555
-2608
-2627
-2608
-2594
-2624
-2672
-2671
-2591
-2487
-2434
-2445
-2457
-2424
-2374
-2372
-2434
-2495
-2486
-2414
-2337
-2290
-2241
-2146
-2008
-1876
-1778
-1697
-1605
-1509
-1436
-1389
-1335
-1254
-1174
-1158
-1216
-1286
-1294
-1254
-1248
-1334
-1456
-1511
-1474
-1432
-1475
-1582
-1648
-1608
-1511
-1449
-1458
-1479
-1439
-1338
-1225
-1149
-1116
-1096
-1055
-979
-875
-757
-627
-481
-334
-213
-143
-110
-79
-41
-31
-88
-189
-256
-232
-134
-41
2
35
127
275
393
390
277
156
111
123
113
43
-31
-46
-26
-46
-120
-175
-152
-98
-114
-232
-363
-402
-350
-304
-344
-437
-476
-396
-222
-34
115
224
333
481
707
1018
1356
1600
1640
1489
1292
1196
1182
1070
728
243
-133
-237
-158
-107
-175
-244
-158
78
298
367
316
266
262
226
73
-163
-353
-416
-382
-350
-370
-425
-482
-535
-595
-652
-683
-683
-690
-733
-808
-892
-955
-979
-970
-943
-919
-925
-986
-1116
-1281
-1404
-1415
-1340
-1295
-1379
-1557
-1667
-1594
-1398
-1249
-1239
-1289
-1268
-1142
-1013
-981
-1034
-1084
-1072
-1028
-1012
-1045
-1087
-1087
-1022
-910
-796
-715
-672
-636
-559
-430
-283
-170
-126
-138
-156
-121
-31
63
100
79
55
64
92
96
77
82
137
194
170
51
-84
-142
-98
-5
57
49
-25
-120
-165
-111
2
54
-51
-270
-439
-443
-331
-270
-361
-544
-682
-708
-670
-648
-666
-696
-704
-692
-673
-648
-596
-506
-391
-283
-207
-162
-131
-81
12
154
315
441
500
526
594
731
877
932
866
766
733
774
804
759
669
599
559
509
427
352
316
299
266
208
162
140
136
182
315
498
602
538
398
387
591
872
1040
1090
1182
1410
1677
1840
1941
2129
2432
2663
2637
2413
2234
2229
2271
2146
1816
1451
1211
1106
1037
954
899
919
994
1054
1064
1056
1067
1097
1095
1011
856
704
628
638
684
716
744
812
926
1030
1070
1061
1059
1085
1105
1087
1058
1065
1095
1089
1024
972
1011
1111
1146
1036
851
729
718
726
651
507
387
345
337
301
238
192
168
117
22
-72
-103
-77
-62
-105
-176
-218
-215
-193
-183
-193
-207
-221
-237
-235
-205
-167
-173
-267
-421
-542
-550
-447
-323
-261
-252
-208
-79
89
203
227
214
227
245
205
112
59
127
266
341
280
157
105
172
290
365
357
306
250
214
222
263
306
297
214
129
142
262
384
400
338
317
388
460
418
285
202
260
386
454
459
525
744
1053
1303
1439
1509
1557
1534
1382
1160
1015
1013
1041
908
595
322
334
635
953
1014
829
661
717
923
1037
929
707
568
574
640
699
781
929
1063
1045
859
642
558
646
784
861
850
819
826
898
1033
1241
1486
1653
1609
1376
1197
1359
1851
2282
2221
1660
1073
913
1122
1213
846
227
-157
-112
106
150
2
-93
-20
33
-162
-578
-940
-1045
-948
-827
-790
-808
-824
-783
-643
-381
-73
117
93
-60
-134
-24
138
148
-21
-176
-147
-1
34
-134
-318
-252
60
317
266
-24
-230
-157
32
36
-194
-412
-388
-184
-63
-156
-313
-321
-205
-167
-327
-551
-620
-489
-321
-285
-385
-486
-471
-353
-254
-302
-495
-675
-653
-414
-157
-103
-235
-313
-152
165
396
407
281
173
159
212
292
363
355
230
63
16
127
258
237
103
62
231
492
656
700
765
930
1103
1162
1114
1068
1081
1102
1077
1040
1069
1176
1274
1266
1154
1020
960
1019
1135
1171
1041
819
692
770
968
1092
1040
896
811
843
946
1063
1184
1305
1401
1464
1530
1635
1754
1813
1781
1709
1652
1608
1554
1513
1524
1572
1592
1545
1498
1539
1669
1802
1851
1821
1796
1824
1874
1868
1768
1620
1522
1553
1666
1713
1601
1425
1379
1540
1755
1838
1814
1884
2154
2452
2532
2416
2382
2619
2964
3070
2835
2531
2456
2578
2597
2338
1937
1668
1605
1623
1605
1570
1596
1675
1725
1703
1650
1624
1627
1612
1548
1428
1291
1231
1332
1546
1679
1576
1314
1139
1173
1272
1220
1026
915
986
1100
1093
1043
1156
1385
1422
1098
684
578
830
1063
970
712
651
857
1046
1015
889
873
881
646
148
-228
-134
252
393
9
-585
-861
-673
-410
-510
-980
-1409
-1417
-1026
-537
-228
-131
-106
-38
82
204
279
296
265
200
146
152
220
325
429
479
422
261
102
84
204
324
332
325
512
937
1377
1581
1584
1624
1855
2151
2296
2240
2150
2209
2438
2697
2839
2812
2723
2768
3057
3480
3808
3955
4084
4373
4773
5065
5141
5143
5242
5380
5358
5162
5014
5092
5238
5137
4706
4234
4001
3934
3717
3206
2661
2419
2482
2489
2188
1765
1621
1828
2003
1770
1247
915
1012
1239
1142
685
246
181
428
652
627
432
321
451
743
971
932
644
355
310
480
592
483
332
446
873
1332
1552
1595
1742
2140
2609
2867
2845
2740
2792
3047
3313
3346
3066
2637
2326
2247
2279
2196
1921
1559
1278
1176
1251
1477
1773
1971
1937
1745
1648
1803
2065
2130
1884
1549
1431
1563
1711
1672
1504
1398
1421
1471
1432
1312
1228
1247
1336
1417
1435
1379
1275
1189
1174
1232
1298
1277
1145
961
802
736
776
873
944
947
899
859
846
817
737
629
544
482
400
269
150
120
170
224
210
140
90
110
205
317
368
326
235
201
284
435
526
478
338
226
244
395
554
552
343
84
18
248
570
646
386
70
62
406
778
840
602
364
363
542
648
540
309
146
145
220
243
211
224
350
515
595
570
547
604
671
640
505
375
323
301
246
198
265
439
561
530
410
356
401
424
351
268
306
459
587
595
543
534
590
654
662
619
558
484
412
369
353
326
271
229
261
358
439
452
457
532
656
720
674
580
548
595
625
551
392
239
153
111
107
170
339
572
736
719
565
477
623
975
1299
1399
1306
1230
1307
1461
1520
1409
1194
966
752
548
397
329
290
182
-17
-171
-102
204
573
793
815
774
837
1022
1186
1150
886
552
357
380
513
579
501
387
401
613
908
1084
1019
790
602
588
683
684
468
131
-100
-92
59
143
51
-124
-198
-85
142
340
431
443
444
459
463
421
329
223
120
21
-75
-145
-166
-151
-165
-255
-388
-477
-471
-414
-406
-478
-535
-453
-199
116
347
452
524
677
927
1207
1422
1536
1572
1575
1596
1663
1752
1805
1764
1657
1574
1598
1680
1704
1620
1508
1475
1510
1499
1379
1218
1129
1097
997
773
574
607
858
1078
1063
927
957
1257
1579
1599
1282
891
674
588
390
-17
-465
-705
-666
-490
-324
-201
-62
105
253
327
327
281
191
30
-179
-349
-386
-308
-215
-187
-214
-223
-193
-156
-157
-201
-270
-343
-425
-521
-608
-655
-643
-588
-531
-515
-568
-669
-759
-796
-770
-711
-653
-639
-703
-831
-951
-984
-928
-851
-823
-844
-875
-882
-836
-699
-448
-138
96
182
183
227
339
406
317
94
-145
-315
-420
-485
-503
-451
-362
-302
-293
-299
-261
-173
-89
-56
-72
-92
-88
-55
2
63
109
124
108
96
121
164
162
79
-37
-93
-66
-33
-76
-194
-309
-370
-395
-422
-446
-442
-415
-390
-376
-378
-439
-598
-790
-852
-702
-487
-463
-691
-917
-838
-466
-132
-122
-369
-570
-531
-340
-219
-266
-407
-537
-619
-653
-619
-511
-395
-349
-374
-375
-250
-11
224
330
286
192
167
235
299
237
52
-104
-87
78
212
182
31
-92
-110
-86
-108
-185
-263
-313
-344
-333
-230
-36
144
196
125
53
84
179
199
69
-145
-313
-357
-319
-295
-336
-413
-457
-438
-409
-437
-528
-617
-641
-626
-650
-741
-840
-865
-795
-680
-579
-511
-472
-466
-489
-510
-483
-409
-360
-414
-551
-641
-568
-356
-164
-132
-241
-348
-343
-254
-189
-202
-252
-275
-269
-269
-282
-284
-262
-257
-318
-437
-550
-608
-610
-605
-638
-719
-815
-856
-780
-603
-425
-340
-340
-310
-157
110
392
606
730
772
742
664
599
573
528
357
37
-309
-511
-523
-465
-490
-613
-703
-616
-339
-10
204
250
224
274
454
672
787
752
673
689
822
964
1001
908
740
563
432
382
409
444
383
182
-84
-286
-369
-405
-523
-780
-1098
-1340
-1421
-1378
-1336
-1385
-1490
-1532
-1438
-1285
-1229
-1337
-1513
-1590
-1514
-1387
-1354
-1456
-1608
-1698
-1698
-1667
-1684
-1774
-1902
-2020
-2081
-2062
-1984
-1913
-1925
-2024
-2111
-2087
-1958
-1831
-1786
-1781
-1705
-1519
-1302
-1143
-1053
-992
-925
-841
-724
-561
-386
-258
-178
-71
109
295
366
303
221
214
213
77
-232
-589
-843
-980
-1101
-1259
-1395
-1417
-1328
-1212
-1132
-1074
-988
-863
-759
-724
-732
-692
-546
-334
-129
64
304
628
987
1302
1570
1851
2156
2410
2561
2670
2860
3157
3461
3667
3779
3867
3963
4037
4094
4200
4369
4499
4468
4285
4076
3938
3837
3673
3411
3103
2819
2606
2498
2502
2567
2583
2488
2336
2242
2256
2316
2325
2242
2096
1939
1811
1767
1826
1955
2084
2160
2198
2252
2360
2538
2774
3020
3195
3243
3186
3112
3072
3010
2822
2477
2067
1710
1450
1248
1060
903
815
798
811
819
837
908
1024
1111
1079
924
745
657
672
705
673
596
572
633
705
696
614
566
615
696
693
596
532
609
777
877
816
667
578
605
677
697
639
552
478
421
379
374
422
499
549
553
538
542
566
573
541
475
386
279
168
82
73
159
307
460
582
670
731
754
732
677
605
498
322
99
-68
-73
80
262
342
306
255
286
413
577
714
789
791
728
677
730
906
1091
1123
955
748
741
989
1254
1233
905
607
676
1061
1349
1241
880
692
904
1340
1688
1843
1919
1992
1982
1817
1564
1344
1154
930
707
639
800
1045
1163
1152
1187
1384
1616
1639
1390
1103
1052
1281
1590
1739
1690
1600
1633
1808
1995
2064
1986
1815
1614
1409
1234
1115
1059
1034
1017
1001
960
841
629
430
385
491
546
334
-109
-510
-680
-707
-834
-1143
-1434
-1481
-1290
-1056
-911
-785
-544
-196
132
377
637
1035
1539
1951
2132
2148
2185
2294
2325
2092
1635
1231
1126
1263
1343
1152
788
547
602
843
1017
981
796
629
589
665
780
850
853
830
835
893
986
1069
1110
1091
1026
952
916
937
984
1016
1023
1024
1039
1057
1082
1144
1248
1329
1321
1233
1138
1075
986
816
630
559
639
759
798
780
810
910
976
918
780
693
707
733
667
516
390
374
433
470
429
361
348
418
511
559
571
604
691
807
900
931
913
887
898
964
1046
1068
1008
942
974
1118
1263
1322
1343
1458
1694
1918
1978
1885
1799
1820
1876
1810
1582
1322
1200
1248
1355
1375
1270
1144
1110
1172
1222
1165
1030
939
955
1012
1006
930
862
844
813
690
512
392
369
355
270
175
207
391
584
647
621
692
950
1267
1439
1406
1308
1313
1445
1560
1514
1306
1091
1049
1212
1454
1616
1670
1727
1884
2077
2161
2077
1919
1806
1763
1736
1698
1689
1750
1857
1958
2036
2093
2098
2006
1852
1767
1825
1941
1946
1805
1701
1844
2214
2566
2701
2664
2627
2638
2553
2252
1820
1433
1138
806
370
-42
-245
-219
-111
-44
-29
-22
-37
-98
-194
-311
-509
-840
-1208
-1416
-1418
-1387
-1490
-1634
-1581
-1318
-1133
-1280
-1623
-1777
-1578
-1272
-1198
-1375
-1523
-1420
-1157
-988
-997
-1033
-937
-766
-716
-888
-1179
-1401
-1471
-1460
-1500
-1637
-1816
-1925
-1881
-1669
-1358
-1103
-1018
-1072
-1114
-1034
-845
-652
-523
-470
-469
-472
-364
-11
552
1042
1150
900
693
914
1520
2093
2306
2257
2326
2723
3293
3731
3903
3924
3979
4129
4288
4361
4333
4270
4217
4160
4068
3924
3733
3506
3256
3017
2842
2762
2708
2578
2345
2108
1975
1931
1856
1675
1446
1271
1172
1090
1012
999
1091
1199
1196
1066
922
859
849
803
710
647
668
743
815
886
1009
1195
1393
1533
1585
1556
1479
1404
1377
1406
1438
1426
1388
1395
1485
1608
1693
1725
1759
1815
1825
1727
1549
1404
1360
1367
1328
1228
1136
1110
1139
1196
1300
1473
1653
1718
1601
1389
1243
1226
1236
1123
871
643
636
896
1269
1532
1603
1607
1731
2025
2338
2474
2382
2176
1993
1868
1719
1474
1139
770
430
194
123
200
314
353
325
348
494
664
703
593
485
505
570
501
267
51
40
187
267
159
-20
-88
-15
74
99
118
209
323
340
231
99
52
70
64
1
-49
-23
64
155
213
239
238
206
140
67
11
-35
-83
-124
-133
-110
-97
-122
-165
-188
-186
-200
-239
-256
-211
-162
-226
-432
-655
-732
-645
-542
-573
-714
-803
-731
-537
-340
-205
-112
-31
32
61
72
83
83
53
1
-23
16
92
160
202
227
245
239
188
88
-44
-174
-263
-292
-284
-292
-344
-402
-399
-319
-221
-180
-220
-309
-400
-466
-484
-449
-400
-412
-511
-630
-672
-620
-565
-593
-697
-786
-796
-739
-663
-605
-580
-585
-583
-532
-434
-362
-391
-490
-528
-420
-245
-161
-222
-319
-310
-182
-54
-37
-120
-207
-223
-177
-127
-123
-163
-208
-218
-200
-212
-294
-399
-423
-340
-256
-320
-546
-778
-844
-745
-639
-633
-644
-503
-175
169
329
299
265
399
668
903
978
919
836
792
753
653
456
169
-181
-542
-833
-979
-971
-869
-754
-654
-545
-402
-247
-145
-153
-271
-446
-602
-683
-675
-602
-485
-328
-130
98
315
476
544
506
382
214
54
-73
-177
-295
-439
-552
-553
-398
-136
122
288
361
411
482
541
512
375
200
81
37
3
-88
-225
-343
-411
-461
-535
-628
-714
-786
-865
-951
-1003
-1003
-993
-1036
-1136
-1220
-1217
-1147
-1094
-1107
-1153
-1154
-1077
-965
-884
-870
-896
-905
-854
-751
-648
-598
-614
-666
-696
-670
-598
-527
-505
-533
-558
-524
-433
-348
-336
-401
-478
-518
-537
-592
-700
-813
-879
-905
-944
-1028
-1127
-1183
-1174
-1127
-1076
-1033
-984
-925
-873
-853
-879
-937
-995
-1023
-1024
-1029
-1052
-1068
-1032
-939
-833
-759
-721
-694
-675
-689
-753
-838
-901
-931
-961
-1016
-1083
-1134
-1155
-1161
-1169
-1182
-1195
-1206
-1215
-1214
-1185
-1122
-1045
-986
-968
-993
-1020
-989
-865
-671
-469
-303
-160
-12
137
243
266
224
170
160
211
299
374
398
396
452
641
925
1163
1223
1110
941
807
694
530
290
22
-215
-401
-524
-560
-486
-321
-140
-3
87
176
299
454
603
699
712
655
586
570
635
748
846
870
809
695
584
504
444
372
285
215
192
203
207
186
172
200
257
294
280
232
187
159
138
114
78
22
-60
-149
-214
-245
-265
-307
-364
-402
-407
-404
-415
-428
-411
-372
-353
-380
-417
-400
-321
-246
-239
-290
-327
-298
-222
-161
-152
-175
-181
-139
-57
30
96
143
191
265
359
453
528
580
619
653
688
719
736
735
726
729
751
767
756
736
757
837
937
994
1000
1019
1103
1226
1309
1326
1328
1362
1393
1336
1170
981
870
835
781
646
482
407
468
590
655
613
503
398
346
343
359
362
336
306
319
403
534
649
706
723
757
843
958
1059
1130
1197
1297
1431
1556
1609
1584
1534
1529
1584
1647
1661
1636
1648
1754
1920
2046
2069
2027
2015
2057
2071
1953
1714
1510
1506
1707
1959
2098
2112
2119
2220
2383
2492
2481
2381
2262
2136
1983
1806
1642
1520
1411
1264
1076
903
788
716
652
591
555
540
505
427
343
305
299
249
112
-52
-154
-182
-196
-222
-208
-99
64
179
190
152
152
202
245
233
195
185
217
269
305
311
287
249
221
225
253
253
189
90
43
114
264
380
377
278
194
198
252
255
153
3
-91
-77
10
95
140
150
142
134
153
224
339
449
524
601
757
1014
1301
1513
1611
1646
1684
1725
1723
1650
1545
1480
1480
1508
1498
1431
1349
1317
1357
1420
1429
1368
1288
1247
1240
1218
1153
1080
1044
1046
1045
1023
1014
1058
1131
1168
1145
1115
1135
1179
1165
1052
911
843
853
846
751
621
565
600
625
556
432
372
404
427
352
229
193
302
469
576
617
688
866
1113
1330
1463
1526
1565
1591
1598
1586
1570
1575
1621
1710
1823
1939
2040
2123
2182
2202
2178
2114
2035
1960
1898
1842
1785
1708
1609
1513
1452
1438
1460
1499
1551
1621
1711
1818
1947
2120
2332
2528
2635
2626
2542
2431
2301
2119
1875
1606
1361
1150
946
761
649
663
774
880
913
908
962
1112
1284
1370
1338
1250
1176
1136
1121
1124
1146
1157
1124
1062
1027
1033
1012
909
786
783
945
1171
1306
1307
1263
1277
1352
1414
1389
1259
1060
854
699
616
582
579
631
747
856
851
716
584
586
681
683
491
231
124
246
456
579
618
684
803
873
806
655
557
543
517
401
267
235
306
359
324
268
247
206
61
-108
-122
48
201
195
191
452
942
1289
1241
1012
999
1246
1390
1162
747
506
486
426
231
175
464
859
904
517
166
312
845
1213
1077
675
462
602
861
947
819
623
442
250
52
-33
59
166
25
-383
-743
-712
-330
-17
-115
-511
-794
-723
-493
-462
-731
-1067
-1195
-1069
-851
-702
-658
-696
-761
-751
-569
-217
143
333
300
197
241
475
737
819
677
468
412
583
833
942
831
618
478
466
503
477
361
254
279
489
818
1121
1295
1374
1495
1733
2004
2130
2021
1760
1506
1347
1247
1121
923
672
403
156
-15
-79
-61
-24
-5
19
84
208
349
442
462
442
422
405
382
356
360
412
472
445
310
181
208
393
554
519
326
212
341
612
754
631
375
232
298
447
501
417
301
262
304
357
357
329
332
387
449
459
406
359
401
526
637
650
575
493
472
495
517
509
469
397
296
209
181
204
214
167
105
102
175
244
252
241
289
409
510
517
469
493
637
791
803
659
533
611
874
1110
1145
1034
960
1020
1133
1173
1119
1034
965
913
922
1074
1344
1543
1490
1260
1137
1282
1514
1506
1189
822
697
822
949
905
769
724
798
862
820
745
814
1072
1357
1453
1316
1144
1177
1426
1625
1506
1113
810
939
1455
1963
2085
1835
1568
1609
1932
2192
2093
1670
1263
1167
1352
1531
1498
1347
1321
1487
1644
1587
1378
1268
1374
1536
1529
1376
1328
1532
1850
1997
1847
1541
1331
1377
1632
1893
1952
1755
1483
1428
1693
2058
2161
1839
1287
840
657
624
519
237
-145
-447
-527
-377
-119
87
166
162
151
179
268
430
641
792
791
686
660
827
1107
1311
1372
1393
1450
1457
1353
1236
1249
1368
1379
1194
1022
1127
1451
1678
1640
1561
1719
2014
2051
1694
1323
1411
1903
2231
1994
1470
1303
1764
2459
2803
2663
2398
2360
2520
2632
2584
2512
2534
2569
2450
2190
1949
1852
1838
1732
1470
1146
895
764
715
686
672
711
834
1006
1126
1130
1072
1050
1087
1096
1006
886
877
974
1016
917
835
992
1345
1560
1388
973
693
730
887
883
675
480
489
690
941
1132
1223
1215
1155
1128
1190
1295
1330
1261
1191
1251
1440
1617
1669
1602
1503
1457
1476
1516
1528
1488
1423
1409
1508
1695
1874
1964
1955
1895
1813
1719
1639
1622
1672
1713
1650
1496
1397
1460
1638
1767
1736
1581
1420
1350
1395
1517
1637
1675
1602
1475
1404
1439
1502
1476
1337
1205
1198
1320
1436
1423
1286
1128
1072
1153
1322
1505
1648
1750
1838
1965
2149
2376
2567
2600
2418
2083
1765
1625
1652
1654
1442
1038
648
464
481
539
513
392
224
41
-112
-134
52
372
603
576
356
175
190
328
407
323
135
-33
-114
-119
-99
-71
-40
-31
-87
-208
-296
-219
19
226
204
-19
-179
-67
216
348
173
-116
-221
-94
41
-12
-159
-167
18
199
161
-64
-256
-265
-166
-111
-158
-252
-326
-356
-315
-180
-2
91
14
-161
-259
-221
-162
-216
-343
-397
-334
-262
-275
-293
-170
82
281
312
293
417
676
834
695
331
-7
-145
-157
-219
-391
-570
-633
-554
-386
-194
-14
106
100
-31
-182
-235
-201
-230
-429
-714
-880
-802
-561
-347
-273
-282
-263
-167
-56
-40
-171
-384
-570
-671
-729
-821
-944
-1005
-929
-748
-570
-457
-371
-261
-153
-103
-97
-67
16
95
106
66
51
93
127
93
15
-28
-6
55
112
167
230
302
356
376
349
281
193
133
128
153
149
83
-14
-73
-68
-48
-90
-198
-293
-290
-186
-76
-25
25
212
582
979
1188
1160
1065
1080
1162
1107
810
395
76
-85
-186
-304
-374
-292
-96
70
131
179
336
574
729
697
553
437
396
361
268
168
178
333
518
589
517
417
415
525
642
628
448
209
80
152
362
555
636
646
700
843
1000
1066
998
840
657
483
334
231
161
80
-37
-157
-222
-219
-222
-295
-434
-591
-727
-835
-925
-997
-1059
-1130
-1194
-1202
-1147
-1112
-1185
-1327
-1379
-1262
-1109
-1147
-1420
-1704
-1751
-1543
-1297
-1189
-1183
-1120
-930
-699
-550
-508
-515
-534
-586
-692
-818
-893
-882
-817
-744
-706
-709
-742
-787
-821
-821
-788
-763
-789
-861
-917
-890
-780
-665
-630
-680
-747
-797
-853
-945
-1045
-1087
-1063
-1046
-1094
-1161
-1149
-1043
-954
-965
-1007
-920
-673
-430
-377
-508
-644
-659
-624
-679
-831
-954
-956
-900
-886
-884
-755
-442
-84
109
67
-64
-82
56
213
209
12
-217
-289
-177
-29
11
-44
-72
-18
32
-30
-172
-264
-233
-155
-130
-151
-122
9
185
327
427
555
752
990
1188
1269
1218
1089
970
911
873
772
580
352
171
64
-9
-95
-198
-286
-340
-347
-318
-275
-244
-210
-128
27
211
343
403
476
665
969
1272
1468
1562
1653
1802
1959
2014
1927
1782
1694
1676
1633
1482
1269
1136
1172
1329
1480
1542
1520
1469
1426
1391
1360
1312
1211
1026
780
558
444
446
475
426
291
154
116
175
233
192
88
32
84
177
203
144
95
143
269
378
398
336
239
143
94
136
261
403
486
515
563
668
781
833
840
865
909
888
743
554
475
550
664
672
565
467
487
604
725
789
804
790
757
732
772
899
1049
1126
1095
1016
997
1088
1240
1386
1504
1612
1716
1793
1816
1795
1769
1740
1655
1463
1201
999
966
1085
1221
1269
1272
1376
1645
1964
2133
2062
1840
1636
1528
1461
1353
1176
969
776
638
595
666
796
881
861
785
752
798
860
848
747
618
524
470
413
310
162
11
-94
-160
-244
-363
-427
-304
5
315
431
372
354
529
796
928
843
687
647
740
837
825
710
563
432
341
284
235
163
60
-34
-66
-19
79
188
293
386
462
535
640
784
918
984
998
1044
1158
1269
1277
1178
1083
1093
1188
1262
1265
1260
1333
1488
1647
1731
1736
1722
1763
1872
2003
2092
2095
2019
1911
1812
1709
1555
1345
1131
999
971
984
957
888
846
879
928
882
704
482
342
306
283
199
100
95
208
346
406
403
424
499
545
488
367
309
373
481
523
495
478
525
599
641
643
645
668
677
657
646
686
759
805
809
823
895
999
1069
1086
1104
1147
1165
1095
966
892
954
1107
1220
1220
1148
1102
1120
1162
1164
1105
998
867
738
641
611
642
685
687
648
624
649
681
638
502
337
213
128
18
-130
-236
-212
-83
31
53
34
85
228
397
517
596
679
769
821
821
819
868
957
1035
1066
1055
1025
988
942
896
855
825
824
892
1045
1228
1360
1423
1504
1686
1949
2167
2249
2268
2384
2683
3068
3354
3442
3406
3371
3365
3281
3010
2563
2079
1694
1452
1325
1273
1282
1340
1452
1620
1795
1870
1733
1401
1071
943
991
961
680
281
100
291
626
738
582
492
727
1120
1253
969
573
501
836
1268
1479
1434
1304
1236
1260
1344
1424
1325
901
242
-268
-300
47
324
213
-129
-279
-55
291
380
138
-196
-367
-382
-453
-672
-888
-891
-671
-454
-471
-700
-899
-880
-722
-655
-758
-855
-714
-322
87
266
188
46
50
214
388
444
414
403
440
451
410
416
596
896
1091
1011
761
619
736
956
973
657
202
-67
6
290
520
534
395
265
243
301
345
316
221
93
-41
-159
-244
-295
-328
-353
-365
-376
-412
-484
-537
-505
-399
-323
-351
-408
-361
-211
-108
-176
-316
-334
-184
-46
-84
-217
-196
100
508
758
752
628
573
638
737
775
738
668
598
530
462
422
446
563
744
903
956
907
869
941
1087
1158
1059
846
668
613
676
843
1121
1465
1741
1838
1840
1963
2291
2659
2829
2769
2659
2638
2631
2484
2226
2052
2046
2043
1826
1432
1152
1193
1423
1531
1384
1165
1153
1400
1717
1880
1847
1721
1605
1532
1492
1484
1495
1470
1365
1222
1158
1238
1393
1494
1491
1458
1478
1522
1488
1332
1156
1066
1041
974
835
734
789
943
1002
876
713
730
948
1139
1087
850
707
820
1030
1046
782
477
424
638
843
806
574
395
417
543
594
533
462
477
579
720
856
950
960
913
918
1068
1306
1431
1340
1160
1106
1246
1447
1558
1575
1568
1565
1549
1549
1639
1772
1778
1563
1279
1194
1350
1470
1285
923
789
1077
1495
1582
1270
952
1011
1358
1573
1386
973
688
673
762
758
648
524
409
253
60
-71
-60
13
-12
-215
-483
-624
-546
-327
-132
-55
-48
-10
99
243
366
447
485
470
405
336
366
543
773
933
1003
1108
1340
1614
1730
1623
1453
1461
1665
1824
1720
1444
1335
1574
1973
2155
1962
1572
1247
1057
880
625
374
252
312
550
974
1605
2389
3196
3953
4665
5343
5892
6205
6288
6228
6068
5779
5377
4996
4756
4618
4460
4266
4185
4311
4502
4538
4381
4226
4217
4259
4149
3836
3498
3301
3214
3091
2865
2625
2485
2437
2387
2272
2121
2001
1930
1885
1835
1792
1788
1833
1900
1934
1897
1816
1771
1825
1972
2119
2168
2097
2001
2012
2172
2374
2453
2366
2243
2237
2342
2390
2270
2076
1992
2055
2100
1972
1741
1637
1766
1967
1989
1774
1498
1355
1359
1383
1331
1231
1159
1143
1151
1147
1130
1110
1081
1036
985
947
930
925
925
937
971
1021
1068
1100
1119
1134
1133
1083
971
835
723
648
562
424
270
188
219
293
297
192
66
42
142
260
286
206
118
110
172
228
226
185
151
130
90
21
-33
-24
31
59
24
-16
30
176
330
391
357
326
378
483
550
547
534
584
678
717
644
518
458
502
569
567
496
446
492
615
748
840
881
889
885
879
863
815
732
642
583
549
507
442
408
481
685
964
1215
1364
1395
1361
1346
1421
1580
1723
1735
1600
1414
1303
1306
1342
1271
1011
603
193
-66
-135
-106
-118
-209
-282
-208
32
331
549
628
604
552
518
507
491
445
379
338
362
414
419
356
281
258
283
312
336
379
445
465
394
279
223
249
260
154
-32
-168
-188
-155
-165
-225
-279
-306
-360
-476
-612
-703
-749
-807
-891
-939
-900
-820
-797
-859
-917
-897
-850
-889
-1042
-1205
-1262
-1218
-1177
-1210
-1256
-1213
-1070
-931
-892
-923
-912
-808
-679
-625
-646
-632
-504
-324
-247
-333
-475
-514
-427
-344
-373
-458
-456
-326
-191
-189
-311
-428
-464
-477
-560
-710
-830
-860
-832
-813
-807
-765
-658
-520
-406
-339
-296
-246
-194
-167
-168
-190
-216
-235
-240
-241
-277
-395
-582
-734
-726
-539
-294
-133
-60
48
274
544
713
739
718
742
791
783
717
684
746
851
909
918
955
1058
1172
1225
1219
1218
1246
1245
1164
1039
945
908
858
711
473
223
26
-128
-292
-468
-588
-584
-462
-289
-135
-14
109
266
466
692
921
1114
1220
1212
1114
1000
917
830
644
317
-75
-383
-511
-498
-451
-434
-428
-398
-362
-353
-356
-310
-205
-134
-217
-456
-702
-802
-745
-667
-708
-878
-1071
-1187
-1208
-1185
-1159
-1137
-1103
-1064
-1049
-1069
-1104
-1133
-1162
-1219
-1316
-1415
-1472
-1481
-1481
-1509
-1566
-1633
-1707
-1805
-1930
-2044
-2104
-2110
-2108
-2139
-2212
-2309
-2418
-2534
-2642
-2732
-2818
-2927
-3057
-3161
-3202
-3198
-3200
-3229
-3243
-3208
-3148
-3118
-3122
-3099
-2994
-2824
-2654
-2512
-2360
-2156
-1908
-1664
-1454
-1274
-1122
-1016
-965
-944
-917
-885
-891
-953
-1036
-1079
-1061
-1017
-984
-972
-967
-963
-964
-961
-935
-886
-842
-829
-837
-834
-810
-806
-865
-975
-1080
-1141
-1179
-1236
-1321
-1395
-1417
-1392
-1360
-1353
-1357
-1333
-1258
-1145
-1031
-937
-854
-763
-668
-597
-584
-624
-675
-707
-727
-760
-805
-827
-806
-763
-738
-726
-692
-626
-575
-585
-618
-585
-454
-311
-294
-412
-525
-486
-311
-173
-193
-307
-352
-275
-207
-317
-601
-869
-935
-802
-642
-595
-643
-645
-483
-156
232
569
802
944
1038
1119
1177
1180
1105
959
782
609
468
379
360
420
524
612
644
649
691
778
844
802
652
483
385
351
306
227
188
268
430
534
483
328
202
182
233
271
263
233
197
141
57
-24
-57
-43
-34
-68
-118
-122
-73
-26
-41
-115
-196
-252
-305
-384
-474
-536
-577
-657
-800
-933
-949
-834
-709
-698
-789
-842
-748
-555
-391
-328
-318
-280
-201
-115
-30
82
223
343
401
434
518
670
818
882
867
849
884
946
979
963
933
921
919
896
840
757
668
575
474
368
270
181
91
-14
-123
-225
-319
-429
-577
-753
-909
-1003
-1039
-1054
-1075
-1093
-1086
-1046
-996
-963
-956
-968
-992
-1025
-1043
-1011
-901
-743
-606
-548
-545
-509
-391
-242
-161
-173
-199
-154
-48
30
42
61
178
367
496
476
368
318
398
550
665
697
685
682
717
791
875
921
883
774
665
624
655
713
769
849
979
1139
1293
1452
1668
1945
2193
2312
2314
2304
2363
2461
2514
2495
2454
2415
2331
2147
1891
1639
1409
1143
812
501
347
375
466
487
432
410
481
576
570
431
254
159
172
231
271
289
319
381
463
534
576
573
522
442
375
362
404
463
504
514
507
490
456
403
339
267
189
116
84
114
170
189
141
75
49
64
60
-2
-88
-131
-118
-96
-107
-127
-104
-29
46
65
35
-2
-20
-34
-68
-126
-186
-221
-225
-214
-212
-229
-245
-233
-197
-183
-231
-312
-343
-273
-140
-37
-24
-66
-69
28
202
354
386
285
138
36
-8
-60
-173
-310
-383
-366
-328
-350
-411
-405
-277
-108
-33
-98
-201
-202
-59
136
260
277
259
307
444
585
639
591
524
504
525
534
523
529
579
632
625
554
484
450
440
432
431
473
569
708
884
1075
1221
1250
1170
1074
1048
1068
1036
933
865
944
1146
1347
1460
1502
1533
1569
1584
1572
1574
1601
1633
1635
1594
1529
1493
1551
1711
1878
1934
1881
1881
2085
2413
2620
2560
2379
2328
2432
2430
2099
1565
1161
1039
984
704
225
-149
-215
-129
-201
-485
-722
-682
-476
-399
-557
-714
-594
-230
83
107
-87
-249
-228
-88
23
16
-109
-318
-532
-650
-607
-495
-491
-682
-942
-1078
-1064
-1062
-1230
-1478
-1545
-1319
-964
-744
-710
-660
-417
-53
178
118
-159
-472
-695
-793
-795
-793
-929
-1241
-1506
-1382
-808
-199
-77
-492
-923
-863
-418
-189
-540
-1179
-1502
-1278
-840
-630
-716
-808
-691
-465
-348
-412
-549
-658
-743
-824
-840
-716
-491
-289
-175
-67
119
328
404
289
90
-51
-119
-216
-381
-505
-467
-290
-138
-129
-214
-232
-85
183
421
488
368
186
89
104
119
29
-119
-177
-94
19
52
65
216
517
760
773
624
537
614
746
775
688
594
574
630
731
845
919
902
821
776
845
988
1082
1054
949
870
878
966
1075
1129
1073
937
835
883
1059
1200
1186
1075
1031
1113
1207
1170
1027
927
951
986
883
663
554
731
1119
1465
1614
1677
1863
2216
2549
2656
2531
2361
2305
2324
2250
1989
1626
1331
1203
1197
1196
1146
1075
1039
1054
1078
1080
1070
1065
1041
946
796
711
775
928
1001
924
853
1027
1472
1900
1992
1733
1429
1371
1540
1653
1501
1157
884
853
1009
1150
1119
928
715
598
601
639
626
555
476
427
388
334
296
316
388
442
411
323
269
291
351
376
330
240
127
-2
-136
-226
-245
-242
-294
-416
-504
-440
-236
-44
21
2
38
177
344
438
468
488
498
450
346
267
283
370
458
516
574
662
760
812
781
674
559
520
584
678
678
549
387
315
345
375
334
232
116
22
1
94
273
376
252
-60
-330
-397
-341
-376
-565
-744
-727
-492
-180
72
224
303
354
427
545
643
636
523
451
582
879
1147
1241
1231
1313
1562
1831
1932
1883
1868
1987
2124
2115
1975
1883
1965
2145
2252
2245
2239
2358
2615
2927
3196
3326
3263
3082
2985
3128
3436
3648
3603
3419
3346
3495
3777
4045
4238
4336
4331
4293
4355
4568
4805
4864
4683
4383
4065
3713
3312
2967
2797
2710
2477
2058
1695
1634
1807
1915
1795
1584
1514
1619
1715
1669
1537
1465
1520
1630
1683
1623
1510
1460
1510
1551
1421
1121
861
841
1015
1137
1074
958
984
1142
1235
1155
1015
966
986
949
832
756
795
863
836
740
720
832
956
952
819
683
642
666
678
651
621
621
645
663
656
608
527
456
435
470
515
527
520
538
581
586
501
371
315
404
577
698
674
562
495
557
691
749
655
492
420
519
682
744
665
566
580
705
822
835
771
700
657
633
621
640
675
679
639
616
677
807
898
867
742
631
606
630
614
513
366
258
237
286
355
413
462
518
563
572
547
517
515
541
566
570
562
563
598
681
788
860
851
779
719
730
781
784
709
614
548
483
367
228
165
206
244
166
-5
-119
-68
86
185
135
-18
-148
-152
-39
87
119
97
206
579
1095
1438
1429
1234
1192
1420
1688
1692
1404
1068
903
891
882
780
590
338
45
-204
-307
-255
-187
-243
-386
-443
-328
-136
-19
3
28
103
136
30
-151
-222
-120
13
-1
-158
-271
-208
-52
25
-18
-61
-8
80
83
3
-34
23
74
0
-174
-311
-352
-372
-471
-615
-689
-668
-667
-773
-909
-913
-773
-671
-760
-971
-1090
-1047
-1022
-1210
-1565
-1830
-1827
-1634
-1488
-1515
-1644
-1730
-1703
-1599
-1488
-1431
-1458
-1524
-1519
-1373
-1140
-965
-925
-943
-890
-742
-601
-547
-540
-469
-301
-128
-60
-115
-191
-176
-52
76
95
-13
-167
-267
-290
-291
-326
-384
-411
-394
-370
-387
-465
-567
-623
-570
-412
-242
-173
-236
-331
-321
-175
-7
42
-39
-129
-104
43
201
255
184
68
12
71
208
321
335
281
264
342
456
500
456
424
485
597
649
632
687
934
1293
1540
1549
1425
1361
1408
1418
1231
859
475
232
141
108
55
-25
-86
-98
-79
-92
-180
-325
-463
-541
-584
-646
-712
-670
-435
-77
217
340
391
561
906
1255
1372
1198
885
627
481
338
65
-355
-805
-1133
-1262
-1232
-1154
-1115
-1117
-1110
-1051
-954
-870
-841
-873
-947
-1039
-1112
-1145
-1140
-1123
-1109
-1094
-1066
-1037
-1035
-1075
-1141
-1207
-1261
-1299
-1313
-1313
-1325
-1365
-1433
-1496
-1546
-1613
-1723
-1855
-1950
-1991
-2036
-2159
-2370
-2612
-2823
-2989
-3136
-3289
-3445
-3579
-3648
-3617
-3477
-3275
-3090
-2960
-2849
-2708
-2546
-2414
-2340
-2288
-2211
-2109
-2022
-1958
-1873
-1724
-1538
-1377
-1277
-1210
-1125
-999
-853
-725
-621
-525
-434
-364
-325
-309
-300
-296
-316
-373
-450
-525
-592
-659
-710
-705
-635
-554
-521
-514
-441
-255
-35
79
38
-53
-67
21
119
145
110
90
138
242
357
448
511
559
609
671
733
768
776
785
825
896
968
1023
1067
1118
1166
1186
1172
1152
1149
1148
1105
1006
887
794
736
687
619
526
427
349
326
365
421
423
356
302
374
566
742
780
711
687
792
947
1023
992
938
927
933
915
905
996
1239
1570
1886
2136
2347
2571
2841
3141
3416
3600
3656
3605
3514
3436
3362
3232
3001
2685
2333
2000
1737
1585
1556
1608
1678
1733
1798
1907
2043
2145
2171
2123
2029
1907
1784
1705
1706
1756
1788
1773
1753
1771
1788
1716
1541
1373
1324
1381
1433
1409
1353
1349
1400
1425
1366
1253
1147
1053
942
813
712
675
684
684
646
592
560
547
514
430
321
244
228
242
246
230
223
243
265
247
183
104
34
-23
-70
-96
-87
-54
-24
-1
33
83
113
85
28
10
77
202
320
404
496
650
864
1078
1234
1318
1364
1402
1432
1433
1396
1334
1269
1211
1150
1081
1012
951
895
832
746
637
512
391
297
240
212
186
143
92
53
38
34
18
-19
-61
-80
-64
-26
19
76
179
336
485
533
471
407
449
580
663
610
498
468
547
618
578
467
402
415
421
346
239
215
299
400
427
403
427
547
698
774
749
708
744
860
967
1012
1053
1198
1468
1767
1973
2083
2204
2427
2709
2923
2988
2940
2878
2868
2910
2976
3030
3036
2973
2861
2746
2655
2556
2382
2114
1829
1629
1560
1571
1577
1544
1498
1475
1478
1479
1454
1396
1316
1244
1218
1261
1355
1441
1466
1430
1387
1373
1351
1253
1060
839
675
593
548
501
466
484
541
572
529
458
452
542
658
711
690
669
719
830
932
973
967
954
958
967
966
959
960
972
986
994
1015
1062
1121
1153
1121
1036
943
868
792
675
524
395
345
375
433
474
495
526
580
633
646
600
524
462
432
417
388
352
344
378
418
408
333
237
177
148
100
-7
-150
-273
-336
-328
-270
-194
-125
-63
23
155
316
459
557
629
702
772
817
845
881
923
943
939
974
1099
1250
1291
1176
1018
964
1017
1026
896
719
679
829
1042
1165
1194
1235
1354
1488
1545
1506
1412
1317
1251
1236
1272
1309
1305
1320
1447
1700
1949
2031
1947
1873
1920
2016
2017
1888
1737
1668
1663
1663
1669
1714
1764
1714
1519
1272
1154
1261
1547
1889
2186
2404
2572
2753
2973
3192
3301
3197
2886
2480
2131
1930
1841
1770
1676
1605
1626
1703
1682
1471
1175
1023
1101
1241
1195
944
751
880
1263
1534
1397
937
552
543
803
958
789
465
323
453
600
490
168
-63
-35
96
87
-87
-206
-124
44
43
-228
-612
-873
-902
-779
-716
-910
-1338
-1706
-1696
-1303
-922
-970
-1423
-1852
-1908
-1680
-1515
-1594
-1779
-1876
-1877
-1848
-1756
-1522
-1227
-1075
-1110
-1086
-731
-130
318
363
194
214
567
1002
1191
1093
948
956
1074
1143
1107
1048
1009
943
796
633
594
728
920
1010
954
826
718
683
743
892
1069
1151
1051
845
715
775
955
1070
982
710
421
277
339
525
691
740
693
664
758
977
1215
1344
1305
1157
1033
1032
1134
1201
1126
960
887
1016
1250
1383
1326
1208
1250
1489
1744
1817
1692
1517
1435
1446
1468
1468
1475
1483
1448
1347
1248
1256
1384
1536
1607
1595
1574
1572
1557
1504
1467
1492
1541
