-18
-103
-173
-221
-257
-290
-334
-393
-453
-494
-513
-526
-559
-622
-700
-773
-842
-922
-1032
-1165
-1294
-1395
-1465
-1525
-1600
-1691
-1776
-1833
-1856
-1858
-1854
-1851
-1845
-1822
-1772
-1697
-1611
-1524
-1441
-1355
-1262
-1176
-1105
-1036
-941
-821
-708
-637
-594
-521
-378
-182
-12
76
82
61
64
98
141
175
222
328
508
709
833
824
733
668
676
690
607
413
215
131
185
301
401
471
543
617
660
650
617
611
636
647
631
651
768
963
1131
1204
1247
1363
1548
1678
1669
1599
1616
1731
1783
1645
1412
1292
1360
1468
1460
1396
1492
1848
2270
2439
2237
1860
1596
1520
1441
1158
714
351
248
353
515
697
978
1345
1587
1512
1197
934
890
924
782
441
162
186
492
854
1101
1252
1431
1719
2076
2396
2575
2572
2435
2266
2129
1970
1689
1269
829
515
359
279
204
151
175
259
298
209
21
-150
-244
-307
-432
-642
-860
-976
-938
-786
-616
-525
-564
-703
-836
-856
-759
-666
-707
-878
-1024
-998
-822
-648
-584
-583
-534
-418
-346
-423
-623
-826
-953
-1044
-1177
-1366
-1544
-1629
-1593
-1477
-1372
-1362
-1455
-1568
-1611
-1607
-1674
-1849
-1984
-1887
-1573
-1301
-1304
-1535
-1743
-1784
-1736
-1715
-1660
-1437
-1089
-861
-915
-1113
-1174
-1031
-922
-1104
-1543
-1929
-1966
-1625
-1106
-640
-331
-136
48
291
552
715
690
519
351
311
397
541
709
916
1145
1299
1283
1112
903
772
736
729
694
628
556
476
374
245
119
33
2
23
81
155
236
337
481
681
917
1136
1294
1389
1455
1533
1629
1720
1791
1847
1905
1968
2033
2100
2177
2259
2319
2335
2310
2278
2263
2258
2237
2197
2158
2132
2106
2062
2011
1985
1997
2025
2041
2047
2076
2150
2244
2282
2203
2018
1806
1624
1455
1231
938
675
576
678
882
1058
1165
1283
1508
1866
2275
2608
2764
2732
2593
2434
2268
2041
1707
1298
893
516
133
-254
-571
-765
-903
-1126
-1492
-1901
-2217
-2419
-2624
-2933
-3316
-3661
-3892
-4026
-4120
-4202
-4256
-4256
-4194
-4079
-3934
-3787
-3646
-3486
-3278
-3034
-2810
-2650
-2533
-2402
-2239
-2076
-1935
-1802
-1643
-1478
-1377
-1367
-1389
-1356
-1255
-1157
-1126
-1142
-1134
-1073
-983
-902
-838
-794
-787
-820
-852
-825
-729
-628
-585
-584
-563
-497
-436
-442
-505
-539
-481
-340
-167
9
210
461
726
921
983
922
799
654
485
294
128
28
-19
-73
-129
-113
31
224
310
251
195
308
545
690
628
498
521
727
914
897
729
602
594
604
503
298
107
11
-1
42
137
285
456
603
719
837
981
1124
1232
1299
1349
1395
1439
1487
1560
1664
1760
1784
1724
1641
1595
1576
1515
1393
1290
1313
1475
1681
1851
2004
2202
2412
2519
2479
2414
2486
2696
2856
2801
2589
2450
2539
2768
2917
2876
2731
2651
2701
2789
2796
2693
2534
2374
2189
1942
1673
1497
1503
1639
1755
1753
1701
1790
2155
2744
3358
3820
4089
4247
4375
4483
4514
4412
4154
3764
3315
2906
2619
2470
2417
2404
2412
2446
2489
2503
2465
2382
2276
2158
2026
1905
1842
1828
1791
1677
1527
1427
1382
1293
1060
715
394
187
49
-108
-297
-450
-531
-592
-687
-780
-772
-629
-440
-313
-272
-242
-127
109
416
699
876
927
903
860
778
547
87
-558
-1255
-1942
-2687
-3554
-4437
-5110
-5457
-5590
-5716
-5900
-6006
-5875
-5518
-5108
-4804
-4621
-4460
-4238
-3952
-3647
-3368
-3134
-2955
-2830
-2734
-2624
-2473
-2308
-2192
-2158
-2164
-2123
-2000
-1847
-1728
-1639
-1520
-1350
-1189
-1110
-1107
-1115
-1100
-1103
-1167
-1249
-1261
-1187
-1117
-1133
-1198
-1186
-1032
-807
-626
-511
-386
-190
45
228
320
370
436
511
551
539
506
480
447
382
296
219
140
18
-150
-302
-392
-447
-517
-578
-535
-367
-186
-122
-149
-115
54
254
328
261
191
233
369
521
673
841
974
980
858
747
774
894
930
778
512
260
48
-180
-434
-621
-672
-639
-618
-590
-435
-99
339
773
1205
1713
2272
2713
2901
2894
2850
2825
2720
2458
2120
1857
1714
1607
1471
1349
1293
1254
1138
949
800
777
823
825
769
756
854
994
1036
932
771
662
616
560
454
350
354
527
813
1090
1259
1282
1199
1085
992
913
822
728
705
816
1010
1124
1027
788
634
703
855
799
421
-56
-300
-253
-174
-330
-681
-961
-1021
-1014
-1173
-1511
-1812
-1907
-1879
-1947
-2186
-2455
-2569
-2499
-2383
-2360
-2448
-2552
-2565
-2468
-2323
-2225
-2223
-2293
-2379
-2451
-2514
-2567
-2569
-2464
-2245
-1974
-1735
-1580
-1480
-1354
-1142
-883
-693
-654
-707
-696
-530
-278
-62
110
352
719
1080
1212
1026
672
387
284
305
316
255
157
105
174
379
650
858
901
792
640
547
545
611
710
819
902
914
853
775
739
739
711
610
464
337
258
202
147
104
81
38
-76
-247
-370
-337
-145
98
264
317
341
430
579
684
668
584
559
637
698
586
314
75
4
-2
-168
-563
-1002
-1254
-1286
-1269
-1329
-1387
-1269
-915
-411
121
631
1100
1462
1640
1628
1516
1370
1149
762
222
-302
-628
-741
-796
-939
-1134
-1223
-1129
-970
-897
-910
-893
-823
-847
-1092
-1446
-1640
-1536
-1277
-1108
-1083
-1037
-803
-398
35
357
499
428
153
-226
-563
-784
-967
-1233
-1593
-1921
-2092
-2080
-1929
-1651
-1231
-725
-252
74
246
372
528
708
842
856
738
553
409
395
515
665
692
467
-48
-771
-1499
-2013
-2216
-2176
-2052
-1867
-1483
-819
-70
358
169
-614
-1762
-3050
-4278
-5122
-5161
-4211
-2570
-790
835
2438
4120
5598
6264
5791
4480
2957
1619
439
-702
-1711
-2324
-2391
-2074
-1711
-1522
-1412
-1132
-602
-89
81
-78
-195
-55
54
-345
-1224
-1894
-1763
-1013
-285
215
919
2129
3327
3571
2523
827
-665
-1855
-3220
-4896
-6329
-6850
-6397
-5472
-4554
-3826
-3419
-3599
-4372
-5183
-5341
-4813
-4316
-4453
-4893
-4660
-3299
-1525
-548
-878
-1949
-2852
-3234
-3355
-3529
-3743
-3785
-3497
-2848
-1899
-861
-96
67
-383
-1096
-1733
-2317
-3091
-4132
-5215
-6040
-6551
-6963
-7557
-8478
-9721
-11189
-12706
-14032
-14958
-15467
-15742
-15999
-16275
-16405
-16230
-15825
-15461
-15350
-15477
-15616
-15496
-14981
-14078
-12841
-11327
-9576
-7639
-5600
-3584
-1746
-225
937
1827
2538
3046
3264
3268
3384
3917
4770
5433
5506
5182
5094
5598
6316
6501
5841
4762
3923
3539
3343
3073
2803
2779
3052
3439
3763
4010
4208
4235
3957
3407
2775
2200
1667
1141
739
646
852
1114
1176
1035
899
931
1096
1234
1241
1084
754
293
-136
-310
-158
146
354
410
490
767
1207
1633
1890
1914
1677
1173
511
-45
-241
-73
210
371
430
596
1023
1625
2145
2386
2346
2161
1948
1730
1482
1214
975
794
641
479
314
150
-84
-493
-1075
-1659
-2044
-2204
-2289
-2404
-2431
-2165
-1587
-946
-506
-275
-58
249
498
461
143
-187
-263
-88
112
171
158
246
498
817
1082
1277
1451
1597
1648
1590
1507
1518
1625
1733
1768
1787
1893
2094
2283
2374
2414
2502
2622
2639
2476
2252
2181
2302
2404
2236
1803
1355
1124
1070
945
586
90
-260
-243
129
611
908
900
735
704
936
1233
1245
830
251
-40
187
723
1138
1193
1014
897
976
1115
1059
622
-237
-1406
-2616
-3468
-3633
-3136
-2402
-1859
-1536
-1080
-227
815
1529
1565
1028
285
-374
-867
-1228
-1497
-1715
-1927
-2127
-2235
-2199
-2089
-2067
-2244
-2590
-2967
-3260
-3429
-3469
-3357
-3077
-2676
-2295
-2170
-2427
-2885
-3096
-2712
-1912
-1301
-1241
-1341
-816
527
1855
2126
1307
484
652
1557
1992
1189
-353
-1530
-1799
-1527
-1314
-1350
-1517
-1792
-2237
-2698
-2862
-2673
-2521
-2811
-3422
-3800
-3558
-2879
-2229
-1888
-1806
-1798
-1768
-1681
-1491
-1202
-921
-776
-799
-872
-839
-639
-314
17
218
211
10
-248
-378
-269
19
277
304
60
-282
-487
-469
-364
-392
-596
-754
-577
-4
713
1236
1448
1511
1628
1795
1841
1671
1411
1280
1349
1499
1590
1617
1669
1798
1941
2007
1963
1815
1588
1349
1214
1251
1387
1459
1394
1296
1296
1379
1434
1443
1518
1720
1904
1855
1550
1221
1113
1232
1368
1355
1264
1311
1609
2036
2321
2276
1951
1575
1340
1222
1040
705
376
342
737
1364
1879
2164
2449
2993
3703
4164
4093
3689
3405
3386
3344
3119
3154
4041
5575
6631
6231
4700
3389
3141
3381
2896
1398
-86
-393
575
1970
3067
3824
4423
4701
4300
3238
2025
1087
330
-590
-1682
-2516
-2627
-1989
-986
-69
506
672
413
-285
-1366
-2645
-3838
-4596
-4651
-4022
-2998
-1889
-772
438
1659
2530
2703
2188
1322
378
-578
-1424
-1779
-1331
-385
224
-77
-1027
-1867
-2268
-2679
-3708
-5304
-6763
-7397
-7107
-6279
-5318
-4425
-3692
-3232
-3132
-3358
-3760
-4193
-4574
-4861
-5028
-5043
-4883
-4547
-4134
-3877
-3992
-4459
-4973
-5178
-4989
-4645
-4388
-4154
-3690
-2988
-2474
-2602
-3288
-3922
-4020
-3785
-3855
-4502
-5289
-5583
-5256
-4752
-4488
-4424
-4244
-3822
-3329
-2964
-2724
-2538
-2448
-2524
-2710
-2795
-2631
-2270
-1889
-1630
-1515
-1430
-1221
-844
-452
-201
-18
311
793
1092
876
266
-255
-376
-269
-246
-352
-442
-534
-804
-1183
-1308
-1057
-924
-1553
-2875
-4023
-4292
-3919
-3750
-4242
-4997
-5351
-5118
-4666
-4425
-4509
-4776
-5099
-5424
-5711
-5902
-5969
-5894
-5615
-5132
-4608
-4277
-4168
-4026
-3572
-2855
-2275
-2193
-2543
-2931
-3078
-3066
-3072
-3001
-2563
-1755
-1056
-974
-1463
-1932
-1948
-1748
-1959
-2829
-3909
-4508
-4374
-3858
-3463
-3382
-3461
-3499
-3463
-3423
-3421
-3430
-3438
-3490
-3611
-3751
-3812
-3723
-3526
-3365
-3363
-3531
-3786
-4030
-4222
-4354
-4402
-4329
-4130
-3888
-3730
-3721
-3830
-3975
-4113
-4245
-4377
-4493
-4583
-4663
-4752
-4829
-4834
-4734
-4571
-4436
-4401
-4457
-4529
-4539
-4477
-4395
-4363
-4370
-4331
-4176
-3921
-3675
-3540
-3500
-3462
-3380
-3309
-3336
-3460
-3579
-3562
-3370
-3079
-2798
-2579
-2400
-2214
-2011
-1815
-1654
-1543
-1507
-1576
-1742
-1930
-2032
-2001
-1873
-1708
-1519
-1286
-1024
-800
-645
-536
-451
-436
-554
-780
-991
-1090
-1112
-1163
-1274
-1369
-1392
-1403
-1505
-1699
-1863
-1900
-1847
-1804
-1803
-1759
-1598
-1355
-1153
-1060
-1032
-982
-885
-803
-826
-957
-1102
-1159
-1120
-1062
-1060
-1106
-1132
-1098
-1024
-943
-854
-762
-700
-716
-774
-767
-649
-533
-580
-791
-974
-963
-837
-847
-1109
-1459
-1650
-1643
-1629
-1798
-2129
-2445
-2618
-2666
-2677
-2691
-2706
-2721
-2734
-2719
-2609
-2360
-1980
-1527
-1063
-637
-285
-26
140
198
115
-122
-464
-794
-1000
-1071
-1077
-1080
-1053
-926
-694
-464
-367
-424
-529
-572
-565
-619
-802
-1030
-1151
-1118
-1048
-1094
-1293
-1549
-1731
-1767
-1647
-1408
-1139
-954
-897
-883
-772
-554
-423
-610
-1120
-1678
-1966
-1914
-1711
-1570
-1506
-1392
-1138
-793
-459
-177
50
207
262
220
148
113
106
69
-20
-110
-133
-78
13
105
203
321
447
543
593
616
646
689
721
714
670
616
576
547
516
477
436
387
326
273
284
413
635
850
960
967
969
1037
1119
1088
867
508
139
-142
-339
-525
-763
-1050
-1337
-1600
-1851
-2087
-2236
-2208
-2006
-1787
-1733
-1864
-2000
-1959
-1769
-1633
-1686
-1831
-1872
-1749
-1584
-1500
-1478
-1414
-1286
-1187
-1209
-1320
-1407
-1422
-1440
-1571
-1835
-2147
-2417
-2649
-2925
-3297
-3700
-3991
-4082
-4026
-3951
-3892
-3759
-3467
-3062
-2713
-2554
-2584
-2682
-2727
-2674
-2553
-2434
-2370
-2358
-2327
-2214
-2049
-1936
-1933
-1980
-1965
-1883
-1840
-1913
-2032
-2066
-1990
-1926
-1997
-2167
-2259
-2133
-1813
-1432
-1094
-825
-616
-482
-452
-534
-718
-997
-1353
-1728
-2031
-2192
-2206
-2122
-1985
-1815
-1627
-1459
-1352
-1309
-1301
-1305
-1315
-1331
-1332
-1291
-1194
-1052
-902
-799
-779
-817
-825
-722
-515
-294
-124
34
262
550
769
812
716
605
545
488
386
278
248
316
402
419
363
297
259
222
136
-16
-199
-363
-465
-486
-465
-482
-596
-774
-923
-1010
-1128
-1406
-1827
-2183
-2248
-2015
-1723
-1626
-1748
-1895
-1882
-1733
-1610
-1628
-1754
-1899
-2026
-2131
-2188
-2148
-2020
-1890
-1848
-1877
-1863
-1723
-1517
-1396
-1430
-1525
-1523
-1379
-1188
-1049
-937
-762
-551
-465
-590
-780
-809
-676
-653
-953
-1430
-1715
-1627
-1377
-1267
-1330
-1339
-1135
-811
-565
-458
-411
-392
-457
-617
-736
-670
-450
-265
-247
-346
-408
-338
-155
75
292
451
548
614
682
731
702
587
478
470
555
630
661
755
1018
1385
1647
1668
1546
1487
1546
1577
1409
1050
684
474
437
469
476
440
390
341
271
157
-10
-202
-394
-578
-745
-847
-799
-567
-257
-52
-13
26
320
899
1486
1747
1625
1400
1381
1574
1705
1539
1120
697
449
326
175
-58
-280
-391
-408
-449
-576
-704
-690
-514
-338
-341
-526
-688
-633
-404
-232
-274
-431
-471
-301
-82
-35
-182
-314
-249
-49
49
-63
-227
-191
88
389
484
404
359
449
515
333
-93
-520
-737
-791
-874
-1068
-1247
-1253
-1109
-998
-1066
-1281
-1494
-1614
-1704
-1870
-2104
-2253
-2203
-2016
-1869
-1849
-1871
-1824
-1729
-1698
-1746
-1754
-1639
-1500
-1505
-1642
-1724
-1636
-1484
-1444
-1519
-1557
-1460
-1304
-1182
-1051
-825
-563
-465
-631
-914
-1067
-1015
-913
-927
-1041
-1100
-994
-763
-521
-345
-247
-210
-226
-282
-347
-386
-395
-407
-468
-592
-742
-870
-942
-949
-911
-870
-865
-902
-928
-861
-678
-464
-346
-387
-540
-713
-850
-955
-1044
-1137
-1268
-1426
-1497
-1327
-912
-502
-405
-658
-954
-964
-707
-517
-647
-995
-1231
-1137
-771
-345
-16
186
301
393
508
625
622
336
-306
-1181
-1998
-2457
-2453
-2130
-1746
-1431
-1090
-527
305
1200
1848
2062
1922
1709
1741
2171
2855
3435
3641
3555
3530
3768
4044
3935
3291
2411
1744
1460
1399
1396
1470
1696
2025
2285
2365
2289
2123
1869
1495
1067
736
583
570
622
730
921
1146
1230
1010
509
-42
-415
-599
-774
-1060
-1337
-1320
-837
-9
855
1496
1886
2180
2480
2695
2638
2234
1641
1110
733
402
2
-394
-625
-695
-862
-1363
-2118
-2787
-3168
-3392
-3705
-4159
-4576
-4762
-4785
-4899
-5272
-5799
-6232
-6452
-6593
-6846
-7203
-7417
-7302
-7057
-7160
-7874
-8871
-9471
-9300
-8657
-8138
-7960
-7755
-7035
-5765
-4391
-3369
-2784
-2441
-2173
-1963
-1856
-1795
-1634
-1275
-779
-320
-39
21
-45
-160
-463
-1260
-2657
-4287
-5456
-5662
-4993
-3983
-3083
-2307
-1388
-182
1130
2198
2752
2733
2276
1622
1014
588
357
300
444
825
1388
1981
2482
2902
3282
3546
3540
3226
2761
2378
2196
2161
2134
2015
1796
1547
1378
1374
1488
1571
1493
1289
1104
1006
896
662
356
169
210
367
448
388
288
227
156
-6
-228
-433
-676
-1131
-1818
-2446
-2651
-2386
-1973
-1694
-1431
-854
81
942
1258
1048
818
1008
1546
2011
2169
2217
2510
3122
3774
4129
4087
3788
3379
2878
2258
1583
1006
629
416
270
148
77
55
14
-110
-286
-437
-556
-724
-964
-1167
-1185
-1027
-868
-857
-971
-1078
-1117
-1139
-1192
-1218
-1148
-1045
-1067
-1282
-1571
-1752
-1779
-1764
-1810
-1906
-1987
-2024
-2004
-1893
-1686
-1484
-1445
-1621
-1890
-2112
-2315
-2587
-2861
-2880
-2490
-1865
-1348
-1055
-753
-197
516
1017
1062
776
460
276
175
87
56
163
401
692
1003
1382
1850
2330
2698
2898
2995
3098
3260
3434
3531
3516
3455
3432
3463
3492
3472
3419
3386
3402
3432
3437
3407
3324
3149
2869
2566
2390
2420
2568
2644
2539
2321
2135
2050
2002
1874
1620
1287
984
816
814
920
1009
982
848
716
663
652
569
366
107
-104
-219
-263
-267
-244
-206
-179
-175
-151
-59
67
123
48
-78
-111
-6
123
120
-23
-164
-177
-86
-24
-55
-123
-157
-159
-168
-143
-1
219
315
141
-192
-407
-398
-361
-565
-1025
-1479
-1672
-1568
-1287
-936
-588
-322
-181
-46
275
794
1242
1334
1100
864
873
1043
1122
1027
904
893
945
926
838
817
948
1142
1245
1231
1226
1349
1579
1783
1863
1843
1819
1843
1880
1870
1816
1774
1758
1705
1536
1275
1051
975
1036
1142
1240
1335
1456
1624
1805
1929
1963
1963
2028
2157
2215
2105
1964
2069
2447
2729
2520
1933
1520
1598
1799
1507
679
8
146
960
1705
1907
1817
1966
2474
2983
3144
2990
2765
2583
2391
2191
2155
2430
2872
3155
3099
2845
2716
2879
3162
3228
2926
2460
2166
2179
2327
2345
2151
1877
1678
1565
1456
1309
1185
1153
1184
1190
1120
983
811
610
370
100
-176
-444
-692
-882
-960
-909
-784
-674
-610
-561
-471
-329
-185
-90
-26
88
325
654
952
1108
1133
1147
1231
1345
1380
1304
1209
1205
1287
1358
1357
1328
1356
1447
1518
1498
1410
1336
1333
1382
1411
1373
1288
1221
1232
1314
1392
1392
1302
1181
1095
1060
1045
1023
990
945
873
760
618
473
335
184
3
-188
-331
-371
-291
-121
85
293
527
860
1345
1923
2428
2728
2854
2956
3114
3226
3137
2862
2597
2493
2467
2311
1968
1628
1491
1525
1507
1312
1069
979
1057
1130
1066
928
858
887
913
854
758
715
725
708
619
512
470
506
571
624
656
652
583
443
276
145
67
6
-63
-103
-64
45
138
134
46
-26
-6
76
118
73
11
65
294
631
941
1145
1269
1386
1518
1620
1632
1543
1386
1215
1075
1004
1017
1093
1183
1254
1323
1432
1587
1743
1852
1904
1905
1852
1740
1618
1579
1652
1734
1688
1529
1446
1593
1900
2120
2113
1987
1923
1931
1830
1502
1062
727
557
421
220
36
11
140
259
262
213
228
290
245
10
-306
-527
-596
-608
-670
-773
-824
-758
-589
-364
-144
27
136
241
420
693
997
1264
1515
1825
2211
2573
2793
2864
2887
2953
3064
3171
3249
3311
3363
3408
3463
3547
3628
3613
3424
3072
2643
2207
1775
1357
1001
749
579
429
299
267
371
511
512
309
46
-59
72
334
576
786
1092
1594
2229
2842
3338
3739
4098
4397
4557
4543
4415
4282
4199
4138
4055
3955
3893
3910
3998
4087
4080
3906
3571
3169
2804
2502
2214
1899
1585
1332
1159
1036
955
944
1005
1065
1039
935
850
833
818
716
564
508
622
819
961
1020
1089
1245
1461
1659
1803
1904
1964
1954
1883
1814
1790
1786
1740
1645
1555
1508
1475
1397
1236
988
664
291
-79
-392
-629
-815
-979
-1123
-1227
-1288
-1324
-1356
-1391
-1423
-1436
-1408
-1324
-1196
-1072
-998
-955
-876
-728
-562
-457
-435
-440
-406
-318
-201
-64
107
299
453
520
519
514
511
425
165
-250
-682
-1004
-1220
-1442
-1759
-2133
-2455
-2664
-2804
-2957
-3167
-3409
-3636
-3815
-3937
-3994
-3988
-3924
-3798
-3591
-3295
-2932
-2540
-2140
-1720
-1259
-771
-303
106
449
748
1045
1371
1739
2111
2414
2602
2719
2866
3103
3365
3544
3619
3691
3854
4075
4220
4210
4117
4072
4116
4167
4125
3994
3875
3873
3996
4161
4271
4285
4244
4217
4223
4215
4127
3942
3691
3405
3087
2756
2468
2281
2211
2207
2211
2194
2155
2122
2160
2356
2728
3160
3465
3558
3534
3537
3584
3548
3313
2916
2482
2085
1699
1294
926
677
553
469
345
189
67
-1
-74
-220
-431
-627
-748
-818
-913
-1073
-1238
-1310
-1257
-1149
-1102
-1164
-1275
-1327
-1269
-1163
-1109
-1160
-1274
-1367
-1393
-1379
-1383
-1427
-1477
-1477
-1416
-1352
-1353
-1434
-1539
-1585
-1543
-1469
-1444
-1499
-1597
-1691
-1768
-1831
-1876
-1897
-1917
-1978
-2081
-2162
-2152
-2069
-2018
-2084
-2235
-2356
-2365
-2296
-2232
-2212
-2185
-2079
-1879
-1651
-1488
-1433
-1443
-1434
-1357
-1254
-1216
-1283
-1418
-1521
-1494
-1310
-1012
-683
-379
-87
247
631
998
1266
1429
1556
1683
1745
1673
1529
1468
1544
1623
1538
1311
1144
1179
1330
1411
1372
1330
1392
1524
1643
1766
1967
2210
2329
2220
2021
1978
2141
2314
2305
2165
2111
2245
2436
2503
2440
2385
2418
2480
2503
2543
2710
3005
3306
3514
3648
3776
3902
3959
3902
3751
3547
3311
3071
2886
2803
2785
2732
2607
2521
2626
2921
3178
3144
2800
2388
2156
2114
2061
1834
1509
1329
1441
1800
2255
2696
3102
3517
4005
4627
5380
6163
6834
7345
7789
8290
8841
9274
9400
9179
8753
8321
7986
7683
7267
6674
6014
5493
5220
5094
4893
4477
3906
3345
2902
2527
2126
1668
1212
836
507
118
-361
-840
-1197
-1417
-1624
-1920
-2258
-2515
-2630
-2669
-2714
-2766
-2800
-2854
-3000
-3229
-3434
-3540
-3599
-3710
-3884
-4040
-4133
-4207
-4303
-4371
-4347
-4264
-4241
-4332
-4464
-4544
-4574
-4620
-4700
-4766
-4787
-4807
-4832
-4777
-4560
-4225
-3934
-3791
-3724
-3582
-3313
-3026
-2862
-2838
-2823
-2665
-2329
-1934
-1635
-1485
-1399
-1257
-1055
-904
-889
-970
-1024
-1008
-1004
-1088
-1197
-1193
-1041
-876
-861
-1021
-1239
-1389
-1446
-1452
-1453
-1461
-1487
-1542
-1597
-1596
-1530
-1486
-1559
-1746
-1928
-1989
-1919
-1804
-1712
-1649
-1603
-1589
-1624
-1678
-1706
-1724
-1801
-1955
-2073
-2024
-1807
-1556
-1372
-1196
-892
-448
-18
255
411
624
976
1361
1623
1786
2043
2464
2854
2951
2796
2765
3168
3843
4275
4139
3663
3363
3463
3658
3464
2719
1705
876
510
601
947
1267
1381
1345
1410
1767
2306
2686
2691
2455
2285
2304
2329
2148
1824
1671
1917
2461
2981
3257
3380
3630
4151
4755
5090
4964
4508
4023
3678
3416
3115
2751
2412
2207
2182
2313
2543
2771
2902
2923
2896
2831
2638
2237
1744
1399
1291
1217
893
302
-314
-788
-1208
-1705
-2155
-2223
-1745
-963
-288
131
474
921
1383
1608
1459
1030
518
38
-382
-715
-908
-924
-768
-497
-212
-56
-165
-555
-1059
-1476
-1796
-2234
-2984
-3951
-4728
-4916
-4474
-3759
-3207
-2970
-2823
-2421
-1616
-564
424
1099
1372
1307
1053
790
642
600
509
167
-461
-1146
-1544
-1490
-1128
-757
-543
-409
-204
84
307
335
189
-29
-292
-674
-1190
-1718
-2062
-2120
-1956
-1721
-1535
-1425
-1339
-1209
-1010
-769
-567
-501
-606
-808
-984
-1064
-1080
-1114
-1186
-1221
-1136
-942
-752
-681
-716
-746
-684
-566
-516
-617
-831
-1042
-1159
-1192
-1215
-1293
-1413
-1505
-1512
-1437
-1314
-1149
-922
-630
-304
23
350
685
991
1185
1222
1158
1106
1124
1153
1126
1065
1070
1211
1435
1610
1655
1592
1497
1418
1351
1281
1219
1211
1290
1429
1559
1647
1786
2174
2943
3984
4959
5547
5717
5705
5742
5790
5588
4948
3981
3014
2308
1870
1541
1222
954
793
680
501
240
-3
-87
-42
-59
-280
-611
-781
-620
-265
-18
-16
-113
-147
-238
-714
-1663
-2691
-3257
-3247
-3099
-3279
-3707
-3857
-3371
-2432
-1496
-775
-167
448
995
1370
1628
1868
2009
1857
1421
1023
1001
1303
1571
1563
1397
1364
1590
1914
2090
2013
1765
1514
1378
1343
1269
1008
579
229
235
644
1211
1634
1836
1972
2216
2561
2853
2979
2961
2904
2878
2868
2812
2686
2543
2466
2479
2513
2478
2379
2308
2319
2355
2293
2103
1907
1828
1848
1815
1625
1338
1115
1033
1009
920
745
582
520
537
531
434
273
107
-58
-268
-529
-767
-894
-908
-899
-947
-1043
-1124
-1153
-1149
-1138
-1134
-1151
-1231
-1395
-1590
-1710
-1711
-1653
-1635
-1688
-1773
-1852
-1932
-2023
-2102
-2135
-2135
-2176
-2326
-2561
-2776
-2877
-2867
-2840
-2900
-3061
-3245
-3355
-3377
-3380
-3428
-3510
-3565
-3558
-3522
-3526
-3591
-3688
-3789
-3905
-4055
-4217
-4324
-4316
-4204
-4039
-3849
-3630
-3367
-3067
-2759
-2489
-2334
-2376
-2630
-2976
-3240
-3341
-3354
-3400
-3449
-3303
-2812
-2060
-1317
-777
-415
-103
169
265
80
-305
-668
-842
-815
-669
-466
-190
195
688
1221
1703
2043
2202
2240
2283
2427
2669
2909
3045
3054
2976
2851
2674
2428
2127
1818
1545
1323
1146
990
838
686
549
443
358
250
69
-183
-431
-575
-563
-441
-324
-300
-340
-337
-232
-94
-42
-98
-147
-63
149
357
455
478
519
598
637
572
463
429
512
647
758
852
988
1172
1326
1386
1366
1321
1263
1168
1030
875
737
624
549
550
645
758
774
678
592
638
781
862
792
670
669
827
1017
1109
1116
1139
1238
1353
1389
1339
1286
1303
1374
1419
1389
1331
1340
1449
1590
1658
1616
1523
1479
1510
1559
1564
1508
1424
1345
1293
1270
1266
1251
1188
1066
934
861
872
923
942
910
880
909
983
1034
1019
965
945
983
1036
1048
1021
1016
1070
1148
1184
1152
1082
1014
938
822
663
520
467
522
642
751
820
893
1063
1396
1860
2331
2670
2832
2889
2944
3018
3033
2899
2609
2247
1917
1667
1479
1328
1211
1135
1087
1037
965
884
828
805
781
705
566
418
331
326
361
392
414
442
468
456
396
337
334
383
413
359
221
60
-60
-114
-111
-84
-95
-200
-391
-572
-643
-596
-530
-538
-604
-636
-584
-490
-424
-394
-365
-338
-374
-503
-661
-751
-759
-771
-864
-1012
-1116
-1126
-1076
-1017
-947
-832
-691
-603
-622
-696
-703
-595
-467
-466
-637
-852
-920
-749
-425
-127
39
105
183
345
560
739
828
841
847
909
1064
1306
1596
1871
2092
2266
2429
2576
2650
2597
2448
2308
2257
2262
2239
2170
2147
2275
2536
2789
2900
2862
2777
2726
2699
2645
2547
2431
2340
2290
2279
2305
2369
2481
2653
2860
3037
3100
3028
2880
2708
2496
2186
1777
1361
1013
724
472
308
324
499
663
659
493
283
90
-156
-524
-948
-1293
-1485
-1538
-1454
-1198
-775
-316
10
140
151
128
60
-135
-468
-873
-1245
-1505
-1606
-1528
-1319
-1075
-854
-640
-376
-44
302
605
850
1018
1049
888
604
350
214
123
-67
-399
-750
-951
-945
-802
-622
-458
-306
-127
137
517
987
1459
1864
2181
2437
2650
2819
2945
3037
3063
2982
2819
2703
2763
2979
3187
3247
3178
3106
3094
3060
2862
2454
1928
1422
1007
662
335
14
-262
-458
-577
-659
-728
-784
-817
-839
-881
-941
-976
-949
-875
-806
-782
-780
-760
-715
-686
-720
-815
-930
-1012
-1039
-1040
-1059
-1110
-1157
-1154
-1091
-1007
-947
-919
-899
-879
-867
-869
-866
-850
-849
-895
-969
-1010
-992
-958
-963
-1007
-1039
-1031
-1013
-1030
-1072
-1090
-1068
-1032
-999
-944
-833
-695
-615
-659
-792
-917
-956
-914
-848
-803
-768
-702
-594
-489
-456
-526
-666
-819
-960
-1109
-1275
-1410
-1432
-1324
-1164
-1052
-1013
-990
-935
-888
-931
-1082
-1243
-1276
-1146
-942
-772
-651
-491
-227
94
351
473
519
599
769
997
1236
1485
1758
2027
2223
2306
2324
2357
2430
2489
2458
2326
2162
2048
2007
1989
1927
1800
1654
1567
1609
1802
2105
2451
2792
3132
3520
4006
4569
5107
5487
5642
5613
5483
5296
5037
4684
4255
3808
3418
3143
2990
2892
2737
2459
2119
1861
1751
1689
1509
1163
787
564
531
573
565
506
465
464
447
338
133
-109
-328
-491
-599
-683
-796
-962
-1141
-1262
-1299
-1331
-1457
-1681
-1905
-2038
-2098
-2172
-2308
-2468
-2578
-2611
-2621
-2671
-2769
-2856
-2863
-2785
-2697
-2684
-2759
-2843
-2859
-2810
-2767
-2766
-2762
-2700
-2601
-2540
-2549
-2558
-2477
-2302
-2128
-2010
-1904
-1733
-1494
-1258
-1077
-927
-774
-643
-599
-659
-727
-685
-516
-317
-198
-168
-146
-70
48
158
231
239
147
-43
-228
-269
-126
65
135
73
37
163
384
495
401
221
120
135
184
208
252
367
518
631
712
848
1091
1348
1491
1519
1569
1745
1998
2182
2241
2280
2435
2702
2936
3006
2941
2902
3011
3218
3374
3410
3395
3428
3513
3566
3554
3523
3516
3476
3286
2916
2491
2156
1916
1643
1255
867
697
835
1150
1428
1589
1737
1992
2303
2484
2438
2264
2162
2222
2365
2494
2651
2939
3354
3759
4052
4289
4587
4970
5338
5596
5755
5857
5860
5665
5255
4736
4215
3696
3115
2467
1875
1492
1382
1506
1750
2000
2177
2253
2233
2132
1952
1690
1371
1054
796
624
558
628
813
1015
1100
1027
898
851
891
893
751
502
281
171
114
11
-166
-362
-520
-638
-749
-881
-1046
-1258
-1501
-1712
-1845
-1924
-2024
-2162
-2243
-2176
-2024
-1951
-2028
-2153
-2211
-2251
-2443
-2817
-3199
-3411
-3486
-3587
-3744
-3801
-3629
-3343
-3194
-3266
-3398
-3401
-3321
-3336
-3477
-3564
-3459
-3271
-3204
-3274
-3286
-3128
-2948
-2962
-3165
-3366
-3448
-3504
-3606
-3613
-3360
-2958
-2717
-2714
-2632
-2145
-1409
-952
-1066
-1456
-1612
-1406
-1164
-1191
-1400
-1478
-1268
-899
-573
-350
-191
-83
-53
-97
-165
-206
-185
-87
44
122
117
123
278
553
713
560
197
-57
-45
56
13
-100
24
468
876
864
548
461
891
1474
1559
952
104
-437
-564
-566
-711
-1027
-1435
-1854
-2105
-1883
-1019
209
1222
1675
1772
1988
2533
3149
3412
3148
2544
1935
1538
1381
1380
1460
1588
1755
1923
2046
2169
2428
2926
3583
4158
4474
4582
4668
4840
5005
4982
4678
4151
3531
2908
2326
1839
1513
1404
1501
1715
1939
2123
2265
2348
2306
2093
1747
1358
985
632
340
262
557
1188
1900
2461
2875
3309
3833
4270
4362
4035
3447
2817
2257
1800
1479
1350
1414
1599
1835
2069
2232
2244
2098
1881
1698
1539
1290
901
461
107
-94
-175
-202
-220
-230
-209
-139
-33
47
31
-74
-249
-576
-1208
-2123
-2944
-3188
-2710
-1905
-1314
-1064
-789
-88
996
2022
2553
2496
2071
1583
1231
1077
1057
1047
964
838
769
810
884
868
730
540
365
194
-12
-191
-144
311
1100
1867
2265
2252
2101
2061
2111
2002
1575
923
259
-274
-621
-737
-589
-251
87
246
191
22
-160
-303
-391
-435
-527
-793
-1222
-1579
-1612
-1354
-1137
-1222
-1478
-1504
-1109
-528
-143
-59
-58
32
85
-156
-720
-1335
-1707
-1810
-1847
-1964
-2094
-2078
-1874
-1614
-1471
-1512
-1669
-1824
-1928
-2011
-2128
-2258
-2307
-2200
-1986
-1823
-1838
-2001
-2164
-2205
-2125
-1989
-1828
-1613
-1318
-968
-593
-175
348
991
1663
2230
2600
2757
2731
2572
2360
2183
2075
1978
1806
1569
1394
1400
1557
1708
1708
1549
1333
1177
1121
1148
1215
1276
1305
1323
1388
1523
1661
1683
1521
1206
809
366
-122
-631
-1076
-1371
-1508
-1572
-1652
-1763
-1829
-1765
-1546
-1246
-979
-808
-683
-515
-288
-102
-71
-189
-326
-366
-345
-409
-659
-1049
-1445
-1766
-2037
-2321
-2639
-2959
-3233
-3437
-3585
-3715
-3857
-4003
-4127
-4223
-4324
-4436
-4496
-4417
-4201
-3966
-3823
-3763
-3649
-3363
-2920
-2433
-1998
-1638
-1319
-993
-611
-144
379
875
1258
1519
1719
1922
2139
2338
2506
2676
2900
3196
3538
3874
4160
4381
4546
4671
4750
4774
4748
4703
4660
4622
4591
4569
4567
4572
4562
4529
4481
4417
4327
4213
4113
4059
4027
3954
3813
3665
3589
3573
3500
3278
2954
2683
2565
2532
2440
2242
2055
2019
2122
2213
2164
2005
1860
1781
1695
1526
1309
1147
1079
1021
890
728
658
723
802
714
408
6
-319
-495
-601
-763
-1030
-1321
-1510
-1544
-1489
-1463
-1507
-1557
-1513
-1361
-1177
-1041
-970
-915
-843
-777
-781
-915
-1183
-1515
-1807
-2010
-2167
-2360
-2604
-2802
-2838
-2714
-2560
-2501
-2528
-2534
-2448
-2332
-2303
-2391
-2526
-2614
-2632
-2615
-2590
-2550
-2483
-2404
-2344
-2301
-2238
-2136
-2044
-2029
-2084
-2118
-2043
-1869
-1693
-1567
-1442
-1262
-1070
-974
-1002
-1040
-955
-757
-573
-469
-369
-161
149
451
671
834
974
1058
1028
916
855
934
1105
1236
1262
1259
1354
1594
1883
2068
2071
1964
1882
1884
1886
1761
1498
1244
1168
1298
1494
1595
1575
1557
1684
1969
2263
2371
2232
1987
1863
1968
2209
2391
2418
2362
2373
2516
2736
2907
2946
2861
2732
2659
2683
2763
2809
2762
2637
2508
2424
2366
2269
2090
1832
1553
1315
1134
976
798
599
417
289
215
182
173
170
158
139
138
168
198
184
141
140
217
309
315
226
143
143
183
165
85
55
158
344
498
569
607
665
727
737
661
506
302
96
-43
-72
-30
-4
-46
-127
-203
-289
-430
-619
-781
-863
-882
-890
-898
-864
-753
-558
-285
46
373
603
693
703
741
832
878
761
470
119
-161
-332
-450
-587
-760
-919
-1002
-996
-953
-947
-1012
-1116
-1205
-1265
-1323
-1403
-1475
-1485
-1412
-1294
-1206
-1195
-1255
-1344
-1417
-1456
-1465
-1464
-1484
-1552
-1669
-1801
-1893
-1912
-1866
-1779
-1652
-1473
-1257
-1036
-819
-565
-239
116
396
545
629
765
1001
1274
1500
1670
1841
2042
2234
2366
2448
2534
2642
2727
2726
2655
2616
2709
2939
3199
3362
3385
3335
3317
3381
3490
3571
3575
3514
3441
3397
3387
3414
3492
3641
3840
3999
4008
3856
3662
3577
3616
3630
3473
3190
2989
3026
3240
3449
3566
3672
3874
4108
4186
4006
3670
3379
3208
3035
2708
2254
1882
1766
1864
1958
1876
1648
1442
1353
1319
1217
993
698
394
86
-252
-606
-906
-1097
-1201
-1294
-1431
-1601
-1759
-1875
-1967
-2085
-2242
-2426
-2633
-2868
-3117
-3301
-3344
-3279
-3252
-3373
-3587
-3734
-3744
-3710
-3744
-3810
-3770
-3598
-3412
-3312
-3222
-3005
-2691
-2487
-2542
-2780
-2984
-3017
-2901
-2725
-2544
-2370
-2214
-2061
-1883
-1694
-1562
-1538
-1542
-1433
-1204
-1026
-1056
-1227
-1316
-1222
-1095
-1163
-1473
-1849
-2089
-2143
-2076
-1946
-1758
-1532
-1308
-1096
-829
-433
47
460
683
730
727
775
877
965
986
950
909
914
998
1148
1307
1407
1453
1518
1654
1804
1849
1741
1571
1461
1427
1392
1309
1230
1216
1220
1136
932
694
507
319
19
-401
-786
-994
-1067
-1182
-1437
-1733
-1895
-1884
-1839
-1898
-2052
-2175
-2198
-2187
-2224
-2274
-2219
-2030
-1868
-1943
-2281
-2674
-2883
-2870
-2811
-2873
-3027
-3082
-2891
-2514
-2144
-1928
-1872
-1902
-1968
-2073
-2219
-2364
-2452
-2486
-2518
-2579
-2611
-2526
-2321
-2089
-1936
-1856
-1749
-1545
-1297
-1126
-1096
-1168
-1272
-1380
-1494
-1586
-1602
-1515
-1367
-1225
-1120
-1029
-941
-885
-900
-989
-1112
-1203
-1211
-1109
-914
-671
-434
-248
-135
-90
-90
-104
-114
-122
-141
-146
-78
106
384
687
962
1191
1368
1485
1563
1661
1826
2020
2153
2202
2252
2396
2575
2623
2458
2214
2128
2288
2540
2646
2528
2324
2213
2215
2192
2022
1745
1519
1462
1555
1702
1848
2015
2254
2599
3054
3589
4115
4503
4679
4690
4643
4581
4418
4066
3568
3082
2727
2477
2232
1946
1681
1523
1481
1472
1413
1289
1150
1051
968
831
610
365
196
136
110
16
-166
-368
-528
-652
-798
-996
-1225
-1448
-1647
-1816
-1948
-2049
-2159
-2310
-2493
-2671
-2833
-3006
-3219
-3445
-3628
-3755
-3875
-4030
-4183
-4252
-4202
-4094
-4038
-4072
-4132
-4120
-3994
-3804
-3647
-3573
-3540
-3466
-3312
-3122
-2972
-2894
-2858
-2828
-2800
-2783
-2759
-2691
-2583
-2489
-2478
-2568
-2682
-2725
-2664
-2566
-2532
-2586
-2636
-2577
-2414
-2263
-2215
-2226
-2174
-2033
-1922
-1939
-2013
-1985
-1811
-1644
-1658
-1820
-1918
-1796
-1539
-1363
-1377
-1479
-1476
-1329
-1182
-1183
-1301
-1349
-1200
-913
-671
-583
-573
-489
-290
-71
64
112
152
231
331
453
660
984
1350
1620
1744
1806
1915
2070
2167
2145
2061
1992
1958
1952
2009
2179
2401
2496
2360
2098
1925
1933
1998
1928
1670
1350
1128
1060
1117
1254
1406
1490
1471
1409
1406
1487
1554
1480
1272
1082
1035
1105
1178
1208
1288
1518
1871
2204
2449
2719
3172
3813
4436
4817
4932
4940
4978
5009
4879
4497
3938
3362
2887
2523
2230
1975
1742
1531
1345
1191
1079
1016
988
955
887
783
671
606
629
723
805
793
672
502
344
237
199
256
394
522
530
427
363
451
591
536
187
-244
-443
-375
-343
-623
-1157
-1627
-1853
-1973
-2252
-2755
-3330
-3811
-4173
-4469
-4723
-4926
-5126
-5389
-5700
-5945
-6036
-6019
-6032
-6130
-6235
-6213
-5996
-5630
-5221
-4835
-4462
-4056
-3616
-3219
-2941
-2751
-2526
-2189
-1825
-1608
-1611
-1718
-1768
-1765
-1863
-2133
-2417
-2461
-2200
-1847
-1682
-1757
-1866
-1774
-1477
-1199
-1138
-1274
-1414
-1406
-1301
-1265
-1407
-1685
-1960
-2103
-2068
-1876
-1587
-1276
-986
-695
-345
71
441
589
430
51
-366
-726
-1063
-1426
-1747
-1881
-1782
-1582
-1477
-1537
-1664
-1748
-1797
-1881
-2002
-2058
-1966
-1751
-1462
-1091
-651
-339
-458
-1093
-1878
-2259
-2053
-1665
-1624
-1973
-2178
-1704
-602
539
1200
1377
1433
1627
1887
1987
1824
1497
1146
829
558
379
343
427
528
580
639
833
1221
1692
2096
2420
2801
3345
3957
4396
4531
4497
4541
4700
4713
4284
3446
2575
2004
1666
1225
549
-2
124
1062
2337
3301
3757
4024
4464
5019
5294
5017
4317
3545
2942
2547
2340
2361
2596
2891
3025
2907
2670
2504
2421
2275
1925
1385
827
455
318
263
99
-207
-476
-534
-449
-472
-731
-1024
-1068
-863
-750
-1021
-1526
-1833
-1725
-1450
-1390
-1574
-1674
-1453
-1062
-812
-753
-621
-256
91
-16
-706
-1614
-2255
-2534
-2770
-3256
-3868
-4195
-3987
-3437
-2934
-2644
-2411
-2064
-1690
-1519
-1586
-1658
-1542
-1374
-1425
-1685
-1812
-1535
-1033
-775
-975
-1390
-1707
-2011
-2680
-3789
-4816
-5107
-4569
-3757
-3253
-3052
-2690
-1869
-827
-69
172
84
-32
-84
-181
-419
-728
-967
-1088
-1150
-1224
-1305
-1365
-1371
-1314
-1233
-1183
-1200
-1248
-1222
-1034
-715
-413
-259
-273
-374
-484
-585
-679
-746
-752
-688
-595
-524
-493
-491
-506
-519
-501
-431
-329
-243
-211
-209
-159
-17
169
312
365
338
247
87
-151
-451
-791
-1168
-1587
-1997
-2282
-2331
-2139
-1801
-1410
-988
-493
107
784
1449
1982
2280
2321
2188
1998
1803
1580
1319
1106
1073
1259
1558
1814
1936
1914
1726
1322
707
13
-589
-1045
-1443
-1872
-2295
-2543
-2478
-2182
-1868
-1692
-1692
-1782
-1819
-1658
-1247
-738
-380
-221
14
622
1421
1748
1090
-304
-1600
-2207
-2305
-2489
-2975
-3353
-3132
-2320
-1387
-740
-406
-195
-18
50
-29
-115
1
431
1081
1711
2159
2427
2652
2944
3187
3088
2461
1468
522
-40
-198
-163
-131
-107
11
271
598
875
1052
1185
1336
1508
1650
1747
1842
1999
2231
2493
2736
2975
3264
3610
3934
4122
4122
3993
3854
3775
3733
3663
3548
3450
3436
3515
3627
3684
3642
3520
3369
3213
3024
2780
2517
2321
2229
2176
2035
1763
1456
1256
1212
1249
1254
1191
1090
1001
959
988
1103
1249
1310
1210
1028
928
965
1012
897
628
399
361
447
450
274
27
-137
-211
-319
-562
-901
-1204
-1373
-1398
-1354
-1342
-1416
-1543
-1620
-1584
-1499
-1521
-1752
-2138
-2555
-2912
-3200
-3412
-3512
-3472
-3292
-2974
-2522
-1982
-1449
-1013
-683
-403
-152
3
11
-94
-227
-364
-530
-711
-827
-858
-909
-1101
-1412
-1679
-1773
-1755
-1790
-1947
-2118
-2161
-2059
-1910
-1790
-1677
-1517
-1322
-1149
-1008
-838
-595
-336
-169
-119
-105
-25
125
241
254
226
277
451
659
779
774
718
714
806
942
1015
951
783
625
568
609
678
730
787
874
942
905
771
649
612
592
455
174
-111
-251
-243
-195
-149
-25
243
571
791
846
848
939
1108
1213
1154
983
849
846
951
1073
1141
1143
1098
1043
1004
990
989
984
960
902
815
739
747
899
1174
1440
1554
1477
1305
1173
1125
1074
917
657
415
336
443
629
759
790
791
833
909
937
869
744
641
580
510
391
250
147
85
10
-84
-114
11
249
439
480
467
582
867
1129
1134
864
556
464
620
843
959
991
1065
1201
1267
1133
849
597
477
410
266
55
-73
-5
211
425
531
515
416
274
120
-34
-201
-403
-630
-812
-866
-777
-617
-456
-287
-60
270
705
1200
1680
2058
2284
2410
2553
2772
2975
2996
2777
2436
2154
1998
1872
1658
1355
1072
900
834
813
803
816
857
889
876
836
824
873
937
943
872
788
770
829
906
908
804
649
522
453
383
224
-42
-324
-500
-521
-445
-369
-320
-264
-150
17
192
357
524
698
849
943
984
1010
1064
1160
1289
1443
1601
1725
1774
1750
1689
1631
1602
1615
1672
1737
1751
1690
1623
1671
1879
2120
2185
1999
1725
1619
1771
2010
2081
1903
1636
1480
1486
1542
1533
1446
1326
1187
1033
922
958
1153
1357
1391
1237
1054
984
1002
975
823
613
468
447
509
586
634
630
566
461
348
237
105
-53
-182
-180
7
320
631
843
966
1093
1293
1498
1533
1271
783
289
-44
-251
-477
-781
-1063
-1197
-1164
-1065
-982
-910
-835
-822
-932
-1127
-1297
-1403
-1530
-1764
-2044
-2216
-2221
-2192
-2291
-2477
-2534
-2330
-2006
-1839
-1919
-2045
-1966
-1683
-1433
-1392
-1477
-1462
-1252
-971
-783
-690
-557
-301
22
325
607
918
1226
1394
1338
1120
889
723
567
333
33
-239
-420
-521
-582
-617
-630
-638
-634
-555
-342
-62
106
60
-67
-14
316
721
907
809
654
709
999
1306
1426
1364
1276
1298
1428
1564
1611
1548
1415
1271
1164
1111
1102
1118
1138
1140
1099
1007
880
750
626
482
298
94
-70
-151
-165
-178
-250
-374
-480
-499
-436
-385
-457
-676
-949
-1141
-1187
-1146
-1132
-1205
-1331
-1431
-1455
-1406
-1318
-1229
-1149
-1058
-940
-795
-660
-578
-564
-587
-614
-645
-705
-796
-887
-944
-972
-1010
-1070
-1118
-1134
-1148
-1202
-1293
-1364
-1366
-1317
-1277
-1283
-1309
-1309
-1271
-1223
-1205
-1228
-1273
-1295
-1251
-1133
-979
-834
-709
-583
-446
-345
-329
-379
-408
-360
-282
-277
-369
-455
-417
-240
-25
127
217
322
493
704
883
979
990
958
925
907
896
884
891
944
1047
1174
1300
1439
1602
1746
1789
1698
1549
1442
1372
1237
989
717
544
443
260
-81
-452
-659
-679
-676
-783
-936
-956
-766
-471
-205
3
215
466
700
846
889
845
709
455
91
-322
-691
-973
-1192
-1387
-1560
-1664
-1667
-1617
-1612
-1716
-1890
-2021
-2042
-2004
-2012
-2101
-2192
-2187
-2060
-1881
-1733
-1654
-1642
-1693
-1783
-1851
-1837
-1742
-1654
-1655
-1734
-1801
-1798
-1772
-1821
-1960
-2071
-2043
-1906
-1809
-1855
-1980
-2027
-1953
-1888
-1985
-2217
-2399
-2414
-2359
-2395
-2527
-2597
-2502
-2356
-2364
-2556
-2751
-2797
-2744
-2739
-2816
-2880
-2865
-2815
-2792
-2774
-2714
-2641
-2623
-2634
-2564
-2384
-2222
-2218
-2336
-2409
-2344
-2224
-2190
-2250
-2279
-2170
-1938
-1669
-1405
-1130
-825
-512
-238
-40
110
276
510
773
948
950
820
692
671
729
767
747
742
832
999
1142
1197
1213
1281
1390
1412
1233
911
640
550
574
545
424
347
431
602
663
559
459
537
756
919
913
845
884
1042
1181
1198
1145
1125
1145
1122
1021
914
909
1027
1182
1262
1238
1171
1153
1218
1309
1330
1254
1157
1115
1121
1105
1041
970
914
810
589
304
119
147
328
520
684
913
1290
1761
2195
2529
2796
3033
3209
3268
3207
3086
2943
2767
2548
2306
2081
1874
1644
1364
1055
791
612
492
373
222
56
-89
-200
-301
-421
-555
-662
-712
-707
-677
-648
-632
-625
-612
-580
-533
-520
-602
-784
-998
-1137
-1159
-1136
-1195
-1385
-1624
-1767
-1749
-1618
-1490
-1441
-1469
-1524
-1559
-1564
-1550
-1534
-1539
-1583
-1670
-1768
-1828
-1820
-1763
-1712
-1721
-1785
-1847
-1858
-1817
-1766
-1742
-1729
-1689
-1609
-1506
-1384
-1237
-1066
-902
-751
-556
-259
90
337
349
164
-35
-118
-132
-232
-485
-786
-960
-932
-753
-505
-241
13
213
317
347
365
390
357
208
-23
-231
-352
-429
-540
-688
-818
-927
-1106
-1449
-1891
-2233
-2328
-2217
-2055
-1903
-1642
-1146
-484
94
389
446
459
531
563
414
110
-129
-102
175
504
722
853
1067
1478
1994
2387
2503
2419
2332
2291
2085
1448
416
-592
-1117
-1047
-672
-307
44
609
1527
2649
3626
4157
4145
3703
3064
2444
1915
1403
845
348
135
306
727
1164
1494
1724
1869
1889
1796
1718
1794
1993
2129
2079
1913
1796
1805
1873
1889
1789
1523
1003
167
-893
-1900
-2552
-2726
-2530
-2165
-1704
-1011
92
1550
2988
3910
4060
3591
2916
2385
2058
1757
1291
650
23
-352
-375
-163
22
-34
-340
-732
-1018
-1100
-1006
-833
-706
-741
-967
-1278
-1485
-1498
-1450
-1611
-2097
-2726
-3138
-3163
-3041
-3226
-3930
-4906
-5633
-5789
-5495
-5143
-5015
-5053
-4972
-4559
-3853
-3110
-2639
-2597
-2858
-3094
-3063
-2884
-2935
-3384
-3913
-4036
-3679
-3384
-3727
-4582
-5129
-4705
-3515
-2381
-1802
-1503
-945
-130
367
116
-654
-1396
-1915
-2502
-3362
-4183
-4424
-3986
-3357
-3072
-3153
-3208
-2998
-2709
-2686
-3032
-3539
-3962
-4217
-4360
-4416
-4334
-4068
-3713
-3477
-3525
-3830
-4133
-4136
-3805
-3441
-3397
-3699
-4000
-3944
-3551
-3208
-3266
-3666
-4021
-3993
-3565
-2991
-2543
-2284
-2082
-1731
-1102
-259
512
844
572
-59
-551
-548
-151
229
320
272
482
1151
2065
2798
3092
3006
2785
2631
2579
2544
2422
2199
1985
1924
2055
2257
2353
2297
2226
2261
2335
2269
2016
1783
1837
2193
2541
2541
2159
1689
1414
1337
1215
825
209
-420
-888
-1179
-1353
-1461
-1516
-1550
-1602
-1667
-1691
-1693
-1863
-2451
-3508
-4723
-5580
-5749
-5321
-4677
-4122
-3648
-3043
-2190
-1261
-623
-562
-1053
-1803
-2469
-2887
-3111
-3289
-3492
-3654
-3676
-3511
-3229
-2938
-2701
-2524
-2406
-2348
-2355
-2389
-2376
-2283
-2175
-2196
-2422
-2777
-3081
-3216
-3203
-3131
-3048
-2941
-2798
-2658
-2592
-2643
-2799
-2970
-3002
-2737
-2138
-1359
-646
-123
304
792
1323
1680
1672
1349
955
691
564
464
351
314
447
703
932
1016
979
930
925
909
790
554
289
114
75
112
133
75
-57
-219
-360
-441
-454
-422
-401
-447
-575
-739
-862
-911
-946
-1070
-1325
-1651
-1935
-2122
-2255
-2403
-2571
-2702
-2750
-2741
-2739
-2768
-2798
-2805
-2824
-2911
-3070
-3222
-3295
-3291
-3276
-3307
-3367
-3416
-3452
-3501
-3558
-3584
-3578
-3598
-3700
-3842
-3924
-3888
-3786
-3705
-3660
-3602
-3495
-3372
-3286
-3239
-3197
-3168
-3203
-3325
-3502
-3678
-3845
-4024
-4214
-4372
-4454
-4458
-4401
-4292
-4141
-3980
-3826
-3650
-3392
-3045
-2707
-2497
-2427
-2378
-2253
-2098
-2062
-2233
-2541
-2816
-2921
-2850
-2717
-2653
-2692
-2722
-2628
-2444
-2337
-2374
-2356
-2004
-1337
-780
-731
-1087
-1323
-1091
-620
-430
-720
-1173
-1355
-1156
-754
-313
142
559
786
745
606
633
863
1037
901
506
169
144
415
774
1024
1096
1031
925
849
823
809
765
686
587
476
346
202
84
28
-1
-86
-270
-486
-612
-601
-543
-569
-723
-925
-1080
-1187
-1307
-1450
-1539
-1501
-1362
-1209
-1050
-774
-323
169
472
498
411
446
665
907
1012
991
1000
1151
1419
1697
1918
2082
2200
2270
2280
2236
2153
2046
1925
1787
1618
1427
1237
1075
953
846
723
588
467
364
253
113
-30
-136
-193
-247
-324
-384
-355
-214
-16
169
322
474
653
855
1046
1187
1250
1264
1318
1501
1780
1972
1889
1535
1131
901
844
770
533
182
-100
-188
-107
33
140
176
139
56
-22
-76
-133
-258
-491
-806
-1142
-1443
-1677
-1820
-1852
-1784
-1676
-1608
-1596
-1552
-1347
-924
-376
112
419
568
675
808
915
912
778
569
358
179
55
12
62
171
266
311
336
388
478
562
583
526
421
329
294
330
417
531
658
783
882
934
964
1035
1194
1401
1534
1486
1262
983
775
668
576
417
221
104
150
307
448
497
482
469
456
387
237
57
-80
-162
-239
-352
-485
-589
-646
-685
-752
-881
-1075
-1318
-1575
-1806
-1980
-2090
-2149
-2180
-2208
-2237
-2255
-2258
-2251
-2240
-2219
-2177
-2123
-2076
-2045
-2008
-1952
-1897
-1875
-1872
-1853
-1827
-1864
-2000
-2151
-2166
-2015
-1844
-1807
-1873
-1869
-1707
-1517
-1484
-1594
-1657
-1560
-1424
-1447
-1656
-1864
-1914
-1878
-1954
-2197
-2452
-2548
-2494
-2434
-2446
-2466
-2409
-2321
-2330
-2469
-2619
-2677
-2700
-2849
-3154
-3441
-3496
-3314
-3092
-2980
-2922
-2755
-2425
-2068
-1841
-1772
-1779
-1786
-1779
-1769
-1760
-1747
-1717
-1643
-1486
-1250
-998
-783
-588
-380
-207
-193
-396
-719
-1003
-1196
-1396
-1704
-2101
-2492
-2844
-3209
-3620
-4002
-4250
-4344
-4360
-4353
-4265
-3996
-3519
-2922
-2321
-1766
-1239
-720
-251
89
252
262
208
171
173
174
141
101
127
258
445
582
593
483
314
153
23
-75
-144
-213
-322
-475
-616
-655
-549
-364
-218
-176
-193
-172
-55
123
266
310
266
193
134
90
35
-52
-156
-252
-337
-423
-505
-550
-508
-376
-215
-119
-140
-235
-310
-301
-271
-390
-760
-1285
-1703
-1796
-1609
-1407
-1414
-1589
-1696
-1580
-1347
-1247
-1423
-1789
-2147
-2372
-2461
-2482
-2487
-2497
-2510
-2517
-2509
-2496
-2519
-2619
-2778
-2932
-3031
-3080
-3137
-3242
-3395
-3564
-3729
-3894
-4062
-4233
-4396
-4540
-4651
-4718
-4735
-4717
-4691
-4687
-4727
-4802
-4873
-4882
-4808
-4705
-4656
-4680
-4685
-4561
-4315
-4069
-3926
-3855
-3741
-3529
-3293
-3123
-3020
-2909
-2751
-2581
-2449
-2338
-2199
-2038
-1922
-1893
-1908
-1884
-1802
-1739
-1772
-1894
-2007
-2025
-1945
-1843
-1783
-1755
-1711
-1633
-1548
-1478
-1406
-1318
-1241
-1211
-1217
-1199
-1107
-963
-816
-675
-528
-406
-368
-426
-530
-646
-824
-1126
-1509
-1826
-1966
-1961
-1903
-1823
-1663
-1376
-994
-593
-229
63
242
282
202
55
-140
-406
-756
-1146
-1506
-1810
-2079
-2322
-2518
-2661
-2771
-2867
-2933
-2959
-2981
-3050
-3174
-3296
-3362
-3392
-3434
-3486
-3496
-3457
-3433
-3477
-3554
-3569
-3499
-3434
-3483
-3651
-3845
-3982
-4058
-4126
-4223
-4360
-4532
-4692
-4751
-4649
-4464
-4381
-4514
-4778
-4967
-4968
-4880
-4891
-5078
-5338
-5500
-5482
-5336
-5194
-5167
-5279
-5460
-5606
-5636
-5565
-5488
-5494
-5581
-5655
-5627
-5481
-5289
-5137
-5064
-5041
-5031
-5024
-5020
-4978
-4860
-4708
-4632
-4703
-4841
-4889
-4773
-4596
-4509
-4524
-4516
-4405
-4266
-4226
-4290
-4319
-4206
-4006
-3867
-3845
-3857
-3789
-3611
-3384
-3186
-3073
-3080
-3179
-3267
-3222
-3023
-2789
-2665
-2665
-2668
-2571
-2424
-2367
-2437
-2524
-2521
-2472
-2526
-2719
-2856
-2698
-2262
-1866
-1817
-2077
-2297
-2205
-1928
-1845
-2152
-2652
-2966
-2930
-2726
-2634
-2724
-2834
-2792
-2598
-2398
-2291
-2245
-2166
-2019
-1874
-1813
-1826
-1823
-1724
-1539
-1356
-1243
-1187
-1135
-1070
-1023
-1035
-1123
-1303
-1593
-1944
-2243
-2417
-2513
-2638
-2819
-2956
-2936
-2773
-2572
-2364
-2077
-1680
-1286
-1070
-1072
-1163
-1234
-1335
-1611
-2098
-2649
-3092
-3381
-3596
-3794
-3943
-3995
-3992
-4038
-4172
-4302
-4313
-4229
-4221
-4416
-4728
-4952
-4987
-4949
-5030
-5279
-5553
-5744
-5927
-6224
-6591
-6867
-7011
-7197
-7603
-8143
-8542
-8698
-8829
-9199
-9740
-10101
-10056
-9785
-9627
-9663
-9652
-9408
-9076
-8942
-9046
-9143
-9033
-8837
-8804
-8935
-8933
-8574
-8035
-7722
-7819
-8073
-8104
-7864
-7664
-7789
-8174
-8488
-8499
-8273
-8020
-7825
-7618
-7344
-7068
-6878
-6746
-6582
-6371
-6233
-6260
-6392
-6449
-6326
-6093
-5903
-5830
-5834
-5850
-5873
-5923
-5981
-5990
-5954
-5954
-6045
-6158
-6151
-5975
-5746
-5637
-5695
-5802
-5796
-5638
-5446
-5365
-5421
-5482
-5369
-5030
-4580
-4192
-3945
-3789
-3670
-3609
-3666
-3837
-4022
-4125
-4159
-4203
-4287
-4337
-4242
-3967
-3592
-3270
-3141
-3226
-3392
-3442
-3271
-2948
-2621
-2351
-2088
-1773
-1404
-1014
-607
-211
52
49
-173
-373
-319
-33
228
254
88
-62
-66
25
71
-1
-151
-278
-333
-374
-498
-729
-953
-1017
-903
-775
-804
-945
-956
-672
-205
164
295
310
387
502
438
48
-564
-1109
-1386
-1415
-1349
-1291
-1209
-1018
-720
-437
-289
-299
-408
-560
-749
-965
-1150
-1236
-1232
-1241
-1338
-1497
-1616
-1643
-1647
-1767
-2079
-2501
-2819
-2871
-2689
-2493
-2483
-2633
-2741
-2685
-2562
-2592
-2853
-3192
-3437
-3562
-3666
-3790
-3832
-3653
-3255
-2841
-2677
-2906
-3434
-4005
-4422
-4762
-5328
-6266
-7347
-8162
-8499
-8479
-8276
-7885
-7266
-6594
-6147
-5921
-5566
-4889
-4276
-4363
-5299
-6525
-7344
-7664
-7951
-8569
-9371
-9947
-10130
-10123
-10168
-10318
-10505
-10641
-10630
-10415
-10090
-9890
-9847
-9523
-8332
-6265
-4179
-3054
-2945
-2942
-2228
-1064
-507
-1196
-2591
-3557
-3511
-2842
-2297
-2156
-2152
-1981
-1638
-1302
-1066
-904
-866
-1045
-1408
-1779
-1996
-2084
-2171
-2293
-2396
-2483
-2644
-2920
-3172
-3223
-3078
-2950
-3011
-3216
-3412
-3537
-3657
-3788
-3827
-3734
-3642
-3715
-3888
-3891
-3595
-3215
-3109
-3373
-3760
-3998
-4080
-4193
-4432
-4699
-4897
-5063
-5275
-5485
-5554
-5429
-5226
-5112
-5153
-5282
-5389
-5409
-5324
-5163
-4997
-4896
-4842
-4684
-4298
-3712
-3096
-2572
-2085
-1517
-867
-272
163
499
891
1427
2036
2584
2988
3209
3219
2992
2537
1900
1106
162
-868
-1847
-2650
-3264
-3772
-4244
-4649
-4906
-4980
-4915
-4771
-4561
-4251
-3812
-3311
-2872
-2623
-2628
-2845
-3188
-3612
-4133
-4732
-5274
-5577
-5580
-5392
-5139
-4802
-4288
-3643
-3136
-3029
-3278
-3539
-3497
-3164
-2812
-2633
-2525
-2251
-1726
-1108
-632
-398
-343
-367
-439
-561
-713
-894
-1136
-1492
-1939
-2348
-2616
-2791
-3015
-3359
-3716
-3896
-3823
-3601
-3381
-3204
-2986
-2658
-2264
-1899
-1618
-1408
-1252
-1183
-1230
-1345
-1420
-1386
-1288
-1240
-1293
-1369
-1343
-1177
-982
-902
-996
-1217
-1480
-1742
-1991
-2208
-2382
-2544
-2749
-3008
-3262
-3438
-3536
-3634
-3796
-3994
-4139
-4174
-4115
-3999
-3843
-3655
-3469
-3336
-3261
-3182
-3040
-2860
-2740
-2774
-2938
-3102
-3143
-3062
-2984
-3033
-3210
-3401
-3482
-3428
-3310
-3212
-3176
-3192
-3221
-3208
-3111
-2952
-2818
-2803
-2905
-3011
-2997
-2849
-2663
-2533
-2466
-2412
-2351
-2325
-2366
-2435
-2469
-2457
-2457
-2514
-2594
-2614
-2534
-2388
-2233
-2085
-1929
-1785
-1695
-1665
-1641
-1576
-1500
-1498
-1614
-1782
-1916
-2013
-2144
-2354
-2600
-2799
-2928
-3028
-3112
-3126
-3029
-2871
-2769
-2778
-2815
-2746
-2534
-2270
-2065
-1939
-1835
-1704
-1550
-1393
-1227
-1048
-888
-800
-796
-810
-771
-676
-592
-582
-641
-728
-822
-926
-1026
-1069
-1024
-925
-838
-758
-592
-274
100
308
213
-82
-338
-425
-451
-607
-924
-1225
-1327
-1233
-1110
-1104
-1208
-1322
-1377
-1403
-1454
-1525
-1571
-1550
-1469
-1358
-1214
-1016
-768
-543
-425
-409
-398
-316
-199
-138
-125
-11
322
773
1069
1025
744
508
467
500
370
3
-445
-761
-874
-882
-892
-921
-929
-897
-853
-827
-813
-791
-766
-780
-859
-989
-1119
-1217
-1300
-1407
-1542
-1668
-1738
-1744
-1698
-1603
-1442
-1231
-1048
-973
-1000
-1030
-986
-912
-921
-1037
-1142
-1116
-992
-923
-959
-938
-674
-227
79
-35
-484
-890
-991
-907
-976
-1359
-1851
-2104
-1960
-1557
-1164
-960
-965
-1091
-1220
-1278
-1284
-1345
-1543
-1827
-2041
-2064
-1915
-1700
-1494
-1312
-1160
-1038
-918
-752
-534
-348
-283
-320
-355
-345
-374
-577
-975
-1440
-1800
-1983
-2038
-2056
-2100
-2169
-2234
-2279
-2322
-2391
-2477
-2533
-2529
-2491
-2466
-2441
-2331
-2070
-1687
-1294
-981
-760
-586
-411
-216
-5
180
281
275
219
217
311
428
456
375
289
319
465
614
673
658
661
732
823
855
812
753
750
814
883
879
769
576
361
170
-7
-210
-458
-716
-917
-1036
-1102
-1156
-1204
-1232
-1253
-1312
-1431
-1577
-1703
-1820
-1988
-2209
-2397
-2447
-2360
-2252
-2219
-2243
-2242
-2204
-2223
-2391
-2663
-2894
-2987
-2997
-3031
-3090
-3054
-2829
-2480
-2176
-2023
-2003
-2026
-2065
-2154
-2316
-2514
-2699
-2859
-2985
-3056
-3061
-3039
-3063
-3164
-3303
-3427
-3526
-3631
-3750
-3848
-3891
-3869
-3778
-3614
-3401
-3219
-3144
-3169
-3225
-3254
-3271
-3302
-3319
-3284
-3225
-3231
-3338
-3464
-3518
-3515
-3560
-3696
-3835
-3851
-3718
-3538
-3413
-3342
-3251
-3091
-2905
-2779
-2743
-2723
-2601
-2339
-2036
-1866
-1897
-2022
-2091
-2109
-2236
-2573
-2996
-3256
-3244
-3050
-2757
-2262
-1411
-308
629
1019
877
543
250
-132
-885
-2027
-3202
-4001
-4321
-4355
-4299
-4172
-3896
-3493
-3112
-2889
-2829
-2844
-2887
-2987
-3163
-3376
-3549
-3609
-3530
-3344
-3135
-3008
-3011
-3089
-3126
-3067
-2985
-3002
-3142
-3274
-3251
-3076
-2890
-2810
-2818
-2802
-2698
-2550
-2439
-2388
-2358
-2313
-2247
-2168
-2073
-1965
-1862
-1791
-1767
-1793
-1853
-1923
-1978
-2016
-2070
-2172
-2311
-2434
-2519
-2603
-2748
-2958
-3179
-3350
-3449
-3462
-3372
-3183
-2943
-2729
-2580
-2473
-2379
-2322
-2350
-2471
-2632
-2768
-2842
-2856
-2827
-2779
-2738
-2719
-2715
-2712
-2723
-2789
-2933
-3118
-3284
-3396
-3477
-3569
-3679
-3766
-3784
-3748
-3721
-3759
-3849
-3924
-3937
-3925
-3980
-4153
-4386
-4568
-4647
-4682
-4760
-4891
-4982
-4931
-4724
-4448
-4203
-4012
-3823
-3577
-3287
-3021
-2852
-2789
-2777
-2746
-2662
-2533
-2375
-2187
-1967
-1730
-1515
-1351
-1239
-1164
-1123
-1139
-1243
-1443
-1692
-1901
-1998
-1973
-1879
-1777
-1683
-1564
-1382
-1139
-873
-638
-481
-419
-429
-461
-476
-489
-544
-649
-739
-725
-575
-338
-79
187
490
874
1349
1879
2387
2785
3026
3136
3170
3142
3007
2746
2409
2081
1793
1518
1255
1064
981
946
861
714
605
617
692
686
536
321
163
90
31
-75
-209
-323
-409
-498
-610
-721
-802
-855
-909
-980
-1069
-1187
-1354
-1572
-1797
-1965
-2069
-2148
-2227
-2276
-2260
-2210
-2208
-2292
-2403
-2474
-2527
-2654
-2885
-3139
-3309
-3386
-3464
-3614
-3803
-3933
-3959
-3932
-3938
-4001
-4077
-4104
-4068
-4024
-4034
-4099
-4146
-4107
-4009
-3949
-3985
-4058
-4067
-3970
-3831
-3728
-3661
-3559
-3383
-3189
-3049
-2980
-2931
-2857
-2770
-2718
-2727
-2779
-2838
-2875
-2869
-2814
-2732
-2663
-2637
-2643
-2631
-2556
-2428
-2303
-2225
-2193
-2172
-2123
-2035
-1916
-1777
-1634
-1502
-1378
-1239
-1063
-854
-648
-481
-353
-233
-101
33
146
228
298
389
528
706
877
979
983
927
879
883
917
928
891
831
800
838
941
1055
1107
1040
860
636
443
314
228
154
76
5
-49
-85
-113
-161
-285
-531
-885
-1249
-1510
-1632
-1657
-1604
-1422
-1051
-542
-47
353
751
1304
1998
2620
2967
3068
3126
3263
3402
3401
3238
2999
2745
2464
2174
1980
1953
2013
2014
1915
1825
1841
1911
1907
1799
1678
1619
1585
1501
1379
1310
1332
1370
1307
1114
886
727
661
639
627
641
695
750
768
766
803
884
914
807
590
379
248
168
72
-46
-156
-256
-350
-403
-374
-305
-336
-550
-834
-985
-942
-873
-980
-1259
-1532
-1668
-1719
-1846
-2116
-2451
-2735
-2929
-3086
-3268
-3481
-3669
-3763
-3752
-3704
-3693
-3705
-3643
-3431
-3120
-2837
-2653
-2504
-2280
-1947
-1581
-1285
-1113
-1051
-1062
-1096
-1114
-1108
-1103
-1137
-1201
-1231
-1162
-985
-750
-512
-295
-105
43
124
133
102
75
68
53
-28
-210
-441
-600
-603
-508
-488
-636
-819
-763
-352
198
497
383
84
-54
38
88
-182
-721
-1217
-1446
-1488
-1581
-1838
-2152
-2361
-2412
-2356
-2245
-2087
-1871
-1603
-1304
-998
-734
-562
-504
-533
-618
-769
-1004
-1279
-1504
-1613
-1617
-1587
-1576
-1589
-1601
-1567
-1445
-1216
-912
-578
-197
312
968
1637
2114
2307
2299
2203
2006
1611
1028
437
70
10
172
440
776
1193
1676
2149
2518
2708
2675
2437
2070
1689
1381
1179
1101
1174
1402
1734
2059
2268
2318
2238
2085
1894
1671
1437
1230
1095
1065
1153
1342
1587
1790
1843
1721
1511
1323
1185
1028
800
540
311
126
-26
-92
19
273
474
438
237
136
277
492
477
140
-321
-640
-760
-803
-846
-825
-665
-425
-243
-167
-135
-72
-7
-16
-78
-75
65
282
473
591
619
495
167
-258
-516
-426
-99
172
257
313
528
788
757
286
-368
-809
-931
-951
-1059
-1113
-794
8
1017
1815
2204
2279
2223
2087
1764
1186
478
-105
-386
-386
-265
-163
-96
2
148
263
261
127
-69
-215
-229
-123
-6
-15
-188
-395
-434
-228
89
305
325
253
257
405
624
813
933
1002
1029
999
917
815
724
643
580
598
782
1141
1568
1911
2114
2245
2394
2519
2454
2092
1534
1032
781
764
829
879
972
1222
1670
2246
2825
3304
3622
3759
3727
3563
3299
2930
2426
1792
1084
383
-238
-719
-1001
-1053
-903
-649
-399
-195
-10
180
344
424
412
387
464
702
1076
1502
1884
2176
2393
2567
2689
2697
2551
2277
1952
1638
1360
1165
1124
1247
1426
1511
1472
1460
1632
1955
2202
2207
2048
1956
2079
2354
2607
2733
2741
2654
2457
2120
1671
1204
779
359
-160
-815
-1514
-2076
-2379
-2451
-2454
-2503
-2538
-2382
-1949
-1350
-802
-386
-4
442
879
1156
1261
1360
1575
1807
1849
1686
1552
1619
1763
1711
1361
888
504
213
-116
-497
-789
-862
-738
-538
-358
-256
-302
-511
-748
-779
-520
-149
87
167
301
672
1199
1636
1829
1832
1785
1750
1711
1688
1744
1902
2086
2198
2249
2350
2568
2832
2976
2912
2698
2472
2324
2263
2262
2294
2321
2311
2265
2220
2207
2204
2155
2027
1823
1549
1215
890
699
714
834
871
781
754
908
1489
1871
1862
1511
1114
909
879
881
862
877
971
1117
1312
1629
2113
2647
2999
3044
2884
2711
2585
2419
2122
1730
1371
1119
951
821
744
772
909
1079
1180
1163
1045
884
730
593
457
319
210
169
187
203
172
117
89
80
4
-214
-526
-787
-895
-894
-925
-1065
-1246
-1337
-1297
-1193
-1114
-1071
-1017
-949
-935
-1048
-1268
-1498
-1658
-1748
-1827
-1929
-2012
-1992
-1824
-1558
-1308
-1156
-1090
-1051
-1026
-1066
-1187
-1301
-1294
-1181
-1104
-1157
-1237
-1137
-791
-346
-6
199
410
743
1155
1517
1772
1963
2138
2271
2319
2296
2290
2383
2542
2660
2676
2664
2760
2980
3177
3204
3135
3209
3522
3834
3775
3282
2704
2423
2425
2342
1903
1283
899
960
1275
1507
1529
1467
1475
1549
1574
1491
1358
1277
1287
1355
1442
1543
1664
1807
1961
2112
2247
2349
2408
2433
2474
2599
2836
3131
3345
3345
3115
2790
2548
2441
2343
2124
1838
1727
1970
2454
2827
2813
2455
2031
1749
1558
1248
713
72
-440
-684
-708
-654
-618
-606
-584
-527
-435
-318
-195
-78
60
293
696
1232
1766
2158
2379
2483
2497
2393
2183
1951
1763
1570
1304
1052
1021
1270
1553
1543
1207
849
757
858
827
497
51
-211
-201
-80
-16
-10
28
137
266
352
384
378
355
334
337
353
345
284
195
124
88
52
-5
-55
-73
-72
-82
-87
-33
88
181
105
-182
-584
-952
-1208
-1373
-1481
-1525
-1490
-1404
-1300
-1149
-888
-539
-250
-156
-216
-217
5
398
763
971
1061
1135
1203
1203
1100
926
709
450
175
-35
-118
-90
15
230
601
1053
1371
1410
1270
1198
1292
1372
1192
755
321
131
172
258
271
268
348
496
604
613
595
646
760
826
774
666
635
730
862
912
856
761
680
603
534
521
594
684
686
621
639
839
1112
1262
1237
1168
1170
1176
1045
775
532
456
502
524
462
388
400
519
702
895
1046
1111
1093
1072
1139
1297
1457
1537
1570
1645
1783
1887
1837
1628
1367
1166
1052
979
933
982
1205
1591
2042
2485
2924
3359
3726
3956
4049
4066
4040
3939
3756
3567
3424
3277
3081
2943
3050
3389
3653
3537
3110
2735
2614
2522
2100
1325
538
51
-184
-415
-739
-1032
-1172
-1216
-1274
-1334
-1297
-1166
-1092
-1170
-1284
-1243
-1031
-833
-806
-890
-878
-675
-415
-278
-280
-270
-149
-3
1
-200
-507
-777
-975
-1156
-1352
-1528
-1638
-1692
-1731
-1770
-1799
-1855
-2022
-2336
-2706
-2996
-3190
-3428
-3828
-4284
-4521
-4390
-4039
-3766
-3701
-3681
-3484
-3093
-2712
-2543
-2585
-2670
-2666
-2601
-2573
-2602
-2588
-2407
-2059
-1675
-1387
-1215
-1081
-930
-800
-768
-843
-964
-1060
-1084
-992
-747
-392
-51
177
327
513
780
1036
1184
1239
1297
1388
1454
1475
1534
1717
1984
2204
2313
2379
2482
2594
2640
2615
2597
2628
2658
2613
2506
2403
2324
2221
2074
1938
1866
1816
1724
1626
1655
1870
2138
2240
2107
1880
1737
1708
1669
1516
1274
1045
897
834
828
838
807
674
421
86
-263
-582
-862
-1094
-1244
-1263
-1130
-891
-641
-455
-308
-76
318
790
1132
1207
1096
1006
1037
1081
957
615
167
-245
-565
-810
-996
-1127
-1206
-1234
-1179
-1002
-737
-501
-396
-399
-393
-300
-170
-104
-133
-191
-205
-184
-196
-279
-397
-476
-491
-473
-469
-488
-496
-458
-378
-290
-235
-217
-196
-122
19
180
300
370
426
506
597
644
631
600
613
674
724
711
636
553
516
540
604
670
709
721
733
786
899
1058
1223
1353
1426
1453
1466
1495
1537
1566
1547
1473
1366
1258
1182
1163
1204
1268
1298
1270
1235
1265
1370
1467
1469
1384
1307
1312
1373
1413
1390
1341
1311
1294
1252
1163
1049
953
879
800
695
585
523
536
589
612
556
452
367
349
382
417
420
410
449
600
866
1157
1357
1403
1344
1302
1355
1482
1594
1623
1577
1509
1471
1487
1537
1566
1532
1446
1350
1286
1258
1239
1222
1232
1272
1297
1263
1192
1155
1184
1221
1177
1020
787
515
198
-147
-420
-502
-405
-288
-280
-303
-134
339
980
1552
1958
2304
2715
3174
3568
3835
3966
3964
3841
3629
3391
3160
2919
2655
2414
2246
2127
2016
1947
1998
2138
2198
2049
1786
1630
1650
1675
1526
1261
1106
1156
1246
1163
906
671
615
689
725
652
532
458
453
469
458
392
263
128
99
259
542
765
810
789
913
1199
1414
1353
1129
1056
1234
1392
1215
776
482
579
862
926
645
289
152
238
327
268
114
1
-39
-41
-17
58
179
311
423
495
507
466
439
514
682
813
774
612
529
652
882
1017
989
915
937
1050
1138
1140
1105
1088
1070
1011
934
907
926
903
776
606
509
524
571
566
509
457
428
384
307
219
142
54
-65
-170
-181
-83
18
-1
-135
-258
-277
-266
-378
-654
-934
-1012
-865
-691
-697
-872
-1020
-998
-868
-801
-860
-954
-969
-905
-813
-680
-436
-85
250
451
545
659
851
1029
1069
966
829
727
635
490
298
115
-21
-110
-148
-96
71
318
585
857
1165
1517
1862
2124
2270
2307
2256
2151
2061
2034
2039
1971
1774
1520
1353
1321
1321
1223
1010
767
576
443
365
364
477
624
674
581
426
291
112
-256
-821
-1405
-1841
-2206
-2752
-3555
-4316
-4615
-4345
-3841
-3526
-3474
-3365
-2890
-2123
-1464
-1244
-1434
-1742
-1941
-2028
-2106
-2201
-2224
-2092
-1839
-1559
-1300
-1045
-786
-566
-465
-531
-711
-893
-979
-937
-798
-597
-335
-34
214
290
187
28
-49
-24
21
24
16
49
89
61
-51
-208
-402
-689
-1081
-1448
-1601
-1467
-1138
-719
-197
490
1316
2123
2748
3133
3318
3346
3248
3055
2802
2533
2311
2195
2199
2262
2297
2275
2233
2187
2086
1896
1694
1591
1563
1451
1153
797
637
750
925
906
695
532
585
769
918
1007
1123
1251
1244
1059
890
949
1202
1389
1337
1155
1072
1194
1502
1974
2584
3129
3248
2822
2212
1958
2207
2494
2253
1469
695
422
550
533
-16
-949
-1771
-2086
-1871
-1418
-1080
-1003
-1038
-866
-331
376
870
974
896
966
1250
1531
1632
1656
1838
2213
2562
2701
2670
2611
2502
2192
1671
1098
625
199
-311
-818
-1063
-985
-886
-1105
-1568
-1797
-1449
-741
-239
-268
-648
-1027
-1341
-1769
-2340
-2746
-2645
-2045
-1273
-574
122
993
1992
2834
3296
3443
3454
3392
3188
2842
2540
2471
2619
2775
2784
2729
2762
2897
2993
2920
2712
2526
2474
2546
2681
2825
2934
2964
2888
2718
2473
2170
1820
1444
1058
704
463
421
547
630
434
-14
-382
-362
-58
66
-298
-937
-1355
-1315
-1089
-1107
-1506
-2043
-2415
-2549
-2559
-2557
-2584
-2662
-2837
-3114
-3413
-3632
-3758
-3859
-3987
-4110
-4149
-4038
-3772
-3394
-2967
-2540
-2134
-1748
-1389
-1050
-704
-323
88
477
783
965
1036
1052
1092
1233
1511
1852
2105
2178
2166
2263
2549
2860
2928
2653
2205
1825
1643
1617
1621
1574
1518
1583
1840
2164
2318
2224
2099
2188
2356
2144
1355
469
242
848
1643
1884
1592
1457
1946
2732
3124
2864
2342
2041
2009
1957
1728
1484
1453
1670
1990
2277
2536
2810
3077
3281
3379
3375
3323
3289
3304
3345
3365
3342
3289
3223
3144
3024
2846
2642
2472
2376
2357
2382
2397
2359
2265
2147
2064
2056
2098
2109
2010
1786
1501
1250
1074
928
758
583
510
624
860
1032
1017
869
727
629
461
118
-349
-769
-1038
-1204
-1366
-1542
-1680
-1759
-1827
-1899
-1924
-1855
-1757
-1774
-1977
-2284
-2560
-2742
-2856
-2940
-2987
-2998
-3026
-3116
-3218
-3210
-3041
-2819
-2730
-2843
-3020
-3052
-2863
-2572
-2365
-2305
-2306
-2261
-2167
-2100
-2088
-2060
-1935
-1749
-1621
-1603
-1581
-1359
-890
-379
-122
-238
-567
-825
-849
-696
-517
-397
-321
-256
-217
-230
-265
-257
-202
-188
-288
-439
-466
-256
116
458
644
715
797
946
1117
1248
1335
1423
1540
1666
1794
1952
2169
2424
2649
2793
2866
2911
2954
2993
3051
3177
3366
3534
3587
3522
3445
3460
3567
3677
3723
3736
3788
3889
3983
4009
3975
3920
3839
3682
3439
3205
3099
3115
3108
2929
2588
2237
2023
1973
1983
1943
1838
1770
1886
2238
2731
3195
3554
3881
4220
4430
4285
3739
3050
2538
2273
2051
1691
1273
1062
1232
1742
2396
2978
3329
3415
3360
3356
3457
3505
3312
2915
2564
2455
2552
2688
2786
2872
2942
2924
2794
2654
2609
2639
2618
2498
2395
2442
2624
2806
2882
2867
2842
2849
2857
2779
2540
2165
1788
1540
1388
1171
842
594
648
892
910
455
-182
-461
-265
-96
-501
-1399
-2143
-2250
-1899
-1639
-1740
-1967
-1957
-1634
-1217
-927
-784
-693
-601
-509
-418
-305
-165
-32
58
100
115
125
133
142
154
160
134
57
-45
-129
-156
-125
-59
29
140
290
523
901
1408
1884
2100
1972
1686
1538
1624
1735
1620
1297
1054
1157
1596
2142
2591
2894
3116
3315
3524
3751
3980
4170
4285
4351
4433
4564
4725
4880
5033
5166
5216
5147
5021
4972
5064
5221
5347
5461
5654
5899
5984
5729
5221
4737
4442
4211
3812
3232
2715
2487
2522
2608
2592
2483
2347
2190
1970
1665
1291
870
446
100
-86
-100
-12
113
311
640
1069
1460
1661
1635
1479
1322
1222
1119
894
493
6
-376
-534
-539
-577
-727
-871
-839
-637
-469
-498
-667
-799
-818
-798
-799
-756
-599
-421
-371
-404
-263
172
622
638
118
-527
-787
-627
-489
-760
-1334
-1752
-1722
-1385
-1093
-1013
-1022
-947
-775
-642
-644
-742
-848
-937
-1037
-1141
-1200
-1203
-1215
-1300
-1404
-1390
-1209
-992
-920
-1012
-1106
-1065
-947
-916
-1030
-1162
-1158
-1026
-915
-924
-984
-941
-740
-473
-278
-194
-135
2
241
515
744
891
944
910
828
780
827
935
991
935
855
909
1163
1499
1727
1767
1680
1556
1411
1206
940
679
492
391
330
282
254
270
312
314
201
-36
-310
-498
-545
-490
-431
-428
-466
-485
-442
-348
-264
-260
-381
-620
-886
-1034
-951
-648
-268
17
122
99
68
104
174
151
-62
-413
-712
-778
-632
-492
-551
-774
-934
-883
-719
-673
-831
-1047
-1129
-1055
-969
-996
-1119
-1234
-1270
-1230
-1142
-1002
-799
-548
-297
-65
192
563
1093
1711
2233
2500
2513
2433
2445
2601
2789
2851
2707
2410
2111
1962
2001
2102
2085
1870
1558
1304
1159
1043
868
639
427
256
90
-80
-201
-230
-214
-257
-407
-603
-760
-859
-934
-1009
-1064
-1080
-1072
-1065
-1060
-1040
-989
-902
-772
-607
-443
-328
-286
-300
-352
-468
-679
-955
-1212
-1388
-1515
-1664
-1851
-2010
-2046
-1928
-1723
-1566
-1592
-1836
-2176
-2420
-2485
-2499
-2695
-3161
-3717
-4070
-4086
-3890
-3710
-3649
-3611
-3434
-3058
-2577
-2132
-1781
-1471
-1142
-844
-704
-766
-908
-961
-903
-880
-1014
-1230
-1321
-1175
-890
-632
-443
-237
37
294
416
417
442
580
768
882
892
888
962
1117
1287
1433
1565
1697
1804
1854
1877
1938
2077
2268
2454
2595
2698
2801
2936
3108
3299
3476
3613
3704
3763
3816
3886
3971
4042
4054
3985
3842
3667
3509
3407
3364
3339
3276
3166
3068
3036
3051
3039
2968
2902
2883
2834
2604
2199
1827
1680
1681
1556
1161
690
479
646
970
1159
1159
1159
1335
1676
2040
2325
2527
2659
2689
2579
2344
2047
1737
1431
1163
993
951
973
950
849
743
706
709
642
431
114
-197
-393
-428
-328
-183
-94
-86
-59
75
242
240
-43
-460
-761
-870
-929
-1066
-1192
-1119
-836
-553
-447
-449
-356
-118
70
11
-235
-405
-328
-128
-60
-221
-465
-590
-561
-526
-649
-941
-1280
-1538
-1668
-1673
-1572
-1406
-1245
-1141
-1089
-1032
-940
-840
-789
-818
-890
-937
-911
-808
-660
-522
-438
-405
-388
-378
-385
-406
-398
-306
-134
46
191
349
597
919
1188
1285
1227
1144
1116
1115
1073
1002
981
1055
1167
1241
1281
1333
1399
1409
1312
1169
1091
1110
1142
1111
1060
1095
1224
1328
1318
1246
1240
1330
1400
1364
1313
1424
1741
2099
2308
2353
2374
2481
2624
2694
2658
2575
2496
2434
2405
2459
2610
2776
2832
2741
2600
2519
2485
2394
2213
2034
1995
2104
2218
2202
2099
2069
2191
2359
2383
2172
1804
1413
1077
806
590
421
286
177
134
225
510
989
1591
2185
2593
2723
2691
2741
2966
3132
2889
2194
1435
1061
1108
1199
1014
610
271
132
68
-77
-289
-466
-609
-799
-1028
-1160
-1097
-890
-681
-539
-431
-316
-215
-167
-166
-187
-236
-328
-452
-554
-596
-607
-633
-684
-711
-661
-543
-421
-348
-307
-221
-51
125
140
-111
-537
-897
-1010
-947
-963
-1222
-1612
-1859
-1811
-1601
-1477
-1546
-1686
-1712
-1572
-1361
-1199
-1124
-1111
-1160
-1278
-1428
-1522
-1527
-1538
-1695
-2001
-2260
-2258
-2004
-1744
-1664
-1677
-1544
-1208
-909
-895
-1093
-1171
-960
-686
-700
-1036
-1313
-1169
-687
-311
-369
-742
-1056
-1086
-942
-882
-1003
-1156
-1138
-893
-537
-209
48
287
530
704
694
469
140
-113
-172
-50
147
342
548
835
1228
1667
2062
2363
2570
2685
2691
2605
2531
2593
2786
2929
2828
2486
2130
1987
2069
2192
2199
2126
2128
2255
2355
2239
1904
1556
1385
1333
1180
848
573
661
1107
1536
1553
1126
555
113
-218
-631
-1163
-1619
-1772
-1581
-1191
-732
-219
438
1307
2307
3221
3811
3975
3835
3594
3357
3032
2482
1718
955
415
147
74
113
228
362
396
251
-39
-411
-914
-1678
-2705
-3716
-4304
-4307
-3956
-3628
-3429
-3122
-2448
-1481
-618
-223
-321
-644
-906
-1006
-1022
-1077
-1266
-1606
-2018
-2296
-2197
-1674
-999
-607
-689
-982
-1005
-561
-4
104
-401
-1070
-1289
-943
-556
-732
-1532
-2441
-2914
-2899
-2819
-3063
-3568
-3948
-3950
-3711
-3561
-3623
-3679
-3429
-2819
-2046
-1296
-582
143
822
1362
1798
2280
2819
3173
3107
2730
2460
2566
2900
3101
3038
2900
2897
3005
3066
3040
3011
3013
2937
2694
2395
2245
2285
2336
2195
1827
1346
854
370
-108
-533
-845
-1053
-1241
-1472
-1718
-1886
-1900
-1757
-1530
-1317
-1152
-963
-643
-201
187
325
199
6
-46
69
251
456
786
1361
2142
2959
3689
4365
5103
5895
6522
6696
6327
5663
5126
4957
5001
4884
4398
3740
3282
3186
3277
3264
3026
2659
2296
1974
1685
1442
1250
1035
685
183
-342
-719
-854
-770
-518
-119
417
1044
1657
2181
2621
2979
3205
3239
3125
2996
2915
2803
2588
2372
2329
2405
2251
1607
687
28
-92
37
-99
-626
-1156
-1253
-915
-506
-327
-371
-456
-484
-473
-440
-362
-255
-229
-370
-643
-898
-1027
-1072
-1132
-1242
-1337
-1325
-1171
-902
-554
-140
301
669
850
818
665
529
474
469
438
346
229
146
115
84
-22
-226
-435
-542
-551
-586
-760
-1021
-1201
-1217
-1192
-1317
-1633
-1973
-2132
-2069
-1920
-1822
-1783
-1705
-1507
-1212
-911
-694
-584
-543
-498
-396
-243
-87
15
49
38
-6
-92
-224
-369
-490
-581
-667
-736
-706
-498
-155
129
144
-138
-541
-846
-1006
-1174
-1501
-1935
-2252
-2276
-2037
-1718
-1473
-1322
-1216
-1121
-1028
-909
-753
-637
-692
-936
-1194
-1236
-1008
-707
-569
-624
-694
-608
-393
-215
-178
-232
-266
-242
-193
-151
-108
-53
0
32
70
144
222
228
143
36
-12
10
48
86
194
434
743
963
983
855
719
665
662
604
441
245
167
319
668
1072
1414
1725
2122
2661
3238
3698
3989
4200
4424
4633
4735
4710
4643
4635
4685
4722
4708
4686
4722
4846
5047
5286
5508
5681
5821
5991
6233
6496
6671
6707
6668
6654
6652
6552
6286
5927
5605
5362
5116
4801
4472
4243
4119
3994
3782
3538
3387
3365
3380
3338
3253
3197
3178
3114
2960
2770
2593
2386
2056
1628
1255
1045
917
678
260
-200
-542
-772
-1036
-1401
-1767
-1995
-2070
-2088
-2116
-2124
-2057
-1932
-1831
-1808
-1866
-1969
-2068
-2118
-2105
-2064
-2026
-1942
-1700
-1257
-764
-445
-378
-392
-267
-1
186
119
-110
-247
-153
67
214
230
214
271
388
485
536
579
619
601
492
351
288
347
441
452
350
218
155
176
228
255
248
242
275
363
480
572
587
544
518
564
638
651
601
623
845
1222
1519
1549
1357
1168
1133
1186
1148
955
729
643
760
1008
1286
1547
1775
1943
2025
2037
2043
2077
2106
2066
1945
1796
1681
1593
1480
1320
1141
986
866
774
735
796
986
1282
1650
2070
2527
2973
3326
3530
3590
3571
3553
3566
3577
3517
3361
3179
3087
3123
3196
3166
2993
2777
2617
2489
2285
1980
1685
1518
1456
1359
1165
982
967
1134
1325
1375
1279
1171
1175
1275
1357
1322
1169
987
860
785
682
475
187
-67
-185
-186
-187
-277
-426
-531
-540
-508
-523
-617
-752
-875
-971
-1052
-1131
-1224
-1338
-1464
-1560
-1581
-1520
-1409
-1287
-1174
-1093
-1084
-1165
-1279
-1329
-1283
-1216
-1229
-1318
-1381
-1337
-1206
-1066
-936
-771
-546
-312
-128
20
189
382
529
578
542
473
410
368
362
403
465
513
544
597
674
708
637
492
357
269
179
46
-74
-78
45
185
231
171
83
26
-9
-71
-178
-290
-335
-257
-77
126
294
461
694
988
1219
1233
1006
670
391
232
142
42
-97
-227
-259
-134
102
304
333
182
-13
-118
-142
-200
-354
-539
-637
-611
-510
-360
-117
243
639
927
1039
1034
1002
958
854
672
460
278
153
94
126
275
530
834
1154
1497
1859
2167
2309
2253
2080
1902
1754
1575
1304
967
659
449
327
237
152
98
125
250
425
572
655
714
816
966
1092
1134
1132
1175
1270
1330
1282
1186
1156
1205
1212
1085
900
826
908
996
906
635
347
181
124
68
-42
-163
-238
-275
-324
-420
-546
-664
-750
-810
-857
-907
-966
-1020
-1047
-1036
-1007
-1000
-1047
-1151
-1280
-1374
-1372
-1259
-1098
-978
-943
-949
-914
-805
-674
-588
-539
-459
-330
-232
-267
-409
-501
-417
-232
-184
-448
-957
-1466
-1779
-1938
-2162
-2614
-3237
-3804
-4130
-4224
-4241
-4311
-4449
-4591
-4697
-4767
-4795
-4748
-4609
-4430
-4294
-4229
-4188
-4100
-3922
-3656
-3342
-3055
-2886
-2886
-2999
-3091
-3060
-2911
-2759
-2718
-2807
-2933
-2950
-2762
-2405
-2026
-1758
-1596
-1403
-1074
-647
-259
-5
137
237
326
407
511
681
892
1049
1074
994
908
863
804
666
477
344
355
490
641
708
671
589
543
570
639
701
758
875
1143
1584
2115
2614
3039
3457
3960
4545
5103
5513
5750
5874
5941
5942
5830
5593
5275
4925
4577
4247
3956
3716
3502
3292
3103
2969
2879
2775
2619
2460
2383
2394
2408
2353
2270
2255
2320
2357
2251
2013
1784
1677
1677
1685
1646
1603
1635
1748
1875
1942
1926
1857
1774
1692
1606
1507
1380
1220
1051
919
842
785
671
479
292
223
283
343
249
12
-194
-208
-50
80
19
-188
-359
-388
-342
-359
-490
-649
-745
-773
-767
-719
-579
-347
-91
124
317
531
751
917
1019
1122
1287
1480
1620
1699
1799
1968
2158
2289
2347
2393
2457
2496
2472
2414
2407
2478
2550
2537
2452
2383
2386
2433
2459
2451
2451
2474
2478
2401
2241
2045
1857
1686
1545
1464
1456
1482
1497
1512
1607
1839
2153
2413
2526
2507
2439
2402
2412
2406
2294
2049
1761
1586
1593
1691
1735
1692
1630
1581
1486
1310
1159
1185
1373
1511
1428
1195
1047
1113
1299
1432
1450
1407
1344
1235
1055
853
705
618
533
406
279
248
358
561
789
1047
1408
1900
2408
2744
2808
2676
2500
2323
2046
1559
923
334
-50
-248
-384
-556
-757
-917
-998
-1016
-1013
-1006
-991
-966
-949
-964
-1007
-1019
-945
-784
-614
-514
-488
-460
-363
-221
-125
-129
-197
-254
-284
-337
-439
-542
-572
-516
-428
-353
-268
-150
-39
-25
-132
-282
-384
-421
-452
-506
-543
-521
-470
-466
-536
-619
-667
-692
-746
-830
-884
-847
-748
-678
-690
-736
-717
-602
-471
-459
-601
-777
-812
-663
-492
-510
-742
-998
-1092
-1061
-1117
-1370
-1668
-1778
-1681
-1609
-1751
-2017
-2134
-1970
-1687
-1530
-1553
-1585
-1466
-1226
-1039
-1029
-1183
-1388
-1524
-1509
-1331
-1039
-718
-423
-126
215
550
737
691
480
252
73
-100
-305
-479
-481
-259
80
399
633
780
807
685
479
344
368
383
79
-674
-1635
-2347
-2502
-2168
-1657
-1223
-870
-384
476
1737
3107
4125
4481
4231
3716
3249
2910
2609
2249
1823
1367
972
773
836
1030
1086
829
388
58
-15
73
174
309
603
1083
1598
1960
2106
2128
2167
2279
2369
2239
1796
1209
699
263
-303
-1046
-1638
-1689
-1255
-847
-856
-1130
-1259
-1183
-1239
-1684
-2366
-3008
-3635
-4529
-5767
-7034
-7913
-8221
-8028
-7453
-6566
-5477
-4330
-3206
-2126
-1141
-391
-11
-41
-463
-1220
-2088
-2682
-2722
-2375
-2159
-2337
-2512
-2049
-887
222
444
-304
-1337
-1991
-2261
-2573
-3080
-3437
-3285
-2714
-2148
-1809
-1524
-1059
-464
8
214
244
224
171
84
73
272
659
1085
1465
1855
2306
2689
2814
2667
2426
2277
2216
2125
1958
1787
1673
1588
1484
1380
1331
1363
1453
1595
1807
2058
2231
2210
1978
1599
1115
499
-260
-1088
-1862
-2501
-2999
-3357
-3541
-3519
-3332
-3076
-2823
-2593
-2371
-2163
-1981
-1807
-1616
-1404
-1207
-1034
-842
-587
-292
-59
40
50
104
269
469
547
465
376
489
831
1203
1403
1481
1717
2319
3159
3853
4125
4042
3897
3881
3894
3694
3178
2516
1990
1741
1680
1625
1504
1375
1301
1265
1198
1097
1046
1116
1290
1501
1732
2030
2419
2848
3256
3657
4105
4584
4971
5151
5178
5244
5460
5706
5731
5417
4907
4470
4240
4136
4006
3798
3592
3480
3472
3511
3527
3466
3306
3066
2792
2563
2425
2332
2219
2093
2036
2086
2149
2086
1896
1743
1732
1701
1357
644
-81
-371
-170
156
267
230
378
850
1392
1677
1662
1562
1530
1507
1405
1302
1355
1586
1852
2027
2137
2271
2404
2415
2256
2006
1773
1568
1348
1131
1036
1157
1434
1696
1823
1837
1826
1821
1774
1663
1557
1542
1627
1722
1742
1692
1656
1696
1813
1950
2031
2006
1889
1749
1660
1633
1630
1624
1635
1666
1641
1463
1140
805
592
481
331
44
-328
-651
-845
-933
-989
-1081
-1259
-1524
-1800
-1963
-1945
-1810
-1695
-1677
-1706
-1676
-1548
-1379
-1250
-1187
-1169
-1183
-1249
-1389
-1569
-1705
-1724
-1615
-1459
-1379
-1434
-1555
-1584
-1437
-1222
-1159
-1306
-1434
-1239
-728
-300
-349
-807
-1192
-1143
-824
-722
-1072
-1602
-1851
-1647
-1215
-869
-729
-711
-714
-702
-673
-610
-505
-373
-225
-39
221
578
1021
1522
2007
2370
2538
2547
2515
2531
2580
2605
2584
2537
2462
2327
2131
1944
1840
1806
1755
1639
1514
1463
1448
1319
976
501
93
-141
-296
-523
-803
-902
-615
-46
420
467
170
-84
-14
263
375
142
-237
-412
-259
34
224
277
318
417
501
496
452
478
578
639
587
490
450
475
472
390
289
257
283
287
242
205
232
305
382
472
596
706
716
630
575
651
772
732
448
81
-126
-91
41
98
72
110
326
670
970
1094
1062
993
969
966
910
798
716
747
864
974
1029
1065
1132
1206
1223
1158
1061
991
971
991
1052
1136
1195
1195
1185
1261
1431
1568
1546
1407
1336
1437
1600
1613
1411
1168
1103
1254
1475
1611
1652
1706
1861
2112
2384
2595
2704
2722
2697
2672
2652
2622
2602
2632
2718
2804
2820
2780
2795
2937
3143
3263
3233
3150
3150
3243
3321
3307
3256
3253
3279
3214
2981
2648
2354
2184
2142
2196
2301
2392
2425
2476
2729
3271
3934
4398
4503
4415
4417
4585
4726
4632
4314
3951
3657
3391
3102
2846
2719
2701
2644
2443
2167
1972
1925
1926
1825
1594
1341
1176
1108
1070
1017
965
941
965
1074
1329
1715
2044
2053
1650
1038
552
325
171
-190
-785
-1327
-1497
-1244
-807
-463
-301
-246
-224
-248
-362
-554
-770
-1002
-1291
-1639
-1952
-2110
-2092
-2007
-1993
-2097
-2253
-2373
-2402
-2344
-2231
-2102
-2003
-1951
-1928
-1930
-1963
-2026
-2080
-2075
-2005
-1909
-1804
-1642
-1375
-1048
-790
-671
-607
-446
-169
80
184
213
339
589
779
779
759
1040
1671
2256
2338
1945
1600
1759
2307
2676
2479
1906
1458
1390
1508
1456
1095
575
99
-280
-632
-998
-1328
-1542
-1608
-1556
-1448
-1327
-1193
-1010
-759
-484
-270
-179
-202
-267
-297
-262
-184
-102
-44
-13
6
47
140
268
389
470
518
578
665
741
750
692
623
586
564
504
393
266
160
57
-80
-233
-343
-390
-448
-603
-838
-1022
-1022
-814
-491
-168
99
331
598
986
1536
2175
2712
2972
2945
2798
2710
2700
2639
2405
2012
1591
1256
1034
880
754
643
518
335
81
-175
-335
-385
-427
-582
-835
-1044
-1090
-1008
-935
-943
-989
-1024
-1086
-1233
-1427
-1557
-1591
-1626
-1751
-1908
-1962
-1880
-1789
-1824
-1975
-2116
-2160
-2141
-2139
-2173
-2211
-2215
-2174
-2102
-2055
-2122
-2356
-2739
-3212
-3763
-4426
-5205
-5999
-6656
-7088
-7317
-7406
-7400
-7314
-7167
-6980
-6750
-6464
-6143
-5830
-5555
-5295
-4991
-4610
-4164
-3693
-3262
-2939
-2744
-2621
-2471
-2257
-2060
-2000
-2107
-2281
-2383
-2381
-2373
-2469
-2674
-2903
-3051
-3080
-3032
-2965
-2900
-2801
-2600
-2263
-1851
-1481
-1236
-1075
-865
-522
-125
158
259
282
385
612
868
1068
1251
1513
1858
2192
2439
2638
2869
3136
3365
3499
3583
3704
3872
4026
4141
4261
4427
4600
4696
4691
4659
4692
4792
4878
4882
4825
4771
4746
4708
4602
4425
4236
4095
4017
3970
3904
3787
3608
3363
3047
2678
2297
1940
1600
1258
954
798
875
1129
1411
1639
1873
2208
2619
2949
3078
3052
2994
2930
2766
2436
2009
1615
1321
1088
854
608
379
188
81
92
215
370
443
375
197
-2
-143
-214
-277
-410
-618
-797
-814
-661
-481
-424
-485
-533
-483
-410
-448
-613
-800
-901
-914
-921
-965
-996
-941
-789
-638
-624
-776
-988
-1146
-1269
-1468
-1786
-2087
-2184
-2065
-1883
-1753
-1615
-1369
-1069
-907
-1005
-1263
-1487
-1631
-1811
-2099
-2394
-2522
-2441
-2268
-2108
-1937
-1676
-1352
-1127
-1104
-1205
-1267
-1236
-1224
-1314
-1409
-1315
-960
-474
-43
284
594
943
1265
1454
1460
1325
1116
903
745
657
614
582
570
643
835
1096
1337
1502
1572
1540
1405
1240
1158
1226
1400
1549
1571
1466
1325
1266
1322
1438
1496
1420
1280
1246
1416
1700
1906
1925
1817
1695
1566
1351
1032
710
523
479
472
429
407
530
820
1150
1339
1336
1256
1259
1368
1453
1378
1188
1076
1165
1363
1435
1269
997
826
806
787
619
315
18
-162
-234
-250
-225
-161
-93
-45
59
358
874
1429
1788
1888
1879
1930
2027
2006
1758
1332
866
468
174
-17
-131
-244
-425
-650
-817
-851
-817
-845
-987
-1173
-1307
-1361
-1343
-1253
-1084
-895
-755
-682
-617
-516
-415
-390
-451
-533
-575
-591
-622
-662
-670
-639
-603
-581
-540
-441
-300
-180
-120
-110
-111
-104
-112
-162
-265
-395
-508
-576
-630
-721
-840
-881
-749
-517
-402
-543
-811
-931
-802
-642
-741
-1099
-1407
-1396
-1129
-908
-924
-1075
-1143
-1054
-917
-856
-887
-969
-1092
-1265
-1446
-1566
-1610
-1637
-1704
-1773
-1744
-1566
-1310
-1098
-991
-931
-829
-693
-649
-824
-1176
-1484
-1517
-1261
-928
-726
-637
-446
-14
528
909
977
831
672
607
608
624
649
686
713
736
809
969
1145
1193
1068
879
773
754
699
542
393
404
580
752
782
713
692
778
893
937
917
922
994
1084
1117
1077
1023
1026
1112
1248
1363
1406
1383
1351
1335
1268
1057
713
375
177
112
70
-2
-36
52
254
486
696
895
1085
1249
1384
1494
1533
1395
1042
621
351
260
163
-108
-469
-664
-559
-298
-108
-64
-105
-188
-341
-579
-828
-994
-1049
-1052
-1051
-1038
-894
-438
441
1549
2399
2601
2277
2011
2217
2630
2586
1806
723
-48
-405
-729
-1276
-1832
-2023
-1830
-1566
-1432
-1299
-1010
-675
-573
-823
-1233
-1523
-1581
-1495
-1408
-1368
-1325
-1166
-865
-538
-347
-295
-205
47
323
350
91
-175
-213
-115
-185
-506
-801
-769
-455
-174
-131
-240
-342
-444
-658
-1008
-1385
-1724
-2082
-2515
-2902
-3021
-2778
-2323
-1900
-1628
-1480
-1401
-1404
-1507
-1666
-1807
-1911
-2008
-2067
-1983
-1704
-1353
-1131
-1096
-1107
-983
-700
-389
-151
41
290
662
1106
1509
1786
1969
2225
2700
3337
3854
4023
3958
4039
4476
5028
5245
4983
4558
4357
4390
4312
3883
3238
2722
2528
2560
2627
2675
2807
3138
3693
4357
4921
5201
5177
5008
4884
4824
4662
4267
3699
3165
2807
2576
2357
2111
1909
1797
1712
1562
1369
1254
1302
1460
1618
1734
1863
2039
2216
2327
2372
2412
2458
2419
2166
1699
1203
888
802
788
680
426
765
1276
1685
1743
1510
1271
1237
1361
1431
1328
1129
1000
1034
1190
1352
1414
1322
1100
836
630
506
408
258
56
-108
-163
-120
-52
-4
42
136
290
458
575
606
583
564
553
511
408
270
165
128
145
182
225
300
429
578
677
667
562
428
335
321
380
477
564
616
659
758
933
1119
1219
1210
1183
1234
1329
1346
1248
1162
1256
1536
1814
1919
1883
1884
2017
2169
2166
1978
1748
1621
1591
1553
1460
1364
1341
1374
1399
1384
1352
1331
1294
1199
1036
844
667
532
428
315
176
65
82
275
536
664
571
395
360
512
650
556
247
-42
-121
-33
49
40
18
83
214
308
311
263
237
236
209
125
19
-39
-14
57
117
144
165
218
311
410
478
516
537
520
411
173
-146
-442
-635
-743
-851
-985
-1060
-972
-733
-466
-251
-15
381
952
1521
1888
2032
2107
2256
2451
2545
2438
2175
1881
1660
1537
1479
1441
1390
1329
1289
1298
1336
1358
1339
1299
1265
1231
1189
1166
1202
1294
1382
1428
1487
1648
1912
2174
2332
2389
2436
2531
2637
2655
2513
2210
1790
1332
940
686
561
472
343
202
163
296
536
715
717
578
425
339
266
91
-216
-544
-740
-769
-751
-839
-1055
-1264
-1311
-1188
-1048
-1065
-1267
-1534
-1720
-1773
-1756
-1763
-1835
-1942
-2030
-2072
-2051
-1962
-1812
-1628
-1448
-1290
-1140
-975
-799
-657
-599
-623
-672
-679
-626
-560
-530
-536
-533
-485
-396
-305
-249
-232
-234
-225
-172
-62
69
167
191
169
160
191
223
196
89
-59
-188
-251
-235
-170
-103
-68
-45
18
147
300
401
417
384
347
314
268
213
179
173
171
170
209
324
470
554
531
453
409
412
395
308
196
154
221
339
441
506
565
620
611
479
251
19
-142
-246
-339
-403
-365
-184
83
361
662
1059
1552
2002
2254
2312
2309
2310
2200
1838
1284
794
572
578
633
691
903
1397
2063
2618
2885
2934
2961
3031
3020
2807
2441
2112
1965
1974
2011
1989
1925
1859
1785
1663
1480
1275
1089
929
807
767
830
928
945
838
716
732
906
1073
1064
898
767
805
936
959
776
489
269
165
93
-37
-198
-293
-276
-193
-125
-93
-57
14
103
167
182
186
218
297
410
529
624
672
670
636
614
647
734
834
914
945
911
822
723
682
726
794
786
676
560
588
812
1134
1380
1445
1373
1296
1313
1393
1414
1295
1092
943
922
962
944
844
751
737
745
640
375
50
-184
-248
-189
-124
-139
-248
-382
-429
-341
-196
-129
-192
-297
-329
-283
-236
-213
-142
24
206
294
301
368
568
783
824
664
472
398
389
273
-7
-300
-421
-359
-266
-264
-311
-278
-128
13
-4
-197
-455
-678
-887
-1155
-1477
-1758
-1918
-1966
-1937
-1799
-1487
-1014
-473
91
744
1542
2353
2917
3104
3052
3001
3008
2919
2598
2120
1698
1469
1405
1405
1422
1459
1515
1569
1601
1616
1629
1653
1696
1741
1751
1706
1640
1620
1660
1682
1589
1368
1101
886
763
730
774
869
949
946
861
769
738
738
682
529
339
205
152
131
89
15
-78
-198
-383
-644
-943
-1215
-1437
-1639
-1880
-2184
-2516
-2808
-3028
-3206
-3405
-3651
-3907
-4100
-4199
-4232
-4241
-4229
-4176
-4080
-3982
-3927
-3923
-3930
-3914
-3873
-3807
-3695
-3509
-3259
-3009
-2810
-2647
-2459
-2221
-1973
-1782
-1668
-1608
-1602
-1689
-1886
-2140
-2376
-2590
-2860
-3244
-3680
-4032
-4208
-4237
-4230
-4280
-4396
-4517
-4568
-4523
-4436
-4413
-4507
-4663
-4758
-4717
-4574
-4404
-4226
-4000
-3718
-3441
-3237
-3093
-2938
-2748
-2578
-2495
-2487
-2471
-2380
-2230
-2080
-1958
-1842
-1694
-1514
-1328
-1164
-1029
-922
-824
-706
-549
-362
-185
-43
84
246
457
672
839
966
1099
1258
1402
1480
1485
1444
1379
1293
1210
1193
1288
1491
1753
2045
2369
2746
3195
3721
4305
4862
5277
5489
5557
5593
5638
5608
5403
5029
4605
4250
3993
3814
3697
3641
3625
3613
3599
3607
3645
3672
3639
3554
3463
3383
3286
3168
3076
3059
3081
3028
2836
2572
2374
2305
2297
2233
2081
1920
1838
1832
1816
1715
1544
1372
1236
1101
929
744
622
588
577
492
320
142
41
7
-38
-138
-277
-417
-543
-657
-749
-804
-839
-888
-968
-1065
-1150
-1193
-1173
-1098
-1023
-1022
-1096
-1147
-1070
-863
-639
-505
-446
-359
-176
55
244
347
408
500
649
786
812
697
540
500
622
791
849
784
738
831
1011
1125
1094
1000
964
995
973
794
498
239
140
171
196
120
-7
-42
87
293
435
467
478
560
701
835
932
1025
1141
1244
1306
1344
1372
1363
1283
1174
1140
1210
1274
1217
1068
986
1049
1167
1198
1137
1102
1160
1238
1235
1183
1202
1337
1494
1550
1500
1443
1432
1420
1339
1202
1068
932
734
457
196
88
166
345
522
658
780
934
1176
1533
1957
2328
2547
2627
2649
2645
2551
2317
1991
1674
1387
1057
654
300
156
241
419
542
580
594
638
712
795
871
898
834
699
598
639
832
1056
1163
1098
934
803
756
718
585
337
73
-86
-143
-229
-448
-753
-1011
-1155
-1251
-1387
-1563
-1736
-1897
-2074
-2269
-2410
-2432
-2374
-2350
-2431
-2568
-2670
-2693
-2688
-2711
-2765
-2797
-2761
-2665
-2552
-2461
-2393
-2328
-2259
-2184
-2116
-2056
-1990
-1901
-1778
-1622
-1441
-1242
-1026
-798
-568
-354
-173
-40
35
36
-33
-148
-267
-344
-368
-352
-325
-287
-221
-106
53
232
395
520
591
614
619
635
645
609
517
436
442
505
499
361
182
109
154
165
22
-184
-247
-111
26
-53
-326
-554
-566
-454
-442
-604
-803
-875
-814
-753
-776
-825
-784
-614
-382
-170
12
202
420
641
793
806
668
435
234
183
283
431
523
581
718
982
1251
1346
1231
1038
883
719
425
-1
-379
-523
-411
-183
28
194
379
652
1047
1539
2010
2302
2342
2225
2146
2193
2267
2204
1955
1624
1350
1197
1156
1211
1324
1416
1431
1413
1447
1529
1540
1387
1167
1081
1175
1264
1128
804
566
608
817
885
637
196
-177
-359
-449
-611
-890
-1181
-1328
-1274
-1096
-931
-891
-971
-1086
-1166
-1242
-1404
-1677
-1971
-2158
-2181
-2085
-1950
-1804
-1623
-1363
-1028
-735
-685
-1003
-1536
-1901
-1838
-1507
-1362
-1644
-2030
-1954
-1251
-398
-70
-472
-1198
-1671
-1685
-1482
-1427
-1689
-2130
-2462
-2461
-2120
-1651
-1322
-1230
-1238
-1150
-931
-761
-831
-1177
-1696
-2266
-2788
-3145
-3172
-2775
-2058
-1253
-493
315
1305
2342
2963
2785
1944
1025
540
478
471
340
340
811
1686
2474
2732
2466
2010
1604
1175
554
-213
-840
-1048
-841
-462
-169
-39
11
69
107
41
-151
-382
-529
-529
-412
-245
-100
-23
-13
-5
87
270
454
546
574
687
985
1428
1899
2334
2762
3206
3620
3938
4142
4265
4309
4228
3979
3594
3175
2847
2669
2630
2659
2673
2652
2652
2766
3034
3392
3717
3921
4022
4097
4176
4208
4114
3894
3593
3249
2884
2547
2332
2313
2455
2660
2865
3059
3179
3081
2713
2224
1838
1574
1208
600
-36
-330
-164
162
296
216
173
318
539
657
680
734
852
950
1018
1187
1530
1892
2006
1825
1582
1499
1521
1411
1062
642
403
406
494
503
433
378
371
353
254
93
-63
-189
-323
-500
-671
-730
-631
-435
-246
-113
1
151
331
474
520
471
386
323
305
308
290
226
133
65
70
142
222
243
184
85
-5
-69
-124
-178
-224
-248
-259
-289
-351
-406
-400
-314
-205
-150
-154
-145
-38
161
354
445
419
333
247
190
155
109
35
-49
-97
-76
-20
7
-11
-13
45
119
120
42
-2
89
267
377
339
240
223
323
444
491
445
349
243
151
88
63
61
47
17
15
73
157
194
160
127
179
304
386
309
77
-195
-391
-502
-613
-804
-1069
-1306
-1413
-1356
-1190
-1004
-840
-669
-425
-84
288
574
708
715
667
609
543
461
380
325
289
261
264
312
373
382
335
306
357
443
488
510
606
779
871
769
602
650
982
1296
1215
716
184
2
159
332
282
92
8
133
366
563
681
745
755
687
569
481
453
434
388
357
415
558
690
753
815
974
1201
1341
1307
1203
1229
1452
1740
1946
2067
2206
2391
2522
2510
2403
2337
2381
2488
2573
2621
2679
2776
2902
3026
3122
3160
3118
3011
2907
2865
2873
2883
2883
2932
3087
3318
3508
3570
3530
3493
3510
3531
3473
3331
3193
3146
3191
3251
3255
3202
3128
3049
2940
2777
2573
2370
2188
2015
1839
1669
1526
1418
1329
1251
1189
1149
1134
1159
1237
1322
1298
1062
643
205
-113
-343
-647
-1111
-1627
-1975
-2013
-1784
-1456
-1196
-1092
-1139
-1249
-1314
-1278
-1218
-1274
-1496
-1754
-1844
-1682
-1382
-1116
-950
-836
-731
-676
-714
-809
-883
-927
-1005
-1137
-1255
-1273
-1194
-1049
-790
-290
452
1198
1644
1757
1843
2219
2811
3171
2911
2121
1296
874
844
843
579
130
-170
-103
214
479
501
348
198
130
71
-78
-306
-508
-603
-612
-632
-708
-782
-758
-630
-507
-491
-557
-603
-595
-599
-636
-566
-232
270
603
529
190
-42
-1
93
-70
-490
-843
-861
-607
-352
-249
-224
-154
-51
-29
-129
-261
-325
-342
-420
-603
-783
-801
-613
-349
-177
-134
-108
19
215
329
275
129
47
96
171
128
-48
-216
-230
-92
64
134
148
196
281
318
266
214
294
525
786
968
1091
1234
1411
1545
1574
1520
1443
1364
1270
1175
1139
1197
1310
1406
1450
1458
1461
1467
1462
1438
1387
1305
1209
1134
1104
1108
1101
1057
1001
988
1040
1132
1220
1290
1344
1373
1343
1242
1111
1017
978
942
864
782
794
934
1113
1198
1151
1072
1065
1120
1146
1090
1007
970
967
939
874
827
823
791
636
373
126
-32
-180
-450
-828
-1141
-1231
-1133
-998
-905
-796
-607
-382
-187
20
353
796
1140
1190
1015
890
986
1146
1065
651
128
-209
-302
-336
-469
-659
-741
-644
-459
-310
-227
-161
-97
-91
-214
-473
-816
-1195
-1588
-1971
-2284
-2467
-2524
-2522
-2526
-2543
-2530
-2474
-2424
-2451
-2561
-2677
-2716
-2678
-2640
-2660
-2695
-2649
-2502
-2371
-2402
-2617
-2887
-3076
-3185
-3327
-3561
-3796
-3886
-3793
-3616
-3452
-3293
-3066
-2755
-2442
-2215
-2072
-1945
-1777
-1582
-1408
-1292
-1228
-1189
-1145
-1082
-1003
-917
-818
-705
-590
-503
-464
-472
-506
-546
-581
-601
-602
-599
-620
-677
-748
-813
-882
-983
-1109
-1218
-1283
-1339
-1444
-1601
-1746
-1826
-1872
-1959
-2113
-2276
-2367
-2380
-2379
-2424
-2518
-2620
-2692
-2729
-2745
-2753
-2770
-2817
-2897
-2985
-3038
-3045
-3033
-3046
-3088
-3131
-3170
-3253
-3427
-3666
-3891
-4062
-4233
-4484
-4821
-5147
-5363
-5462
-5518
-5595
-5679
-5698
-5605
-5422
-5210
-5012
-4808
-4542
-4195
-3841
-3586
-3474
-3438
-3383
-3311
-3347
-3601
-4044
-4532
-4956
-5327
-5735
-6221
-6686
-6962
-6949
-6705
-6397
-6138
-5867
-5413
-4691
-3838
-3120
-2697
-2514
-2404
-2290
-2232
-2316
-2545
-2848
-3150
-3400
-3550
-3566
-3467
-3322
-3194
-3085
-2955
-2783
-2579
-2359
-2134
-1933
-1815
-1810
-1865
-1870
-1777
-1649
-1597
-1646
-1697
-1639
-1472
-1308
-1243
-1239
-1160
-918
-581
-316
-227
-253
-229
-60
188
365
388
329
324
411
500
490
390
284
223
174
89
-26
-121
-187
-274
-428
-629
-803
-900
-930
-928
-922
-920
-914
-901
-883
-859
-820
-757
-673
-591
-538
-515
-486
-413
-305
-210
-164
-156
-159
-155
-138
-105
-52
4
21
-15
-52
-13
122
280
360
324
237
203
254
317
296
188
88
68
94
84
10
-75
-110
-111
-139
-212
-285
-315
-308
-289
-265
-241
-241
-283
-341
-361
-338
-345
-447
-604
-696
-660
-556
-496
-520
-574
-588
-561
-553
-619
-748
-878
-947
-943
-934
-987
-1094
-1145
-1058
-890
-799
-875
-1024
-1075
-971
-825
-796
-913
-1080
-1208
-1327
-1533
-1855
-2216
-2494
-2622
-2615
-2499
-2286
-1972
-1583
-1172
-762
-324
165
658
1053
1277
1359
1393
1421
1409
1282
1019
658
273
-80
-379
-641
-917
-1238
-1566
-1814
-1949
-2031
-2175
-2422
-2713
-2966
-3166
-3351
-3554
-3740
-3841
-3819
-3682
-3482
-3283
-3116
-2978
-2842
-2685
-2516
-2371
-2286
-2270
-2316
-2411
-2520
-2592
-2599
-2564
-2556
-2639
-2811
-2991
-3112
-3177
-3259
-3438
-3708
-3991
-4195
-4299
-4367
-4495
-4729
-5018
-5263
-5421
-5537
-5681
-5851
-5970
-6000
-5982
-5988
-6014
-5995
-5906
-5814
-5792
-5797
-5716
-5516
-5289
-5143
-5057
-4929
-4729
-4551
-4498
-4553
-4610
-4611
-4591
-4591
-4580
-4500
-4372
-4285
-4280
-4275
-4168
-3986
-3874
-3933
-4098
-4210
-4213
-4198
-4260
-4373
-4427
-4399
-4400
-4520
-4702
-4800
-4763
-4701
-4751
-4917
-5078
-5130
-5083
-5016
-4981
-4970
-4947
-4879
-4752
-4585
-4416
-4285
-4198
-4134
-4069
-3995
-3898
-3775
-3633
-3499
-3388
-3311
-3285
-3339
-3434
-3446
-3272
-2960
-2703
-2670
-2851
-3069
-3174
-3173
-3182
-3287
-3487
-3718
-3898
-3959
-3897
-3818
-3868
-4122
-4499
-4844
-5073
-5219
-5326
-5383
-5351
-5233
-5058
-4822
-4507
-4132
-3767
-3483
-3308
-3255
-3325
-3448
-3459
-3249
-2951
-2901
-3305
-4000
-4618
-4972
-5230
-5657
-6243
-6665
-6616
-6123
-5480
-4958
-4609
-4344
-4102
-3911
-3855
-3985
-4280
-4652
-4971
-5126
-5092
-4939
-4760
-4591
-4422
-4244
-4090
-4022
-4087
-4263
-4470
-4632
-4709
-4709
-4656
-4585
-4536
-4549
-4625
-4709
-4735
-4701
-4673
-4701
-4749
-4766
-4766
-4816
-4946
-5104
-5263
-5482
-5810
-6136
-6215
-5934
-5458
-5062
-4827
-4604
-4262
-3891
-3695
-3743
-3916
-4089
-4262
-4454
-4566
-4455
-4125
-3763
-3547
-3460
-3353
-3148
-2927
-2831
-2912
-3117
-3348
-3505
-3519
-3380
-3166
-2990
-2911
-2880
-2830
-2797
-2853
-2986
-3091
-3130
-3212
-3399
-3470
-3094
-2284
-1584
-1586
-2237
-2836
-2812
-2404
-2378
-3078
-3992
-4329
-3885
-3177
-2776
-2708
-2605
-2271
-1894
-1762
-1897
-2111
-2225
-2229
-2170
-2029
-1774
-1456
-1248
-1269
-1452
-1575
-1467
-1238
-1226
-1644
-2250
-2492
-2098
-1457
-1317
-2043
-3233
-4139
-4415
-4358
-4433
-4675
-4678
-4105
-3083
-2062
-1359
-941
-635
-424
-475
-885
-1492
-2013
-2279
-2329
-2280
-2146
-1867
-1390
-755
-61
596
1127
1415
1366
978
363
-303
-885
-1360
-1819
-2359
-2943
-3388
-3502
-3297
-2998
-2841
-2858
-2906
-2891
-2881
-3003
-3292
-3670
-4065
-4415
-4612
-4528
-4173
-3767
-3551
-3547
-3560
-3435
-3243
-3153
-3196
-3232
-3141
-2963
-2821
-2750
-2659
-2460
-2197
-1990
-1881
-1787
-1609
-1333
-1048
-833
-671
-464
-151
225
542
709
747
765
855
1002
1086
987
703
365
133
42
-31
-255
-684
-1189
-1544
-1617
-1473
-1318
-1322
-1474
-1616
-1619
-1511
-1441
-1505
-1637
-1697
-1626
-1503
-1396
-1254
-977
-595
-301
-269
-449
-597
-522
-245
55
252
389
611
996
1494
1964
2308
2533
2716
2909
3062
3063
2876
2599
2374
2247
2137
1948
1685
1454
1341
1301
1191
906
506
194
121
216
230
7
-292
-324
40
501
606
244
-220
-360
-198
-183
-676
-1527
-2225
-2426
-2244
-2043
-2024
-2079
-2008
-1775
-1519
-1376
-1348
-1340
-1287
-1186
-1063
-916
-701
-394
-53
195
258
175
105
175
358
511
556
595
793
1184
1627
1984
2282
2658
3149
3620
3909
3999
4023
4095
4195
4226
4129
3916
3614
3226
2776
2353
2059
1918
1867
1813
1737
1705
1784
1967
2144
2171
1995
1708
1478
1399
1402
1314
1039
661
347
166
27
-187
-457
-651
-684
-623
-602
-661
-726
-724
-686
-685
-730
-760
-744
-752
-857
-1028
-1168
-1266
-1411
-1667
-1946
-2072
-1979
-1790
-1674
-1645
-1553
-1282
-904
-636
-623
-829
-1109
-1352
-1546
-1729
-1912
-2070
-2158
-2138
-1985
-1722
-1425
-1208
-1142
-1191
-1248
-1240
-1183
-1131
-1096
-1038
-931
-796
-674
-576
-492
-424
-387
-361
-295
-164
-22
44
14
-52
-76
-34
50
168
355
644
1018
1419
1796
2138
2447
2721
2944
3104
3191
3206
3173
3136
3146
3210
3291
3372
3486
3677
3918
4107
4168
4154
4181
4288
4385
4374
4287
4268
4395
4583
4687
4673
4664
4808
5078
5310
5394
5409
5490
5615
5602
5393
5250
5536
6207
6690
6398
5418
4494
4191
4256
3948
2975
1869
1358
1589
2159
2767
3494
4376
5022
4972
4360
3893
4028
4399
4240
3320
2231
1741
1995
2506
2724
2503
2050
1606
1269
1025
834
676
554
471
431
441
509
613
679
611
422
316
513
961
1298
1207
763
365
289
388
279
-209
-844
-1227
-1164
-762
-269
144
450
709
964
1200
1365
1423
1386
1304
1197
1064
920
835
880
1016
1097
1000
771
564
484
476
404
227
60
36
138
222
192
107
113
275
503
664
715
716
725
737
724
694
674
660
618
556
572
752
1028
1200
1130
919
824
977
1242
1361
1237
1031
974
1123
1347
1507
1589
1641
1665
1621
1515
1430
1429
1451
1371
1172
985
956
1101
1294
1413
1450
1487
1586
1723
1840
1909
1940
1948
1941
1929
1940
1999
2082
2140
2143
2111
2103
2136
2171
2151
2068
1969
1907
1872
1790
1630
1478
1472
1638
1839
1929
1958
2157
2673
3346
3839
3979
3931
3976
4173
4310
4195
3887
3592
3409
3278
3148
3081
3142
3270
3343
3343
3367
3465
3560
3570
3550
3631
3821
3968
3948
3818
3727
3706
3629
3379
2981
2561
2204
1907
1653
1466
1366
1322
1264
1170
1091
1091
1172
1261
1281
1223
1137
1070
1009
899
718
535
425
361
243
37
-132
-99
135
383
463
386
304
306
296
136
-175
-479
-637
-658
-646
-659
-653
-569
-434
-340
-357
-478
-639
-800
-983
-1241
-1587
-1952
-2232
-2369
-2400
-2430
-2538
-2708
-2839
-2839
-2723
-2615
-2651
-2841
-3029
-3025
-2785
-2460
-2248
-2180
-2111
-1900
-1576
-1303
-1191
-1189
-1171
-1101
-1074
-1180
-1385
-1562
-1627
-1628
-1686
-1869
-2134
-2392
-2594
-2751
-2886
-2971
-2955
-2841
-2705
-2607
-2527
-2388
-2182
-2013
-2000
-2173
-2447
-2708
-2867
-2880
-2771
-2646
-2633
-2741
-2777
-2500
-1871
-1121
-530
-161
152
582
1125
1638
1975
2083
1983
1744
1482
1304
1240
1224
1179
1100
1051
1083
1194
1352
1517
1644
1694
1655
1574
1515
1499
1492
1461
1423
1425
1485
1556
1558
1460
1305
1161
1043
894
664
369
77
-150
-292
-346
-312
-205
-67
79
285
625
1080
1508
1763
1820
1786
1757
1723
1607
1362
1012
620
257
-19
-184
-281
-394
-564
-741
-839
-847
-845
-921
-1075
-1224
-1296
-1301
-1294
-1312
-1344
-1372
-1410
-1502
-1668
-1880
-2102
-2334
-2601
-2890
-3133
-3264
-3300
-3337
-3452
-3612
-3724
-3746
-3727
-3746
-3824
-3929
-4045
-4195
-4398
-4625
-4813
-4927
-4975
-4997
-5031
-5101
-5199
-5279
-5287
-5222
-5158
-5175
-5267
-5337
-5290
-5119
-4907
-4734
-4622
-4539
-4450
-4343
-4224
-4106
-4002
-3914
-3831
-3729
-3589
-3403
-3173
-2893
-2574
-2246
-1945
-1682
-1448
-1231
-1026
-827
-616
-383
-146
72
273
479
700
909
1067
1165
1218
1243
1245
1247
1285
1371
1465
1514
1524
1562
1676
1829
1933
1950
1938
1982
2098
2227
2299
2309
2307
2341
2420
2515
2590
2637
2676
2733
2815
2900
2966
3000
3009
2986
2929
2845
2752
2655
2557
2491
2501
2575
2612
2512
2300
2110
2034
2008
1904
1708
1526
1443
1409
1319
1146
950
769
566
306
51
-92
-73
49
183
288
394
581
910
1363
1816
2119
2219
2199
2151
2062
1851
1495
1080
697
349
14
-272
-425
-452
-459
-511
-563
-539
-487
-540
-737
-949
-1049
-1078
-1179
-1387
-1553
-1543
-1414
-1341
-1397
-1474
-1455
-1370
-1341
-1392
-1428
-1383
-1340
-1431
-1637
-1789
-1769
-1642
-1559
-1582
-1612
-1528
-1350
-1221
-1240
-1355
-1440
-1455
-1488
-1620
-1783
-1810
-1658
-1520
-1634
-1993
-2308
-2332
-2140
-2028
-2139
-2301
-2266
-2008
-1711
-1495
-1294
-1027
-786
-715
-782
-770
-544
-244
-120
-232
-362
-276
12
284
366
293
227
270
385
484
512
489
466
476
538
639
738
797
827
865
922
946
883
764
696
742
839
862
785
716
786
1004
1262
1425
1442
1360
1265
1241
1304
1387
1399
1322
1230
1210
1264
1332
1366
1398
1452
1476
1405
1261
1143
1134
1199
1224
1137
970
831
822
948
1097
1126
995
820
763
844
915
851
711
692
860
1041
1020
802
609
584
598
417
28
-320
-414
-318
-236
-208
-75
272
687
942
1028
1179
1560
2045
2351
2356
2190
2044
1964
1876
1700
1412
1020
548
85
-233
-337
-289
-242
-286
-379
-412
-338
-219
-172
-250
-391
-481
-471
-437
-489
-617
-668
-565
-435
-491
-751
-993
-1027
-930
-930
-1086
-1217
-1170
-1048
-1053
-1165
-1122
-796
-447
-454
-866
-1315
-1445
-1319
-1293
-1579
-2010
-2271
-2226
-2006
-1810
-1729
-1738
-1784
-1829
-1852
-1861
-1900
-2013
-2167
-2274
-2294
-2270
-2288
-2374
-2459
-2458
-2374
-2294
-2287
-2319
-2295
-2165
-1989
-1857
-1786
-1690
-1498
-1265
-1145
-1241
-1477
-1647
-1606
-1405
-1268
-1378
-1687
-1938
-1903
-1614
-1340
-1307
-1482
-1637
-1607
-1440
-1277
-1165
-1037
-848
-661
-567
-571
-600
-615
-663
-801
-1007
-1204
-1330
-1366
-1303
-1113
-801
-444
-155
-1
41
59
118
208
253
186
18
-167
-268
-241
-127
-12
46
55
68
115
160
110
-97
-395
-628
-705
-707
-765
-817
-588
111
1078
1845
2156
2234
2499
3006
3319
3003
2156
1351
1011
975
818
435
192
428
997
1421
1445
1269
1245
1419
1518
1304
832
354
44
-113
-238
-429
-712
-1032
-1300
-1477
-1615
-1816
-2119
-2442
-2679
-2821
-2953
-3154
-3353
-3308
-2785
-1800
-732
-99
-121
-518
-772
-688
-602
-988
-1930
-3044
-3883
-4280
-4309
-4074
-3670
-3259
-3011
-2886
-2608
-1983
-1170
-535
-282
-295
-325
-276
-188
-65
118
323
442
409
347
408
580
713
714
653
612
544
387
263
419
875
1246
1074
322
-560
-1127
-1401
-1777
-2501
-3358
-3886
-3836
-3341
-2704
-2113
-1606
-1176
-817
-526
-297
-146
-119
-192
-262
-225
-53
162
314
357
299
149
-111
-475
-881
-1217
-1410
-1483
-1534
-1634
-1754
-1792
-1677
-1435
-1155
-891
-638
-367
-79
201
476
769
1093
1424
1726
1974
2160
2273
2285
2213
2132
2112
2112
1990
1648
1161
743
537
463
314
-5
-379
-615
-640
-533
-403
-290
-178
-66
46
193
424
694
878
882
754
622
536
425
211
-48
-221
-270
-317
-503
-792
-999
-998
-872
-809
-895
-1018
-990
-723
-265
297
879
1398
1781
2028
2224
2420
2537
2453
2178
1902
1801
1823
1747
1465
1114
896
811
662
317
-104
-345
-301
-127
-69
-208
-403
-481
-442
-456
-663
-999
-1269
-1378
-1448
-1630
-1859
-1867
-1500
-943
-559
-494
-521
-330
93
454
498
282
56
-32
-52
-126
-247
-310
-263
-168
-98
-37
74
238
381
435
416
393
411
437
418
353
293
274
252
160
-16
-191
-257
-189
-67
18
47
71
130
197
216
167
84
9
-37
-57
-66
-89
-149
-236
-290
-258
-170
-125
-194
-354
-499
-557
-547
-552
-622
-744
-860
-935
-974
-1015
-1102
-1259
-1466
-1671
-1839
-1981
-2147
-2351
-2548
-2680
-2728
-2720
-2687
-2617
-2489
-2323
-2174
-2072
-2008
-1956
-1933
-1992
-2182
-2492
-2835
-3082
-3124
-2957
-2700
-2510
-2458
-2456
-2334
-2016
-1606
-1311
-1260
-1394
-1509
-1426
-1121
-745
-491
-441
-534
-632
-635
-540
-404
-315
-352
-515
-694
-737
-606
-442
-442
-639
-864
-913
-753
-521
-340
-192
49
494
1133
1846
2458
2842
3008
3106
3293
3569
3755
3652
3241
2725
2356
2224
2222
2194
2092
2002
2034
2191
2371
2479
2522
2544
2520
2366
2056
1697
1428
1280
1154
951
677
413
202
23
-162
-350
-504
-606
-699
-850
-1082
-1291
-1317
-1140
-985
-1136
-1608
-2075
-2224
-2140
-2187
-2505
-2779
-2631
-2148
-1835
-2022
-2487
-2757
-2717
-2734
-3165
-3924
-4594
-4886
-4860
-4735
-4629
-4524
-4378
-4189
-3969
-3728
-3516
-3421
-3467
-3560
-3544
-3352
-3062
-2811
-2647
-2506
-2305
-2051
-1855
-1798
-1840
-1846
-1738
-1573
-1463
-1425
-1354
-1136
-793
-473
-293
-236
-195
-113
-47
-87
-260
-504
-739
-938
-1118
-1277
-1376
-1381
-1316
-1254
-1251
-1284
-1255
-1098
-859
-678
-648
-731
-787
-719
-556
-409
-344
-326
-288
-221
-173
-158
-135
-75
-26
-57
-157
-218
-151
6
140
211
300
480
683
753
620
387
221
155
84
-55
-162
-69
249
585
688
505
229
56
-31
-224
-643
-1165
-1507
-1481
-1136
-689
-331
-95
121
434
867
1317
1649
1801
1839
1899
2046
2207
2270
2211
2093
1967
1810
1589
1379
1319
1470
1739
1994
2207
2483
2888
3315
3557
3517
3337
3287
3527
3957
4287
4291
3988
3603
3334
3164
2888
2330
1515
659
12
-318
-405
-415
-470
-594
-733
-822
-833
-786
-734
-745
-881
-1140
-1427
-1601
-1614
-1574
-1639
-1853
-2094
-2222
-2227
-2203
-2196
-2138
-1956
-1723
-1629
-1760
-1993
-2105
-2007
-1806
-1656
-1572
-1443
-1192
-881
-658
-595
-620
-611
-522
-404
-309
-215
-66
130
286
300
154
-96
-372
-652
-970
-1354
-1766
-2094
-2230
-2149
-1948
-1774
-1730
-1798
-1894
-1960
-2020
-2143
-2358
-2623
-2859
-2998
-3023
-2984
-2954
-2969
-2993
-2967
-2882
-2804
-2797
-2839
-2844
-2779
-2733
-2806
-2967
-3049
-2924
-2637
-2355
-2181
-2073
-1947
-1814
-1781
-1929
-2219
-2541
-2795
-2942
-2984
-2923
-2745
-2454
-2096
-1763
-1554
-1513
-1610
-1772
-1990
-2326
-2788
-3228
-3406
-3218
-2823
-2507
-2398
-2363
-2195
-1904
-1724
-1834
-2163
-2474
-2622
-2670
-2723
-2756
-2658
-2402
-2096
-1819
-1499
-1017
-420
85
339
410
492
646
723
559
193
-169
-385
-502
-650
-858
-1028
-1058
-965
-850
-777
-729
-674
-630
-650
-749
-879
-964
-998
-1062
-1243
-1540
-1850
-2044
-2091
-2084
-2142
-2287
-2426
-2475
-2468
-2540
-2771
-3089
-3343
-3460
-3504
-3569
-3659
-3698
-3637
-3538
-3507
-3596
-3764
-3937
-4074
-4195
-4340
-4514
-4687
-4805
-4839
-4817
-4813
-4860
-4916
-4927
-4905
-4928
-5020
-5083
-4998
-4774
-4567
-4507
-4562
-4602
-4554
-4471
-4433
-4434
-4402
-4293
-4129
-3936
-3705
-3436
-3178
-3001
-2922
-2900
-2889
-2886
-2910
-2965
-3038
-3125
-3223
-3305
-3321
-3261
-3185
-3182
-3258
-3327
-3298
-3167
-3024
-2958
-2985
-3051
-3104
-3121
-3108
-3085
-3069
-3060
-3035
-2943
-2753
-2480
-2188
-1932
-1717
-1492
-1205
-853
-516
-296
-225
-210
-107
146
440
609
603
553
634
889
1201
1430
1539
1591
1644
1705
1769
1852
1949
2008
1976
1885
1861
1980
2160
2228
2101
1871
1689
1581
1443
1193
886
661
596
648
746
869
1048
1306
1637
2027
2437
2776
2948
2955
2906
2890
2859
2682
2305
1847
1494
1309
1192
1016
761
523
395
364
320
172
-72
-316
-463
-502
-514
-599
-777
-972
-1081
-1085
-1071
-1157
-1367
-1584
-1674
-1605
-1462
-1321
-1176
-1001
-858
-852
-984
-1105
-1105
-1069
-1202
-1561
-1935
-2069
-1948
-1806
-1851
-2047
-2204
-2225
-2179
-2176
-2240
-2327
-2407
-2476
-2525
-2544
-2555
-2597
-2660
-2686
-2639
-2545
-2446
-2357
-2268
-2173
-2075
-1960
-1821
-1707
-1700
-1796
-1870
-1776
-1504
-1178
-915
-732
-582
-450
-353
-278
-207
-171
-241
-418
-581
-589
-434
-245
-138
-92
-15
139
317
430
465
460
459
479
529
620
738
846
908
923
917
898
834
705
576
566
737
1001
1196
1253
1247
1282
1354
1369
1271
1118
1008
954
902
829
782
819
918
1004
1029
1036
1099
1210
1286
1252
1128
1035
1069
1197
1287
1247
1127
1066
1141
1291
1401
1423
1411
1432
1493
1512
1393
1109
724
346
72
-62
-81
-43
-4
14
37
157
470
969
1495
1817
1821
1610
1399
1297
1210
958
476
-105
-573
-807
-840
-791
-757
-770
-819
-889
-947
-950
-884
-819
-874
-1104
-1399
-1572
-1549
-1462
-1494
-1665
-1829
-1877
-1885
-2004
-2233
-2396
-2355
-2190
-2106
-2196
-2350
-2417
-2396
-2423
-2581
-2796
-2927
-2923
-2867
-2869
-2967
-3104
-3186
-3160
-3044
-2925
-2876
-2898
-2922
-2893
-2847
-2882
-3041
-3245
-3369
-3353
-3245
-3134
-3066
-3014
-2912
-2726
-2491
-2279
-2142
-2078
-2039
-1970
-1853
-1719
-1626
-1590
-1551
-1397
-1066
-638
-307
-218
-324
-441
-437
-368
-385
-545
-743
-824
-740
-555
-377
-269
-234
-245
-262
-259
-254
-304
-439
-632
-815
-943
-1012
-1040
-1026
-977
-927
-896
-861
-789
-701
-681
-796
-1011
-1206
-1277
-1211
-1072
-924
-782
-617
-382
-33
431
901
1187
1156
882
607
503
529
501
334
128
44
130
335
608
915
1163
1207
1008
732
603
661
722
591
272
-67
-280
-371
-413
-443
-457
-452
-412
-278
33
536
1127
1656
2045
2338
2630
2972
3297
3466
3392
3134
2839
2619
2442
2213
1899
1584
1382
1308
1258
1098
768
336
-37
-214
-179
-77
-80
-254
-466
-509
-286
101
422
500
368
210
161
146
-35
-475
-1021
-1400
-1482
-1352
-1145
-861
-385
326
1135
1822
2255
2428
2411
2275
2080
1876
1651
1355
982
623
401
346
404
502
614
692
627
352
-53
-395
-556
-629
-813
-1176
-1542
-1668
-1490
-1187
-976
-891
-786
-557
-276
-105
-106
-174
-160
-30
138
232
193
74
17
159
484
804
920
875
961
1401
2062
2543
2587
2327
2063
1911
1712
1286
647
-19
-529
-803
-820
-587
-191
220
532
750
963
1220
1477
1609
1474
1016
362
-218
-491
-456
-338
-355
-498
-566
-395
-27
340
563
666
755
877
973
984
947
934
932
839
613
349
189
154
130
47
19
182
477
682
670
586
655
883
1050
978
752
633
782
1135
1495
1710
1754
1680
1547
1389
1199
956
661
344
64
-106
-100
102
415
676
758
693
624
635
643
488
112
-378
-815
-1114
-1300
-1428
-1494
-1463
-1335
-1159
-989
-855
-790
-846
-1070
-1446
-1891
-2314
-2674
-2978
-3231
-3388
-3369
-3112
-2614
-1950
-1255
-638
-119
367
852
1255
1425
1315
1069
900
877
888
812
675
627
753
971
1117
1108
1015
961
995
1080
1179
1315
1540
1889
2333
2784
3153
3418
3617
3801
3957
4012
3918
3705
3436
3124
2748
2391
2238
2391
2704
2902
2898
2922
3253
3833
4277
4285
3956
3653
3606
3743
3877
3929
3946
3974
4020
4112
4296
4546
4726
4729
4603
4507
4533
4632
4701
4711
4704
4715
4727
4708
4649
4546
4370
4118
3862
3714
3702
3718
3607
3324
3006
2829
2844
2941
2972
2901
2810
2782
2816
2844
2817
2771
2781
2883
3046
3186
3251
3262
3275
3294
3244
3047
2709
2335
2030
1810
1622
1425
1236
1104
1019
913
722
455
194
2
-125
-274
-534
-912
-1320
-1643
-1830
-1931
-2018
-2110
-2159
-2096
-1913
-1650
-1354
-1057
-790
-593
-499
-489
-501
-493
-493
-549
-663
-788
-881
-967
-1102
-1280
-1446
-1567
-1679
-1831
-1999
-2103
-2108
-2076
-2088
-2122
-2086
-1935
-1746
-1637
-1638
-1695
-1749
-1802
-1875
-1960
-2033
-2109
-2222
-2360
-2440
-2374
-2177
-1971
-1867
-1861
-1853
-1762
-1616
-1517
-1538
-1641
-1736
-1754
-1716
-1684
-1666
-1618
-1502
-1344
-1183
-1039
-894
-739
-598
-472
-319
-106
145
395
685
1128
1738
2323
2604
2487
2182
2001
2026
2036
1783
1306
925
922
1252
1601
1715
1631
1573
1674
1826
1845
1708
1569
1573
1673
1716
1640
1568
1626
1774
1841
1737
1575
1524
1584
1583
1414
1191
1111
1183
1192
992
734
723
1039
1401
1461
1198
918
856
903
758
308
-236
-574
-608
-473
-336
-240
-139
-6
142
282
397
462
453
386
323
321
371
430
487
574
711
872
1005
1081
1109
1132
1191
1306
1457
1589
1662
1694
1741
1824
1898
1907
1847
1762
1680
1587
1449
1272
1108
1010
995
1045
1129
1230
1365
1585
1935
2384
2817
3098
3176
3110
2994
2873
2706
2422
2009
1566
1266
1222
1373
1517
1500
1358
1249
1246
1238
1060
697
308
61
-30
-59
-78
-50
65
233
365
406
365
288
201
100
-1
-56
-31
54
127
136
122
156
246
296
212
29
-98
-61
81
154
58
-129
-246
-204
-58
74
130
141
191
343
587
859
1103
1323
1572
1866
2151
2356
2481
2609
2799
3015
3181
3289
3420
3630
3873
4038
4080
4043
3995
3932
3792
3552
3270
3034
2883
2794
2719
2638
2557
2490
2439
2401
2382
2396
2439
2478
2478
2440
2432
2532
2741
2968
3102
3111
3053
3005
2988
2972
2932
2862
2770
2671
2588
2551
2550
2530
2442
2330
2295
2374
2487
2512
2427
2331
2312
2340
2316
2184
1983
1783
1630
1539
1509
1509
1492
1438
1393
1421
1480
1444
1252
1011
880
913
1019
1092
1125
1169
1237
1320
1440
1605
1711
1604
1269
904
726
692
565
213
-224
-523
-660
-789
-986
-1129
-1066
-816
-526
-252
86
539
1001
1281
1286
1080
781
451
95
-281
-644
-934
-1097
-1126
-1094
-1096
-1160
-1227
-1237
-1218
-1245
-1333
-1399
-1390
-1377
-1466
-1643
-1770
-1765
-1714
-1761
-1908
-1994
-1885
-1638
-1415
-1296
-1205
-1032
-795
-612
-560
-593
-624
-625
-641
-692
-728
-686
-586
-520
-552
-639
-678
-636
-580
-574
-578
-487
-287
-124
-149
-336
-491
-464
-320
-253
-337
-421
-296
67
497
812
986
1112
1236
1316
1314
1292
1348
1478
1565
1519
1408
1398
1562
1794
1920
1877
1751
1658
1639
1670
1731
1824
1932
2009
2052
2104
2193
2280
2290
2204
2087
2000
1923
1800
1643
1543
1572
1682
1736
1641
1438
1261
1212
1264
1288
1179
961
768
702
743
784
778
786
888
1041
1109
1020
862
785
826
882
832
681
537
496
551
639
712
761
787
777
720
644
614
680
831
974
995
863
672
573
614
666
556
253
-103
-366
-546
-776
-1138
-1564
-1918
-2138
-2260
-2333
-2356
-2282
-2049
-1598
-923
-115
636
1154
1414
1541
1656
1740
1658
1324
829
378
137
97
112
47
-107
-243
-274
-221
-179
-191
-192
-98
71
205
242
254
341
491
581
537
444
454
606
793
904
969
1112
1381
1675
1846
1862
1830
1870
1991
2116
2187
2229
2289
2368
2418
2413
2386
2383
2406
2415
2384
2350
2374
2471
2577
2615
2564
2474
2417
2424
2476
2533
2575
2596
2603
2602
2594
2580
2550
2494
2408
2310
2231
2198
2213
2258
2299
2308
2280
2242
2216
2205
2190
2155
2107
2058
2015
1989
1986
1998
1987
1916
1788
1674
1646
1692
1706
1608
1439
1332
1359
1449
1448
1290
1065
912
876
880
850
810
835
942
1054
1108
1158
1307
1552
1758
1787
1664
1555
1581
1702
1794
1795
1740
1678
1615
1570
1578
1633
1643
1529
1342
1234
1292
1421
1455
1370
1304
1367
1478
1459
1244
975
860
980
1237
1460
1554
1549
1556
1653
1785
1793
1558
1121
671
379
273
280
366
562
888
1303
1773
2332
2982
3571
3872
3824
3615
3470
3371
3086
2499
1823
1397
1319
1374
1332
1197
1143
1258
1448
1580
1609
1563
1470
1342
1230
1189
1217
1266
1312
1391
1537
1718
1859
1933
1961
1958
1912
1829
1765
1764
1787
1730
1547
1303
1113
1008
904
714
473
309
291
336
280
83
-120
-176
-109
-109
-294
-584
-802
-894
-964
-1099
-1220
-1199
-1054
-948
-976
-1038
-979
-811
-742
-928
-1262
-1474
-1428
-1252
-1148
-1160
-1155
-1036
-862
-752
-725
-720
-714
-763
-898
-1036
-1084
-1065
-1070
-1113
-1092
-950
-800
-814
-996
-1159
-1147
-1037
-1048
-1272
-1562
-1696
-1609
-1414
-1246
-1117
-944
-672
-332
9
304
533
688
773
810
833
863
916
1027
1226
1486
1725
1870
1948
2057
2246
2448
2543
2471
2289
2113
2018
2005
2010
1937
1734
1462
1276
1290
1444
1563
1546
1474
1480
1569
1627
1557
1393
1235
1133
1063
989
899
814
769
786
827
771
505
74
-307
-444
-367
-302
-408
-590
-597
-271
343
1058
1675
2070
2244
2306
2398
2544
2608
2423
1992
1505
1161
988
870
756
724
851
1078
1242
1246
1152
1084
1054
950
663
244
-129
-345
-449
-557
-670
-652
-420
-96
89
43
-70
-32
168
284
76
-407
-871
-1079
-1041
-939
-883
-809
-628
-391
-248
-268
-350
-344
-260
-267
-484
-803
-979
-887
-656
-497
-481
-505
-457
-357
-314
-346
-364
-320
-288
-343
-398
-294
-26
181
101
-203
-445
-458
-406
-608
-1143
-1736
-2039
-1970
-1728
-1534
-1419
-1245
-882
-306
386
1025
1438
1547
1435
1304
1286
1331
1303
1161
1020
1016
1115
1188
1233
1397
1737
2017
1962
1642
1457
1657
1977
1954
1531
1136
1061
1002
453
-514
-1206
-1166
-846
-1103
-2122
-3097
-3118
-2200
-1205
-836
-943
-835
-110
983
1933
2455
2590
2504
2303
2052
1791
1520
1194
751
199
-363
-764
-866
-728
-602
-701
-869
-645
241
1439
2203
2143
1630
1359
1536
1668
1189
139
-893
-1408
-1408
-1189
-920
-574
-151
248
566
886
1285
1668
1845
1773
1601
1470
1349
1144
872
623
390
43
-475
-1008
-1325
-1379
-1326
-1299
-1223
-952
-558
-315
-392
-628
-695
-469
-155
-29
-125
-202
-30
387
859
1207
1402
1531
1662
1780
1798
1641
1303
853
390
-3
-303
-530
-702
-797
-775
-628
-447
-373
-471
-640
-700
-635
-676
-1111
-1967
-2926
-3568
-3718
-3544
-3334
-3200
-2999
-2519
-1724
-812
-58
410
669
843
944
873
613
325
218
337
522
613
652
826
1246
1804
2274
2508
2542
2525
2612
2866
3234
3611
3930
4205
4503
4861
5248
5587
5829
5962
5983
5865
5602
5237
4862
4587
4475
4511
4602
4644
4606
4560
4590
4657
4620
4412
4092
3779
3549
3408
3334
3278
3154
2905
2623
2483
2479
2300
1628
587
-224
-308
180
609
594
427
697
1587
2687
3462
3805
4020
4372
4820
5165
5348
5510
5764
6040
6166
6096
5969
5924
5948
5869
5534
4981
4393
3899
3479
3060
2661
2373
2233
2168
2090
2014
2032
2188
2434
2703
2975
3233
3395
3361
3136
2863
2681
2564
2362
1980
1493
1064
780
595
413
202
4
-137
-232
-326
-448
-599
-778
-985
-1208
-1399
-1497
-1490
-1422
-1360
-1344
-1373
-1420
-1458
-1489
-1543
-1674
-1888
-2105
-2207
-2157
-2061
-2063
-2183
-2295
-2276
-2157
-2085
-2154
-2300
-2405
-2429
-2449
-2520
-2589
-2565
-2437
-2320
-2322
-2423
-2490
-2439
-2352
-2383
-2568
-2772
-2835
-2756
-2687
-2736
-2827
-2788
-2565
-2280
-2084
-1991
-1897
-1730
-1533
-1395
-1336
-1293
-1189
-994
-723
-411
-108
158
409
723
1145
1616
1995
2179
2203
2215
2329
2506
2602
2518
2297
2094
2037
2135
2291
2409
2487
2595
2783
3011
3205
3342
3472
3660
3898
4100
4167
4065
3863
3717
3779
4069
4389
4430
4047
3445
3036
3050
3298
3357
3008
2457
2109
2166
2481
2762
2857
2819
2757
2702
2632
2561
2550
2615
2674
2615
2427
2233
2189
2345
2578
2710
2665
2515
2369
2256
2115
1917
1713
1546
1353
1019
537
62
-233
-333
-354
-385
-386
-284
-98
86
246
447
710
946
1051
1044
1041
1099
1140
1066
886
698
566
465
353
243
181
189
252
346
449
543
629
734
879
1022
1076
1001
876
830
893
960
917
764
598
494
442
390
315
233
148
45
-75
-168
-185
-123
-48
-33
-105
-226
-333
-395
-434
-498
-610
-763
-924
-1059
-1135
-1122
-1028
-915
-861
-888
-933
-922
-861
-823
-855
-923
-961
-960
-966
-1001
-1025
-981
-888
-819
-812
-822
-775
-659
-532
-450
-421
-412
-386
-339
-291
-263
-250
-228
-178
-116
-72
-50
-28
12
53
70
86
150
264
354
352
293
302
462
728
986
1191
1410
1727
2138
2562
2929
3236
3510
3740
3885
3928
3912
3906
3924
3905
3782
3560
3328
3170
3085
2999
2846
2641
2445
2300
2207
2164
2168
2185
2141
1988
1775
1609
1533
1477
1350
1161
1014
985
1036
1075
1069
1053
1055
1045
1000
942
901
855
759
636
572
599
635
569
414
331
443
700
928
1033
1096
1270
1623
2084
2510
2800
2936
2963
2941
2891
2768
2522
2163
1783
1492
1330
1248
1177
1080
973
881
805
725
610
433
186
-110
-405
-634
-755
-762
-694
-619
-582
-580
-594
-624
-698
-833
-1001
-1153
-1250
-1292
-1302
-1294
-1275
-1251
-1219
-1180
-1148
-1148
-1179
-1189
-1114
-982
-909
-992
-1192
-1379
-1479
-1553
-1702
-1946
-2212
-2418
-2538
-2571
-2509
-2368
-2208
-2093
-2027
-1967
-1916
-1922
-2019
-2152
-2221
-2188
-2114
-2078
-2102
-2139
-2125
-2018
-1809
-1547
-1337
-1282
-1370
-1464
-1425
-1253
-1070
-960
-839
-546
-31
574
1074
1407
1660
1930
2189
2306
2196
1934
1708
1655
1752
1853
1839
1733
1673
1756
1924
2031
1991
1863
1765
1730
1694
1609
1526
1522
1588
1625
1574
1493
1475
1538
1618
1679
1754
1873
1987
2005
1897
1722
1562
1444
1337
1223
1114
1017
904
739
545
393
340
358
371
335
299
352
524
735
871
868
752
575
357
72
-299
-726
-1133
-1452
-1671
-1824
-1938
-1989
-1945
-1820
-1673
-1544
-1400
-1176
-866
-532
-261
-83
31
115
171
167
48
-225
-630
-1064
-1400
-1599
-1749
-1947
-2179
-2336
-2338
-2220
-2080
-1982
-1931
-1926
-1969
-2034
-2061
-2027
-1983
-1998
-2077
-2152
-2165
-2122
-2072
-2040
-2022
-2000
-1980
-1976
-2010
-2083
-2162
-2211
-2231
-2272
-2379
-2509
-2548
-2435
-2246
-2120
-2112
-2145
-2105
-1975
-1827
-1728
-1683
-1657
-1614
-1527
-1370
-1145
-889
-639
-405
-201
-67
-43
-89
-90
19
176
266
279
329
521
821
1098
1277
1395
1514
1638
1728
1768
1794
1832
1869
1885
1904
1978
2129
2304
2428
2477
2491
2528
2584
2606
2562
2493
2470
2498
2512
2453
2356
2324
2389
2462
2436
2309
2187
2137
2104
2004
1861
1798
1874
1991
2001
1879
1774
1822
1992
2114
2065
1913
1824
1893
2062
2193
2205
2124
2031
1986
1997
2020
1989
1854
1642
1439
1320
1270
1205
1067
901
791
763
743
653
526
472
537
625
587
417
257
221
243
159
-96
-418
-657
-767
-781
-713
-572
-428
-355
-298
-57
495
1196
1702
1840
1786
1838
2058
2219
2113
1777
1428
1200
1061
938
835
783
756
709
666
713
878
1060
1137
1104
1060
1084
1155
1194
1165
1116
1095
1089
1064
1030
1032
1085
1157
1201
1226
1260
1297
1291
1217
1101
984
871
763
681
647
629
561
442
363
414
543
589
464
268
218
391
629
690
501
244
172
352
593
670
578
535
746
1162
1512
1590
1458
1346
1391
1499
1487
1309
1106
1049
1171
1373
1537
1635
1714
1811
1902
1926
1855
1724
1604
1529
1487
1428
1331
1228
1181
1213
1261
1248
1165
1091
1098
1154
1153
1057
971
1027
1192
1286
1211
1102
1195
1526
1845
1874
1619
1376
1395
1608
1714
1512
1092
714
545
541
566
531
453
386
373
435
569
716
782
719
565
416
328
264
152
-17
-171
-247
-262
-278
-326
-375
-366
-287
-174
-78
-31
-36
-69
-98
-117
-161
-264
-414
-556
-635
-645
-603
-497
-281
59
462
844
1203
1612
2116
2618
2950
3040
3000
2992
3021
2898
2452
1758
1115
758
632
489
172
-199
-368
-215
136
450
579
527
379
215
84
5
-44
-123
-282
-483
-634
-674
-633
-585
-579
-617
-683
-756
-800
-796
-776
-803
-906
-1038
-1147
-1247
-1389
-1557
-1666
-1669
-1630
-1625
-1619
-1513
-1315
-1182
-1252
-1457
-1608
-1629
-1639
-1779
-2020
-2202
-2220
-2098
-1909
-1691
-1478
-1347
-1351
-1421
-1419
-1294
-1155
-1146
-1279
-1411
-1400
-1216
-962
-759
-648
-575
-475
-358
-271
-225
-166
-59
42
57
-19
-104
-155
-227
-384
-583
-699
-672
-536
-297
137
804
1526
2007
2141
2142
2279
2534
2599
2242
1591
1028
824
943
1163
1323
1416
1526
1714
1971
2241
2458
2581
2594
2504
2345
2178
2055
1987
1923
1800
1603
1375
1164
990
865
790
739
619
312
-197
-740
-1050
-951
-490
106
630
1041
1460
1993
2596
3065
3163
2845
2289
1737
1277
785
143
-544
-996
-1074
-947
-877
-875
-716
-285
210
481
532
661
1049
1506
1730
1694
1646
1746
1854
1767
1549
1451
1572
1758
1825
1783
1751
1754
1687
1508
1367
1437
1703
1971
2053
1971
1969
2294
2921
3487
3560
3054
2358
1969
1986
2006
1580
707
-166
-606
-588
-437
-465
-753
-1180
-1571
-1784
-1747
-1494
-1170
-943
-854
-807
-680
-459
-250
-164
-243
-445
-679
-866
-992
-1099
-1260
-1475
-1653
-1718
-1722
-1804
-2021
-2241
-2280
-2114
-1938
-1952
-2137
-2271
-2185
-1949
-1788
-1812
-1882
-1765
-1399
-962
-697
-655
-665
-546
-300
-108
-126
-299
-452
-489
-475
-524
-627
-659
-563
-433
-410
-506
-594
-571
-500
-535
-723
-917
-911
-632
-198
203
491
700
870
982
987
890
749
616
513
490
652
1063
1644
2202
2592
2847
3111
3440
3729
3839
3773
3706
3828
4172
4590
4891
5019
5068
5155
5277
5324
5215
4992
4778
4629
4502
4352
4205
4101
3966
3630
3024
2309
1772
1558
1551
1527
1376
1188
1112
1191
1323
1349
1176
842
475
204
84
60
43
10
29
175
435
709
872
860
706
481
216
-141
-660
-1306
-1916
-2344
-2639
-2996
-3504
-3959
-4026
-3619
-3004
-2485
-2029
-1342
-298
835
1655
2039
2189
2315
2385
2252
1925
1591
1409
1370
1385
1433
1562
1768
1955
2015
1914
1679
1368
1055
812
673
604
556
523
546
633
702
630
357
-50
-451
-761
-1010
-1293
-1646
-1994
-2214
-2250
-2156
-2045
-1983
-1957
-1946
-1966
-2048
-2180
-2299
-2367
-2413
-2495
-2628
-2747
-2775
-2699
-2581
-2486
-2416
-2329
-2213
-2115
-2091
-2135
-2186
-2210
-2232
-2282
-2338
-2343
-2277
-2199
-2187
-2259
-2368
-2465
-2536
-2605
-2697
-2812
-2940
-3067
-3180
-3282
-3375
-3452
-3475
-3412
-3268
-3098
-2962
-2876
-2815
-2747
-2659
-2556
-2456
-2372
-2294
-2172
-1962
-1674
-1375
-1128
-926
-733
-544
-408
-355
-336
-271
-151
-34
33
95
238
488
790
1064
1281
1434
1507
1514
1534
1672
1951
2233
2337
2231
2099
2177
2511
2926
3190
3243
3206
3222
3283
3246
2998
2587
2188
1954
1892
1912
1974
2129
2459
2962
3552
4144
4696
5180
5541
5744
5832
5877
5884
5779
5512
5165
4877
4679
4463
4133
3730
3376
3120
2920
2730
2586
2555
2637
2755
2801
2705
2499
2360
2496
2893
3211
3028
2297
1472
1073
1111
1082
556
-312
-962
-1050
-778
-586
-657
-813
-843
-775
-794
-963
-1167
-1292
-1380
-1571
-1911
-2282
-2532
-2614
-2617
-2677
-2847
-3081
-3290
-3422
-3480
-3498
-3485
-3435
-3357
-3283
-3237
-3203
-3153
-3067
-2819
-2731
-2444
-2075
-1666
-1272
-914
-609
-400
-355
-478
-668
-808
-879
-960
-1100
-1220
-1184
-951
-624
-327
-107
49
130
109
4
-98
-142
-161
-235
-371
-472
-443
-313
-200
-194
-274
-369
-434
-482
-537
-596
-644
-672
-681
-668
-626
-576
-559
-584
-600
-527
-356
-175
-81
-72
-57
36
177
267
250
159
69
19
11
50
141
267
389
488
604
786
1018
1215
1302
1286
1244
1242
1289
1351
1398
1425
1425
1389
1324
1251
1175
1084
956
803
675
634
717
919
1201
1502
1779
2031
2297
2611
2956
3264
3456
3505
3461
3392
3320
3200
2976
2660
2349
2159
2123
2167
2194
2175
2168
2230
2339
2402
2349
2186
1982
1802
1670
1586
1561
1604
1711
1845
1958
2014
2004
1930
1806
1636
1433
1213
998
819
702
629
562
481
429
469
585
674
631
472
340
342
422
419
238
-40
-265
-388
-480
-604
-725
-755
-670
-529
-376
-196
16
190
242
196
162
185
189
72
-137
-297
-298
-184
-68
-7
23
66
138
232
327
374
346
274
243
301
384
396
340
313
370
418
326
94
-120
-163
-25
181
334
393
397
407
453
505
488
364
178
23
-61
-114
-150
-109
55
266
392
403
428
577
786
896
879
880
1030
1259
1389
1363
1294
1298
1346
1332
1228
1104
1021
947
829
662
462
229
-38
-304
-510
-665
-849
-1099
-1335
-1426
-1350
-1248
-1270
-1423
-1583
-1652
-1663
-1721
-1875
-2078
-2264
-2442
-2664
-2925
-3118
-3124
-2942
-2691
-2485
-2307
-2037
-1584
-986
-377
135
520
793
972
1067
1103
1102
1047
889
607
242
-114
-387
-566
-695
-822
-971
-1145
-1323
-1474
-1577
-1653
-1762
-1958
-2217
-2436
-2520
-2488
-2461
-2558
-2791
-3071
-3316
-3524
-3758
-4051
-4364
-4617
-4771
-4850
-4912
-4999
-5117
-5244
-5368
-5485
-5606
-5750
-5925
-6127
-6323
-6475
-6562
-6600
-6612
-6602
-6543
-6430
-6311
-6277
-6382
-6583
-6780
-6923
-7064
-7290
-7594
-7841
-7887
-7731
-7516
-7387
-7354
-7326
-7257
-7204
-7255
-7399
-7529
-7560
-7504
-7418
-7306
-7109
-6811
-6500
-6303
-6254
-6268
-6259
-6241
-6303
-6464
-6616
-6626
-6483
-6311
-6213
-6158
-6032
-5801
-5567
-5447
-5424
-5362
-5168
-4889
-4648
-4491
-4351
-4156
-3928
-3752
-3668
-3621
-3531
-3385
-3240
-3140
-3056
-2920
-2701
-2454
-2274
-2208
-2217
-2219
-2184
-2145
-2152
-2201
-2240
-2230
-2168
-2066
-1911
-1700
-1494
-1385
-1387
-1392
-1270
-1034
-860
-890
-1077
-1225
-1204
-1076
-1002
-1054
-1163
-1228
-1231
-1232
-1291
-1431
-1662
-1972
-2318
-2628
-2850
-2984
-3048
-3032
-2917
-2692
-2358
-1923
-1411
-910
-537
-348
-301
-328
-422
-630
-943
-1267
-1528
-1757
-2026
-2306
-2470
-2451
-2364
-2385
-2548
-2715
-2743
-2669
-2645
-2755
-2928
-3051
-3099
-3119
-3152
-3183
-3191
-3193
-3230
-3311
-3402
-3474
-3524
-3577
-3642
-3717
-3789
-3855
-3918
-3990
-4061
-4109
-4121
-4132
-4207
-4373
-4558
-4647
-4621
-4601
-4734
-5001
-5225
-5275
-5210
-5219
-5403
-5671
-5851
-5866
-5783
-5713
-5704
-5735
-5760
-5745
-5665
-5538
-5420
-5374
-5423
-5504
-5512
-5402
-5242
-5151
-5186
-5268
-5269
-5136
-4961
-4874
-4887
-4876
-4731
-4472
-4220
-4061
-3984
-3927
-3850
-3748
-3619
-3488
-3408
-3410
-3443
-3410
-3275
-3123
-3056
-3074
-3101
-3100
-3123
-3218
-3342
-3397
-3363
-3325
-3350
-3403
-3392
-3278
-3121
-3007
-2947
-2875
-2722
-2506
-2302
-2155
-2021
-1827
-1561
-1308
-1157
-1106
-1062
-967
-869
-844
-881
-882
-783
-626
-489
-377
-235
-64
37
-32
-245
-473
-635
-774
-975
