550
785
899
837
643
441
329
292
237
100
-65
-145
-72
117
328
487
577
616
609
553
455
360
323
358
426
461
458
487
607
775
860
788
636
536
533
531
430
268
181
250
415
569
674
772
897
1022
1101
1130
1138
1135
1103
1033
963
941
975
1024
1034
990
937
926
955
957
862
689
543
530
647
790
846
799
719
677
678
685
679
670
666
645
572
453
348
313
357
424
442
386
291
211
172
170
179
185
178
148
94
26
-27
-31
16
73
99
91
84
109
155
170
127
59
34
79
148
189
193
181
170
153
128
111
115
116
83
26
-9
5
59
128
197
254
265
204
105
46
64
109
103
40
-9
1
25
-9
-96
-157
-132
-57
-26
-88
-196
-253
-214
-120
-55
-67
-129
-162
-125
-60
-40
-84
-126
-91
-1
45
-12
-115
-164
-138
-110
-134
-165
-117
4
93
76
14
30
161
307
356
310
256
247
260
266
285
346
420
433
357
250
186
177
174
150
117
83
22
-83
-200
-264
-258
-239
-271
-351
-412
-413
-403
-452
-549
-598
-542
-452
-471
-639
-826
-867
-748
-617
-607
-692
-736
-673
-579
-570
-652
-731
-732
-678
-641
-640
-639
-605
-550
-494
-417
-268
-36
218
416
535
603
642
600
368
-120
-823
-1630
-2447
-3245
-3993
-4607
-4984
-5081
-4946
-4660
-4269
-3788
-3256
-2756
-2357
-2074
-1868
-1709
-1594
-1524
-1472
-1397
-1275
-1112
-933
-759
-616
-534
-522
-543
-535
-469
-378
-321
-321
-345
-354
-341
-335
-349
-364
-353
-311
-271
-268
-308
-359
-379
-356
-308
-267
-258
-288
-348
-420
-478
-502
-488
-447
-411
-403
-424
-449
-454
-428
-386
-357
-365
-416
-492
-564
-606
-618
-612
-597
-568
-531
-512
-529
-562
-560
-500
-422
-383
-390
-391
-335
-231
-129
-54
14
100
181
212
185
143
135
164
192
205
224
270
330
365
363
352
367
411
451
455
421
374
338
321
323
338
362
385
389
360
304
249
218
211
206
184
153
137
150
170
162
118
70
65
108
150
135
57
-34
-82
-77
-56
-55
-81
-117
-148
-177
-209
-243
-263
-259
-231
-197
-183
-204
-250
-285
-273
-216
-146
-101
-94
-115
-141
-151
-130
-84
-40
-28
-50
-83
-108
-127
-148
-157
-123
-49
13
14
-41
-95
-101
-78
-68
-86
-105
-98
-67
-38
-22
0
49
127
214
282
311
291
236
177
150
170
217
243
211
132
46
-5
-17
-16
-27
-60
-111
-181
-265
-344
-381
-362
-312
-282
-302
-359
-412
-433
-435
-448
-489
-545
-592
-626
-667
-729
-797
-835
-823
-784
-760
-770
-799
-826
-854
-892
-933
-946
-919
-886
-902
-983
-1090
-1159
-1168
-1148
-1144
-1181
-1253
-1341
-1424
-1483
-1505
-1502
-1499
-1509
-1523
-1516
-1488
-1465
-1468
-1478
-1454
-1388
-1327
-1329
-1396
-1471
-1491
-1457
-1413
-1398
-1404
-1402
-1394
-1414
-1475
-1529
-1509
-1407
-1296
-1257
-1289
-1318
-1288
-1215
-1139
-1044
-869
-598
-300
-54
132
296
411
344
-31
-711
-1564
-2455
-3327
-4155
-4872
-5380
-5611
-5573
-5308
-4862
-4295
-3709
-3220
-2877
-2635
-2422
-2219
-2072
-2018
-2029
-2025
-1939
-1762
-1543
-1350
-1231
-1185
-1181
-1187
-1195
-1207
-1213
-1186
-1116
-1044
-1031
-1099
-1196
-1235
-1181
-1078
-1003
-1000
-1054
-1115
-1140
-1118
-1067
-1013
-974
-956
-957
-971
-990
-998
-973
-910
-820
-733
-676
-659
-671
-686
-669
-605
-526
-480
-490
-524
-527
-488
-444
-423
-405
-345
-245
-171
-183
-260
-322
-312
-261
-243
-280
-322
-308
-250
-215
-241
-277
-240
-124
-22
-26
-124
-214
-219
-174
-162
-204
-231
-184
-105
-99
-196
-306
-318
-227
-129
-129
-231
-362
-451
-483
-487
-497
-535
-607
-701
-787
-842
-869
-880
-882
-864
-830
-814
-842
-906
-967
-994
-1001
-1018
-1054
-1089
-1107
-1120
-1150
-1191
-1204
-1156
-1065
-987
-972
-1008
-1037
-1011
-942
-884
-867
-859
-814
-728
-655
-646
-690
-720
-684
-594
-510
-482
-508
-540
-529
-455
-341
-236
-181
-185
-227
-280
-324
-343
-334
-308
-289
-290
-296
-271
-199
-109
-43
-8
28
82
122
107
52
25
62
130
176
192
220
278
333
350
357
409
512
613
671
709
775
870
947
994
1048
1143
1244
1288
1269
1237
1228
1220
1185
1143
1131
1146
1129
1033
889
773
725
719
701
633
510
365
247
205
259
400
596
809
1002
1145
1232
1298
1395
1534
1659
1692
1600
1438
1299
1231
1205
1158
1074
1008
1023
1117
1238
1345
1433
1502
1529
1479
1363
1248
1165
1039
752
296
-181
-486
-562
-546
-626
-839
-1021
-963
-616
-151
200
350
402
497
655
773
758
626
450
273
109
-13
-49
-3
43
12
-81
-134
-93
-45
-127
-386
-719
-960
-1003
-882
-729
-651
-632
-544
-278
120
489
718
863
1049
1275
1359
1095
448
-438
-1385
-2291
-3118
-3835
-4396
-4730
-4748
-4389
-3712
-2916
-2198
-1602
-1046
-517
-154
-96
-288
-507
-593
-578
-579
-605
-559
-409
-245
-146
-74
36
113
0
-340
-711
-839
-667
-409
-290
-293
-212
53
353
446
288
114
172
427
575
340
-234
-814
-1053
-862
-436
-66
82
69
109
389
891
1389
1619
1506
1219
1003
943
944
865
640
293
-96
-417
-579
-582
-563
-646
-799
-898
-979
-1281
-1963
-2787
-3255
-3133
-2754
-2650
-2905
-3024
-2485
-1332
-110
704
1095
1326
1547
1677
1620
1437
1251
1080
849
552
334
331
505
689
734
571
176
-399
-985
-1319
-1229
-854
-589
-735
-1193
-1519
-1374
-847
-372
-335
-778
-1440
-2017
-2362
-2500
-2508
-2438
-2289
-2028
-1611
-1006
-258
490
1046
1276
1195
924
595
278
-19
-288
-513
-683
-795
-832
-747
-521
-251
-133
-280
-602
-876
-981
-1021
-1183
-1496
-1764
-1789
-1581
-1303
-1052
-793
-551
-551
-1028
-1922
-2823
-3328
-3369
-3148
-2792
-2162
-1085
350
1789
2894
3543
3751
3510
2824
1849
898
235
-128
-343
-481
-446
-123
424
906
1002
623
-10
-586
-983
-1312
-1691
-1987
-1903
-1356
-685
-372
-565
-967
-1212
-1264
-1367
-1655
-1976
-2096
-1965
-1683
-1286
-680
160
1033
1651
1907
1970
2064
2226
2267
1989
1402
743
306
222
402
614
655
480
200
-53
-225
-388
-687
-1187
-1774
-2230
-2425
-2372
-2133
-1723
-1153
-545
-74
231
524
895
1141
938
280
-371
-507
-92
433
682
711
842
1190
1545
1662
1511
1206
762
130
-586
-1079
-1123
-799
-413
-176
-48
115
367
642
832
811
492
-76
-660
-977
-921
-676
-518
-546
-605
-476
-105
348
623
524
28
-709
-1410
-1806
-1767
-1359
-773
-215
204
536
921
1419
1872
1989
1587
786
-74
-704
-1011
-1052
-892
-604
-303
-96
40
231
504
656
420
-262
-1176
-2029
-2669
-3077
-3218
-2981
-2308
-1307
-210
780
1571
2119
2359
2236
1797
1211
673
302
150
263
679
1346
2052
2492
2476
2027
1295
369
-738
-1957
-3074
-3848
-4182
-4148
-3851
-3333
-2689
-2147
-1925
-1984
-2030
-1817
-1427
-1138
-1071
-1035
-770
-251
279
561
545
370
181
-5
-275
-673
-1057
-1119
-617
334
1265
1736
1750
1741
2066
2566
2703
2141
1115
184
-290
-371
-330
-299
-207
19
320
580
744
825
817
670
381
71
-104
-120
-134
-316
-635
-857
-773
-419
-45
135
141
194
497
1014
1436
1377
688
-346
-1136
-1227
-678
6
368
415
546
1075
1865
2445
2459
1952
1273
740
436
276
180
144
196
325
494
684
876
1018
1048
954
773
525
170
-282
-650
-667
-274
223
412
214
1
212
878
1586
1895
1721
1321
973
751
587
422
269
169
121
122
178
275
361
368
267
117
5
-55
-138
-313
-529
-648
-602
-498
-502
-632
-713
-572
-241
62
162
85
-18
-64
-108
-238
-451
-656
-776
-806
-777
-706
-607
-504
-455
-484
-569
-654
-699
-703
-683
-631
-552
-477
-431
-392
-310
-189
-103
-106
-153
-166
-188
-368
-742
-1082
-1085
-724
-339
-284
-527
-694
-490
-86
316
25
-286
-436
-431
-384
-392
-462
-516
-471
-320
-167
-129
-218
-325
-346
-299
-292
-390
-530
-596
-548
-453
-414
-454
-507
-512
-493
-531
-650
-756
-733
-602
-540
-684
-945
-1069
-915
-628
-496
-620
-795
-734
-394
-35
56
-140
-392
-474
-386
-293
-326
-458
-582
-655
-714
-801
-885
-901
-850
-814
-881
-1056
-1252
-1374
-1396
-1368
-1359
-1395
-1461
-1534
-1604
-1672
-1722
-1723
-1671
-1617
-1632
-1736
-1871
-1963
-2006
-2063
-2173
-2259
-2190
-1928
-1609
-1427
-1436
-1485
-1378
-1096
-835
-817
-1068
-1406
-1617
-1641
-1570
-1519
-1519
-1539
-1555
-1581
-1633
-1688
-1709
-1694
-1681
-1703
-1751
-1783
-1778
-1757
-1755
-1770
-1766
-1734
-1728
-1813
-1985
-2158
-2235
-2198
-2111
-2058
-2099
-2252
-2479
-2679
-2730
-2582
-2326
-2129
-2080
-2109
-2085
-1966
-1837
-1803
-1873
-1966
-2007
-1992
-1962
-1956
-1982
-2029
-2076
-2093
-2057
-1980
-1912
-1898
-1942
-2003
-2024
-1965
-1811
-1576
-1312
-1077
-902
-764
-625
-497
-472
-662
-1107
-1758
-2527
-3350
-4176
-4926
-5483
-5756
-5742
-5532
-5231
-4885
-4483
-3999
-3450
-2904
-2437
-2090
-1846
-1642
-1424
-1174
-916
-683
-486
-330
-228
-199
-240
-305
-324
-268
-175
-115
-127
-182
-225
-235
-234
-245
-252
-208
-98
30
104
89
15
-51
-74
-63
-59
-95
-175
-276
-361
-392
-350
-256
-172
-167
-258
-392
-484
-489
-429
-370
-359
-407
-497
-601
-681
-704
-670
-622
-600
-605
-611
-608
-621
-673
-728
-729
-668
-596
-573
-599
-624
-621
-598
-568
-521
-449
-378
-360
-407
-474
-511
-510
-489
-450
-375
-290
-270
-372
-551
-683
-679
-578
-508
-563
-719
-878
-968
-995
-1012
-1050
-1093
-1111
-1107
-1111
-1143
-1190
-1215
-1196
-1147
-1087
-1022
-953
-902
-892
-923
-957
-955
-908
-839
-785
-787
-855
-956
-1018
-991
-919
-890
-900
-796
-422
140
535
413
-236
-1031
-1493
-1418
-997
-631
-641
-1085
-1762
-2347
-2564
-2340
-1848
-1407
-1314
-1686
-2412
-3230
-3844
-4065
-3899
-3554
-3358
-3599
-4344
-5384
-6349
-6911
-6995
-6814
-6738
-7078
-7919
-9084
-10249
-11086
-11459
-11524
-11630
-12102
-13005
-14097
-15016
-15530
-15675
-15732
-16053
-16842
-17941
-18896
-18751
-17599
-15873
-14580
-14424
-15214
-16003
-15862
-14585
-12750
-11182
-10377
-10295
-10515
-10538
-10025
-8941
-7582
-6411
-5780
-5733
-6000
-6220
-6138
-5682
-4939
-4090
-3336
-2836
-2649
-2703
-2832
-2852
-2637
-2175
-1565
-970
-552
-383
-413
-508
-498
-446
-434
-383
-135
274
503
274
-170
-254
228
780
864
769
1264
2174
1744
-1861
-8249
-14468
-17575
-17524
-17094
-18796
-22104
-23996
-22137
-17220
-12171
-9425
-9145
-9801
-9966
-9349
-8462
-7778
-7337
-7027
-6686
-6200
-5447
-4329
-2975
-1777
-1117
-1096
-1465
-1823
-1827
-1339
-447
598
1496
2027
2132
1938
1690
1594
1714
2047
2313
2319
3052
3440
3078
2054
1502
1735
3179
3575
3096
3100
5047
5991
4692
1606
1075
4379
6673
872
-11478
-23246
-26552
-21292
-12443
-3523
4730
9683
8566
3458
851
7764
20373
27952
23243
9332
-4406
-12996
-14148
-9537
-433
5754
3618
-4826
-8695
-2651
7903
9775
-271
-11878
-12507
-3176
5746
9586
12654
18815
24884
20602
7186
-2326
2298
17148
27014
20424
2835
-9697
-6613
7796
16685
10802
-5425
-17581
-15356
-2830
8468
8602
-1341
-11354
-11976
-4982
698
-1401
-9925
-16148
-13251
-4559
813
1573
2637
10101
19692
22978
17427
8672
4978
5645
4209
-358
-4156
-3062
-270
-672
-6174
-11652
-12649
-8706
-2088
7133
17283
21954
15367
-820
-14690
-15322
-5935
512
-3324
-11041
-10996
-716
8866
6571
-3150
-7989
-5108
-2062
-6448
-10700
-3017
14942
26491
16854
-3084
-11379
-542
14665
15416
3510
-1613
10914
27201
27400
10922
-3879
-1575
12797
20042
10828
-4595
-13331
-12242
-7788
-5160
-3259
1554
6793
7975
5398
2649
854
-1684
-5500
-8594
-7092
-5094
-7735
-13204
-15663
-8133
2260
4538
-3949
-14037
-14614
-3657
7266
7160
-2427
-9854
-6801
3645
11342
8165
1238
391
7018
12574
8664
-1765
-6654
1527
13189
13939
417
-17379
-24729
-16450
-1955
6277
4576
-4176
-11093
-9469
-541
10931
16799
14622
6912
-1687
-7283
-8548
-5575
-737
2673
1553
-4415
-8672
-7573
-3244
-379
-2054
-5097
-5800
-3510
-1201
-153
2191
8757
18308
26334
26400
17468
7155
3905
10665
21600
25581
19138
8179
313
-1942
-2884
-4458
-5087
-475
7397
10407
4420
-4875
-6397
3283
17424
25853
23998
16286
8990
5361
3487
863
-1398
-2670
-227
4921
9820
10153
7323
3602
3973
8298
9678
1614
-14039
-26877
-26954
-14809
485
8047
5175
-1972
-6518
-4551
1321
3682
549
-6583
-11933
-13461
-13044
-14686
-15794
-11721
-1672
4990
2540
-2994
706
14594
24712
16716
-3669
-14834
-4108
15943
23507
11808
-3698
-4677
7539
14654
5172
-10591
-14127
110
17904
20627
5454
-11179
-10841
6138
25245
27774
12305
-8146
-19257
-17348
-9173
-2140
982
-1465
-7475
-15086
-19148
-15593
-5702
4887
8361
2731
-9845
-19862
-20085
-9366
3718
9867
7285
2967
4766
12219
17718
18425
16484
16763
18851
19048
15253
8432
1095
-7554
-15692
-17898
-9372
8525
25976
31497
22127
6014
-2235
3532
18585
29096
27105
16644
9961
14976
24310
27865
23398
18320
17587
16994
10226
745
-3539
39
2454
-4869
-16544
-17717
-4559
10586
12259
-92
-14133
-18188
-14452
-10900
-9466
-5520
1313
3753
-4006
-15842
-18336
-8548
-94
-6987
-24658
-32661
-19913
2456
10892
-1445
-15934
-11601
10928
29175
24339
2461
-13566
-10692
2719
7573
-970
-13299
-14831
-3876
10571
17498
14548
10074
11499
18949
25269
23312
13595
3386
213
3935
6681
3673
-3209
-5214
204
10598
17394
14987
2914
-11492
-18377
-12929
272
10221
9236
1105
-1916
4711
14612
16304
11040
5969
8156
13023
13280
9787
9410
15123
20883
19834
13611
9497
10318
13682
18378
21819
18946
6454
-11063
-19277
-10117
5551
9449
-1649
-8758
2393
21693
26056
8935
-9970
-11733
459
5746
-3835
-14508
-10287
5132
12597
6787
259
5311
17381
17667
-81
-22089
-27411
-13588
2899
5189
-4311
-11064
-7085
2156
4744
-588
-5908
-4475
983
4858
4326
1556
-2554
-9009
-15626
-15686
-5592
8252
14681
9719
-51
-5477
-6273
-7695
-11049
-11037
-4551
2333
740
-7107
-9039
2382
19298
24106
11149
-7700
-14740
-6065
6801
12152
6885
-908
-5578
-6599
-5323
-4832
-4574
-4725
-3992
-2746
-1188
2105
7319
16621
24516
24883
12420
-7047
-20904
-21916
-13046
-4105
468
420
-1501
-2883
-2804
-1229
350
531
636
3566
9922
13284
7732
-4510
-15851
-19290
-17495
-16307
-16832
-18129
-17839
-17705
-18328
-19068
-20256
-22666
-25250
-19886
-5434
11377
17588
9460
-3385
-12391
-15271
-16755
-16792
-12672
-4180
-240
-7373
-21333
-28812
-21663
-6290
7328
13422
13712
12311
11872
12241
12958
11805
7459
-23
-10124
-16489
-15174
-5918
4755
6363
-2890
-14297
-15108
-3658
5170
-1711
-19343
-27691
-14865
8447
18848
9337
-4992
-5909
3890
8058
-2800
-17795
-20518
-10253
155
781
-2086
1703
12241
20394
20987
18581
18678
20660
20110
18396
17394
16971
13995
8302
5948
7597
6714
-234
-8439
-6749
4113
12103
9780
3122
3675
12906
20684
19206
12643
9684
11466
13211
13272
14838
18955
21467
18009
11809
11143
17663
23279
21504
15196
12799
17556
22621
20209
12613
9982
16333
23882
22385
12917
4872
5633
11099
14584
16103
20105
26936
28995
23163
14896
12025
12664
8660
-3882
-14946
-13922
-2332
7434
6035
-3161
-10185
-6956
2181
8386
4010
-8830
-20096
-20087
-9232
985
807
-6814
-9168
-653
10866
13219
5167
-59
3259
10044
8780
-1197
-8884
-8457
-2060
926
445
-598
-653
-4139
-10088
-13519
-7834
2479
9267
9361
7464
9463
11717
9375
1904
-4593
-4874
-997
4030
5797
3747
-1813
-6861
-5684
6167
18555
17506
-2374
-27672
31244
-13092
19287
-32226
17520
-8638
-18975
-6525
9526
9777
-4229
-12723
-5974
5474
3527
-10133
-18979
-11756
1511
6016
2291
2666
11978
19048
11244
-4502
-11386
-2051
9593
8931
-713
-2684
6438
15942
11324
-2766
-9750
-1120
13048
17559
9905
-1346
-8142
-9727
-8674
-6319
-1951
2859
2850
-3148
-12516
-19769
-24424
-25105
-22086
-12829
-27
9439
10840
5343
-2364
-8050
-10213
-7544
2153
16621
25080
17529
-3351
-17618
-12736
4369
13215
5530
-4731
-331
15853
24347
16491
4375
3524
12287
16644
10447
1866
-1500
-4310
-11994
-18957
-10871
9293
24553
18924
361
-10164
-4010
6877
8323
1165
-3265
-296
3174
1504
-2476
-3224
-392
-1382
-7822
-15369
-15251
-4199
13637
28579
-32165
25880
10959
-1960
-3962
2365
6826
-473
-15298
-25416
-19276
-1985
12913
14356
8380
4019
6597
9210
5294
-1601
-2986
3772
10668
8111
-2935
-10972
-8201
1590
7663
4931
-402
-1200
1526
-557
-12096
-25759
-27528
-12061
12118
26803
21339
344
-16446
-14902
2661
15568
12449
-544
-5566
1362
7435
-1085
-16917
-22351
-10126
6395
10562
4400
1825
7771
12080
7170
-190
3351
16721
22271
8264
-13774
-20094
-737
24287
29332
7178
-21633
-31260
-16595
3906
10481
3726
-95
7895
16652
12108
-4671
-17365
-14830
-5074
-3116
-10477
-13286
-1006
20001
-31542
-31450
26139
18686
13471
7573
-501
-6688
-7910
-4377
108
4134
6715
7739
6296
3939
-89
-1703
1327
8182
14807
16992
15121
11544
10068
9791
7755
1816
-6126
-13509
-15229
-10374
-1153
7110
7807
2246
-3528
-3215
1829
6244
4231
-2267
-6936
-5667
-809
1618
-670
-4393
-4508
1156
9085
12707
6871
-3285
-12166
-13701
-6978
3994
13052
15502
9206
-3959
-15979
-18551
-10210
-125
4493
-914
-9058
-11277
-5876
3298
10086
10052
3502
-4051
-8620
-6864
-1648
1478
-1042
-7437
-10864
-9235
-1513
6681
9453
4927
-2373
-5670
-1950
3373
2133
-7249
-16010
-13242
1483
16956
21900
14615
3631
-4897
-8266
-10300
-10919
-9219
-4587
15
4482
6669
6820
4495
274
-3961
-4778
-2534
-89
543
352
-863
-516
-421
-1375
-3154
-4209
-3780
-2463
-1976
-2298
-2735
-2840
-3379
-3742
-5441
-5460
-4152
-2936
-4279
-6096
-5039
19
7300
11102
7405
-572
-7525
-7982
-3361
2659
4321
1406
-4083
-7299
-4591
1902
7395
7777
1416
-7532
-12744
-9878
-1390
6892
9632
4325
-5103
-11920
-10988
-3950
3860
7122
2932
-5343
-11420
-10352
-3705
3435
6052
1486
-6815
-12653
-11256
-4330
2989
5681
1078
-7376
-13439
-12239
-5399
1942
4701
157
-8238
-14215
-12920
-6036
1271
3962
-600
-8926
-14796
-13433
-6549
732
3428
-1089
-9360
-15185
-13759
-6766
642
3404
-1151
-9524
-15430
-14026
-7027
366
3097
-1469
-9817
-15681
-14245
-7219
214
2999
-1525
-9861
-15743
-14332
-7319
137
2993
-1427
-9667
-15500
-14085
-7081
371
3212
-1245
-9532
-15385
-13951
-6919
539
3365
-1106
-9384
-15216
-13781
-6779
629
3407
-1093
-9392
-15259
-13877
-6924
470
3269
-1210
-9519
-15411
-14030
-7050
353
3106
-1453
-9806
-15680
-14674
-6982
1269
4525
-429
-9492
-15509
-14355
-7337
-529
2349
-748
-7645
-14449
-16944
-11384
1667
18530
31095
-31255
28038
16242
4473
-3408
-3411
4185
16301
26465
28187
20389
7514
-1264
-1126
7569
18882
25220
22670
13462
4150
1120
6044
14842
20808
19758
12861
5446
3089
7365
14746
19342
17604
10872
4194
2667
7468
14914
19213
17044
9976
3190
1790
6860
14574
19010
16788
9526
2531
1026
6129
13952
18484
16308
9058
2066
558
5646
13447
17965
15797
8570
1602
101
5162
12909
17418
15101
7794
959
-203
4969
12384
16593
14662
7950
803
-1847
2533
11353
17836
15776
5964
-3280
-3075
7151
18879
23170
18967
12400
8157
5219
1400
-1113
2606
12357
20762
20505
12893
6081
5347
7735
7618
4586
4073
9492
17717
22262
20070
13405
6633
3159
4723
11049
18277
19770
12405
805
-5580
-2019
7036
13687
15188
14824
15058
13387
6815
-1832
-4772
1947
13975
22685
23109
16658
8063
1815
1100
6266
13520
15969
10132
391
-4412
-99
8837
15143
16850
17350
18538
17551
11526
3661
1081
6173
13470
15703
12084
8159
8272
10450
9618
4475
-297
944
9372
20635
28775
30084
24371
14234
3778
-2847
-2966
3054
12180
20135
23721
22061
16596
10128
5422
4056
5963
9760
13565
15861
16032
14435
12053
9973
8920
9039
9977
11153
12058
12430
12271
11764
11155
10664
10414
10414
10574
10768
10905
10960
10960
10927
10851
10718
10547
10394
10317
10320
10353
10363
10337
10295
10250
10182
10075
9949
9853
9823
9844
9872
9873
9847
9811
9779
9749
9720
9692
9668
9647
9624
9594
9554
9501
9439
9373
9314
9265
9224
9187
9154
9124
9101
9091
9096
9103
9091
9050
8997
8967
8979
9014
9033
9012
8959
8903
8866
8851
8852
8857
8860
8854
8846
8853
8888
8939
8983
9005
9015
9026
9034
9020
8986
8951
8942
8962
8991
9012
9021
9022
9019
9012
9010
9017
9020
8999
8952
8901
8870
8859
8844
8807
8757
8716
8695
8686
8672
8643
8597
8541
8494
8477
8492
8511
8497
8436
8363
8324
8334
8356
8338
8259
8151
8062
8014
7982
7928
7851
7791
7786
7828
7861
7843
7782
7729
7719
7740
7753
7733
7692
7664
7672
7718
7785
7842
7868
7869
7862
7859
7845
7806
7752
7716
7716
7731
7724
7689
7658
7662
7691
7701
7669
7622
7605
7621
7627
7583
7501
7432
7415
7438
7457
7436
7380
7318
7276
7259
7256
7245
7215
7168
7127
7107
7109
7118
7120
7111
7093
7062
7013
6953
6896
6849
6805
6755
6703
6661
6634
6617
6596
6563
6516
6468
6436
6440
6479
6532
6572
6591
6603
6632
6674
6715
6739
6753
6769
6785
6789
6785
6798
6845
6907
6940
6918
6863
6819
6801
6790
6760
6719
6690
6680
6672
6654
6637
6638
6653
6657
6632
6595
6569
6555
6531
6477
6404
6342
6310
6290
6259
6215
6177
6152
6107
5996
5811
5594
5389
5191
4976
4778
4718
4929
5440
6154
6936
7716
8483
9207
9806
10194
10345
10280
10019
9565
8965
8337
7812
7439
7171
6936
6721
6559
6458
6377
6269
6130
5985
5851
5721
5590
5477
5406
5378
5369
5354
5316
5250
5174
5128
5138
5179
5185
5112
4998
4927
4936
4977
4970
4901
4826
4802
4824
4844
4830
4796
4770
4758
4749
4731
4711
4694
4685
4687
4699
4709
4700
4662
4605
4559
4538
4533
4523
4489
4437
4385
4346
4321
4303
4288
4276
4265
4247
4212
4164
4123
4109
4121
4140
4147
4145
4151
4172
4201
4232
4269
4315
4361
4382
4367
4330
4299
4286
4283
4278
4270
4266
4271
4290
4327
4376
4426
4460
4478
4496
4523
4547
4548
4531
4527
4560
4614
4653
4662
4658
4671
4711
4762
4812
4854
4887
4913
4936
4964
4995
5019
5030
5040
5062
5099
5137
5168
5193
5222
5256
5289
5323
5351
5361
5344
5310
5285
5280
5277
5262
5248
5269
5323
5362
5341
5278
5234
5244
5274
5267
5208
5142
5112
5113
5108
5077
5045
5041
5056
5055
5015
4948
4891
4862
4848
4823
4774
4717
4679
4671
4676
4662
4622
4577
4556
4562
4567
4539
4478
4412
4378
4386
4415
4437
4441
4442
4456
4478
4485
4468
4451
4464
4496
4497
4431
4324
4251
4256
4306
4330
4292
4230
4204
4234
4277
4285
4255
4225
4219
4221
4202
4156
4106
4073
4053
4038
4030
4037
4049
4046
4022
3995
3984
3983
3969
3931
3879
3829
3781
3730
3680
3642
3625
3618
3605
3579
3549
3527
3517
3510
3492
3469
3461
3479
3503
3501
3469
3444
3469
3542
3615
3648
3652
3665
3704
3752
3784
3803
3830
3861
3867
3832
3776
3745
3757
3782
3779
3745
3711
3699
3696
3670
3621
3576
3561
3565
3557
3528
3496
3479
3471
3459
3443
3436
3438
3423
3381
3337
3327
3353
3362
3289
3116
2894
2693
2542
2433
2377
2452
2762
3346
4129
4983
5808
6568
7238
7758
8061
8117
7946
7589
7092
6520
5965
5507
5173
4933
4750
4605
4487
4373
4241
4094
3949
3821
3705
3590
3480
3398
3355
3341
3331
3304
3256
3200
3153
3127
3117
3111
3100
3094
3101
3117
3124
3110
3085
3069
3073
3087
3093
3089
3087
3096
3108
3101
3069
3029
3006
3008
3024
3037
3033
3019
3009
3019
3052
3084
3086
3054
3009
2978
2955
2914
2847
2787
2771
2790
2795
2753
2684
2628
2605
2596
2580
2554
2530
2514
2502
2497
2510
2538
2561
2563
2551
2547
2559
2570
2556
2514
2469
2447
2454
2468
2462
2424
2374
2344
2348
2371
2385
2383
2373
2373
2387
2402
2404
2398
2401
2424
2455
2469
2453
2423
2415
2443
2488
2520
2534
2549
2582
2621
2652
2680
2724
2787
2842
2866
2871
2889
2928
2965
2976
2977
3004
3069
3132
3148
3119
3098
3127
3192
3245
3253
3235
3228
3239
3243
3228
3205
3198
3211
3227
3235
3233
3227
3217
3214
3234
3282
3336
3359
3342
3316
3315
3348
3388
3406
3400
3376
3347
3314
3280
3243
3204
3166
3131
3100
3066
3024
2987
2972
2988
3020
3046
3057
3056
3045
3023
2991
2958
2928
2895
2856
2815
2788
2776
2767
2759
2775
2839
2938
3019
3032
2984
2938
2948
3008
3061
3061
3027
3018
3063
3134
3172
3157
3126
3120
3147
3177
3183
3166
3143
3124
3115
3120
3151
3199
3241
3247
3212
3161
3123
3111
3107
3083
3029
2968
2931
2920
2903
2860
2811
2803
2839
2865
2831
2755
2713
2748
2826
2880
2892
2896
2928
2982
3031
3074
3129
3195
3245
3263
3267
3287
3322
3351
3363
3372
3388
3405
3411
3405
3399
3399
3398
3389
3382
3383
3384
3372
3346
3316
3288
3260
3232
3219
3223
3222
3179
3088
2984
2916
2901
2918
2923
2883
2786
2634
2446
2247
2048
1842
1631
1479
1502
1801
2380
3150
4005
4876
5716
6464
7045
7406
7531
7412
7044
6466
5801
5205
4767
4455
4179
3900
3665
3529
3483
3453
3368
3221
3043
2865
2704
2578
2505
2490
2501
2490
2436
2362
2308
2297
2313
2322
2307
2275
2248
2231
2216
2196
2175
2175
2208
2261
2302
2302
2264
2222
2214
2245
2285
2301
2288
2269
2268
2283
2296
2297
2298
2320
2359
2384
2372
2335
2313
2328
2361
2375
2366
2356
2359
2360
2331
2278
2242
2251
2285
2301
2276
2230
2193
2180
2184
2197
2213
2228
2239
2246
2255
2272
2300
2344
2397
2437
2439
2407
2379
2397
2450
2484
2467
2434
2446
2508
2563
2560
2519
2505
2546
2600
2612
2584
2560
2569
2589
2588
2573
2579
2624
2677
2698
2689
2691
2728
2784
2824
2838
2851
2883
2919
2933
2930
2943
2995
3064
3104
3100
3080
3081
3109
3133
3129
3106
3097
3114
3142
3158
3154
3147
3152
3168
3177
3174
3169
3173
3182
3183
3170
3156
3154
3162
3164
3149
3124
3100
3081
3058
3032
3015
3019
3032
3026
2984
2919
2866
2845
2848
2849
2832
2803
2780
2771
2775
2787
2800
2807
2801
2780
2755
2731
2708
2692
2698
2736
2796
2846
2861
2855
2861
2886
2913
2922
2918
2918
2916
2891
2845
2810
2817
2856
2888
2882
2851
2828
2829
2843
2848
2836
2819
2806
2798
2794
2794
2798
2799
2785
2756
2732
2735
2765
2789
2771
2713
2657
2641
2665
2695
2700
2686
2681
2695
2710
2707
2686
2667
2656
2637
2592
2528
2473
2448
2449
2451
2434
2400
2367
2342
2319
2288
2261
2261
2294
2337
2359
2347
2334
2360
2431
2515
2573
2598
2615
2647
2687
2716
2728
2740
2768
2800
2812
2799
2784
2790
2815
2835
2833
2827
2841
2877
2907
2907
2888
2885
2928
3004
3073
3109
3123
3144
3183
3217
3225
3206
3182
3156
3112
3044
2969
2903
2817
2655
2402
2115
1866
1674
1526
1454
1574
1995
2705
3577
4474
5333
6135
6833
7344
7610
7627
7415
6993
6408
5768
5205
4788
4494
4264
4069
3922
3820
3737
3643
3530
3399
3244
3070
2916
2831
2825
2845
2822
2741
2655
2617
2624
2631
2605
2565
2545
2553
2558
2536
2495
2465
2462
2466
2456
2428
2399
2386
2388
2398
2407
2413
2410
2389
2351
2309
2280
2275
2284
2284
2263
2226
2193
2174
2166
2155
2141
2127
2112
2089
2053
2018
2009
2036
2075
2090
2063
2010
1964
1941
1935
1925
1906
1891
1890
1897
1889
1857
1817
1797
1806
1821
1816
1785
1748
1726
1724
1733
1745
1758
1768
1771
1763
1753
1757
1788
1836
1881
1910
1932
1963
2005
2040
2049
2044
2053
2093
2144
2170
2159
2139
2146
2188
2238
2268
2275
2281
2303
2342
2389
2434
2471
2495
2510
2526
2555
2595
2631
2645
2640
2639
2668
2731
2797
2825
2800
2747
2712
2719
2748
2762
2745
2719
2716
2735
2749
2740
2726
2736
2766
2774
2733
2666
2626
2635
2659
2653
2613
2573
2562
2565
2551
2512
2477
2475
2496
2506
2482
2438
2405
2403
2416
2422
2419
2431
2471
2529
2579
2613
2652
2720
2807
2875
2895
2880
2864
2867
2875
2870
2858
2865
2894
2918
2906
2868
2844
2859
2894
2910
2900
2896
2923
2969
2990
2973
2949
2962
3007
3043
3030
2974
2926
2921
2949
2970
2967
2962
2983
3023
3041
3013
2972
2972
3019
3063
3056
3009
2977
2990
3020
3027
3007
2990
2998
3017
3021
3000
2960
2914
2879
2872
2896
2924
2920
2881
2843
2845
2879
2895
2859
2790
2730
2696
2671
2631
2584
2553
2544
2541
2529
2513
2497
2465
2402
2324
2276
2281
2308
2307
2271
2252
2297
2394
2488
2544
2583
2637
2701
2733
2710
2666
2658
2709
2781
2814
2789
2749
2746
2797
2860
2885
2866
2839
2835
2841
2823
2773
2728
2723
2751
2772
2755
2711
2670
2640
2610
2571
2528
2491
2454
2404
2334
2248
2134
1971
1756
1528
1326
1166
1050
1018
1171
1600
2287
3115
3955
4750
5493
6148
6623
6843
6805
6562
6165
5643
5048
4486
4057
3779
3587
3410
3242
3122
3064
3021
2935
2788
2610
2447
2318
2229
2183
2174
2172
2148
2098
2055
2046
2062
2067
2048
2025
2015
2003
1962
1900
1857
1859
1884
1884
1847
1801
1778
1773
1764
1746
1735
1734
1725
1695
1658
1644
1664
1701
1735
1758
1772
1777
1781
1805
1866
1952
2027
2062
2064
2061
2064
2071
2074
2083
2099
2109
2099
2075
2062
2069
2084
2089
2086
2089
2097
2091
2066
2044
2045
2064
2077
2078
2090
2129
2172
2179
2149
2124
2144
2197
2236
2232
2209
2207
2235
2271
2298
2321
2348
2376
2395
2410
2435
2470
2498
2511
2533
2591
2673
2727
2720
2686
2691
2758
2837
2869
2853
2845
2889
2968
3032
3064
3088
3131
3184
3221
3237
3253
3279
3303
3317
3334
3377
3434
3464
3441
3382
3337
3330
3345
3347
3330
3311
3296
3271
3230
3192
3180
3194
3198
3172
3131
3105
3111
3138
3166
3187
3192
3170
3128
3090
3073
3065
3027
2955
2892
2885
2927
2961
2946
2903
2884
2912
2958
2982
2977
2962
2951
2942
2926
2915
2921
2940
2955
2954
2938
2924
2922
2930
2943
2962
2983
2997
2989
2961
2930
2919
2933
2956
2970
2966
2953
2936
2922
2918
2933
2963
2995
3009
3003
2986
2971
2963
2966
2981
3004
3015
3004
2978
2957
2951
2950
2936
2909
2879
2860
2847
2829
2807
2791
2791
2805
2819
2818
2798
2760
2714
2669
2631
2605
2588
2572
2549
2523
2505
2498
2481
2432
2354
2286
2269
2300
2334
2332
2302
2291
2338
2434
2535
2597
2615
2618
2646
2718
2815
2898
2942
2959
2977
3005
3019
3000
2958
2932
2939
2965
2980
2971
2957
2955
2971
2995
3015
3015
2987
2939
2896
2881
2885
2880
2849
2808
2784
2775
2759
2722
2677
2636
2578
2468
2299
2100
1906
1722
1552
1439
1483
1770
2309
3022
3807
4600
5371
6082
6657
7018
7127
7011
6722
6302
5775
5196
4659
4259
4020
3882
3752
3591
3429
3313
3247
3182
3072
2917
2757
2628
2537
2475
2431
2398
2369
2336
2301
2267
2234
2194
2147
2104
2079
2068
2053
2019
1976
1947
1945
1955
1955
1936
1912
1897
1888
1871
1839
1800
1774
1780
1814
1859
1893
1905
1901
1892
1885
1876
1858
1830
1799
1770
1744
1717
1690
1676
1683
1705
1722
1723
1712
1703
1693
1664
1611
1557
1532
1537
1538
1511
1470
1448
1456
1472
1472
1464
1463
1462
1434
1373
1317
1305
1337
1371
1368
1339
1321
1340
1380
1409
1417
1424
1455
1505
1541
1539
1515
1512
1561
1645
1709
1713
1675
1648
1669
1725
1775
1795
1805
1840
1904
1968
2005
2023
2049
2096
2148
2180
2190
2196
2215
2248
2283
2313
2342
2378
2420
2457
2469
2446
2403
2371
2379
2426
2476
2493
2467
2427
2412
2438
2487
2520
2517
2496
2495
2535
2597
2655
2700
2745
2794
2830
2837
2823
2813
2808
2789
2748
2713
2713
2748
2779
2777
2754
2745
2765
2804
2834
2838
2812
2770
2735
2724
2735
2747
2750
2754
2775
2814
2847
2856
2853
2868
2907
2939
2930
2882
2835
2825
2848
2872
2878
2882
2907
2939
2944
2915
2886
2897
2936
2947
2905
2851
2846
2896
2944
2943
2914
2912
2960
3017
3031
2998
2954
2929
2919
2910
2902
2905
2916
2919
2907
2897
2909
2946
2980
2979
2937
2873
2806
2740
2673
2602
2535
2483
2441
2404
2377
2371
2381
2380
2348
2301
2282
2312
2364
2388
2366
2339
2365
2464
2600
2716
2782
2810
2832
2865
2903
2930
2941
2947
2953
2945
2913
2872
2852
2870
2907
2932
2932
2921
2917
2926
2945
2969
2987
2978
2930
2861
2811
2802
2802
2770
2699
2637
2628
2662
2678
2635
2554
2490
2458
2407
2276
2059
1813
1586
1384
1210
1133
1280
1725
2416
3219
4032
4840
5640
6365
6902
7186
7230
7067
6698
6133
5461
4848
4415
4153
3959
3749
3532
3367
3278
3224
3147
3015
2841
2658
2501
2398
2350
2334
2317
2275
2218
2172
2149
2135
2105
2055
2001
1967
1956
1952
1933
1901
1877
1874
1885
1894
1896
1899
1915
1940
1963
1978
1993
2024
2077
2136
2175
2177
2155
2143
2160
2193
2201
2165
2111
2088
2118
2167
2185
2155
2113
2105
2137
2180
2198
2186
2160
2133
2107
2080
2061
2057
2064
2063
2043
2004
1967
1955
1974
2010
2041
2047
2027
1995
1973
1966
1970
1972
1968
1965
1971
1979
1979
1974
1977
1999
2034
2068
2091
2107
2112
2100
2078
2073
2107
2170
2221
2229
2206
2193
2216
2266
2326
2380
2414
2418
2397
2375
2386
2431
2482
2514
2536
2569
2617
2658
2676
2679
2686
2700
2709
2703
2689
2680
2686
2702
2719
2736
2753
2768
2780
2781
2767
2740
2707
2682
2675
2695
2737
2781
2801
2784
2752
2749
2789
2840
2851
2806
2745
2710
2704
2695
2666
2635
2623
2630
2630
2613
2599
2605
2630
2652
2663
2666
2665
2656
2636
2615
2607
2619
2643
2665
2677
2678
2677
2676
2678
2680
2682
2690
2705
2719
2715
2687
2654
2645
2667
2692
2689
2655
2626
2632
2664
2691
2695
2691
2702
2725
2735
2714
2673
2645
2647
2665
2675
2672
2666
2664
2664
2659
2647
2635
2629
2623
2610
2595
2584
2579
2572
2554
2533
2527
2547
2579
2587
2548
2471
2397
2358
2348
2332
2291
2238
2203
2195
2200
2209
2243
2313
2397
2445
2439
2415
2435
2509
2590
2630
2632
2643
2686
2740
2776
2797
2836
2910
2994
3052
3076
3082
3088
3097
3109
3130
3161
3179
3163
3121
3096
3118
3166
3188
3162
3119
3101
3111
3113
3080
3035
3023
3061
3118
3155
3156
3128
3082
3021
2949
2878
2828
2801
2775
2704
2555
2336
2100
1899
1738
1587
1456
1438
1657
2165
2900
3746
4620
5471
6247
6866
7262
7418
7351
7070
6593
5990
5391
4909
4562
4293
4045
3821
3659
3575
3530
3461
3329
3134
2919
2738
2626
2578
2559
2532
2491
2449
2415
2383
2342
2297
2271
2277
2295
2286
2224
2127
2051
2043
2100
2170
2199
2176
2132
2106
2108
2122
2127
2121
2112
2101
2082
2054
2028
2013
2013
2016
2011
1993
1964
1930
1897
1881
1889
1913
1930
1923
1896
1872
1867
1869
1857
1829
1806
1803
1811
1811
1796
1778
1767
1758
1740
1716
1699
1695
1690
1671
1640
1618
1622
1649
1680
1694
1682
1653
1630
1635
1671
1721
1759
1772
1765
1757
1764
1787
1812
1823
1821
1822
1843
958
958
1028
1149
1265
1329
1355
1383
1432
1457
1390
1230
1055
945
893
817
661
484
417
532
763
965
1061
1109
1208
1374
1507
1509
1400
1290
1239
1200
1107
1011
1052
1290
1612
1844
1934
1971
2044
2126
2124
1989
1754
1482
1228
1052
1002
1047
1075
1018
971
1109
1473
1880
2084
2008
1799
1627
1511
1370
1153
911
727
654
716
918
1208
1441
1463
1252
970
845
980
1298
1661
2017
2421
2955
3627
4323
4859
5076
4931
4522
4003
3465
2916
2367
1331
928
603
473
539
706
880
1033
1168
1256
1240
1079
794
489
306
342
562
812
945
950
948
1036
1182
1262
1193
1004
790
634
585
653
798
925
956
905
863
890
933
901
792
716
782
970
1160
1278
1367
1507
1681
1769
1677
1466
1301
1269
1278
1172
948
809
978
1470
2081
2573
2835
2860
2639
2160
1484
740
29
-646
-1299
-1836
-2086
-1966
-1582
-1132
-753
-481
-322
-295
-385
-507
-584
-621
-681
-779
-844
-811
-702
-609
-586
-610
-637
-666
-709
-720
-618
-381
-93
110
176
174
214
334
472
542
519
459
427
425
397
294
135
-14
-108
-154
-163
-118
1
172
326
412
453
512
607
690
706
661
601
569
569
582
578
535
457
378
335
322
284
190
96
87
174
283
381
576
1021
1695
2340
2645
2515
2121
1690
1284
800
155
-570
-1175
-1488
-1465
-1162
-681
-136
359
735
998
1202
1375
1487
1502
1434
1347
1305
1329
1411
1540
1689
1798
1794
1663
1481
1359
1352
1428
1517
1563
1557
1513
1456
1399
1341
1277
1213
1168
1159
1178
1219
1279
1338
1351
1276
1145
1048
1050
1122
1187
1225
1289
1425
1598
1741
1846
1949
2053
2086
1995
1828
1701
1661
1652
1595
1483
1385
1341
1316
1252
1148
1060
1041
1100
1200
1294
1355
1393
1448
1549
1651
1664
1554
1382
1251
1197
1157
1052
883
715
589
484
387
351
457
735
1151
1668
2278
2971
3678
4280
4684
4859
4843
4690
4428
4041
3524
2945
2446
2144
2009
1860
1553
1141
817
689
662
563
383
281
362
520
550
394
184
54
-37
-219
-474
-580
-354
99
462
535
424
385
510
650
614
419
276
357
634
966
1278
1595
1937
2229
2368
2330
2201
2101
2095
2162
2252
2340
2460
2685
3072
3590
4088
4369
4349
4147
3997
4032
4157
4176
4031
3845
3746
3661
3390
2868
2268
1825
1583
1401
1195
1072
1202
1611
2158
2678
3097
3371
3424
3193
2721
2161
1634
1149
680
275
61
138
481
976
1481
1868
2054
2018
1800
1482
1139
830
612
537
620
816
1032
1199
1323
1448
1589
1692
1689
1573
1427
1359
1430
1647
1973
2337
2655
2880
3051
3254
3496
3663
3635
3439
3257
3245
3408
3634
3845
4054
4294
4531
4680
4673
4509
4261
4057
4013
4122
4201
4027
3575
3078
2799
2743
2670
2387
1972
1650
1522
1460
1319
1118
972
897
776
531
249
72
22
-28
-192
-423
-591
-645
-655
-697
-760
-799
-840
-952
-1169
-1424
-1631
-1776
-1917
-2106
-2329
-2532
-2657
-2662
-2555
-2421
-2364
-2429
-2553
-2635
-2647
-2686
-2875
-3216
-3552
-3679
-3522
-3190
-2875
-2686
-2563
-2379
-2116
-1906
-1882
-2032
-2205
-2276
-2253
-2216
-2188
-2097
-1896
-1625
-1348
-1079
-800
-525
-305
-170
-102
-61
-23
23
111
276
500
734
981
1280
1605
1807
1736
1415
1060
884
921
1023
1056
1038
1101
1340
1738
2176
2511
2650
2607
2489
2416
2406
2383
2270
2084
1931
1863
1834
1760
1621
1503
1529
1759
2166
2694
3345
4168
5139
6086
6764
7034
6963
6724
6396
5946
5365
4764
4277
3927
3644
3410
3308
3373
3482
3446
3209
2902
2682
2565
2462
2329
2204
2123
2069
2032
2045
2124
2190
2123
1914
1700
1620
1645
1628
1503
1351
1283
1281
1237
1105
978
977
1090
1211
1270
1290
1286
1211
1044
877
851
980
1092
1033
851
746
834
996
1050
949
802
693
609
508
423
421
493
570
615
685
804
858
711
386
68
-112
-211
-365
-573
-647
-430
28
512
876
1132
1327
1438
1402
1226
1017
869
755
582
321
93
62
257
539
721
731
635
542
498
470
436
397
336
235
129
130
325
639
863
856
726
727
989
1361
1567
1518
1390
1422
1682
2013
2239
2330
2390
2500
2623
2663
2581
2447
2339
2264
2138
1912
1647
1477
1484
1616
1754
1786
1717
1639
1667
1837
2038
2079
1869
1539
1375
1556
1977
2346
2477
2460
2516
2746
3032
3194
3193
3106
2989
2818
2598
2453
2505
2689
2773
2602
2285
2105
2201
2411
2472
2308
2090
2018
2098
2169
2116
1972
1851
1821
1863
1924
1967
1993
2045
2163
2331
2465
2490
2417
2311
2186
1984
1686
1406
1296
1380
1515
1555
1502
1459
1471
1480
1430
1327
1198
1041
853
702
677
784
924
997
1028
1114
1273
1392
1376
1268
1198
1213
1230
1157
1037
1022
1218
1563
1901
2112
2189
2201
2207
2215
2197
2118
1975
1801
1657
1606
1658
1766
1867
1930
1981
2060
2171
2262
2266
2155
1988
1842
1730
1605
1446
1273
1115
963
797
638
524
412
169
-270
-746
-969
-792
-345
141
609
1220
2095
3120
4018
4581
4785
4702
4384
3882
3281
2688
2149
1653
1215
918
821
871
933
917
841
751
631
442
202
1
-92
-107
-133
-225
-366
-502
-588
-615
-599
-578
-585
-608
-595
-523
-443
-421
-457
-488
-486
-521
-654
-805
-802
-587
-330
-270
-432
-580
-469
-110
229
310
141
-65
-123
-27
87
92
-20
-160
-242
-235
-156
-34
120
295
445
506
452
349
313
402
552
635
599
526
570
793
1077
1260
1291
1273
1297
1357
1421
1486
1565
1650
1770
2013
2393
2701
2662
2310
2088
2346
2755
2470
1072
-827
-2092
-2217
-1752
-1498
-1531
-1197
-12
1728
3314
4366
5013
5441
5520
5012
3986
2874
2051
1534
1067
489
-87
-422
-368
-19
369
583
570
417
242
123
90
106
86
-37
-231
-400
-524
-685
-952
-1251
-1408
-1318
-1051
-770
-567
-418
-218
150
737
1440
1965
2021
1616
1135
1013
1337
1829
2231
2643
3364
4485
5732
6714
7259
7426
7276
6796
6021
5141
4382
3839
3458
3188
3100
3224
3433
3520
3400
3176
2949
2678
2273
1823
1546
1491
1378
903
177
-327
-302
15
121
-128
-343
-74
657
1381
1690
1580
1311
1046
750
395
90
-11
97
270
406
606
1086
1913
2897
3707
4088
3972
3410
2465
1228
-167
-1578
-2926
-4149
-5061
-5378
-4924
-3808
-2305
-582
1360
3459
5427
6949
8011
8932
10345
11119
11370
11949
13779
15870
17975
19000
20562
23533
26533
26976
25397
25743
30236
-30341
31236
16663
-1109
-11578
-12528
-10511
-10213
-9795
-3075
6964
12040
6368
-3964
-7066
1610
13625
15815
3636
-14084
-23478
-18318
-6011
2058
973
-2726
-621
6832
8118
-2907
-19652
-27325
-18415
66
14420
17952
14890
10857
8417
4406
-1871
-8034
-11860
-13063
-13237
-11569
-8946
-5410
-3481
-4301
-7696
-12381
-16657
-19171
-19382
-17656
-15069
-12960
-12382
-13651
-16242
-19101
-21221
-22092
-21821
-20912
-19882
-19040
-18500
-18314
-18511
-19001
-19528
-19825
-19854
-19839
-20001
-20303
-20496
-20424
-20202
-20039
-19954
-19777
-19403
-18981
-18773
-18868
-19097
-19239
-19231
-19147
-19045
-18886
-18610
-18257
-17940
-17746
-17667
-17639
-17606
-17557
-17499
-17422
-17289
-17073
-16801
-16540
-16350
-16229
-16135
-16022
-15873
-15689
-15462
-15182
-14858
-14534
-14263
-14075
-13963
-13887
-13811
-13729
-13651
-13586
-13513
-13388
-13174
-12881
-12558
-12259
-12002
-11764
-11524
-11287
-11065
-10863
-10671
-10486
-10320
-10168
-10003
-9787
-9522
-9264
-9067
-8931
-8810
-8661
-8472
-8255
-8020
-7772
-7538
-7355
-7198
-6983
-6658
-6303
-6055
-5959
-5913
-5819
-5708
-5674
-5671
-5498
-5010
-4297
-3588
-3013
-2540
-2140
-1908
-1946
-2199
-2496
-2748
-3006
-3298
-3491
-3379
-2924
-2295
-1702
-1237
-871
-549
-239
62
307
378
183
-213
-559
-608
-330
94
458
725
1005
1401
1905
2416
2815
3039
3085
2991
2804
2571
2333
2121
1958
1851
1800
1805
1872
2004
2170
2326
2428
2472
2494
2542
2653
2833
3051
3262
3431
3551
3636
3704
3771
3864
4010
4219
4459
4693
4915
5138
5357
5547
5695
5837
6021
6231
6397
6481
6532
6629
6762
6859
6893
6954
7155
7492
7852
8170
8500
8897
9268
9421
9290
9054
8956
9042
9122
9019
8795
8681
8817
9101
9326
9397
9382
9374
9366
9290
9135
8977
8884
8835
8763
8646
8538
8498
8487
8410
8237
8028
7828
7603
7316
7035
6873
6828
6738
6445
6016
5685
5604
5694
5735
5564
5149
4542
3862
3291
2982
2928
2958
2959
3038
3398
4045
4708
5074
5068
4827
4471
3994
3369
2683
2100
1701
1435
1226
1074
1014
1020
1009
909
711
442
142
-164
-430
-596
-632
-574
-506
-500
-568
-681
-806
-918
-981
-959
-863
-761
-714
-706
-669
-561
-412
-289
-215
-156
-77
12
92
181
312
474
618
719
814
954
1132
1283
1371
1465
1692
2111
2629
3071
3325
3417
3458
3521
3573
3518
3285
2896
2448
2060
1832
1798
1911
2081
2238
2382
2560
2798
3053
3271
3428
3496
3476
3417
3416
3525
3685
3806
3894
4033
4229
4329
4170
3825
3545
3423
3210
2613
1730
1042
946
1369
1930
2405
2886
3508
4175
4637
4774
4678
4473
4174
3760
3320
3004
2888
2912
2974
3042
3099
3105
3014
2821
2569
2306
2086
2008
2167
2533
2964
3301
3517
3712
3964
4204
4280
4159
3997
4018
4324
4795
5179
5295
5188
5067
5110
5285
5409
5339
5124
4913
4776
4619
4309
3813
3198
2503
1648
549
-737
-2040
-3246
-4381
-5517
-6616
-7504
-8066
-8358
-8535
-8714
-8926
-9165
-9431
-9703
-9921
-10060
-10175
-10336
-10523
-10653
-10685
-10652
-10560
-10330
-9947
-9562
-9390
-9446
-9486
-9266
-8842
-8490
-8369
-8320
-8062
-7535
-6952
-6522
-6246
-5990
-5684
-5368
-5086
-4813
-4511
-4222
-4014
-3888
-3763
-3592
-3422
-3307
-3202
-3007
-2706
-2432
-2327
-2372
-2411
-2335
-2206
-2156
-2217
-2266
-2165
-1912
-1627
-1398
-1208
-986
-718
-459
-246
-54
151
352
499
593
697
874
1101
1287
1371
1385
1390
1422
1479
1550
1621
1668
1675
1669
1711
1835
1996
2133
2253
2413
2597
2688
2610
2461
2455
2673
2928
2965
2769
2596
2658
2852
2869
2555
2075
1695
1476
1275
997
779
852
1298
1977
2690
3356
4036
4801
5584
6163
6325
6050
5569
5157
4888
4590
4107
3530
3121
3005
3027
2967
2823
2756
2824
2851
2640
2247
1951
1920
2022
1982
1715
1402
1267
1322
1398
1343
1184
1058
1043
1089
1108
1072
1033
1043
1090
1117
1101
1056
1007
954
907
916
1042
1261
1434
1420
1240
1079
1105
1279
1392
1280
1018
811
777
855
936
1005
1088
1146
1090
927
802
823
914
899
748
628
676
811
841
725
632
719
896
907
635
261
74
169
349
367
179
-23
-49
77
153
54
-140
-251
-213
-149
-207
-364
-451
-348
-137
1
-10
-85
-93
-26
8
-53
-145
-161
-98
-53
-86
-99
38
281
399
252
32
102
552
1029
1104
797
556
728
1143
1332
1072
618
364
394
486
455
342
310
415
575
687
713
696
712
817
980
1043
872
556
397
571
890
960
659
328
383
795
1131
1075
812
754
1004
1232
1124
773
524
531
611
549
392
355
491
617
572
441
419
531
612
550
432
416
538
690
773
814
890
1003
1101
1161
1223
1341
1516
1685
1813
1913
2033
2210
2419
2584
2639
2611
2582
2620
2701
2745
2731
2748
2895
3142
3333
3364
3315
3356
3518
3605
3430
3077
2872
3022
3378
3623
3619
3560
3715
4105
4522
4789
4915
4989
5057
5107
5143
5215
5352
5526
5706
5908
6151
6424
6686
6916
7115
7301
7502
7731
7934
7987
7839
7646
7672
8018
8451
8641
8552
8497
8778
9331
9798
9939
9846
9753
9742
9711
9587
9479
9541
9757
9950
9975
9880
9833
9935
10123
10218
10076
9700
9250
8923
8786
8730
8564
8178
7645
7130
6719
6365
5976
5553
5265
5312
5742
6391
7028
7548
8039
8575
9028
9124
8761
8169
7682
7332
6808
5885
4780
3986
3732
3749
3607
3187
2746
2546
2567
2582
2428
2106
1683
1219
813
574
491
395
127
-254
-487
-420
-192
-77
-177
-339
-376
-303
-289
-412
-551
-547
-427
-378
-527
-785
-967
-995
-961
-996
-1113
-1188
-1089
-815
-506
-335
-370
-531
-660
-689
-708
-859
-1160
-1436
-1505
-1376
-1239
-1256
-1368
-1354
-1117
-825
-768
-1051
-1470
-1701
-1632
-1470
-1503
-1789
-2110
-2226
-2141
-2078
-2221
-2514
-2761
-2864
-2934
-3125
-3422
-3653
-3706
-3680
-3784
-4081
-4404
-4550
-4518
-4515
-4713
-5054
-5329
-5408
-5358
-5321
-5371
-5488
-5645
-5819
-5960
-5997
-5931
-5866
-5899
-5985
-5981
-5823
-5630
-5575
-5689
-5842
-5898
-5840
-5745
-5666
-5591
-5484
-5341
-5179
-5020
-4869
-4737
-4657
-4639
-4652
-4643
-4598
-4539
-4475
-4367
-4150
-3824
-3492
-3273
-3166
-3052
-2831
-2547
-2363
-2374
-2493
-2547
-2450
-2285
-2202
-2223
-2228
-2082
-1817
-1608
-1576
-1660
-1685
-1558
-1356
-1193
-1087
-985
-907
-987
-1338
-1882
-2417
-2794
-3034
-3237
-3394
-3361
-3000
-2346
-1649
-1249
-1328
-1759
-2236
-2582
-2924
-3494
-4225
-4688
-4516
-3847
-3236
-3056
-3133
-3038
-2674
-2422
-2677
-3369
-4055
-4369
-4311
-4103
-3905
-3724
-3534
-3351
-3236
-3226
-3230
-3116
-2830
-2453
-2084
-1661
-1016
-151
664
1197
1606
2261
3105
3434
2628
1048
-93
68
1133
1995
2185
2406
3621
5843
8071
9320
9451
8981
8340
7531
6462
5311
4443
4049
3994
4041
4146
4382
4743
5038
4974
4426
3545
2590
1736
1042
544
278
173
25
-299
-649
-755
-661
-887
-1979
-3870
-5795
-6976
-7367
-7636
-8377
-9447
-10125
-9887
-8953
-8038
-7668
-7845
-8285
-8843
-9611
-10637
-11702
-12471
-12792
-12780
-12560
-12040
-10978
-9271
-7157
-5095
-3451
-2279
-1376
-514
355
1061
1395
1325
1038
776
664
685
829
1160
1737
2489
3261
3987
4704
5417
6005
6329
6439
6589
7018
7729
8524
9229
9874
10601
11438
12262
12936
13472
14009
14630
15220
15529
15404
14956
14517
14407
14725
15286
15763
15969
16019
16238
16860
17795
18720
19357
19669
19797
19885
19999
20161
20335
20394
20173
19641
18999
18541
18379
18336
18145
17723
17220
16816
16542
16314
16059
15784
15499
15155
14668
14029
13354
12803
12441
12168
11804
11215
10392
9428
8439
7503
6651
5868
5107
4320
3516
2780
2169
1605
879
-181
-1523
-2881
-3997
-4844
-5608
-6457
-7364
-8167
-8774
-9259
-9748
-10284
-10850
-11466
-12215
-13113
-14030
-14768
-15249
-15571
-15904
-16323
-16765
-17105
-17279
-17346
-17454
-17757
-18290
-18921
-19412
-19599
-19504
-19273
-19037
-18810
-18546
-18233
-17919
-17659
-17470
-17350
-17302
-17337
-17441
-17560
-17620
-17562
-17381
-17126
-16880
-16686
-16511
-16281
-15970
-15642
-15386
-15226
-15096
-14915
-14656
-14361
-14081
-13840
-13626
-13408
-13182
-12965
-12756
-12509
-12164
-11719
-11263
-10903
-10671
-10506
-10339
-10177
-10060
-9975
-9856
-9683
-9520
-9423
-9317
-9038
-8524
-7906
-7383
-7036
-6803
-6615
-6492
-6486
-6581
-6718
-6877
-7092
-7359
-7583
-7654
-7548
-7339
-7075
-6754
-6361
-5919
-5482
-5076
-4701
-4359
-4066
-3843
-3680
-3535
-3365
-3141
-2852
-2518
-2190
-1909
-1670
-1428
-1143
-820
-516
-302
-205
-160
-51
184
462
629
635
610
728
992
1217
1252
1160
1134
1260
1426
1457
1319
1116
938
768
548
273
-3
-236
-422
-571
-688
-783
-876
-963
-1009
-992
-949
-943
-989
-1032
-1015
-949
-906
-931
-976
-944
-785
-537
-265
21
382
856
1372
1786
2017
2145
2352
2729
3174
3516
3715
3930
4331
4881
5354
5567
5562
5512
5500
5464
5377
5388
5715
6390
7213
7995
8751
9620
10590
11423
11870
11918
11766
11590
11394
11097
10686
10249
9867
9557
9297
9072
8868
8649
8386
8095
7809
7530
7222
6875
6520
6195
5895
5583
5248
4924
4641
4382
4109
3814
3542
3337
3196
3076
2924
2724
2503
2299
2127
1958
1751
1498
1235
1008
810
592
328
56
-135
-196
-154
-74
1
73
159
273
409
540
617
602
512
425
416
478
538
558
598
753
1045
1384
1646
1782
1825
1840
1872
1929
1999
2055
2081
2100
2156
2281
2447
2599
2709
2787
2854
2909
2948
2998
3090
3217
3339
3433
3525
3634
3718
3732
3704
3725
3849
4036
4212
4372
4575
4842
5122
5366
5603
5874
6123
6215
6110
5947
5909
6018
6117
6073
5969
6042
6421
6978
7445
7659
7695
7723
7787
7750
7439
6857
6210
5729
5490
5416
5413
5484
5683
6003
6341
6584
6691
6658
6476
6128
5662
5238
5039
5116
5325
5461
5448
5397
5445
5570
5587
5336
4840
4278
3816
3513
3354
3289
3273
3273
3274
3308
3392
3445
3330
2976
2468
1968
1563
1208
844
503
290
278
452
742
1096
1504
1951
2373
2687
2865
2943
2963
2907
2707
2320
1806
1289
846
434
-35
-591
-1176
-1686
-2051
-2248
-2283
-2208
-2150
-2243
-2519
-2859
-3101
-3217
-3365
-3708
-4219
-4676
-4911
-4983
-5066
-5205
-5286
-5244
-5222
-5409
-5766
-6008
-5915
-5606
-5420
-5527
-5744
-5752
-5454
-5068
-4879
-4966
-5180
-5314
-5286
-5166
-5066
-5028
-4998
-4899
-4730
-4559
-4444
-4357
-4204
-3946
-3659
-3466
-3406
-3381
-3252
-2974
-2629
-2341
-2166
-2051
-1908
-1713
-1527
-1408
-1335
-1230
-1047
-816
-606
-450
-312
-115
198
603
989
1209
1186
993
811
773
820
751
413
-102
-510
-559
-219
347
998
1748
2675
3727
4668
5256
5468
5481
5422
5201
4647
3764
2825
2139
1811
1715
1689
1652
1577
1428
1210
1015
927
884
714
330
-148
-520
-699
-730
-673
-558
-448
-453
-599
-745
-709
-504
-364
-473
-767
-1019
-1094
-1064
-1058
-1107
-1169
-1221
-1265
-1280
-1242
-1194
-1200
-1237
-1194
-1015
-820
-786
-912
-1000
-888
-673
-599
-769
-1036
-1187
-1173
-1101
-1075
-1107
-1181
-1291
-1419
-1512
-1547
-1593
-1741
-1959
-2082
-2009
-1852
-1807
-1909
-1972
-1815
-1508
-1311
-1379
-1587
-1676
-1539
-1308
-1199
-1276
-1403
-1393
-1189
-1009
-709
-646
-647
-610
-514
-434
-443
-520
-571
-525
-422
-358
-392
-479
-500
-379
-155
28
60
-36
-100
8
282
571
727
730
664
626
661
776
932
1046
1033
899
787
871
1162
1448
1507
1344
1186
1233
1454
1643
1662
1562
1473
1452
1448
1395
1315
1288
1362
1493
1599
1641
1655
1690
1732
1708
1586
1451
1418
1482
1500
1351
1128
1080
1309
1630
1772
1677
1535
1533
1639
1697
1654
1604
1629
1668
1640
1610
1711
1944
2124
2081
1879
1746
1807
1968
2027
1892
1645
1421
1288
1258
1337
1519
1718
1805
1741
1648
1712
1966
2207
2191
1896
1559
1456
1625
1847
1904
1789
1654
1629
1709
1812
1882
1888
1803
1636
1463
1386
1427
1494
1496
1471
1550
1770
1993
2051
1930
1779
1757
1862
1960
1949
1862
1813
1877
2039
2238
2428
2589
2721
2814
2877
2956
3128
3440
3840
4161
4253
4179
4208
4547
5065
5358
5188
4772
4587
4829
5207
5302
5069
4873
5022
5389
5597
5481
5252
5206
5373
5508
5404
5104
4828
4716
4719
4708
4644
4577
4544
4498
4382
4218
4060
3895
3640
3295
3025
3046
3407
3982
4670
5515
6583
7746
8707
9261
9452
9445
9269
8816
8046
7128
6311
5700
5241
4865
4590
4440
4358
4211
3928
3559
3196
2846
2443
1944
1417
1002
774
672
558
353
113
-62
-161
-283
-525
-889
-1274
-1580
-1782
-1924
-2096
-2355
-2669
-2917
-3002
-2950
-2901
-2956
-3070
-3127
-3104
-3114
-3235
-3405
-3494
-3480
-3482
-3599
-3768
-3853
-3824
-3809
-3934
-4181
-4411
-4509
-4447
-4266
-4026
-3766
-3505
-3251
-3001
-2769
-2576
-2438
-2358
-2309
-2265
-2199
-2083
-1916
-1735
-1582
-1460
-1344
-1235
-1176
-1196
-1263
-1315
-1312
-1266
-1200
-1109
-991
-868
-766
-677
-599
-564
-629
-794
-956
-1008
-964
-964
-1108
-1311
-1386
-1254
-1038
-922
-935
-957
-884
-764
-725
-799
-870
-832
-714
-626
-609
-577
-431
-182
70
223
254
196
88
-35
-141
-213
-265
-318
-364
-367
-302
-203
-137
-136
-170
-199
-224
-288
-425
-614
-800
-939
-1037
-1127
-1225
-1307
-1344
-1350
-1366
-1406
-1442
-1443
-1440
-1515
-1704
-1949
-2141
-2235
-2300
-2431
-2634
-2812
-2874
-2835
-2792
-2818
-2908
-3022
-3134
-3245
-3352
-3440
-3486
-3465
-3366
-3202
-3014
-2851
-2737
-2676
-2669
-2710
-2779
-2847
-2904
-2952
-2985
-2951
-2809
-2571
-2284
-1968
-1633
-1368
-1354
-1719
-2369
-3026
-3454
-3635
-3700
-3704
-3549
-3098
-2340
-1434
-600
-14
250
235
57
-165
-378
-598
-831
-1026
-1096
-987
-742
-506
-484
-843
-1551
-2314
-2761
-2769
-2570
-2461
-2405
-2011
-998
375
1479
1926
1934
1986
2214
2263
1802
983
261
-119
-319
-558
-765
-708
-376
-11
220
426
743
1024
940
399
-295
-807
-1162
-1652
-2365
-2984
-3116
-2700
-2054
-1516
-1144
-779
-327
106
317
225
-50
-312
-466
-583
-796
-1137
-1503
-1771
-1942
-2061
-2079
-1835
-1250
-434
436
1322
2319
3432
4441
5100
5404
5573
5744
5815
5638
5290
5057
5148
5472
5794
5988
6103
6228
6353
6392
6266
5920
5341
4590
3819
3186
2749
2449
2228
2117
2191
2443
2748
2961
3018
2925
2697
2323
1787
1132
469
-82
-485
-794
-1070
-1311
-1465
-1497
-1425
-1271
-998
-566
-9
565
1070
1450
1591
1287
394
-1018
-2721
-4569
-6584
-8774
-10925
-12680
-13850
-14558
-15021
-15286
-15236
-14812
-14109
-13238
-12189
-10898
-9437
-8009
-6767
-5668
-4585
-3483
-2475
-1692
-1163
-801
-490
-137
298
800
1316
1773
2133
2430
2732
3075
3436
3750
3977
4164
4426
4848
5371
5822
6069
6161
6283
6578
7003
7391
7636
7813
8087
8539
9092
9587
9914
10076
10153
10214
10282
10316
10252
10053
9743
9401
9107
8890
8723
8572
8430
8310
8216
8123
8016
7918
7861
7817
7711
7513
7303
7205
7237
7287
7237
7102
7005
7001
6996
6870
6642
6459
6410
6412
6326
6130
5968
5960
6062
6111
5984
5717
5434
5225
5082
4939
4722
4408
4049
3741
3544
3406
3206
2892
2544
2291
2144
1972
1642
1174
718
386
132
-178
-595
-1030
-1347
-1504
-1587
-1713
-1934
-2215
-2498
-2765
-3042
-3361
-3714
-4062
-4366
-4615
-4822
-4996
-5135
-5253
-5390
-5592
-5864
-6152
-6391
-6566
-6724
-6910
-7122
-7314
-7460
-7575
-7691
-7816
-7938
-8047
-8145
-8219
-8221
-8115
-7939
-7781
-7688
-7602
-7438
-7202
-7000
-6921
-6923
-6891
-6766
-6627
-6587
-6642
-6675
-6582
-6386
-6195
-6096
-6098
-6171
-6297
-6449
-6574
-6638
-6667
-6736
-6892
-7086
-7222
-7259
-7241
-7253
-7340
-7492
-7661
-7803
-7887
-7906
-7877
-7837
-7814
-7815
-7833
-7842
-7819
-7749
-7634
-7488
-7330
-7194
-7115
-7100
-7072
-6888
-6432
-5735
-4958
-4248
-3590
-2830
-1860
-780
155
728
919
880
789
721
639
481
257
72
62
261
568
824
952
1002
1043
1059
964
754
553
506
607
719
736
705
746
877
988
976
861
734
639
549
453
397
420
470
468
421
434
561
709
729
603
460
427
489
549
578
663
867
1118
1281
1308
1281
1302
1369
1388
1313
1193
1120
1126
1172
1206
1228
1288
1432
1647
1868
2018
2083
2126
2229
2411
2604
2734
2799
2881
3061
3347
3671
3946
4122
4204
4239
4272
4301
4282
4195
4088
4069
4222
4527
4874
5152
5310
5372
5383
5374
5341
5257
5095
4851
4557
4266
4020
3826
3653
3457
3207
2916
2632
2402
2238
2110
1971
1791
1573
1336
1099
857
588
262
-117
-496
-802
-1000
-1126
-1239
-1358
-1446
-1480
-1481
-1499
-1560
-1656
-1772
-1900
-2037
-2176
-2316
-2465
-2609
-2716
-2759
-2755
-2750
-2771
-2792
-2774
-2731
-2717
-2757
-2803
-2780
-2671
-2526
-2409
-2325
-2232
-2112
-2005
-1968
-1998
-2041
-2061
-2083
-2158
-2284
-2381
-2382
-2331
-2362
-2569
-2896
-3192
-3366
-3458
-3558
-3675
-3715
-3585
-3295
-2938
-2578
-2208
-1811
-1429
-1135
-946
-814
-686
-558
-462
-400
-348
-289
-214
-107
58
261
417
457
401
351
374
435
454
415
387
445
584
742
855
894
864
824
840
931
1041
1084
1035
962
959
1035
1122
1164
1157
1117
1025
870
704
615
653
775
913
1041
1198
1431
1732
2044
2301
2453
2501
2487
2477
2520
2620
2748
2876
2973
3008
2952
2800
1118
1201
1097
879
687
553
365
8
-508
-1089
-1692
-2330
-2965
-3458
-3728
-3863
-3998
-4099
-3927
-3323
-2474
-1773
-1447
-1366
-1257
-1066
-1034
-1435
-2278
-3287
-4137
-4680
-4982
-5176
-5329
-5400
-5307
-5043
-4693
-4372
-4155
-4069
-4112
-4249
-4397
-4452
-4372
-4197
-3995
-3781
-3547
-3327
-3195
-3166
-3130
-2996
-2824
-2772
-2907
-3075
-3039
-2727
-2286
-1905
-1626
-1360
-1062
-799
-660
-605
-497
-247
55
200
92
-118
-157
118
564
901
1010
1063
1325
1865
2473
2868
2967
2913
2897
2958
2988
2887
2710
2627
2752
3019
3240
3286
3230
3227
3320
3371
3240
2972
2755
2718
2793
2843
2841
2865
2937
2945
2775
2464
2183
2045
2006
1953
1839
1725
1694
1763
1890
2023
2105
2097
2002
1876
1780
1708
1596
1409
1207
1085
1052
1016
888
698
566
558
607
596
480
335
269
302
359
356
294
258
319
433
477
392
277
272
370
386
189
-111
-275
-211
-76
-54
-103
-27
222
451
471
352
329
487
636
554
271
34
17
141
201
102
-49
-101
-31
21
-71
-251
-324
-172
103
244
129
-87
-150
-2
163
145
-33
-178
-175
-82
-3
54
131
202
196
136
156
317
481
441
174
-99
-163
-49
10
-123
-320
-339
-127
114
167
54
9
205
536
718
617
400
342
518
734
776
645
527
535
601
613
551
476
391
268
165
216
448
682
699
525
427
591
900
1092
1078
1015
1072
1229
1365
1434
1480
1516
1491
1409
1401
1561
1800
1920
1845
1712
1694
1808
1933
1955
1876
1743
1587
1468
1485
1677
1916
1976
1760
1444
1312
1451
1621
1499
1080
717
725
1031
1237
1058
615
233
40
-137
-454
-779
-823
-478
121
834
1712
2847
4101
5122
5669
5821
5817
5728
5398
4716
3825
3032
2523
2242
2038
1865
1785
1818
1857
1755
1506
1241
1090
1051
993
798
486
193
41
23
41
2
-77
-110
-56
17
27
5
55
207
323
228
-59
-304
-301
-105
49
35
-12
110
412
689
798
827
938
1129
1218
1106
917
856
956
1092
1190
1315
1516
1679
1663
1510
1423
1509
1636
1610
1442
1332
1419
1646
1870
2025
2127
2174
2136
2060
2039
2067
2021
1820
1584
1534
1743
2016
2103
1968
1797
1803
2000
2232
2338
2306
2262
2342
2588
2900
3129
3200
3145
3060
3030
3087
3220
3357
3415
3381
3347
3429
3617
3747
3691
3517
3414
3450
3477
3306
2971
2698
2649
2750
2811
2753
2670
2657
2690
2698
2675
2659
2631
2501
2239
1959
1802
1774
1713
1494
1176
918
817
795
717
540
331
181
120
105
73
-18
-170
-341
-479
-585
-729
-972
-1277
-1505
-1566
-1512
-1471
-1504
-1546
-1505
-1400
-1328
-1342
-1399
-1437
-1438
-1447
-1488
-1539
-1540
-1460
-1328
-1211
-1155
-1113
-985
-743
-502
-402
-433
-411
-191
141
358
355
271
326
556
789
862
784
676
616
584
555
559
632
737
787
750
693
724
865
1040
1133
1102
1000
911
861
819
737
608
447
256
53
-114
-176
-118
7
125
201
250
284
316
378
497
637
689
595
441
398
535
744
867
888
935
1083
1232
1223
1039
833
757
789
788
680
548
519
615
732
760
689
599
558
555
521
409
245
102
24
9
12
-10
-71
-171
-312
-501
-759
-1106
-1531
-1979
-2383
-2705
-2941
-3061
-2975
-2604
-1986
-1276
-608
27
712
1414
1933
2080
1885
1557
1250
911
409
-232
-800
-1111
-1190
-1210
-1293
-1398
-1418
-1335
-1236
-1206
-1262
-1361
-1442
-1455
-1376
-1254
-1189
-1246
-1377
-1458
-1433
-1373
-1380
-1462
-1531
-1518
-1447
-1383
-1341
-1291
-1231
-1205
-1247
-1326
-1362
-1327
-1278
-1310
-1431
-1566
-1637
-1650
-1672
-1740
-1836
-1941
-2099
-2342
-2579
-2668
-2599
-2589
-2918
-3615
-4380
-4850
-4964
-5007
-5313
-5915
-6496
-6688
-6429
-6043
-5952
-6286
-6773
-7008
-6849
-6508
-6272
-6204
-6137
-5935
-5644
-5409
-5287
-5238
-5232
-5302
-5484
-5738
-6003
-6239
-6407
-6467
-6418
-6332
-6322
-6408
-6480
-6424
-6247
-6059
-5937
-5829
-5630
-5306
-4924
-4566
-4227
-3855
-3437
-3033
-2705
-2433
-2132
-1764
-1412
-1213
-1219
-1346
-1462
-1524
-1590
-1730
-1934
-2117
-2217
-2239
-2224
-2200
-2193
-2241
-2371
-2550
-2703
-2834
-3053
-3469
-3991
-4378
-4504
-4546
-4788
-5249
-5619
-5666
-5588
-5784
-6338
-6930
-7367
-8014
-9414
-11472
-13271
-13899
-13340
-12361
-11529
-10551
-8684
-5670
-2078
1217
3747
5596
7040
8230
9196
9970
10601
11087
11421
11704
12134
12829
13680
14409
14813
14932
14962
15042
15142
15176
15169
15278
15612
16076
16412
16414
16097
15675
15396
15369
15523
15685
15747
15770
15954
16460
17253
18120
18857
19445
20008
20642
21312
21890
22301
22574
22766
22891
22930
22916
22939
23045
23140
23083
22874
22727
22916
23514
24309
24994
25422
25681
25929
26190
26330
26172
25634
24786
23796
22830
21968
21162
20289
19264
18126
16981
15887
14792
13599
12269
10859
9436
8022
6619
5258
3990
2831
1728
620
-501
-1565
-2496
-3288
-4027
-4818
-5711
-6689
-7706
-8727
-9740
-10725
-11611
-12295
-12699
-12822
-12736
-12536
-12281
-12008
-11767
-11652
-11765
-12138
-12717
-13411
-14170
-14997
-15891
-16774
-17517
-18034
-18345
-18546
-18727
-18893
-18999
-19019
-18990
-18989
-19054
-19145
-19185
-19138
-19043
-18974
-18956
-18931
-18821
-18623
-18403
-18216
-18046
-17844
-17606
-17395
-17237
-17073
-16799
-16389
-15939
-15566
-15279
-14983
-14608
-14222
-13962
-13869
-13834
-13722
-13527
-13355
-13255
-13125
-12841
-12437
-12085
-11881
-11720
-11437
-11039
-10730
-10662
-10763
-10820
-10718
-10542
-10412
-10325
-10185
-9950
-9689
-9465
-9262
-9033
-8807
-8653
-8559
-8413
-8146
-7814
-7529
-7286
-6947
-6426
-5838
-5448
-5448
-5823
-6406
-7036
-7638
-8200
-8715
-9151
-9434
-9470
-9205
-8677
-8028
-7414
-6925
-6577
-6349
-6224
-6176
-6157
-6118
-6024
-5876
-5687
-5474
-5238
-4972
-4678
-4405
-4238
-4237
-4332
-4349
-4163
-3811
-3463
-3247
-3140
-3005
-2759
-2452
-2218
-2146
-2206
-2269
-2207
-1984
-1678
-1430
-1319
-1292
-1212
-1001
-717
-490
-389
-352
-273
-126
29
123
160
202
275
331
301
181
51
-17
-32
-55
-130
-220
-252
-210
-154
-148
-186
-200
-140
-34
49
84
126
263
551
995
1542
2084
2470
2584
2453
2251
2158
2190
2208
2084
1876
1787
1967
2386
2887
3328
3667
3926
4132
4303
4468
4645
4816
4940
4999
5038
5125
5289
5493
5681
5818
5897
5931
5949
5997
6113
6301
6517
6707
6835
6898
6911
6899
6896
6944
7071
7256
7450
7609
7725
7802
7837
7821
7777
7758
7787
7824
7801
7718
7675
7768
7969
8134
8133
7977
7783
7636
7509
7316
7024
6679
6345
6046
5783
5570
5434
5362
5286
5150
4958
4760
4570
4342
4029
3658
3305
3028
2814
2624
2450
2317
2240
2173
2046
1823
1548
1317
1224
1316
1582
1988
2517
3162
3877
4557
5069
5331
5344
5153
4783
4241
3585
2925
2369
1961
1677
1501
1441
1493
1603
1703
1778
1862
1968
2060
2099
2114
2186
2351
2558
2725
2829
2911
3016
3163
3361
3637
3992
4359
4639
4813
4978
5246
5609
5934
6107
6165
6260
6487
6805
7106
7359
7637
8012
8453
8860
9202
9523
9846
10099
10200
10189
10212
10327
10413
10341
10188
10177
10326
10286
9688
8591
7484
6781
6414
6006
5389
4834
4710
5060
5565
5896
5947
5726
5194
4285
3053
1715
499
-496
-1311
-2021
-2620
-2987
-2940
-2442
-1778
-1462
-1826
-2690
-3486
-3806
-3785
-3888
-4354
-4928
-5163
-4934
-4543
-4348
-4423
-4600
-4746
-4901
-5169
-5515
-5810
-5997
-6177
-6471
-6849
-7194
-7477
-7781
-8188
-8618
-8904
-8967
-8901
-8818
-8674
-8307
-7668
-6968
-6532
-6479
-6597
-6586
-6381
-6227
-6407
-6904
-7379
-7494
-7207
-6773
-6448
-6253
-6028
-5663
-5234
-4900
-4759
-4796
-4960
-5217
-5533
-5865
-6189
-6500
-6765
-6868
-6712
-6347
-6018
-5983
-6283
-6712
-7047
-7295
-7665
-8303
-9079
-9671
-9851
-9671
-9374
-9149
-9000
-8849
-8682
-8563
-8546
-8602
-8651
-8659
-8637
-8580
-8432
-8131
-7683
-7180
-6714
-6328
-6031
-5850
-5839
-6019
-6311
-6561
-6647
-6525
-6218
-5761
-5187
-4521
-3798
-3045
-2300
-1626
-1119
-862
-858
-997
-1123
-1128
-1015
-861
-725
-563
-271
159
576
742
548
123
-269
-460
-473
-440
-420
-319
15
620
1348
1948
2252
2279
2179
2070
1941
1730
1466
1284
1281
1399
1496
1526
1580
1733
1907
1932
1747
1479
1296
1238
1218
1169
1109
1079
1075
1050
982
886
769
605
383
132
-113
-328
-467
-443
-186
279
859
1534
2389
3480
4653
5601
6108
6215
6113
5896
5499
4846
4010
3176
2518
2115
1984
2100
2339
2496
2444
2251
2096
2047
1956
1633
1062
444
24
-97
8
181
301
323
288
277
343
460
546
557
519
495
506
525
524
511
521
559
573
481
280
104
174
586
1161
1591
1726
1696
1721
1784
1647
1186
613
298
413
820
1329
1958
2822
3865
4822
5449
5735
5821
5782
5571
5142
4602
4153
3923
3877
3900
3928
3962
3984
3928
3760
3562
3485
3579
3700
3660
3438
3255
3359
3721
4019
3927
3460
3007
2962
3321
3706
3753
3472
3212
3243
3478
3606
3482
3278
3243
3380
3445
3268
2970
2855
3083
3468
3645
3432
3000
2728
2848
3224
3484
3396
3106
2988
3269
3780
4105
3989
3561
3192
3127
3259
3301
3112
2842
2783
3040
3418
3643
3653
3634
3758
3957
4003
3792
3428
3082
2832
2679
2629
2683
2743
2659
2410
2141
1985
1921
1854
1794
1869
2108
2370
2536
2680
2927
3196
3182
2703
1981
1426
1209
1140
949
644
487
647
992
1253
1295
1199
1080
926
656
266
-133
-411
-524
-513
-448
-396
-423
-525
-599
-535
-362
-249
-314
-468
-530
-461
-412
-502
-632
-630
-514
-489
-655
-812
-703
-323
67
229
152
-62
-374
-794
-1238
-1558
-1750
-1997
-2463
-3053
-3473
-3548
-3433
-3457
-3773
-4249
-4652
-4868
-4962
-5041
-5149
-5279
-5409
-5489
-5440
-5208
-4863
-4559
-4385
-4270
-4084
-3785
-3450
-3154
-2926
-2833
-2983
-3367
-3710
-3680
-3249
-2790
-2691
-2914
-3060
-2842
-2408
-2170
-2363
-2854
-3341
-3621
-3633
-3370
-2858
-2184
-1464
-768
-97
562
1176
1649
1857
1691
1155
456
-80
-321
-482
-880
-1507
-1965
-1912
-1529
-1363
-1687
-2172
-2286
-1928
-1556
-1631
-2103
-2512
-2559
-2388
-2350
-2557
-2793
-2815
-2633
-2476
-2517
-2686
-2779
-2689
-2498
-2357
-2318
-2298
-2197
-2008
-1818
-1682
-1590
-1495
-1408
-1401
-1502
-1630
-1658
-1551
-1418
-1389
-1451
-1425
-1174
-792
-529
-522
-647
-672
-556
-495
-657
-953
-1114
-1022
-817
-704
-716
-693
-513
-229
6
110
118
85
27
-29
-30
73
235
337
322
239
198
236
306
331
282
200
143
156
273
487
713
835
803
699
666
757
888
940
923
954
1135
1433
1716
1874
1899
1853
1811
1802
1812
1803
1745
1671
1649
1731
1908
2103
2239
2279
2246
2194
2190
2280
2444
2595
2639
2570
2466
2407
2402
2404
2379
2340
2308
2288
2290
2343
2462
2608
2722
2762
2725
2610
2432
2255
2195
2303
2481
2556
2466
2337
2343
2499
2666
2702
2607
2472
2366
2314
2345
2475
2636
2704
2644
2586
2703
2972
3181
3171
3029
2974
3104
3294
3366
3298
3222
3250
3375
3506
3575
3580
3563
3560
3564
3522
3383
3169
2985
2913
2923
2900
2797
2685
2649
2658
2601
2431
2219
2041
1892
1720
1553
1495
1580
1686
1653
1467
1296
1295
1419
1477
1348
1125
1002
1056
1174
1200
1119
1026
976
909
742
469
186
-9
-112
-187
-308
-485
-645
-722
-754
-880
-1166
-1497
-1726
-1954
-2518
-3583
-4818
-5645
-5876
-5952
-6420
-7254
-7843
-7715
-7058
-6488
-6369
-6508
-6521
-6283
-5963
-5724
-5515
-5193
-4735
-4272
-3916
-3662
-3441
-3213
-3040
-3031
-3242
-3640
-4129
-4616
-5020
-5270
-5349
-5327
-5335
-5441
-5568
-5582
-5438
-5213
-4992
-4781
-4530
-4237
-3934
-3614
-3196
-2642
-2032
-1487
-1034
-583
-54
506
949
1194
1311
1442
1644
1844
1926
1891
1873
1990
2182
2248
2060
1702
1374
1187
1068
881
578
248
-4
-155
-266
-417
-667
-1001
-1294
-1379
-1208
-970
-923
-1097
-1239
-1187
-1296
-2329
-4748
-8143
-11506
-14132
-16188
-18313
-20734
-22902
-24036
-23893
-22920
-21717
-20525
-19236
-17710
-15929
-13876
-11465
-8668
-5641
-2644
203
2986
5799
8559
11044
13091
14722
16096
17382
18686
20060
21533
23109
24746
26341
27776
28977
29972
30849
31656
32675
32739
31922
31817
32275
-32079
-32126
31835
30579
31391
-32019
32674
29437
27476
31463
-28908
32720
15936
-3701
-11577
-4974
3946
3509
-3100
-3283
6961
16870
15028
4585
-1196
3074
7965
2577
-9956
-15446
-5930
11274
21871
21124
15304
11409
11549
11042
7634
2771
-1456
-4326
-6680
-6805
-4874
-796
2303
2355
-1033
-6438
-11613
-14783
-15347
-13752
-11007
-8259
-6500
-6252
-7369
-9145
-10761
-11713
-11938
-11682
-11311
-11181
-11517
-12313
-13321
-14202
-14727
-14877
-14779
-14609
-14531
-14657
-15008
-15505
-16007
-16397
-16640
-16771
-16846
-16923
-17067
-17329
-17701
-18082
-18348
-18448
-18434
-18395
-18379
-18374
-18349
-18283
-18178
-18040
-17901
-17801
-17763
-17744
-17691
-17607
-17560
-17602
-17695
-17742
-17692
-17592
-17518
-17468
-17366
-17165
-16931
-16783
-16766
-16815
-16841
-16838
-16860
-16941
-17044
-17098
-17074
-16981
-16837
-16652
-16449
-16270
-16142
-16051
-15965
-15874
-15789
-15717
-15647
-15580
-15556
-15599
-15663
-15676
-15627
-15573
-15547
-15467
-15181
-14609
-13829
-12986
-12160
-11339
-10530
-9839
-9400
-9246
-9275
-9361
-9469
-9662
-9983
-10353
-10614
-10652
-10494
-10280
-10131
-10058
-9984
-9844
-9652
-9489
-9409
-9395
-9369
-9257
-9039
-8765
-8518
-8353
-8262
-8180
-8033
-7801
-7526
-7270
-7063
-6880
-6668
-6394
-6070
-5755
-5511
-5372
-5316
-5280
-5188
-4993
-4716
-4424
-4181
-3994
-3821
-3641
-3482
-3386
-3353
-3334
-3292
-3243
-3197
-3101
-2863
-2474
-2054
-1759
-1633
-1579
-1484
-1344
-1242
-1237
-1300
-1348
-1328
-1248
-1135
-1014
-913
-856
-854
-889
-934
-974
-1006
-1032
-1050
-1066
-1094
-1126
-1122
-1055
-941
-828
-735
-638
-514
-392
-320
-290
-244
-159
-116
-218
-442
-615
-571
-319
-34
140
237
418
804
1330
1820
2160
2373
2566
2791
3016
3206
3395
3638
3917
4156
4336
4552
4895
5314
5648
5820
5942
6161
6464
6704
6827
6974
7313
7812
8270
8560
8760
9007
9293
9483
9497
9414
9355
9344
9313
9270
9319
9531
9835
10079
10208
10316
10501
10720
10815
10701
10478
10326
10310
10333
10279
10148
10051
10057
10103
10081
9954
9777
9605
9430
9218
8986
8795
8664
8542
8363
8137
7953
7877
7864
7797
7606
7327
7051
6821
6604
6356
6075
5798
5535
5273
5019
4811
4673
4564
4419
4222
4024
3876
3764
3630
3451
3255
3074
2902
2711
2485
2231
1955
1669
1409
1208
1049
867
622
353
130
-29
-183
-367
-509
-500
-318
-53
202
475
871
1418
1997
2450
2733
2942
3188
3466
3683
3800
3885
4045
4311
4605
4829
4947
4991
5002
4999
4993
5001
5034
5105
5222
5389
5575
5727
5810
5847
5907
6044
6267
6603
7118
7863
8785
9738
10602
11357
12016
12508
12687
12462
11904
11187
10443
9707
8975
8286
7721
7317
7031
6775
6474
6098
5663
5187
4683
4161
3636
3146
2733
2415
2187
2015
1855
1639
1333
981
687
518
411
233
-71
-387
-538
-482
-365
-347
-451
-572
-618
-595
-573
-577
-571
-525
-430
-307
-184
-99
-87
-169
-327
-524
-741
-952
-1124
-1232
-1278
-1296
-1304
-1306
-1318
-1402
-1612
-1930
-2298
-2673
-3052
-3403
-3645
-3732
-3718
-3727
-3853
-4100
-4430
-4840
-5349
-5958
-6641
-7369
-8082
-8676
-9066
-9306
-9576
-9995
-10458
-10742
-10779
-10778
-11034
-11597
-12200
-12547
-12608
-12621
-12814
-13188
-13549
-13728
-13710
-13594
-13479
-13419
-13418
-13429
-13352
-13126
-12815
-12602
-12612
-12766
-12836
-12683
-12398
-12179
-12069
-11899
-11479
-10818
-10111
-9539
-9124
-8762
-8349
-7864
-7355
-6881
-6482
-6137
-5783
-5367
-4892
-4408
-3944
-3488
-3023
-2576
-2197
-1890
-1611
-1321
-1043
-815
-639
-472
-271
-29
242
513
742
897
1001
1123
1296
1436
1393
1121
754
498
430
447
422
353
370
592
987
1411
1720
1858
1857
1789
1700
1602
1489
1371
1273
1235
1235
1195
1074
939
897
963
994
841
545
345
440
766
1034
1017
761
505
403
393
303
87
-127
-192
-95
52
188
368
649
944
1073
963
747
639
697
777
716
534
413
484
684
827
829
793
870
1081
1279
1291
1104
876
799
913
1060
1038
798
525
471
712
1074
1292
1265
1145
1144
1295
1436
1435
1354
1348
1432
1444
1252
962
815
896
1040
1065
1021
1161
1671
2495
3429
4330
5166
5927
6534
6876
6923
6753
6490
6209
5886
5458
4923
4380
3980
3801
3785
3800
3735
3555
3289
3008
2795
2711
2712
2641
2381
2001
1714
1685
1886
2110
2160
2010
1787
1633
1598
1617
1586
1435
1179
911
754
769
904
1031
1061
1048
1110
1259
1341
1203
907
694
707
817
804
651
566
683
843
789
512
267
230
306
265
72
-62
26
208
241
91
-61
-53
40
21
-174
-410
-530
-527
-509
-551
-601
-581
-511
-491
-579
-704
-752
-716
-708
-832
-1054
-1219
-1218
-1121
-1089
-1177
-1281
-1265
-1131
-1037
-1096
-1236
-1293
-1216
-1119
-1158
-1362
-1589
-1698
-1674
-1611
-1582
-1596
-1637
-1700
-1752
-1713
-1528
-1246
-993
-846
-743
-585
-380
-229
-183
-171
-111
-64
-149
-319
-359
-116
310
665
824
900
1052
1266
1410
1423
1393
1425
1507
1548
1517
1517
1685
2032
2434
2719
2822
2817
2843
2958
3092
3136
3065
2949
2875
2860
2856
2831
2811
2824
2851
2821
2664
2409
2157
1987
1885
1738
1420
918
370
-19
-152
-130
-187
-468
-887
-1173
-1123
-790
-432
-270
-302
-363
-316
-148
71
255
336
280
139
57
161
420
666
762
738
734
831
981
1087
1125
1144
1190
1266
1361
1449
1511
1548
1592
1659
1723
1732
1672
1584
1517
1475
1438
1421
1482
1621
1753
1779
1707
1677
1796
2026
2210
2227
2103
1983
1969
2035
2075
2010
1868
1739
1650
1535
1305
992
766
763
916
960
711
295
29
43
110
-101
-615
-1082
-1162
-843
-362
142
758
1573
2449
3151
3628
4012
4326
4366
3977
3327
2779
2488
2254
1825
1271
914
931
1134
1191
994
711
562
590
671
666
539
357
228
222
302
352
282
104
-55
-98
-48
-32
-139
-311
-403
-329
-147
12
75
78
95
145
206
242
246
203
97
-49
-151
-133
-19
70
43
-76
-198
-272
-319
-371
-429
-487
-565
-664
-736
-737
-687
-667
-699
-726
-710
-695
-764
-893
-973
-960
-966
-1113
-1352
-1491
-1395
-1165
-1015
-1035
-1095
-1020
-804
-633
-700
-999
-1337
-1517
-1525
-1537
-1729
-2090
-2424
-2541
-2452
-2351
-2416
-2625
-2798
-2806
-2693
-2600
-2608
-2669
-2722
-2763
-2834
-2948
-3072
-3183
-3333
-3584
-3899
-4141
-4177
-4006
-3769
-3612
-3579
-3605
-3601
-3522
-3382
-3247
-3214
-3337
-3560
-3730
-3721
-3574
-3473
-3563
-3795
-3973
-3971
-3862
-3819
-3928
-4107
-4213
-4201
-4130
-4069
-4031
-4003
-3992
-4019
-4075
-4126
-4171
-4240
-4341
-4431
-4471
-4488
-4545
-4651
-4734
-4738
-4713
-4762
-4906
-5031
-5007
-4837
-4678
-4674
-4808
-4933
-4917
-4775
-4639
-4610
-4661
-4685
-4611
-4469
-4340
-4239
-4116
-3958
-3832
-3810
-3849
-3825
-3683
-3534
-3515
-3606
-3627
-3449
-3151
-2942
-2923
-2992
-2977
-2847
-2721
-2707
-2774
-2815
-2767
-2667
-2561
-2437
-2264
-2063
-1931
-1973
-2131
-2246
-2223
-2143
-2152
-2214
-2132
-1804
-1390
-1139
-1021
-743
-236
20
-578
-1983
-3352
-3854
-3540
-3211
-3382
-3620
-3038
-1348
803
2498
3385
3757
3985
4076
3832
3213
2441
1779
1327
1046
925
978
1202
1521
1830
2055
2156
2138
2082
2173
2620
3447
4427
5314
6130
7100
8255
9180
9361
8792
8091
7866
8072
8167
7891
7685
8197
9493
10958
11983
12531
12950
13406
13685
13563
13127
12677
12408
12327
12380
12549
12819
13213
13855
14905
16337
17833
19015
19799
20395
20938
21226
20881
19642
17438
14265
10210
5683
1397
-2099
-4856
-7334
-9696
-11471
-12015
-11268
-9865
-8512
-7398
-6282
-4988
-3625
-2357
-1170
20
1143
2020
2647
3281
4184
5374
6635
7768
8785
9843
11012
12199
13260
14133
14849
15437
15845
15966
15772
15408
15052
14703
14179
13331
12226
11111
10176
9422
8742
8112
7655
7514
7688
7959
8001
7606
6855
6084
5631
5602
5920
6559
7610
9092
10777
12315
13512
14394
14981
15077
14442
13128
11533
10082
8915
7916
6960
6073
5355
4794
4259
3616
2830
1965
1106
296
-469
-1158
-1682
-1956
-2023
-2075
-2291
-2676
-3075
-3331
-3412
-3386
-3328
-3282
-3283
-3348
-3463
-3597
-3744
-3935
-4160
-4330
-4360
-4266
-4169
-4164
-4243
-4336
-4429
-4585
-4895
-5393
-6013
-6629
-7131
-7499
-7813
-8162
-8527
-8778
-8838
-8800
-8864
-9147
-9592
-10061
-10482
-10877
-11288
-11691
-12020
-12242
-12387
-12516
-12669
-12837
-12989
-13136
-13371
-13809
-14452
-15153
-15714
-16044
-16215
-16345
-16465
-16507
-16413
-16208
-15983
-15814
-15731
-15735
-15817
-15961
-16130
-16268
-16321
-16283
-16197
-16105
-15996
-15807
-15499
-15117
-14771
-14527
-14347
-14151
-13924
-13730
-13630
-13587
-13507
-13346
-13152
-13002
-12895
-12742
-12472
-12102
-11725
-11419
-11182
-10962
-10723
-10479
-10254
-10024
-9730
-9339
-8900
-8512
-8219
-7960
-7645
-7281
-6981
-6837
-6788
-6659
-6314
-5784
-5217
-4755
-4476
-4416
-4578
-4916
-5330
-5715
-6014
-6206
-6236
-5989
-5371
-4396
-3201
-1991
-964
-269
44
47
-132
-414
-828
-1413
-2092
-2656
-2914
-2854
-2645
-2475
-2416
-2419
-2415
-2397
-2417
-2520
-2692
-2873
-3010
-3103
-3188
-3295
-3428
-3578
-3755
-3978
-4235
-4465
-4618
-4718
-4836
-5010
-5180
-5252
-5221
-5204
-5334
-5622
-5948
-6189
-6339
-6487
-6685
-6866
-6911
-6766
-6486
-6168
-5859
-5556
-5262
-5007
-4804
-4617
-4383
-4092
-3800
-3558
-3352
-3119
-2827
-2500
-2178
-1855
-1505
-1130
-770
-449
-125
263
717
1159
1513
1776
2005
2242
2477
2692
2909
3165
3463
3771
4073
4399
4785
5220
5642
5996
6270
6483
6650
6782
6886
6968
7016
7019
7010
7052
7176
7339
7459
7509
7536
7594
7658
7653
7542
7377
7246
7173
7103
6985
6832
6703
6626
6543
6371
6096
5800
5579
5445
5311
5093
4810
4563
4426
4353
4242
4051
3854
3747
3744
3768
3745
3676
3610
3565
3519
3445
3351
3258
3152
2996
2786
2589
2484
2476
2491
2449
2358
2288
2267
2237
2122
1937
1770
1676
1603
1470
1302
1221
1297
1444
1517
1479
1438
1503
1627
1658
1520
1309
1185
1206
1277
1291
1246
1236
1328
1497
1658
1753
1793
1833
1929
2091
2288
2486
2683
2919
3220
3552
3836
4018
4117
4174
4195
4156
4073
4016
4040
4117
4179
4230
4358
4636
5022
5389
5656
5863
6083
6327
6539
6682
6784
6882
6966
7001
7008
7083
7301
7637
7981
8235
8395
8519
8629
8677
8596
8372
8051
7699
7367
7095
6926
6888
6946
6989
6908
6703
6484
6368
6353
6283
5988
5450
4816
4259
3831
3446
2993
2443
1854
1305
876
651
674
923
1280
1616
1909
2256
2749
3354
3878
4114
4000
3651
3246
2861
2444
1941
1391
905
533
181
-247
-689
-951
-943
-842
-959
-1399
-1922
-2199
-2191
-2180
-2423
-2823
-3044
-2923
-2664
-2579
-2713
-2850
-2865
-2949
-3367
-4072
-4679
-4893
-4847
-4912
-5204
-5410
-5175
-4571
-4067
-4043
-4395
-4707
-4768
-4781
-5096
-5754
-6415
-6719
-6638
-6444
-6380
-6425
-6393
-6211
-6017
-5986
-6148
-6406
-6661
-6874
-7000
-6975
-6809
-6647
-6603
-6622
-6519
-6199
-5833
-5717
-5962
-6340
-6471
-6207
-5808
-5665
-5847
-5928
-5448
-4514
-3908
-4363
-5755
-7126
-7608
-7239
-6758
-6664
-6657
-6045
-4582
-2743
-1213
-312
72
156
57
-160
-395
-558
-643
-703
-748
-705
-507
-175
171
378
350
140
-57
-57
161
487
833
1210
1644
2032
2164
1934
1469
1025
765
669
666
776
1077
1564
2098
2515
2762
2890
2947
2908
2727
2411
2025
1644
1345
1189
1194
1291
1357
1314
1204
1119
1079
981
725
345
11
-137
-113
-61
-109
-227
-305
-300
-326
-571
-1092
-1724
-2188
-2326
-2204
-1996
-1779
-1481
-1030
-507
-101
83
116
129
153
77
-188
-585
-922
-1040
-957
-853
-901
-1115
-1339
-1416
-1336
-1254
-1340
-1590
-1835
-1891
-1736
-1513
-1377
-1330
-1255
-1074
-865
-783
-888
-1053
-1055
-810
-487
-339
-449
-633
-624
-355
-23
143
110
22
-15
-47
-148
-233
-134
174
511
669
693
810
1141
1530
1692
1534
1267
1159
1251
1369
1345
1247
1266
1434
1548
1428
1177
1057
1164
1260
1030
497
38
-68
35
-2
-256
-405
-104
627
1478
2230
2917
3625
4269
4682
4841
4866
4813
4595
4154
3629
3277
3204
3283
3324
3256
3120
2950
2738
2507
2316
2177
2022
1792
1520
1312
1250
1314
1411
1462
1410
1224
933
653
521
572
684
677
502
296
248
398
601
685
635
588
670
862
1006
965
750
523
431
492
573
537
425
414
606
881
978
800
530
425
532
650
590
392
261
320
493
634
686
698
723
735
671
524
354
230
166
103
-27
-227
-421
-536
-583
-638
-756
-928
-1110
-1281
-1422
-1487
-1450
-1393
-1460
-1658
-1804
-1703
-1382
-1084
-1008
-1097
-1117
-944
-687
-530
-533
-621
-703
-744
-732
-643
-494
-384
-413
-554
-649
-575
-414
-385
-601
-937
-1159
-1175
-1106
-1135
-1296
-1445
-1443
-1307
-1187
-1193
-1283
-1316
-1192
-967
-813
-850
-1048
-1253
-1328
-1278
-1230
-1284
-1398
-1450
-1368
-1196
-1028
-919
-855
-804
-757
-725
-721
-750
-809
-879
-928
-970
-1074
-1287
-1551
-1732
-1753
-1689
-1675
-1736
-1774
-1704
-1561
-1458
-1431
-1407
-1360
-1362
-1502
-1750
-1962
-2026
-1965
-1876
-1805
-1733
-1649
-1573
-1510
-1438
-1352
-1289
-1289
-1332
-1353
-1320
-1275
-1265
-1272
-1231
-1136
-1067
-1090
-1159
-1144
-983
-774
-676
-730
-816
-783
-628
-490
-471
-498
-415
-174
94
248
310
429
679
962
1140
1190
1212
1286
1391
1488
1606
1798
2033
2206
2254
2243
2292
2423
2547
2572
2501
2398
2318
2271
2262
2297
2357
2392
2383
2382
2451
2584
2699
2727
2682
2613
2524
2369
2136
1876
1635
1409
1190
1064
1184
1651
2405
3281
4163
5040
5913
6691
7213
7376
7237
6936
6539
5984
5223
4375
3698
3361
3267
3150
2857
2500
2293
2280
2277
2079
1699
1330
1111
1007
899
750
625
561
511
408
272
194
216
270
258
163
60
41
132
285
433
514
495
374
191
10
-139
-277
-454
-680
-901
-1031
-1019
-890
-720
-599
-582
-661
-779
-867
-893
-887
-917
-1012
-1132
-1195
-1147
-1016
-890
-821
-795
-758
-684
-599
-542
-535
-585
-688
-818
-921
-948
-917
-913
-970
-1010
-916
-679
-441
-369
-483
-662
-793
-882
-990
-1129
-1223
-1210
-1117
-1019
-923
-787
-601
-443
-388
-417
-441
-418
-393
-404
-414
-357
-243
-163
-172
-223
-246
-249
-304
-404
-449
-385
-291
-292
-399
-495
-490
-447
-502
-698
-961
-1195
-1365
-1500
-1657
-1893
-2226
-2617
-2975
-3227
-3386
-3513
-3629
-3727
-3858
-4129
-4556
-4973
-5155
-5065
-4909
-4896
-4986
-4925
-4542
-3957
-3456
-3198
-3092
-2972
-2805
-2680
-2674
-2752
-2842
-2915
-2984
-3012
-2938
-2759
-2563
-2434
-2354
-2233
-2029
-1798
-1607
-1421
-1120
-639
-47
511
959
1343
1760
2245
2745
3201
3623
4058
4508
4893
5136
5282
5483
5856
6358
6821
7127
7306
7446
7581
7682
7735
7775
7847
7930
7984
8022
8131
8365
8652
8849
8903
8910
8995
9112
9108
8985
8994
9432
10313
11318
12095
12543
12772
12850
12666
12005
10663
8443
5191
999
-3686
-8231
-12195
-15475
-18055
-19705
-20048
-18893
-16427
-13074
-9208
-5092
-1007
2725
5916
8653
11192
13709
16176
18465
20548
22516
24430
26218
27718
28842
29602
29998
29975
29529
28816
28080
27428
26766
25985
25080
23998
22527
20492
18136
16094
14806
13964
12755
10712
8209
6033
4509
3218
1584
-437
-2336
-3600
-4137
-4192
-3994
-3637
-3205
-2853
-2694
-2675
-2642
-2554
-2534
-2716
-3077
-3407
-3486
-3290
-2992
-2799
-2777
-2826
-2824
-2782
-2812
-2970
-3168
-3249
-3139
-2911
-2705
-2592
-2536
-2451
-2265
-1991
-1741
-1688
-1956
-2499
-3136
-3700
-4171
-4612
-5025
-5333
-5495
-5586
-5708
-5881
-6057
-6268
-6663
-7358
-8272
-9175
-9880
-10386
-10826
-11314
-11835
-12295
-12633
-12877
-13117
-13422
-13767
-14059
-14240
-14333
-14390
-14433
-14444
-14424
-14427
-14508
-14672
-14869
-15045
-15175
-15241
-15229
-15134
-14986
-14848
-14769
-14738
-14698
-14584
-14397
-14219
-14141
-14168
-14199
-14127
-13953
-13781
-13689
-13633
-13496
-13240
-12952
-12729
-12577
-12407
-12174
-11946
-11823
-11811
-11821
-11773
-11696
-11661
-11676
-11661
-11553
-11377
-11197
-11027
-10831
-10610
-10435
-10366
-10363
-10329
-10242
-10181
-10208
-10261
-10219
-10051
-9847
-9682
-9512
-9244
-8882
-8538
-8296
-8112
-7907
-7693
-7570
-7589
-7666
-7673
-7579
-7466
-7406
-7367
-7264
-7058
-6801
-6554
-6315
-6057
-5810
-5643
-5593
-5620
-5640
-5615
-5578
-5570
-5608
-5678
-5735
-5711
-5558
-5326
-5167
-5188
-5311
-5313
-5061
-4676
-4414
-4393
-4499
-4553
-4531
-4538
-4636
-4745
-4764
-4703
-4645
-4600
-4491
-4263
-3984
-3785
-3711
-3684
-3626
-3551
-3532
-3590
-3656
-3643
-3551
-3447
-3372
-3306
-3210
-3116
-3106
-3202
-3322
-3366
-3346
-3375
-3528
-3727
-3821
-3766
-3682
-3708
-3843
-3945
-3900
-3739
-3591
-3521
-3450
-3261
-2937
-2577
-2275
-2019
-1727
-1371
-1041
-854
-845
-939
-1038
-1091
-1071
-920
-546
107
1000
2025
3086
4137
5151
6058
6755
7166
7308
7283
7199
7093
6928
6675
6383
6166
6101
6151
6203
6185
6134
6143
6265
6457
6637
6754
6820
6886
6990
7116
7190
7131
6930
6662
6430
6275
6155
6029
5937
5970
6173
6492
6826
7130
7433
7760
8053
8185
8054
7678
7191
6744
6397
6114
5854
5654
5604
5738
5981
6206
6343
6416
6464
6476
6410
6270
6115
6005
5948
5912
5873
5828
5781
5732
5675
5605
5518
5409
5286
5165
5052
4937
4813
4692
4591
4508
4417
4302
4184
4104
4078
4088
4107
4123
4139
4153
4163
4171
4188
4218
4264
4330
4429
4560
4710
4871
5055
5288
5575
5876
6125
6274
6320
6294
6221
6095
5896
5619
5298
4994
4761
4612
4533
4493
4455
4372
4228
4059
3938
3895
3866
3763
3594
3480
3534
3735
3933
4000
3930
3784
3573
3250
2811
2354
1992
1739
1532
1372
1368
1604
1966
2183
2071
1705
1315
1042
828
552
220
-25
-51
129
397
653
878
1068
1190
1200
1076
836
538
244
-22
-286
-587
-899
-1103
-1093
-896
-684
-616
-684
-752
-726
-680
-763
-1035
-1406
-1759
-2077
-2424
-2831
-3232
-3530
-3693
-3802
-3979
-4286
-4687
-5072
-5339
-5486
-5619
-5849
-6156
-6378
-6387
-6287
-6348
-6720
-7245
-7613
-7696
-7668
-7758
-7950
-8024
-7840
-7502
-7197
-6970
-6766
-6655
-6849
-7411
-8058
-8385
-8317
-8193
-8359
-8723
-8845
-8446
-7706
-7053
-6713
-6559
-6364
-6076
-5809
-5654
-5566
-5445
-5243
-4959
-4596
-4177
-3759
-3421
-3194
-3031
-2882
-2783
-2812
-2978
-3160
-3172
-2931
-2544
-2199
-1961
-1705
-1254
-559
274
1126
1978
2840
3662
4363
4923
5409
5842
6113
6084
5783
5399
5082
4814
4496
4145
3901
3869
4020
4243
4473
4720
4957
5096
5076
4937
4789
4699
4623
4484
4266
4033
3864
3789
3779
3787
3790
3786
3785
3792
3784
3717
3565
3349
3139
2990
2878
2723
2506
2334
2342
2532
2724
2727
2536
2327
2260
2323
2347
2214
1977
1772
1689
1707
1760
1816
1843
1774
1530
1148
784
597
558
459
147
-285
-569
-563
-435
-493
-837
-1230
-1361
-1197
-1019
-1079
-1329
-1512
-1472
-1314
-1248
-1351
-1552
-1768
-1964
-2085
-2029
-1795
-1575
-1595
-1856
-2089
-2054
-1818
-1679
-1785
-1959
-1929
-1658
-1367
-1270
-1364
-1500
-1591
-1667
-1763
-1853
-1904
-1928
-1928
-1848
-1628
-1328
-1102
-1041
-1077
-1062
-935
-785
-737
-799
-865
-818
-640
-422
-295
-339
-495
-601
-541
-374
-269
-289
-295
-97
293
642
748
643
514
466
441
374
315
342
437
487
448
419
511
688
790
713
525
385
381
452
478
408
334
378
552
745
830
795
734
723
740
713
629
534
463
411
387
439
559
629
563
444
469
697
942
967
784
624
651
758
737
572
461
543
706
740
625
570
744
1031
1162
1030
793
684
751
851
851
778
769
895
1104
1303
1443
1528
1577
1604
1623
1607
1514
1341
1173
1115
1190
1304
1357
1346
1345
1381
1382
1287
1139
1039
997
915
731
524
450
558
715
752
620
429
323
327
339
250
43
-209
-436
-665
-970
-1354
-1691
-1808
-1632
-1229
-693
-33
813
1812
2770
3470
3844
3980
3950
3724
3245
2573
1880
1305
853
485
231
166
252
347
354
324
349
379
270
-6
-273
-347
-267
-264
-467
-721
-765
-541
-254
-144
-255
-437
-529
-511
-486
-587
-874
-1286
-1684
-1946
-2051
-2068
-2086
-2170
-2354
-2633
-2940
-3150
-3189
-3119
-3100
-3223
-3432
-3598
-3648
-3603
-3503
-3387
-3293
-3270
-3316
-3353
-3273
-3052
-2759
-2504
-2357
-2306
-2272
-2162
-1953
-1726
-1593
-1580
-1594
-1519
-1357
-1218
-1189
-1224
-1223
-1153
-1063
-1000
-970
-956
-924
-838
-684
-515
-452
-569
-770
-868
-770
-567
-412
-354
-330
-311
-342
-433
-482
-373
-159
-39
-131
-320
-376
-194
97
286
293
208
162
200
272
338
408
506
594
598
507
438
543
818
1065
1079
892
759
877
1167
1366
1323
1136
1001
995
1041
1042
994
949
939
968
1048
1176
1304
1349
1277
1152
1084
1134
1252
1315
1233
1037
886
932
1157
1359
1351
1155
978
978
1105
1184
1130
1015
945
935
940
952
1011
1117
1200
1208
1191
1231
1326
1392
1395
1396
1465
1574
1636
1638
1661
1758
1873
1919
1897
1889
1946
2020
2036
2014
2045
2157
2284
2337
2308
2286
2369
2563
2769
2865
2803
2650
2540
2564
2684
2788
2813
2806
2875
3053
3251
3357
3356
3331
3342
3358
3314
3214
3148
3205
3350
3449
3405
3253
3131
3132
3201
3197
3061
2902
2892
3090
3371
3548
3576
3566
3631
3729
3728
3569
3342
3187
3146
3145
3109
3008
2823
2522
2106
1640
1213
857
555
342
346
689
1342
2138
2912
3604
4226
4732
4994
4909
4505
3920
3260
2549
1794
1091
590
343
229
74
-162
-347
-350
-210
-111
-196
-416
-605
-647
-567
-472
-435
-451
-467
-426
-305
-137
36
201
387
626
889
1112
1259
1359
1445
1502
1469
1299
1036
801
706
752
838
840
732
634
696
923
1128
1092
784
393
117
-27
-176
-434
-749
-1015
-1197
-1340
-1472
-1576
-1658
-1804
-2099
-2518
-2960
-3396
-3899
-4540
-5269
-5938
-6464
-6867
-7169
-7327
-7291
-7110
-6903
-6748
-6607
-6436
-6299
-6314
-6484
-6665
-6726
-6717
-6793
-7002
-7198
-7224
-7127
-7120
-7303
-7520
-7540
-7360
-7207
-7233
-7269
-7038
-6597
-6424
-6923
-7911
-8702
-8773
-8249
-7635
-7156
-6507
-5293
-3594
-1955
-856
-324
-90
13
-89
-476
-1018
-1458
-1650
-1652
-1628
-1681
-1809
-1969
-2142
-2383
-2802
-3449
-4221
-4911
-5355
-5556
-5638
-5720
-5836
-5968
-6110
-6275
-6469
-6683
-6903
-7087
-7148
-7054
-6845
-6602
-6419
-6330
-6290
-6179
-5887
-5446
-5048
-4854
-4739
-4363
-3596
-2762
-2279
-2018
-1198
868
3967
7107
9482
11197
12971
15217
17584
19377
20249
20416
20294
20159
20076
19983
19756
19281
18564
17742
16988
16308
15570
14747
13939
13174
12274
11018
9447
7911
6750
5978
5331
4624
3925
3405
3124
3019
3033
3150
3305
3358
3230
3021
2916
3008
3257
3609
4078
4689
5364
5961
6413
6784
7149
7480
7684
7761
7856
8126
8566
9016
9327
9498
9643
9839
10061
10252
10422
10645
10958
11308
11592
11757
11825
11855
11901
11984
12089
12173
12181
12097
11947
11782
11627
11456
11254
11089
11094
11357
11827
12333
12747
13069
13353
13563
13553
13205
12558
11752
10860
9816
8545
7111
5692
4424
3301
2229
1149
52
-1062
-2190
-3304
-4370
-5418
-6534
-7757
-8997
-10113
-11061
-11950
-12902
-13898
-14820
-15604
-16299
-16965
-17570
-18047
-18409
-18733
-19025
-19173
-19087
-18839
-18617
-18518
-18459
-18321
-18112
-17949
-17911
-17961
-18019
-18044
-18026
-17936
-17746
-17473
-17172
-16863
-16540
-16233
-16026
-15963
-15954
-15858
-15640
-15409
-15266
-15155
-14919
-14492
-13982
-13550
-13233
-12945
-12618
-12283
-12022
-11855
-11725
-11562
-11331
-11035
-10691
-10323
-9969
-9644
-9329
-9001
-8678
-8420
-8256
-8134
-7957
-7682
-7370
-7126
-6998
-6930
-6820
-6623
-6393
-6233
-6184
-6184
-6138
-6025
-5908
-5872
-5926
-6012
-6063
-6061
-6033
-6012
-5999
-5959
-5841
-5621
-5329
-5031
-4764
-4492
-4145
-3717
-3282
-2902
-2530
-2068
-1486
-877
-364
4
254
424
516
531
492
422
330
221
135
117
160
199
165
39
-162
-434
-787
-1212
-1670
-2127
-2575
-3000
-3374
-3677
-3926
-4176
-4456
-4746
-5005
-5223
-5406
-5529
-5535
-5404
-5196
-4996
-4829
-4645
-4407
-4159
-3984
-3911
-3865
-3762
-3593
-3417
-3269
-3117
-2910
-2641
-2352
-2076
-1808
-1550
-1325
-1147
-977
-744
-416
-35
335
672
1010
1381
1763
2095
2340
2512
2671
2883
3182
3559
3976
4385
4756
5096
5442
5830
6242
6598
6811
6874
6891
6989
7206
7456
7620
7673
7688
7739
7816
7849
7806
7722
7640
7555
7449
7345
7292
7296
7280
7171
6984
6797
6652
6495
6259
5973
5730
5561
5388
5136
4858
4698
4730
4864
4951
4934
4870
4821
4765
4641
4422
4127
3801
3513
3377
3506
3921
4528
5191
5835
6449
7003
7419
7619
7582
7331
6882
6256
5531
4853
4355
4060
3882
3732
3588
3480
3408
3332
3229
3110
3004
2906
2776
2606
2457
2415
2519
2713
2881
2921
2815
2657
2584
2644
2737
2692
2451
2142
1976
2034
2196
2273
2205
2092
2055
2109
2174
2170
2093
1995
1937
1938
1975
1990
1944
1864
1828
1871
1924
1887
1752
1624
1612
1701
1793
1824
1796
1728
1603
1410
1201
1016
799
446
-36
-462
-648
-620
-597
-739
-984
-1149
-1178
-1214
-1418
-1779
-2161
-2475
-2755
-3060
-3335
-3467
-3435
-3346
-3285
-3223
-3090
-2955
-3013
-3351
-3776
-4005
-3977
-3939
-4159
-4592
-4926
-4935
-4710
-4511
-4455
-4417
-4259
-4017
-3823
-3716
-3579
-3324
-3027
-2854
-2837
-2791
-2507
-1985
-1475
-1246
-1330
-1535
-1652
-1654
-1678
-1877
-2256
-2680
-3002
-3187
-3334
-3585
-3985
-4440
-4810
-5062
-5334
-5780
-6397
-7012
-7448
-7687
-7837
-7981
-8100
-8164
-8200
-8257
-8315
-8274
-8076
-7788
-7571
-7527
-7606
-7647
-7542
-7324
-7134
-7074
-7095
-7041
-6777
-6321
-5837
-5480
-5278
-5148
-5000
-4804
-4583
-4361
-4126
-3839
-3474
-3037
-2553
-2047
-1537
-1042
-598
-238
43
281
502
698
851
996
1196
1481
1802
2086
2339
2645
3052
3479
3782
3907
3959
4088
4328
4578
4722
4768
4824
4984
5233
5505
5748
5946
6092
6180
6224
6267
6349
6447
6495
6469
6418
6391
6364
6259
6057
5845
5722
5656
5494
5140
4709
4408
4308
4250
4018
3583
3118
2802
2627
2445
2174
1873
1627
1431
1197
872
483
79
-314
-669
-924
-1003
-872
-529
24
765
1613
2425
3058
3440
3590
3559
3376
3005
2406
1625
833
226
-130
-337
-519
-672
-706
-623
-580
-716
-944
-1051
-978
-931
-1146
-1594
-1968
-2030
-1860
-1761
-1935
-2279
-2522
-2511
-2337
-2198
-2180
-2194
-2086
-1835
-1594
-1528
-1610
-1635
-1456
-1179
-1062
-1240
-1569
-1766
-1687
-1439
-1210
-1087
-1014
-900
-708
-473
-259
-139
-177
-374
-615
-764
-773
-707
-650
-604
-524
-382
-192
-1
139
173
60
-184
-466
-688
-831
-938
-1019
-1034
-969
-849
-690
-447
-93
260
429
359
227
247
406
465
258
-79
-252
-149
38
45
-143
-278
-157
142
350
309
128
36
139
330
418
314
99
-60
-48
104
266
320
243
128
101
221
426
560
508
314
171
254
523
748
741
584
536
714
964
1037
882
691
644
706
718
625
531
554
664
746
752
736
775
871
981
1062
1101
1123
1147
1151
1060
818
527
403
551
790
826
612
414
506
805
951
729
335
131
209
322
235
19
-39
207
599
847
839
693
580
539
497
408
287
139
-73
-334
-505
-433
-134
185
282
112
-157
-301
-235
-14
220
311
196
-44
-197
-75
308
726
956
969
878
802
798
879
1039
1193
1217
1074
898
859
973
1075
1029
886
775
728
672
558
441
385
344
265
177
125
41
-196
-541
-725
-545
-179
-61
-394
-878
-1012
-636
-90
145
-68
-476
-767
-823
-738
-675
-741
-923
-1066
-950
-452
338
1187
1932
2588
3223
3780
4101
4096
3879
3661
3479
3157
2552
1796
1253
1146
1320
1384
1126
702
407
343
357
282
144
67
67
40
-57
-131
-92
7
18
-136
-387
-626
-804
-917
-932
-833
-703
-681
-799
-909
-849
-648
-495
-528
-687
-817
-851
-856
-914
-1008
-1061
-1038
-961
-851
-718
-585
-494
-459
-436
-391
-360
-412
-540
-632
-608
-522
-482
-492
-419
-172
149
332
295
180
180
300
359
219
-31
-178
-107
82
200
192
162
226
372
473
445
337
253
225
181
69
-61
-96
1
140
204
174
159
291
585
906
1054
916
570
235
106
177
254
149
-92
-207
32
568
1068
1217
990
631
393
299
186
-90
-483
-796
-884
-757
-551
-413
-409
-504
-599
-620
-570
-528
-562
-658
-719
-662
-500
-319
-215
-247
-425
-689
-912
-976
-887
-789
-812
-924
-956
-808
-569
-420
-434
-524
-563
-549
-578
-694
-831
-885
-856
-856
-964
-1128
-1210
-1154
-1047
-1021
-1085
-1124
-1048
-909
-816
-788
-725
-563
-379
-317
-411
-536
-550
-457
-403
-483
-628
-686
-593
-439
-347
-333
-299
-176
-23
46
-5
-77
-62
22
65
3
-95
-108
-16
95
134
119
134
212
316
386
402
384
355
334
351
413
462
437
370
396
588
824
876
680
451
463
717
900
730
292
-54
-80
71
64
-222
-596
-807
-830
-858
-1048
-1371
-1671
-1858
-1962
-2037
-2074
-1989
-1687
-1128
-342
575
1484
2246
2792
3131
3297
3282
3030
2500
1755
955
240
-352
-857
-1302
-1686
-2021
-2361
-2736
-3090
-3347
-3530
-3757
-4079
-4380
-4509
-4486
-4492
-4632
-4770
-4720
-4523
-4425
-4560
-4762
-4768
-4586
-4508
-4749
-5172
-5445
-5407
-5186
-4960
-4698
-4227
-3475
-2588
-1772
-1096
-488
108
610
881
910
871
979
1290
1673
2012
2358
2856
3497
4018
4130
3849
3510
3452
3711
4071
4410
4867
5666
6820
8073
9148
9959
10596
11116
11435
11481
11371
11345
11572
11986
12395
12737
13172
13896
14882
15882
16741
17662
19043
20963
22914
24141
24322
23901
23682
24059
24697
24977
24706
24391
24764
26093
27942
29565
30491
30760
30708
30574
30360
29944
29267
28408
27486
26559
25615
24576
23326
21803
20057
18185
16249
14280
12372
10753
9688
9271
9331
9570
9783
9928
9996
9923
9681
9389
9278
9545
10232
11234
12396
13572
14654
15598
16401
17003
17251
16968
16125
14919
13663
12562
11624
10763
9949
9258
8757
8390
8003
7472
6781
6000
5206
4414
3611
2819
2125
1611
1273
1027
779
494
213
-7
-164
-309
-470
-606
-661
-661
-719
-926
-1222
-1437
-1462
-1379
-1383
-1594
-1969
-2382
-2780
-3218
-3772
-4461
-5249
-6079
-6908
-7695
-8411
-9077
-9758
-10525
-11402
-12362
-13359
-14353
-15336
-16327
-17340
-18355
-19319
-20184
-20945
-21620
-22220
-22737
-23186
-23606
-24026
-24412
-24706
-24888
-25003
-25106
-25214
-25290
-25310
-25295
-25284
-25308
-25368
-25444
-25504
-25519
-25490
-25443
-25385
-25278
-25060
-24732
-24399
-24181
-24100
-24061
-23953
-23754
-23538
-23366
-23188
-22852
-22232
-21318
-20220
-19073
-17957
-16874
-15818
-14859
-14130
-13722
-13602
-13620
-13620
-13544
-13433
-13339
-13247
-13090
-12821
-12478
-12143
-11883
-11700
-11552
-11409
-11279
-11174
-11068
-10913
-10691
-10441
-10226
-10068
-9919
-9742
-9573
-9488
-9488
-9487
-9399
-9236
-9084
-8996
-8932
-8826
-8673
-8520
-8384
-8225
-8019
-7782
-7544
-7300
-7044
-6814
-6659
-6558
-6409
-6130
-5758
-5405
-5127
-4888
-4642
-4410
-4255
-4193
-4167
-4110
-3995
-3834
-3644
-3444
-3260
-3104
-2961
-2805
-2649
-2543
-2514
-2521
-2469
-2300
-2055
-1841
-1713
-1593
-1357
-995
-667
-566
-708
-888
-905
-766
-661
-700
-764
-656
-341
-6
142
86
-18
-45
-35
-123
-375
-715
-1002
-1160
-1218
-1247
-1279
-1283
-1230
-1141
-1081
-1103
-1204
-1353
-1525
-1723
-1944
-2154
-2311
-2397
-2430
-2439
-2448
-2464
-2479
-2476
-2441
-2375
-2290
-2205
-2126
-2024
-1853
-1585
-1247
-916
-658
-459
-230
95
479
799
985
1093
1251
1531
1891
2238
2531
2802
3111
3495
3958
4456
4912
5257
5485
5678
5929
6244
6527
6679
6714
6757
6940
7295
7741
8149
8457
8696
8961
9300
9659
9914
9965
9812
9542
9259
9027
8869
8768
8697
8638
8607
8644
8763
8915
9005
8971
8822
8620
8403
8160
7863
7517
7175
6895
6681
6477
6222
5917
5625
5400
5230
5050
4818
4559
4340
4191
4079
3937
3736
3513
3327
3197
3086
2940
2755
2574
2444
2365
2294
2200
2102
2050
2063
2112
2180
2291
2487
2751
2994
3119
3121
3081
3077
3104
3095
3022
2940
2927
2990
3059
3069
3031
3002
3006
3035
3109
3300
3691
4271
4946
5630
6295
6933
7473
7793
7819
7582
7166
6631
5992
5293
4628
4097
3721
3451
3243
3117
3099
3143
3131
2977
2704
2415
2177
1963
1718
1463
1281
1199
1130
977
758
596
562
565
468
275
139
168
290
355
327
308
368
431
366
179
13
-36
-31
-94
-227
-293
-196
-13
96
83
17
-74
-268
-616
-991
-1165
-1082
-943
-971
-1123
-1146
-902
-586
-531
-836
-1257
-1509
-1561
-1603
-1781
-2012
-2094
-1930
-1590
-1223
-936
-775
-740
-796
-884
-991
-1161
-1462
-1893
-2348
-2675
-2821
-2899
-3092
-3492
-3990
-4370
-4560
-4726
-5118
-5783
-6490
-6962
-7135
-7172
-7219
-7249
-7139
-6833
-6398
-5927
-5456
-5023
-4715
-4579
-4547
-4478
-4298
-4063
-3874
-3743
-3629
-3499
-3359
-3193
-2949
-2635
-2359
-2218
-2198
-2184
-2093
-1938
-1791
-1693
-1626
-1541
-1399
-1195
-970
-792
-682
-580
-402
-151
54
110
61
61
208
440
618
669
648
638
680
751
800
794
740
700
754
904
1064
1150
1168
1230
1407
1630
1751
1729
1678
1737
1944
2220
2458
2610
2663
2630
2555
2502
2509
2522
2447
2282
2167
2252
2516
2760
2809
2699
2632
2730
2898
2952
2835
2686
2652
2690
2611
2326
1994
1884
2071
2320
2314
1977
1547
1321
1343
1364
1121
610
73
-248
-322
-306
-364
-523
-696
-800
-844
-902
-1018
-1161
-1281
-1360
-1429
-1517
-1594
-1596
-1509
-1405
-1385
-1495
-1688
-1871
-1983
-2017
-2014
-2027
-2092
-2198
-2299
-2363
-2413
-2509
-2652
-2737
-2615
-2216
-1610
-935
-262
424
1110
1676
1944
1856
1538
1179
845
444
-112
-727
-1167
-1279
-1138
-954
-876
-902
-944
-958
-975
-1026
-1104
-1177
-1219
-1228
-1201
-1112
-927
-663
-405
-258
-262
-333
-332
-196
-5
86
15
-117
-149
-21
160
243
206
164
220
357
472
503
484
480
504
524
530
538
539
487
378
298
327
425
446
318
146
91
159
197
61
-196
-408
-499
-558
-711
-946
-1115
-1079
-843
-540
-315
-226
-226
-224
-157
-59
-43
-201
-512
-858
-1104
-1153
-995
-711
-425
-228
-132
-57
72
242
366
377
280
138
22
-14
92
359
679
853
752
466
225
193
307
362
234
7
-105
22
285
459
434
338
382
609
820
747
345
-126
-335
-208
11
42
-137
-295
-233
-3
163
155
67
47
89
66
-78
-227
-232
-83
98
228
315
373
387
368
403
536
638
500
83
-374
-568
-439
-216
-168
-337
-563
-693
-707
-654
-566
-483
-476
-595
-778
-897
-887
-849
-921
-1102
-1234
-1204
-1088
-1047
-1137
-1269
-1347
-1411
-1573
-1832
-2071
-2201
-2266
-2362
-2472
-2457
-2209
-1794
-1407
-1208
-1185
-1190
-1103
-987
-1044
-1409
-1966
-2426
-2577
-2484
-2372
-2346
-2308
-2132
-1876
-1730
-1773
-1885
-1900
-1782
-1648
-1605
-1625
-1613
-1495
-1260
-964
-709
-609
-709
-928
-1111
-1178
-1175
-1173
-1168
-1093
-924
-732
-612
-576
-562
-559
-668
-988
-1477
-1915
-2084
-1945
-1625
-1243
-749
16
1096
2310
3373
4098
4532
4841
5071
5083
4707
3976
3189
2672
2489
2421
2242
1977
1851
1981
2190
2231
2059
1841
1695
1523
1177
694
314
196
211
123
-128
-347
-327
-90
169
298
307
306
360
434
458
378
192
-37
-216
-257
-154
22
175
270
332
418
569
750
885
917
849
739
650
603
609
695
875
1066
1110
928
657
547
683
872
847
580
313
277
438
595
652
675
740
801
780
708
690
743
765
679
553
517
581
627
604
597
707
878
934
796
598
532
634
768
810
785
796
874
945
951
911
872
834
757
634
521
469
477
515
572
667
809
962
1071
1124
1149
1177
1205
1224
1256
1340
1480
1620
1696
1707
1719
1781
1859
1893
1893
1940
2087
2260
2331
2276
2217
2278
2418
2463
2314
2072
1944
1999
2099
2057
1838
1593
1485
1525
1600
1610
1545
1464
1412
1389
1378
1366
1333
1261
1158
1061
988
918
834
777
803
892
953
905
778
669
613
541
390
189
33
-40
-80
-130
-152
-93
26
117
119
58
-13
-94
-218
-360
-450
-447
-389
-328
-268
-194
-151
-237
-514
-931
-1362
-1733
-2037
-2268
-2380
-2331
-2154
-1939
-1763
-1673
-1737
-2042
-2576
-3153
-3511
-3543
-3403
-3311
-3272
-3042
-2426
-1565
-873
-681
-949
-1370
-1711
-2025
-2497
-3166
-3834
-4267
-4421
-4440
-4449
-4384
-4108
-3623
-3115
-2758
-2515
-2160
-1530
-700
102
734
1266
1856
2528
3136
3517
3640
3616
3539
3395
3138
2780
2418
2163
2060
2070
2126
2215
2419
2788
3215
3471
3396
3054
2650
2341
2173
2216
2566
3123
3457
3138
2287
1606
1677
2287
2627
2259
1663
1706
2670
3959
4792
4969
4826
4673
4462
3995
3279
2506
1790
1098
426
-93
-328
-335
-303
-382
-593
-897
-1286
-1770
-2268
-2585
-2565
-2258
-1883
-1624
-1497
-1420
-1354
-1317
-1269
-1078
-699
-334
-287
-634
-1125
-1477
-1724
-2175
-3012
-4015
-4727
-4845
-4402
-3639
-2788
-1977
-1230
-455
506
1689
2881
3754
4179
4383
4760
5528
6584
7661
8546
9175
9595
9870
10011
9956
9614
8969
8165
7446
7014
6923
7120
7552
8198
8994
9811
10504
11025
11432
11786
12045
12088
11865
11508
11247
11204
11290
11346
11348
11430
11678
11990
12189
12267
12410
12756
13210
13568
13766
13941
14207
14468
14553
14462
14378
14446
14605
14705
14711
14722
14818
14959
15039
15006
14863
14613
14278
13929
13640
13367
12957
12324
11587
10964
10541
10199
9765
9218
8670
8192
7722
7165
6497
5769
5005
4182
3294
2402
1575
808
48
-721
-1438
-2045
-2586
-3166
-3848
-4604
-5362
-6083
-6777
-7457
-8114
-8745
-9352
-9930
-10448
-10871
-11219
-11559
-11949
-12387
-12825
-13229
-13611
-14019
-14485
-15000
-15531
-16028
-16458
-16793
-17031
-17198
-17347
-17511
-17670
-17772
-17792
-17782
-17830
-17979
-18188
-18365
-18465
-18530
-18617
-18723
-18773
-18700
-18512
-18300
-18153
-18060
-17949
-17801
-17727
-17883
-18286
-18745
-19021
-19062
-19013
-19011
-18985
-18710
-18057
-17115
-16091
-15116
-14198
-13347
-12651
-12204
-12005
-11960
-11984
-12066
-12236
-12484
-12744
-12907
-12883
-12647
-12277
-11919
-11668
-11476
-11198
-10753
-10239
-9831
-9592
-9430
-9217
-8943
-8705
-8560
-8453
-8281
-8008
-7695
-7424
-7208
-7001
-6747
-6425
-6065
-5743
-5539
-5486
-5527
-5547
-5441
-5196
-4895
-4629
-4406
-4168
-3853
-3489
-3169
-2948
-2796
-2654
-2518
-2445
-2461
-2502
-2457
-2287
-2047
-1794
-1505
-1139
-735
-407
-221
-112
24
173
217
102
-50
-57
120
344
482
583
802
1177
1570
1814
1898
1949
2086
2289
2452
2509
2479
2422
2396
2430
2494
2515
2439
2310
2238
2290
2406
2491
2561
2726
3006
3228
3180
2867
2537
2415
2452
2419
2202
1952
1898
2098
2386
2576
2629
2635
2664
2690
2633
2447
2159
1841
1554
1303
1055
786
529
353
270
208
93
-53
-122
-38
158
351
470
543
641
801
989
1132
1186
1175
1179
1262
1414
1575
1711
1868
2111
2419
2679
2823
2898
2994
3103
3110
2942
2683
2492
2425
2404
2348
2300
2379
2612
2876
3017
2994
2882
2756
2614
2415
2158
1899
1689
1540
1437
1376
1365
1406
1478
1537
1549
1509
1449
1405
1382
1365
1336
1284
1203
1099
999
960
1006
1090
1134
1137
1196
1395
1674
1866
1863
1733
1613
1528
1371
1062
675
366
205
122
19
-104
-168
-122
-17
47
31
-23
-45
-9
43
58
22
-25
-34
-7
6
-10
-28
-17
20
39
12
-61
-194
-424
-747
-1045
-1151
-974
-560
-3
668
1485
2404
3254
3849
4143
4203
4053
3618
2864
1949
1170
723
572
541
525
560
705
910
1050
1027
834
518
143
-219
-519
-724
-826
-810
-683
-530
-510
-733
-1124
-1464
-1585
-1536
-1501
-1580
-1653
-1517
-1133
-680
-385
-317
-371
-416
-425
-431
-437
-364
-155
149
444
658
814
948
1033
996
809
540
295
137
70
83
182
371
610
831
980
1057
1108
1157
1185
1155
1077
1024
1064
1182
1293
1332
1334
1379
1487
1604
1681
1743
1834
1940
2007
2014
2005
1996
1924
1717
1410
1145
1024
984
871
621
350
226
289
405
372
102
-285
-564
-636
-643
-848
-1337
-1859
-2026
-1700
-1131
-721
-642
-711
-625
-256
251
641
747
609
427
421
682
1104
1469
1635
1652
1690
1842
2123
2345
2461
2517
2586
2683
2782
2906
3135
3479
3799
3913
3811
3684
3731
3932
4041
3860
3466
3156
3179
3527
3976
4291
4400
4408
4487
4723
5047
5306
5392
5334
5254
5246
5328
5474
5645
5786
5823
5726
5561
5453
5443
5447
5364
5200
5049
4974
4950
4912
4851
4794
4725
4594
4406
4254
4210
4221
4153
3951
3728
3620
3592
3445
3063
2576
2251
2177
2166
1974
1575
1165
923
818
691
439
111
-178
-366
-467
-550
-702
-988
-1411
-1884
-2296
-2609
-2881
-3184
-3502
-3748
-3841
-3797
-3701
-3639
-3661
-3750
-3856
-3936
-4001
-4121
-4336
-4552
-4592
-4381
-4087
-3996
-4212
-4522
-4586
-4279
-3778
-3330
-2969
-2510
-1824
-1005
-265
268
595
740
695
478
185
-92
-344
-607
-854
-1011
-1055
-1051
-1064
-1064
-1003
-948
-1041
-1328
-1655
-1807
-1748
-1650
-1683
-1796
-1770
-1469
-1006
-642
-535
-591
-580
-397
-163
-68
-184
-413
-615
-707
-678
-537
-317
-109
-21
-63
-106
-21
173
316
269
70
-115
-152
-37
108
144
4
-245
-438
-459
-355
-295
-368
-485
-487
-354
-218
-200
-287
-373
-411
-454
-532
-604
-615
-588
-570
-535
-429
-248
-65
64
153
229
266
234
190
220
309
336
236
100
68
152
232
225
181
169
156
82
-8
2
142
291
306
203
124
169
294
381
355
249
168
186
273
320
240
91
31
143
334
436
394
324
348
450
524
510
446
387
350
335
374
476
564
569
498
430
410
360
187
-74
-277
-325
-275
-268
-343
-391
-305
-121
36
109
145
178
136
-57
-308
-424
-353
-276
-406
-710
-939
-923
-741
-606
-599
-623
-573
-477
-444
-500
-580
-619
-604
-589
-623
-675
-642
-422
-59
223
234
22
-138
-53
123
68
-289
-626
-571
-126
345
519
426
346
416
500
422
193
-11
-108
-204
-446
-793
-1003
-894
-584
-399
-549
-886
-1086
-982
-728
-632
-811
-1104
-1253
-1154
-927
-771
-789
-949
-1131
-1233
-1235
-1200
-1218
-1318
-1437
-1498
-1501
-1537
-1675
-1891
-2132
-2362
-2539
-2566
-2333
-1823
-1199
-623
-46
734
1758
2733
3254
3215
2897
2629
2420
2003
1246
394
-158
-269
-177
-181
-321
-404
-299
-136
-149
-378
-615
-656
-532
-469
-617
-849
-908
-681
-323
-87
-69
-154
-204
-193
-196
-272
-390
-470
-475
-428
-355
-243
-73
147
341
422
374
290
274
333
350
249
121
129
323
560
676
686
761
972
1169
1144
881
595
491
541
556
435
274
230
334
471
530
504
447
404
390
404
415
361
201
-3
-119
-81
38
101
67
25
71
199
333
411
420
355
236
127
115
208
302
299
236
263
480
798
1022
1056
991
971
1024
1042
930
743
631
676
784
792
659
511
482
572
677
739
786
836
830
725
591
539
561
508
281
-4
-140
-53
134
253
271
278
349
471
594
678
688
599
459
376
446
654
893
1080
1216
1367
1580
1841
2080
2217
2203
2067
1917
1866
1931
2027
2063
2045
2061
2170
2339
2490
2562
2566
2544
2505
2432
2310
2165
2055
2017
2028
2021
1951
1850
1794
1822
1877
1863
1765
1673
1694
1819
1919
1890
1770
1704
1765
1867
1859
1689
1465
1339
1365
1461
1513
1489
1453
1485
1586
1673
1662
1551
1419
1334
1283
1198
1057
929
897
949
982
922
818
772
805
804
664
415
214
166
207
189
69
-49
-61
-13
-55
-281
-651
-1064
-1458
-1802
-2022
-2022
-1783
-1376
-850
-148
804
1905
2868
3418
3518
3367
3150
2858
2341
1541
627
-113
-517
-655
-713
-786
-839
-882
-1130
-1910
-3329
-5061
-6522
-7322
-7505
-7368
-7069
-6456
-5318
-3718
-2039
-727
-14
119
-200
-841
-1658
-2470
-3128
-3609
-3974
-4230
-4292
-4068
-3615
-3129
-2788
-2615
-2514
-2373
-2150
-1832
-1379
-748
11
735
1278
1663
2066
2629
3308
3926
4404
4859
5392
5846
5896
5428
4760
4387
4481
4760
4877
4852
5033
5630
6431
7004
7133
6960
6737
6557
6345
6050
5740
5523
5445
5497
5648
5846
6056
6266
6468
6604
6587
6411
6242
6259
6413
6441
6199
5907
5897
6116
6389
5160
2941
1318
1468
1973
2082
813
513
2792
6458
8907
9397
12690
19724
26950
25988
14194
-1409
-10794
-11340
-8877
-8868
-9062
-3775
6169
11833
6283
-6140
-13377
-9015
754
5015
467
-5496
-4195
5469
16510
23782
26121
24776
18864
8022
-5693
-14189
-11912
-839
10967
15828
13384
6263
-433
-6142
-11011
-13802
-12309
-6250
601
2539
-2498
-10538
-15350
-14668
-12162
-12092
-13732
-12666
-7859
-4738
-9459
-20124
-27341
-24019
-13763
-6281
-6834
-11453
-14177
-14846
-17753
-23521
-26396
-21614
-12692
-8028
-11288
-17261
-19082
-16717
-15863
-19001
-21830
-19266
-13299
-10630
-13959
-18224
-17483
-12780
-10491
-13217
-16404
-14652
-9469
-7539
-11526
-16221
-15553
-10485
-7898
-10956
-15176
-14474
-9546
-6807
-9598
-13586
-12713
-7115
-3469
-6539
-14008
-19298
-18565
-13169
-6958
-3304
-4222
-9556
-15745
-16848
-10075
345
6024
2600
-6163
-13091
-15083
-14485
-13810
-11783
-5602
3629
9954
7974
-2288
-15219
-24125
-25166
-18439
-7056
4313
11051
10343
2856
-7762
-16624
-20271
-18033
-11832
-4899
-156
925
-1359
-5432
-9330
-11554
-11523
-9605
-6827
-4388
-3172
-3415
-4696
-6268
-7478
-8001
-7851
-7285
-6679
-6359
-6422
-6692
-6933
-7100
-7338
-7691
-7925
-7732
-7085
-6300
-5714
-5365
-5057
-4663
-4295
-4164
-4349
-4724
-5071
-5239
-5217
-5133
-5143
-5303
-5500
-5560
-5440
-5284
-5257
-5364
-5456
-5393
-5180
-4923
-4700
-4534
-4400
-4258
-4077
-3853
-3639
-3509
-3478
-3464
-3363
-3158
-2947
-2835
-2845
-2924
-3016
-3111
-3214
-3289
-3261
-3098
-2845
-2591
-2380
-2179
-1939
-1705
-1610
-1738
-2011
-2242
-2300
-2213
-2092
-1984
-1834
-1561
-1124
-541
98
608
755
431
-195
-772
-1055
-1074
-996
-862
-533
107
982
1880
2633
3168
3422
3312
2854
2242
1747
1515
1495
1567
1690
1905
2226
2582
2868
2994
2923
2665
2286
1888
1560
1344
1235
1227
1298
1376
1340
1107
723
335
44
-209
-560
-1054
-1580
-1986
-2255
-2505
-2819
-3125
-3275
-3222
-3070
-2958
-2908
-2845
-2725
-2586
-2482
-2420
-2367
-2312
-2244
-2117
-1873
-1528
-1174
-879
-617
-300
75
432
722
994
1310
1596
1693
1561
1385
1416
1723
2151
2536
2907
3424
4148
4913
5472
5711
5703
5579
5387
5101
4739
4417
4257
4283
4399
4498
4563
4656
4806
4942
4937
4740
4430
4138
3938
3824
3753
3719
3735
3788
3835
3842
3805
3735
3610
3380
3021
2557
2040
1523
1049
680
506
606
1004
1659
2488
3391
4249
4929
5310
5344
5097
4693
4216
3673
3047
2411
1919
1683
1665
1718
1712
1630
1524
1428
1337
1224
1096
1000
972
1022
1131
1274
1449
1654
1869
2035
2081
1997
1871
1825
1897
1985
1948
1773
1618
1643
1805
1862
1624
1177
803
688
763
844
883
1000
1282
1627
1855
1910
1893
1907
1934
1879
1717
1510
1328
1193
1108
1069
1046
955
748
486
300
276
393
572
769
974
1154
1255
1250
1143
943
628
208
-217
-515
-644
-681
-720
-752
-708
-586
-502
-575
-784
-981
-1058
-1038
-1059
-1201
-1415
-1577
-1609
-1554
-1524
-1603
-1761
-1893
-1937
-1951
-2052
-2276
-2557
-2803
-2987
-3146
-3264
-3262
-3113
-2911
-2774
-2710
-2618
-2459
-2337
-2395
-2632
-2900
-3063
-3104
-3083
-3012
-2864
-2665
-2519
-2502
-2565
-2591
-2548
-2535
-2640
-2800
-2847
-2702
-2505
-2449
-2552
-2644
-2598
-2499
-2542
-2755
-2921
-2823
-2522
-2297
-2340
-2535
-2620
-2503
-2362
-2408
-2624
-2807
-2802
-2647
-2459
-2256
-1966
-1575
-1174
-853
-590
-302
3
215
240
116
-23
-61
17
172
375
620
907
1240
1617
2028
2404
2653
2748
2760
2786
2845
2853
2746
2588
2532
2688
3021
3406
3735
3976
4155
4304
4437
4550
4629
4676
4733
4859
5060
5265
5394
5457
5535
5677
5836
5935
5961
5983
6059
6201
6379
6559
6691
6715
6594
6369
6097
5755
5249
4583
3945
3561
3450
3388
3174
2882
2802
3116
3702
4258
4616
4866
5190
5616
5987
6124
5984
5654
5216
4673
4008
3276
2592
2051
1633
1242
801
363
44
-126
-296
-661
-1259
-1895
-2326
-2517
-2656
-2890
-3134
-3201
-3087
-3028
-3231
-3625
-3964
-4129
-4237
-4449
-4742
-4934
-4913
-4774
-4698
-4753
-4848
-4852
-4729
-4541
-4387
-4330
-4383
-4505
-4628
-4677
-4631
-4550
-4541
-4661
-4834
-4886
-4694
-4321
-3973
-3821
-3860
-3918
-3824
-3566
-3300
-3202
-3318
-3533
-3662
-3585
-3311
-2967
-2718
-2654
-2716
-2734
-2567
-2235
-1916
-1793
-1889
-2044
-2078
-1964
-1813
-1728
-1710
-1696
-1644
-1544
-1383
-1151
-891
-720
-724
-849
-936
-889
-795
-808
-935
-994
-801
-372
68
306
342
360
508
735
863
793
620
520
589
755
903
1008
1156
1411
1730
1994
2160
2283
2427
2569
2630
2576
2468
2372
2317
2287
2264
2250
2255
2300
2415
2576
2685
2656
2521
2441
2547
2754
2846
2719
2476
2309
2305
2414
2554
2635
2560
2285
1931
1748
1868
2115
2163
1897
1552
1442
1603
1791
1792
1632
1460
1351
1263
1195
1212
1315
1390
1328
1182
1117
1167
1178
999
679
408
263
122
-117
-358
-435
-327
-207
-205
-257
-229
-158
-225
-521
-928
-1252
-1429
-1527
-1625
-1719
-1764
-1723
-1569
-1296
-1030
-961
-1157
-1440
-1568
-1520
-1529
-1771
-2134
-2359
-2364
-2301
-2309
-2342
-2288
-2188
-2201
-2342
-2424
-2315
-2099
-1965
-1951
-1929
-1826
-1742
-1794
-1916
-1960
-1936
-2014
-2216
-2259
-1811
-852
267
1185
1871
2531
3277
3933
4224
4048
3538
2902
2259
1615
967
373
-78
-342
-469
-556
-686
-884
-1130
-1394
-1669
-1935
-2163
-2329
-2465
-2596
-2692
-2699
-2624
-2579
-2664
-2837
-2938
-2845
-2627
-2460
-2441
-2504
-2522
-2454
-2368
-2329
-2323
-2271
-2102
-1825
-1530
-1326
-1276
-1366
-1491
-1537
-1478
-1397
-1421
-1589
-1778
-1787
-1540
-1201
-1045
-1189
-1481
-1667
-1651
-1572
-1613
-1791
-1968
-1999
-1870
-1630
-1310
-970
-749
-759
-933
-1031
-899
-678
-654
-926
-1261
-1343
-1111
-817
-726
-827
-881
-710
-393
-157
-136
-261
-381
-441
-496
-602
-718
-756
-702
-643
-644
-666
-620
-492
-387
-408
-540
-667
-684
-578
-449
-385
-390
-387
-304
-138
65
239
342
381
407
506
707
948
1103
1078
929
856
1004
1277
1395
1213
921
880
1219
1669
1860
1720
1531
1557
1745
1842
1746
1625
1663
1812
1866
1758
1647
1709
1892
1982
1864
1641
1517
1558
1638
1630
1548
1495
1508
1513
1444
1347
1317
1389
1487
1507
1432
980
787
715
719
691
591
505
561
769
985
1072
1050
1052
1131
1195
1153
1058
1035
1093
1091
958
866
1038
1422
1659
1482
1057
820
964
1215
1175
785
380
294
521
757
742
486
203
113
296
650
952
990
726
332
30
-124
-281
-625
-1190
-1844
-2392
-2700
-2727
-2532
-2251
-1984
-1720
-1330
-702
117
938
1574
1952
2111
2132
2097
2052
1973
1767
1352
776
195
-258
-560
-751
-857
-891
-908
-997
-1184
-1393
-1538
-1624
-1729
-1867
-1962
-1967
-1952
-2024
-2194
-2362
-2447
-2491
-2587
-2770
-2977
-3117
-3135
-3031
-2852
-2689
-2611
-2588
-2512
-2341
-2167
-2136
-2246
-2316
-2220
-2101
-2217
-2598
-2952
-2995
-2799
-2707
-2880
-3065
-2908
-2431
-2068
-2174
-2620
-2964
-2977
-2841
-2846
-2989
-2986
-2617
-1976
-1336
-886
-644
-584
-735
-1111
-1616
-2102
-2497
-2842
-3205
-3544
-3715
-3612
-3287
-2941
-2790
-2906
-3153
-3324
-3315
-3179
-3041
-2964
-2906
-2794
-2603
-2378
-2192
-2097
-2087
-2075
-1935
-1593
-1133
-732
-486
-312
-69
245
476
508
430
474
801
1378
2077
2815
3603
4460
5354
6194
6881
7350
7599
7689
7717
7741
7754
7761
7850
8106
8489
8824
8961
8929
8894
8961
9038
8972
8778
8644
8704
8888
9038
9117
9238
9486
9818
10152
10448
10673
10824
11061
11785
13391
15807
18384
20402
21665
22509
23258
23744
23378
21646
18471
14233
9561
5068
1095
-2350
-5384
-7980
-9997
-11484
-12781
-14104
-15150
-15298
-14342
-12847
-11556
-10511
-8968
-6252
-2583
1062
3817
5535
6608
7445
8223
8959
9659
10328
10946
11527
12200
13116
14274
15515
16626
17451
17923
18028
17828
17487
17199
17057
16991
16864
16622
16330
16059
15818
15571
15322
15084
14785
14254
13371
12207
10977
9805
8613
7280
5859
4545
3458
2522
1627
854
425
383
462
355
99
36
398
1008
1454
1524
1364
1221
1145
1005
683
199
-386
-1035
-1692
-2252
-2628
-2863
-3081
-3350
-3593
-3693
-3623
-3446
-3233
-3023
-2858
-2815
-2928
-3139
-3334
-3460
-3574
-3774
-4087
-4448
-4761
-4984
-5140
-5299
-5524
-5797
-6020
-6103
-6070
-6064
-6224
-6538
-6855
-7029
-7053
-7049
-7162
-7447
-7837
-8218
-8514
-8744
-8995
-9328
-9692
-9963
-10064
-10061
-10105
-10250
-10401
-10451
-10426
-10475
-10686
-10982
-11219
-11380
-11591
-11965
-12441
-12850
-13090
-13209
-13331
-13499
-13646
-13680
-13588
-13459
-13409
-13486
-13631
-13756
-13843
-13972
-14212
-14507
-14724
-14792
-14789
-14862
-15042
-15219
-15266
-15183
-15076
-15025
-14994
-14906
-14715
-14455
-14184
-13941
-13736
-13559
-13404
-13289
-13237
-13232
-13191
-13018
-12714
-12411
-12244
-12193
-12081
-11737
-11197
-10684
-10383
-10252
-10079
-9719
-9241
-8835
-8605
-8490
-8378
-8244
-8152
-8148
-8194
-8225
-8225
-8226
-8240
-8232
-8150
-7987
-7796
-7624
-7473
-7301
-7077
-6819
-6574
-6398
-6311
-6273
-6212
-6085
-5935
-5848
-5832
-5768
-5512
-5074
-4655
-4448
-4407
-4306
-4012
-3663
-3497
-3525
-3504
-3232
-2805
-2521
-2527
-2668
-2692
-2543
-2384
-2382
-2519
-2633
-2586
-2347
-1990
-1619
-1321
-1119
-960
-780
-584
-449
-451
-565
-696
-762
-763
-744
-734
-714
-669
-640
-677
-770
-838
-821
-741
-681
-703
-803
-938
-1075
-1202
-1314
-1401
-1468
-1533
-1603
-1659
-1670
-1625
-1532
-1429
-1347
-1301
-1273
-1210
-1087
-933
-805
-734
-702
-678
-629
-504
-217
302
1029
1870
2749
3673
4644
5562
6259
6649
6816
6893
6915
6810
6534
6175
5896
5803
5868
5976
6016
5963
5875
5833
5871
5931
5918
5807
5681
5654
5746
5862
5896
5840
5774
5758
5771
5770
5763
5810
5952
6156
6339
6423
6404
6328
6242
6152
6036
5886
5731
5612
5541
5496
5469
5482
5532
5545
5441
5241
5066
5000
4965
4801
4469
4128
3977
4044
4150
4119
3956
3811
3801
3887
3939
3876
3714
3517
3326
3145
2963
2763
2533
2281
2044
1875
1804
1812
1841
1850
1839
1823
1799
1735
1618
1486
1405
1399
1424
1416
1363
1323
1343
1408
1445
1420
1380
1386
1442
1491
1499
1503
1563
1678
1764
1748
1655
1582
1598
1682
1755
1773
1770
1819
1960
2163
2340
2424
2415
2375
2377
2443
2537
2607
2656
2729
2870
3067
3282
3495
3709
3923
4085
4115
3977
3737
3516
3393
3347
3296
3196
3091
3056
3114
3213
3250
3131
2840
2445
2053
1731
1480
1271
1115
1047
1069
1139
1209
1264
1290
1251
1107
880
658
503
412
379
451
667
971
1230
1381
1463
1519
1491
1291
952
633
449
365
272
141
61
110
288
572
939
1308
1518
1462
1233
1034
957
867
591
140
-303
-593
-759
-900
-1048
-1161
-1223
-1294
-1443
-1683
-2001
-2384
-2792
-3163
-3476
-3786
-4157
-4514
-4670
-4530
-4246
-4102
-4227
-4465
-4551
-4378
-4113
-3979
-4048
-4208
-4287
-4234
-4110
-4010
-3951
-3848
-3587
-3123
-2491
-1743
-922
-102
594
1053
1265
1323
1268
1032
547
-116
-728
-1076
-1130
-1011
-861
-726
-555
-293
61
446
745
862
807
742
834
1113
1434
1616
1643
1687
1931
2371
2824
3116
3262
3427
3741
4163
4547
4773
4842
4844
4875
4992
5207
5481
5722
5844
5851
5855
5963
6116
6128
5878
5478
5173
5083
5072
4924
4593
4253
4087
4076
4042
3872
3647
3505
3441
3301
2945
2398
1830
1383
1065
797
515
209
-90
-348
-560
-738
-918
-1148
-1433
-1738
-2014
-2231
-2383
-2451
-2430
-2371
-2357
-2431
-2547
-2615
-2610
-2611
-2734
-3005
-3333
-3575
-3627
-3470
-3201
-2978
-2931
-3048
-3184
-3211
-3141
-3084
-3115
-3206
-3293
-3354
-3413
-3438
-3372
-3214
-3042
-2930
-2862
-2782
-2697
-2648
-2634
-2581
-2453
-2321
-2301
-2395
-2482
-2436
-2259
-2103
-2088
-2183
-2249
-2187
-2040
-1940
-1954
-1973
-1759
-1106
-9
1257
2242
2612
2485
2466
3114
4330
5256
5011
3569
1810
609
-13
-745
-2091
-3805
-5220
-5927
-5987
-5615
-4882
-3842
-2745
-1957
-1634
-1557
-1386
-1003
-602
-509
-882
-1509
-1917
-1747
-1066
-318
96
144
82
96
138
63
-102
-182
-69
148
289
238
28
-198
-278
-153
65
186
151
125
324
733
1070
1106
934
855
1022
1282
1416
1427
1490
1661
1778
1706
1552
1559
1804
2087
2173
2061
1949
1988
2132
2241
2222
2057
1749
1297
765
288
5
-36
140
498
1027
1696
2460
3288
4133
4890
5366
5387
4973
4366
3839
3443
2997
2357
1640
1135
1024
1169
1259
1146
970
912
941
837
492
83
-134
-126
-121
-310
-609
-768
-673
-455
-315
-300
-335
-375
-436
-481
-420
-240
-128
-314
-773
-1183
-1242
-996
-758
-742
-867
-906
-748
-495
-320
-308
-462
-736
-1033
-1276
-1444
-1581
-1714
-1805
-1805
-1737
-1692
-1687
-1611
-1362
-1024
-816
-878
-1121
-1319
-1326
-1171
-969
-827
-818
-943
-1104
-1150
-1022
-854
-866
-1128
-1466
-1656
-1661
-1641
-1724
-1868
-1975
-2052
-2190
-2384
-2480
-2362
-2152
-2120
-2367
-2676
-2732
-2484
-2186
-2085
-2138
-2095
-1870
-1670
-1716
-1922
-1962
-1707
-1387
-1320
-1493
-1605
-1499
-1391
-1559
-1904
-2002
-1645
-1135
-966
-1221
-1468
-1264
-679
-190
-169
-559
-992
-1145
-1002
-789
-744
-929
-1178
-1231
-1003
-715
-645
-801
-872
-614
-194
2
-138
-289
-111
329
617
498
143
-105
-141
-144
-277
-457
-518
-439
-354
-339
-326
-217
-71
-80
-310
-621
-807
-798
-738
-824
-1060
-1232
-1141
-820
-510
-423
-541
-659
-628
-485
-373
-380
-473
-577
-652
-671
-611
-472
-314
-199
-100
85
405
752
924
841
632
498
494
485
349
130
-15
3
144
334
537
726
821
762
608
522
598
765
876
888
908
1043
1269
1465
1539
1507
1420
1288
1097
865
644
445
248
66
-9
129
489
994
1578
2242
3010
3824
4554
5098
5445
5626
5641
5449
5037
4486
3925
3461
3129
2893
2687
2475
2291
2188
2160
2121
1964
1681
1389
1199
1130
1110
1074
1016
962
927
921
961
1046
1136
1183
1184
1183
1214
1291
1441
1678
1922
2012
1866
1618
1511
1609
1712
1605
1349
1221
1363
1599
1707
1758
2026
2547
2953
2849
2313
1837
1794
2017
2038
1662
1163
953
1126
1415
1522
1398
1197
1044
914
718
440
144
-98
-258
-371
-480
-586
-664
-691
-667
-608
-539
-498
-515
-587
-665
-694
-657
-594
-562
-588
-651
-738
-854
-969
-1018
-1001
-1009
-1122
-1286
-1377
-1377
-1440
-1679
-1969
-2084
-2003
-1953
-2100
-2278
-2176
-1772
-1414
-1417
-1664
-1759
-1540
-1294
-1416
-1938
-2520
-2834
-2882
-2881
-2942
-2936
-2664
-2096
-1410
-810
-365
-23
259
428
357
7
-505
-993
-1355
-1638
-1928
-2221
-2406
-2396
-2248
-2117
-2124
-2259
-2431
-2588
-2761
-3015
-3368
-3782
-4189
-4501
-4626
-4508
-4214
-3913
-3731
-3622
-3420
-3033
-2570
-2238
-2147
-2219
-2287
-2258
-2151
-2019
-1892
-1777
-1662
-1528
-1334
-1053
-713
-378
-76
222
558
954
1397
1866
2335
2766
3116
3366
3542
3679
3790
3855
3857
3810
3752
3716
3709
3722
3744
3779
3828
3888
3946
3989
4013
4023
4020
3984
3899
3756
3562
3353
3168
3012
2842
2583
2200
1730
1248
806
407
30
-305
-552
-697
-738
-638
-351
111
675
1270
1873
2466
2989
3397
3709
3979
4068
3574
2178
88
-1955
-3265
-3791
-3976
-4048
-3601
-2137
464
2158
2515
2549
3650
4938
5878
5272
5211
7328
10342
12009
12837
16746
23681
29508
26945
14701
-657
-10751
-12900
-10545
-8080
-6310
-3575
1151
7087
12598
15966
15499
10177
764
-10030
-18582
-21275
-15290
-232
18415
31831
31831
18978
2754
-5311
-3133
3970
7345
3632
-2989
-6093
-2220
6081
14812
18391
14751
4982
-7317
-17350
-21024
-17304
-8586
442
5498
4635
-1233
-9195
-15955
-19307
-18845
-15787
-12165
-9838
-9758
-11768
-14905
-17936
-19868
-20291
-19476
-18179
-17189
-16934
-17353
-18127
-18969
-19716
-20257
-20497
-20442
-20267
-20194
-20319
-20548
-20723
-20784
-20803
-20864
-20955
-20984
-20892
-20724
-20595
-20566
-20575
-20513
-20365
-20246
-20272
-20393
-20404
-20162
-19744
-19379
-19199
-19099
-18874
-18453
-17981
-17656
-17527
-17459
-17283
-16955
-16571
-16251
-16026
-15824
-15555
-15195
-14792
-14416
-14086
-13770
-13434
-13080
-12724
-12365
-11990
-11603
-11230
-10892
-10568
-10226
-9867
-9520
-9212
-8925
-8610
-8242
-7833
-7411
-7000
-6609
-6247
-5918
-5613
-5322
-5054
-4826
-4637
-4463
-4279
-4072
-3850
-3626
-3419
-3265
-3195
-3205
-3249
-3271
-3251
-3213
-3182
-3161
-3140
-3111
-3071
-3017
-2965
-2955
-3019
-3137
-3239
-3273
-3253
-3230
-3216
-3165
-3027
-2805
-2564
-2375
-2274
-2242
-2222
-2158
-2052
-1976
-2007
-2114
-2167
-2058
-1818
-1576
-1425
-1336
-1234
-1100
-978
-901
-866
-873
-936
-1036
-1064
-878
-406
290
1081
1879
2657
3399
4059
4559
4839
4876
4680
4296
3789
3254
2794
2488
2345
2281
2188
2031
1867
1757
1664
1486
1183
860
662
618
617
555
469
489
672
896
983
869
657
507
487
558
634
677
692
698
721
804
976
1198
1351
1337
1166
957
820
746
623
362
-13
-399
-723
-996
-1256
-1500
-1696
-1838
-1972
-2146
-2357
-2572
-2784
-3034
-3344
-3675
-3955
-4142
-4261
-4356
-4419
-4392
-4240
-4012
-3820
-3728
-3696
-3633
-3498
-3351
-3271
-3251
-3183
-2963
-2605
-2225
-1921
-1695
-1489
-1262
-1026
-812
-638
-525
-487
-497
-474
-351
-140
92
302
514
755
999
1196
1356
1535
1748
1932
2041
2135
2320
2623
2958
3238
3482
3769
4125
4471
4703
4781
4744
4669
4635
4675
4751
4779
4718
4646
4686
4858
5027
5033
4881
4726
4681
4686
4606
4415
4240
4212
4302
4344
4225
4006
3834
3771
3726
3579
3328
3078
2909
2785
2631
2450
2324
2306
2337
2303
2165
1985
1848
1764
1673
1527
1334
1135
971
861
794
740
668
586
533
539
569
561
498
456
524
683
800
766
623
543
650
889
1099
1203
1294
1525
1930
2383
2732
2945
3100
3257
3383
3412
3346
3258
3210
3187
3151
3101
3103
3208
3403
3614
3786
3909
4008
4088
4114
4052
3899
3701
3503
3315
3147
3041
3038
3127
3246
3358
3489
3608
3501
2871
1661
260
-713
-883
-380
402
1279
2456
4236
6563
8903
10587
11266
11092
10457
9598
8463
6956
5240
3709
2668
2098
1754
1474
1286
1252
1288
1206
896
416
-136
-707
-1249
-1671
-1891
-1958
-2049
-2291
-2629
-2862
-2839
-2617
-2414
-2409
-2598
-2833
-3023
-3233
-3562
-3954
-4229
-4291
-4268
-4357
-4576
-4759
-4809
-4847
-5057
-5425
-5770
-5974
-6093
-6199
-6225
-6067
-5806
-5662
-5720
-5802
-5700
-5481
-5444
-5753
-6226
-6552
-6660
-6769
-7075
-7494
-7791
-7855
-7804
-7788
-7810
-7770
-7620
-7406
-7164
-6870
-6537
-6280
-6186
-6146
-5941
-5525
-5138
-5029
-5118
-5024
-4474
-3611
-2809
-2255
-1822
-1333
-811
-406
-162
16
190
303
307
291
413
726
1134
1544
1952
2362
2701
2858
2822
2731
2730
2814
2833
2665
2352
2065
1953
2032
2177
2234
2128
1925
1787
1846
2100
2381
2473
2283
1935
1661
1591
1651
1676
1622
1604
1742
1985
2143
2083
1861
1633
1482
1378
1274
1188
1193
1349
1657
2067
2481
2776
2878
2827
2725
2598
2372
1985
1532
1238
1217
1324
1289
1004
626
383
321
289
139
-123
-381
-556
-651
-689
-671
-621
-617
-714
-884
-1028
-1080
-1055
-1012
-993
-1018
-1093
-1192
-1243
-1192
-1076
-1005
-1040
-1129
-1173
-1139
-1076
-1044
-1043
-1044
-1055
-1087
-1094
-1013
-883
-846
-999
-1251
-1414
-1397
-1321
-1359
-1528
-1666
-1625
-1449
-1319
-1339
-1444
-1508
-1511
-1560
-1756
-2064
-2341
-2504
-2600
-2719
-2836
-2798
-2440
-1749
-877
18
888
1765
2636
3386
3864
4002
3834
3435
2876
2235
1630
1159
821
574
429
468
706
1007
1168
1113
936
764
624
466
288
148
91
77
63
69
132
224
271
242
185
154
139
116
113
167
258
311
290
248
224
162
13
-163
-233
-156
-61
-80
-171
-148
72
360
531
525
429
343
280
220
176
158
128
46
-37
14
259
569
738
683
501
345
277
251
187
20
-260
-558
-687
