-2582
-2407
-2320
-2301
-2582
-2298
-2407
-2295
-2320
-2301
-2323
-2298
-2398
-2295
-2489
-2323
-2398
-2489
-2549
-2561
-2539
-2509
-2509
-2580
-2726
-2871
-2917
-2549
-2561
-2539
-2509
-2509
-2580
-2726
-2871
-2917
-2850
-2793
-2898
-3181
-3500
-3710
-3826
-4006
-4366
-2850
-2793
-2898
-3181
-3500
-3710
-3826
-4006
-4366
-4855
-5312
-4855
-5617
-5312
-5768
-5617
-5830
-5768
-5850
-5830
-5821
-5850
-5717
-5821
-5547
-5717
-5547
-5352
-5352
-5172
-5008
-4838
-4646
-4445
-4259
-4074
-3836
-5172
-5008
-4838
-3508
-4646
-3120
-4445
-2753
-4259
-2453
-4074
-2203
-3836
-1982
-1826
-1799
-3508
-1900
-3120
-2753
-2453
-2203
-1982
-1826
-1799
-1900
-2025
-2070
-2070
-2028
-2028
-1982
-1982
-2000
-2000
-2053
-2053
-2064
-2064
-2000
-2000
-1905
-1905
-1837
-1817
-1817
-1834
-1834
-1891
-1891
-1994
-1994
-2122
-2122
-2229
-2229
-2311
-2311
-2431
-2431
-2637
-2891
-3095
-3218
-3345
-3551
-3766
-3824
-2637
-2891
-3095
-3218
-3345
-3551
-3766
-3824
-3651
-3367
-3164
-3093
-3037
-2888
-2689
-2587
-2680
-3651
-3367
-3164
-3093
-3037
-2888
-2942
-2689
-2587
-2680
-2942
-3287
-3644
-3966
-4204
-3287
-3644
-3966
-4204
-4353
-4353
-4470
-4470
-4619
-4619
-4787
-4787
-4881
-4881
-4841
-4841
-4724
-4653
-4691
-4724
-4797
-4653
-4891
-4691
-4937
-4797
-4963
-4891
-5006
-4937
-4963
-5006
-5057
-5057
-5091
-5091
-5103
-5103
-5094
-5094
-5036
-5036
-4867
-4867
-4538
-4538
-4070
-4070
-3526
-3526
-2939
-2939
-2277
-1485
-576
-2277
361
-1485
1237
-576
2046
361
2846
1237
3649
2046
2846
3649
4362
4858
4362
5102
4858
5192
5102
5256
5192
5331
5256
5344
5331
5221
5344
5013
5221
5013
4871
4909
5089
5255
4871
5299
4909
5244
5193
5089
5205
5255
5247
5299
5244
5193
5205
5247
5264
5240
5201
5192
5244
5391
5647
5955
5264
5240
5201
5192
5244
5391
5647
5955
6203
6203
6311
6294
6294
6209
6209
6070
6070
5846
5846
5544
5544
5253
5253
5065
5065
4984
4984
4937
4880
4845
4891
5017
5163
4937
5268
4880
5322
4845
5338
4891
5017
5163
5268
5324
5322
5338
5284
5234
5190
5145
5324
5077
5284
4991
5234
4930
5190
4945
5145
5077
4991
4930
4945
5045
5196
5366
5551
5749
5940
6097
6227
6382
5045
5196
5366
5551
5749
5940
6097
6227
6382
6594
6827
7003
7101
7185
7331
7544
7755
7907
6594
6827
7003
7101
7185
7331
7544
7755
7907
8023
8144
8248
8266
8170
8013
7876
7768
7622
7386
7087
6822
6690
6730
6917
7182
7453
7711
7987
8318
8673
8952
8144
8248
8266
8170
8013
7876
7768
7622
7386
7087
6822
6690
6730
6917
7182
7453
7711
7987
8318
8673
8952
9071
9034
8914
8792
8703
9071
9034
8914
8792
8703
8636
8560
8636
8464
8358
8560
8464
8266
8358
8192
8100
8266
7947
8192
7770
8100
7947
7770
7694
7694
7817
7817
8087
8087
8335
8335
8455
8455
8521
8521
8675
8675
8931
8931
9109
9109
9020
8670
8247
7936
7774
7696
7665
7715
7870
9020
8670
8247
7936
8094
7774
7696
8317
7665
8492
8615
7715
8690
7870
8703
8644
8536
8416
8094
8317
8492
8312
8615
8227
8690
8155
8703
8079
8644
7978
8536
7835
8416
7636
7380
7080
8312
8227
8155
8079
7978
7835
7636
7380
7080
6753
6423
6117
5852
6423
5632
6117
5449
5852
5278
5632
5085
5449
5278
4835
5085
4835
4522
4522
4180
4180
3854
3854
3559
3559
3281
3281
3021
3021
2821
2821
2726
2726
2718
2718
2717
2653
2523
2355
2154
1891
1570
1252
1004
2717
2653
2523
2355
2154
1891
1570
1252
1004
836
718
652
674
795
957
1077
1123
1134
1145
836
1148
718
652
1127
1101
674
1116
795
1191
957
1077
1123
1134
1308
1445
1590
1145
1148
1127
1101
1116
1191
1308
1445
1590
1723
1814
1844
1823
1723
1775
1814
1707
1844
1612
1823
1775
1484
1707
1612
1331
1484
1331
1163
999
882
860
939
1059
1158
1256
1435
1163
999
882
860
939
1059
1158
1256
1435
1725
2040
2242
2278
2243
2271
2392
1725
2513
2040
2540
2242
2278
2243
2271
2392
2513
2540
2494
2497
2494
2644
2497
2644
2899
2899
3137
3137
3266
3266
3295
3295
3297
3297
3323
3323
3379
3379
3460
3577
3577
3744
3744
3948
3948
4164
4164
4390
4632
4390
4874
4632
4874
5059
5141
5059
5141
5128
5064
4984
4907
4854
4858
4928
5128
5064
4984
4907
4854
4858
4928
5041
5161
5280
5405
5529
5630
5691
5703
5643
5041
5479
5161
5222
5280
4932
5405
4673
5529
4444
5630
4196
5691
5703
3903
3610
3377
5643
5479
5222
4932
4673
4444
4196
3903
3610
3377
3208
3045
2839
2595
2361
2163
1979
1769
1506
3208
3045
2839
2595
2361
2163
1979
1769
1193
871
584
357
165
1506
-50
-333
-668
-1013
1193
871
584
-1351
357
-1708
165
-50
-2117
-333
-2568
-668
-3003
-1013
-3372
-3673
-3954
-1351
-4265
-1708
-4605
-4916
-2117
-5131
-2568
-5233
-3003
-5275
-3372
-5334
-5442
-3673
-5570
-5677
-3954
-4265
-4605
-4916
-5131
-5233
-5275
-5334
-5442
-5570
-5677
-5770
-5770
-5881
-5881
-6007
-6007
-6105
-6105
-6149
-6149
-6198
-6198
-6355
-6355
-6661
-6661
-7039
-7039
-7381
-7681
-8043
-8563
-9211
-9844
-10331
-10663
-10929
-7381
-7681
-8043
-8563
-9211
-9844
-10331
-10663
-10929
-11212
-11212
-11538
-11538
-11891
-11891
-12257
-12257
-12651
-12651
-13089
-13089
-13563
-13563
-14068
-14068
-14615
-14615
-15193
-15193
-15734
-15734
-16104
-16202
-16061
-16104
-15831
-15639
-16202
-15487
-16061
-15296
-15831
-15639
-15487
-15296
-15053
-14840
-14767
-15053
-14861
-14840
-15070
-14767
-15350
-14861
-15070
-15350
-15694
-15694
-16107
-16564
-16107
-16564
-17038
-17534
-18077
-17038
-18662
-17534
-19219
-18077
-18662
-19652
-19219
-19880
-19652
-19897
-19880
-19788
-19897
-19788
-19677
-19677
-19645
-19645
-19647
-19647
-19568
-19568
-19369
-19369
-19165
-19165
-19122
-19122
-19292
-19292
-19551
-19551
-19731
-19774
-19735
-19656
-19500
-19215
-18831
-18433
-18061
-17662
-19731
-17179
-19774
-16653
-19735
-16197
-19656
-15892
-19500
-15714
-19215
-15581
-18831
-15442
-18433
-15301
-18061
-17662
-17179
-16653
-16197
-15892
-15714
-15581
-15442
-15301
-15162
-14988
-14742
-14442
-14139
-13837
-13475
-13017
-12539
-15162
-14988
-14742
-14442
-14139
-13837
-13475
-13017
-12539
-12179
-12179
-12003
-11927
-11814
-11619
-11408
-11262
-11152
-10970
-10652
-10241
-9841
-9504
-9205
-8897
-8583
-12003
-11927
-11814
-11619
-11408
-11262
-8313
-11152
-8130
-10970
-10652
-8026
-7971
-10241
-9841
-7945
-9504
-7949
-9205
-7991
-8897
-8583
-8083
-8246
-8313
-8495
-8130
-8808
-8026
-7971
-7945
-7949
-7991
-8083
-8246
-8495
-8808
-9132
-9431
-9738
-10112
-10582
-11511
-11987
-12518
-13085
-9132
-9431
-9738
-10112
-10582
-11511
-11987
-12518
-13085
-13604
-13604
-14015
-14363
-14363
-14720
-14720
-15082
-15368
-15082
-15530
-15368
-15634
-15530
-15788
-15788
-16021
-16258
-16021
-16421
-16258
-16518
-16421
-16615
-16518
-16741
-16615
-16852
-16741
-16885
-16852
-16826
-16885
-16826
-16712
-16712
-16577
-16577
-16424
-16424
-16251
-16251
-16079
-16079
-15934
-15934
-15825
-15825
-15737
-15737
-15653
-15653
-15581
-15516
-15427
-15285
-15107
-15581
-14939
-15516
-14783
-15427
-14569
-15285
-14246
-15107
-14939
-14783
-14569
-14246
-13874
-13588
-13458
-13380
-13197
-12870
-12537
-12349
-12321
-13874
-13588
-13458
-13380
-13197
-12870
-12537
-12349
-12321
-12335
-12335
-12292
-12292
-12204
-12204
-12140
-12115
-12140
-12115
-12083
-12083
-12005
-12005
-11889
-11889
-11755
-11755
-11587
-11587
-11362
-11104
-10885
-10758
-10711
-10682
-10633
-10581
-11362
-11104
-10885
-10758
-10711
-10682
-10633
-10581
-10560
-10565
-10565
-10559
-10559
-10525
-10525
-10488
-10488
-10488
-10488
-10525
-10525
-10556
-10556
-10541
-10541
-10494
-10474
-10521
-10601
-10494
-10632
-10474
-10557
-10407
-10521
-10279
-10601
-10256
-10632
-10557
-10407
-10279
-10256
-10346
-10476
-10476
-10567
-10567
-10600
-10600
-10610
-10610
-10626
-10626
-10627
-10627
-10556
-10556
-10391
-10391
-10174
-9970
-9970
-9812
-9812
-9691
-9691
-9594
-9594
-9515
-9515
-9441
-9441
-9340
-9340
-9194
-9194
-9029
-9029
-8900
-8900
-8837
-8815
-8803
-8807
-8837
-8866
-8815
-8991
-8803
-9141
-8807
-8866
-8991
-9141
-9262
-9262
-9337
-9337
-9382
-9382
-9410
-9410
-9402
-9402
-9345
-9345
-9264
-9264
-9202
-9202
-9183
-9183
-9180
-9180
-9166
-9166
-9139
-9127
-9130
-9115
-9058
-8980
-8931
-9139
-9127
-9130
-9115
-9058
-8980
-8931
-8937
-8980
-8937
-8980
-9043
-9136
-9274
-9434
-9554
-9604
-9615
-9636
-9665
-9660
-9598
-9043
-9524
-9136
-9497
-9274
-9516
-9434
-9523
-9554
-9468
-9604
-9615
-9636
-9665
-9660
-9598
-9524
-9497
-9516
-9523
-9468
-9369
-9282
-9282
-9236
-9236
-9208
-9208
-9157
-9157
-9081
-9081
-9028
-9028
-9041
-9041
-9113
-9113
-9184
-9184
-9209
-9209
-9213
-9213
-9273
-9273
-9418
-9418
-9590
-9590
-9691
-9691
-9691
-9691
-9652
-9652
-9638
-9645
-9614
-9521
-9404
-9309
-9243
-9638
-9645
-9614
-9521
-9404
-9309
-9243
-9187
-9132
-9187
-9132
-9089
-9089
-9068
-9068
-9066
-9098
-9174
-9261
-9287
-9066
-9206
-9054
-9098
-9174
-9261
-9287
-9206
-8914
-9054
-8809
-8674
-8447
-8914
-8157
-8809
-7900
-8674
-7726
-8447
-7584
-8157
-7400
-7900
-7726
-7584
-7400
-7172
-6966
-6966
-6829
-6829
-6731
-6731
-6607
-6607
-6455
-6455
-6323
-6323
-6241
-6241
-6177
-6177
-6077
-6077
-5944
-5944
-5830
-5830
-5762
-5702
-5762
-5595
-5702
-5450
-5595
-5312
-5450
-5200
-5312
-5200
-5073
-4894
-4704
-4598
-4625
-4749
-4899
-5042
-5200
-5073
-4894
-4704
-4598
-4625
-4749
-4899
-5393
-5042
-5595
-5200
-5760
-5858
-5880
-5393
-5832
-5741
-5595
-5658
-5760
-5633
-5858
-5880
-5832
-5661
-5741
-5658
-5690
-5633
-5691
-5703
-5793
-5661
-5976
-5690
-6183
-6332
-5691
-6410
-5703
-5793
-5976
-6183
-6332
-6410
-6460
-6460
-6533
-6533
-6599
-6599
-6606
-6606
-6575
-6575
-6562
-6562
-6556
-6556
-6431
-6431
-6076
-6076
-5539
-4988
-4484
-3891
-3082
-2152
-1325
-650
-5539
-4988
-4484
-3891
-3082
-2152
-1325
-650
67
67
943
1704
1889
1380
598
64
-144
-379
943
-914
1704
1889
-1579
1380
598
-1963
64
-1863
-144
-1416
-379
-860
-914
-319
168
532
709
-1579
-1963
-1863
772
-1416
893
-860
1174
-319
1517
168
532
1750
709
1836
1891
2046
772
2315
893
1174
1517
1750
1836
1891
2046
2315
2594
2752
2733
2561
2752
2296
2733
2002
2561
1735
2296
1555
2002
1507
1735
1555
1507
1587
1728
1841
1891
1897
1882
1841
1772
1726
1587
1728
1841
1891
1897
1882
1841
1772
1726
1788
1981
1788
2207
1981
2314
2207
2224
2314
1993
2224
1747
1993
1571
1747
1456
1571
1456
1355
1355
1253
1198
1268
1524
1978
2577
1253
3218
1198
3790
1268
1524
1978
2577
4228
3218
4543
3790
4794
5030
5242
4228
5378
4543
5411
4794
5370
5030
5312
5242
5378
5411
5370
5312
5273
5251
5230
5206
5162
5066
4911
4740
4638
5273
5251
5230
5206
5162
5066
4911
4740
4638
4666
4805
4980
5147
4666
5333
5579
4805
5866
4980
6128
5147
6335
5333
5579
5866
6128
6335
6581
7035
7763
8614
9306
9670
9808
9966
10241
6581
7035
7763
8614
9306
9670
9808
9966
10241
10467
10414
10081
9741
9675
9923
10314
10698
11092
11597
10467
12207
10414
12778
10081
13194
9741
13475
9675
13693
9923
13837
10314
13830
10698
13679
11092
11597
12207
12778
13194
13475
13693
13837
13830
13679
13516
13516
13460
13448
13322
13102
13460
13448
13322
13043
13102
13353
13043
13903
13353
14322
13903
14322
14430
14429
14429
14576
14576
14774
14774
14628
14628
13934
13934
12958
12958
12111
12111
11464
11464
10734
9753
8781
8250
8277
8544
8686
8650
8655
10734
9753
8781
8250
8277
8544
8686
8650
8655
8862
9177
9385
9375
9193
8946
8716
8518
9177
8332
9385
9375
9193
8946
8716
8148
8518
7996
8332
7911
7902
7915
7873
8148
7748
7996
7591
7911
7458
7902
7915
7873
7748
7591
7458
7329
7105
7329
6693
7105
6091
6693
5395
6091
4716
5395
4085
4716
4085
3449
3449
2761
2761
2056
1408
2056
821
1408
198
-548
821
-1375
198
-2148
-548
-2787
-1375
-3323
-2148
-2787
-3323
-3772
-4035
-4035
-4017
-4017
-3835
-3835
-3805
-4154
-3805
-4778
-4154
-4778
-5380
-5380
-5834
-5834
-6325
-6325
-7080
-7080
-8033
-8033
-8847
-9249
-8847
-9258
-9249
-9081
-9258
-9081
-8868
-8868
-8619
-8619
-8302
-7958
-7669
-7475
-7366
-7342
-7421
-7610
-7870
-8302
-7958
-7669
-7475
-7366
-7342
-8148
-7421
-8407
-7610
-8640
-7870
-8869
-9141
-9513
-8148
-10017
-8407
-10630
-8640
-11306
-8869
-9141
-9513
-12008
-10017
-12731
-10630
-13501
-11306
-14348
-15274
-16228
-12008
-17119
-17906
-12731
-18664
-13501
-14348
-15274
-16228
-17119
-17906
-18664
-19510
-20414
-21136
-21410
-21249
-21002
-21050
-21445
-21917
-19510
-20414
-21136
-21410
-21249
-21002
-21050
-21445
-21917
-22228
-22450
-22847
-23534
-22228
-24336
-22450
-24975
-22847
-25337
-23534
-25507
-24336
-25587
-24975
-25337
-25507
-25587
-25580
-25452
-25452
-25237
-25237
-25024
-25024
-24845
-24845
-24647
-24647
-24368
-24368
-24003
-23569
-24003
-23569
-23034
-22333
-21434
-20359
-19131
-17753
-16243
-23034
-14706
-22333
-13316
-21434
-20359
-19131
-17753
-16243
-14706
-13316
-12229
-11493
-10999
-10532
-9891
-9031
-8106
-7321
-6744
-12229
-11493
-10999
-10532
-9891
-9031
-8106
-7321
-6744
-6216
-5502
-4562
-3646
-3100
-5502
-3078
-3426
-4562
-3846
-3646
-4183
-3100
-3078
-3426
-3846
-4183
-4519
-4996
-5560
-5938
-5892
-5497
-5097
-4955
-4996
-4519
-4996
-5560
-5938
-5892
-4957
-5497
-4765
-5097
-4695
-4955
-5083
-4996
-5897
-6690
-7005
-4957
-6779
-4765
-6317
-4695
-5083
-5897
-6690
-7005
-6779
-6317
-5916
-5916
-5599
-5206
-5206
-4670
-4670
-4114
-4114
-3710
-3710
-3524
-3524
-3513
-3513
-3660
-3660
-4001
-4552
-5241
-5909
-6444
-6854
-7243
-7722
-8348
-4001
-4552
-5241
-5909
-6444
-6854
-7243
-7722
-8348
-9125
-10022
-11021
-12148
-13435
-14853
-16251
-17398
-18158
-18639
-19124
-10022
-11021
-19821
-20648
-12148
-21301
-13435
-21559
-14853
-21534
-21549
-21789
-16251
-17398
-18158
-22066
-21964
-21226
-19956
-18639
-18459
-19124
-16919
-19821
-15287
-20648
-13426
-21301
-11371
-21559
-21534
-21549
-21789
-22066
-21964
-21226
-19956
-18459
-16919
-15287
-13426
-11371
-9373
-9373
-7705
-7705
-6451
-6451
-5854
-5854
-4404
-4404
-3034
-3034
-2276
-2276
-2751
-2751
-3985
-3985
-5593
-6396
-8412
-11925
-15502
-17556
-19026
-23338
-29372
-6396
-8412
-11925
-15502
-17556
-19026
-23338
-29372
32444
32444
-28741
-28741
-16430
-2169
7907
12438
13427
-16430
11845
-2169
6930
7907
12438
13427
11845
6930
-375
-5356
-5528
-972
3174
2936
-822
-2256
2410
-375
-5356
-5528
-972
3174
2936
-822
-2256
2410
13574
13574
23380
23380
21621
21621
4198
4198
-19390
-19390
32280
32280
-28267
-28267
-9944
-9944
5622
5622
7645
-901
-11298
-15077
-13339
-8453
-2880
1201
2302
7645
-901
-11298
-15077
-13339
-8453
-2880
-510
-1806
1081
7310
9612
2338
-12234
1201
-23891
2302
-12443
-510
4628
14253
-1806
10490
1081
-3869
7310
-18681
9612
-21896
2338
-11327
-12234
3801
-23891
-24622
12655
-12443
4628
9453
-2760
14253
-14211
10490
-3869
-19001
-18681
-16308
-21896
-9936
-11327
-1727
3801
3567
12655
9453
-2760
-14211
-19001
-16308
-9936
-1727
3567
5253
5253
3142
3142
-916
-916
-3800
-4035
-3800
-4035
-458
-458
4127
4127
7306
7306
7891
7891
6452
6452
4839
3202
2189
654
-221
739
4839
2357
3202
2189
469
654
-221
739
2357
-4757
469
-9386
-6167
6936
23389
-4757
32019
-9386
28736
-6167
16443
6936
3588
23389
32019
28736
16443
3588
-3642
-3995
-542
4838
8714
9215
5874
464
-5022
-3642
-3995
-542
4838
8714
9215
5874
464
-5022
-7429
-7370
-7429
-5959
-7370
-4616
-5959
-4487
-6067
-4616
-9053
-4487
-12502
-6067
-15324
-9053
-12502
-15324
-16888
-17334
-17337
-16888
-17580
-17334
-18293
-17337
-19224
-17580
-19901
-18293
-19939
-19224
-19219
-19901
-19939
-19219
-17892
-16222
-14406
-12494
-10468
-8324
-6020
-3408
-17892
-358
-16222
-14406
-12494
-10468
-8324
-6020
-3408
-358
3019
3019
6379
6379
9467
9467
12384
12384
15400
15400
18485
18485
21202
21202
23112
23112
24190
24190
24720
24836
24362
23137
21365
19493
17791
16237
14773
13516
12605
11959
11324
10550
9710
8905
8069
7092
13516
12605
11959
11324
10550
9710
8905
8069
7092
6041
5197
5197
4777
4777
4743
4743
4880
4880
5078
5078
5449
6146
5449
6146
7124
7124
8118
8858
9271
9492
9669
9807
9828
9694
9459
8118
8858
9271
9492
9669
9807
9828
9694
9459
9150
8668
7875
6747
5409
3953
2300
333
-1897
9150
8668
7875
6747
5409
3953
2300
333
-1897
-4105
-6007
-7586
-9067
-10631
-12170
-13421
-14292
-14978
-15747
-16611
-17343
-17820
-18238
-18904
-19833
-20658
-21023
-4105
-6007
-7586
-9067
-10631
-12170
-13421
-14292
-14978
-15747
-16611
-17343
-17820
-18238
-18904
-19833
-20658
-21023
-20984
-20984
-20937
-21109
-20937
-21282
-21109
-21040
-21282
-20225
-21040
-19058
-20225
-17808
-19058
-16505
-17808
-16505
-14691
-14691
-13467
-13467
-12667
-12667
-11511
-11511
-9213
-9213
-6822
-6822
-4500
-4500
-3170
-1049
-1049
2879
2879
7344
7344
10140
10140
10948
10948
14571
14571
21954
21954
28699
28699
26975
26975
14702
14702
-1421
-10753
-1421
-11965
-10753
-10441
-11965
-10706
-10441
-10076
-10706
-3887
-10076
5576
-3887
9549
5576
9549
4839
-4555
-10004
-8362
-2992
1433
4578
4737
936
4839
-4555
-10004
-8362
-2992
1433
4578
4737
936
-5097
-8793
-6840
-2501
-4649
-14438
-21854
-17635
-1907
-5097
-8793
-6840
-2501
-4649
-14438
-21854
-17635
-1907
12517
12517
16095
8575
-1698
-7434
-8671
-6511
-854
16095
8575
-1698
-7434
-8671
-6511
-854
5240
7846
5325
-301
-3658
-2762
-3025
-7588
-13450
-13758
5240
7846
5325
-301
-3658
-2762
-3025
-7588
-13450
-13758
-5714
5265
-5714
5265
11739
10098
3110
-3612
-5671
-4441
-1564
852
2533
3727
4525
2109
-2414
-5305
-2945
3034
11739
10098
3110
-3612
-5671
-4441
-1564
852
2533
3727
4525
2109
-2414
-5305
-2945
3034
5325
5325
462
-6807
-4893
9130
25607
31342
24117
11694
462
-6807
-4893
9130
25607
31342
24117
11694
4383
3516
4739
5226
9242
15488
20140
4383
17236
3516
8241
4739
5226
9242
15488
788
20140
3648
17236
13497
8241
22497
23982
18918
13218
10974
788
10995
3648
13497
22497
23982
18918
13218
10974
10995
9301
3713
3713
-3865
-3865
-8728
-8728
-7059
-7059
1204
1204
11390
11390
16251
16251
11553
11553
26
-10418
-13596
-10968
-9763
-14996
-24391
-31220
-31347
26
-10418
-13596
-10968
-9763
-14996
-24391
-31220
-31347
-26842
-22851
-21921
-22484
-23109
-23879
-24761
-26842
-25156
-22851
-24030
-21921
-22484
-23109
-23879
-24761
-25156
-24030
-22038
-22038
-20554
-21937
-24122
-25213
-25109
-25707
-27611
-27517
-20554
-21937
-24122
-25213
-25109
-25707
-27611
-27517
-20512
-6110
8970
14936
7557
-7373
-18720
-16736
-2769
15023
27053
28163
18150
-389
-19860
-32545
-31236
-16106
-20512
-6110
8970
14936
3929
7557
16135
-7373
-18720
-16736
-2769
15023
13346
27053
28163
18150
-389
-19860
-32545
-31236
1285
-16106
-10427
-11509
-2199
3929
16135
13346
11190
19803
1285
-10427
-11509
-2199
11190
19803
19733
19733
10445
10445
-1852
-8438
-1852
-3474
-8438
9937
-3474
9937
22596
23251
10735
22596
23251
10735
-5278
-5278
-12180
-5369
8683
-12180
-5369
8683
19424
21019
14479
5026
19424
-4703
21019
14479
5026
-4703
-11583
-13643
-10382
-11583
-5014
-13643
-1311
-10382
-2211
-5014
-7105
-1311
-11013
-2211
-11555
-7105
-11013
-11555
-10886
-10886
-11269
-11269
-15829
-15829
-22403
-28080
-28350
-23989
-17728
-14560
-13396
-11840
-6367
819
4613
2518
-22403
-28080
-28350
-1493
-23989
-3429
-17728
-14560
-1069
-13396
-11840
-6367
819
4613
2518
-1493
-3429
-1069
2424
3720
2972
1864
735
-1049
-1673
2135
9901
2424
3720
2972
1864
735
-1049
-1673
2135
9901
14158
6736
14158
-11724
6736
-29406
-11724
-32086
-29406
-32086
-18570
443
10769
7414
-3858
-13236
-17050
-14573
-7667
-18570
1519
443
9426
10769
12296
7414
8347
-3858
-13236
-17050
-14573
-7667
1519
9426
12296
8347
-709
-10878
-17708
-17932
-12298
-4405
-2017
-8004
-17488
-709
-10878
-17708
-22072
-17932
-19409
-12298
-14065
-4405
-14224
-2017
-19176
-8004
-20784
-12689
1052
12017
-17488
-22072
-19409
-14065
-14224
-19176
-20784
-12689
1052
12017
13166
6892
-257
-3913
-4913
-3759
-2081
54
1692
13166
6892
-257
1799
-3913
-142
-4913
-1568
-3759
-1913
-959
-2081
563
54
1812
1692
1362
1154
1799
-142
-1568
-1913
-959
563
1812
1362
1154
-185
-185
-1141
-1141
-1293
-1293
-610
-610
-332
-332
981
981
1125
1125
895
895
452
452
80
80
-887
-419
-400
-77
367
784
186
515
32
-237
-211
101
-304
376
228
145
164
-887
-419
-400
-77
367
784
186
515
32
-237
-211
101
-304
376
228
145
164
323
323
-289
228
-289
228
14
-35
78
339
-205
328
88
14
-35
78
339
-205
328
88
-8
65
303
-242
-8
303
65
79
303
-4
-242
74
303
79
-4
74
313
-235
313
308
-235
83
308
83
-1
-1
74
74
310
310
-240
-240
302
302
78
-4
76
314
-234
307
80
-5
71
78
-4
76
314
300
-234
307
162
80
-385
-5
-752
-274
71
892
1416
505
300
125
162
-385
-752
-274
892
1416
505
125
291
1046
291
1046
540
-1163
-1600
1555
4561
2361
-5335
540
-1163
-1600
1555
4561
2361
-5335
-12068
-10790
-12068
-502
-10790
12556
-502
22999
12556
27046
22999
21897
27046
8826
21897
-5770
8826
-5770
-11850
-2997
14080
25591
26715
23714
23173
23268
16183
-11850
-2997
14080
25591
26715
23714
23173
23268
16183
1947
-6374
-586
14189
21257
13645
-1652
-10775
-9772
-3666
1103
1947
3210
-6374
3872
-586
4420
14189
21257
2719
13645
-424
-1652
-2871
-10775
-2239
-9772
-3666
1103
3210
3872
4420
2719
-424
-2871
-2239
-235
-235
1919
2125
1410
1919
2125
1410
187
-789
-1741
-798
-372
187
-789
728
-1741
1407
1192
-798
56
-372
-426
-124
122
728
55
1407
-473
1192
56
-426
-124
122
55
-473
-497
824
1048
-83
-1246
-289
2262
3833
1155
-497
824
1048
-83
-1246
-289
2262
3833
1155
-2748
-3258
1713
-2748
8595
-3258
12769
1713
8625
8595
-616
12769
-10416
8625
-14700
-616
-10416
-14700
-10732
806
13725
25006
31829
31390
20954
6150
-10732
-4317
806
13725
25006
31829
31390
20954
6150
-4317
-246
13572
21709
13034
-3483
-10007
427
16768
-246
21877
13572
21709
13034
13952
-3483
7155
427
9406
16768
14572
21877
11502
-429
-10834
-12229
-5996
13952
7155
9406
14572
11502
-429
-10834
-12229
-5996
-996
-429
-1327
-192
2714
5223
7092
5095
703
-429
-1327
-192
2714
5223
7092
-4154
5095
-4271
703
-1170
371
-6025
-4154
-15269
-16100
-3774
9562
12292
5160
619
4878
12207
9206
-1743
-7826
-2045
-4271
-1170
371
-6025
-15269
-16100
-3774
9562
12292
5160
619
4878
12207
9206
-1743
-7826
-2045
6726
8738
2052
-1609
4109
13596
18046
15822
14445
6726
8738
2052
-1609
4109
13596
18046
15822
14445
13974
10848
1610
-8599
-11634
-4051
13974
5206
10848
7117
1610
2492
-8599
-11634
-4051
5206
7117
2492
-2777
-2548
20
-128
-6048
-12356
-12845
-6142
2806
-2777
-2548
20
-128
-6048
-12356
-12845
-6142
2806
8574
8574
8279
8279
3582
3582
-2101
-2101
-4573
-4573
-2820
-2820
3461
3461
9591
9591
9395
9395
434
-12127
-12127
-22238
-22238
-25192
-25192
-22619
-22619
-17841
-11918
-4630
-17841
3943
-11918
-4630
3943
10451
13820
13944
11902
8079
5434
3650
4969
9048
10451
14126
13820
13944
11902
8079
5434
3650
4969
9048
14126
17254
17254
17418
12941
5251
-2924
17418
-9344
-14477
-20831
12941
5251
-2924
-9344
-14477
-20831
-26933
-26933
-29613
-29613
-24729
-24729
-13187
-13187
-374
-374
8467
8467
11569
11569
11942
11942
10397
10397
7356
7356
3147
3147
-836
-836
-4507
-4507
-8110
-8110
-13551
-13551
-18130
-18130
-16618
-16618
-6273
-6273
8182
19006
19195
10685
806
-2943
-818
3487
5106
8182
19006
19195
10685
806
-2943
-818
3487
5106
3443
1034
999
1960
3014
2968
1843
-90
-2870
3443
-3104
1034
3238
999
10573
1960
10649
3014
317
2968
-17251
1843
-30519
-90
-31253
-2870
-4401
-3104
3238
10573
10649
317
-17251
-30519
-31253
-17796
1496
17984
24961
23346
16157
1496
17984
9387
24961
6080
23346
8068
16157
9387
6080
8068
11565
13049
9156
2414
-3842
-5561
-3765
-801
973
11565
13049
9156
2414
-3842
-5561
-3765
-801
973
1184
-62
-598
1184
-686
-62
100
-598
1519
-686
2955
100
2856
1519
1932
2955
2856
1932
-86
-2008
-2671
-1896
-974
993
2057
2213
1253
-86
-2008
-2671
-1896
-974
993
2057
2213
1253
-175
-608
-337
-522
-175
-1534
-1011
-608
1374
-337
2928
-522
1648
-1534
-1011
1374
2928
1648
-2205
-2205
-3000
-3000
1400
4335
864
-5582
-5084
5294
14120
1400
9472
4335
-4573
864
-10253
-873
11590
9990
-5582
-4299
-5084
-12874
-3894
5294
14120
9472
-4573
-10253
-873
11590
9990
-4299
-12874
-3894
10013
10013
10549
-3246
-15094
-10758
2386
10549
7136
-2530
-3246
-14294
-15094
-10758
2386
7136
-2530
-14294
-12632
5374
26549
-29320
25136
3397
-12707
-9900
5466
-12632
5374
26549
-29320
25136
3397
-12707
-9900
5466
14141
5278
-9978
-12738
-1110
6060
-5017
-24097
-27155
14141
5278
-9978
-12738
-1110
6060
-5017
-24097
-27155
-7472
13515
14429
-7472
-975
13515
-10793
14429
-4819
-975
5334
-10793
4107
-4819
-6861
5334
4107
-6861
-13055
-7648
3513
7856
-13055
4788
-7648
-729
3513
-2038
7856
1073
4788
8290
-729
-2038
1073
8290
14167
12268
908
-10672
-10910
4338
18958
17929
1020
14167
12268
908
-10672
-10910
4338
18958
17929
1020
-14727
-15647
-3494
7294
7720
2611
-1064
-1494
-3037
-14727
-15647
-3494
7294
7720
2611
-1064
-1494
-3037
-6036
-8845
-7132
-1929
3326
5982
7897
7490
3709
-6036
-8845
-7132
-1929
3326
5982
7897
7490
3709
-2493
-2493
-7165
-7165
-6099
-6099
-2753
-2753
-805
-805
-4465
-4465
-10314
-10314
-12036
-12036
-5863
-5863
3014
9850
9724
3724
-3783
-6820
3014
-4967
458
9850
2394
9724
3724
-3783
-6820
-4967
458
2394
-2435
-10799
-2435
-10799
-14140
-9783
-14140
528
-9783
8285
528
9246
8285
5184
9246
270
5184
270
-2814
-2814
-4063
-4063
-3965
-3965
-1726
-1726
1313
1313
2953
2953
2714
2714
341
341
-1275
-1275
-1463
-1128
-807
-232
1525
1565
699
-1213
-1551
-1463
-1128
-807
-232
1525
1565
699
-1213
-1551
436
436
3019
623
-5314
-11385
-11711
-4855
3019
5739
11311
623
-5314
-11385
-11711
-4855
5739
11311
9346
80
-10219
-14908
-10208
9346
-757
80
9058
-10219
13241
-14908
11412
-10208
-757
9058
13241
11412
6298
1873
-2501
-4503
-5547
-4872
-2695
20
1542
6298
1873
-2501
-4503
-5547
-4872
-2695
20
1542
2805
3125
2763
1669
316
-1785
-2081
-2253
-1378
2805
3125
2763
1669
17
316
1493
-1785
1545
-2081
1995
-2253
-1378
1014
-17
-787
-899
17
-1340
1493
1545
1995
1014
-17
-787
-899
-1340
-253
131
579
831
984
76
262
-281
-450
-253
131
579
831
984
76
262
-281
-450
-322
126
-60
810
541
166
91
665
126
888
-60
810
541
166
91
717
665
-739
888
-1311
-208
1168
717
670
-739
-380
-1311
-164
-208
3545
1168
670
-380
-164
3545
7653
7653
7642
3655
2224
6201
7642
14436
3655
16759
2224
7600
6201
-8412
14436
16759
7600
-8412
-18113
-14379
-18113
-364
-14379
14398
-364
21626
14398
22511
21626
23538
22511
25624
23538
25246
25624
25246
19625
19625
9344
9344
118
118
-3604
-3604
-3858
-3858
-2943
-2943
-2076
-2076
-1292
-1292
-171
-171
-2091
-7023
-9590
-3242
9530
18324
14251
1033
-8504
-5031
5921
9842
-1996
-20531
-29324
-20668
-908
14975
-7023
-9590
-3242
9530
18324
14251
1033
-8504
-5031
5921
9842
-1996
-20531
-29324
-20668
-908
14975
18279
18279
12023
6628
7450
11739
12023
15708
6628
17419
7450
17437
11739
17728
15708
17419
17437
17728
16727
11304
2458
-6513
-10657
-7801
-462
3246
684
16727
11304
2458
-6513
-10657
-7801
-462
3246
684
-6768
-8712
-8712
-1061
-1061
10166
10166
14119
14119
7851
7851
-1333
-1333
-4112
-4112
-372
-372
3115
2442
2442
1770
6552
11992
9187
-1532
-7951
-1232
1770
6552
11992
9187
-1532
-7951
-1232
10844
10263
10263
-5881
-5881
-23186
-23186
-20319
-20319
2902
2902
24757
24757
24973
24973
6666
6666
-8889
-8889
-6739
6833
14355
9101
-156
-230
6405
10336
-6739
6833
14355
9101
-156
-230
6405
10336
5188
-703
1758
11397
16631
9290
-5928
-17221
-17708
5188
-703
1758
11397
16631
9290
-5928
-17221
-17708
-9742
88
6212
6599
817
-4671
-2989
8826
21980
23029
6950
-15721
-9742
88
6212
6599
817
-4671
-2989
8826
21980
23029
6950
-15721
-30678
-30259
-20268
-10311
-3916
159
-30678
-30259
-20268
-10311
-3916
159
2542
-1474
-12866
-26844
30935
-30782
-17116
-2507
4311
2542
-1474
-12866
-26844
30935
-30782
-17116
-2507
4311
779
-10264
-21576
-25941
-19836
-4304
12581
22413
18626
779
2802
-10264
-23221
-21576
-16831
-25941
-401
-19836
14050
-4304
17106
12581
6383
22413
-10287
18626
2802
-15318
-23221
-16831
-401
14050
17106
6383
-10287
-23199
-24269
-13406
1771
10812
8978
643
-7151
-8114
-3275
3051
-23199
-24269
7615
-13406
1771
10812
8978
643
-7151
-8114
-3275
3051
7615
10830
11920
11233
6448
-1032
-8840
10830
11920
11233
6448
-1032
-8840
-13167
-13167
-15158
-15158
-14498
-14498
-11963
-11963
-6818
-6818
450
450
6176
6176
8270
8270
5688
5688
1360
35
1227
1702
1193
920
2758
5239
3268
1360
35
1227
1702
1193
920
2758
5239
3268
-5091
-12910
-12802
-5629
113
-5091
-4841
-12910
-17282
-12802
-25144
-5629
-17351
113
-4841
-17282
-25144
-17351
1164
17839
20877
11295
-2829
-11567
-13682
-9962
-2784
1164
17839
20877
11295
-2829
-11567
-13682
-9962
-2784
5923
5923
11024
11024
10505
3440
-4420
10505
-8121
3440
-7042
-4420
-3819
-8121
-392
-7042
-3819
-392
3296
7485
3296
7485
8072
8072
2530
-7587
2530
-14999
-7587
-13345
-14999
-3068
-13345
6590
-3068
6590
8812
3244
-4426
-8581
-6618
-172
8812
10414
3244
22409
-4426
30345
-8581
-6618
-172
10414
22409
30345
28496
17859
4889
-918
2294
8721
12149
12031
11514
28496
17859
4889
-918
2294
8721
12149
12031
11514
14430
16820
16239
12257
9832
12140
18473
22527
21282
14430
16820
16239
12257
9832
12140
18473
22527
21282
17353
16018
17353
18849
16018
18849
23274
23274
22364
22364
13838
13838
1878
1878
-6203
-6203
-7361
-7361
-3276
-301
-920
-2719
-2165
775
-301
2182
-920
-2719
1022
-2165
-2326
775
2182
1022
-2326
-4650
-4379
-1995
-4650
1086
-4379
5299
-1995
7679
1086
6176
5299
859
7679
-4427
6176
859
-4427
-4946
-3334
-2543
-6443
-11711
-12438
-5339
4051
10885
-3334
-2543
-6443
-11711
-12438
-5339
4051
10885
10368
3834
-4110
-7348
-5449
182
2362
-2285
-10576
10368
3834
-4110
-7348
-5449
182
2362
-2285
-10576
-13942
-13942
-9664
559
8251
9179
5111
208
-2858
-4117
-9664
559
8251
9179
5111
208
-2858
-4117
-3820
-3820
-1815
-1815
1126
3145
3118
1194
-1045
-2123
-1868
-620
159
1547
1369
798
77
-376
-1080
-303
1126
3145
3118
1194
-1045
-2123
-1868
-620
159
1547
1369
798
77
-376
-1080
-303
-107
-107
315
619
741
-18
223
-253
-305
-96
315
619
741
-18
223
-253
-305
-96
276
-70
526
195
57
34
163
-323
276
276
-70
526
195
57
34
163
-323
276
60
60
72
72
159
159
318
318
-216
-216
298
298
7
7
-16
-16
85
85
287
-200
342
52
287
-200
342
52
9
9
82
82
266
266
-225
-225
327
327
51
20
51
20
98
276
-224
320
41
13
128
98
276
-224
320
41
13
128
137
137
-112
-112
181
181
574
574
481
481
285
285
-530
-530
-298
-298
1134
1134
658
-445
-941
-59
1588
1148
-1373
-2442
658
-445
-941
-59
1588
1150
1148
-1373
-2442
1150
7340
10293
7502
7340
988
10293
-2340
7502
-328
988
-2340
3360
-328
3270
3360
-550
3270
-550
-4465
-4465
-2992
3113
8306
7952
4412
2915
8166
16602
-2992
19649
3113
11814
8306
7952
-4750
4412
-21487
2915
-30781
8166
-28449
16602
-18378
-6204
1032
19649
11814
-4750
-21487
-30781
-28449
-18378
-6204
1032
603
-4105
-7944
-6778
-1439
1265
-1743
-9952
-17567
603
-4105
-7944
-6778
-1439
1265
-1743
-9952
-17567
-20211
-16405
-7619
2587
9950
11174
5853
-3488
-12551
-17678
-17459
-13394
-6920
-1984
-843
-4082
-9794
-15621
-20211
-16405
-7619
2587
9950
11174
5853
-3488
-12551
-17678
-17459
-13394
-6920
-1984
-843
-4082
-9794
-15621
-18777
-20572
-21534
-21122
-18921
-17073
-19845
-26213
-31407
-18777
-20572
-21534
-21122
-28523
-18921
-17073
-17097
-19845
-3102
-26213
7077
-31407
11455
13414
12827
8163
-28523
37
-17097
-3102
7077
11455
13414
12827
8163
37
-6227
-6227
-6197
-6197
-339
-339
3185
3185
-294
-7203
-294
-7203
-9663
-9663
-5215
-5215
-410
-410
-1104
-8085
-14050
-11669
-2205
8184
13894
11194
2192
-7021
-11543
-8085
-8140
-14050
-739
-11669
2736
-2205
-219
8184
-7410
13894
-10771
11194
-9056
2192
-7021
-11543
-8140
-739
2736
-219
-7410
-10771
-9056
-2720
-2720
4310
4310
8796
8796
8194
8194
1826
1826
-4878
-4878
-5838
-5838
493
493
4817
4817
-2766
-18850
-26174
-15265
4910
14301
6216
-4446
-120
-2766
-18850
-26174
-15265
4910
14301
6216
-4446
-120
18266
18266
30310
22501
30310
564
-17643
-21284
-12968
-2809
5351
22501
564
-17643
-21284
-12968
-2809
5351
10544
10544
10561
2577
10561
-11679
2577
-24426
-11679
-27117
-24426
-20683
-11900
-27117
-9834
-20683
-11900
-9834
-15780
-15780
-25199
-25199
-31707
-31707
-32171
-32171
-27746
-27746
-21674
-21674
-17446
-17446
-17057
-17057
-20446
-20446
-25842
-30464
-31808
-30464
-29543
-31808
-25194
-29543
-25194
-21126
-21126
-19256
-19256
-20190
-23046
-20190
-23046
-26400
-28616
-28918
-27536
-25367
-23378
-22504
-22820
-23960
-26400
-28616
-28918
-27536
-25367
-23378
-22504
-22820
-23960
-25320
-25320
-26305
-26305
-26494
-26494
-26112
-26112
-25357
-25357
-24606
-24606
-24192
-24192
-24221
-24221
-24477
-24477
-24908
-24908
-25198
-25198
-25251
-25251
-25169
-25169
-25062
-25062
-24880
-24880
-24802
-24802
-24758
-24758
-24806
-24806
-24972
-25079
-24772
-24170
-23400
-22761
-22351
-21960
-21304
-24972
-25079
-24772
-24170
-23400
-22761
-22351
-21960
-21304
-20723
-20723
-20510
-20869
-21621
-22345
-22734
-23124
-23654
-24307
-24856
-25078
-24907
-24755
-24700
-24739
-24814
-24872
-24826
-20510
-20869
-21621
-22345
-22734
-23124
-23654
-24307
-24856
-25078
-24907
-24755
-24700
-24739
-24814
-24872
-24826
-24891
-24891
-24961
-24961
-25000
-25000
-25037
-25037
-25078
-25078
-25014
-25014
-25014
-25014
-24977
-24977
-24923
-24923
-24923
-24923
-24983
-24983
-24976
-24976
-25047
-25047
-25068
-25032
-25068
-24984
-25032
-24940
-24984
-24861
-24940
-24861
-24736
-24666
-24666
-24790
-24790
-25104
-25104
-25348
-25348
-25240
-25240
-24896
-24896
-24434
-24434
-24139
-24139
-23900
-23945
-22850
-21906
-20881
-20973
-20747
-18783
-16496
-23945
-18228
-22850
-25505
-21906
-32592
-20881
-30591
-20973
-18434
-20747
-6427
-18783
-5786
-16496
-14393
-18207
-18228
-25505
-32592
-30591
-18434
-6427
-5786
-14393
-18207
-8276
7061
11074
-771
-15094
-15071
-3258
3871
-4978
-8276
7061
11074
-771
-15094
-15071
-3258
3871
-4978
-22898
30755
32437
-26559
-24465
-26369
-25036
-18632
-14429
-22898
30755
32437
-26559
-24465
-26369
-25036
-18632
-14429
-16997
-16997
-24026
-24026
-24484
-24484
-15511
-15511
1066
1066
15388
15388
22397
22397
20102
20102
9567
9567
-4338
-4338
-13217
-10519
3692
18043
20176
-13217
10785
-10519
296
3692
-907
18043
20176
10785
296
-907
4073
3766
-6310
-16358
-11515
8126
25765
24853
7658
4073
3766
-6310
-16358
-11515
8126
25765
24853
7658
-7395
-7395
-6767
4123
7356
-1920
-9048
-187
18757
29273
21464
-6767
4123
6227
7356
-131
3089
-1920
5303
-9048
-50
-187
-4217
18757
29273
1471
12559
21464
6227
-131
3089
5303
-50
-4217
1471
12559
16882
10021
-554
-5099
-3732
-921
2176
4678
5755
16882
10021
-554
-5099
-3732
-921
2176
4678
5755
2942
-828
1822
12591
23482
22617
11125
-168
2942
-2088
-828
1822
12591
23482
22617
11125
-168
-2088
4961
4961
12784
12784
16492
16492
16786
16786
15952
15952
16780
16780
17574
17574
19441
19441
22778
22778
25344
27406
28578
29887
29481
25344
24609
14523
27406
1818
28578
-8940
29887
29481
24609
14523
1818
-8940
-13882
-13882
-11790
-11790
-4568
3611
3611
8013
8013
5499
5499
-3568
-3568
-14882
-14882
-21980
-21980
-19925
-8728
6204
17428
20259
15127
5897
-3321
-11263
-19925
-8728
6204
17428
20259
15127
5897
-3321
-11263
-16325
-16325
-18773
-18078
-14799
-10755
-18773
-6185
-18078
-6540
-14799
-9037
-10755
-7317
-6185
-6540
-9037
-12739
-16072
-17785
-12739
-17591
-16072
-15968
-17785
-13544
-10844
-17591
-8497
-15968
-7252
-13544
-10844
-8497
-7252
-7435
-8511
-9899
-9421
-8342
-7557
-7538
-7428
-6702
-7435
-8511
-9899
-9421
-8342
-7557
-7538
-7428
-6702
-6981
-8517
-11832
-14618
-15732
-16971
-21033
-27998
-31593
-6981
-8517
-11832
-14618
-15732
-16971
-21033
-27998
-31593
-27419
-27419
-15473
-2167
5822
6430
1612
-3611
-7422
-8144
-15473
-2167
5822
6430
1612
-3611
-7422
-8144
-4588
3010
10541
13420
7163
-5280
-15901
-17168
-9024
-4588
3010
10541
13420
7163
-5280
-15901
-17168
-9024
172
3205
172
-2051
3205
-9664
-2051
-12225
-9664
-6488
-12225
4783
-6488
12865
12377
4783
12865
12377
4224
4224
-3458
-3458
-4696
-4696
996
996
6094
6094
4080
4080
-3477
-3477
-9603
-9603
-8943
-8943
-4477
-540
-225
-2611
-4823
-4611
2106
12608
22314
-4477
-540
-225
-2611
-4823
-4611
2106
12608
22314
24014
15392
438
-12259
-21734
-27035
-27314
-20949
-11751
24014
15392
438
-12259
-21734
-27035
-27314
-20949
-11751
-7603
-13976
-7603
-13976
-25355
-28655
-16604
1811
15199
15288
7215
-25355
-28655
-16604
1811
15199
15288
7215
-1043
-4933
-5289
-2992
-264
-4933
-5289
-2992
-264
2069
2580
837
-2540
2069
2580
837
-2540
-4176
-3556
-918
2052
3891
-4176
3149
-3556
1903
-918
-657
2052
-2329
3891
3149
1903
-657
-2585
-2329
-1453
89
1643
-2585
1428
-1453
617
89
-134
1643
-430
1428
-791
617
-134
-430
-791
-869
-1063
26
1459
1853
1158
2482
6485
11085
-869
-1063
26
1459
9574
1853
-1381
1158
-18098
-29076
-27397
-13784
2013
12207
15091
2482
6485
11085
9574
-1381
-18098
-29076
-27397
-13784
2013
12207
15091
13562
13562
7567
7567
541
541
-1887
-1887
5539
5539
18859
18859
28502
28502
26228
26228
16971
16971
10041
10706
13224
12899
11405
12893
15491
12947
6206
10041
10706
13224
12899
11405
12893
15491
12947
6206
1877
5655
13240
16730
14613
13123
12981
1877
9082
5655
-1550
13240
16730
14613
13123
12981
9082
-1550
-11640
-11146
61
8922
4879
-8212
-17067
-14018
-2751
-11640
9241
-11146
7892
61
5066
8922
1233
4879
-2683
-8212
-4990
-17067
-4787
-14018
-2469
-2751
6460
9241
7892
5066
1233
-2683
-4990
-4787
-2469
250
250
2741
2741
3359
3359
2771
2771
1040
1040
-981
-981
-1597
-1597
-803
-803
421
421
-418
-1338
-270
2164
1899
-2746
-8937
-8256
2959
-418
-1338
-270
2164
1899
-2746
-8937
-8256
2959
19431
30175
28141
13189
19431
-6094
30175
-20337
28141
-23561
13189
-16180
-6094
-3929
-20337
-23561
-16180
-3929
3152
47
-11377
-23203
-28368
-25265
-19059
-14620
-14201
3152
47
-11377
-23203
-28368
-25265
-19059
-14620
-14201
-17175
-17175
-21740
-21740
-25654
-25654
-27390
-27390
-26571
-26571
-24283
-21853
-24283
-20012
-21853
-18810
-20012
-18810
-18571
-19314
-19790
-19314
-19790
-17822
-17822
-12910
-12910
-7958
-7958
-6148
-6148
-9428
-9428
-12949
-12949
-12505
-12505
-8365
-3793
-8365
-3102
-3793
-3881
-3102
-447
-3881
9254
-447
18961
9254
18961
21422
21422
13605
2854
-1350
3206
8833
8512
918
2854
-6399
-1350
-7047
3206
8833
8512
918
-6399
-7047
-1749
2720
829
-4462
-8228
-7040
-2382
2714
6250
-1749
2720
829
-4462
-8228
-7040
-2382
2714
6250
9110
9046
9046
4360
4360
-3524
-3524
-9097
-9097
-8527
-8527
-2214
-2214
1140
1140
-2171
-2171
-8994
-11820
-6474
1750
7537
7409
2910
-2771
-5182
-8994
-11820
-6474
1750
7537
7409
2910
-2771
-5182
-4588
-4588
-1859
1091
1676
1122
2181
3333
-1859
1669
1091
-3904
1676
1122
2181
3333
-10359
1669
-14371
-3904
-17406
-19926
-20132
-13343
-3423
-10359
942
-5731
-14371
-17406
-19926
-20132
-13343
-3423
942
-5731
-13917
-13917
-12290
-12290
238
238
10292
10292
9572
9572
2830
2830
3272
3272
11864
11864
19121
19121
17455
10021
10021
7513
7513
9378
9378
7509
7509
-2726
-2726
-13379
-13379
-14045
-14045
-2501
-2501
10415
14053
10415
14053
7726
-1553
-4677
-3715
-4358
-10526
-14993
7726
-1553
-4677
-3715
-4358
-10526
-14993
-11629
-11629
-143
-143
9288
9288
10732
10732
5166
5166
964
964
-666
-666
-2984
-2984
-8843
-8843
-11926
-6903
2299
5569
1894
-4031
-4955
-3028
-11926
-3910
-6903
2299
5569
1894
-4031
-4955
-3028
-3910
-7978
-9685
-9685
-6151
-6151
-3235
-3235
-4411
-4411
-4852
-4852
474
474
7632
7632
6328
6328
-7928
-7928
-22987
-22506
-2639
19315
23590
-22987
9041
-22506
-8604
-10653
-2639
19315
23590
9041
-8604
-10653
4953
4953
22743
22743
25576
25576
12919
12919
-3425
-3425
-10302
-10302
-9113
-9113
-6731
-6731
-9456
-9456
-13494
-11968
-3374
6081
-13494
-11968
-3374
6081
11824
9999
3921
-2572
-5727
11824
9999
3921
-2572
-5727
-4652
-298
826
-4133
-11873
-14138
-8751
2091
9688
-4652
-298
826
-4133
-11873
-14138
-8751
2091
9688
9926
4938
-695
-4020
-5027
9926
-4148
4938
-1522
-695
1819
3894
-4020
-5027
-4148
-1522
1819
3894
3615
1291
-1311
-2575
3615
-2295
1291
-861
-1311
156
-2575
1731
-2295
1628
-861
156
1731
1628
1019
182
-406
-406
-817
-817
-1018
-1018
-802
-802
-8
-8
1440
1199
1440
1199
-194
-1263
-552
784
1027
-628
-1745
438
2811
-194
1987
-1263
-4248
-552
-10439
784
1027
-628
-1745
438
2811
1987
-4248
-10439
-9630
-682
6474
4926
-5364
-13517
-9630
-682
6474
4926
-5364
-13517
-10509
-10509
1856
1856
10057
10057
7399
7399
-3270
-3270
-10285
-10285
-7415
-7415
1404
1404
5357
5357
2913
-2149
-3719
-1228
1304
-2149
1442
471
-3719
679
-1228
1194
1304
1442
471
679
1194
1132
-720
-2300
-2040
-314
813
1522
1132
1663
-720
936
-2300
-2040
-314
-479
813
1522
-1898
1663
-943
936
273
584
-658
-637
-479
768
-1898
-943
273
2258
584
-658
-637
768
2258
942
942
-1892
-1892
-1960
-1960
2820
2820
6124
2090
6124
-8656
2090
-17071
-8656
-15188
-17071
-15188
-3655
6958
9137
2947
-4850
-7697
-2399
7973
19552
-3655
6958
9137
2947
-4850
-7697
-2399
7973
19552
27236
27894
21335
10776
-1440
-10735
-12744
-5960
6652
27236
27894
21335
10776
-1440
-10735
-12744
-5960
6652
16757
16587
6560
-6291
-13370
-14329
-13335
-11950
-10386
16757
16587
6560
-6291
-13370
-5207
-7076
-14329
-14672
-13335
-23815
-11950
-30538
-10386
-31340
-26018
-17409
-7499
-5207
-7076
-14672
-23815
-30538
-31340
-10855
-12138
-20294
-28987
-28660
-16116
2631
16955
20061
-26018
-17409
-10855
-12138
-20294
-28987
-28660
-16116
2631
16955
20061
12937
1458
-7976
-11064
-7340
-155
4589
3137
-2875
12937
1458
-7681
-7976
-6784
-11064
-194
-7340
8712
-155
15922
4589
18027
3137
12321
-25
-2875
-14604
-7681
-6784
-194
8712
15922
18027
12321
-25
-14604
-22689
-20190
-10362
-22689
-782
-20190
4342
-10362
4342
-782
2466
4342
-229
4342
-5480
2466
-229
-5480
-10857
-10857
-13136
-10260
-6400
-4240
-3431
-13136
-10260
-6400
-4240
-3431
-596
5048
-596
11325
5048
11325
12703
12703
8316
1579
-3264
-4334
-2818
24
83
8316
-4309
1579
-3264
-4334
-2818
24
83
-4309
-10505
-11665
-4135
8704
14994
8711
-4452
-12101
-8609
-1197
900
-5569
-13207
-13687
-10505
-5736
4392
-11665
11352
11254
-4135
8704
14994
8711
-4452
-12101
-8609
-1197
900
-5569
-13207
-13687
-5736
4392
11352
11254
5615
5615
-2983
-8323
-7637
-1914
1509
-2983
-2255
-10381
-13748
-8323
-7637
-1914
1509
-2255
-8680
-10381
-13748
1656
8653
8080
3545
-8680
29
1656
-1098
-3794
8653
-7673
8080
3545
29
-1098
-3794
-7673
-9075
-4418
-4418
3166
3166
6043
6043
-2906
-2906
-18988
-18988
-29753
-29753
-23992
-23992
-2596
-2596
20049
28434
16938
-2999
-15698
28434
16938
-14458
-2999
-5826
-15698
-116
-14458
-2486
-5826
-116
-2486
-8353
-11601
-8353
-11215
-11659
-13540
-14621
-10959
-3309
2465
800
-8297
-19563
-26540
-25557
-16978
-4166
8181
15759
800
-8297
16188
-19563
10376
-26540
1898
-25557
-4606
-16978
-5891
-4166
-1393
8181
6905
15759
15756
22329
16188
10376
1898
-4606
-5891
-1393
6905
15756
22329
25321
25081
23023
20880
20079
21237
25321
23923
25081
26956
23023
29175
20880
20079
21237
23923
30125
26956
30118
29175
29708
29226
28776
28496
30125
28596
30118
29075
29708
29556
29226
28776
28496
29506
28596
28643
29075
27096
29556
25227
23353
21666
29506
20269
28643
19182
27096
18346
25227
23353
21666
20269
19182
18346
17693
17693
17260
17201
17260
17622
17201
18423
19347
20189
17622
20911
18423
21574
19347
20189
20911
21574
22200
22725
22725
23105
23105
23358
23358
23478
23478
23368
23368
23253
23253
22056
22056
20321
20321
19161
19341
19596
19738
19089
19599
22056
24727
25160
19161
19341
19596
19738
19089
19599
22056
24727
25160
23228
23228
24163
24163
29199
29199
-31580
-31580
30502
30502
16745
16745
-502
-502
-10494
-10494
-11912
-11912
-10283
-10283
-10329
-10329
-9506
-9506
-3200
-3200
5898
5898
11000
11000
6428
6428
-3414
-3414
-9965
-9965
-8863
-3544
2131
4525
3571
49
-3859
-6924
-6484
-8863
-3544
2131
4525
3571
49
-3859
-6924
-5764
-6484
-6969
-8991
-6786
-34
7037
-5764
9450
-6969
4913
-8991
-6786
-2090
-34
7037
9450
4913
-2090
-6938
-7087
-4919
193
5065
6812
4056
187
-1940
-6938
-7087
-4919
193
5065
6812
4056
187
-1940
-2135
-2135
-3270
-8562
-3270
-14096
-8562
-14394
-14096
-5854
-14394
4792
-5854
12073
4792
11566
12073
11566
4525
-4161
4525
-7627
-4161
-6067
-7627
-831
-6067
1644
-831
-2463
1644
-10838
-2463
-14912
-10838
-14912
-10026
520
9310
10515
5279
-2232
-8161
-11839
-12269
-10026
520
9310
10515
5279
-2232
-8161
-11839
-12269
-7370
481
4640
1011
-11727
-23642
-24670
-12736
2626
-7370
481
4640
1011
-11727
-23642
-24670
-12736
2626
9190
1349
-14150
-22468
-16554
-1829
10403
13190
8384
9190
3261
1930
1349
3003
-14150
2057
-22468
923
-16554
-776
-1829
-2468
10403
-5006
13190
-7209
8384
3261
1930
3003
2057
923
-776
-2468
-5006
-7209
-6246
-509
-6246
5918
-509
6168
5918
-667
6168
-7880
-667
-8921
-7880
-2757
-8921
1776
-2757
1776
326
-5828
-9270
-5902
947
4902
3660
74
-2092
326
-5828
-9270
-1774
-5902
-469
947
472
4902
1280
3660
1861
74
1622
-2092
270
-1554
-2645
-1774
-469
472
1280
1861
1622
270
-1554
-2645
-2088
-526
1107
-2088
1783
-526
2038
1107
1690
569
1783
-637
2038
-1806
1690
569
-637
-1806
-2222
-901
-2222
331
-901
1593
331
974
1593
974
213
213
-585
-585
374
374
-383
-383
-1428
-1298
4188
11917
15346
-1428
5206
-13020
-1298
4188
-26334
11917
-22519
15346
5206
-13020
-26334
-22519
-4987
10715
-4987
10130
10715
-2865
10130
-13104
-2865
-9905
-13104
1560
-9905
8538
1560
3874
8538
3874
-3995
-3995
-4134
-4134
4223
4223
11109
11109
8143
8143
-370
-370
-3119
-3119
6411
6411
18549
18549
18978
2788
-20079
31355
32313
-21402
-10277
-5541
2788
-8463
-15202
-20079
-23683
31355
-29917
32313
-32082
-21402
-28344
-10277
-22104
-5541
-16636
-8463
-15911
-19207
-15202
-23683
-29917
-32082
-28344
-22104
-16636
-15911
-19207
-24459
-29110
-31430
-31094
-28965
-26408
-24656
-24380
-25504
-24459
-29110
-31430
-31094
-28965
-26408
-24656
-24380
-25504
-27257
-28552
-28610
-27369
-25391
-23367
-21717
-20609
-20118
-20229
-20687
-21056
-21057
-20796
-20619
-20674
-20749
-20549
-28552
-28610
-27369
-25391
-23367
-21717
-20609
-20118
-20229
-20687
-21056
-21057
-20796
-20619
-20674
-20749
-20549
-20033
-20033
-19410
-18782
-18007
-16966
-15822
-14977
-14673
-14748
-19410
-18782
-18007
-16966
-15822
-14812
-14977
-14652
-14673
-14401
-14748
-14344
-14586
-14941
-14812
-15146
-14652
-15118
-14401
-14999
-14344
-14586
-14941
-15146
-15118
-14999
-14929
-14929
-14865
-14647
-14202
-13681
-13259
-12874
-12275
-11360
-14865
-14647
-14202
-13681
-13259
-12874
-12275
-11360
-10388
-9741
-9504
-9350
-8942
-9741
-8334
-7884
-9504
-7818
-9350
-7982
-8942
-8334
-7884
-7818
-7982
-8092
-8102
-8092
-8225
-8102
-8619
-8225
-9184
-8619
-10087
-9184
-9927
-10087
-9750
-9927
-9952
-9750
-9952
-10853
-11851
-12818
-12974
-14469
-17388
-20076
-20998
-21397
-24931
-30490
31589
-29484
-17399
-3555
6364
10888
13300
-10853
-11851
-12818
-12974
-14469
-17388
-20076
-20998
-21397
-24931
-30490
31589
-29484
-17399
-3555
6364
10888
13300
13066
8478
8478
289
289
-5988
-5988
-5920
-5920
-55
-55
3428
3428
499
499
-6841
-6841
-10644
-6945
-6945
-82
-82
1343
1343
-5760
-5760
-14853
-14853
-14451
-14451
-2480
-2480
12874
12874
18983
18983
13322
5156
4598
13322
7905
5156
5516
4598
-5664
7905
-14588
5516
-8120
-5664
-14588
-8120
11472
11472
27374
27374
23426
23426
3537
3537
-15164
-15164
-18619
-18619
-7699
-7699
6191
6191
14431
14431
14013
14013
10270
4850
-1479
-7129
-7849
-4318
1206
-20
10270
4850
-1479
-7129
-7849
-4318
1206
-20
-9635
-21729
-9635
-26795
-21729
-22302
-26795
-13459
-9967
-22302
-12960
-13459
-15293
-9967
-10072
-12960
-15293
-10072
325
9082
325
9809
9082
4552
9809
-944
-3049
4552
-944
-3049
-3103
-3103
-1839
-1839
-834
-834
466
466
1415
1415
1112
1112
-972
-972
-2240
-2240
-2134
-2134
-91
-91
1248
1248
1161
1161
495
1299
495
1568
1299
108
1568
-2329
108
-1899
-2329
2813
-1899
8352
2813
7480
8352
7480
1049
-3628
1049
-1305
-3628
-1305
3317
3317
2131
2131
-6935
-6935
-13018
-13018
-7250
-7250
5630
5630
10599
10599
5
-19464
-31423
-28497
-17301
-9591
-8646
-10476
5
-19464
-31423
-28497
-17301
-9591
-8646
-10476
-8025
-8025
-2119
600
-4967
-15143
-22599
-20556
-12273
-4707
-2398
-2119
-2979
600
-2427
-4967
-1502
-15143
-4756
-22599
-12711
-20556
-19239
-12273
-18006
-4707
-10610
-2398
-2979
-2427
-1502
-4756
-12711
-19239
-18006
-10610
-4885
-5485
-8858
-9015
-5558
-4289
-9334
-17880
-22989
-4885
-5485
-8858
-9015
-5558
-4289
-9334
-17880
-22989
-20911
-14166
-7936
-5918
-8962
-15522
-22065
-23768
-18118
-20911
-14166
-7936
-5918
-8962
-15522
-22065
-23768
-18118
-8378
-2259
-8378
-5682
-16926
-2259
-27909
-5682
-30872
-16926
-24039
-27909
-11909
-30872
-1705
-24039
-11909
-1705
866
-5949
-18229
-27407
866
-25857
-5949
-13798
-18229
-637
-27407
2918
-25857
-5283
-13798
-637
2918
-5283
-17343
-23746
-22429
-17343
-18140
-23746
-14724
-22429
-11391
-18140
-6700
-14724
-3579
-11391
-6947
-6700
-3579
-6947
-16753
-25929
-27669
-20989
-13827
-11800
-13765
-14663
-13167
-16753
-25929
-27669
-20989
-13827
-11800
-13765
-14663
-13167
-12336
-15708
-22102
-26276
-22243
-11895
-2129
-666
-8454
-12336
-15708
-22102
-26276
-22243
-11895
-2129
-666
-8454
-17977
-17441
-4470
-17441
12325
-4470
19961
12325
14183
19961
3262
14183
616
3262
7967
616
7967
16198
14983
4175
-7443
-10529
-6085
16198
106
14983
4175
3338
-7443
3562
-10529
-6085
106
2036
3338
3562
748
-1431
-2638
-2426
2036
251
748
2857
-1431
4157
-2638
2693
-2426
251
2857
4157
2693
390
-1641
-2417
-2056
-1007
323
1654
2498
2182
682
390
-353
-1593
-1641
-2417
-826
-2056
859
-1007
1598
323
2185
1654
3701
2498
2182
682
-353
-1593
-826
859
1598
2185
3701
6412
6412
7324
7324
3253
3253
-3921
-3921
-8688
-8688
-3336
-3336
8615
8615
20073
20073
21902
21902
12899
12899
-183
-7644
-6022
555
5657
5193
-7644
1385
-342
-6022
509
555
5657
5193
1385
-342
509
197
-3888
-8288
-7146
434
197
7419
-3888
4884
-8288
-5535
-7146
-12750
434
7419
4884
-5535
-12750
-10554
-10554
-2268
-2268
2290
489
2290
-2661
489
-2661
1420
10966
15842
11480
1420
10966
15842
11480
3507
1975
3507
10838
20688
1975
21334
10838
9034
20688
21334
-6574
9034
-13680
-6574
-9160
-13680
-9160
1739
1739
9020
10153
5523
-1252
-8501
-11955
-7578
2519
9020
10153
5523
-1252
-8501
-11955
-7578
8744
2519
8744
5399
-3097
-5993
1152
9137
7373
-3206
-10893
5399
-3097
-5993
1152
9137
7373
-3206
-10893
-10219
-6607
-7993
-14567
-16557
-7093
7591
16633
14522
-10219
-6607
-7993
-14567
-16557
-7093
7591
16633
14522
2949
-11828
-22291
-22291
-24795
-24795
-19207
-19207
-11522
-11522
-7844
-7844
-10323
-10323
-13331
-13331
-9017
-9017
1593
1593
12546
12546
16563
16563
12777
12777
4441
4441
-4066
-4066
-8946
-8523
-8946
-8523
-4495
-1671
-3758
-8846
-10111
-2501
11452
22836
23066
-4495
-1671
-3758
-8846
-10111
-2501
11452
22836
23066
10853
-7370
10853
-21010
-7370
-24650
-21010
-15881
-24650
-15881
699
699
17229
17229
25062
25062
23328
23328
14156
6298
4599
8495
6298
4599
14327
19490
8495
26253
14327
30498
19490
27373
26253
30498
27373
13930
13930
-2331
-8332
2596
18699
23173
11171
-5806
-13027
-8311
-1952
-2594
-2331
-7987
-8332
-9665
2596
-3946
18699
4536
23173
8921
11171
6948
-5806
-13027
1591
-8311
-2666
-3708
-2770
-1952
-2594
-7987
-9665
-3946
4536
8921
6948
1591
-2666
-3708
-2770
-1914
-2442
-2003
3100
14028
-1914
-2442
23719
-2003
24930
3100
15177
14028
423
-10031
-12328
23719
-9787
-10338
24930
-15911
15177
423
-10031
-12328
-9787
-10338
-15911
-23987
-23987
-29988
-29988
-31238
-31238
-27271
-27271
-21645
-21645
-16678
-16678
-15248
-15248
-18547
-18547
-24703
-24703
-30438
32651
-31048
32651
-26101
-31048
-20822
-26101
-17827
-20822
-18296
-17827
-21517
-18296
-25543
-21517
-25543
-28536
-29360
-29360
-28182
-28182
-25762
-25762
-23207
-23207
-21670
-21670
-21809
-21809
-22846
-22846
-23113
-23113
-21466
-18980
-18176
-20488
-24321
-25916
-21466
-22394
-18980
-13870
-18176
-3929
-20488
2195
-24321
476
-25916
-8957
-20680
-26323
-22394
-20903
-13870
-7472
-3929
4700
7629
2195
476
-8957
-20680
-26323
-20903
-7472
4700
7629
811
-9292
-15853
-16314
-12181
-5289
2906
10346
13752
811
-9292
-15853
-16314
-12181
-5289
2906
10346
13752
11045
3616
-4091
-7842
-6363
-1443
4183
8349
11045
9775
3616
-4091
-7842
-6363
-1443
4183
8349
9775
8057
3750
8057
-1014
3750
-3862
-3451
-1014
-604
-3862
1876
-3451
3996
5258
-604
1876
3996
5258
6571
7104
6326
5516
6939
12705
18606
19173
13054
6571
7104
6326
5516
6939
12705
18606
19173
13054
5865
4974
10389
5865
15934
4974
12549
10389
932
15934
-9697
12549
-10087
932
-1152
-9697
-10087
-1152
8823
9088
9088
-759
-759
-12072
-12072
-15057
-15057
-8269
-8269
338
338
3401
3401
-1378
-1378
-7868
-9435
-4443
2622
7855
7502
-7868
2102
-9435
-4052
-4443
-7264
2622
7855
7502
2102
-4052
-7264
-4881
1083
-4881
3352
1083
-1494
3352
-10229
-1494
-14143
-10229
-10326
-14143
-309
-10326
7499
-309
7499
8807
8807
5222
714
-2184
-3545
-3549
-1874
613
2776
2950
904
-1244
-2169
5222
714
-2184
-3545
-3549
-1874
613
2776
2950
904
-1244
-1828
-2169
-796
-1828
168
-796
1440
168
1909
1440
1909
1960
1013
1013
-644
-644
-1984
-1250
-1984
251
-1250
251
1771
1771
1394
1394
-1389
-1389
-5885
-5885
-9868
-9868
-12468
-12468
-10575
-10575
-2409
-2409
10883
10883
23582
23582
27901
27901
19556
19556
1976
-14538
-14538
-19883
-19883
-11813
-11813
2404
2404
10929
10929
6037
6037
-9694
-9694
-24991
-24991
-29982
-22604
-12489
-7274
-9293
-12649
-11174
-3578
6284
-29982
-22604
-12489
-7274
-9293
-12649
-11174
-3578
6284
12693
13698
8044
-1094
-9773
12693
-11113
13698
-4195
8044
5347
-1094
8589
-9773
-11113
-4195
5347
8589
301
301
-12362
-12362
-16088
-4648
13395
21871
13947
-16088
-4648
-1507
-9015
13395
21871
13947
-1507
-9015
-5974
-1346
-4251
-11229
-11629
-5974
-2288
5459
2922
-1346
-5595
-4251
-11229
-11629
-2288
5459
2922
-5595
-6495
-6495
6050
6050
22207
27778
27778
17524
17524
1681
-7557
-5788
2660
1681
-7557
-5788
2660
10606
14576
10606
14035
14576
13357
14029
14035
15935
13357
15042
14029
11388
15935
9271
15042
11388
9271
12418
12418
20396
20396
26042
26042
23663
15583
23663
9509
15583
10365
9509
10365
16139
21731
16139
21731
24295
24474
23602
21565
17786
12677
9670
11579
17700
23089
25492
24863
24331
24190
22571
17564
24295
14676
24474
23602
21565
18745
17786
12677
9670
11579
17700
23089
25492
24863
24331
24190
22571
17564
14676
18745
27154
27154
29451
19067
2871
-3928
3648
16758
20523
10914
29451
19067
2871
-3928
3648
16758
20523
10914
-3503
-3503
-11888
-10879
-4019
3366
7305
5594
-131
-3780
437
-11888
-10879
-4019
3366
7305
5594
-131
-3780
11042
19355
17287
4823
-10609
-20542
-21557
-13925
437
11042
19355
17287
4823
-10609
-20542
-21557
-13925
-339
-339
15403
26395
29444
23821
12455
-1323
-11372
-13707
15403
26395
29444
23821
12455
-1323
-11372
-13707
-6471
6391
17069
20134
-6471
16494
6391
10059
17069
3432
20134
-1941
16494
-4014
10059
3432
-1941
-4014
-780
-780
5848
11029
10611
6823
4050
2893
-594
-6535
5848
11029
10611
6823
4050
2893
-594
-6535
-8812
-1856
10149
17582
-8812
12693
-1856
806
10149
-9680
17582
-12632
12693
-9646
806
-9680
-12632
-9646
-3530
4450
-3530
4450
11911
13725
6568
-4286
11911
13725
-7776
6568
1620
-4286
16562
-7776
1620
16562
22982
14291
22982
-1864
14291
-10914
-1864
-10914
-5821
-5821
6568
11332
6568
1976
11332
-16193
1976
-16193
-28285
-28285
-23874
-23874
-5681
-5681
12358
12358
18195
18195
8619
8619
-8942
-8942
-23980
-23980
-29948
-29948
-27918
-27918
-22685
-22685
-19260
-19260
-19010
-19010
-22512
-22512
-26195
-28667
-27971
-26195
-25447
-28667
-27971
-25447
-22462
-20523
-20815
-23125
-26024
-27902
-27948
-26484
-24514
-23083
-22673
-23425
-24737
-25940
-26563
-26451
-25688
-24847
-22462
-20523
-20815
-23125
-26024
-27902
-27948
-26484
-24514
-23083
-22673
-23425
-24737
-25940
-26563
-26451
-25688
-24847
-24222
-24032
-24306
-24849
-25283
-25581
-24222
-25568
-24032
-25299
-24306
-24968
-24849
-25283
-25581
-25568
-25299
-24747
-24968
-24656
-24626
-24651
-24827
-24747
-25173
-24656
-25427
-24626
-25243
-24651
-24722
-24827
-25173
-25427
-25243
-24722
-24177
-24177
-23910
-23910
-24037
-24037
-24274
-24218
-23793
-23013
-21986
-24274
-20653
-24218
-23793
-23013
-21986
-20653
-19140
-18164
-19360
-23057
-19140
-26658
-18164
-24980
-19360
-14787
-23057
281
-26658
10638
-24980
-14787
281
9102
10638
-1523
-10593
-10104
9102
-2264
-1523
3040
-10593
1491
-10104
-1879
-2264
331
3040
1491
-1879
331
7667
14469
14910
11253
9086
10448
12478
14558
16629
19340
7667
21201
21247
14469
21336
14910
22800
11253
24592
9086
20024
10448
6814
12478
14558
-9469
16629
-18607
19340
-15305
21201
21247
-2252
9615
21336
12880
22800
7892
24592
993
20024
-2570
6814
-9469
-3617
-18607
-15305
-2252
9615
12880
7892
993
-2570
-3617
-4811
-4811
-8611
-11984
-8611
-11984
-10585
-3261
5121
-10585
10517
-3261
9000
5121
2380
10517
9000
2380
-4827
-6979
-4827
-4112
881
-6979
2199
-4112
-2355
881
-10730
2199
-14449
-2355
-10589
-10730
-14449
-10589
-656
8397
-656
10764
8397
6332
10764
-468
6332
-3571
-468
-2783
-3571
-392
-2783
-990
-392
-990
-5324
-9223
-7033
-359
5745
5633
-400
-6780
-8673
-5324
-9223
-7033
-359
5745
5633
-400
-6780
-8673
-4416
3280
13220
22751
27703
23952
12617
-1055
-8477
-4416
3280
13220
22751
27703
23952
12617
-1055
-8477
-7035
-7035
-1219
1862
-637
-5585
-1219
-6998
1862
-2692
6021
-637
13208
-5585
-6998
-2692
6021
14935
10269
1015
-9163
-16040
-16542
-10653
14935
-1278
10269
7142
1015
-9163
-16040
-16542
-10653
-1278
7142
11100
9458
11100
3598
9458
-3520
3598
-8873
-3520
-10707
-8873
-9092
-10707
-5548
-9092
-5548
-2094
-2094
-319
-869
-3422
-7002
-10438
-12847
-13962
-14152
-14124
-319
-869
-3422
-7002
-10438
-12847
-13962
-14152
-14124
-14496
-15527
-15527
-17140
-17140
-19097
-19097
-21122
-21122
-22955
-22955
-24432
-24432
-25590
-25590
-26665
-26665
-27831
-27831
-28917
-28917
-29428
-29428
-28981
-28981
-27720
-27720
-26246
-26246
-25082
-25082
-24229
-24229
-23326
-23326
-22189
-22189
-21124
-21124
-20658
-20658
-21030
-21030
-21986
-21986
-23019
-23019
-23712
-23712
-23882
-23882
-23512
-23512
-22661
-21440
-19954
-18247
-22661
-16310
-21440
-14184
-19954
-18247
-16310
-14184
-12022
-12022
-10036
-10036
-8341
-8341
-6861
-5403
-5403
-3808
-3808
-2013
-2013
-78
-78
1880
1880
3759
3759
5516
5516
7157
7157
8698
10148
11541
12957
14485
8698
16144
17862
10148
19531
21424
11541
12957
14485
16144
17862
22712
19531
23242
21424
24750
26181
27421
27539
28179
22393
30185
22712
23242
24750
26181
27421
27539
28179
30185
32247
32224
32224
29824
29824
29859
29859
-32062
-32062
-28816
-28816
32208
32208
17950
17950
407
407
-10022
-10022
-11973
-11973
-10658
-10658
-10608
-10608
-9431
-9431
-2809
-2809
6402
11449
6402
6762
11449
6762
-3193
-9843
-8808
-3503
2198
4611
3629
40
-3927
-9843
-8808
-3503
2198
4611
3629
40
-3927
-7011
-6544
-5768
-6920
-8916
-6723
-9
7016
9398
-7011
-6544
-5768
-6920
-8916
-6723
-9
7016
9398
4858
4858
-2124
-2124
-6939
-6939
-7061
-7061
-4880
-4880
225
225
5079
5079
6805
6805
4035
4035
163
-2338
-2338
-1566
-1566
-2256
-2256
-7720
-7720
-14671
-14671
-15363
-15363
-6817
-6817
5460
5460
12874
10871
2873
-4394
-6155
-4394
-2927
-2163
665
12874
5978
10871
9350
2873
3041
-4394
-8302
-6155
-14287
-4394
-7636
-2927
3772
-2163
4393
665
-9152
5978
9350
3041
-8302
-14287
-7636
3772
4393
-9152
-23851
-22348
-5832
8212
7558
335
1340
14608
26287
22750
7187
-3665
376
14782
25848
22407
6383
-12380
-23851
-22348
-5832
8212
7558
335
1340
14608
26287
22750
7187
-3665
376
14782
25848
22407
6383
-12380
-24569
-25751
-25751
-17577
-5805
-17577
6059
-5805
14426
6059
16918
14426
14245
16918
9758
14245
9758
9078
9078
14507
14507
24555
22576
15483
24555
1425
15483
-7791
1425
-8125
-7791
-2583
-8125
-2583
-172
-172
-4222
-10231
-10379
-2594
7375
11341
6743
-3800
-4222
-10231
-10379
-2594
7375
11341
6743
-3800
-12576
-14994
-12576
-8731
-14994
1978
-8731
9149
1978
7195
9149
-2139
7195
-8688
-2139
-8161
-8688
-8161
-3884
-3573
-6997
-6134
3277
11196
7588
-4906
-11454
-3884
-3573
-6997
-6134
3277
11196
7588
-4906
-11454
-4189
5835
5835
2505
-15960
-15960
-30601
-30601
-24942
-24942
-2660
-2660
17299
17299
22663
22663
13455
1607
-5241
-6811
-6990
-5360
-1223
6815
15054
13455
1607
-5241
-6811
-6990
-5360
-1223
6815
15054
18462
11970
350
-4287
4439
18462
19636
11970
25157
350
12594
-4287
-9404
4439
19636
25157
12594
-9404
-22561
-22561
-20478
-20478
-10252
-2450
-10252
667
-2450
3218
667
7689
3218
7679
7689
-525
7679
-525
-11773
-11773
-16067
-9483
-16067
1057
-9483
7651
1057
7651
6650
6650
2051
-1806
-3112
2051
-1806
-3112
-3284
-3284
-678
-678
2472
2472
3843
3843
1690
1690
-800
-800
-1903
-1903
-20
-20
-707
-707
-6597
-6597
-13899
-15103
-7180
-13899
4532
-15103
11555
-7180
10424
4532
4008
11555
-2305
10424
4008
-2305
-5449
-5449
-5557
-3710
-430
-5557
2897
4500
-3710
3495
-430
663
2897
-2124
4500
3495
663
-2124
-3128
-2430
-545
658
2244
1694
1058
144
-902
-2430
-1837
-545
-769
658
-45
2244
870
1694
581
1058
-372
144
-971
-97
-902
73
-1837
-769
-45
870
581
-372
-971
-97
73
-598
-1523
-967
-598
-1523
-967
794
1933
-898
794
-5722
-8477
-6544
1933
-898
-5722
-8477
-6544
-2888
-2888
-2705
-9862
-19556
-24202
-19751
-10809
-3502
-4930
-12535
-20455
-23931
-24334
-23921
-27613
-31827
-2705
-32201
-9862
-25931
-19556
-24202
-19751
-10809
-3502
-4930
-12535
-20455
-23931
-24334
-23921
-27613
-31827
-32201
-25931
-16782
-11917
-15406
-21494
-22143
-11917
-15406
-21494
-22143
-13160
702
10738
12172
-13160
702
10738
12172
7256
1206
7256
-2182
1206
-1413
-2182
3428
-1413
9951
3428
7315
9951
-5480
12775
7315
-5480
-17932
-21410
-21410
-13519
-13519
502
502
13298
13298
20407
20407
20500
20500
15053
15053
7300
7300
3751
7609
15082
20837
21865
19864
18982
18834
17546
3751
7609
15082
20837
16335
21865
20210
19864
18982
27327
18834
28276
17546
16133
-1954
-9083
16335
2684
20210
21112
27327
28276
16133
-1954
-9083
2684
21112
26436
26436
13144
-4879
-12043
-8392
13144
-4879
-12043
-8392
-5547
-9187
-12519
-8440
811
4028
-1002
-4133
4678
20665
28408
17082
-7218
-5547
-9187
-12519
-8440
811
4028
-1002
-4133
4678
20665
28408
17082
-7218
-28820
-28820
31777
31777
-21928
-4232
3790
-270
-9028
-9744
1017
13921
17846
10972
5924
10122
18348
18713
9400
899
-21928
-4232
3790
-270
-9028
-9744
1017
13921
17846
10972
5924
10122
18348
18713
9400
899
3768
11805
12025
3768
-934
11805
-14605
12025
-13836
-934
862
-14605
13031
-13836
8688
862
13031
8688
-6782
-17385
-17385
-12233
-12233
1252
1252
8811
8811
6298
6298
2725
2725
5395
5395
10442
10442
8282
-1220
-7005
1494
19720
32086
26028
6132
-12064
8282
-1220
-7005
1494
19720
32086
26028
6132
-12064
-18931
-18931
-13846
-13846
-1949
13316
26110
29601
19617
-824
-18897
-21785
-9284
-1949
8748
13316
19958
26110
18318
29601
7538
19617
-3568
-824
-7041
-18897
-1694
-21785
-9284
8748
19958
18318
7538
-3568
-7041
-1694
6540
6540
11466
11466
8721
8721
706
706
-7078
-7078
-10254
-10254
-8448
-8448
-2812
-2812
1667
1667
1831
-2135
-6144
-6283
-1435
2348
649
-5355
-8550
1831
-6109
-649
-2135
3243
-6144
2546
-6283
82
-1435
-1491
2348
-947
649
-716
-5355
1016
-8550
-6109
-649
3243
2546
82
-1491
-947
-716
1016
2706
2819
375
-1582
-1455
255
-1016
-7262
-14241
2706
2819
-7946
375
2751
-1582
10847
-1455
12275
255
7230
-1016
-522
-7262
-4531
-14241
-1866
-15431
-7946
2751
10847
12275
7230
-522
-4531
-1866
6461
6461
12242
7323
-8254
12242
-24648
7323
32409
-8254
-30389
-21021
-10237
-24648
32409
-30389
-21021
-10237
234
234
8911
8911
13012
7979
7979
-4133
-4133
-16987
-16987
-23278
-23278
-20122
-20122
-8722
-8722
5167
5167
17409
17409
24032
23145
23145
16242
16242
7292
803
-576
3210
7292
803
-576
3210
10249
10249
17786
17786
23334
25495
23334
25495
24362
24362
21344
21344
18366
18366
16812
16812
16939
16939
18061
19184
19566
18865
17069
14401
11237
7606
5155
18061
19184
19566
18865
17069
14401
11237
7606
5155
3095
1107
-1302
-3822
-6501
-8517
-11832
-16296
-20051
3095
1107
-1302
-3822
-6501
-8517
-11832
-16296
-20051
-21472
-21887
-25204
-30555
31645
-29335
-16859
-21472
-2595
6982
-21887
-25204
-30555
31645
-29335
-16859
-2595
6982
12242
14341
14341
13553
13553
8236
8236
13
13
-5714
-5714
-5512
-5512
-442
-442
2407
2407
411
-4992
-7737
-4591
2088
6039
2848
-2776
-2340
411
-4992
7444
20298
24379
15397
2832
-3325
-3605
-7737
-3852
-4591
-5710
2088
6039
2848
-2776
-2340
7444
20298
24379
15397
2832
-3325
-3605
-3852
-5710
-2862
10373
24283
10373
25583
24283
10633
25583
-5689
10633
-8180
-5689
3007
-8180
16145
3007
16145
19693
19693
12453
12453
2672
2672
-2855
-2855
-2189
-2189
2476
2476
8417
8417
10805
10805
6904
6904
-342
-342
-4019
-4019
-501
-501
6076
6076
7603
7603
1147
1147
-7600
-7600
-8566
-8566
2158
2158
17518
25054
25054
18538
18538
4487
4487
-3545
-3545
-1589
-1589
5486
5486
5760
5760
-2316
-2316
-10694
-7266
-7266
7693
7693
23659
23659
27295
27295
15853
15853
2167
2167
-742
-742
10795
10795
22821
24664
15332
6466
4285
5349
1952
22821
-4025
24664
-2571
15332
6466
4285
5349
1952
-4025
-2571
9582
22120
20611
6533
-5412
-3836
4128
9582
22120
20611
6533
-5412
-3836
4128
5399
5399
-3010
-11663
-3010
-10157
-11663
-1904
-10157
-1904
3429
1588
3429
186
1588
5327
186
10634
5327
6852
10634
6852
-8097
-8097
-21207
-21264
-21207
-21264
-7510
7217
-7510
10027
7217
588
10027
-11393
588
-14812
-11393
-14812
-6882
-6882
6443
6443
13932
13932
10371
10371
-2228
-2228
-14597
-14597
-17208
-17208
-7325
-7325
6294
6294
13967
9961
-1996
-12674
-15996
-12189
-6963
-1969
2019
5275
5229
1293
-3924
-4515
2605
10628
13967
12050
6980
9961
-1996
-12674
-15996
4972
-12189
10131
-6963
16097
-1969
13186
2019
1169
-6149
2359
5275
20511
5229
29242
1293
-3924
-4515
2605
10628
12050
6980
4972
10131
16097
13186
1169
-6149
2359
20511
29242
19791
19791
365
-12518
-13625
-9722
-11063
-14340
-12055
-1964
7329
6937
-4040
-14045
-12736
-145
12458
15360
365
5815
-12518
-13625
-9722
-6845
-11063
-14340
-12161
-12055
-6842
-1964
1303
6567
5985
3232
7329
2143
6937
2798
-4040
-14045
-12736
3059
-145
1420
12458
-1044
15360
-3224
5815
-4197
-3824
-2739
14
-6845
2903
-12161
-6842
1303
6567
5985
3232
2143
2798
3059
1420
-1044
-3224
-4197
-3824
-2739
14
2903
4897
4897
4948
3209
3209
318
318
-2098
-2098
-4038
-4038
-3800
-3800
-1557
-1557
1184
1184
2385
2385
2364
2364
1477
1477
1754
1754
2481
2481
2426
2426
2213
2213
5214
5214
11206
11206
17063
17063
16662
8073
-3991
-11397
-11759
-6742
-678
4935
16662
8073
-3991
-11397
-11759
-6742
-678
4935
11123
11123
19101
19101
25804
25804
28975
28975
27072
27072
21055
21055
12975
12975
5368
5368
352
352
-1092
529
3337
5713
5960
4100
-1660
-10221
-18308
-1092
529
3337
5713
5960
4100
-1660
-10221
-18308
-22881
-22881
-24430
-24430
-27017
-27017
-30743
-30743
-32716
-32716
-27715
-27715
-15707
-15707
-2178
-2178
7282
7282
11163
12947
11163
12463
12947
8735
12463
670
8735
-5826
670
-5603
-5826
30
-5603
3321
30
3321
-332
-332
-7956
-7956
-9458
-9458
-1125
9450
-1125
12382
9450
5593
12382
-3912
5593
-5787
-3912
-5787
-1184
-1184
4799
6612
3714
-2342
-9767
-17424
-17463
-7570
4799
6612
3714
-2342
-9767
-17424
-17463
-7570
6678
14696
12183
6988
6678
8622
14696
15175
12183
15646
6988
4949
8622
-7986
15175
15646
4949
-7986
-12115
-6019
-3505
-10316
-19905
-18785
-5811
7692
12271
-12115
-6019
-3505
-10316
-19905
-18785
-5811
7692
12271
7504
693
-2080
-2112
-2297
-618
1840
2720
886
7504
693
-2080
-2269
-2112
-2688
-2297
295
-618
526
1840
-5080
2720
886
-12828
-14939
-7922
3329
-2269
-2688
295
526
-5080
-12828
-14939
-7922
3329
10274
10274
9969
4453
-1770
-5004
-5684
-3233
798
3758
9969
4453
-1770
-5004
-5684
-3233
798
3758
3903
2602
512
-1005
3903
-2807
2602
-4256
512
-2707
-1005
1981
-2807
5758
-4256
-2707
1981
5758
1775
1775
-8020
-14339
-7913
-8020
9437
-14339
26242
-7913
29381
9437
18246
26242
1298
29381
18246
1298
-11713
-11713
-17612
-17445
-14821
-10504
-7046
-7787
-14536
-23344
-17612
-17445
-14821
-10504
-7046
-7787
-14536
-23344
-29567
-29567
-28625
-28625
-23275
-23275
-18564
-18564
-18117
-18117
-21606
-21606
-25828
-25828
-28058
-28058
-27634
-27634
-25452
-23077
-25452
-21535
-23077
-21483
-21535
-21483
-23147
-23147
-27606
-27745
-26275
-25659
-27606
-27745
-26275
-24274
-22866
-24274
-22316
-22866
-22400
-22316
-23246
-22400
-24653
-23246
-25952
-24653
-26144
-25952
-24701
-26144
-24701
-22517
-20863
-19724
-17814
-14299
-19724
-10408
-17814
-8511
-9454
-14299
-10938
-10408
-8511
-9454
-10938
-9474
-4106
2462
6377
6131
3749
1940
1677
2034
-9474
2591
4472
2462
8758
6377
13708
6131
15409
3749
12083
1940
6776
1677
5565
2034
11870
2591
4472
8758
13708
15409
12083
6776
5565
11870
22912
31222
30620
21043
8370
608
2613
13252
26121
22912
31222
30620
-32541
21043
29538
8370
17907
608
5561
2613
27
13252
3799
26121
13085
20853
22128
-32541
29538
17907
5561
27
3799
13085
20853
22128
17181
10762
8392
12057
18837
23351
22251
16760
11640
10762
8392
12057
18837
23351
22251
16760
11640
11661
11661
17716
17716
25906
30355
25906
30355
27880
27880
20367
20367
13291
13291
11821
11821
16909
16909
24595
28942
26597
19107
24595
11649
9443
13778
20929
24857
28942
26597
19107
11649
9443
13778
20929
24857
21913
14129
6586
3543
7030
14766
21258
20825
12461
14129
6586
4154
3543
3998
7030
13527
14766
24109
21258
26859
20825
12461
22636
19389
21962
22984
4154
3998
13527
24109
26859
22636
19389
21962
22984
15022
1568
-4704
2128
11943
11189
-3031
-17449
-18888
15022
1568
-4704
2128
11943
11189
-3031
-17449
-18888
-7778
3874
5640
-695
-8194
-10632
-7726
-2582
1094
137
-4289
-7778
-9963
3874
-12082
5640
-8104
-695
-1050
-8194
3540
-10632
1422
-7726
-5496
-2582
1094
137
-4289
-9963
-12082
-8104
-1050
3540
1422
-5496
-12238
-14178
-9076
-12238
-642
-14178
4567
-9076
3455
-642
-3684
4567
-11444
3455
-15114
-3684
-11444
-15114
-10943
-1655
5830
5353
-1655
-3072
5830
-11848
5353
-14343
-3072
-8645
-11848
-1208
-14343
-8645
-1208
1586
35
-791
2244
4266
1321
-4744
-5643
4038
1586
35
-791
2244
4266
1321
-4744
-5643
4038
19345
29511
26197
13142
-844
-9372
-12275
-12645
-12043
-10336
-8798
29511
-10178
26197
-15595
13142
-844
-22331
-26172
-9372
-26279
-12275
-12645
-12043
-10336
-8798
-25170
-10178
-15595
-22331
-26172
-26279
-25170
-25898
-25898
-28249
-29226
-25102
-25102
-19307
-19307
-17378
-17378
-21481
-21481
-25302
-25302
-19285
-19285
-2283
-2283
16274
16274
21399
21399
10463
10463
-4034
-4034
-6518
-6518
4762
4762
15293
15293
12163
12163
-4359
-4359
-19494
-21159
-10739
566
3304
-1036
-7047
-9249
-7264
-19494
-21159
-10739
566
3304
-1036
-7047
-9249
-7264
-2640
375
-546
-4664
-9898
-11613
-7360
-192
4376
-2640
375
-546
-4664
-9898
-11613
-7360
-192
2557
-4997
4376
-12340
-14599
-9253
-538
2557
4891
-4997
3705
-12340
-2373
-14599
-9253
-538
4891
3705
-2373
-7504
-8238
-2547
7605
-8238
17229
-2547
22758
7605
20180
17229
11415
22758
699
20180
11415
699
-5544
-6604
-4030
-989
3356
11983
23084
31909
31992
-5544
-6604
-4030
-989
3356
11983
23084
31909
31992
24463
13991
6012
2159
-591
13991
-2100
6012
-1435
1283
2159
1666
-591
-2100
-1435
1283
-1250
1666
-4696
-3928
647
3429
-1624
-1250
-10013
-4696
-13107
-3928
-7107
647
3429
-1624
2300
-10013
6904
-13107
-7107
5333
3546
5826
2300
6904
5333
3546
5826
10765
11623
6185
-3643
-13132
-17886
-14473
-5973
1303
79
-9037
-16178
-11749
-13132
-17886
-14473
-5973
1303
79
-9037
-16178
-11749
3831
18108
22081
16559
3831
9514
18108
6700
22081
6492
16559
5343
9514
2444
6700
6492
5343
2444
1650
2575
2716
1650
198
-3028
2575
-4277
2716
-1301
198
2412
-3028
3380
-4277
-1301
2412
3380
404
-4951
-10085
-13398
-14757
404
-14511
-4951
-12574
-10085
-9332
-13398
-6610
-14757
-14511
-12574
-9332
-6610
-6757
-10355
-14480
-15206
-6757
-11593
-10355
-7120
-14480
-5785
-15206
-7895
-11593
-9869
-7120
-5785
-7895
-9869
-8924
-6393
-6574
-11990
-20993
-29051
-32415
-29979
-23374
-8924
-6393
-6574
-11990
-20993
-29051
-15571
-32415
-9944
-8854
-29979
-12757
-23374
-19829
-26784
-30800
-15571
-30646
-9944
-26947
-8854
-12757
-19829
-26784
-30800
-30646
-26947
-21738
-17448
-15782
-17044
-20217
-23673
-26002
-21738
-17448
-15782
-17044
-20217
-23673
-26002
-26535
-25409
-26535
-25409
-23310
-21114
-19546
-18928
-19114
-19632
-19976
-19859
-19270
-23310
-18357
-17303
-21114
-16262
-19546
-15348
-18928
-14619
-19114
-14046
-19632
-13532
-19976
-12976
-19859
-12327
-19270
-18357
-17303
-16262
-15348
-14619
-14046
-13532
-12976
-12327
-11566
-10690
-9712
-11566
-8681
-10690
-7656
-9712
-6657
-8681
-5637
-7656
-4559
-6657
-3459
-5637
-4559
-3459
-2419
-1483
-2419
-610
-1483
277
-610
1212
277
2178
1212
3150
2178
4110
3150
5035
4110
5035
5899
6688
7427
8152
8869
9542
10119
10580
5899
10943
6688
7427
8152
8869
9542
10119
10580
10943
11264
11639
12166
12877
11264
13700
11639
14511
12166
15250
12877
15971
13700
16782
14511
15250
15971
16782
17734
18764
18764
19752
19752
20628
20628
21431
21431
22257
22257
23170
23170
24140
24140
25078
25078
25934
26747
27585
28447
29225
29823
30284
30773
31414
25934
26747
27585
28447
29225
29823
30284
30773
31414
32145
32767
-32395
-32218
-32069
-31849
32145
-31632
32767
-31583
-32395
-31793
-32218
-32069
-31849
-31632
-31583
-31793
-32217
-32217
-32729
32295
31773
31178
30443
-32729
29555
32295
28552
31773
27492
31178
30443
29555
28552
27492
26409
26409
25315
25315
24230
24230
23199
23199
22282
22282
21495
21495
20819
20819
20216
20216
19687
19687
19256
19256
18940
18940
18724
18724
18604
18596
18604
18718
18596
18926
18718
19138
18926
19344
19138
19344
20004
20146
20054
20353
21492
22306
22932
22830
23757
26229
28493
28353
20004
20146
20054
20353
21492
22306
22932
22830
23757
26229
28493
25923
28353
26456
31067
26456
31410
31067
-30207
17313
31410
17313
-171
-10380
-12003
-10473
-10436
-9415
-2946
6179
-10380
11198
-12003
-10473
-10436
-9415
-2946
6516
6179
-3396
11198
-9965
-8840
-3483
2225
6516
4616
-3396
3619
-9965
33
-8840
-3483
2225
4616
3619
33
-3925
-7004
-6539
-5772
-6933
-8932
-6734
-11
-7004
7026
-6539
-5772
-6933
-8932
-6734
-11
7026
9415
4874
-2116
-6943
-7073
-4896
214
5076
6810
9415
4874
-2116
-6943
-7073
-4896
214
5076
6810
4045
172
4045
-1952
-2139
-1952
-3266
-2139
-8552
-3266
-14120
-8552
-14247
-14120
-5953
-14247
-5953
4570
12162
11736
4830
-3807
-7645
-6153
4570
-545
12162
1819
11736
4830
-3807
-7645
-6153
-545
1819
-2457
-10454
-10454
-13591
-13591
-9300
-9300
863
863
8367
8367
9164
9164
4954
4954
35
35
-3040
-3040
-4206
-3857
-1752
1204
3263
3185
1247
-1070
-4206
-3857
-1752
1204
3263
3185
1247
-1070
-2158
-1951
-669
107
1592
1248
967
349
-584
-1599
-1149
58
1686
1873
633
-628
50
311
-2158
-1951
-669
107
1592
1248
967
349
-584
-1599
-1149
58
1686
1873
633
-628
50
311
-728
-2405
-1768
-728
1455
-2405
3693
-1768
-831
1455
-10154
3693
-14398
-831
-7055
-10154
-14398
-7055
9193
23925
26334
15444
-1336
9193
23925
-16856
26334
-25529
15444
-24304
-1336
-16856
-15935
-25529
-24304
-15935
-6792
-6792
-3631
-3631
-9555
-9555
-18298
-18298
-19631
-19631
-11257
-11257
2132
2132
10341
10341
9559
9559
3737
3737
-929
-929
-2049
-2049
-1455
-1455
-1125
-1125
-459
-459
1370
1370
3077
3077
2297
2297
-107
473
6968
15560
16511
3317
-17845
-31010
-26795
-107
473
6968
15560
16511
3317
-17845
-31010
-26795
-8526
10938
21091
20033
12349
3167
-164
6874
20967
-8526
10938
21091
20033
12349
3167
-164
6874
20967
32006
29575
32006
13909
-1470
-5138
2116
10800
29575
16615
19806
13909
-1470
-5138
2116
10800
16615
19806
21387
18260
9627
1995
4636
14062
18010
9003
-5480
21387
18260
9627
1995
4636
-12035
14062
18010
9003
-5480
-7963
-1714
-2945
-9269
-11693
-12035
-5432
-7963
3816
-1714
9759
-2945
-9269
-11693
-5432
3816
9759
8778
3755
-1869
-4579
-3524
460
1061
-4379
-12425
3755
-1869
-4579
-3524
460
1061
-4379
-12425
-14766
-14766
-9219
1708
9817
10356
5118
-1043
-3904
-4277
-9219
-2748
1708
-604
9817
1529
3070
10356
3770
5118
1580
-1043
-1965
-3904
-4183
-4277
-2775
-2748
-604
1529
3070
3770
1580
-1965
-4183
-2775
1027
2307
-1249
-7094
-6831
3445
18951
29276
27597
1027
2307
-1249
-7094
-6831
3445
18951
29276
27597
13441
-5224
-19411
-22985
-15913
-3661
3634
717
-10618
13441
-5224
-19411
-22985
-15913
-3661
3634
717
-10618
-22364
-27435
-24312
-18222
-13936
-13555
-16440
-20887
-24701
-22364
-25422
-27435
-23385
-24312
-21723
-18222
-21012
-13936
-20898
-13555
-21499
-16440
-23029
-20887
-24503
-24701
-26310
-25422
-23385
-21723
-21012
-20898
-21499
-23029
-24503
-23616
-19372
-23616
-14400
-19372
-12157
-14400
-15059
-12157
-15059
-18298
-18298
-17272
-17272
-12002
-12002
-6094
-6094
-4443
-4443
-4806
-4806
-1144
-1144
8971
8971
19194
19194
21893
21893
13911
13911
2847
2847
-1547
-1547
2880
8221
7497
-303
-7433
-7690
2880
-2152
8221
2304
7497
379
-303
-7433
-7690
-4733
-2152
-8168
2304
-6751
379
-2104
2834
6236
-4733
9053
-8168
8985
-6751
-2104
2834
6236
9053
8985
4323
4323
-3734
-9433
-7590
-1460
1289
-3241
-9985
-11389
-5255
1756
-9433
-7590
-1460
5585
1289
6379
5658
-3241
1703
-5279
-10812
-4606
-9985
10387
-11389
-5255
1756
5585
6379
5658
1703
-5279
-10812
-4606
10387
20313
13787
13787
-2138
-11843
-8808
-3389
-9115
-21288
-23191
-6374
14766
22552
10718
-7563
-15938
-8598
4975
15596
-2138
-11843
16106
7583
-3803
-11434
-8808
-10715
-3389
-3640
-9115
3913
-21288
6967
-23191
5764
-6374
14766
22552
10718
-7563
-15938
-8598
4975
15596
16106
7583
-3803
-11434
-10715
-3640
3913
6967
5764
3218
1145
-942
-1505
-578
1444
1547
-1030
-6018
3218
-8534
1145
-7744
-7176
-942
-10708
-1505
-15065
-578
1444
-11815
1547
203
-1030
12775
-6018
13190
-8534
-7744
-7176
-10708
-15065
-11815
203
12775
13190
1679
-10294
-10080
-984
6800
8148
10480
-10294
17622
-10080
23811
-984
6800
8148
10480
17622
23811
17849
3230
-5457
2028
3230
16421
-5457
1232
2028
-15576
14925
-18650
16421
1232
-15576
-18650
-8153
3350
6559
4256
1704
1251
398
-1256
-1426
-8153
3350
6559
4256
1704
1251
398
-1256
-1426
882
2436
1443
161
2319
5782
4414
-5056
-19035
882
2436
1443
161
2319
5782
4414
-5056
-19035
-28014
-25588
-12222
5399
19071
22771
15923
2093
-8365
-28014
-25588
-12222
5399
19071
22771
15923
2093
-8365
-7078
-7078
5239
17274
18795
10020
4197
10182
21430
24019
11011
-8938
-21428
-21516
-16710
-16660
-22664
-28019
-26388
5239
17274
18795
10020
4197
10182
21430
24019
11011
-8938
-21428
-21516
-16710
-16660
-22664
-28019
-26388
-19041
-13609
-16703
-19041
-26816
-13609
31769
-16703
-27361
-26816
-7956
31769
12549
-27361
20982
-7956
12549
20982
15536
15536
7038
6037
14239
23772
27540
24707
17240
6053
-6666
-14786
-11994
1030
14866
19040
11557
-999
-10257
7038
6037
14239
23772
27540
24707
17240
6053
-6666
-14786
-11994
1030
14866
19040
11557
-999
-10257
-14577
-16429
-16125
-13683
-8756
-4404
-5016
-12422
-22304
-14577
-16429
-16125
-13683
-8756
-4404
-5016
-12422
-22304
-30317
-32428
-27867
-19132
-30317
-12075
-32428
-11277
-27867
-18648
-19132
-27526
-12075
-28306
-11277
-18648
-27526
-28306
-16519
2250
2250
15878
15878
18531
18531
11442
11442
1662
-5832
1662
-9379
-5832
-9188
-9379
-9188
-4343
1690
4798
3232
-4343
1690
4798
3232
369
329
2443
1047
-4560
-10358
-9847
-1336
9376
17105
20241
17309
8900
-875
369
329
2443
1047
-4560
-10358
-9847
-1336
9376
17105
20241
17309
8900
-875
-6688
-4166
1620
3748
-1472
-7244
-7359
-6688
-536
6561
-4166
1620
3748
-1472
-7244
-7359
-536
6561
10378
10436
8665
6195
1882
-2405
-6104
-8561
10378
-11708
10436
8665
6195
1882
-2405
-6104
-8561
-11708
-13013
-9942
-850
9138
14431
10784
-13013
1059
-9942
-8569
-850
-11046
9138
14431
10784
-6314
1059
-8569
958
-11046
4598
529
-7125
-12251
-6314
-11286
958
-3782
4598
5799
529
-7125
-12251
-11286
-3782
5799
11304
11304
8927
8927
756
756
-4634
-4634
-701
-701
8444
8444
11765
11765
2801
2801
-7995
-7995
-6758
5693
12709
4179
-9824
-7078
14821
-29845
30506
-6758
5693
12709
4179
-9824
-7078
14821
-29845
30506
4370
-17228
-15409
2715
16492
13833
1054
-7992
-7716
4370
-17228
-15409
2715
16492
13833
1054
-7992
-7716
-1123
5754
5754
9955
9955
7897
7897
3961
3961
2174
2174
5647
5647
9772
9772
6545
6545
-5873
-17663
-17616
-6254
4743
4865
-2018
-7091
-5885
-5873
-17663
-17616
-6254
4743
4865
-2018
-7091
-5885
-2485
-2485
-297
-297
2499
2499
9546
9546
15586
15586
14403
14403
5341
5341
685
685
5161
5161
14028
13938
3845
-3138
4286
21139
27978
17527
-2094
14028
13938
3845
-3138
4286
21139
27978
17527
-2094
-13057
-13057
-11366
-7444
-11149
-16373
-12863
-11366
-344
-7444
8806
-11149
5016
-16373
-12863
-344
8806
5016
-5349
-7385
2046
11136
-5349
-7385
2046
11136
8624
-1137
-5266
870
6880
8624
-1137
-5266
870
6880
2021
-11632
2021
-18536
-11632
-9888
-18536
7560
-9888
20339
7560
22513
20339
19946
18426
22513
19946
18426
19802
19802
19579
15912
10693
6475
4400
3763
5912
9959
19579
15912
10693
6475
4400
3763
5912
9959
15466
19365
20073
17523
12940
8093
4554
3178
3839
15466
19365
20073
17523
12940
8093
4554
3178
3839
5500
5500
6713
6390
6713
6390
4315
1108
4315
-2272
1108
-5007
-2272
-5007
-6644
-6644
-7123
-7123
-6751
-6062
-5575
-5982
-5960
-6270
-6751
-6928
-6062
-7956
-5575
-8603
-5982
-5960
-6270
-6928
-8800
-7956
-8061
-8603
-8923
-11652
-14473
-15673
-8800
-16512
-8061
-20791
-8923
-27389
-11652
-14473
-15673
-31927
-16512
-20791
-28331
-27389
-16851
-3468
6084
10431
-31927
12949
-28331
12991
-16851
8607
-3468
6084
10431
12949
12991
8607
446
-5895
-5895
-5849
-5849
30
30
3486
3486
-137
-137
-7199
-7199
-9782
-9782
-5424
-5424
-666
-1327
-8158
-13887
-11257
-1638
-666
9159
13998
-1327
10398
-8158
-13887
-11257
-1638
9159
13998
10398
1043
-7638
-11624
-8479
-1377
3566
2169
-4733
-10229
1043
-7638
-11624
14091
-8479
19791
-1377
12759
3566
-2592
2169
-16959
-23255
-4733
-19935
-10229
-8841
1400
14091
19791
12759
-2592
-16959
-23255
-19935
-12485
-7936
-8455
-10570
-11398
-8472
-3355
2543
4677
-12485
-7936
-110
-10052
-18918
-17553
-4123
9570
10559
-8455
-2140
-10570
-14568
-11398
-8472
-3355
2543
4677
-12681
3690
17434
14779
-110
-626
-10052
-12273
-18918
-9989
-17553
2035
-4123
9601
9570
10559
-2140
-14568
6786
-1247
-6224
-12681
-6245
-5284
3690
-5271
17434
-5851
14779
-3909
-626
62
-12273
-9989
2035
3775
5764
6462
5367
6786
2049
-1247
-2047
-6224
-4071
-6245
-748
-5284
-5271
4574
-5851
-3909
62
3775
5764
6462
5367
2049
-2047
-4071
-748
4574
6303
748
-9846
-19873
-24837
-23651
-14254
2879
21211
6303
748
-9846
-19873
-24837
-23651
-14254
2879
21211
31695
29012
17832
9658
9181
11188
11220
10716
12902
16541
14579
5357
-1076
3359
15404
21854
14791
-532
-10881
-11503
-6218
-1217
31695
1855
29012
3784
17832
5527
9658
4821
9181
1713
11188
11220
10716
12902
16541
14579
5357
-1076
3359
15404
21854
14791
-532
-10881
-11503
-6218
-1217
1855
3784
5527
4821
1713
-1594
-1594
-2295
-2295
-1497
-1497
76
76
504
504
635
635
462
462
288
288
-400
-400
241
7
7
414
414
636
636
317
317
-602
-602
-687
-687
7
7
455
455
308
308
-889
-889
-615
-615
1576
1545
1576
-487
1545
-487
-2523
-1680
2077
-2523
-1680
2077
3578
3578
-132
-132
-5464
-5464
-5824
-5824
-265
-265
4716
4716
3394
3394
-4436
-4436
-9164
-9164
-6890
-1030
790
-2923
-8464
-7980
-3009
450
-1929
-6423
-8438
-3846
986
758
-4200
-7995
-6009
-1381
-6890
-1030
790
-2923
-8464
-7980
-3009
450
-1929
-6423
-8438
-3846
986
758
-4200
-7995
-6009
-1381
2805
2424
800
137
730
1744
1534
349
-562
2424
800
-1841
137
-1185
730
1419
1744
4838
1534
5473
349
1958
-562
-3009
-5344
-2306
-1841
-1185
3941
1419
11475
4838
16547
5473
15323
1958
5473
-3009
-9473
-5344
-22605
-2306
-25486
-17406
3941
11475
16547
15323
5473
-9473
-22605
-25486
-17406
-5148
-5148
3227
5497
3102
195
3227
-2173
-3945
5497
-3319
3102
195
-2173
-3945
385
-3319
385
7329
13237
15741
13237
13481
15741
10111
13481
7769
10111
7325
7171
6900
7769
7325
7171
6900
8247
13014
21576
28131
28054
21989
16459
16780
21797
8247
13014
21576
28131
21419
10054
-7195
-17102
-12184
1449
8298
2408
-9273
28054
21989
16459
16780
21797
21419
10054
-7195
-17102
-12184
1449
8298
2408
-9273
-14737
-10150
-855
5864
8373
8398
5283
-1170
-8857
-14737
-10150
-855
5864
8373
8398
5283
-1170
-8857
-8414
3679
20571
28456
20637
2006
-13526
-18074
-14200
3679
20571
28456
20637
2006
-13526
-18074
-14200
-9564
-9150
-11977
-16315
-18423
-16440
-10479
-1877
6209
-9564
8514
-9150
4811
-11977
1150
-16315
5513
-18423
18861
-16440
31607
-10479
-32762
-1877
23085
6209
12405
9718
8514
4811
13980
1150
17190
14892
5513
18861
10450
31607
9832
-32762
10793
23085
10297
12405
7310
9718
13980
17190
14892
10450
9832
10793
10297
7310
7053
9417
13362
16456
18314
18586
15577
9704
5796
7053
9417
13362
16456
18314
18586
15577
9704
5796
8264
8264
14424
15474
6859
14424
15474
-5659
6859
-11907
-5659
-8330
-11907
-278
-8330
4106
2692
-278
4106
-1716
-4566
-3687
2250
11743
20058
20977
13968
2692
-1716
-4566
-3687
2250
11743
20058
20977
13968
4421
-1234
-1759
679
3584
6823
8167
6388
587
-6565
-12159
-13745
-14013
-15739
-19083
-22068
-23266
-23434
4421
-1234
-1759
679
3584
6823
8167
6388
587
-6565
-12159
-13745
-14013
-15739
-19083
-22068
-23266
-23434
-24386
-26740
-26740
-29064
-29064
-29263
-29263
-26888
-26888
-23300
-23300
-20306
-20306
-19239
-19239
-20160
-20160
-22536
-25658
-22536
-25658
-28305
-29336
-28305
-29336
-28414
-28414
-26171
-26171
-23781
-23781
-22271
-22126
-22271
-22126
-23088
-23088
-24713
-24713
-26154
-26868
-26154
-26746
-26868
-26746
-26021
-25029
-26021
-24121
-25029
-23652
-24121
-23652
-23851
-24639
-25288
-25210
-24786
-24702
-25029
-24878
-23724
-22614
-23851
-23174
-24639
-24932
-25288
-25379
-24786
-24702
-25029
-24878
-22932
-23724
-19472
-18503
-20273
-22470
-22614
-23174
-24932
-25379
-22932
-19472
-18503
-20273
-22470
-20288
-20288
-14151
-8344
-6364
-6047
-3446
4612
13649
16326
-14151
-8344
-6364
-6047
-3446
4612
13649
16326
9205
9205
-2738
-9604
-5585
4536
11754
10782
3563
-2542
-4912
-4109
-1663
1880
5028
5118
4130
-2738
5751
-9604
13144
-5585
4536
11754
10782
3563
-2542
-4912
-4109
-1663
1880
5028
5118
4130
5751
13144
22458
22458
26344
26344
22565
22565
18608
18608
19125
19125
20932
20932
15974
15974
3233
3233
-10034
-10034
-13068
-8907
-5292
-5992
-6606
-3478
3930
7578
5043
-13068
-8907
-5292
-5992
-6606
-3478
3930
7578
5043
80
-2209
-1294
153
80
-2209
-1294
153
653
448
1022
791
-460
653
448
1022
791
-460
-2681
-2743
-2743
198
2121
1039
-452
786
3527
1739
198
-6466
-16027
-18312
-10629
-1291
2563
340
-2595
-2340
2121
1039
-452
786
3527
1739
-6466
-16027
-18312
-10629
-1291
2563
340
-2595
-2340
964
3384
964
4337
3384
3608
4337
3608
1348
1348
-1113
-1113
-1005
-1005
-372
-3204
-372
-3204
-12422
-12422
-22502
-22502
-22585
-22585
-8710
-8710
9622
9622
16975
16975
9740
9740
-3541
-3541
-9953
-9953
-5266
-5266
4476
11556
11526
5459
-4650
-16279
-23401
-23482
4476
11556
11526
5459
-4650
-16279
-23401
-23482
-16029
-6201
-16029
953
-6201
2296
953
-2357
2296
-10554
-2357
-10554
-18602
-18602
-23356
-23356
-23560
-23560
-20120
-20120
-15319
-11550
-10285
-11697
-14894
-18492
-21209
-22321
-15319
-11550
-10285
-11697
-14894
-18492
-21209
-22321
-21833
-20367
-18803
-17848
-17734
-18209
-18769
-18979
-18673
-20367
-17947
-18803
-17848
-17021
-17734
-18209
-16111
-18769
-15342
-18979
-14725
-18673
-14192
-17947
-17021
-16111
-13668
-15342
-13130
-14725
-12616
-14192
-13668
-13130
-12616
-12172
-12172
-11781
-11781
-11374
-11374
-10898
-10898
-10367
-10367
-9844
-9844
-9368
-9368
-8927
-8927
-8496
-8496
-8095
-7789
-7627
-7592
-7611
-7610
-7548
-7405
-7155
-8095
-7789
-7627
-6774
-7592
-6280
-7611
-5733
-7610
-5189
-7548
-4663
-7405
-4139
-7155
-3613
-3108
-2648
-6774
-6280
-5733
-5189
-4663
-4139
-3613
-3108
-2648
-2232
-1846
-1480
-1121
-743
-326
104
490
784
-2232
-1846
-1480
-1121
-743
-326
104
490
784
994
1155
1270
1270
1325
1325
1345
1416
1637
2036
2583
1345
1416
1637
2036
2583
3279
4523
5229
3279
5621
4523
6413
5229
8233
5621
9989
6413
11667
8233
9989
12477
11667
12477
14093
14093
17225
17225
20397
21468
20333
21964
27402
20397
32363
29174
21468
20333
21964
27402
32363
29174
15842
-972
-972
-10722
-10722
-12110
-12110
-10511
-10511
-10514
-10514
-9597
-9597
-3245
-3245
5807
5807
10831
6220
-3605
-10104
-8934
-3537
2210
4639
3664
10831
80
-3896
-7004
-6569
-5820
-6979
6220
-8958
-3605
-6695
-10104
-116
-8934
-3537
2210
4639
3664
80
-3896
-7004
-6569
-5820
-6979
-8958
-6695
-116
7159
9623
4708
-2391
-7343
-7526
-5014
-274
4984
7159
9623
4708
-2391
-7343
-7526
-5014
-274
4984
7820
5800
1095
7820
-2713
5800
-2733
1095
-2456
-2713
-6413
-2733
-13167
-2456
-16026
-6413
-13167
-16026
-9888
-485
3394
-1767
-8337
-5748
8658
23586
27783
-9888
-485
3394
-1767
-8337
-5748
8658
23586
27783
18709
18709
5122
5122
-2222
-2222
1437
1437
10269
10269
17289
17289
18039
18039
13315
13315
7618
7618
4318
4318
5854
5854
10557
10557
16176
16176
17009
17009
12969
12969
7047
7047
6032
6032
12431
12431
21455
21455
24585
20534
14390
13603
17738
19051
10844
-2592
-12943
-14038
-8326
-1696
2059
4752
6503
6751
24585
4477
20534
14390
13603
17738
19051
10844
-2592
-12943
-14038
-8326
-1696
2059
4752
6503
6751
4477
755
-2603
-3134
-2395
-1281
-319
811
1254
1970
755
-2603
-3134
-2395
-1281
-319
811
1254
1970
1333
647
-89
-509
-1326
-649
-540
12
549
1333
647
-89
1022
-509
469
-1326
775
-649
86
-540
-261
12
-401
549
-182
-536
287
1022
469
775
86
-261
-401
-182
-536
287
205
329
379
486
-194
239
205
-151
329
379
-156
486
-43
-194
239
-151
-156
-43
260
-180
442
137
101
101
264
-291
277
260
-180
442
137
101
101
264
-291
277
-16
9
9
88
320
-200
367
44
25
64
88
320
-200
367
44
25
64
271
271
-252
329
30
35
91
-252
303
329
-225
342
30
35
91
303
-225
27
342
20
70
285
-236
27
20
342
70
35
285
34
-236
84
342
35
34
84
294
-233
337
26
23
75
290
-233
342
294
-233
337
26
32
23
75
290
-233
342
32
28
78
290
-235
338
28
29
27
79
78
290
-235
338
29
27
79
291
-234
339
29
26
77
290
-234
291
341
-234
339
29
26
77
290
-234
341
32
29
81
293
-233
339
28
25
32
77
29
81
293
-233
339
28
25
77
291
-233
341
291
31
-233
28
341
112
31
151
28
-135
112
131
151
-135
131
622
680
430
-371
-1080
-486
-18
778
149
-257
-567
791
234
-812
-853
4358
622
680
430
-371
-1080
-486
-18
778
149
-257
-567
791
234
-812
-853
4358
12240
14867
12240
14867
4028
4028
-14735
-26516
-14735
-20451
-26516
-2522
-20451
11083
-2522
9006
11083
-1802
9006
-8088
-1802
-8088
-4411
3260
8601
9484
8015
1916
-11018
-24845
-27528
3260
8601
9484
8015
1916
-11018
-24845
-27528
-13044
8809
22451
18377
2904
-10894
-14969
-9716
-592
-13044
8809
22451
18377
2904
-10894
-14969
-9716
-592
9444
14891
14742
9091
3079
9444
-699
1336
6907
14968
14891
14742
9091
3079
23307
-699
28532
1336
28130
6907
23065
14968
20273
22803
27497
26394
23307
16052
28532
28130
23065
20273
22803
27497
26394
16052
1452
1452
-7767
-10096
-10001
-11473
-10955
-4837
5613
11490
-7767
-10096
-10001
-11473
-10955
-4837
5613
11490
7151
-3356
-3356
-10487
-10487
-9155
-9155
-1995
-1995
3092
3092
3967
3967
2204
2204
-27
-27
-2935
-2935
-7583
-10077
-8102
-7583
-784
6164
-10077
7280
-8102
941
-784
-5585
6164
7280
941
-5585
-4923
4286
13302
12939
3300
-10956
-20769
-21931
-16654
-4923
4286
13302
12939
3300
-10956
-20769
-21931
-7979
-16654
-7979
854
3545
-3276
-17419
-28863
-26579
-11039
4484
854
3545
-3276
-17419
-28863
-26579
-11039
4484
7866
273
273
-6559
-6559
-4945
-4945
2366
2366
3294
3294
-3588
-3588
-10149
-10149
-6574
-6574
5129
14369
14369
11528
11528
-780
-780
-9663
-7619
2455
11990
11986
-9663
-7619
2455
11990
11986
2669
-8214
-8214
-13464
-13464
-10090
-10090
-2769
-2769
3111
3111
4979
4979
4066
4066
1357
1357
-944
-2458
-1659
1595
4654
3702
-425
-2813
-762
1365
-2458
-1659
1595
4654
3702
-425
-2813
-762
-3079
1365
-12254
-3079
-15345
-12254
-4516
-15345
13376
-4516
22324
13376
15024
22324
1711
15024
1711
-848
-848
11637
23309
20571
11637
23309
20571
3070
-13939
-13939
-17746
-17746
-8979
-8979
-165
-165
574
-4404
-4404
-9380
-9380
-9457
-9457
-5390
-5390
269
269
2952
2952
707
707
-5003
-5003
-11433
-13601
-9037
-1028
4457
3212
-4508
-12583
-15566
-11433
-13601
-9037
-1028
4457
3212
-4508
-12583
-15566
-10248
-936
5045
3382
-4131
-11038
-10248
-13578
-936
-10000
5045
-2696
3382
-4131
-11038
4712
-13578
-10000
8352
-2696
4531
-6441
-20954
-30096
4712
-27651
8352
-13764
4531
4876
-6441
-20954
-30096
-27651
-13764
4876
18601
21697
13414
1537
-4718
-348
11378
20849
21161
18601
21697
13414
1537
-4718
-348
11378
20849
21161
12497
4058
3189
10186
12497
4058
3189
10186
18917
22792
18917
19239
22792
11027
3568
19239
11027
3568
2142
2142
8195
17922
8195
23687
17922
19935
23687
19935
8275
8275
-3033
-3033
-6048
-6048
-111
-111
8893
14570
14834
11188
8893
4953
14570
-3477
-12084
14834
-16741
11188
4953
-14760
-3477
-12084
-16741
-14760
-8693
-4682
-6923
-8693
-13078
-4682
-17179
-6923
-16051
-13078
-12175
-17179
-10557
-16051
-13987
-12175
-10557
-13987
-20754
-27198
-30703
-30607
-27751
-23651
-20102
-18700
-20231
-20754
-27198
-30703
-30607
-27751
-23651
-20102
-18700
-20231
-23771
-27322
-29130
-28628
-26489
-23992
-22319
-21944
-22919
-23771
-27322
-29130
-28628
-26489
-23992
-22319
-21944
-22919
-24518
-25984
-24518
-25984
-26684
-26778
-26684
-25789
-25789
-24777
-24777
-24090
-24090
-23967
-23967
-24268
-24268
-24627
-24627
-24711
-24712
-24571
-24184
-23483
-22617
-21874
-21749
-22080
-22527
-24711
-24712
-22876
-24571
-23169
-24184
-23472
-23483
-24014
-22617
-24570
-21874
-24984
-21749
-25245
-22080
-22527
-22876
-23169
-23472
-24014
-24570
-24984
-25245
-25385
-25313
-25213
-25213
-25035
-25035
-24857
-24857
-24771
-24771
-24781
-24781
-24785
-24785
-24720
-24720
-24654
-24742
-24742
-25025
-25025
-25267
-25267
-25155
-25155
-24772
-24772
-24281
-24281
-24112
-24112
-24251
-24251
-24403
-24403
-24424
-24490
-24344
-23300
-20894
-18240
-17587
-20230
-24424
-24490
-24344
-23300
-20894
-18240
-17587
-20230
-24593
-26761
-23421
-14344
-3228
4205
3510
-5257
-16556
-24593
-22005
-16673
-23421
-3520
-14344
8399
-3228
11163
4205
4016
3510
-6912
-5257
-14818
-16801
-16556
-22005
-16673
-3520
8399
11163
4016
-6912
-14818
-16801
-13988
-13988
-8137
-870
5631
8205
5032
-2349
-9586
-12684
-8137
-870
5631
8205
5032
-2349
-10582
-5141
1018
-9586
5616
-12684
7310
5658
1525
-3095
-5958
-10582
-5141
1018
5616
7310
5658
1525
-3095
-5958
-6158
-6158
-4010
-4010
-1000
-1000
1600
1600
2921
2921
3006
3006
2095
2095
878
878
-88
-88
-166
681
1992
3278
4405
5158
5267
4493
3307
-166
681
1992
3278
4405
5158
5267
4493
3307
2389
2389
1669
1669
317
317
-1920
-1920
-4185
-4185
-5362
-5362
-6051
-6051
-7979
-7979
-11936
-11936
-15691
-16371
-13823
-11405
-12147
-15492
-18061
-18379
-16371
-18300
-13823
-11405
-12147
-15492
-20236
-18061
-23481
-18379
-18300
-24419
-20078
-11813
-4236
-2143
-7371
-17822
-20236
-23481
-24419
-20078
-11813
-4236
-2143
-7371
-17822
-27684
-30018
-21185
-4316
10917
15227
6953
-6448
-14802
-27684
-30018
-21185
-4316
10917
15227
6953
-6448
-14802
-13530
-6184
1021
5481
8967
12647
13604
8222
-1596
-7572
-2832
10388
21931
23216
15048
5668
1762
2992
-13530
-6184
1021
5481
8967
12647
13604
8222
-1596
-7572
-2832
10388
21931
23216
15048
5668
1762
2992
4633
4005
3305
6055
12513
19421
4633
22708
20269
12706
4005
3305
6055
12513
19421
22708
2578
20269
12706
-6635
-11703
-10858
-5013
2853
9078
11280
9117
2578
-6635
-11703
-10858
-5013
2853
9078
11280
9117
4021
-1663
-1663
-6135
-6135
-6842
-6842
-4787
-4787
-1429
-1429
1228
1228
2290
2290
1289
1289
-547
-4333
-9209
-13105
-14603
-15319
-19238
-25416
-29782
-547
-15816
-4333
-3330
-9209
5591
-13105
9738
-14603
12413
-15319
12785
-19238
8758
-25416
871
-29782
-26513
-15816
-3330
5591
9738
12413
12785
8758
871
-5350
-5350
-5358
350
-5358
3600
350
3600
-189
-189
-7339
-7339
-9953
-9953
-5594
-806
-5594
-806
-1405
-8172
-13889
-11315
-1781
8945
13299
10352
1708
-1405
-8172
-13889
-11315
-1781
8945
13299
10352
1708
-6619
-10959
-6619
-8198
-890
-10959
4138
-8198
1516
-890
-7687
4138
-14418
1516
-12130
-7687
-14418
-12130
-1093
9134
9883
1422
-8659
-11548
-6224
3956
12340
-1093
9134
9883
1422
-8659
-11548
-6224
3956
12340
13453
13453
5430
5430
-8041
-8041
-21665
-21665
-28927
-28927
-28527
-28527
-23786
-23786
-18645
-18645
-14592
-14592
-10197
-6778
-10197
-6778
-5791
-9625
-17274
-23974
-25220
-19615
-12120
-5791
-9625
-17274
-23974
-25220
-19615
-12120
-7475
-7475
-9520
-9520
-17601
-17601
-26620
-30435
-26620
-26129
-30435
-16600
-26129
-8241
-16600
-6381
-8241
-6381
-11610
-19390
-23740
-21051
-12629
-3464
487
-3224
-11339
-11610
-19390
-23740
-21051
-12629
-3464
487
-3224
-11339
-16650
-13961
-4818
3766
5215
-16650
-1067
-13961
-9999
-4818
-15877
3766
-16148
5215
-1067
-9999
-15877
-16148
-11868
-4731
1996
6754
8669
7615
3066
-2522
-5858
-11868
-4731
1996
6754
8669
7615
3066
-2522
-5858
-1635
10461
23075
25430
16237
3912
718
8528
17346
16007
-1635
3508
10461
-9412
23075
-14697
25430
-12115
16237
-7006
3912
-2540
718
8528
1886
17346
8125
12139
16007
9810
2035
-9412
-4783
-14697
-5696
-12115
-3307
-7006
-2562
-2540
1886
-7265
8125
-12990
12139
9810
2035
-13222
-5490
4593
12048
11559
4557
-4089
-7976
-6101
-4783
-5696
-3307
-2562
-7265
-12990
-13222
-5490
4593
12048
11559
4557
-4089
-7976
-6101
-1427
-1427
990
990
-2754
-2754
-9623
-9623
-12453
-12453
-8567
-8567
-45
7891
9662
-45
7891
9662
5401
-1296
5401
-4700
-4045
-1296
-238
929
-4700
-4045
-3993
-12129
-238
-15011
929
-3993
-12129
-15011
-8762
2147
-8762
9824
2147
9008
9824
4210
9008
162
4210
-2093
162
-4470
-2093
-5564
-4470
-5564
-3323
-3323
2586
5865
4109
-2249
-5192
-1831
3307
3911
2586
-1184
5865
-4291
4109
-2555
-2249
2540
4232
230
-5192
-5188
-1831
-4150
3307
1073
3911
-1184
-4291
-2555
2540
4232
230
-5188
-4150
1073
4996
4996
2814
-2565
-5041
-702
3946
3371
-2052
2814
-2565
-5041
-702
3946
3371
-2052
-6212
-6212
-4829
460
4098
2689
-160
-1088
213
1267
1005
-4829
460
4098
2689
-160
-1088
213
1267
1005
-47
-47
331
171
-466
-1515
331
171
-931
-466
622
-1515
-931
372
622
-198
-198
-406
1804
1804
3671
2879
3671
2879
-1538
-1538
-6959
-6959
-9310
-9310
-5523
-5523
2586
2586
12073
12073
17491
17491
14443
14443
2467
2467
-12832
-12832
-25365
-25365
-29812
-29812
-26190
-26190
-16732
-16732
-4170
-4170
8235
13266
6989
-8113
-21914
-24595
-15729
-2784
5066
8235
7363
7839
8831
8471
3865
-4608
-12645
-15683
13266
6989
-8113
-21914
-24595
-15729
-2784
5066
7363
7839
8831
8471
3865
-4608
-12645
-15683
-11964
-2853
-2853
8534
8534
18643
18643
24775
24775
23868
23868
17730
17730
9749
9749
4276
4276
3499
7175
14612
7175
22463
14612
28798
22463
31038
28798
29153
31038
25802
29153
25802
24414
24414
26470
28071
26470
25871
28071
17267
25871
5343
17267
-6319
5343
-14291
-6319
-15923
-9845
-14291
-15923
-9845
1453
10511
1453
9832
10511
-160
-9888
9832
-9997
-160
-1702
-9888
4920
-9997
3506
-1702
4920
3506
-817
1011
-817
8582
1011
10785
8582
-124
10785
-18013
-124
-25965
-18013
-16452
-25965
3284
-16452
3284
19070
19070
23750
23750
21401
21401
17818
17818
15882
15882
12715
12715
7782
7782
3424
3424
1636
1636
2345
3668
3668
6396
6396
9873
9873
14353
14353
17435
17435
17885
17885
15702
15702
12081
12081
8718
8718
6936
6936
7159
7159
8931
8931
11282
11282
13118
13118
13559
13559
12256
12256
9603
9603
6600
4286
4286
3143
3143
2936
3088
3121
2748
1769
40
-10212
-9281
-10212
-8061
-9281
-6553
-8061
-4901
-6553
-3310
-1856
-4901
-454
-3310
991
-1856
-454
991
2462
3877
4811
6612
8303
9447
9537
9005
7935
2462
3877
4811
6612
8303
9447
9537
7119
9005
4385
7935
-320
-5165
-8381
7119
-11111
-17041
4385
-24975
-320
-30490
-5165
-8381
-11111
-17041
-24975
-30490
-27449
-27449
-16127
-16127
-2698
-2698
6852
6852
11050
11050
13374
13340
9024
947
-5416
13374
-5503
13340
9024
947
-5416
-5503
221
3528
-4
-6958
-9612
-5501
-468
221
3528
-4
-6958
-9612
-5501
-468
-1677
-8947
-14885
-11809
-1617
9148
13606
10292
2034
-5944
-10212
-6862
2580
9905
5891
-10596
-27484
-31286
-17705
2130
13253
10501
2596
-1104
-1677
-502
-504
-8947
-14885
-3967
-11809
-1617
9148
13606
10292
2034
-5944
-10212
-6862
2580
9905
5891
-10596
-27484
-31286
-17705
2130
13253
10501
2596
-1104
-502
-504
-3967
-6925
-6925
-1565
-1565
12527
12527
26844
26844
-32531
-32531
28355
28355
17475
17475
8808
8808
4751
4751
3992
3992
3621
3621
3036
2611
3372
3036
2624
-733
-5343
-7393
2611
3372
2624
-733
-5343
-7393
-5117
894
5093
894
4424
5093
-594
4424
-5843
-594
-7985
-5843
-4799
-7985
940
-4799
940
6350
9019
7647
2732
-2261
-7034
-8061
-5356
-500
9019
7647
2732
-2261
-7034
-8061
-5356
-500
3499
3499
6023
6023
4636
4636
2275
2275
-299
-299
-2441
-2441
-4169
-4169
-3799
-3799
-1034
-1034
2492
4427
2800
-850
-2841
-2899
-3139
-4008
-4810
2492
4427
2800
-850
-2841
-2899
-3139
-4008
-4810
-3108
-363
-1762
-6109
-6813
1402
13052
16272
4425
-3108
-363
-1762
-6109
-6813
1402
13052
16272
4425
-12300
-19099
-19099
-12021
-12021
-1076
-1076
3344
3344
1789
1789
4232
4232
11356
11356
13739
13739
3714
-11458
-16323
-2518
19069
31755
28807
17587
9319
3714
-11458
-16323
-2518
19069
31755
28807
17587
6814
9319
7271
6060
4573
6157
11655
17473
20940
19149
6814
7271
6060
4573
6157
11655
17473
20940
19149
13453
5957
886
2171
10101
19990
24370
18884
6577
13453
5957
886
2171
10101
19990
24370
18884
6577
-3916
-5442
1944
11721
17414
17014
12584
6336
-263
-3916
-5442
1944
11721
17414
17014
12584
6336
-263
-5571
-5571
-6999
-3061
4651
11894
14784
12328
6470
7
-6999
-3061
4651
11894
14784
12328
6470
7
-4620
-4620
-6109
-6109
-4274
-4274
-196
-196
4198
4198
6920
6920
7215
7215
5302
5302
2516
2516
129
-860
-478
896
2492
3899
4678
4816
4325
129
-860
-478
896
2492
3899
4678
4816
4325
3697
3285
3490
4125
3285
3490
4125
4977
5588
5926
5910
5747
4977
5588
5926
5376
4960
4469
5910
4113
3792
3547
5747
3177
2784
2289
5376
4960
4469
4113
3792
3547
3177
2784
2289
1818
1215
585
-114
-676
-1220
-1715
-2280
-2942
1818
1215
585
-114
-676
-1220
-1715
-2280
-2942
-3516
-3516
-3707
-3712
-3949
-4718
-5541
-5854
-5712
-6064
-3707
-3712
-3949
-4718
-5541
-5854
-5712
-6064
-7346
-8839
-9398
-9412
-10477
-13256
-15592
-14600
-10142
-7346
-8839
-9398
-9412
-10477
-13256
-15592
-14600
-10142
-5903
-5475
-8408
-10392
-8287
-3601
-812
-4434
-12306
-5903
-5475
-8408
-18717
-10392
-19286
-8287
-14660
-3601
-6754
-812
1530
-4434
9529
-12306
15263
15408
8894
-18717
-19286
-14660
-6754
1530
9529
15263
15408
8894
2455
2455
2709
2709
10916
19365
19365
19865
19865
12667
12667
7602
7602
9645
9645
14466
14466
13849
4768
-4757
-7397
-3329
1207
1962
171
-1189
-1406
-1187
-147
2362
4768
4270
13849
1247
-991
4768
1406
-4757
-7397
-3329
1207
1962
171
-1189
-1406
-1187
-147
2362
4768
4270
1247
-991
1406
5182
5182
4250
4250
-3351
-3351
-11338
-11338
-13132
-13132
-6286
-6286
3312
3312
8831
8831
8782
8782
7659
7826
9402
9256
5880
486
-3687
-5829
-4645
7659
7826
9402
9256
5880
486
-3687
-5829
-4645
-53
6054
12910
16246
15203
11285
7179
4080
3541
-53
6054
12910
16246
15203
11285
7179
4080
3541
5136
9756
16601
22592
24566
22392
21925
25420
29447
5136
9756
16601
22592
26484
24566
14167
22392
21925
-1360
25420
-9963
29447
-10648
-8971
-9493
-9400
26484
-3769
14167
-1360
-9963
-10648
-8971
-9493
-9400
-3769
5355
9298
9298
4781
4781
-4356
-4356
-9622
-9622
-7926
-7926
-2637
-2637
1613
1613
4562
4562
4580
737
-5250
-8857
-6819
4580
-2431
737
-4571
-5250
-14383
-8857
-21833
-6819
-2431
-4571
-14383
-21833
-17642
-17642
-1927
12497
16080
8565
-1927
-1706
12497
-7441
16080
-8675
8565
-6508
-1706
-7441
-8675
-6508
-843
5255
7862
5334
-303
-3669
-2778
-3040
-7594
-843
5255
7862
5334
-303
-3669
-2778
-3040
-7594
-13445
-13746
-13445
-13746
-5732
5417
11633
9874
3275
-3031
-5542
-5732
5417
11633
9874
3275
-3031
-5542
-5156
-3433
-301
2899
4238
3303
392
-2531
-2989
-5156
-3433
-301
2899
4238
3303
392
-2531
-2989
-1737
-250
-5
342
1348
2200
1881
-297
-2917
-1737
-250
-5
342
1348
2200
1881
-297
-2917
-3842
-4558
-3842
-4843
-4558
-5399
-4843
-2950
2204
-5399
6091
-2950
3073
2204
-7159
6091
3073
-7159
-16872
-16672
-4913
9485
-16872
14073
-16672
4401
-4913
-11260
9485
-19374
14073
-13169
4401
-11260
-19374
-13169
1353
12835
14643
8974
3252
1608
2650
1916
1114
1353
12835
14643
8974
3252
1608
2650
1916
1114
-326
-1972
-326
-4665
-7083
-1972
-4665
-6262
-7083
-553
-6262
5928
-553
6254
5928
-529
6254
-529
-7742
-8841
-8841
-2766
1694
-2766
218
1694
-5905
218
-9283
-5905
-5821
-9283
887
-5821
887
5069
5069
3901
-61
-2821
-1843
367
2131
2223
1304
586
824
-406
3901
-2594
-61
-3601
-2821
-1143
-1843
3498
367
4266
2131
196
2223
1304
586
824
-406
-2594
-3601
-1143
3498
4266
196
-6071
-6071
-4786
-4786
7132
7132
22644
22644
28938
21502
28938
4926
21502
-8257
4926
-10756
-8257
-10756
-1789
10121
16650
11065
-3076
-16315
-17440
-4814
11856
-1789
10121
16650
11065
-3076
-16315
-17440
-4814
11856
17893
11335
3279
4927
13390
17285
9090
-2949
-6475
17893
11335
3279
4927
13390
17285
9090
-2949
-6475
226
7196
7238
4910
8276
16134
226
7196
7238
4910
8276
16134
18927
12056
4318
18927
12056
4318
4468
11707
14671
4468
7735
11707
14671
7735
-1272
-270
10386
18384
12603
-1272
-270
10386
18384
12603
-4421
-21747
-21747
-28048
-28048
-21884
-21884
-9119
-9119
2742
10896
14202
12432
2742
10896
14202
12432
5524
5524
-1293
-3214
2903
12709
18826
16782
12727
15901
24339
-1293
27300
-3214
16854
2903
-326
12709
-8799
18826
540
16782
16541
12727
22159
15901
12045
24339
27300
16854
-326
-8799
540
16541
22159
12045
-2802
-9063
-6459
-3420
-2802
-7086
-9063
-12946
-6459
-12944
-3420
-7086
-4715
6610
-12946
-12944
-4715
6610
12380
10644
3466
-2661
-4598
-3078
-1178
-2044
-5617
12380
10644
3466
-2661
-4598
-3078
-1178
-2044
-5617
-9932
-9932
-11999
-11999
-10808
-10808
-3659
-3659
8516
8516
19033
19033
19101
19101
7158
7158
-5698
-5698
-7902
2093
10771
5195
-12102
-25740
-25128
-14740
-6578
-6082
-8647
-7902
-9998
-10374
-16800
2093
-27493
10771
30615
5195
-12102
-25740
-32614
-25128
-22660
-6578
-6082
-8647
-9998
-10374
-16800
-27493
30615
-32614
-22660
-14975
-14975
-12896
-12896
-15492
-14684
-15492
-8039
-14684
1569
-8039
7982
1569
9027
7982
3957
9027
3957
-4588
-12663
-14973
-12663
-9188
-14973
2255
-9188
9553
2255
6471
9553
-4239
6471
-12925
-4239
-12925
-13290
-5872
1572
4713
4324
2976
1799
362
-1280
-13290
-5872
1572
4713
4324
2976
1799
362
-1280
-1821
-1026
109
475
-81
-788
-693
-92
-1821
816
-1026
109
475
-81
-788
-693
-92
816
753
1316
753
541
1316
541
-141
-658
-141
-652
-658
-965
-652
101
-965
341
101
341
687
687
963
963
1066
1066
476
-307
476
-1690
-307
-1749
-1690
-625
-1749
555
-625
555
462
273
383
1562
1707
31
-1076
2628
8878
462
273
383
1562
1707
31
-1076
2628
8878
11686
4280
11686
4280
-11853
-11853
-27008
-27008
-30074
-19922
-2598
12110
-30074
19231
-19922
-2598
12110
19231
19650
18368
17463
19650
18368
17463
18260
18260
19051
17785
13774
10150
9547
14665
22532
26502
19051
17785
21931
13774
10578
10150
156
-2277
9547
3307
12464
14665
22532
26502
21931
10578
156
-2277
3307
12464
17236
14445
14445
5544
5544
-5609
-5609
-12811
-12811
-14250
-14250
-11131
-11131
-8053
-8053
-8669
-8669
-12503
-12503
-16334
-16334
-17846
-17846
-17897
-17897
-18058
-18058
-16949
-16949
-10749
-10749
1923
16339
1923
16339
24143
20930
20930
10414
10414
1091
1091
-2159
-2159
-2213
-2213
-5066
-5066
-12604
-12604
-21137
-21137
-26610
-29310
-31254
-26610
-31126
-29310
-25455
-31254
-15634
-31126
-9589
-25455
-13971
-15634
-24264
-9589
-13971
-24264
-30791
-27316
-19963
-18223
-21992
-24923
-21744
-17381
-19000
-30791
-25701
-27316
-28996
-19963
-23053
-18223
-11917
-21992
-5231
-24923
-8377
-21744
-17814
-17381
-24973
-19000
-23534
-25701
-28996
-23053
-11917
-5231
-8377
-17814
-24973
-23534
-13357
195
195
9714
9714
9979
9979
937
937
-11911
-11911
-20661
-20661
-19698
-19698
-8653
-8653
7777
7777
22662
30061
27452
16705
2958
-7754
-11606
-8351
22662
30061
27452
16705
2958
-7754
-11606
-8351
-755
7183
12133
12646
9343
4268
-206
-2454
-2169
-755
7183
12133
12646
9343
4268
-206
-2454
-2169
-256
1834
1834
2892
2892
1986
1986
870
870
-980
-3387
-980
-6222
-3387
-6222
-8493
-8493
-9543
-9543
-10748
-12394
-10748
-15495
-12394
-18270
-15495
-19568
-18270
-20758
-19568
-24289
-20758
-30491
-24289
-30491
32066
-28824
-16239
-2018
6792
7660
2489
-3315
32066
-7540
-28824
-16239
-2018
6792
7660
2489
-3315
-7540
-8436
-4965
2537
-8436
-4965
2537
9998
12913
9998
6796
-5473
12913
-15927
-17049
6796
-5473
-15927
-17049
-9230
-9230
1067
1067
4141
-2057
-10050
-12164
4141
-5000
-2057
4932
-10050
-12164
10927
-5000
4932
10927
9301
9301
3352
-3002
3352
-6922
-3002
-5572
-6922
-115
-5572
4174
-115
2786
4174
-2530
2786
-2530
-2801
5827
17669
-2801
19914
5827
8513
17669
-6122
19914
-11000
8513
-4039
-6122
3641
-11000
-4039
3641
5391
4836
8888
15603
16033
3713
-13796
-24225
-21195
5391
4836
8888
15603
16033
3713
-13796
-24225
-21195
-8391
-8391
7306
7306
18803
18803
23093
23093
17679
17679
3363
3363
-13342
-13342
-23628
-23628
-21182
-21182
-8582
8499
21681
26879
22842
12279
286
-7935
-9619
-8582
8499
21681
26879
22842
12279
286
-7935
-9619
-5268
2158
8976
12461
11777
7939
-5268
2158
8976
12461
11777
7939
3043
3043
-720
-720
-1986
-1986
-325
2136
-325
4333
2136
6185
4333
8161
6185
9333
8161
9908
9333
9429
9908
10084
9429
10084
13054
16880
16880
18929
18929
18516
18516
20452
20452
26084
26084
31161
31161
28573
28573
15580
15580
-1350
-12563
-13920
-11305
-9550
-8602
-3935
-1350
-12563
-13920
-11305
4854
-9550
11270
-8602
-3935
4854
11270
8430
-2489
-12025
-11432
8430
-1398
-2489
7888
-12025
6243
-11432
-6666
-1398
-20582
7888
6243
-6666
-20582
-23686
-14454
-1326
4097
-217
-5924
-3151
8755
22388
-23686
-14454
-1326
4097
-217
-5924
-3151
8755
22388
27257
27257
19271
19271
6132
6132
-2266
-2266
1221
1221
11384
11384
18809
18809
17693
17693
11056
11056
9530
15292
15292
21095
17110
6216
-1137
21095
4538
17110
16722
6216
21947
-1137
4538
16722
21947
13735
13735
-1086
-11168
-13114
-11574
-12375
-12577
-8258
1164
8147
-1086
7768
692
-11168
-5345
-13114
-4368
-11574
1805
-12375
5849
-12577
3755
-8258
92
1164
413
7768
4876
692
7039
-5345
1206
-4368
-6706
1805
-7722
5849
1060
3755
9519
92
7930
413
4876
7039
1206
-6706
-7722
1060
9519
7930
-1056
-1056
-6670
-1527
9036
12065
4042
-5937
-8918
-4351
394
-2357
-10020
-15030
-12327
-5255
2334
4598
3296
-6670
-1527
9036
12065
4042
-5937
-8918
-4351
803
479
394
-2357
748
-10020
1930
-15030
1997
-12327
1184
-5255
-12
2334
-1514
4598
-2893
3296
803
479
748
1930
1997
1184
-12
-1514
-2893
-3310
-2176
240
2544
3688
2585
1428
-787
-2169
-3310
-2176
240
2544
3688
2585
1428
-787
-2169
-2281
-2281
-863
-863
1083
1083
4408
4408
6013
6013
6165
6165
5005
5005
3651
2276
3651
2276
2611
2093
1300
329
-225
-861
-113
-228
-228
2611
2093
1300
329
-225
-861
-113
-228
-228
-102
-102
253
253
381
162
381
162
-28
280
-28
963
1047
280
159
963
1047
159
-108
-75
438
-62
-1369
-1463
1681
4829
4474
-108
-75
438
-62
-1369
-1463
1681
4829
4474
-1147
-8151
-8151
-10638
-10638
-5323
-5323
4175
4175
13281
13281
17183
17183
15331
15331
8293
8293
-2410
-15896
-2410
-23850
-15896
-20317
-23850
-20317
-4758
-4758
12703
12703
19867
19867
12389
12389
1099
1099
715
11885
11885
22193
22193
19208
19208
6753
6753
-1743
-1743
4301
4301
15688
15688
17494
17494
6016
6016
-7132
-7132
-10139
-10139
-3132
-3132
1403
1403
-3559
-3559
-12702
-12702
-15185
-15185
-7829
-7829
3939
10671
9905
5105
654
-2689
3939
-4379
10671
-4490
9905
-2665
5105
654
-2689
-4379
428
-4490
2886
-2665
3395
1878
-249
428
-1538
2886
-1709
3395
-907
1878
-413
-249
-1538
-1709
-907
-413
949
981
742
327
37
-689
949
981
-79
742
-106
327
132
37
-689
-79
-106
132
355
510
-136
240
-135
-151
30
335
-52
317
510
225
-136
225
240
-129
-135
-559
-151
-499
797
1239
701
30
335
-52
317
225
225
-129
-559
-499
797
1239
701
-292
-292
-270
-270
-10
-10
896
896
-349
-349
-1371
-1371
-245
-245
2592
2592
2665
2665
-684
-684
-6718
-6718
-8047
-990
11096
18666
17034
5452
-7238
-8047
-990
11096
18666
17034
5452
-7238
-12931
-8810
-12931
295
-8810
9540
295
12601
9540
10467
12601
5783
10467
1260
5783
-2268
1260
-2268
-5053
-5053
-6014
-6014
-4861
-4861
-1090
-1090
1620
1620
1876
1876
1414
1414
2801
2801
4989
4989
4052
-753
-4705
-1976
3677
4705
-2160
-9441
-8033
4052
-753
-4705
-1976
3677
4705
-2160
-9441
-8033
1550
6866
2092
-5101
-1396
6866
2092
-5101
-1396
14930
31671
-32070
20060
14930
31671
2362
-9206
-32070
20060
-12967
-11113
-6322
2504
2362
13529
-9206
22031
-12967
24717
-11113
-6322
2504
13529
22031
24717
20531
13953
20531
13953
7905
5815
6104
9221
13259
7905
5815
18312
23696
6104
9221
13259
18312
23696
27202
26776
23047
21994
25539
29875
27312
15414
169
27202
26776
23047
21994
25539
29875
27312
15414
169
-8508
-8508
-9670
-9670
-8652
-9691
-8652
-9809
-9691
-4151
-9809
5088
-4151
9162
5088
4798
9162
4798
-4174
-9314
-7582
-2347
1788
-4174
4597
-9314
4478
-7582
-2347
535
1788
-5479
4597
4478
535
-5479
-9030
-6875
-2357
-9030
-4407
-14198
-6875
-21699
-2357
-17603
-4407
-1986
-14198
-21699
12375
-17603
-1986
12375
15950
8476
-1725
15950
-7394
8476
-8591
-1725
-6424
-7394
-791
-8591
5263
-6424
7830
-791
5263
7830
5282
-352
-3699
5282
-2782
-3020
-352
-7564
-13417
-3699
-13730
-2782
-5731
-3020
-7564
-13417
-13730
-5731
5406
5406
11617
11617
9858
9858
3231
3231
-2889
-2889
-5629
-5629
-5363
-5363
-3337
-3337
-105
-105
3032
3032
4432
3316
4432
3316
495
495
-2193
-2193
-3084
-3084
-2321
-2321
-445
-445
694
694
2171
1751
881
-140
-676
-1355
-397
-73
467
2171
1751
881
-140
-676
-1355
-397
-73
467
743
831
-36
183
-329
-326
-109
349
216
-65
743
-893
831
-7
-36
814
183
1042
-329
-674
-326
-651
-109
324
349
1753
216
-65
-893
-7
814
1042
-674
-651
324
1753
1075
1075
-872
-872
-934
-934
2018
2018
4133
4133
475
475
-7953
-7953
-13955
-13955
-11434
-11434
-1071
8270
10839
6797
1676
416
5189
12804
19826
-1071
8270
10839
6797
21729
1676
16373
416
5570
5189
-4234
12804
-8729
19826
-6647
-3036
-3966
-11680
21729
16373
5570
-4234
-8729
-6647
-3036
-3966
-11680
-22650
-30975
32471
-30605
-26256
-24134
-23564
-23890
-23466
-22650
-30975
32471
-30605
-26256
-24134
-23564
-23890
-23466
-22718
-22718
-22201
-22201
-21921
-21921
-22293
-22293
-22974
-22974
-25294
-25294
-27484
-27484
-28498
-28498
-27956
-27956
-26209
-24026
-24026
-22530
-22530
-22208
-22208
-23062
-23062
-24628
-24628
-26173
-26173
-26967
-26967
-26928
-26928
-26116
-24983
-24074
-23726
-23880
-24511
-25200
-25663
-25802
-26116
-24983
-24074
-23726
-23880
-24511
-25200
-25663
-25802
-25646
-25221
-24877
-24648
-24592
-24722
-24959
-25093
-25226
-25646
-25221
-24877
-24648
-24592
-24722
-24959
-25093
-25226
-25237
-25151
-25060
-25012
-24916
-24941
-24968
-24982
-25018
-25237
-25151
-25075
-25036
-25067
-25062
-25027
-25017
-25044
-24973
-24961
-25060
-25012
-24916
-24941
-24968
-24982
-25018
-25075
-25036
-25067
-25062
-25027
-25017
-25044
-24973
-24961
-24913
-24851
-24815
-24913
-24778
-24851
-24645
-24815
-24453
-24778
-24184
-24645
-24042
-24453
-24197
-24184
-24042
-24197
-24550
-24782
-24786
-24520
-24032
-22700
-21782
-20520
-19176
-24550
-24782
-24786
-24520
-24032
-22700
-21782
-20520
-17366
-19176
-14762
-10767
-4511
-17366
1221
3529
-14762
-740
-10767
-10118
-18098
-4511
1221
3529
-740
-10118
-18098
-17288
-5357
-5357
9711
18349
18349
14078
14078
-701
-701
-17298
-17298
-25939
-25939
-23195
-23195
-9855
6252
14994
9877
-5968
-20176
-22721
-11599
3415
6252
14994
9877
-5968
-20176
-22721
-11599
3415
10734
5827
-6603
-17289
-21340
-16759
-8434
723
4869
10734
5827
-6603
-17289
-21340
-16759
-8434
723
4869
2505
-2584
-3793
1638
6796
3408
-10070
-21799
-19093
2505
-2584
-3793
1638
6796
3408
-10070
-21799
-19093
-3707
9126
6859
-3798
-7995
101
8807
4004
-13142
-3707
9126
6859
-3798
-7995
101
8807
4004
-13142
-24154
-16568
-16568
4319
4319
21113
21113
22289
22289
11235
11235
-2336
-2336
-10656
-10656
-14052
-14052
-13553
-13553
-9336
-9336
-2813
-2813
2685
2685
3191
-113
-5273
3191
-8289
-8703
-113
-5273
-8289
-8703
-7005
-4687
-3380
-4042
-6585
-10450
-13110
-14719
-15489
-7005
-4687
-3380
-4042
-6585
-10450
-13110
-14719
-15489
-16198
-16866
-17718
-18023
-19849
-23117
-16866
-17718
-25855
-18023
-26187
-19849
-25314
-23117
-25855
-26187
-25314
-27331
-31728
30923
-29935
-17379
-2977
6682
11877
13857
-27331
-31728
30923
-29935
-17379
-2977
6682
11877
13857
13051
7884
-382
-6270
-6120
-851
2251
-168
-5065
13051
7884
-382
-6270
-6120
-851
2251
-168
-5065
-6825
-6825
-3675
-3675
175
175
1468
1468
-908
-908
-5142
-5142
-5308
-5308
-803
-803
8082
8082
13040
13040
8556
8556
-4765
-4765
-14303
-14303
-12151
-12151
1807
1807
14472
14472
14499
14499
3367
3367
-8244
-8244
-10834
-8424
-10834
-5191
-8424
-5191
-2527
-2527
2637
2637
9854
9854
12911
12911
5499
5499
-6783
-10897
-10897
-2904
-2904
8445
8445
9049
9049
-3423
-3423
-19588
-19588
-24341
-24341
-16678
-16678
-4786
3697
7568
9099
5774
-2942
-13425
-4786
-18713
-13194
3697
-2048
7568
6199
9099
5774
6579
-2942
1786
-13425
-3351
-18713
-4563
-13194
-2627
453
746
-2048
6199
6579
1786
-3351
-4563
-2627
453
746
-3243
-11049
-17761
-16085
-5460
7873
16959
15705
5787
-6395
-12545
-3243
-10998
-3131
-11049
2406
-17761
576
-16085
-6548
-5460
7873
16959
15705
5787
-10526
-8313
-6395
-12545
-10998
-3131
2406
576
-6548
-10526
-8313
-281
5988
6452
3425
111
-1660
-3467
-3414
-1679
-281
5988
6452
3425
111
-1660
-3467
-3414
-1679
1634
3280
2283
-642
-1651
-51
20
-1597
-2613
1634
3280
2283
-642
-1651
-51
20
-1597
-2613
1728
1728
7363
7363
6427
6427
-5785
-5785
-20150
-20150
-22777
-22777
-9468
-9468
5403
5403
9361
9361
3983
1911
6979
11363
1911
5781
6979
-2577
11363
-1140
5781
12090
-2577
23106
-1140
12090
23106
20552
6767
20552
-2289
6767
2068
-2289
13392
2068
13392
20101
20101
19458
15020
11248
19458
15020
11248
10113
9483
9483
8565
8565
7923
7923
10295
10295
14878
14878
17967
17967
16907
16907
11067
11067
6558
6558
9780
16389
16239
5230
-8915
-13685
9780
16389
16239
-7813
5230
-8915
96
-13685
-7813
96
-674
-7568
-674
-11231
-7568
-6107
-11231
2487
-6107
8532
2487
8110
8532
3853
8110
-1268
3853
-1268
-3804
-3804
-2993
-2993
625
625
835
-4756
835
-12764
-4756
-12764
-15068
-15068
-9131
-9131
1821
1821
10471
10915
5567
-1560
-4703
-4653
10471
-2854
10915
-1588
5567
-692
-1560
-4703
-4653
-2854
-1588
-692
1323
1323
4524
4075
4524
-987
-5942
4075
-3445
6365
14319
10025
-987
-5942
-3445
6365
14319
10025
-4141
-14213
-9454
2607
6197
-6108
-24876
-30218
-13760
13856
30317
24696
4252
-10385
-8490
-14213
-9454
2607
6197
-6108
-24876
-30218
-13760
13856
30317
24696
4252
-10385
-8490
3379
3379
10452
10452
6682
6682
-396
-313
6055
7108
-2129
-14634
-17593
-396
-5446
-313
11610
6055
7108
-2129
19534
-14634
-17593
13180
-5446
-1373
11610
-11990
-10181
3598
18661
23869
19534
14662
13180
-1373
-11990
-10181
3598
18661
23869
14662
785
-8464
-7654
-3976
-2697
-3631
-931
4853
6367
785
-8464
-7654
-3976
-2697
-3631
-931
4853
6367
587
-9252
-9252
-14749
-14749
-15147
-15147
-15727
-15727
-19278
-19278
-18591
-18591
-9460
-9460
3859
3859
10464
6635
-2480
-5827
-3895
-3519
-7928
-10743
-7493
10464
6635
-2480
-5827
-3895
-3519
-7928
-10743
-7493
-116
-116
4859
2461
4859
2461
-1837
-2810
4
-1837
2701
-2810
3666
4
3768
2701
3666
3768
1921
-2061
-5284
-5086
1921
-1331
-2061
1500
-5284
-2411
-5086
-10221
-1331
-13947
1500
-2411
-10221
-13947
-8488
335
5044
3398
643
1821
6401
7442
2191
-8488
335
5044
3398
643
1821
6401
7442
2191
-7199
-7199
-15530
-18677
-14533
-6772
-764
-2274
-10661
-17342
-15530
-18677
-14533
-6772
-764
-2274
-10661
-12917
-17342
2683
17650
21188
-12917
12624
2683
449
17650
-5297
21188
-2352
4952
12624
449
-5297
-2352
4952
9772
9772
8284
-46
-13210
8284
-25552
-46
-31820
-13210
-31560
-25552
-26833
-31820
-21047
-31560
-26833
-21047
-16524
-12252
-7019
-16524
-405
-12252
6249
-7019
9753
-405
7547
6249
561
9753
-6568
7547
561
-6568
-9286
-9286
-7071
-7071
-3043
-3043
-426
-426
64
64
-1122
-1122
-3669
-3669
-6699
-6699
-7724
-7724
-4772
-35
455
-7863
-21703
31738
29296
-28754
-17307
-4772
-35
455
-7863
-21703
31738
29296
-28754
-17307
-9096
-9096
-8316
-12692
-8316
-18220
-12692
-19644
-18220
-16925
-19644
-13678
-16925
-12826
-13678
-12261
-12826
-12261
-9392
-2640
3783
4431
-2071
-11940
-19165
-19711
-13075
-9392
-1717
-2640
3783
10195
4431
18327
-2071
19796
-11940
14747
-19165
6026
-19711
-2210
-13075
-6707
-6374
-1717
10195
18327
19796
14747
6026
-2210
-6707
-6374
-2377
2304
6281
6281
6932
6932
3902
3902
-1755
-1755
-7457
-7457
-11401
-11401
-12182
-12182
-12452
-13371
-14239
-14085
-14463
-19144
-26699
-32185
-28932
-12452
-13371
-14239
-14085
-14463
-19144
-26699
-32185
-28932
-16996
-16996
-2772
7307
-2772
7307
11523
13495
13067
8534
405
-5957
11523
13495
13067
8534
405
-5957
-6041
-285
-285
3144
3144
-401
-401
-7307
-7307
-9686
-9686
-5141
-5141
-277
-277
-978
-978
-8000
-14010
-14010
-11656
-11656
-2191
-2191
8225
8225
13970
13970
11293
11293
2290
2290
-6943
-6943
-11488
-11488
-8100
-8100
-1062
-1062
3512
3512
906
906
-6118
-6118
-10098
-10098
-7649
-7649
-45
-45
8001
8001
10826
10826
7928
7928
2133
2133
-1248
-1248
-1372
-1372
1515
1515
1385
1385
-4478
-4478
-12794
-15295
-9777
1499
9649
10356
5637
60
-3404
-12794
-15295
-9777
1499
9649
10356
5637
60
-3404
-4695
-4132
-1742
-4695
1519
-4132
3680
-1742
4006
1519
1389
3680
-1557
4006
-3201
1389
-1557
-3201
-3002
-1399
-3002
127
-1399
1419
127
1386
1419
1253
1386
851
1253
158
851
-256
158
-256
1890
5877
9856
9060
579
1890
-13530
5877
9856
-25654
9060
-29689
579
-22296
-13530
-25654
-7743
-29689
6198
-22296
13204
13332
9544
6653
-7743
5158
6198
3589
13204
2183
13332
9544
6653
5158
3589
2183
4676
11410
18784
19269
10408
-1050
-5075
1700
4676
11410
18784
19269
12940
10408
-1050
-5075
1700
12940
19986
19986
20245
17502
15480
20245
17502
15480
12879
6597
-2405
-7960
12879
-4614
6597
-2405
-7960
-4614
6969
20120
27583
25946
6969
16323
20120
2549
27583
-10609
25946
-18848
16323
-19632
2549
-10609
-18848
-13715
-19632
-4721
2521
4608
-13715
943
-4721
-6542
2521
-14647
4608
-20453
943
-22446
-6542
-14647
-20453
-22446
-20873
-20873
-17315
-17315
-13844
-13844
-12052
-12052
-12450
-12450
-14496
-14496
-17106
-17106
-19275
-19275
-20470
-20470
-20627
-20002
-18976
-18002
-17508
-17689
-18369
-19110
-19521
-20627
-20002
-18976
-18002
-17508
-17689
-18369
-19110
-19521
-19508
-19508
-19265
-19030
-18917
-18937
-19124
-19544
-20230
-21107
-22031
-22883
-19265
-23594
-19030
-24141
-24501
-24719
-24857
-18917
-24974
-18937
-25084
-19124
-19544
-20230
-21107
-22031
-22883
-23594
-24141
-24501
-24719
-24857
-24974
-25084
-25173
-25267
-25453
-25797
-26271
-26731
-27012
-27044
-26873
-25173
-25267
-25453
-25797
-26271
-26731
-27012
-27044
-26873
-26610
-26610
-26316
-25960
-25960
-25454
-25454
-24724
-24724
-23765
-23765
-22662
-22662
-21560
-21560
-20578
-20578
-19727
-18896
-19727
-17968
-18896
-16958
-17968
-16032
-16958
-15372
-15005
-16032
-14803
-15372
-14623
-15005
-14803
-14623
-14489
-14573
-15016
-15799
-16745
-17709
-18651
-19614
-20607
-21601
-22531
-23372
-24118
-24754
-14489
-25267
-25696
-14573
-26111
-15016
-15799
-26536
-16745
-17709
-18651
-19614
-20607
-21601
-22531
-23372
-24118
-24754
