4325
4356
4373
4398
4443
4487
4505
4497
4485
4482
4474
4438
4380
4329
4311
4324
4335
4321
4294
4288
4317
4354
4349
4284
4197
4135
4104
4065
3990
3903
3849
3842
3851
3848
3835
3840
3870
3892
3873
3814
3746
3706
3705
3722
3727
3708
3684
3693
3749
3816
3842
3816
3788
3809
3866
3895
3856
3783
3751
3786
3841
3855
3825
3800
3817
3857
3877
3868
3866
3914
3998
4064
4077
4062
4075
4131
4189
4200
4170
4145
4154
4173
4167
4142
4134
4162
4195
4175
4086
3954
3809
3665
3515
3354
3176
2973
2745
2501
2242
1947
1584
1187
891
878
1231
1849
2516
3107
3695
4457
5448
6472
7204
7440
7258
6915
6628
6425
6203
5884
5507
5193
5027
4997
5037
5086
5123
5137
5100
4991
4847
4743
4720
4748
4773
4778
4781
4776
4718
4597
4484
4479
4586
4697
4697
4594
4498
4494
4565
4625
4625
4587
4552
4525
4485
4423
4365
4344
4360
4382
4380
4359
4346
4350
4351
4322
4269
4235
4242
4257
4216
4107
3988
3932
3951
3986
3964
3885
3814
3815
3886
3954
3951
3869
3761
3691
3667
3645
3593
3530
3495
3500
3521
3534
3548
3584
3630
3642
3603
3558
3578
3673
3783
3833
3817
3797
3833
3925
4014
4054
4058
4078
4149
4242
4298
4287
4248
4241
4274
4286
4230
4153
4154
4283
4474
4619
4685
4746
4874
5040
5136
5088
4922
4718
4527
4349
4180
4050
3990
3991
4021
4063
4137
4251
4369
4435
4432
4399
4375
4351
4286
4176
4075
4031
4029
4008
3951
3905
3912
3948
3958
3939
3962
4086
4274
4425
4485
4491
4505
4523
4480
4336
4128
3930
3778
3663
3583
3555
3589
3648
3680
3659
3618
3607
3650
3720
3769
3766
3729
3716
3765
3841
3862
3783
3656
3578
3596
3669
3744
3829
3976
4206
4465
4657
4728
4692
4604
4504
4376
4172
3878
3567
3358
3295
3283
3193
3006
2814
2704
2668
2625
2516
2328
2053
1687
1259
797
275
-336
-894
-1044
-482
698
2014
3054
3859
4795
6019
7192
7775
7550
6793
5970
5345
4889
4473
4047
3655
3377
3277
3354
3540
3701
3731
3635
3497
3377
3286
3228
3229
3322
3478
3615
3680
3699
3743
3826
3886
3855
3743
3627
3566
3546
3503
3400
3285
3259
3389
3633
3874
3997
3971
3857
3741
3655
3549
3359
3099
2856
2735
2753
2835
2878
2846
2788
2786
2883
3043
3172
3192
3111
3023
3033
3140
3237
3223
3106
2976
2900
2855
2793
2718
2672
2659
2627
2554
2488
2505
2602
2696
2724
2717
2755
2854
2959
3035
3091
3141
3152
3098
3047
3119
3341
3570
3615
3436
3173
2981
2870
2723
2472
2176
1947
1831
1802
1845
1991
2253
2566
2811
2928
2972
3047
3198
3355
3427
3402
3364
3415
3574
3766
3899
3940
3932
3931
3951
3948
3877
3748
3630
3587
3600
3574
3441
3251
3135
3184
3361
3571
3760
3924
4037
4019
3829
3539
3285
3143
3066
2968
2849
2811
2953
3242
3509
3563
3327
2899
2483
2212
2049
1867
1628
1441
1455
1706
2106
2554
2982
3299
3384
3219
2997
2998
3308
3717
3932
3878
3731
3674
3704
3681
3510
3213
2863
2521
2268
2198
2341
2592
2776
2805
2741
2715
2784
2895
2957
2924
2806
2661
2575
2602
2697
2740
2646
2426
2161
1914
1677
1410
1098
736
325
-79
-308
-149
464
1347
2196
2880
3554
4470
5635
6725
7336
7335
6932
6448
6052
5711
5325
4872
4413
4042
3835
3819
3952
4101
4136
4022
3848
3720
3666
3635
3584
3538
3533
3547
3521
3449
3392
3406
3469
3505
3475
3414
3370
3346
3307
3244
3194
3193
3228
3265
3285
3292
3295
3291
3283
3293
3336
3385
3388
3329
3253
3218
3228
3239
3217
3171
3130
3103
3081
3062
3055
3051
3022
2960
2891
2845
2822
2802
2782
2787
2829
2884
2912
2908
2899
2903
2902
2868
2799
2711
2620
2547
2517
2545
2603
2650
2678
2733
2851
2992
3065
3033
2972
2990
3099
3209
3233
3187
3162
3227
3359
3494
3598
3679
3751
3821
3886
3944
3995
4041
4091
4154
4218
4249
4235
4209
4220
4257
4254
4167
4047
3991
4024
4070
4050
3986
3980
4086
4245
4348
4350
4300
4258
4229
4174
4080
3986
3944
3961
3995
4015
4037
4111
4234
4338
4338
4221
4056
3919
3821
3739
3689
3729
3888
4112
4309
4438
4514
4545
4489
4304
4028
3753
3540
3379
3244
3153
3155
3257
3408
3551
3673
3784
3863
3877
3820
3740
3704
3744
3841
3956
4045
4092
4134
4238
4433
4657
4806
4834
4790
4760
4759
4728
4746
4388
4041
3912
4016
4187
4292
4288
4171
3918
3552
3204
3004
2972
2998
2994
2995
3057
3151
3182
3130
3085
3104
3135
3098
3036
3060
3158
3138
2881
2547
2429
2595
2789
2763
2615
2664
3036
3494
3722
3697
3654
3741
3851
3845
3814
3923
4142
4226
4082
3957
4155
4608
4824
4410
3567
2943
2947
3305
3391
2916
2227
1911
2188
2738
3091
3070
2878
2808
2967
3248
3457
3477
3342
3209
3225
3413
3623
3682
3555
3351
3215
3190
3235
3269
3242
3155
3068
3055
3131
3246
3342
3410
3470
3488
3393
3199
3037
3021
3073
3008
2784
2579
2591
2783
2946
2972
2954
3017
3111
3083
2898
2691
2592
2568
2514
2402
2319
2315
2351
2398
2521
2775
3068
3199
3075
2832
2693
2742
2850
2843
2689
2521
2487
2627
2855
3024
3029
2893
2736
2658
2641
2588
2447
2295
2242
2274
2271
2146
1975
1917
2031
2209
2325
2363
2414
2532
2660
2729
2768
2894
3167
3512
3797
3979
4135
4344
4564
4664
4561
4293
3977
3703
3496
3336
3192
3041
2881
2749
2700
2762
2884
2963
2938
2849
2777
2753
2725
2605
2379
2124
1933
1813
1668
1393
998
603
328
176
82
44
181
606
1270
1978
2596
3201
3963
4888
5732
6209
6265
6085
5863
5618
5249
4737
4220
3871
3734
3711
3676
3593
3504
3445
3409
3361
3276
3164
3071
3044
3076
3112
3089
3001
2896
2819
2767
2708
2645
2641
2755
2954
3123
3167
3085
2949
2824
2707
2568
2411
2292
2250
2282
2370
2530
2774
3044
3216
3201
3021
2772
2525
2301
2121
2033
2046
2084
2066
2019
2072
2296
2586
2747
2690
2521
2411
2405
2399
2305
2158
2062
2049
2023
1875
1619
1400
1350
1443
1535
1506
1368
1227
1151
1109
1035
934
891
972
1157
1370
1561
1735
1911
2071
2173
2188
2134
2052
1968
1884
1790
1694
1604
1533
1508
1552
1668
1824
1977
2101
2193
2261
2303
2323
2347
2397
2454
2476
2463
2476
2568
2699
2760
2702
2610
2600
2669
2695
2586
2394
2268
2282
2382
2467
2520
2593
2705
2776
2699
2456
2156
1950
1908
1962
1968
1846
1677
1651
1895
2334
2737
2913
2868
2768
2757
2815
2804
2633
2351
2095
1961
1953
2036
2206
2467
2768
2992
3051
2967
2859
2814
2815
2780
2669
2539
2476
2532
2684
2871
3021
3083
3041
2919
2761
2599
2466
2398
2436
2571
2729
2813
2792
2732
2713
2722
2660
2461
2166
1891
1714
1606
1467
1222
875
524
322
404
778
1306
1797
2168
2534
3084
3858
4631
5076
5048
4712
4391
4262
4232
4090
3757
3376
3158
3163
3261
3298
3243
3172
3129
3065
2909
2681
2498
2427
2428
2418
2348
2235
2127
2076
2131
2304
2536
2708
2747
2699
2653
2620
2510
2271
1995
1857
1939
2154
2361
2504
2633
2816
3046
3248
3350
3316
3138
2860
2572
2369
2292
2304
2323
2310
2289
2308
2372
2452
2496
2470
2375
2236
2090
1969
1897
1862
1813
1707
1548
1402
1356
1448
1642
1862
2053
2207
2350
2485
2579
2589
2514
2394
2284
2229
2243
2318
2417
2480
2465
2393
2331
2316
2308
2243
2122
2044
2093
2253
2420
2534
2632
2785
2970
3076
3012
2816
2637
2587
2628
2615
2438
2157
1975
2072
2451
2929
3289
3448
3488
3547
3678
3814
3838
3695
3439
3193
3067
3080
3173
3256
3293
3296
3284
3250
3180
3089
3018
2979
2922
2792
2624
2527
2581
2725
2785
2642
2348
2075
1952
1981
2090
2231
2392
2536
2607
2601
2600
2682
2811
2856
2752
2601
2579
2760
3029
3200
3193
3079
2989
2991
3050
3092
3076
3012
2941
2899
2909
2955
3005
3027
3004
2933
2829
2718
2636
2621
2663
2702
2665
2524
2330
2186
2162
2231
2280
2203
1976
1672
1392
1186
1040
916
814
774
841
1060
1488
2170
3078
4060
4887
5398
5610
5655
5633
5524
5244
4769
4187
3636
3240
3066
3122
3346
3593
3720
3675
3530
3410
3373
3377
3324
3153
2890
2632
2494
2545
2760
3040
3257
3345
3326
3272
3236
3215
3163
3034
2811
2525
2253
2105
2162
2411
2733
2980
3091
3143
3271
3509
3714
3687
3379
2949
2626
2507
2517
2550
2591
2680
2812
2908
2923
2907
2936
3005
3017
2907
2715
2547
2482
2526
2638
2750
2789
2711
2539
2357
2241
2207
2221
2270
2377
2556
2770
2955
3066
3093
3043
2912
2712
2475
2260
2112
2037
2011
2014
2054
2166
2355
2564
2713
2776
2807
2874
2978
3056
3062
3026
3008
3027
3049
3037
2992
2923
2827
2721
2669
2736
2910
3097
3198
3192
3135
3091
3072
3052
2997
2896
2767
2672
2677
2797
2964
3087
3144
3194
3295
3419
3478
3430
3326
3247
3207
3159
3082
3025
3044
3117
3173
3175
3162
3185
3236
3264
3253
3236
3234
3220
3148
3019
2882
2787
2755
2789
2888
3032
3165
3235
3256
3297
3396
3486
3464
3322
3195
3239
3472
3751
3924
3978
4019
4121
4235
4245
4107
3885
3682
3553
3477
3419
3377
3356
3359
3379
3376
3307
3151
2933
2703
2499
2312
2117
1899
1630
1259
789
384
317
741
1491
2215
2734
3221
3978
5037
6047
6566
6461
5972
5444
5049
4747
4438
4093
3769
3565
3561
3748
4012
4197
4223
4143
4036
3887
3633
3298
3028
2949
3011
3038
2947
2849
2919
3174
3460
3621
3661
3684
3741
3774
3711
3561
3399
3284
3218
3180
3159
3153
3155
3153
3151
3156
3153
3110
3017
2904
2827
2814
2844
2878
2887
2877
2867
2866
2865
2855
2840
2832
2832
2833
2835
2854
2897
2940
2945
2886
2777
2657
2544
2435
2340
2286
2291
2311
2264
2124
1972
1929
2023
2149
2185
2131
2111
2237
2485
2732
2876
2908
2871
2791
2687
2597
2558
2567
2569
2526
2478
2497
2599
2726
2811
2830
2811
2772
2713
2638
2575
2542
2535
2537
2551
2593
2659
2724
2779
2848
2959
3089
3184
3206
3173
3130
3084
3007
2881
2738
2647
2650
2731
2830
2886
2883
2842
2809
2818
2862
2887
2851
2773
2724
2761
2864
2939
2905
2765
2601
2502
2500
2556
2605
2603
2563
2548
2612
2752
2898
2977
2977
2953
2939
2897
2760
2535
2331
2258
2301
2340
2297
2235
2284
2481
2720
2876
2944
3014
3131
3234
3234
3149
3077
3072
3081
3025
2920
2860
2895
2958
2942
2827
2689
2607
2574
2527
2435
2316
2193
2057
1880
1644
1355
1041
747
510
305
48
-297
-594
-579
-104
668
1371
1795
2120
2716
3714
4816
5551
5709
5476
5188
5002
4818
4475
3958
3410
2994
2772
2697
2704
2773
2912
3110
3287
3343
3254
3107
3019
3023
3045
3004
2882
2730
2599
2506
2463
2488
2565
2617
2570
2450
2383
2475
2680
2831
2812
2672
2561
2569
2639
2658
2598
2530
2533
2595
2636
2606
2531
2472
2454
2448
2405
2306
2174
2050
1963
1911
1887
1901
1972
2086
2186
2220
2217
2267
2412
2572
2607
2466
2250
2101
2055
2036
1967
1867
1806
1808
1838
1863
1901
1981
2066
2072
1948
1745
1592
1581
1694
1827
1877
1828
1758
1764
1884
2076
2254
2343
2309
2177
2026
1952
2003
2139
2261
2313
2342
2440
2639
2867
3020
3056
3006
2899
2737
2540
2385
2354
2433
2522
2549
2551
2624
2790
2967
3051
3016
2919
2815
2717
2616
2537
2516
2549
2587
2588
2562
2555
2600
2671
2719
2721
2693
2673
2680
2697
2701
2671
2610
2545
2515
2540
2590
2605
2559
2500
2513
2630
2790
2890
2884
2812
2747
2722
2719
2709
2688
2661
2632
2601
2586
2602
2645
2687
2699
2677
2637
2604
2592
2603
2619
2606
2528
2400
2293
2288
2382
2470
2448
2341
2291
2411
2653
2849
2894
2843
2817
2842
2826
2703
2543
2478
2541
2635
2666
2659
2716
2875
3038
3066
2920
2680
2435
2206
1964
1687
1379
1036
655
266
-69
-328
-576
-871
-1111
-1036
-459
506
1510
2297
2960
3790
4887
5955
6538
6443
5899
5317
4930
4674
4365
3938
3496
3192
3080
3099
3154
3182
3169
3125
3053
2960
2875
2836
2864
2935
3005
3035
3022
2975
2891
2753
2569
2409
2360
2447
2587
2655
2601
2510
2521
2677
2872
2958
2884
2738
2654
2683
2768
2816
2783
2691
2592
2522
2481
2453
2432
2425
2436
2457
2469
2462
2450
2450
2455
2436
2373
2282
2196
2125
2056
1981
1923
1904
1918
1928
1908
1883
1897
1959
2024
2041
2001
1936
1873
1810
1748
1710
1716
1745
1742
1695
1670
1748
1922
2084
2129
2071
2017
2047
2127
2162
2115
2039
2005
2021
2043
2046
2060
2123
2220
2294
2316
2332
2406
2546
2672
2698
2619
2523
2500
2563
2654
2711
2728
2743
2773
2797
2788
2748
2697
2652
2618
2604
2619
2655
2672
2642
2584
2556
2588
2650
2690
2699
2708
2734
2756
2747
2718
2706
2722
2736
2723
2702
2718
2777
2839
2862
2840
2796
2753
2723
2710
2705
2667
2551
2372
2225
2221
2377
2585
2714
2727
2704
2737
2833
2920
2924
2840
2717
2613
2564
2577
2631
2677
2668
2603
2545
2569
2679
2793
2817
2734
2618
2564
2600
2680
2726
2711
2666
2638
2634
2628
2592
2542
2520
2536
2553
2531
2481
2448
2443
2402
2256
2039
1893
1946
2182
2454
2629
2713
2816
3019
3276
3463
3492
3383
3223
3089
3001
2934
2865
2802
2765
2757
2756
2723
2651
2568
2483
2356
2135
1825
1497
1212
957
671
354
67
-179
-480
-900
-1283
-1293
-743
164
994
1540
2047
2922
4228
5550
6370
6536
6316
6043
5804
5471
4959
4346
3781
3350
3062
2931
2982
3171
3368
3446
3382
3260
3170
3131
3094
3018
2906
2789
2692
2629
2602
2601
2610
2612
2597
2559
2502
2438
2392
2393
2441
2507
2559
2599
2654
2735
2809
2835
2812
2783
2777
2777
2748
2692
2647
2628
2601
2528
2431
2378
2397
2430
2395
2286
2176
2136
2163
2195
2195
2184
2193
2215
2226
2218
2202
2174
2105
1984
1860
1797
1811
1847
1849
1821
1811
1850
1911
1945
1931
1882
1818
1756
1716
1724
1789
1878
1945
1976
2004
2057
2125
2159
2122
2029
1937
1898
1916
1954
1967
1953
1953
2015
2134
2244
2272
2209
2124
2100
2157
2245
2314
2365
2448
2594
2770
2900
2937
2899
2837
2787
2739
2675
2604
2563
2567
2586
2593
2592
2612
2660
2702
2706
2684
2676
2683
2666
2602
2537
2540
2617
2698
2711
2652
2566
2487
2413
2354
2352
2431
2554
2650
2685
2700
2752
2839
2896
2870
2782
2703
2679
2684
2652
2565
2475
2458
2531
2633
2697
2721
2755
2818
2866
2849
2776
2715
2703
2704
2668
2606
2570
2577
2571
2501
2397
2353
2417
2533
2595
2552
2447
2376
2401
2508
2629
2701
2713
2708
2735
2799
2852
2841
2760
2649
2555
2497
2471
2470
2482
2484
2451
2390
2343
2344
2374
2362
2261
2119
2041
2098
2262
2445
2584
2692
2807
2908
2934
2850
2703
2582
2526
2499
2456
2420
2461
2604
2771
2835
2733
2535
2359
2240
2099
1844
1484
1122
842
624
404
153
-135
-491
-920
-1282
-1300
-790
115
1050
1789
2474
3400
4597
5691
6229
6088
5547
5000
4629
4370
4080
3714
3341
3076
2995
3096
3289
3431
3422
3263
3044
2869
2794
2806
2851
2888
2905
2918
2939
2950
2915
2822
2702
2595
2518
2457
2398
2346
2320
2333
2390
2479
2569
2621
2607
2554
2516
2524
2541
2504
2392
2258
2190
2225
2320
2402
2427
2415
2399
2379
2321
2204
2058
1952
1926
1963
2013
2047
2086
2162
2260
2318
2272
2119
1925
1777
1718
1724
1736
1722
1708
1745
1839
1938
1973
1926
1835
1743
1661
1583
1528
1526
1572
1614
1607
1568
1555
1598
1663
1702
1703
1702
1735
1808
1910
2019
2106
2139
2105
2046
2026
2067
2119
2114
2050
2000
2042
2157
2250
2245
2172
2128
2174
2268
2316
2287
2239
2260
2369
2507
2599
2623
2612
2613
2636
2662
2650
2580
2461
2344
2292
2329
2421
2494
2497
2449
2417
2449
2523
2559
2497
2359
2240
2230
2335
2482
2588
2636
2667
2718
2777
2804
2773
2699
2616
2541
2473
2417
2389
2401
2443
2480
2479
2440
2392
2360
2335
2294
2245
2228
2266
2334
2382
2409
2470
2603
2757
2835
2799
2723
2701
2743
2772
2728
2639
2576
2566
2577
2579
2579
2605
2650
2678
2656
2592
2526
2494
2500
2529
2550
2542
2519
2504
2510
2520
2504
2450
2380
2327
2318
2356
2418
2479
2518
2528
2515
2490
2464
2448
2447
2461
2483
2500
2519
2559
2645
2761
2855
2878
2831
2768
2744
2762
2785
2779
2743
2703
2671
2623
2537
2424
2283
2090
1821
1498
1184
922
675
365
-28
-467
-916
-1372
-1765
-1890
-1532
-709
280
1130
1856
2759
4028
5420
6419
6704
6415
5953
5582
5261
4827
4244
3633
3141
2832
2696
2715
2851
3017
3111
3076
2953
2845
2836
2913
2993
3004
2934
2828
2727
2635
2533
2425
2346
2325
2355
2393
2403
2390
2386
2429
2517
2603
2608
2482
2248
2006
1868
1877
1985
2099
2176
2246
2359
2514
2643
2678
2602
2453
2273
2080
1886
1725
1649
1683
1803
1949
2064
2126
2147
2151
2150
2127
2054
1919
1752
1611
1535
1519
1534
1563
1606
1658
1702
1712
1684
1643
1615
1599
1577
1544
1513
1494
1471
1420
1353
1313
1329
1369
1372
1319
1263
1269
1336
1397
1400
1375
1404
1529
1705
1846
1917
1948
1979
2010
2007
1963
1922
1940
2017
2100
2142
2158
2207
2321
2460
2545
2543
2494
2467
2489
2518
2504
2438
2363
2323
2325
2332
2302
2236
2181
2191
2266
2351
2380
2351
2339
2417
2560
2661
2630
2494
2373
2362
2446
2532
2558
2537
2522
2527
2518
2473
2417
2394
2412
2434
2424
2394
2393
2445
2515
2540
2500
2434
2393
2389
2390
2366
2329
2306
2291
2250
2167
2083
2066
2144
2259
2330
2330
2314
2355
2456
2537
2511
2382
2247
2208
2279
2382
2427
2406
2387
2437
2552
2658
2686
2629
2543
2492
2489
2498
2476
2413
2346
2321
2337
2336
2270
2155
2073
2088
2167
2216
2186
2122
2098
2121
2120
2046
1944
1923
2043
2257
2469
2625
2745
2868
2979
3011
2908
2684
2427
2230
2123
2068
2008
1927
1838
1753
1666
1565
1426
1208
868
414
-50
-427
-757
-1172
-1672
-1979
-1733
-883
195
1066
1703
2492
3730
5185
6263
6567
6246
5753
5369
5027
4539
3884
3232
2759
2536
2535
2695
2916
3079
3117
3058
2978
2916
2854
2782
2735
2755
2815
2831
2755
2634
2559
2568
2607
2596
2510
2408
2360
2364
2354
2282
2188
2161
2232
2329
2358
2314
2285
2345
2453
2505
2450
2353
2309
2325
2316
2216
2059
1936
1895
1909
1933
1958
1999
2044
2049
1985
1877
1781
1724
1682
1630
1583
1582
1648
1753
1850
1910
1938
1945
1926
1869
1772
1658
1548
1458
1389
1347
1338
1362
1400
1430
1438
1431
1421
1411
1380
1316
1235
1173
1153
1167
1199
1257
1356
1492
1631
1752
1867
1994
2117
2179
2155
2085
2044
2059
2089
2083
2039
2001
2000
2031
2075
2132
2214
2310
2378
2395
2381
2396
2475
2583
2633
2572
2437
2334
2334
2399
2425
2364
2276
2252
2296
2323
2270
2187
2172
2256
2362
2404
2388
2388
2435
2479
2450
2355
2261
2214
2186
2123
2027
1977
2042
2214
2391
2471
2442
2384
2394
2483
2563
2543
2421
2282
2213
2221
2243
2226
2179
2144
2150
2194
2249
2287
2286
2245
2186
2142
2132
2138
2131
2102
2080
2105
2182
2281
2348
2344
2278
2196
2138
2111
2089
2049
2000
1985
2034
2135
2228
2253
2194
2102
2058
2104
2204
2272
2260
2205
2198
2296
2460
2582
2581
2463
2316
2233
2245
2309
2357
2359
2336
2338
2383
2453
2504
2505
2446
2335
2197
2051
1892
1713
1523
1346
1215
1128
1046
920
743
552
387
225
-31
-464
-1011
-1421
-1406
-888
-90
660
1259
1920
2903
4165
5317
5945
5954
5595
5177
4821
4450
3979
3433
2918
2545
2369
2387
2540
2721
2826
2830
2789
2769
2783
2796
2780
2751
2738
2732
2695
2610
2503
2415
2356
2307
2258
2220
2196
2162
2094
2009
1969
2017
2137
2267
2365
2434
2487
2514
2499
2455
2421
2414
2397
2329
2225
2148
2129
2129
2090
2019
1973
1961
1908
1751
1541
1418
1461
1592
1671
1649
1614
1664
1794
1904
1916
1836
1719
1607
1517
1464
1460
1493
1520
1504
1449
1388
1350
1335
1320
1286
1229
1159
1096
1059
1048
1058
1080
1116
1170
1235
1300
1376
1482
1615
1732
1778
1749
1704
1707
1760
1805
1798
1764
1776
1879
2048
2209
2306
2336
2339
2346
2361
2363
2343
2307
2281
2277
2290
2313
2353
2413
2475
2497
2459
2397
2365
2379
2401
2385
2321
2229
2126
2031
1983
2029
2154
2270
2284
2206
2150
2210
2352
2443
2392
2249
2146
2165
2275
2379
2418
2403
2386
2395
2419
2430
2399
2318
2198
2065
1956
1904
1927
2011
2113
2186
2216
2237
2295
2389
2459
2446
2348
2234
2172
2176
2202
2213
2206
2193
2178
2153
2127
2119
2134
2140
2100
2011
1911
1850
1847
1894
1969
2055
2142
2217
2272
2313
2355
2395
2402
2342
2221
2093
2024
2029
2065
2087
2100
2143
2224
2304
2335
2317
2292
2289
2288
2250
2173
2095
2068
2106
2167
2179
2092
1920
1746
1642
1587
1490
1292
1028
785
601
431
221
-40
-351
-723
-1115
-1351
-1206
-630
148
815
1294
1832
2703
3852
4876
5393
5373
5111
4898
4775
4587
4215
3711
3231
2890
2689
2569
2492
2453
2454
2477
2483
2449
2404
2401
2454
2514
2501
2385
2217
2082
2031
2052
2107
2175
2256
2347
2428
2479
2482
2432
2348
2263
2204
2168
2119
2033
1946
1918
1966
2033
2049
2001
1938
1903
1884
1845
1785
1738
1727
1712
1639
1509
1400
1383
1448
1513
1519
1487
1481
1534
1615
1663
1636
1531
1380
1236
1157
1165
1225
1264
1246
1201
1190
1231
1271
1251
1154
1027
932
900
927
992
1071
1141
1190
1218
1222
1192
1122
1033
972
975
1032
1097
1143
1188
1264
1374
1484
1562
1610
1654
1707
1763
1813
1867
1936
1996
2007
1964
1909
1893
1913
1916
1867
1806
1812
1905
2027
2102
2122
2145
2208
2282
2306
2269
2228
2236
2278
2294
2255
2189
2132
2088
2036
1976
1932
1917
1917
1913
1913
1943
2005
2064
2088
2081
2066
2046
2008
1953
1917
1927
1961
1966
1930
1903
1949
2063
2162
2164
2065
1936
1850
1827
1836
1846
1846
1841
1847
1882
1962
2082
2208
2292
2306
2263
2196
2117
2012
1878
1744
1653
1628
1652
1707
1799
1937
2104
2253
2346
2382
2384
2358
2282
2139
1956
1793
1698
1678
1710
1773
1870
2000
2147
2282
2383
2451
2480
2439
2310
2142
2027
2009
2021
1957
1807
1696
1747
1929
2064
2013
1830
1684
1656
1659
1552
1300
989
715
480
240
-31
-343
-731
-1206
-1626
-1705
-1244
-370
535
1203
1760
2563
3736
4943
5672
5706
5290
4831
4511
4226
3831
3345
2894
2564
2351
2248
2287
2460
2651
2711
2588
2379
2234
2218
2274
2313
2291
2216
2113
2011
1947
1960
2043
2124
2119
2017
1899
1858
1904
1960
1953
1894
1865
1926
2053
2169
2217
2205
2173
2144
2107
2049
1971
1892
1833
1796
1766
1724
1655
1565
1489
1455
1454
1446
1399
1338
1319
1357
1403
1391
1324
1273
1296
1363
1395
1357
1301
1300
1357
1398
1357
1249
1141
1087
1079
1077
1055
1018
979
953
955
992
1049
1095
1097
1059
1027
1032
1070
1106
1124
1135
1146
1134
1079
999
951
963
1001
1011
1008
1074
1264
1532
1760
1872
1898
1929
2022
2153
2256
2281
2229
2147
2093
2100
2149
2183
2159
2088
2019
1988
1997
2027
2066
2098
2097
2051
1987
1964
2000
2044
2024
1925
1812
1764
1794
1844
1857
1834
1831
1890
1987
2056
2060
2030
2020
2029
1993
1861
1679
1560
1569
1656
1722
1740
1787
1931
2135
2284
2319
2291
2288
2321
2325
2255
2154
2099
2105
2112
2068
1991
1943
1954
1988
1985
1930
1858
1815
1816
1833
1821
1769
1715
1716
1780
1849
1854
1801
1771
1831
1952
2033
2007
1911
1831
1812
1837
1859
1857
1841
1835
1854
1898
1955
1991
1982
1935
1880
1848
1843
1865
1917
1994
2066
2088
2051
2010
2038
2140
2235
2231
2124
2003
1959
1987
1992
1887
1696
1506
1361
1224
1036
795
543
293
-3
-368
-757
-1106
-1420
-1728
-1940
-1828
-1236
-300
642
1398
2125
3110
4348
5435
5929
5770
5289
4847
4517
4147
3641
3093
2668
2432
2334
2308
2340
2414
2481
2478
2385
2244
2133
2094
2106
2113
2069
1978
1882
1820
1792
1788
1821
1903
2015
2092
2086
2026
1990
2017
2058
2029
1919
1805
1765
1792
1811
1773
1724
1751
1871
2000
2039
1978
1892
1852
1843
1796
1683
1551
1464
1439
1433
1415
1400
1413
1443
1450
1417
1374
1364
1386
1392
1338
1236
1138
1088
1091
1118
1137
1133
1099
1033
944
867
841
883
963
1025
1026
977
927
915
935
938
886
791
722
745
869
1036
1167
1234
1269
1323
1406
1484
1526
1538
1553
1591
1640
1679
1711
1749
1798
1845
1871
1877
1880
1891
1903
1898
1870
1833
1813
1826
1860
1887
1892
1880
1884
1925
1991
2044
2055
2027
1988
1940
1854
1712
1554
1464
1501
1627
1738
1778
1798
1884
2048
2192
2210
2093
1936
1849
1864
1927
1961
1928
1863
1838
1900
2023
2129
2147
2081
1999
1964
1977
1995
1985
1950
1915
1898
1898
1906
1911
1894
1846
1788
1763
1800
1877
1933
1932
1892
1863
1860
1849
1788
1685
1581
1512
1470
1440
1432
1480
1587
1711
1797
1835
1873
1955
2058
2095
1998
1790
1580
1474
1482
1527
1535
1515
1545
1674
1870
2046
2139
2145
2084
1981
1861
1757
1678
1606
1520
1446
1444
1534
1658
1738
1759
1783
1845
1897
1859
1732
1616
1607
1695
1795
1846
1871
1931
2027
2089
2048
1920
1776
1657
1543
1384
1163
931
751
638
530
337
27
-335
-661
-944
-1283
-1730
-2128
-2157
-1620
-677
280
1036
1754
2738
3995
5108
5607
5406
4847
4337
4004
3710
3311
2834
2432
2231
2241
2379
2543
2650
2668
2601
2456
2245
2026
1892
1899
1993
2050
2007
1931
1938
2050
2165
2177
2088
1993
1965
1983
1975
1910
1823
1767
1756
1762
1758
1745
1745
1769
1803
1820
1795
1712
1580
1441
1359
1369
1432
1466
1431
1378
1401
1525
1659
1686
1582
1438
1364
1388
1449
1475
1455
1425
1408
1380
1302
1169
1030
942
912
897
864
830
842
908
976
986
939
884
854
834
798
759
766
850
983
1102
1160
1155
1119
1088
1074
1060
1024
965
913
901
936
987
1024
1050
1094
1160
1216
1229
1206
1206
1286
1439
1593
1677
1665
1602
1570
1626
1758
1883
1913
1830
1713
1673
1749
1868
1928
1893
1817
1776
1793
1838
1882
1916
1934
1917
1853
1779
1755
1800
1866
1874
1794
1669
1562
1503
1478
1473
1495
1560
1656
1746
1798
1812
1811
1815
1823
1817
1780
1713
1637
1581
1575
1632
1741
1867
1964
1997
1970
1917
1882
1885
1906
1911
1885
1842
1821
1847
1915
1983
1997
1936
1832
1749
1729
1757
1786
1789
1791
1827
1889
1928
1914
1859
1798
1735
1645
1523
1412
1369
1407
1480
1540
1581
1642
1747
1863
1917
1862
1732
1607
1551
1565
1602
1630
1652
1695
1769
1852
1915
1944
1935
1894
1831
1759
1681
1599
1521
1469
1457
1464
1443
1374
1309
1320
1425
1562
1662
1718
1773
1851
1924
1962
1969
1960
1914
1795
1625
1500
1503
1615
1723
1746
1691
1620
1572
1526
1429
1254
1003
685
323
-38
-353
-592
-782
-1000
-1317
-1699
-1956
-1863
-1354
-627
19
489
1012
1880
3080
4223
4886
4992
4810
4631
4491
4236
3783
3224
2719
2352
2125
2035
2088
2230
2346
2345
2239
2110
2023
1979
1947
1908
1855
1780
1685
1617
1630
1722
1820
1841
1778
1708
1705
1762
1809
1806
1774
1750
1731
1682
1599
1531
1533
1596
1660
1684
1690
1720
1784
1842
1853
1805
1712
1587
1454
1354
1315
1323
1318
1250
1126
1013
973
1016
1110
1195
1225
1187
1121
1090
1127
1189
1186
1067
882
735
674
662
619
525
437
435
530
656
729
725
702
737
848
965
997
925
823
774
782
789
757
714
706
735
764
787
849
981
1141
1239
1228
1164
1143
1212
1344
1478
1575
1627
1637
1612
1579
1575
1617
1675
1681
1602
1486
1423
1466
1570
1641
1648
1641
1693
1810
1925
1975
1971
1959
1961
1950
1887
1771
1645
1553
1516
1524
1548
1558
1554
1575
1648
1744
1795
1756
1659
1573
1530
1504
1465
1430
1446
1528
1632
1694
1689
1644
1608
1617
1664
1695
1650
1523
1386
1333
1389
1492
1560
1576
1581
-374
-332
-321
-358
-417
-446
-445
-465
-544
-650
-712
-702
-669
-668
-697
-708
-662
-568
-459
-354
-248
-140
-44
13
17
-21
-70
-91
-65
1
86
176
268
353
408
415
382
348
341
352
352
334
331
392
537
722
872
943
966
1002
1053
1055
968
845
802
906
1125
1372
1570
1655
1575
1336
1052
885
902
1003
1034
949
832
784
815
868
886
833
676
410
99
-144
-242
-225
-190
-212
-288
-368
-395
-322
-150
50
168
137
19
-47
23
196
361
425
375
253
123
43
50
158
354
579
748
799
747
686
719
873
1098
1311
1448
1463
1333
1075
757
439
122
-227
-577
-798
-778
-552
-293
-153
-123
-87
13
107
96
-15
-123
-150
-114
-69
-16
92
259
401
432
365
297
294
311
276
207
241
499
948
1406
1678
1686
1500
1257
1056
894
691
381
8
-299
-443
-433
-354
-274
-196
-105
-30
-14
-71
-184
-340
-546
-797
-1074
-1375
-1725
-2124
-2508
-2812
-3063
-3352
-3656
-3755
-3411
-2648
-1772
-1064
-463
352
1568
2948
3985
4337
4092
3618
3216
2908
2543
2009
1356
741
320
163
268
559
891
1089
1037
764
427
194
99
33
-142
-438
-707
-768
-553
-165
206
427
481
440
384
337
286
245
256
331
420
489
599
843
1191
1425
1319
914
546
552
942
1374
1459
1092
511
56
-116
-129
-270
-733
-1450
-2119
-2420
-2246
-1770
-1294
-1017
-940
-939
-901
-808
-724
-719
-815
-987
-1166
-1276
-1273
-1161
-989
-829
-737
-720
-745
-779
-818
-858
-874
-839
-776
-760
-831
-931
-929
-737
-388
8
347
591
742
795
723
503
141
-300
-703
-949
-985
-866
-695
-534
-359
-127
133
316
324
191
71
113
343
646
861
914
849
759
677
560
366
119
-93
-189
-151
-30
91
146
121
59
18
8
-24
-139
-316
-454
-458
-327
-132
55
207
328
417
477
527
581
611
570
459
343
294
309
317
261
158
80
72
113
159
185
210
260
325
361
340
276
217
194
190
171
128
86
56
22
-26
-52
-11
90
169
158
75
6
5
44
57
23
-19
-28
-1
38
63
66
51
30
33
70
107
92
23
-28
12
118
197
188
118
59
49
70
106
161
230
280
301
349
488
702
876
906
798
655
556
486
359
122
-187
-468
-618
-597
-450
-273
-137
-43
53
159
199
88
-174
-488
-771
-1041
-1364
-1742
-2098
-2390
-2684
-3044
-3376
-3441
-3098
-2483
-1879
-1389
-823
45
1157
2158
2722
2836
2738
2622
2478
2208
1811
1406
1092
873
706
592
576
660
782
865
876
841
796
762
732
697
646
577
505
452
435
456
504
571
634
653
589
437
236
49
-81
-145
-157
-139
-104
-51
16
82
125
127
90
25
-64
-169
-273
-347
-368
-340
-296
-262
-244
-247
-283
-349
-417
-454
-459
-471
-532
-628
-701
-713
-694
-728
-866
-1067
-1231
-1287
-1261
-1240
-1272
-1307
-1249
-1063
-814
-590
-403
-202
38
251
330
242
60
-129
-301
-499
-752
-1004
-1162
-1173
-1066
-913
-779
-677
-593
-507
-429
-396
-434
-528
-618
-646
-598
-515
-423
-304
-114
147
422
626
725
758
772
773
742
683
646
668
705
665
539
440
493
678
815
760
577
470
540
685
725
616
468
380
302
138
-94
-246
-211
-56
69
117
188
398
720
998
1116
1093
1033
1007
994
937
822
693
588
493
366
187
-2
-142
-209
-239
-271
-306
-305
-229
-104
1
27
-40
-160
-266
-294
-213
-52
114
224
283
340
407
433
357
205
75
19
-9
-76
-155
-139
18
204
234
54
-212
-387
-431
-446
-534
-687
-816
-856
-811
-713
-564
-353
-104
146
385
636
921
1190
1345
1322
1161
957
779
616
425
216
70
65
206
414
588
666
631
493
277
33
-180
-328
-432
-532
-636
-710
-711
-635
-531
-486
-588
-889
-1373
-1944
-2511
-3060
-3619
-4136
-4415
-4261
-3687
-2924
-2180
-1424
-461
778
2052
2966
3316
3239
3054
2981
2997
2936
2677
2255
1814
1490
1321
1251
1182
1037
785
448
105
-130
-180
-82
62
187
318
488
655
741
747
762
839
897
818
613
440
437
567
677
669
578
502
488
512
537
544
535
529
560
643
748
820
833
798
740
653
533
420
364
365
375
366
364
394
414
368
270
179
101
-45
-292
-516
-535
-331
-113
-109
-332
-579
-684
-690
-762
-961
-1159
-1206
-1090
-941
-860
-813
-699
-487
-258
-118
-92
-102
-73
-8
25
-27
-120
-161
-116
-67
-122
-271
-359
-234
65
307
288
57
-103
39
409
711
722
516
362
433
655
820
813
700
623
651
729
769
761
777
870
992
1015
896
758
761
914
1028
934
704
603
774
1065
1192
1063
853
767
807
800
666
525
524
608
583
379
159
147
353
551
533
322
117
61
128
227
369
650
1080
1510
1745
1713
1495
1209
880
440
-166
-900
-1623
-2134
-2272
-2010
-1497
-976
-621
-425
-235
53
336
405
162
-247
-567
-654
-580
-475
-360
-154
147
404
480
401
307
282
294
292
277
269
259
242
294
507
837
1106
1190
1157
1149
1156
984
507
-138
-633
-777
-651
-491
-445
-471
-419
-194
155
461
558
405
135
-55
-57
82
222
259
210
173
204
258
241
80
-214
-573
-934
-1271
-1591
-1914
-2257
-2641
-3110
-3698
-4372
-4985
-5327
-5246
-4768
-4070
-3305
-2450
-1358
20
1484
2691
3409
3665
3636
3455
3144
2698
2172
1666
1257
977
850
890
1049
1195
1193
1016
768
584
503
459
387
315
323
445
603
683
646
558
499
488
483
448
389
340
335
378
446
511
554
574
570
529
446
352
303
332
405
450
431
381
353
365
391
397
376
329
259
182
136
146
185
194
145
66
0
-46
-104
-189
-284
-367
-440
-520
-600
-647
-649
-635
-656
-743
-872
-979
-1005
-954
-902
-935
-1072
-1228
-1280
-1175
-970
-775
-647
-555
-435
-256
-53
108
183
176
132
105
125
185
254
306
334
362
423
536
686
819
864
808
713
653
640
623
563
492
478
537
613
662
695
757
860
960
1024
1069
1137
1235
1309
1307
1231
1138
1078
1062
1067
1075
1086
1110
1140
1164
1178
1189
1203
1206
1189
1166
1149
1125
1063
950
818
730
737
831
953
1031
1031
989
979
1034
1104
1106
1026
938
905
909
884
813
749
738
766
774
735
663
594
568
624
772
969
1147
1289
1433
1590
1681
1618
1412
1155
901
606
230
-146
-360
-336
-152
58
224
348
467
625
868
1174
1391
1346
1063
788
733
825
823
677
668
1104
1931
2742
3177
3239
3166
3079
2851
2294
1393
343
-603
-1260
-1544
-1492
-1239
-922
-574
-157
294
629
686
481
192
-45
-255
-531
-863
-1149
-1339
-1519
-1799
-2198
-2689
-3294
-4041
-4784
-5198
-5062
-4481
-3783
-3141
-2395
-1290
162
1605
2618
3030
2976
2720
2465
2284
2153
2051
2025
2161
2467
2783
2897
2746
2440
2070
1552
766
-190
-974
-1297
-1186
-883
-553
-196
168
363
219
-208
-661
-982
-1251
-1575
-1837
-1758
-1210
-388
359
829
1071
1225
1323
1282
1059
753
540
513
597
636
556
444
451
602
740
670
370
1
-284
-505
-761
-1043
-1193
-1082
-788
-503
-310
-105
203
485
464
41
-553
-993
-1208
-1409
-1751
-2065
-2013
-1488
-777
-262
-50
47
193
321
275
64
-121
-127
8
159
294
487
771
1046
1180
1142
1004
841
673
512
408
425
561
750
924
1064
1180
1273
1320
1300
1215
1097
993
931
900
868
825
798
846
980
1137
1245
1296
1349
1459
1593
1645
1539
1311
1068
885
743
579
374
189
107
143
242
374
586
944
1405
1799
1959
1879
1706
1574
1469
1281
970
630
390
291
280
311
366
426
448
408
348
335
371
354
189
-102
-426
-722
-1015
-1324
-1551
-1523
-1176
-657
-207
71
267
504
732
758
474
24
-307
-361
-214
-30
139
350
619
824
806
536
156
-145
-287
-312
-290
-215
-9
386
917
1401
1628
1510
1150
748
442
230
44
-127
-209
-126
103
368
551
603
548
422
229
-21
-273
-425
-409
-255
-85
4
27
67
150
195
101
-111
-270
-217
42
369
644
862
1067
1204
1115
671
-88
-985
-1872
-2738
-3659
-4634
-5462
-5819
-5502
-4637
-3634
-2855
-2309
-1686
-731
433
1378
1786
1740
1611
1649
1782
1763
1473
1037
667
456
313
128
-54
-74
162
534
794
823
799
1037
1645
2375
2835
2841
2529
2130
1694
1112
339
-456
-1011
-1215
-1182
-1069
-902
-603
-161
260
440
297
-40
-375
-620
-808
-984
-1102
-1064
-840
-517
-233
-65
9
41
48
-5
-151
-366
-549
-594
-475
-266
-83
-8
-53
-170
-283
-313
-223
-44
158
353
556
766
893
805
463
-20
-471
-815
-1129
-1508
-1915
-2177
-2175
-1978
-1760
-1605
-1426
-1135
-820
-682
-764
-817
-530
118
810
1218
1303
1255
1189
1000
541
-160
-927
-1621
-2182
-2530
-2533
-2148
-1541
-986
-632
-419
-227
-40
58
19
-112
-275
-444
-584
-616
-478
-216
30
148
147
98
28
-100
-293
-460
-499
-418
-328
-310
-325
-275
-132
44
195
328
467
578
584
466
295
160
78
-7
-140
-287
-381
-397
-372
-355
-354
-351
-340
-351
-395
-448
-474
-469
-475
-521
-587
-632
-647
-661
-686
-702
-699
-715
-800
-936
-1030
-1015
-917
-832
-820
-835
-797
-689
-580
-558
-630
-724
-763
-737
-696
-690
-721
-768
-823
-899
-994
-1070
-1092
-1067
-1042
-1037
-1017
-922
-751
-565
-435
-381
-379
-406
-455
-521
-578
-593
-554
-480
-393
-304
-207
-97
17
111
158
134
40
-99
-243
-360
-441
-494
-536
-578
-619
-639
-634
-606
-583
-607
-714
-913
-1179
-1491
-1859
-2292
-2766
-3231
-3692
-4222
-4848
-5401
-5570
-5167
-4347
-3489
-2817
-2163
-1190
172
1567
2514
2827
2724
2531
2373
2162
1802
1340
906
594
415
351
397
525
668
744
717
617
508
442
414
386
341
310
342
438
537
569
541
539
625
757
806
668
373
59
-140
-206
-218
-247
-282
-263
-159
-1
177
385
618
801
824
653
386
156
7
-107
-237
-365
-438
-451
-440
-432
-435
-458
-520
-609
-665
-642
-576
-520
-479
-393
-222
-25
98
93
1
-113
-227
-350
-468
-536
-520
-414
-253
-75
98
231
273
184
-5
-186
-261
-239
-239
-361
-526
-521
-228
231
573
601
370
107
-11
27
59
-73
-379
-679
-703
-310
373
1002
1290
1231
1065
1017
1119
1242
1234
1049
736
409
220
282
551
818
874
724
606
747
1122
1470
1564
1434
1294
1299
1394
1420
1306
1127
974
869
774
692
683
773
910
1021
1090
1154
1221
1268
1297
1359
1467
1555
1523
1371
1199
1089
1011
868
648
453
390
452
542
587
607
651
718
779
821
866
920
932
865
768
752
868
1028
1084
1013
961
1075
1311
1429
1249
854
508
394
443
449
319
155
137
329
640
925
1097
1145
1099
1004
910
851
811
751
657
570
567
687
857
944
876
712
577
544
566
537
422
319
363
585
869
1057
1105
1098
1113
1115
999
750
499
391
427
467
404
262
130
41
-33
-84
-58
18
-22
-301
-709
-991
-1063
-1151
-1550
-2269
-3043
-3671
-4216
-4795
-5262
-5279
-4740
-3945
-3248
-2602
-1609
-79
1602
2787
3191
3089
2912
2800
2598
2176
1617
1072
583
150
-134
-121
171
502
626
529
413
471
718
1014
1194
1170
968
730
633
728
870
847
623
394
387
605
820
821
609
356
206
148
80
-50
-179
-156
139
654
1152
1371
1259
1029
939
1019
1017
691
96
-421
-550
-281
111
336
311
171
116
226
400
418
139
-352
-766
-847
-592
-247
-86
-162
-308
-327
-180
2
67
-31
-251
-508
-712
-790
-717
-541
-377
-320
-384
-490
-518
-414
-217
-38
10
-100
-263
-297
-90
286
612
684
470
127
-144
-241
-187
-67
55
157
259
406
647
965
1239
1323
1178
931
748
678
646
588
550
608
726
784
752
745
875
1059
1099
921
689
597
646
693
678
681
752
782
637
388
268
380
522
435
139
-50
144
654
1140
1328
1218
1003
840
741
626
434
147
-202
-529
-722
-716
-567
-414
-350
-357
-376
-389
-430
-501
-538
-486
-376
-259
-96
218
682
1096
1215
988
626
370
246
80
-262
-694
-991
-1015
-832
-623
-516
-516
-546
-540
-483
-414
-398
-469
-593
-678
-652
-529
-384
-271
-183
-85
8
21
-95
-273
-361
-274
-90
42
61
63
181
398
549
495
297
155
183
282
273
120
-17
9
150
219
115
-48
-93
5
104
69
-86
-258
-412
-643
-1057
-1672
-2436
-3314
-4257
-5090
-5518
-5342
-4685
-3914
-3276
-2636
-1649
-227
1260
2295
2677
2641
2527
2438
2264
1952
1614
1362
1165
932
692
606
743
971
1098
1084
1057
1121
1231
1271
1216
1149
1128
1089
930
654
401
306
383
525
613
585
456
285
163
163
268
360
308
96
-133
-211
-102
79
200
234
244
281
319
309
257
223
235
246
190
73
-19
-13
53
67
-43
-229
-379
-435
-442
-485
-591
-711
-795
-858
-963
-1143
-1352
-1486
-1453
-1263
-1032
-905
-922
-977
-927
-749
-569
-516
-582
-655
-656
-613
-582
-547
-448
-281
-120
-33
-21
-28
-7
51
123
167
146
77
37
101
244
354
356
306
310
387
449
421
342
301
327
354
320
240
168
152
216
373
597
813
936
953
938
959
1012
1041
1020
973
914
817
662
497
411
432
467
380
140
-140
-298
-281
-194
-174
-245
-288
-162
156
551
869
1030
1059
1020
963
899
785
540
124
-382
-790
-937
-851
-716
-646
-537
-191
386
919
1141
1104
1098
1245
1322
1062
567
264
439
924
1333
1515
1648
1917
2244
2376
2166
1674
1044
406
-138
-535
-835
-1149
-1504
-1763
-1787
-1627
-1477
-1473
-1554
-1552
-1361
-985
-523
-140
-1
-98
-189
-18
344
512
254
-128
-49
677
1542
1860
1498
1000
950
1306
1500
1084
218
-512
-709
-528
-441
-744
-1317
-1843
-2185
-2471
-2880
-3441
-4067
-4704
-5304
-5702
-5653
-5084
-4260
-3554
-3050
-2453
-1450
-118
1106
1831
2023
1930
1769
1566
1227
710
122
-338
-478
-259
161
556
816
1011
1210
1310
1124
631
65
-283
-330
-215
-81
53
215
357
407
384
365
334
157
-251
-746
-1057
-1058
-885
-750
-700
-631
-502
-439
-575
-851
-1058
-1066
-951
-861
-829
-760
-596
-411
-328
-382
-512
-645
-755
-844
-905
-925
-904
-855
-779
-679
-586
-535
-542
-598
-717
-912
-1131
-1238
-1141
-915
-753
-758
-825
-792
-665
-640
-875
-1283
-1619
-1765
-1848
-2059
-2399
-2666
-2692
-2516
-2290
-2079
-1815
-1435
-1009
-660
-422
-242
-91
-8
-28
-100
-140
-126
-103
-107
-132
-172
-244
-356
-484
-617
-784
-1018
-1254
-1356
-1226
-905
-506
-126
181
359
350
150
-166
-495
-766
-948
-990
-840
-500
-36
458
891
1185
1288
1213
1052
904
785
640
437
236
129
143
220
285
312
302
248
146
13
-104
-167
-167
-130
-88
-64
-74
-137
-258
-416
-569
-677
-710
-673
-602
-538
-492
-437
-339
-208
-102
-77
-128
-194
-226
-240
-292
-404
-529
-597
-593
-558
-526
-485
-408
-312
-248
-226
-183
-62
104
214
221
179
158
128
-20
-314
-633
-825
-873
-895
-984
-1083
-1050
-839
-561
-370
-293
-223
-53
185
335
300
175
179
436
830
1114
1158
1052
936
783
420
-237
-1017
-1641
-2020
-2313
-2692
-3115
-3394
-3463
-3485
-3679
-4082
-4560
-5006
-5441
-5865
-6097
-5875
-5148
-4173
-3256
-2427
-1438
-141
1231
2222
2590
2515
2367
2324
2267
2008
1544
1036
628
343
136
7
-14
56
133
128
17
-157
-341
-520
-720
-972
-1266
-1540
-1720
-1766
-1696
-1547
-1344
-1098
-851
-655
-515
-403
-313
-306
-438
-671
-871
-906
-758
-522
-325
-246
-288
-366
-343
-137
179
401
361
82
-254
-508
-710
-983
-1365
-1748
-1997
-2078
-2059
-2003
-1906
-1739
-1539
-1403
-1405
-1522
-1660
-1765
-1847
-1958
-2127
-2316
-2444
-2417
-2192
-1839
-1542
-1479
-1645
-1808
-1695
-1253
-700
-316
-192
-206
-223
-257
-430
-812
-1341
-1876
-2283
-2463
-2365
-2013
-1520
-1046
-709
-526
-437
-388
-376
-434
-578
-776
-950
-1013
-937
-754
-532
-336
-206
-166
-204
-276
-325
-330
-317
-308
-294
-254
-217
-246
-378
-569
-736
-822
-827
-778
-687
-562
-430
-329
-284
-299
-364
-463
-567
-649
-698
-725
-716
-637
-475
-271
-107
-32
-32
-72
-153
-292
-472
-634
-739
-803
-861
-903
-885
-798
-711
-713
-823
-983
-1122
-1221
-1293
-1328
-1292
-1175
-1027
-913
-849
-805
-757
-722
-731
-784
-855
-928
-999
-1052
-1059
-1021
-990
-1020
-1094
-1141
-1109
-1032
-981
-980
-977
-917
-799
-681
-613
-600
-618
-646
-672
-693
-710
-732
-767
-807
-828
-803
-736
-666
-623
-602
-566
-490
-397
-336
-327
-335
-322
-310
-370
-546
-787
-975
-1029
-972
-889
-832
-783
-710
-614
-541
-547
-662
-893
-1225
-1630
-2067
-2502
-2918
-3320
-3748
-4256
-4830
-5307
-5418
-5006
-4223
-3443
-2889
-2371
-1486
-106
1376
2368
2631
2449
2279
2287
2277
2017
1529
1044
768
723
815
958
1107
1219
1240
1131
910
657
474
410
434
470
475
481
558
704
847
911
887
823
741
631
501
401
382
435
506
578
691
870
1043
1075
897
592
332
216
208
191
86
-84
-230
-278
-202
-38
122
187
134
43
33
161
370
529
529
343
52
-199
-298
-254
-191
-212
-269
-217
-6
212
232
35
-188
-277
-310
-497
-884
-1281
-1476
-1492
-1523
-1679
-1873
-1956
-1895
-1797
-1762
-1770
-1742
-1643
-1499
-1335
-1167
-1029
-967
-984
-1007
-939
-779
-631
-598
-656
-669
-553
-376
-263
-199
-56
213
430
367
74
-96
156
710
1063
814
84
-595
-767
-472
-166
-250
-701
-1116
-1096
-595
74
527
621
510
435
532
772
1016
1115
1007
769
562
475
446
356
203
86
52
6
-134
-246
-115
277
637
650
355
110
187
470
601
393
30
-156
-8
338
616
671
544
379
284
251
202
72
-123
-291
-328
-181
95
372
529
553
547
614
746
827
769
615
486
453
486
521
544
562
557
500
409
347
349
374
363
326
325
396
494
546
546
559
632
721
725
596
416
329
406
563
641
557
396
313
363
427
340
76
-215
-349
-296
-185
-154
-233
-345
-426
-495
-582
-697
-840
-1037
-1323
-1682
-2038
-2307
-2477
-2630
-2912
-3435
-4177
-4927
-5377
-5326
-4845
-4205
-3623
-3068
-2322
-1231
105
1380
2281
2663
2596
2293
1984
1778
1623
1384
1005
616
422
524
837
1148
1302
1280
1156
996
834
698
622
626
688
756
802
854
940
1048
1130
1171
1197
1226
1222
1149
1035
965
976
999
952
840
754
746
763
723
628
579
664
871
1084
1166
1044
773
484
282
146
-56
-365
-625
-609
-274
154
384
318
129
46
147
330
403
230
-147
-509
-554
-181
380
742
730
553
531
729
890
754
360
-38
-271
-428
-649
-867
-835
-413
254
837
1132
1209
1229
1242
1184
997
678
216
-438
-1220
-1816
-1841
-1279
-598
-357
-615
-851
-569
137
697
718
382
170
304
590
758
791
838
960
1059
1080
1104
1205
1302
1239
982
687
536
579
714
856
1054
1407
1883
2265
2309
1994
1566
1290
1170
970
561
155
108
501
1016
1289
1282
1248
1322
1348
1122
708
396
344
411
375
230
148
208
275
177
-61
-244
-246
-146
-71
-22
108
362
635
752
641
368
58
-185
-304
-305
-267
-274
-302
-224
54
446
742
805
699
612
673
873
1106
1249
1235
1093
942
907
996
1085
1054
913
766
669
580
453
343
348
450
494
362
133
33
210
560
808
765
503
289
338
622
920
1036
966
855
806
794
738
618
484
365
217
-11
-299
-577
-818
-1082
-1461
-1983
-2573
-3067
-3276
-3087
-2551
-1861
-1189
-518
317
1391
2506
3292
3530
3336
3031
2826
2689
2471
2136
1801
1613
1600
1680
1770
1845
1902
1928
1887
1788
1701
1699
1783
1885
1941
1952
1974
2039
2101
2088
1973
1799
1646
1553
1505
1461
1413
1392
1419
1477
1530
1572
1618
1669
1684
1621
1519
1484
1595
1807
1995
2074
2065
2035
1991
1877
1654
1357
1060
797
556
339
196
182
297
471
610
654
607
521
458
444
443
400
308
235
243
305
330
265
163
113
120
102
16
-46
48
302
565
690
701
748
911
1096
1128
951
692
538
568
692
756
678
525
438
508
700
899
1009
1021
987
976
1029
1144
1258
1280
1177
1014
904
897
955
1029
1138
1323
1552
1711
1713
1613
1546
1578
1634
1592
1427
1248
1188
1294
1500
1696
1810
1828
1774
1689
1608
1555
1527
1504
1462
1403
1350
1330
1343
1348
1288
1136
936
787
742
751
709
587
499
579
810
1019
1062
976
923
981
1066
1052
930
809
763
758
728
685
721
877
1100
1294
1427
1549
1706
1864
1916
1790
1512
1188
913
710
552
419
334
324
365
408
450
534
680
826
891
895
976
1241
1609
1897
2057
2260
2703
3337
3879
4112
4094
4030
3975
3743
3171
2343
1523
902
450
57
-289
-483
-462
-324
-253
-353
-566
-784
-1033
-1461
-2185
-3126
-4037
-4733
-5232
-5643
-5916
-5800
-5113
-3995
-2839
-1910
-1075
37
1591
3282
4549
5068
5000
4765
4590
4307
3597
2390
975
-221
-971
-1335
-1492
-1545
-1491
-1306
-1021
-708
-439
-246
-140
-128
-221
-423
-689
-927
-1038
-990
-830
-634
-474
-412
-493
-706
-969
-1188
-1337
-1458
-1564
-1581
-1425
-1118
-797
-579
-465
-378
-280
-220
-264
-423
-653
-905
-1142
-1326
-1419
-1399
-1275
-1084
-893
-793
-864
-1117
-1473
-1823
-2110
-2329
-2467
-2468
-2288
-1961
-1589
-1262
-1006
-817
-727
-782
-982
-1255
-1511
-1703
-1834
-1915
-1941
-1907
-1822
-1697
-1549
-1411
-1338
-1366
-1474
-1583
-1623
-1593
-1536
-1486
-1428
-1338
-1239
-1180
-1166
-1126
-986
-775
-616
-588
-637
-653
-624
-653
-812
-1017
-1109
-1048
-948
-904
-846
-620
-202
244
537
663
738
830
886
814
613
361
121
-81
-220
-263
-196
-63
65
160
235
305
352
339
253
108
-64
-233
-378
-474
-503
-460
-378
-305
-277
-288
-306
-308
-295
-270
-217
-119
9
127
210
264
309
325
258
92
-126
-313
-424
-472
-501
-518
-498
-419
-297
-175
-87
-32
12
46
46
-4
-82
-136
-128
-71
-16
10
20
49
106
169
205
205
184
173
181
198
205
199
199
228
279
327
362
397
438
460
440
417
476
669
948
1219
1420
1552
1611
1554
1336
989
588
161
-326
-866
-1366
-1733
-1994
-2268
-2615
-2969
-3283
-3658
-4238
-4935
-5369
-5193
-4466
-3608
-2951
-2384
-1510
-144
1428
2677
3274
3297
3043
2762
2540
2350
2137
1874
1605
1450
1509
1750
1984
2033
1900
1733
1609
1428
1048
506
53
-68
128
389
474
369
250
255
349
375
205
-171
-656
-1103
-1370
-1385
-1194
-925
-694
-512
-323
-105
94
209
220
143
1
-171
-308
-332
-236
-111
-56
-79
-109
-102
-83
-103
-178
-256
-256
-115
173
536
844
1000
1019
996
972
880
631
240
-163
-478
-734
-1020
-1338
-1576
-1645
-1590
-1543
-1564
-1579
-1479
-1250
-997
-828
-754
-704
-628
-538
-476
-453
-447
-442
-426
-384
-297
-154
14
148
216
246
283
335
376
387
387
419
486
543
544
481
393
329
337
450
686
1026
1417
1788
2068
2196
2131
1883
1519
1126
744
366
-3
-295
-416
-334
-116
129
326
449
483
413
257
83
-36
-99
-151
-208
-205
-60
216
493
615
536
342
156
34
-45
-113
-159
-139
-41
100
226
308
364
427
493
495
358
80
-237
-461
-554
-588
-644
-698
-642
-422
-123
113
225
265
298
321
286
175
37
-67
-121
-153
-187
-228
-266
-282
-259
-196
-134
-126
-172
-208
-167
-74
-27
-83
-192
-264
-286
-328
-430
-519
-471
-266
-13
167
257
339
469
605
655
573
386
165
-16
-139
-249
-408
-649
-935
-1220
-1512
-1867
-2316
-2825
-3355
-3923
-4527
-4997
-5030
-4458
-3470
-2486
-1741
-1057
-86
1220
2461
3142
3140
2776
2446
2261
2063
1712
1266
897
702
643
657
734
876
1033
1118
1082
971
884
882
934
961
916
823
739
688
646
582
509
470
478
484
435
337
250
213
213
212
207
226
279
344
393
422
434
414
346
256
202
207
235
239
226
248
318
375
352
272
210
198
192
140
61
-1
-42
-96
-164
-191
-151
-106
-129
-190
-165
0
195
256
152
26
24
117
148
25
-177
-290
-219
-21
175
282
311
345
449
620
768
795
684
534
477
558
696
775
769
758
825
975
1127
1189
1142
1045
973
963
1000
1007
908
705
497
407
466
579
632
636
718
952
1226
1324
1166
920
831
946
1047
918
612
413
521
832
1072
1110
1071
1108
1186
1142
924
697
654
766
799
596
274
121
306
697
969
904
572
251
174
320
466
446
301
217
310
506
638
629
560
576
728
926
1026
958
770
582
478
446
400
243
-39
-350
-544
-541
-392
-242
-176
-128
38
348
641
718
570
400
389
458
346
-67
-580
-828
-671
-349
-220
-380
-563
-453
-27
427
624
546
410
389
433
386
189
-48
-199
-241
-232
-203
-131
-36
-23
-187
-509
-857
-1144
-1424
-1799
-2272
-2733
-3114
-3483
-3907
-4262
-4261
-3767
-3001
-2344
-1934
-1493
-659
578
1801
2548
2717
2591
2508
2568
2622
2468
2034
1432
897
647
724
967
1146
1158
1093
1081
1139
1167
1091
941
774
592
367
136
-2
5
94
150
136
130
204
329
400
337
153
-69
-232
-280
-203
-51
93
165
155
103
63
73
147
254
311
233
33
-135
-96
160
420
435
165
-162
-275
-122
104
144
-91
-447
-693
-708
-573
-482
-562
-769
-946
-985
-930
-924
-1030
-1143
-1120
-976
-903
-1059
-1331
-1430
-1235
-982
-1000
-1284
-1433
-1132
-571
-259
-411
-689
-655
-337
-177
-449
-901
-1114
-1020
-915
-1028
-1220
-1253
-1122
-991
-879
-615
-152
248
300
78
-45
104
275
102
-421
-902
-1008
-824
-699
-792
-896
-697
-178
361
636
684
776
1057
1368
1449
1250
988
860
804
606
183
-301
-604
-634
-482
-290
-131
8
167
378
607
763
752
582
358
160
-18
-202
-343
-338
-180
-32
-62
-242
-363
-287
-123
-85
-237
-413
-416
-236
-33
63
84
148
282
366
289
79
-141
-298
-422
-550
-622
-526
-261
24
167
166
169
292
501
653
659
567
504
541
644
708
629
366
-34
-464
-822
-1057
-1187
-1251
-1249
-1131
-877
-581
-399
-399
-485
-516
-500
-601
-938
-1415
-1798
-1975
-2055
-2226
-2543
-2935
-3379
-3971
-4723
-5384
-5554
-5058
-4166
-3358
-2828
-2287
-1292
209
1711
2575
2623
2273
2089
2245
2442
2319
1836
1266
891
772
793
851
929
1032
1124
1134
1046
922
851
849
830
681
379
59
-89
0
211
371
420
449
557
712
794
736
590
452
343
213
33
-137
-206
-145
-6
145
283
404
470
436
302
133
-9
-135
-308
-538
-740
-811
-744
-628
-550
-521
-499
-473
-474
-537
-648
-762
-864
-976
-1110
-1224
-1245
-1151
-1013
-944
-995
-1108
-1191
-1214
-1225
-1266
-1301
-1259
-1132
-997
-922
-897
-856
-765
-659
-586
-539
-484
-416
-364
-338
-284
-136
101
341
500
572
622
697
768
765
647
449
255
130
75
36
-31
-117
-155
-90
63
220
302
313
328
422
581
711
725
616
448
300
206
158
138
137
160
199
249
316
427
608
832
1005
998
752
353
5
-117
-34
64
10
-164
-271
-171
77
293
358
292
172
37
-97
-199
-231
-210
-206
-262
-326
-316
-230
-149
-138
-181
-214
-205
-181
-171
-172
-167
-160
-169
-184
-176
-150
-179
-328
-543
-671
-592
-351
-124
-44
-60
-8
196
462
624
613
506
414
374
345
290
243
259
352
470
534
508
438
422
511
620
575
262
-229
-682
-973
-1174
-1439
-1797
-2125
-2316
-2415
-2556
-2800
-3108
-3456
-3904
-4485
-5045
-5303
-5075
-4426
-3560
-2614
-1571
-349
1055
2491
3674
4331
4367
3986
3578
3405
3401
3313
3021
2699
2594
2726
2842
2694
2254
1658
1033
450
-22
-319
-442
-451
-368
-157
148
364
323
121
93
444
961
1235
1117
875
835
959
890
376
-450
-1250
-1840
-2286
-2678
-2951
-2971
-2740
-2426
-2194
-2062
-1956
-1869
-1872
-1992
-2139
-2172
-2030
-1768
-1474
-1201
-954
-748
-646
-713
-960
-1324
-1703
-2002
-2166
-2202
-2165
-2105
-2036
-1962
-1907
-1910
-1983
-2092
-2204
-2323
-2467
-2612
-2684
-2633
-2490
-2323
-2169
-2025
-1896
-1826
-1851
-1951
-2069
-2163
-2225
-2251
-2212
-2104
-1946
-1755
-1534
-1320
-1223
-1346
-1647
-1937
-2057
-2054
-2081
-2165
-2119
-1777
-1229
-775
-602
-598
-528
-335
-183
-222
-381
-459
-374
-241
-200
-248
-284
-279
-329
-518
-791
-998
-1071
-1074
-1093
-1112
-1041
-851
-625
-469
-401
-369
-333
-317
-343
-394
-417
-391
-365
-404
-510
-626
-697
-740
-803
-890
-936
-889
-812
-866
-1159
-1616
-2017
-2199
-2168
-2026
-1819
-1515
-1108
-692
-375
-162
30
231
351
285
74
-105
-103
54
214
256
196
113
50
-14
-117
-272
-446
-598
-697
-727
-687
-583
-434
-279
-179
-203
-384
-692
-1028
-1292
-1445
-1514
-1521
-1446
-1248
-941
-605
-326
-119
57
226
327
267
26
-317
-672
-1024
-1411
-1839
-2258
-2627
-2966
-3323
-3723
-4169
-4680
-5237
-5674
-5715
-5210
-4342
-3471
-2756
-1967
-778
771
2197
2992
3087
2844
2642
2531
2307
1818
1143
498
49
-168
-206
-140
-46
22
45
23
-37
-125
-209
-253
-257
-272
-335
-416
-439
-368
-259
-204
-228
-277
-292
-288
-327
-448
-617
-764
-852
-893
-921
-951
-971
-968
-943
-909
-876
-846
-816
-794
-800
-847
-935
-1052
-1177
-1291
-1389
-1479
-1574
-1669
-1717
-1670
-1514
-1300
-1103
-963
-865
-795
-777
-859
-1050
-1302
-1554
-1783
-2001
-2203
-2359
-2435
-2420
-2343
-2245
-2163
-2106
-2048
-1949
-1810
-1690
-1652
-1688
-1730
-1729
-1726
-1797
-1950
-2104
-2168
-2120
-1991
-1784
-1477
-1082
-676
-340
-89
110
267
331
249
51
-157
-275
-280
-222
-165
-135
-105
-29
99
227
287
265
204
151
112
83
80
120
176
190
174
235
480
887
1307
1616
1802
1912
1928
1766
1395
908
426
-12
-435
-821
-1059
-1047
-817
-512
-263
-100
20
137
251
339
361
287
138
-11
-78
-46
22
73
116
186
279
351
392
455
589
766
892
915
864
804
761
720
677
661
692
754
812
847
862
860
839
801
755
707
655
619
640
743
906
1064
1172
1231
1265
1291
1295
1262
1185
1071
933
792
671
590
553
550
558
549
499
398
267
139
26
-94
-247
-435
-642
-860
-1097
-1360
-1655
-2016
-2498
-3082
-3592
-3747
-3393
-2663
-1883
-1252
-648
214
1418
2680
3561
3844
3682
3392
3172
2989
2718
2320
1886
1544
1363
1320
1359
1430
1502
1548
1519
1370
1116
837
618
481
391
316
277
317
448
633
840
1065
1296
1469
1511
1411
1245
1102
1009
939
871
826
831
872
902
894
866
841
818
767
671
561
480
442
423
388
330
269
210
139
39
-81
-191
-275
-342
-395
-413
-378
-312
-259
-239
-231
-216
-216
-270
-381
-497
-568
-594
-606
-606
-557
-439
-289
-171
-110
-71
-25
10
-5
-76
-161
-209
-202
-169
-127
-68
25
151
278
361
371
310
206
106
56
73
136
200
244
291
391
551
719
829
874
902
959
1036
1092
1111
1105
1099
1112
1167
1283
1426
1513
1503
1459
1488
1601
1671
1591
1423
1345
1435
1580
1619
1535
1475
1567
1787
1996
2077
1998
1781
1485
1192
962
789
633
495
441
534
752
1000
1195
1330
1415
1431
1368
1238
1063
857
642
476
417
458
511
514
494
526
652
844
1039
1183
1211
1089
883
737
728
775
741
622
570
695
911
1037
1031
1054
1243
1487
1543
1309
960
784
904
1147
1243
1093
867
874
1282
1937
2446
2501
2127
1639
1331
1244
1203
1031
689
266
-129
-430
-588
-611
-600
-732
-1143
-1813
-2530
-2985
-2957
-2469
-1798
-1260
-901
-435
470
1814
3155
3952
4021
3646
3276
3137
3134
3054
2795
2424
2079
1863
1815
1907
2043
2111
2055
1918
1801
1768
1800
1806
1724
1581
1463
1423
1426
1390
1269
1118
1033
1050
1109
1121
1052
951
874
846
851
863
866
846
816
815
871
965
1029
1016
949
886
850
803
695
528
355
224
160
160
206
263
284
240
144
34
-63
-150
-242
-335
-402
-427
-422
-410
-415
-426
-421
-390
-355
-344
-366
-401
-415
-397
-367
-378
-473
-653
-869
-1037
-1096
-1044
-956
-931
-999
-1090
-1088
-933
-719
-612
-693
-851
-872
-673
-391
-245
-303
-408
-354
-121
103
123
-69
-288
-332
-163
66
177
127
21
-7
68
141
103
-43
-201
-285
-280
-229
-188
-190
-233
-263
-202
-48
107
153
85
23
63
165
190
64
-146
-332
-442
-469
-399
-222
-15
87
11
-148
-197
-42
208
344
251
15
-133
-25
271
499
477
294
221
387
611
619
399
224
321
577
681
505
248
169
274
360
304
206
239
416
579
588
465
375
449
675
882
892
683
446
437
733
1137
1381
1338
1098
835
663
608
632
649
561
356
177
192
403
606
595
391
184
80
-43
-382
-950
-1551
-2015
-2397
-2885
-3526
-4102
-4299
-3987
-3332
-2610
-1956
-1267
-361
789
1971
2901
3433
3651
3737
3760
3632
3243
2645
2061
1706
1601
1581
1496
1358
1297
1382
1509
1524
1413
1334
1405
1544
1575
1448
1298
1266
1331
1369
1329
1276
1263
1231
1110
957
915
1021
1149
1161
1078
1018
1029
1047
1009
949
923
905
865
872
1030
1288
1414
1240
881
626
580
550
324
-14
-170
-19
241
351
306
309
463
629
607
402
191
96
54
-54
-229
-354
-350
-261
-199
-226
-321
-421
-470
-458
-420
-405
-431
-457
-442
-389
-333
-289
-251
-213
-194
-195
-167
-52
134
296
374
413
502
651
769
778
701
619
574
539
496
484
529
585
581
532
537
665
847
948
909
809
765
811
881
899
849
772
713
696
716
742
734
685
632
618
644
663
632
579
566
625
720
787
798
780
792
873
1003
1106
1104
984
826
739
756
803
792
717
648
637
671
715
764
813
820
742
616
555
617
724
734
617
489
471
548
615
609
564
533
516
496
486
510
524
453
300
179
212
377
518
514
414
383
521
764
958
1015
976
926
903
878
817
739
672
620
568
539
574
658
697
587
349
117
-22
-129
-349
-712
-1102
-1383
-1565
-1791
-2203
-2843
-3650
-4481
-5105
-5271
-4883
-4120
-3304
-2575
-1737
-473
1247
2996
4185
4534
4271
3876
3647
3514
3217
2649
1986
1517
1389
1509
1701
1849
1926
1916
1784
1554
1349
1298
1389
1471
1410
1246
1148
1228
1426
1580
1594
1503
1405
1346
1295
1192
1015
792
595
503
548
697
870
1003
1086
1149
1204
1230
1209
1141
1027
862
661
495
446
532
676
768
769
727
716
755
781
696
448
105
-162
-193
20
319
509
535
505
537
632
682
589
341
-3
-351
-604
-697
-661
-613
-649
-737
-745
-592
-340
-132
-44
-28
0
77
190
315
427
473
407
242
64
-44
-71
-69
-81
-84
-18
154
425
758
1097
1377
1545
1600
1604
1629
1673
1657
1532
1365
1301
1416
1644
1851
1993
2135
2327
2479
2424
2087
1570
1055
654
370
168
58
79
248
539
889
1228
1489
1619
1590
1429
1241
1134
1115
1068
870
553
301
237
279
224
-17
-312
-479
-477
-376
-195
141
663
1251
1734
2048
2219
2221
1962
1423
754
153
-316
-737
-1161
-1496
-1607
-1493
-1289
-1128
-1030
-942
-849
-782
-757
-752
-733
-699
-667
-632
-570
-464
-333
-229
-195
-230
-296
-354
-389
-405
-410
-392
-340
-279
-273
-366
-529
-666
-729
-776
-920
-1190
-1477
-1668
-1789
-1971
-2275
-2604
-2845
-3031
-3320
-3780
-4291
-4722
-5090
-5473
-5747
-5589
-4843
-3802
-2970
-2518
-2088
-1261
-117
792
1050
838
695
905
1270
1449
1404
1378
1526
1725
1775
1677
1588
1545
1407
1083
720
546
563
527
270
-40
-105
82
201
-31
-512
-863
-843
-568
-337
-333
-487
-580
-438
-85
220
153
-366
-1037
-1445
-1492
-1454
-1569
-1672
-1385
-633
200
693
833
918
1092
1181
986
594
266
130
89
43
40
170
369
486
467
397
359
336
277
204
161
126
19
-194
-453
-694
-945
-1276
-1664
-1956
-2004
-1804
-1461
-1077
-694
-355
-135
-76
-128
-190
-224
-291
-458
-693
-884
-952
-904
-775
-563
-262
90
418
681
895
1069
1152
1084
896
711
626
634
667
702
781
923
1068
1135
1124
1107
1127
1144
1085
950
825
787
838
921
986
1033
1079
1122
1135
1113
1085
1080
1105
1144
1170
1156
1091
979
852
744
665
598
532
486
492
561
655
717
713
661
614
618
661
669
580
436
378
516
797
1043
1125
1091
1090
1173
1230
1127
876
630
500
450
379
264
175
156
143
47
-128
-273
-305
-249
-192
-173
-147
-43
146
359
531
635
675
661
615
595
661
810
961
1043
1095
1255
1611
2065
2396
2462
2322
2122
1900
1548
954
172
-623
-1306
-1886
-2414
-2851
-3088
-3102
-3046
-3137
-3435
-3743
-3772
-3403
-2791
-2205
-1756
-1277
-507
619
1867
2885
3465
3640
3567
3369
3094
2769
2424
2074
1726
1413
1215
1198
1316
1412
1349
1137
926
863
956
1103
1217
1301
1391
1466
1467
1393
1341
1400
1541
1642
1633
1563
1525
1525
1473
1302
1048
810
642
518
396
275
197
200
279
403
529
622
664
659
625
571
492
390
296
258
313
459
656
846
976
1018
974
869
728
553
328
49
-255
-516
-667
-680
-592
-463
-331
-195
-61
18
-21
-184
-388
-539
-614
-663
-718
-738
-658
-477
-274
-132
-73
-69
-93
-132
-160
-145
-78
6
74
140
238
357
435
423
349
291
294
324
331
311
296
304
321
328
336
370
434
500
543
558
562
573
603
651
701
724
701
650
620
644
703
741
725
682
657
665
679
665
625
584
549
511
471
454
467
487
477
438
399
373
338
286
254
270
300
278
215
229
427
761
1064
1215
1249
1267
1290
1243
1079
851
642
475
327
214
195
286
407
448
381
259
148
63
-5
-48
-50
-17
31
95
191
326
465
564
609
608
566
495
431
429
504
606
670
676
652
623
567
450
282
114
0
-63
-127
-235
-388
-565
-764
-1009
-1311
-1646
-1992
-2384
-2883
-3456
-3894
-3914
-3414
-2607
-1847
-1275
-685
217
1435
2590
3254
3326
3077
2838
2702
2533
2200
1752
1347
1099
989
939
908
900
911
911
863
776
703
699
766
852
904
914
891
819
667
453
277
238
307
320
167
-44
-71
176
505
616
402
50
-190
-245
-240
-285
-332
-247
35
440
817
1036
1055
922
710
454
145
-202
-485
-566
-410
-155
14
63
126
301
506
559
382
97
-124
-230
-281
-316
-280
-125
85
211
188
99
69
116
133
35
-114
-138
63
382
585
530
312
191
340
667
892
817
509
212
112
173
213
119
-30
-47
177
592
1040
1381
1567
1617
1576
1502
1453
1457
1488
1476
1369
1202
1071
1052
1129
1216
1230
1156
1048
969
948
990
1094
1248
1406
1500
1504
1468
1474
1536
1559
1431
1159
901
821
928
1070
1112
1077
1103
1246
1408
1441
1312
1130
1010
950
870
725
560
451
436
498
597
694
749
746
715
716
777
857
879
809
695
604
561
532
462
333
175
36
-40
-44
3
79
181
319
480
616
675
653
599
559
533
491
426
389
440
581
733
795
741
646
630
736
875
906
779
596
513
573
646
561
284
-23
-151
-67
61
35
-173
-430
-641
-873
-1265
-1835
-2454
-3023
-3601
-4244
-4762
-4781
-4126
-3086
-2151
-1476
-718
501
2056
3352
3901
3795
3509
3356
3230
2871
2258
1645
1261
1109
1042
986
994
1104
1252
1320
1277
1220
1254
1372
1468
1473
1443
1480
1593
1665
1580
1364
1173
1131
1178
1132
896
604
516
758
1149
1350
1183
818
634
834
1248
1493
1353
990
782
962
1415
1774
1720
1254
708
477
672
1014
1121
899
636
654
941
1180
1133
917
788
806
784
570
265
90
103
187
270
414
653
837
788
559
433
562
716
519
-85
-690
-833
-481
-38
129
45
-9
133
364
511
528
470
326
54
-251
-332
0
603
1134
1391
1526
1821
2317
2694
2596
1995
1236
722
551
475
193
-299
-681
-627
-175
264
353
206
248
678
1177
1255
846
413
406
756
1005
881
561
380
423
545
659
810
985
1002
762
468
447
738
993
880
475
179
269
620
907
952
829
694
611
540
439
319
235
233
298
354
354
366
505
767
954
868
569
353
423
641
682
436
156
135
360
548
508
341
240
228
200
164
264
530
742
663
372
221
415
751
866
682
488
568
866
1099
1112
1011
969
990
946
782
592
489
469
453
407
369
386
436
446
355
130
-211
-619
-1038
-1449
-1885
-2390
-2961
-3558
-4122
-4558
-4727
-4511
-3941
-3206
-2464
-1654
-572
831
2263
3285
3708
3722
3641
3570
3378
2952
2383
1874
1551
1393
1331
1351
1457
1595
1678
1647
1539
1427
1361
1342
1326
1283
1226
1191
1198
1221
1214
1164
1104
1055
989
870
729
662
720
840
902
870
838
905
1046
1120
1017
782
568
497
556
635
645
587
544
594
732
863
888
788
632
510
433
340
190
20
-91
-102
-55
-23
-50
-133
-243
-350
-435
-495
-544
-600
-653
-658
-584
-457
-333
-249
-193
-140
-96
-85
-121
-184
-241
-266
-258
-253
-293
-376
-386
-160
336
922
1316
1406
1350
1386
1530
1535
1156
428
-343
-863
-1065
-1072
-1002
-872
-635
-276
156
571
854
923
793
600
499
516
529
426
270
267
551
1010
1367
1439
1288
1134
1110
1164
1151
1021
857
770
770
780
755
731
763
814
781
627
449
376
414
440
358
218
148
198
297
370
434
547
710
862
952
996
1028
1055
1060
1028
945
790
555
290
74
-64
-151
-194
-144
44
318
546
657
713
808
940
1017
987
910
878
912
966
1018
1100
1229
1359
1422
1417
1410
1445
1489
1469
1361
1221
1120
1083
1079
1072
1059
1060
1071
1064
1023
980
950
920
859
750
623
493
314
48
-260
-517
-735
-1052
-1578
-2215
-2730
-3037
-3309
-3727
-4152
-4166
-3512
-2403
-1326
-515
262
1370
2825
4210
5063
5276
5110
4884
4705
4474
4079
3557
3072
2803
2793
2929
3055
3084
3031
2945
2799
2509
2039
1495
1055
843
854
1003
1228
1524
1903
2326
2705
2958
3056
3013
2849
2580
2244
1916
1685
1605
1654
1737
1760
1687
1547
1405
1306
1251
1197
1115
1019
978
1051
1214
1355
1355
1193
938
670
406
120
-189
-463
-623
-619
-469
-252
-72
-14
-72
-171
-271
-446
-797
-1304
-1774
-2012
-2004
-1897
-1804
-1673
-1384
-944
-510
-226
-98
-61
-89
-213
-423
-642
-804
-909
-980
-985
-862
-649
-506
-576
-859
-1224
-1565
-1876
-2168
-2360
-2289
-1859
-1138
-301
500
1183
1717
2080
2255
2232
1996
1558
1011
533
283
289
431
566
670
810
1011
1191
1223
1062
791
577
545
656
689
430
-110
-648
-910
-934
-1046
-1458
-1978
-2186
-1887
-1296
-736
-272
270
962
1603
1958
2035
2037
2061
1973
1614
1057
553
267
165
126
123
217
399
546
556
475
440
514
597
547
339
119
62
201
389
445
324
140
42
53
77
13
-122
-216
-176
-21
146
231
220
156
86
34
15
43
117
207
290
370
468
582
674
715
711
689
655
589
499
440
464
562
670
730
734
704
637
511
322
87
-175
-466
-799
-1172
-1562
-1932
-2256
-2560
-2940
-3492
-4165
-4712
-4824
-4394
-3638
-2895
-2285
-1592
-527
908
2340
3320
3685
3626
3449
3296
3099
2740
2214
1627
1111
745
552
521
614
772
942
1101
1251
1396
1532
1639
1678
1587
1317
891
418
43
-161
-230
-241
-215
-114
86
331
515
577
547
489
433
344
195
49
13
121
273
343
344
407
586
716
572
175
-132
-11
509
1062
1352
1431
1545
1747
1790
1434
736
-18
-626
-1125
-1619
-2049
-2220
-2040
-1653
-1304
-1111
-1015
-909
-799
-785
-919
-1121
-1246
-1233
-1158
-1117
-1072
-870
-419
162
625
827
860
908
1022
1084
975
725
462
259
76
-146
-382
-541
-564
-483
-395
-406
-564
-818
-1032
-1067
-898
-639
-437
-324
-194
72
456
805
972
921
739
545
418
371
398
485
597
685
726
733
727
707
669
637
645
678
660
549
438
500
810
1248
1616
1832
1957
2035
1978
1667
1121
509
-28
-485
-913
-1275
-1432
-1303
-966
-583
-263
-30
130
209
203
151
87
4
-114
-236
-282
-209
-54
100
191
210
180
124
66
43
87
184
281
312
253
130
-7
-121
-196
-230
-208
-110
72
308
543
740
893
1008
1075
1071
987
856
723
621
563
542
544
563
592
639
705
760
755
672
544
426
322
184
-13
-241
-468
-734
-1106
-1567
-1993
-2296
-2548
-2897
-3328
-3583
-3386
-2764
-2055
-1564
-1240
-754
106
1172
2044
2470
2530
2488
2504
2529
2417
2116
1706
1319
1042
892
857
923
1056
1193
1259
1233
1173
1157
1193
1205
1124
969
834
787
811
839
840
842
868
891
860
769
670
610
594
588
564
525
483
438
388
333
268
178
53
-90
-203
-234
-176
-70
26
78
109
163
252
332
343
274
167
60
-55
-202
-360
-463
-485
-479
-507
-556
-550
-468
-394
-439
-610
-800
-914
-951
-965
-975
-941
-833
-664
-485
-325
-186
-69
11
41
16
-61
-175
-299
-403
-463
-476
-447
-368
-228
-35
158
285
317
280
225
183
143
76
-20
-109
-135
-56
114
309
444
478
455
440
441
381
181
-119
-366
-433
-346
-243
-208
-170
-2
297
565
644
569
533
672
909
1040
959
755
602
564
572
540
477
447
464
514
625
854
1157
1340
1217
832
451
279
253
138
-159
-452
-485
-230
91
261
260
214
218
234
183
56
-80
-146
-108
14
144
204
175
138
209
409
608
644
498
343
378
606
831
852
680
522
541
678
741
658
564
621
790
867
763
627
655
851
1028
1033
911
800
736
654
520
365
193
-58
-408
-750
-960
-1057
-1201
-1511
-1969
-2508
-3103
-3678
-3998
-3819
-3182
-2446
-1914
-1473
-731
479
1812
2717
2957
2779
2576
2493
2402
2179
1883
1657
1542
1461
1334
1182
1074
1014
937
769
526
301
191
214
304
378
405
409
424
447
456
453
484
564
626
570
378
175
111
202
302
258
70
-113
-164
-104
-60
-120
-239
-306
-268
-162
-72
-50
-89
-143
-166
-153
-142
-174
-254
-345
-412
-448
-459
-444
-396
-331
-278
-251
-233
-208
-208
-291
-463
-655
-774
-800
-820
-938
-1171
-1405
-1497
-1397
-1201
-1074
-1093
-1182
-1201
-1092
-955
-942
-1088
-1253
-1253
-1058
-835
-757
-822
-856
-727
-490
-306
-249
-251
-224
-182
-194
-247
-231
-91
75
120
40
-1
131
368
505
430
265
231
427
734
929
892
695
517
481
530
486
260
-6
-57
171
429
426
188
69
354
889
1198
1004
529
237
346
624
696
459
147
66
303
663
873
807
567
368
341
410
410
302
222
290
413
385
168
5
179
656
1072
1135
961
942
1306
1885
2321
2443
2372
2291
2190
1904
1378
766
271
-69
-385
-764
-1098
-1175
-898
-431
-77
-13
-154
-272
-197
54
318
435
351
136
-70
-137
-40
113
151
-15
-306
-539
-568
-399
-168
-27
-36
-155
-341
-634
-1105
-1755
-2481
-3153
-3711
-4131
-4329
-4164
-3595
-2761
-1825
-781
489
1925
3154
3766
3733
3462
3346
3334
3027
2212
1189
542
570
1038
1454
1548
1455
1470
1680
1899
1933
1820
1749
1804
1876
1854
1827
1982
2318
2582
2552
2288
2028
1873
1674
1274
757
374
262
311
331
262
198
244
414
638
822
918
951
996
1097
1203
1209
1084
911
801
778
788
798
862
1027
1248
1409
1444
1393
1356
1378
1385
1249
911
466
111
-21
23
99
145
224
388
551
580
477
381
371
349
185
-52
-135
51
345
507
495
482
609
799
858
729
553
501
592
696
682
550
417
406
543
737
851
824
719
662
714
828
904
895
828
747
669
599
557
582
676
784
854
879
895
928
969
1000
1018
1038
1073
1127
1204
1314
1455
1581
1622
1542
1375
1190
1024
853
639
388
152
-13
-87
-73
1
102
188
233
252
277
314
323
270
182
146
207
307
329
226
88
60
176
303
283
113
-42
-10
203
428
510
452
384
404
483
520
461
343
244
201
192
179
161
178
274
446
645
829
1013
1254
1558
1821
1884
1687
1325
955
651
361
4
-407
-774
-1024
-1164
-1224
-1233
-1221
-1256
-1410
-1684
-1996
-2250
-2422
-2589
-2888
-3427
-4171
-4875
-5164
-4811
-3978
-3114
-2541
-2108
-1350
-7
1629
2929
3470
3351
2999
2746
2610
2405
2004
1471
995
733
706
826
973
1053
1040
933
752
557
436
438
507
528
432
261
108
14
-39
-56
10
174
360
463
471
478
550
612
542
336
143
101
177
229
182
98
78
139
216
257
266
252
196
75
-78
-198
-259
-292
-350
-436
-517
-579
-653
-773
-916
-1004
-960
-792
-591
-464
-444
-465
-456
-436
-484
-625
-763
-784
-691
-587
-520
-387
-46
480
982
1283
1390
1428
1427
1254
794
123
-553
-1093
-1507
-1838
-2045
-2032
-1778
-1393
-1019
-724
-486
-261
-42
138
224
179
20
-162
-258
-233
-109
99
439
943
1535
2036
2309
2384
2394
2419
2389
2166
1707
1126
605
242
1
-212
-438
-634
-730
-708
-639
-623
-701
-830
-924
-931
-881
-839
-838
-844
-805
-711
-619
-579
-571
-524
-411
-300
-282
-382
-530
-651
-760
-926
-1160
-1357
-1375
-1173
-864
-606
-482
-477
-547
-679
-874
-1087
-1236
-1269
-1223
-1195
-1234
-1289
-1289
-1246
-1286
-1523
-1922
-2302
-2488
-2462
-2344
-2244
-2141
-1937
-1590
-1189
-873
-708
-669
-697
-753
-826
-903
-981
-1077
-1205
-1340
-1447
-1530
-1659
-1919
-2290
-2661
-2912
-3013
-3024
-3021
-3054
-3128
-3230
-3364
-3585
-3990
-4613
-5299
-5722
-5609
-4996
-4211
-3547
-2947
-2086
-767
774
2000
2536
2468
2185
1977
1816
1502
968
362
-121
-396
-500
-472
-336
-186
-175
-376
-665
-811
-717
-501
-341
-257
-123
138
432
607
630
599
587
547
387
101
-212
-455
-611
-711
-743
-653
-443
-213
-78
-58
-84
-91
-93
-152
-283
-428
-513
-512
-445
-351
-264
-215
-226
-274
-309
-312
-319
-383
-515
-661
-755
-766
-707
-627
-578
-576
-590
-583
-558
-569
-659
-794
-902
-949
-988
-1071
-1170
-1199
-1129
-1031
-994
-1015
-1018
-949
-843
-770
-757
-766
-754
-713
-662
-618
-585
-558
-529
-484
-418
-346
-295
-284
-298
-302
-274
-227
-189
-181
-177
-120
17
189
297
297
249
246
300
326
259
148
95
123
159
177
277
574
1023
1432
1643
1679
1648
1575
1374
983
457
-80
-550
-935
-1208
-1308
-1218
-1012
-798
-634
-510
-421
-395
-445
-536
-616
-675
-741
-809
-788
-582
-197
236
557
695
708
680
622
466
172
-194
-483
-593
-558
-495
-496
-541
-560
-537
-528
-599
-746
-897
-983
-995
-972
-927
-816
-594
-299
-55
36
0
-23
69
236
347
337
295
351
509
626
546
248
-153
-522
-796
-986
-1119
-1212
-1276
-1332
-1425
-1602
-1894
-2298
-2802
-3403
-4064
-4664
-4981
-4822
-4193
-3320
-2461
-1680
-816
286
1536
2608
3187
3240
3021
2814
2690
2505
2119
1593
1154
978
1030
1134
1183
1219
1339
1544
1723
1770
1678
1522
1348
1147
908
667
479
355
262
190
190
325
581
850
1034
1137
1244
1399
1545
1600
1570
1537
1542
1513
1365
1142
1006
1053
1203
1323
1407
1562
1819
2041
2067
1898
1656
1364
890
156
-670
-1285
-1554
-1602
-1604
-1544
-1273
-756
-168
278
511
599
607
522
329
86
-116
-226
-254
-237
-201
-157
-115
-77
-51
-67
-155
-295
-419
-472
-472
-469
-476
-444
-348
-244
-214
-263
-308
-275
-185
-118
-122
-160
-180
-174
-172
-192
-212
-199
-143
-62
20
100
183
262
309
301
253
208
188
165
82
-67
-212
-276
-264
-242
-245
-215
-73
170
401
512
513
507
572
671
703
612
439
285
221
234
259
249
211
181
179
190
190
168
134
99
75
63
57
46
26
18
43
95
126
102
51
32
69
119
127
93
59
39
-11
-136
-307
-429
-437
-360
-279
-226
-152
6
234
454
603
689
758
840
929
1009
1073
1121
1138
1104
1023
940
895
872
808
661
472
336
300
308
259
111
-96
-306
-512
-744
-1024
-1371
-1833
-2431
-3048
-3422
-3333
-2822
-2188
-1692
-1266
-577
595
2046
3265
3870
3910
3748
3684
3704
3581
3147
2476
1832
1465
1437
1629
1860
2008
2058
2055
2050
2067
2103
2121
2064
1925
1778
1721
1766
1810
1761
1687
1747
1959
2114
1981
1598
1272
1259
1461
1534
1283
873
659
813
1168
1400
1350
1156
1107
1354
1767
2039
1963
1610
1250
1078
1046
935
612
182
-109
-108
115
363
504
581
721
956
1190
1309
1302
1258
1244
1224
1119
937
777
713
697
604
387
157
77
184
354
437
428
450
564
674
620
372
89
-46
-17
41
20
-34
-13
112
262
373
457
541
582
506
330
198
233
390
494
436
304
287
481
791
1036
1116
1068
1003
994
1027
1049
1021
936
809
668
563
541
590
636
601
496
413
428
508
569
588
639
778
947
1024
976
898
890
918
857
652
401
251
251
319
355
333
289
261
251
251
270
311
350
350
312
278
289
339
364
308
175
37
-34
-28
13
44
51
55
78
127
188
235
245
212
164
137
147
179
203
200
167
116
76
70
92
106
74
0
-66
-87
-72
-71
-125
-227
-362
-532
-732
-938
-1124
-1316
-1561
-1865
-2165
-2432
-2769
-3334
-4111
-4799
-5022
-4675
-4039
-3498
-3145
-2686
-1749
-306
1224
2283
2616
2443
2215
2200
2272
2109
1594
968
597
597
756
803
679
530
465
418
280
69
-63
-21
130
257
325
410
574
755
818
709
533
473
594
761
749
470
103
-51
142
528
823
882
807
785
874
980
995
916
795
631
371
25
-278
-386
-282
-118
-52
-107
-172
-148
-59
-13
-76
-222
-373
-463
-467
-397
-298
-219
-174
-145
-110
-114
-230
-432
-569
-521
-353
-285
-460
-745
-855
-658
-323
-141
-233
-447
-546
-447
-265
-156
-155
-151
-10
309
726
1116
1408
1577
1588
1379
957
458
73
-145
-336
-647
-995
-1099
-773
-165
355
558
557
624
866
1139
1222
1049
779
643
750
1003
1165
1065
772
566
668
988
1183
1026
683
535
757
1102
1178
900
574
532
775
1028
1086
1022
1033
1151
1184
944
493
98
-46
16
78
30
-53
-26
138
317
392
365
322
310
297
250
214
281
474
704
834
794
639
486
415
414
413
378
357
421
581
780
949
1064
1125
1120
1042
917
810
773
812
902
989
1008
913
750
667
754
909
926
729
488
420
503
515
309
-28
-358
-720
-1247
-1908
-2470
-2818
-3177
-3851
-4727
-5222
-4850
-3799
-2763
-2201
-1831
-983
602
2425
3695
4063
3846
3583
3497
3399
3029
2387
1716
1266
1114
1182
1362
1571
1749
1841
1814
1682
1507
1348
1224
1111
991
877
803
783
806
857
925
992
1009
930
775
649
645
749
842
825
723
646
666
734
749
659
515
407
388
439
490
478
390
273
190
158
128
43
-90
-196
-218
-176
-143
-159
-197
-222
-238
-273
-339
-413
-474
-522
-566
-605
-630
-646
-668
-699
-738
-795
-882
-983
-1047
-1038
-975
-925
-929
-959
-945
-857
-753
-719
-791
-904
-959
-925
-862
-845
-866
-839
-710
-515
-344
-245
-192
-156
-158
-239
-378
-483
-477
-378
-271
-220
-195
-101
111
384
586
623
521
400
358
374
364
292
226
252
369
491
545
543
528
494
385
186
-15
-88
5
170
272
269
247
321
498
652
641
456
230
123
175
294
366
366
354
381
437
472
465
435
409
383
347
316
324
375
435
465
451
412
360
270
105
-118
-299
-331
-210
-58
-4
-34
6
248
642
1000
1176
1207
1239
1357
1512
1600
1576
1482
1377
1293
1234
1193
1160
1126
1080
1004
856
582
182
-286
-759
-1210
-1638
-2014
-2297
-2468
-2550
-2556
-2501
-2482
-2692
-3212
-3804
-4014
-3583
-2739
-1973
-1473
-889
267
2005
3736
4810
5099
4987
4840
4638
4183
3513
2974
2833
2984
3125
3143
3239
3566
3933
3957
3502
2857
2441
2395
2509
2530
2425
2321
2248
2068
1679
1183
805
642
570
427
269
355
863
1638
2298
2606
2664
2708
2769
2608
2030
1197
518
260
325
445
506
624
905
1241
1384
1207
827
460
212
31
-186
-451
-671
-735
-616
-409
-241
-151
-58
138
424
665
734
651
548
509
468
296
-33
-426
-773
-1052
-1297
-1501
-1581
-1463
-1180
-880
-721
-757
-909
-1049
-1114
-1147
-1219
-1318
-1346
-1207
-918
-607
-399
-317
-292
-251
-187
-142
-136
-139
-106
-30
52
105
109
47
-104
-317
-481
-501
-445
-515
-816
-1194
-1380
-1309
-1215
-1347
-1632
-1727
-1415
-844
-342
-42
203
551
936
1148
1093
872
635
431
228
29
-120
-194
-218
-226
-233
-267
-387
-623
-918
-1157
-1287
-1354
-1423
-1466
-1376
-1097
-718
-426
-328
-359
-362
-293
-274
-450
-763
-972
-887
-584
-307
-188
-111
114
479
766
807
664
543
537
557
490
377
360
501
697
808
801
767
786
844
857
789
688
628
642
706
779
845
901
928
900
816
693
531
314
36
-281
-615
-968
-1336
-1677
-1941
-2180
-2543
-3108
-3711
-4012
-3797
-3191
-2532
-2013
-1480
-632
626
2014
3102
3646
3731
3601
3414
3158
2768
2265
1762
1364
1109
995
1031
1225
1515
1769
1868
1788
1618
1462
1362
1295
1219
1114
989
865
767
715
714
752
799
821
793
714
606
489
369
234
92
-27
-89
-90
-64
-38
-1
84
235
413
554
624
651
682
732
764
740
662
573
505
449
380
289
192
106
43
-3
-50
-122
-211
-258
-181
35
292
451
459
381
304
228
77
-190
-518
-804
-1009
-1175
-1332
-1429
-1389
-1228
-1059
-973
-951
-904
-817
-775
-832
-873
-682
-185
437
907
1136
1268
1443
1569
1392
790
-54
-798
-1226
-1363
-1351
-1268
-1106
-857
-575
-341
-196
-131
-137
-217
-367
-541
-659
-640
-458
-161
131
309
356
346
360
376
301
115
-68
-110
-23
47
17
-3
169
549
939
1134
1127
1066
1046
992
768
349
-138
-544
-807
-963
-1066
-1130
-1128
-1029
-852
-678
-599
-640
-739
-792
-744
-633
-531
-480
-465
-434
-350
-226
-124
-102
-162
-250
-324
-376
-392
-320
-137
74
164
96
47
261
787
1393
1793
1910
1876
1802
1617
1188
533
-154
-694
-1069
-1351
-1538
-1546
-1360
-1123
-1032
-1158
-1409
-1663
-1899
-2182
-2587
-3130
-3760
-4326
-4596
-4391
-3753
-2962
-2309
-1807
-1191
-224
994
2073
2687
2851
2819
2786
2722
2482
2036
1518
1094
824
672
607
648
793
966
1055
1012
898
814
802
820
810
755
681
612
550
500
477
497
540
560
533
474
419
385
363
333
277
190
87
-8
-76
-122
-170
-237
-294
-299
-244
-171
-125
-112
-108
-99
-105
-152
-233
-312
-359
-375
-384
-408
-449
-487
-501
-482
-443
-411
-401
-400
-390
-367
-346
-345
-367
-394
-416
-440
-480
-541
-605
-639
-616
-549
-490
-481
-520
-559
-553
-505
-455
-438
-458
-488
-498
-466
-404
-355
-360
-417
-471
-468
-409
-348
-328
-324
-270
-136
31
154
199
202
217
255
276
244
184
162
214
303
353
341
315
335
401
452
434
349
247
167
121
100
105
144
213
283
318
314
309
356
443
501
464
357
273
273
311
299
223
153
159
216
244
209
163
165
216
275
310
313
272
174
46
-48
-66
-29
-1
-16
-44
-31
31
99
107
0
-239
-564
-881
-1078
-1098
-986
-836
-703
-554
-317
27
404
702
859
889
852
796
743
702
665
610
512
376
244
133
9
-180
-443
-745
-1072
-1438
-1836
-2199
-2472
-2721
-3086
-3574
-3949
-3911
-3392
-2654
-2013
-1517
-935
-77
970
1908
2494
2708
2687
2569
2427
2290
2143
1933
1626
1304
1122
1168
1349
1480
1500
1516
1639
1801
1822
1645
1429
1384
1505
1569
1400
1088
890
936
1104
1161
1031
841
750
774
813
811
829
967
1225
1479
1602
1572
1454
1321
1186
1018
782
488
196
5
5
204
486
682
699
590
481
448
440
364
200
21
-72
-35
109
309
512
659
696
611
465
349
296
256
155
-14
-173
-244
-234
-214
-236
-287
-320
-325
-327
-348
-372
-365
-327
-286
-275
-301
-352
-406
-437
-430
-383
-316
-253
-205
-163
-119
-75
-39
-16
-6
-5
-1
23
84
172
255
307
329
340
347
340
313
281
261
245
216
184
186
247
343
409
393
303
204
165
206
287
331
289
198
170
296
561
852
1047
1107
1053
906
667
354
25
-274
-559
-877
-1204
-1422
-1409
-1174
-865
-641
-543
-490
-401
-284
-208
-216
-274
-329
-382
-469
-570
-583
-423
-136
101
140
26
-59
24
233
405
434
357
280
265
304
358
389
379
346
345
411
506
555
534
483
441
378
230
31
-104
-125
-120
-246
-579
-1042
-1480
-1777
-1946
-2136
-2569
-3312
-4121
-4557
-4339
-3630
-2882
-2365
-1910
-1128
144
1651
2947
3746
4044
4016
3829
3558
3208
2757
2201
1590
1057
756
785
1121
1588
1944
2044
1936
1788
1728
1746
1717
1533
1217
903
759
869
1147
1387
1437
1367
1367
1480
1517
1283
859
546
542
721
822
746
642
690
885
1110
1322
1587
1931
2240
2385
2364
2288
2188
1953
1458
768
130
-251
-376
-380
-359
-291
-106
169
419
555
550
622
663
642
421
-48
-595
-890
-729
-296
-49
-258
-670
-748
-278
357
572
241
-191
-209
201
601
627
336
43
-58
-16
31
21
-23
-93
-191
-269
-259
-151
-8
102
190
306
457
578
613
606
635
738
855
931
998
1128
1321
1461
1431
1252
1089
1073
1151
1130
916
664
626
872
1213
1403
1386
1311
1324
1385
1344
1156
923
747
589
357
94
-15
137
404
509
368
188
235
485
635
455
79
-124
30
337
453
295
121
205
523
801
822
636
480
523
721
881
836
588
320
252
434
685
762
614
440
462
677
873
870
708
561
509
482
395
291
279
381
510
569
573
607
711
832
888
847
735
596
450
308
181
61
-78
-272
-520
-795
-1081
-1386
-1728
-2128
-2637
-3321
-4152
-4910
-5245
-4968
-4231
-3399
-2667
-1852
-627
1040
2737
3918
4355
4252
3976
3711
3397
2920
2301
1683
1215
965
931
1070
1296
1494
1569
1505
1376
1273
1234
1235
1223
1178
1130
1108
1097
1061
999
959
982
1043
1054
976
870
840
912
987
961
849
768
782
817
739
520
284
180
229
315
312
211
99
63
120
214
264
228
142
80
91
152
178
151
136
177
214
143
-13
-103
0
230
401
413
348
367
553
911
1430
2069
2666
2981
2884
2467
1910
1247
361
-798
-2043
-3056
-3648
-3847
-3779
-3508
-3050
-2464
-1882
-1426
-1151
-1021
-968
-940
-908
-877
-853
-802
-663
-419
-150
21
30
-76
-205
-284
-289
-213
-64
133
343
559
801
1063
1282
1399
1436
1481
1576
1647
1569
1302
932
587
332
157
29
-69
-127
-113
-1
182
326
320
155
-50
-166
-183
-191
-237
-248
-120
151
458
716
914
1076
1174
1151
1019
883
844
896
947
943
910
907
945
978
973
949
943
943
904
822
745
723
748
761
726
681
691
779
895
975
1008
1049
1158
1341
1542
1700
1783
1800
1765
1701
1623
1531
1407
1244
1085
1024
1108
1299
1499
1643
1748
1836
1853
1686
1261
625
-123
-930
-1826
-2850
-3935
-4862
-5340
-5181
-4462
-3495
-2585
-1772
-832
428
1876
3096
3731
3781
3548
3331
3210
3093
2891
2605
2287
1997
1793
1728
1799
1908
1932
1823
1626
1409
1208
1065
1056
1246
1578
1872
1976
1911
1805
1706
1510
1097
491
-154
-702
-1130
-1461
-1662
-1655
-1429
-1088
-776
-570
-462
-420
-431
-485
-557
-621
-666
-699
-716
-704
-642
-542
-451
-432
-513
-650
-757
-806
-870
-1053
-1349
-1619
-1721
-1668
-1612
-1657
-1730
-1636
-1273
-749
-312
-148
-259
-491
-685
-801
-913
-1095
-1308
-1419
-1334
-1091
-814
-592
-426
-287
-188
-172
-245
-357
-446
-483
-472
-432
-399
-415
-493
-589
-645
-669
-719
-818
-892
-832
-618
-346
-128
29
197
415
625
732
723
674
663
688
687
623
532
472
450
410
306
159
37
-11
1
18
5
-15
5
90
197
266
261
209
168
160
150
98
19
-34
-29
5
11
-19
-45
-34
2
23
21
25
61
116
151
152
157
204
276
307
263
196
193
263
315
269
196
279
606
1029
1297
1326
1282
1354
1489
1429
1016
398
-109
-351
-445
-570
-733
-772
-590
-281
-18
127
220
323
402
385
271
152
109
131
143
107
54
36
43
3
-132
-325
-499
-632
-783
-1014
-1319
-1652
-2038
-2594
-3358
-4111
-4457
-4149
-3358
-2527
-1915
-1335
-397
989
2410
3285
3390
3007
2577
2292
2026
1615
1094
655
430
378
402
488
674
927
1102
1063
845
667
756
1142
1643
2031
2204
2202
2107
1933
1631
1189
669
162
-268
-595
-805
-863
-748
-510
-288
-230
-349
-483
-451
-271
-193
-410
-770
-832
-291
688
1605
2098
2200
2150
2055
1807
1286
541
-266
-1008
-1611
-1984
-2029
-1751
-1301
-855
-488
-189
48
186
197
126
24
-103
-277
-468
-585
-556
-403
-227
-129
-138
-219
-321
-407
-427
-314
-30
373
767
1042
1189
1248
1222
1063
766
449
268
263
335
380
423
558
771
892
770
451
145
1
-23
-63
-146
-152
39
392
742
949
1007
1005
1017
1036
1007
909
789
735
787
900
996
1047
1119
1293
1554
1793
1907
1904
1868
1835
1737
1476
1047
555
121
-200
-403
-461
-335
-38
321
595
706
685
608
509
373
188
-4
-125
-131
-34
110
266
424
559
615
559
437
347
334
356
345
302
292
353
438
470
430
376
370
424
504
569
594
574
521
463
423
405
393
377
370
395
458
549
645
720
753
738
689
616
517
384
216
26
-178
-406
-673
-984
-1326
-1681
-2036
-2394
-2786
-3257
-3783
-4188
-4224
-3788
-3055
-2342
-1799
-1249
-402
779
1962
2718
2911
2778
2652
2640
2593
2337
1897
1455
1159
1012
936
892
894
938
968
928
836
761
743
754
749
718
680
630
550
446
369
365
427
494
503
447
366
306
287
290
284
250
202
172
178
196
189
146
100
86
99
99
54
-24
-96
-132
-128
-100
-71
-73
-128
-216
-280
-277
-220
-173
-185
-255
-348
-444
-534
-596
-606
-568
-507
-432
-327
-186
-40
75
151
199
212
159
37
-88
-148
-155
-169
-206
-183
-18
247
457
487
354
183
92
108
154
128
-10
-202
-325
-293
-140
9
54
5
-47
-21
86
233
370
460
485
473
501
633
836
979
965
845
770
827
920
871
630
349
217
248
281
182
7
-81
-2
174
340
466
582
654
577
316
11
-137
-56
104
132
-19
-200
-239
-136
-56
-121
-275
-348
-254
-74
43
58
76
206
425
591
575
376
109
-88
-151
-99
7
115
228
366
522
646
675
592
439
264
104
-13
-52
19
194
414
607
730
771
744
685
636
619
605
548
429
289
187
132
77
-33
-197
-357
-443
-462
-513
-714
-1076
-1469
-1755
-1969
-2326
-2974
-3724
-4104
-3775
-2872
-1895
-1207
-683
92
1290
2583
3435
3621
3396
3165
3061
2912
2544
2031
1608
1401
1326
1244
1142
1114
1192
1273
1228
1054
869
786
810
861
872
850
836
858
906
956
1003
1062
1135
1186
1159
1025
823
639
535
505
495
463
408
361
342
339
325
281
212
143
94
59
16
-54
-135
-193
-222
-259
-330
-417
-466
-453
-412
-393
-410
-435
-440
-428
-417
-423
-470
-566
-688
-768
-759
-702
-707
-835
-1023
-1153
-1186
-1189
-1236
-1316
-1371
-1386
-1398
-1415
-1382
-1251
-1054
-886
-809
-804
-822
-830
-821
-785
-726
-688
-725
-813
-844
-745
-572
-464
-482
-531
-479
-327
-181
-86
38
267
500
541
354
160
195
414
539
400
150
97
338
654
757
618
476
544
767
894
762
481
312
398
626
736
603
352
233
348
525
521
278
-30
-188
-159
-75
-52
-70
-32
86
201
245
274
402
600
673
484
165
52
338
823
1098
963
660
615
954
1376
1467
1133
657
388
441
670
886
1031
1137
1215
1225
1191
1242
1484
1843
2094
2113
2021
2074
2376
2758
2960
2875
2595
2280
2002
1737
1464
1175
862
535
239
-6
-259
-604
-1017
-1397
-1748
-2262
-3109
-4111
-4755
-4637
-3846
-2881
-2168
-1652
-911
370
2055
3612
4509
4612
4231
3862
3757
3746
3484
2876
2223
1925
2077
2420
2661
2686
2518
2153
1616
1110
931
1155
1502
1637
1536
1476
1621
1823
1848
1702
1597
1611
1581
1384
1155
1109
1234
1284
1128
922
873
955
937
726
509
502
663
743
605
392
345
519
717
695
416
88
-49
70
275
346
230
58
-46
-108
-230
-404
-483
-386
-259
-322
-572
-730
-555
-155
112
45
-184
-263
-121
20
-57
-324
-603
-791
-915
-993
-955
-759
-495
-310
-240
-181
-62
58
51
-113
-328
-483
-551
-566
-537
-452
-341
-284
-325
-388
-354
-205
-57
-35
-117
-144
-3
243
431
478
438
403
390
358
301
266
281
305
284
224
179
197
272
378
485
551
532
427
317
298
373
437
385
235
91
25
18
10
-18
-36
-20
26
100
208
325
385
349
262
218
257
324
338
294
260
293
360
388
355
313
320
374
417
424
431
492
605
704
735
718
714
750
787
780
751
772
881
1035
1163
1236
1272
1290
1282
1242
1186
1132
1074
1004
943
924
941
925
835
693
531
328
24
-380
-809
-1193
-1547
-1937
-2398
-2930
-3535
-4200
-4771
-4960
-4559
-3684
-2697
-1853
-1029
109
1652
3247
4373
4783
4658
4351
4058
3752
3346
2851
2358
1968
1753
1739
1895
2094
2181
2106
1939
1788
1657
1464
1185
937
868
974
1088
1067
971
984
1190
1464
1619
1600
1512
1474
1484
1454
1332
1158
1029
1009
1081
1164
1180
1121
1064
1107
1247
1372
1363
1219
1060
1000
1032
1068
1036
953
890
898
970
1057
1084
1020
911
846
868
912
872
719
534
415
388
393
358
264
142
60
86
259
543
827
982
932
706
437
250
162
77
-109
-370
-530
-413
-10
504
924
1158
1248
1302
1425
1681
2061
2454
2712
2792
2798
2867
2981
2944
2582
1929
1194
581
157
-105
-239
-248
-129
108
440
820
1138
1276
1208
1046
922
854
740
502
228
101
215
461
658
745
824
1007
1290
1575
1793
1937
1991
1918
1755
1653
1745
1962
2060
1895
1596
1429
1478
1564
1482
1242
1038
985
998
943
800
637
488
337
198
113
80
6
-156
-283
-195
111
402
456
317
227
332
504
504
267
-17
-124
-23
117
126
0
-118
-98
64
257
382
433
477
562
658
685
597
422
221
26
-166
-369
-577
-771
-953
-1151
-1421
-1795
-2253
-2730
-3189
-3675
-4254
-4886
-5347
-5371
-4888
-4128
-3385
-2710
-1875
-680
732
1936
2601
2748
2647
2507
2340
2057
1636
1149
686
313
80
10
73
176
229
190
48
-188
-467
-681
-751
-701
-648
-647
-605
-391
-9
373
597
664
698
762
782
658
405
153
14
-7
15
18
-2
-18
-20
-15
-24
-68
-156
-275
-391
-468
-505
-527
-564
-616
-665
-704
-747
-801
-863
-921
-965
-987
-969
-917
-869
-862
-891
-912
-903
-902
-967
-1091
-1200
-1235
-1229
-1267
-1383
-1518
-1587
-1564
-1497
-1451
-1448
-1478
-1513
-1523
-1487
-1404
-1315
-1278
-1305
-1344
-1326
-1243
-1156
-1123
-1135
-1139
-1105
-1060
-1028
-987
-890
-741
-619
-588
-617
-617
-546
-452
-407
-419
-436
-425
-401
-389
-379
-356
-327
-325
-350
-362
-339
-319
-344
-405
-432
-390
-319
-289
-316
-347
-331
-283
-264
-305
-371
-414
-426
-440
-475
-507
-500
-466
-460
-500
-536
-511
-435
-386
-409
-450
-424
-324
-235
-222
-243
-210
-107
-17
-9
-50
-51
20
95
105
67
63
140
272
403
526
658
798
917
985
982
899
757
634
632
784
992
1119
1145
1188
1345
1544
1580
1317
829
334
-4
-189
-346
-572
-852
-1101
-1264
-1384
-1534
-1729
-1892
-1978
-2078
-2367
-2875
-3337
-3370
-2849
-2062
-1439
-1104
-746
41
1294
2589
3409
3564
3268
2862
2513
2172
1725
1162
591
161
-25
33
246
468
589
581
485
348
195
59
-30
-62
-74
-101
-132
-141
-143
-196
-310
-408
-406
-316
-220
-156
-81
40
140
115
-20
-97
45
406
833
1170
1351
1383
1296
1125
898
591
137
-495
-1177
-1665
-1781
-1567
-1247
-1025
-947
-932
-911
-901
-961
-1108
-1296
-1464
-1581
-1639
-1617
-1490
-1270
-1038
-896
-888
-956
-1004
-988
-927
-855
-785
-711
-653
-629
-621
-590
-534
-498
-502
-479
-338
-82
170
298
300
266
230
119
-134
-480
-779
-950
-1036
-1100
-1109
-958
-618
-204
123
300
387
463
525
516
424
303
215
185
206
275
391
526
628
672
679
691
724
754
757
749
760
797
817
771
660
534
443
385
316
210
96
42
89
217
362
467
508
488
414
294
134
-54
-255
-441
-585
-665
-676
-618
-498
-330
-156
-22
46
63
64
58
19
-66
-165
-226
-234
-223
-224
-229
-211
-162
-114
-100
-105
-87
-19
83
180
241
265
277
299
346
415
493
566
627
672
684
632
489
243
-77
-422
-754
-1078
-1424
-1793
-2128
-2375
-2576
-2856
-3261
-3634
-3696
-3321
-2702
-2172
-1837
-1455
-719
374
1475
2191
2423
2375
2295
2246
2135
1875
1492
1099
804
661
656
728
803
825
792
729
666
616
575
538
503
468
422
350
241
117
29
15
64
116
125
108
122
193
282
333
332
311
293
265
215
152
88
16
-66
-123
-103
-23
21
-41
-158
-199
-109
23
70
12
-57
-59
-17
-6
-63
-149
-215
-258
-302
-362
-428
-490
-549
-612
-680
-741
-777
-769
-713
-633
-572
-571
-634
-728
-811
-876
-951
-1061
-1164
-1160
-982
-673
-371
-185
-106
-47
42
117
107
5
-137
-266
-368
-422
-383
-226
-23
93
50
-77
-138
-60
89
202
261
324
426
532
603
672
790
913
905
674
299
-24
-158
-119
-24
27
9
-47
-62
49
305
605
782
734
502
216
-16
-155
-207
-192
-154
-133
-113
-25
166
389
516
490
367
220
47
-180
-413
-529
-468
-312
-210
-233
-319
-351
-262
-61
197
433
563
532
379
231
185
208
165
-56
-408
-714
-803
-657
-390
-137
56
224
402
568
669
671
588
466
341
240
166
103
28
-57
-126
-177
-261
-445
-732
-1049
-1328
-1564
-1800
-2066
-2380
-2792
-3358
-4001
-4454
-4429
-3889
-3123
-2469
-1972
-1345
-309
1057
2335
3118
3322
3171
2943
2744
2529
2218
1805
1346
937
678
626
751
924
1007
947
806
685
637
646
665
664
642
610
582
558
524
479
456
501
603
654
540
284
58
24
165
293
255
82
-66
-78
-9
7
-74
-161
-146
-56
-33
-134
-215
-71
276
514
365
-51
-300
-115
274
365
-43
-620
-863
-622
-220
-47
-182
-401
-495
-475
-499
-654
-855
-971
-968
-944
-1003
-1108
-1090
-829
-435
-196
-299
-614
-833
-783
-584
-474
-517
-565
-479
-296
-160
-117
-91
-23
30
-36
-218
-385
-414
-297
-106
96
279
413
480
515
595
733
827
740
480
250
275
575
926
1065
940
749
718
848
909
665
157
-294
-387
-151
95
100
-58
-66
226
618
777
589
228
-97
-344
-575
-764
-800
-673
-517
-423
-291
26
471
805
883
818
831
951
1011
874
630
497
560
676
620
330
10
-53
235
654
842
630
222
-22
75
396
703
855
818
633
441
469
815
1266
1428
1147
727
582
757
901
751
468
403
618
806
681
339
92
56
36
-214
-709
-1269
-1729
-2067
-2342
-2628
-3029
-3639
-4414
-5039
-5096
-4451
-3430
-2538
-1915
-1195
60
1792
3422
4380
4634
4622
4684
4735
4467
3803
3041
2540
2370
2311
2154
1930
1814
1898
2081
2188
2128
1958
1797
1735
1795
1908
1944
1791
1483
1231
1251
1527
1790
1776
1505
1251
1242
1405
1470
1296
1028
924
1067
1292
1377
1274
1127
1102
1209
1300
1238
1035
833
745
731
673
531
405
404
508
580
524
386
273
215
156
68
3
8
28
-28
-154
-211
-94
130
275
250
163
177
293
345
196
-92
-340
-458
-522
-641
-812
-939
-965
-938
-929
-937
-901
-789
-633
-494
-386
-284
-177
-87
-32
0
42
96
123
88
14
-26
26
154
280
333
308
256
228
241
287
348
414
478
535
585
632
676
705
712
698
671
636
590
536
492
480
500
530
549
552
551
553
561
570
576
574
552
504
443
409
429
478
497
451
365
295
260
240
223
228
276
352
413
439
447
449
430
371
284
212
177
169
184
266
454
695
868
896
846
878
1083
1382
1592
1605
1478
1371
1399
1562
1773
1925
1930
1755
1430
1057
757
593
511
382
122
-238
-549
-657
-548
-412
-512
-930
-1490
-1930
-2212
-2588
-3296
-4197
-4796
-4702
-4000
-3119
-2349
-1545
-360
1283
3011
4297
4867
4860
4624
4403
4206
3889
3350
2663
2050
1729
1727
1889
2024
2060
2062
2084
2081
1972
1758
1542
1415
1382
1386
1371
1341
1321
1307
1274
1215
1157
1113
1064
974
844
725
682
742
878
1035
1176
1308
1448
1591
1703
1742
1693
1578
1440
1316
1208
1092
951
796
672
621
648
721
797
850
881
903
921
929
926
904
840
721
563
419
332
308
301
276
253
294
467
780
1177
1561
1851
2017
2087
2107
2061
1863
1447
880
352
25
-110
-202
-349
-500
-536
-442
-310
-215
-121
41
255
423
510
591
744
931
1030
972
819
673
578
501
422
368
382
462
572
664
717
748
789
861
948
982
916
790
707
723
782
757
579
292
4
-215
-348
-412
-424
-402
-363
-316
-267
-220
-192
-196
-227
-279
-349
-440
-540
-614
-637
-623
-607
-595
-550
-446
-313
-222
-217
-248
-226
-134
-70
-143
-335
-503
-521
-426
-374
-461
-610
-668
-586
-471
-451
-528
-586
-535
-399
-273
-214
-197
-163
-89
1
63
52
-57
-240
-425
-536
-564
-578
-661
-824
-984
-1074
-1129
-1243
-1471
-1765
-2047
-2307
-2603
-2976
-3398
-3835
-4305
-4807
-5188
-5190
-4703
-3946
-3294
-2872
-2400
-1512
-214
1046
1796
1964
1862
1801
1818
1770
1572
1275
947
589
210
-101
-242
-231
-211
-302
-484
-612
-573
-382
-168
-58
-94
-232
-391
-520
-608
-667
-686
-636
-507
-342
-203
-124
-84
-42
9
25
-49
-208
-383
-493
-524
-518
-516
-516
-493
-458
-459
-519
-603
-643
-619
-577
-567
-598
-634
-639
-627
-642
-717
-840
-953
-1006
-1002
-987
-997
-1023
-1032
-1022
-1018
-1034
-1040
-1012
-973
-968
-1001
-1014
-959
-869
-828
-881
-981
-1043
-1032
-984
-964
-984
-1001
-965
-867
-752
-667
-623
-600
-578
-561
-562
-580
-601
-619
-642
-658
-641
-570
-467
-382
-340
-319
-286
-236
-190
-169
-165
-155
-127
-82
-21
65
176
283
342
329
248
123
-24
-169
-273
-306
-273
-211
-148
-80
10
90
82
-67
-315
-545
-669
-710
-753
-842
-940
-1006
-1063
-1160
-1289
-1387
-1431
-1492
-1642
-1786
-1706
-1302
-741
-323
-170
-135
-43
47
-105
-606
-1268
-1791
-2057
-2181
-2300
-2393
-2336
-2094
-1776
-1511
-1336
-1196
-1034
-851
-668
-505
-368
-255
-171
-125
-122
-142
-161
-177
-213
-305
-465
-661
-829
-916
-920
-919
-1028
-1290
-1613
-1829
-1855
-1769
-1723
-1787
-1939
-2187
-2604
-3195
-3760
-4009
-3845
-3475
-3148
-2830
-2213
-1087
353
1614
2319
2480
2387
2284
2194
2004
1655
1216
835
628
618
738
881
955
925
809
650
481
318
170
47
-27
-43
-11
35
62
59
51
92
217
409
604
738
798
807
788
742
652
513
351
208
108
48
6
-23
-24
7
37
12
-90
-232
-353
-415
-433
-438
-431
-394
-328
-267
-247
-265
-301
-348
-417
-514
-623
-729
-828
-920
-978
-967
-904
-860
-893
-974
-1017
-988
-947
-967
-1032
-1050
-969
-853
-813
-876
-958
-963
-885
-796
-761
-773
-777
-728
-628
-517
-437
-404
-407
-403
-349
-225
-64
70
142
181
236
295
271
120
-49
-39
236
643
970
1147
1278
1445
1556
1416
969
380
-140
-526
-853
-1161
-1363
-1335
-1070
-708
-422
-287
-259
-262
-268
-312
-432
-602
-741
-764
-656
-486
-340
-262
-243
-257
-286
-323
-365
-401
-415
-388
-313
-218
-150
-150
-219
-316
-399
-438
-429
-383
-325
-290
-294
-314
-291
-195
-72
-8
-39
-103
-116
-81
-78
-154
-242
-235
-116
14
62
63
122
278
446
515
459
342
239
173
124
61
-51
-224
-415
-542
-563
-539
-588
-777
-1062
-1349
-1599
-1852
-2186
-2623
-3084
-3410
-3442
-3133
-2611
-2089
-1672
-1254
-624
277
1238
1933
2211
2200
2131
2103
2035
1824
1491
1155
900
727
622
629
787
1022
1150
1030
700
357
172
145
138
28
-160
-277
-189
94
417
608
598
461
322
231
118
-100
-379
-536
-409
-47
307
448
407
400
566
812
925
818
611
471
431
402
322
229
167
99
-43
-244
-392
-396
-304
-244
-288
-385
-427
-370
-271
-229
-287
-408
-512
-530
-460
-360
-300
-315
-382
-449
-472
-449
-430
-468
-554
-616
-562
-385
-189
-98
-152
-262
-303
-239
-136
-96
-159
-274
-354
-339
-234
-99
22
160
392
725
1020
1080
851
512
323
363
469
424
203
-12
-22
173
395
470
384
248
164
133
103
64
68
146
244
276
254
289
451
645
669
436
86
-151
-180
-109
-93
-154
-192
-137
-46
-26
-104
-210
-267
-265
-244
-241
-255
-272
-285
-290
-276
-246
-228
-241
-272
-279
-237
-180
-159
-180
-198
-162
-80
-2
27
6
-41
-97
-164
-237
-299
-319
-288
-217
-130
-42
60
195
350
474
510
455
363
279
186
62
-37
12
258
554
653
448
87
-173
-259
-365
-742
-1398
-2052
-2423
-2539
-2744
-3331
-4169
-4736
-4602
-3875
-3108
-2722
-2539
-1980
-728
874
2114
2586
2500
2351
2375
2407
2196
1733
1236
878
653
474
338
323
443
587
626
531
392
307
321
427
606
802
900
790
510
238
158
255
346
298
188
201
393
618
730
780
935
1213
1385
1240
873
605
603
662
473
32
-315
-273
54
295
264
146
204
416
488
245
-149
-378
-325
-180
-163
-279
-335
-210
27
210
259
227
225
294
402
476
462
355
194
55
-21
-67
-158
-336
-549
-674
-599
-329
3
204
178
37
10
220
518
608
328
-129
-405
-349
-138
-38
-80
-82
80
311
457
566
842
1345
1834
1977
1708
1277
984
885
802
565
197
-127
-240
-91
232
544
678
586
395
304
355
363
141
-239
-442
-202
375
933
1252
1414
1581
1718
1626
1205
602
53
-352
-681
-989
-1224
-1293
-1161
-842
-403
29
275
246
75
27
255
622
837
751
482
281
300
475
608
547
286
-16
-129
79
527
949
1109
1019
913
996
1209
1292
1096
802
716
911
1126
1095
886
792
920
1036
868
503
297
473
853
1080
1030
844
652
404
-9
-562
-1134
-1679
-2308
-3079
-3855
-4410
-4650
-4672
-4585
-4354
-3881
-3180
-2406
-1669
-879
133
1358
2516
3259
3470
3350
3208
3163
3057
2667
1983
1265
833
760
847
859
756
703
829
1047
1150
1051
891
858
973
1062
951
664
416
398
589
787
823
722
645
692
787
775
613
411
320
363
427
399
278
166
146
207
260
238
174
144
169
178
98
-28
-60
88
320
447
394
278
252
307
291
95
-196
-385
-353
-137
163
500
865
1196
1351
1208
792
256
-259
-741
-1272
-1866
-2378
-2590
-2408
-1964
-1501
-1172
-950
-734
-512
-373
-395
-529
-645
-660
-612
-579
-573
-528
-398
-226
-105
-84
-122
-146
-122
-61
10
88
172
242
269
244
209
228
333
490
632
717
764
803
822
773
629
438
279
187
126
47
-53
-127
-145
-125
-117
-136
-147
-108
-14
91
161
193
237
335
464
536
482
322
156
72
60
42
-39
-148
-202
-172
-125
-160
-316
-537
-742
-884
-969
-1007
-995
-928
-815
-684
-553
-415
-262
-112
-14
-12
-106
-226
-274
-203
-69
23
32
18
51
96
50
-104
-239
-209
-42
76
32
-55
23
288
512
489
289
128
84
-10
-317
-757
-1089
-1201
-1241
-1430
-1862
-2498
-3258
-3994
-4447
-4379
-3852
-3239
-2819
-2411
-1529
34
1866
3252
3797
3690
3379
3113
2834
2393
1778
1117
566
246
207
427
787
1122
1331
1399
1369
1290
1188
1076
960
859
792
764
750
701
604
521
533
634
711
649
459
285
252
338
400
338
221
212
386
606
644
435
192
238
680
1307
1789
2014
2141
2333
2501
2378
1821
996
217
-351
-773
-1142
-1408
-1426
-1154
-743
-413
-283
-312
-414
-566
-802
-1113
-1404
-1547
-1504
-1365
-1240
-1112
-851
-396
108
414
416
266
182
196
141
-125
-525
-846
-982
-1021
-1090
-1164
-1085
-767
-340
-35
38
-33
-90
-85
-93
-171
-248
-217
-97
-19
-65
-132
-71
93
152
-35
-330
-414
-109
448
966
1282
1436
1527
1584
1570
1472
1316
1129
923
734
620
602
640
679
697
670
551
311
-11
-314
-525
-654
-747
-806
-773
-629
-411
-176
46
233
343
361
338
346
389
400
348
294
323
432
525
526
456
394
393
432
456
423
350
293
304
370
439
495
585
714
744
509
40
-380
-503
-394
-350
-516
-667
-461
156
871
1339
1505
1567
1675
1763
1672
1353
927
553
274
36
-214
-467
-692
-888
-1099
-1363
-1694
-2115
-2667
-3307
-3816
-3880
-3370
-2509
-1689
-1084
-476
461
1741
2973
3700
3793
3504
3161
2898
2641
2295
1874
1469
1151
943
868
945
1130
1297
1326
1202
1028
912
882
885
872
828
745
617
464
345
313
357
418
451
476
535
646
772
863
893
870
821
763
696
615
514
410
330
290
281
278
264
235
201
164
128
97
76
59
37
15
-5
-34
-91
-170
-239
-261
-244
-236
-272
-337
-386
-393
-381
-389
-425
-459
-464
-456
-474
-521
-555
-531
-468
-431
-455
-496
-486
-414
-341
-320
-333
-325
-277
-228
-212
-211
-184
-123
-61
-18
29
110
211
287
314
315
331
367
388
364
316
305
374
514
675
808
902
989
1113
1273
1416
1475
1433
1328
1217
1105
948
730
512
389
388
446
489
499
508
522
498
402
246
72
-102
-267
-395
-432
-354
-202
-60
11
17
0
-12
-21
-42
-48
23
198
423
598
693
816
1106
1531
1873
1941
1791
1664
1698
1755
1590
1167
724
523
575
680
677
616
657
863
1128
1285
1248
1052
789
547
379
291
258
240
224
266
439
730
1008
1105
967
697
439
254
111
-34
-200
-423
-740
-1131
-1486
-1723
-1910
-2203
-2610
-2886
-2736
-2147
-1434
-924
-622
-221
542
1598
2610
3278
3562
3638
3672
3674
3519
3114
2497
1819
1241
840
601
486
471
539
658
799
952
1100
1208
1238
1192
1097
975
841
741
751
867
964
921
800
834
1184
1720
2147
2307
2313
2342
2374
2211
1751
1124
545
86
-318
-675
-850
-720
-354
26
248
315
342
402
476
498
416
236
37
-65
-14
124
227
243
237
283
362
388
327
223
122
11
-122
-217
-188
-33
145
253
305
358
395
321
90
-221
-508
-746
-979
-1196
-1298
-1197
-929
-622
-376
-195
-33
118
227
268
261
244
240
252
283
348
453
573
658
672
628
578
566
594
646
715
805
891
919
857
746
672
687
760
828
862
886
918
927
867
741
603
497
409
303
180
97
98
159
214
226
222
246
304
349
341
285
216
160
123
99
78
60
52
69
124
199
248
243
207
195
229
269
264
221
189
195
219
228
235
268
327
375
396
409
429
442
453
539
798
1220
1645
1892
1927
1875
1846
1798
1586
1135
539
-19
-410
-623
-728
-782
-804
-784
-721
-655
-655
-774
-1004
-1281
-1558
-1864
-2275
-2795
-3271
-3437
-3133
-2476
-1789
-1302
-920
-327
657
1822
2737
3148
3165
3078
3044
3000
2818
2483
2079
1689
1381
1218
1237
1384
1517
1534
1462
1392
1364
1335
1262
1174
1129
1126
1106
1041
983
996
1086
1194
1265
1279
1240
1158
1068
1015
1018
1035
1006
931
892
956
1080
1141
1065
917
854
965
1183
1370
1447
1454
1474
1532
1571
1519
1351
1101
818
554
379
359
488
649
704
617
495
487
624
792
837
700
450
223
125
178
327
451
447
328
210
216
351
498
549
531
556
695
916
1138
1319
1474
1598
1633
1529
1319
1081
860
640
427
310
376
585
790
883
904
971
1119
1251
1259
1144
991
862
744
632
574
610
701
737
653
502
413
448
558
643
646
583
498
420
380
419
549
697
743
638
480
426
519
631
609
442
260
183
190
183
127
92
148
266
342
312
213
139
150
239
350
418
418
388
399
481
561
518
312
53
-95
-82
-7
10
-17
33
225
479
652
691
668
679
749
834
888
892
845
762
676
636
650
677
669
636
631
684
763
802
772
689
576
427
217
-66
-406
-777
-1134
-1449
-1729
-2049
-2509
-3109
-3652
-3836
-3507
-2825
-2127
-1581
-1020
-138
1124
2454
3428
3872
3938
3863
3704
3370
2822
2181
1618
1221
970
824
791
870
1002
1121
1223
1348
1468
1484
1345
1152
1083
1180
1281
1210
1000
863
938
1135
1242
1160
964
789
695
669
701
792
918
1032
1138
1270
1428
1536
1512
1368
1186
1047
973
948
955
992
1038
1050
1006
931
864
803
719
607
500
432
392
356
326
338
397
448
449
424
439
506
563
563
558
644
819
942
881
678
495
429
417
345
203
95
87
136
166
195
312
526
719
773
697
626
679
837
971
957
787
593
527
619
762
808
723
597
516
458
345
172
19
-70
-154
-281
-361
-225
133
468
547
440
461
778
1169
1236
869
369
104
128
196
112
-54
-115
12
233
450
657
853
945
826
543
309
273
341
267
-75
-546
-859
-822
-478
-44
256
336
300
344
563
852
1000
914
692
473
266
-12
-345
-557
-522
-337
-228
-304
-422
-366
-81
278
514
567
540
585
756
969
1067
976
773
609
536
445
239
13
-30
179
462
564
420
182
6
-105
-253
-513
-886
-1330
-1777
-2152
-2439
-2752
-3257
-3946
-4515
-4601
-4141
-3448
-2868
-2371
-1581
-217
1524
3058
3909
4074
3922
3777
3641
3311
2690
1930
1279
865
654
579
643
820
992
1020
889
741
722
820
889
824
685
600
613
644
603
497
419
435
512
568
558
508
472
471
491
507
499
461
393
311
247
227
247
279
300
307
303
276
224
164
118
92
67
28
-19
-66
-127
-212
-296
-339
-342
-366
-460
-593
-678
-667
-604
-571
-592
-614
-588
-539
-532
-594
-676
-711
-691
-667
-692
-760
-803
-755
-626
-487
-403
-374
-353
-299
-215
-148
-133
-168
-218
-234
-203
-157
-142
-157
-130
27
334
709
1028
1218
1280
1244
1104
831
422
-57
-508
-873
-1151
-1349
-1421
-1285
-928
-478
-107
126
307
518
702
722
545
312
190
196
217
191
191
301
483
608
601
513
448
454
505
552
555
519
507
611
863
1165
1358
1371
1279
1204
1176
1119
959
722
521
451
519
666
829
988
1146
1273
1299
1197
1036
948
987
1061
1041
929
862
950
1136
1265
1276
1240
1230
1220
1150
1055
1054
1188
1334
1348
1237
1174
1276
1450
1500
1337
1098
971
973
950
759
437
127
-110
-356
-710
-1159
-1608
-2041
-2527
-3035
-3332
-3163
-2524
-1672
-831
82
1315
2894
4458
5528
5922
5826
5524
5135
4628
3981
3253
2506
1794
1240
1008
1151
1454
1570
1352
981
754
766
850
827
711
651
738
924
1121
1291
1410
1454
1428
1401
1427
1461
1391
1183
951
839
868
954
1040
1165
1372
1637
1903
2133
2285
2269
2006
1572
1182
978
875
673
345
92
126
426
767
962
1001
979
951
905
807
632
365
41
-221
-312
-274
-288
-482
-759
-896
-821
-711
-773
-978
-1078
-906
-548
-225
-38
100
298
533
708
785
808
805
732
563
368
260
258
248
124
-72
-218
-249
-204
-135
-39
65
81
-63
-242
-227
-3
97
-278
-1033
-1616
-1577
-1064
-624
-560
-607
-299
440
1229
1685
1806
1840
1911
1907
1720
1457
1315
1352
1434
1435
1384
1401
1488
1544
1480
1326
1163
1009
809
541
285
131
70
-13
-206
-468
-682
-799
-858
-901
-898
-796
-593
-350
-104
155
431
656
735
651
493
386
378
432
475
460
409
399
510
734
933
951
768
534
422
466
556
588
581
613
711
817
858
832
787
766
784
828
857
822
708
556
412
257
22
-323
-728
-1103
-1419
-1712
-2014
-2325
-2655
-3034
-3434
-3692
-3599
-3120
-2484
-1974
-1595
-1043
-51
1244
2353
2888
2923
2856
2949
3085
2967
2517
1966
1580
1395
1253
1041
814
671
597
490
303
125
76
161
273
300
233
142
91
79
69
39
4
-10
7
43
75
99
131
171
184
135
40
-19
21
112
139
46
-94
-152
-98
-4
100
301
679
1147
1472
1528
1428
1357
1303
1049
449
-329
-943
-1222
-1308
-1430
-1608
-1663
-1485
-1212
-1085
-1176
-1319
-1327
-1199
-1097
-1136
-1246
-1257
-1096
-854
-675
-619
-645
-708
-821
-986
-1141
-1198
-1135
-1054
-1067
-1133
-1049
-630
80
810
1308
1549
1687
1813
1793
1398
572
-468
-1400
-2025
-2341
-2423
-2310
-2017
-1591
-1121
-696
-362
-155
-111
-222
-415
-580
-641
-609
-541
-474
-386
-216
36
275
384
320
167
45
-3
-14
-15
35
178
370
511
571
617
694
721
561
204
-194
-468
-618
-775
-1013
-1232
-1268
-1062
-722
-411
-206
-84
3
69
104
107
105
125
168
212
233
236
239
239
208
131
35
-16
31
170
346
496
587
644
698
745
738
643
488
351
293
317
396
509
633
714
710
662
702
891
1102
1110
828
398
9
-318
-722
-1278
-1889
-2437
-2946
-3497
-3977
-4064
-3559
-2679
-1890
-1416
-1004
-227
980
2199
2930
3046
2835
2643
2562
2457
2199
1818
1435
1146
971
892
892
947
1035
1135
1225
1286
1309
1303
1270
1191
1035
817
617
522
541
603
634
632
636
652
631
530
369
205
71
-39
-133
-188
-173
-92
11
92
140
172
191
183
132
54
-15
-49
-54
-54
-53
-30
25
77
75
8
-80
-146
-191
-240
-280
-272
-221
-200
-263
-351
-330
-147
99
271
338
372
399
327
59
-358
-755
-1012
-1166
-1317
-1478
-1548
-1442
-1190
-918
-731
-645
-611
-587
-567
-578
-640
-733
-801
-790
-698
-574
-462
-368
-279
-204
-178
-213
-274
-309
-309
-304
-320
-335
-314
-256
-202
-183
-188
-177
-135
-97
-108
-179
-275
-347
-376
-381
-387
-395
-387
-362
-339
-342
-372
-406
-434
-457
-478
-486
-473
-456
-468
-512
-553
-549
-500
-448
-432
-448
-457
-430
-372
-321
-305
-312
-303
-266
-251
-318
-444
-518
-454
-303
-217
-275
-384
-379
-226
-59
-19
-82
-112
-22
129
224
236
242
319
455
571
596
536
470
478
549
592
529
404
343
388
411
248
-91
-434
-652
-817
-1092
-1512
-1929
-2193
-2314
-2415
-2598
-2888
-3275
-3693
-3947
-3779
-3100
-2135
-1244
-549
181
1198
2435
3510
4073
4107
3840
3472
3045
2563
2082
1675
1351
1080
890
858
995
1163
1180
992
716
519
471
520
592
659
735
826
914
969
961
906
862
888
969
995
864
617
434
449
589
672
609
507
523
668
788
780
717
751
910
1061
1078
984
899
872
823
663
436
263
195
157
63
-68
-141
-127
-124
-236
-433
-557
-491
-303
-176
-224
-394
-543
-584
-535
-469
-434
-438
-477
-548
-616
-615
-500
-305
-143
-105
-170
-216
-157
-24
73
73
16
-33
-70
-127
-178
-148
-26
82
68
-25
-36
125
349
454
376
225
139
145
171
159
120
96
115
187
312
450
533
522
464
442
477
505
457
346
255
244
290
321
296
228
155
102
68
38
-11
-83
-149
-151
-66
54
104
28
-122
-227
-224
-163
-132
-158
-202
-222
-240
-293
-350
-320
-171
-15
-12
-179
-336
-297
-63
146
111
-149
-409
-477
-383
-316
-395
-545
-598
-491
-336
-274
-302
-269
-64
231
392
302
85
8
204
520
671
544
303
198
315
497
515
302
-29
-328
-533
-688
-869
-1147
-1528
-1928
-2231
-2417
-2650
-3159
-3941
-4612
-4686
-4056
-3158
-2534
-2231
-1719
-481
1338
2972
3770
3772
3565
3607
3799
3731
3246
2595
2093
1771
1448
1082
912
1118
1498
1654
1463
1253
1378
1751
1939
1740
1469
1573
2030
2358
2207
1773
1544
1686
1841
1564
821
-25
-602
-814
-794
-730
-724
-759
-708
-425
94
631
882
746
421
204
173
154
-6
-190
-153
145
405
307
-93
-369
-206
207
357
45
-348
-295
261
848
1026
845
670
680
704
530
221
4
-48
-114
-369
-755
-1065
-1159
-1069
-900
-735
-668
-763
-975
-1146
-1168
-1087
-1031
-1046
-1058
-991
-852
-664
-374
48
446
557
357
184
397
907
1200
924
328
2
236
713
880
566
126
-2
233
506
522
308
123
174
426
705
857
832
684
534
492
559
618
561
432
424
639
922
974
689
294
127
313
654
834
723
455
281
356
610
831
856
706
551
556
715
857
827
638
437
345
335
291
155
-5
-101
-144
-218
-331
-358
-180
131
340
324
228
271
441
513
378
239
357
667
801
544
129
-28
195
512
594
441
324
421
638
760
694
544
459
455
418
229
-113
-486
-760
-923
-1107
-1436
-1874
-2277
-2576
-2891
-3380
-3984
-4386
-4268
-3645
-2843
-2171
-1618
-928
78
1269
2293
2870
2975
2802
2588
2453
2354
2154
1764
1242
777
536
524
614
672
672
658
651
639
621
641
715
791
797
719
616
541
495
446
394
370
382
389
347
258
163
99
73
73
101
156
217
251
237
182
124
95
92
74
11
-70
-101
-56
7
2
-87
-184
-207
-169
-164
-256
-398
-490
-481
-417
-380
-406
-460
-484
-456
-415
-419
-486
-583
-663
-706
-732
-759
-776
-762
-720
-671
-639
-623
-613
-607
-618
-652
-710
-785
-869
-939
-959
-916
-823
-723
-638
-549
-423
-240
-25
172
317
405
456
501
557
627
696
741
762
809
925
1090
1222
1260
1234
1236
1301
1361
1336
1233
1135
1093
1079
1049
1023
1043
1087
1081
994
889
851
868
837
693
495
377
413
549
685
773
840
931
1049
1155
1228
1276
1297
1271
1197
1120
1119
1240
1427
1553
1547
1465
1458
1613
1851
1988
1913
1696
1532
1549
1686
1786
1779
1754
1843
2046
2235
2324
2369
2458
2565
2556
2372
2124
1970
1944
1957
1928
1873
1842
1839
1845
1879
1968
2052
2007
1790
1501
1283
1140
921
509
-49
-589
-1009
-1344
-1673
-2031
-2413
-2788
-3069
-3084
-2674
-1850
-824
177
1144
2232
3502
4717
5468
5518
4993
4214
3394
2517
1530
556
-126
-319
-75
408
975
1573
2144
2522
2532
2198
1794
1651
1846
2147
2274
2211
2199
2406
2673
2634
2086
1197
329
-264
-563
-673
-656
-515
-265
47
373
680
918
1020
953
764
560
431
411
485
604
710
762
748
676
557
411
276
191
156
127
89
98
216
392
472
352
105
-89
-140
-120
-148
-257
-380
-460
-508
-550
-581
-577
-557
-574
-654
-757
-813
-791
-720
-647
-594
-552
-506
-450
-388
-333
-300
-303
-345
-409
-444
-404
-296
-186
-142
-162
-184
-151
-84
-42
-51
-86
-103
-89
-45
36
155
269
320
290
235
225
263
284
230
118
25
16
88
177
216
192
154
160
210
240
193
86
-1
-9
26
16
-70
-166
-192
-142
-90
-102
-164
-210
-206
-182
-194
-254
-309
-298
-217
-127
-101
-139
-169
-120
-9
74
64
2
-25
17
76
90
69
74
135
219
289
358
460
593
717
814
913
1034
1138
1169
1135
1110
1151
1215
1211
1119
1032
1052
1173
1288
1306
1246
1195
1184
1151
1032
839
635
429
168
-189
-588
-941
-1253
-1630
-2108
-2511
-2550
-2106
-1366
-642
-40
628
1602
2864
4108
4994
5413
5495
5434
5313
5090
4682
4070
3325
2584
1981
1598
1442
1454
1533
1609
1678
1799
2018
2294
2515
2599
2572
2507
2424
2273
2050
1882
1924
2171
2411
2427
2211
1967
1873
1887
1832
1614
1334
1157
1119
1097
973
768
605
547
532
450
289
151
128
197
248
202
96
16
11
62
131
191
233
261
310
403
479
433
254
99
139
338
463
360
165
111
189
140
-157
-439
-335
157
646
814
763
791
922
852
355
-420
-1149
-1708
-2199
-2663
-2924
-2798
-2362
-1880
-1517
-1224
-903
-611
-500
-613
-821
-948
-931
-819
-657
-400
10
520
959
1173
1159
1024
863
682
467
253
96
-23
-170
-321
-321
-29
492
1000
1294
1369
1330
1205
908
387
-266
-877
-1329
-1605
-1716
-1661
-1440
-1116
-799
-589
-515
-528
-555
-542
-497
-465
-471
-477
-432
-350
-327
-438
-659
-895
-1085
-1246
-1416
-1568
-1613
-1486
-1214
-907
-693
-628
-662
-691
-651
-578
-552
-598
-656
-647
-567
-477
-404
-301
-113
123
303
366
348
309
229
33
-298
-671
-959
-1126
-1248
-1383
-1498
-1529
-1483
-1467
-1595
-1902
-2335
-2807
-3256
-3669
-4107
-4653
-5281
-5757
-5758
-5164
-4224
-3365
-2778
-2232
-1347
-63
1238
2074
2300
2163
1990
1874
1688
1313
797
295
-66
-263
-327
-283
-165
-37
25
-31
-186
-360
-463
-465
-407
-355
-352
-383
-408
-405
-385
-372
-374
-397
-445
-522
-620
-711
-770
-797
-808
-820
-832
-836
-832
-837
-865
-917
-974
-1009
-1016
-1009
-1012
-1035
-1061
-1082
-1099
-1121
-1147
-1167
-1181
-1208
-1261
-1333
-1402
-1453
-1496
-1546
-1604
-1663
-1713
-1751
-1769
-1762
-1736
-1708
-1690
-1671
-1628
-1553
-1480
-1453
-1477
-1507
-1502
-1468
-1444
-1429
-1369
-1221
-1019
-849
-757
-699
-593
-429
-270
-170
-125
-106
-115
-165
-213
-181
-42
122
209
215
229
310
424
498
522
550
607
648
615
516
418
361
332
297
238
168
125
157
274
414
485
459
416
467
635
837
977
1035
1028
972
886
811
781
766
691
554
460
501
618
654
543
409
428
636
904
1078
1112
1046
958
906
902
892
782
540
265
108
90
85
-16
-131
-72
210
545
728
748
776
903
1033
1042
971
1006
1241
1543
1705
1673
1594
1643
1835
2012
1989
1700
1254
874
733
786
781
509
53
-242
-99
367
721
605
89
-443
-723
-899
-1395
-2418
-3633
-4355
-4130
-3144
-2037
-1279
-737
109
1534
3199
4424
4774
4394
3784
3325
3062
2830
2504
2112
1778
1603
1581
1646
1736
1813
1855
1810
1622
1318
1024
885
931
1068
1162
1129
973
753
553
456
492
594
641
571
452
411
500
644
729
725
673
622
568
479
360
256
203
179
138
76
40
65
123
143
78
-49
-190
-325
-458
-585
-683
-753
-826
-919
-996
-1001
-928
-838
-789
-772
-747
-713
-710
-752
-788
-765
-707
-693
-754
-825
-813
-713
-617
-609
-686
-774
-811
-794
-764
-762
-801
-847
-858
-815
-770
-796
-907
-1017
-1034
-962
-911
-964
-1087
-1171
-1163
-1114
-1101
-1118
-1100
-1020
-929
-894
-919
-948
-916
-817
-692
-623
-676
-833
-971
-944
-725
-470
-373
-457
-550
-458
-189
59
98
-58
-227
-255
-160
-84
-140
-295
-415
-404
-303
-228
-225
-220
-138
-14
36
-16
-72
-31
41
-27
-254
-442
-386
-129
57
7
-134
-100
170
451
492
305
133
140
234
222
82
-3
108
300
326
131
-47
42
345
569
527
315
142
70
24
-8
35
112
34
-246
-432
-159
524
1120
1203
902
686
754
812
485
-217
-958
-1504
-1958
-2534
-3226
-3807
-4061
-3945
-3579
-3123
-2673
-2191
-1539
-630
430
1358
1925
2151
2219
2247
2192
1981
1628
1231
887
626
467
467
637
861
971
902
784
833
1121
1465
1598
1451
1225
1140
1185
1156
956
731
650
661
534
188
-178
-301
-165
3
-12
-201
-418
-525
-464
-248
43
246
222
-34
-313
-351
-88
260
389
164
-241
-502
-451
-223
-93
-167
-313
-360
-316
-311
-397
-462
-399
-277
-267
-401
-522
-487
-374
-365
-509
-633
-595
-474
-494
-746
-1051
-1137
-904
-537
-332
-415
-616
-619
-279
172
303
-42
-534
-663
-316
63
-25
-523
-867
-683
-250
-151
-551
-993
-949
-436
66
230
183
236
441
592
547
414
334
271
91
-199
-392
-322
-55
163
160
-3
-123
-73
76
173
144
68
75
207
374
449
390
253
96
-96
-375
-716
-1011
-1193
-1291
-1384
-1482
-1500
-1361
-1119
-921
-857
-884
-888
-808
-692
-616
-619
-682
-772
-854
-881
-807
-638
-471
-413
-474
-556
-569
-539
-556
-637
-697
-681
-655
-705
-773
-676
-331
113
420
505
504
570
663
612
334
-50
-373
-589
-763
-935
-1035
-996
-870
-775
-762
-783
-810
-937
-1274
-1786
-2306
-2738
-3176
-3731
-4272
-4427
-3942
-3000
-2083
-1503
-1109
-523
398
1377
1979
2024
1711
1382
1210
1136
1007
774
512
320
243
261
341
448
533
553
519
502
565
676
729
665
538
448
430
428
380
303
257
272
317
361
404
444
441
336
150
6
25
191
351
366
259
171
200
284
298
200
86
79
199
376
563
762
966
1107
1101
927
651
339
-5
-401
-824
-1171
-1344
-1323
-1179
-1009
-849
-678
-468
-264
-150
-161
-233
-271
-262
-284
-392
-524
-548
-423
-259
-183
-209
-248
-227
-152
-40
123
341
531
577
485
415
510
725
880
875
841
981
1318
1658
1801
1762
1717
1770
1802
1622
1210
769
553
649
923
1155
1234
1246
1396
1791
2279
2525
2324
1887
1710
2130
2976
3738
4078
4129
4258
4566
4737
4357
3359
2079
944
143
-396
-782
-989
-910
-523
36
559
938
1189
1361
1445
1400
1280
1267
1542
2101
2731
3195
3425
3524
3583
3557
3301
2758
2053
1416
1028
924
1038
1297
1653
2065
2487
2889
3233
3438
3399
3079
2592
2142
1872
1766
1722
1686
1713
1866
2125
2382
2502
2372
1982
1455
1010
801
770
701
469
168
-19
-74
-179
-513
-1090
-1799
-2496
-3032
-3253
-3090
-2685
-2268
-1861
-1187
-11
1471
2728
3406
3641
3781
3907
3755
3149
2287
1546
1063
664
205
-169
-191
172
643
915
943
932
1058
1277
1395
1277
995
747
689
817
977
1020
921
766
672
672
701
661
529
384
341
448
626
746
732
600
415
241
125
91
129
170
145
43
-67
-135
-198
-346
-610
-913
-1133
-1228
-1248
-1246
-1210
-1080
-838
-536
-264
-82
-3
-9
-68
-148
-233
-334
-459
-589
-665
-642
-547
-454
-413
-404
-376
-311
-246
-229
-259
-298
-304
-276
-240
-226
-254
-303
-335
-322
-274
-238
-244
-270
-268
-221
-164
-148
-177
-212
-221
-211
-201
-193
-166
-111
-28
77
208
361
496
556
529
490
522
620
682
617
463
363
408
535
597
525
385
299
302
318
272
172
94
76
90
84
58
54
90
123
88
-20
-138
-192
-168
-106
-50
-17
-8
-16
-23
-11
18
38
28
9
26
94
172
218
233
255
301
350
376
384
397
417
427
439
494
614
765
881
935
946
949
948
917
849
774
717
677
632
576
518
463
387
272
121
-55
-267
-528
-819
-1099
-1371
-1717
-2208
-2762
-3147
-3161
-2818
-2333
-1906
-1509
-917
47
1300
2511
3339
3690
3756
3816
3972
4069
3867
3292
2511
1813
1382
1200
1103
950
725
534
515
727
1112
1531
1853
2038
2139
2229
2299
2243
1956
1489
1048
830
836
892
861
801
855
1034
1168
1088
808
484
223
10
-198
-386
-512
-579
-601
-532
-308
29
293
332
208
152
313
606
838
928
961
1041
1157
1228
1236
1249
1324
1440
1544
1642
1780
1947
2028
1900
1542
1062
603
237
-58
-311
-482
-469
-209
218
627
879
986
1060
1164
1246
1226
1120
1035
1056
1181
1361
1571
1790
1962
2011
1925
1781
1669
1608
1561
1515
1510
1581
1702
1816
1886
1924
1951
1965
1957
1944
1963
2025
2096
2138
2147
2163
2214
2281
2310
2262
2155
2041
1949
1869
1779
1680
1597
1548
1524
1506
1477
1443
1410
1383
1378
1394
1403
1363
1267
1171
1147
1204
1277
1307
1305
1310
1304
1199
953
660
456
374
309
166
20
54
353
791
1146
1317
1391
1494
1637
1713
1634
1441
1259
1184
1208
1261
1289
1289
1288
1305
1319
1290
1196
1056
917
816
758
720
672
606
524
408
232
-4
-260
-508
-758
-1042
-1360
-1665
-1942
-2261
-2688
-3120
-3286
-2985
-2318
-1622
-1109
-634
130
1268
2447
3205
3376
3195
2996
2875
2689
2307
1795
1338
1052
914
858
868
941
1022
1019
883
671
491
409
410
441
473
502
534
577
641
730
820
868
847
775
698
644
607
565
517
478
461
459
463
476
492
498
478
438
397
371
351
323
289
260
232
189
132
96
116
175
211
180
106
54
50
52
-1
-109
-214
-257
-241
-210
-191
-160
-85
25
119
158
155
152
166
172
146
97
73
107
184
266
338
420
523
614
650
633
617
639
668
652
604
603
686
782
783
680
580
586
676
743
733
695
706
784
898
1025
1155
1246
1235
1131
1041
1058
1158
1208
1133
1001
941
989
1057
1061
1008
956
931
900
845
793
782
809
833
826
779
697
593
482
383
289
170
26
-78
-62
88
299
479
605
705
798
864
880
854
792
688
543
408
342
337
326
268
213
241
352
460
499
518
609
782
933
981
966
1010
1153
1285
1268
1119
1004
1047
1180
1220
1098
951
953
1100
1201
1121
938
830
848
843
627
168
-394
-899
-1296
-1658
-2103
-2701
-3360
-3794
-3684
-2963
-1950
-1098
-572
-87
746
1951
3089
3667
3594
3200
2854
2635
2382
1976
1494
1097
859
745
721
800
970
1148
1237
1219
1153
1093
1035
954
871
831
820
767
635
483
406
425
463
439
360
293
263
225
147
74
66
98
67
-76
-246
-307
-230
-136
-156
-282
-377
-324
-153
-21
-58
-245
-437
-511
-487
-502
-657
-905
-1096
-1142
-1102
-1097
-1162
-1214
-1173
-1073
-1021
-1064
-1138
-1157
-1124
-1120
-1204
-1345
-1459
-1500
-1493
-1486
-1502
-1534
-1564
-1579
-1570
-1523
-1439
-1376
-1407
-1542
-1701
-1778
-1732
-1590
-1389
-1160
-947
-804
-734
-677
-602
-589
-759
-1090
-1394
-1508
-1464
-1405
-1339
-1101
-585
68
595
896
1104
1365
1627
1706
1520
1181
871
713
723
821
894
858
770
789
984
1201
1213
1012
861
980
1242
1310
1055
744
744
1082
1409
1414
1168
1004
1111
1323
1359
1157
931
883
982
1043
989
920
949
1033
1032
923
841
884
967
908
680
426
660
783
654
390
314
622
1136
1457
1363
1057
919
1085
1283
1168
769
450
468
684
775
678
654
919
1317
1505
1339
1000
724
532
282
-124
-638
-1143
-1547
-1825
-2046
-2354
-2856
-3426
-3706
-3415
-2686
-1958
-1493
-1053
-176
1245
2751
3721
3914
3617
3309
3204
3159
2922
2430
1901
1627
1696
1903
1972
1804
1526
1270
957
430
-249
-757
-855
-662
-510
-542
-586
-453
-220
-128
-260
-448
-524
-534
-591
-634
-471
-70
314
404
251
185
428
812
954
682
219
-82
-109
-91
-304
-765
-1231
-1490
-1602
-1746
-1939
-2004
-1812
-1492
-1304
-1287
-1204
-873
-488
-445
-859
-1384
-1576
-1387
-1164
-1216
-1478
-1648
-1568
-1362
-1223
-1206
-1259
-1361
-1518
-1652
-1638
-1482
-1375
-1482
-1708
-1761
-1494
-1094
-856
-830
-822
-714
-649
-814
-1124
-1247
-1003
-614
-463
-643
-863
-805
-500
-249
-248
-426
-600
-688
-680
-523
-194
114
65
-401
-844
-716
-16
625
630
155
-120
162
583
496
-134
-683
-649
-271
-178
-570
-991
-923
-423
-8
-29
-325
-520
-507
-476
-581
-726
-762
-722
-760
-884
-893
-670
-409
-442
-820
-1209
-1256
-965
-665
-592
-655
-627
-473
-356
-389
-479
-503
-480
-512
-593
-588
-434
-243
-180
-269
-386
-419
-378
-329
-285
-215
-131
-90
-125
-190
-211
-171
-146
-216
-376
-528
-578
-548
-559
-681
-853
-962
-981
-1004
-1138
-1399
-1710
-1989
-2206
-2403
-2690
-3182
-3852
-4440
-4584
-4148
-3375
-2661
-2152
-1615
-739
501
1797
2770
3217
3151
2731
2182
1694
1293
817
126
-654
-1150
-1091
-578
6
373
555
742
992
1154
1062
746
413
234
194
158
66
5
107
372
644
751
667
504
363
239
80
-108
-255
-317
-325
-339
-376
-420
-478
-567
-663
-700
-638
-521
-424
-363
-284
-149
-7
43
-26
-130
-160
-107
-76
-164
-345
-486
-478
-343
-205
-167
-216
-257
-216
-95
46
151
193
185
161
144
148
168
192
215
241
280
352
473
640
805
899
891
834
815
869
945
981
980
1015
1141
1350
1593
1834
2060
2253
2386
2459
2510
2580
2669
2725
2710
2654
2640
2707
2800
2821
2707
2483
2228
2031
1925
1885
1860
1848
1915
2143
2558
3089
3613
4026
4278
4374
4395
4479
4716
5048
5294
5316
5174
5062
5095
5153
4974
4414
3597
2830
2371
2277
2416
2612
2794
3011
3349
3771
4101
4142
3855
3409
3015
2772
2675
2728
2979
3395
3828
4172
4509
5001
5617
6062
6080
5780
5526
5474
5339
4728
3654
2572
1887
1550
1232
811
518
617
1065
1603
2062
2433
2680
2639
2239
1676
1259
1069
878
468
-49
-313
-120
318
552
309
-304
-918
-1177
-955
-381
279
818
1238
1704
2340
3025
3473
3484
3131
2656
2242
1892
1534
1162
853
673
608
603
631
696
777
813
744
574
370
206
107
34
-60
-184
-320
-449
-572
-691
-785
-812
-749
-628
-521
-484
-522
-603
-690
-773
-850
-903
-902
-835
-737
-662
-649
-687
-725
-729
-709
-712
-778
-890
-982
-988
-905
-811
-800
-889
-1006
-1075
-1104
-1167
-1308
-1478
-1590
-1614
-1588
-1556
-1515
-1446
-1369
-1331
-1348
-1394
-1436
-1472
-1516
-1566
-1595
-1589
-1557
-1511
-1434
-1302
-1125
-958
-873
-889
-962
-1014
-992
-915
-850
-844
-882
-895
-829
-693
-552
-463
-427
-391
-303
-158
-7
103
169
226
297
364
400
407
416
439
450
412
330
246
200
177
136
56
-42
-117
-144
-117
-43
68
193
307
390
448
505
568
609
580
471
332
246
253
317
373
376
349
341
367
399
399
370
349
375
446
516
540
507
453
426
446
482
485
429
342
277
272
319
385
434
456
465
485
526
571
605
624
652
701
748
753
721
718
804
956
1076
1092
1038
1001
1014
1005
882
645
369
111
-141
-419
-716
-1006
-1284
-1579
-1893
-2201
-2515
-2902
-3368
-3738
-3742
-3271
-2525
-1819
-1249
-600
374
1615
2762
3476
3710
3664
3527
3333
3034
2624
2163
1703
1290
990
871
918
999
988
897
848
912
1019
1059
1042
1108
1358
1713
1998
2122
2140
2131
2054
1784
1278
661
129
-213
-408
-540
-622
-580
-359
-6
353
592
659
586
452
336
275
250
214
137
47
2
24
75
96
72
42
46
84
131
175
223
281
339
382
404
394
336
230
106
10
-24
17
139
331
550
740
882
996
1083
1076
897
545
119
-280
-620
-909
-1111
-1150
-1001
-743
-485
-269
-68
125
264
299
236
131
38
-21
-29
26
138
277
410
512
567
576
560
557
588
640
687
723
762
800
808
765
690
630
606
602
591
577
585
623
665
677
647
598
562
544
513
439
328
228
176
161
129
51
-43
-100
-98
-69
-60
-84
-119
-146
-159
-161
-157
-149
-133
-95
-24
72
171
255
323
374
391
348
248
128
27
-37
-60
-30
70
228
399
534
611
621
554
409
221
42
-109
-259
-422
-544
-555
-469
-384
-381
-432
-434
-369
-339
-435
-631
-840
-1066
-1405
-1900
-2449
-2930
-3389
-3989
-4715
-5228
-5108
-4298
-3201
-2288
-1626
-865
300
1720
2884
3385
3257
2861
2512
2263
1990
1609
1175
802
562
453
451
533
657
760
792
740
648
579
564
577
577
542
479
404
331
266
224
215
229
222
153
38
-63
-105
-119
-171
-291
-427
-494
-482
-470
-536
-661
-746
-732
-662
-637
-697
-784
-820
-791
-751
-744
-757
-749
-710
-667
-648
-650
-650
-650
-673
-727
-788
-828
-849
-879
-919
-936
-908
-871
-882
-951
-1014
-1013
-987
-1018
-1127
-1215
-1170
-996
-798
-642
-483
-255
9
190
221
168
159
232
307
288
172
61
63
182
318
367
319
262
278
350
398
399
422
533
696
