-21846
-925
-923
-983
-1044
-1039
-971
-921
-958
-1063
-1139
-1127
-1074
-1074
-1155
-1238
-1239
-1175
-1147
-1205
-1284
-1279
-1183
-1097
-1096
-1146
-1157
-1111
-1090
-1166
-1304
-1402
-1414
-1401
-1443
-1534
-1586
-1545
-1460
-1422
-1457
-1510
-1521
-1508
-1524
-1589
-1657
-1684
-1675
-1666
-1666
-1652
-1622
-1608
-1642
-1694
-1716
-1704
-1719
-1807
-1921
-1969
-1906
-1791
-1715
-1706
-1714
-1686
-1629
-1589
-1592
-1621
-1632
-1608
-1555
-1494
-1445
-1408
-1362
-1284
-1166
-1034
-927
-860
-805
-722
-603
-490
-424
-404
-390
-351
-297
-255
-224
-180
-102
1
103
183
239
281
320
354
365
346
301
255
244
285
371
453
490
488
511
609
733
760
624
409
294
359
506
594
650
859
1327
1903
2280
2279
1981
1586
1205
809
351
-106
-429
-543
-492
-390
-304
-224
-134
-83
-176
-452
-787
-984
-943
-759
-594
-477
-310
-34
258
427
458
441
437
398
271
125
113
294
562
768
861
877
833
715
571
530
673
926
1111
1112
956
739
498
198
-203
-705
-1244
-1761
-2217
-2576
-2743
-2552
-1888
-845
298
1327
2275
3340
4558
5628
6148
6037
5590
5152
4781
4314
3637
2851
2152
1660
1361
1165
968
673
273
-114
-371
-542
-778
-1118
-1402
-1443
-1252
-1028
-903
-808
-622
-361
-183
-201
-384
-633
-901
-1174
-1433
-1662
-1894
-2160
-2412
-2504
-2355
-2075
-1900
-1951
-2077
-2028
-1736
-1403
-1267
-1340
-1380
-1189
-853
-650
-738
-1009
-1254
-1396
-1525
-1711
-1877
-1905
-1809
-1714
-1691
-1662
-1532
-1358
-1318
-1512
-1836
-2085
-2145
-2073
-2002
-1994
-1999
-1930
-1781
-1625
-1548
-1579
-1670
-1752
-1785
-1770
-1743
-1741
-1784
-1837
-1818
-1695
-1554
-1549
-1742
-1995
-2099
-2001
-1857
-1826
-1873
-1836
-1677
-1549
-1603
-1778
-1873
-1804
-1694
-1698
-1803
-1861
-1781
-1637
-1547
-1521
-1482
-1376
-1238
-1132
-1075
-1024
-935
-806
-682
-609
-574
-518
-391
-221
-94
-55
-55
-15
78
154
170
179
266
416
520
493
394
361
453
569
561
408
264
296
480
613
537
336
249
388
590
606
381
128
69
202
335
326
221
155
172
204
188
142
109
77
11
-95
-205
-266
-239
-132
17
138
161
97
46
99
217
265
165
8
-53
22
135
190
217
284
366
363
263
191
248
347
285
13
-266
-320
-165
-48
-139
-344
-449
-392
-321
-374
-500
-552
-479
-408
-485
-697
-905
-1032
-1168
-1456
-1911
-2370
-2614
-2553
-2266
-1888
-1478
-983
-326
529
1546
2614
3569
4255
4610
4723
4740
4708
4536
4105
3418
2613
1849
1208
722
412
222
19
-293
-650
-872
-883
-849
-1037
-1520
-2140
-2684
-3074
-3334
-3441
-3323
-3009
-2637
-2308
-1992
-1628
-1257
-978
-820
-750
-816
-1122
-1643
-2125
-2265
-2039
-1758
-1727
-1911
-1996
-1731
-1210
-805
-784
-1068
-1321
-1306
-1173
-1290
-1760
-2222
-2240
-1867
-1621
-1799
-2043
-1839
-1281
-1026
-1421
-1960
-1889
-1216
-764
-1103
-1800
-1954
-1323
-576
-443
-909
-1426
-1647
-1681
-1751
-1846
-1848
-1795
-1817
-1882
-1803
-1528
-1235
-1093
-1018
-822
-521
-379
-582
-937
-1069
-856
-622
-778
-1383
-2068
-2393
-2220
-1756
-1268
-872
-591
-444
-434
-458
-382
-216
-172
-453
-978
-1413
-1438
-1061
-585
-334
-405
-596
-573
-176
400
763
716
508
579
1043
1492
1429
921
570
819
1372
1529
1092
651
885
1691
2242
1979
1270
934
1236
1606
1391
651
67
121
602
929
832
533
363
384
452
461
456
484
505
473
467
609
871
1054
994
772
636
713
924
1140
1346
1589
1815
1937
2028
2304
2782
3089
2812
2034
1341
1210
1493
1636
1361
927
760
961
1311
1607
1748
1638
1248
766
521
632
810
639
108
-284
-74
655
1329
1448
1073
685
660
917
1016
598
-294
-1234
-1753
-1708
-1296
-811
-412
-62
402
1184
2385
3830
5063
5650
5533
5145
5038
5404
5893
5964
5427
4642
4122
3999
3982
3745
3250
2690
2148
1551
933
572
673
1000
1062
676
216
201
666
1134
1156
734
234
8
95
209
27
-482
-912
-827
-299
117
-38
-530
-674
-166
518
710
363
58
233
664
847
647
353
231
190
49
-139
-205
-165
-225
-460
-672
-598
-218
176
288
95
-182
-359
-484
-682
-939
-1011
-773
-463
-439
-726
-890
-572
-26
110
-434
-1222
-1610
-1452
-1129
-997
-1014
-1033
-1097
-1343
-1578
-1359
-629
-10
-189
-1060
-1720
-1457
-643
-341
-1000
-1917
-2120
-1586
-1197
-1523
-2085
-2008
-1238
-613
-722
-1138
-1072
-522
-345
-1074
-2084
-2278
-1458
-581
-575
-1269
-1628
-1043
31
608
228
-674
-1290
-1204
-641
-175
-186
-568
-898
-868
-535
-214
-130
-257
-416
-530
-656
-804
-871
-748
-459
-183
-110
-234
-354
-284
-58
83
-60
-421
-722
-801
-738
-759
-927
-1047
-920
-606
-370
-370
-462
-380
-58
295
431
282
-22
-269
-329
-202
26
212
261
230
270
469
750
902
795
522
273
183
242
327
309
145
-72
-193
-130
47
175
131
-49
-207
-227
-138
-41
18
90
254
523
793
909
749
294
-327
-950
-1529
-2106
-2658
-3002
-2911
-2376
-1644
-951
-240
701
1898
3047
3801
4140
4337
4583
4765
4661
4263
3783
3367
2958
2437
1812
1200
651
114
-420
-814
-897
-649
-235
137
354
413
345
189
6
-149
-252
-337
-455
-624
-811
-949
-990
-952
-932
-1052
-1352
-1704
-1895
-1813
-1592
-1451
-1460
-1458
-1273
-962
-781
-884
-1144
-1348
-1471
-1684
-2029
-2279
-2175
-1740
-1282
-1057
-1009
-917
-691
-454
-353
-387
-419
-334
-108
197
462
563
461
239
1
-267
-677
-1265
-1895
-2368
-2646
-2853
-3057
-3185
-3138
-2950
-2743
-2564
-2344
-2046
-1759
-1594
-1526
-1419
-1222
-1051
-1039
-1211
-1465
-1714
-1926
-2078
-2151
-2149
-2063
-1824
-1365
-766
-289
-127
-124
133
833
1649
2066
1935
1597
1402
1252
741
-269
-1415
-2195
-2457
-2440
-2374
-2197
-1712
-912
-65
626
727
665
507
367
254
129
-48
-273
-451
-451
-224
161
576
914
1171
1397
1596
1683
1583
1329
1050
835
617
240
-320
-836
-996
-710
-221
98
87
-116
-276
-310
-321
-394
-434
-258
195
812
1455
2078
2698
3236
3511
3401
3016
2611
2362
2212
2025
1786
1619
1609
1675
1658
1526
1402
1392
1451
1476
1456
1486
1603
1697
1646
1464
1265
1083
838
482
124
-71
-67
18
68
57
-34
-302
-862
-1658
-2414
-2821
-2743
-2270
-1594
-841
16
1107
2518
4122
5548
6412
6632
6483
6321
6254
6112
5726
5139
4527
4006
3557
3148
2812
2571
2343
1991
1488
977
645
559
618
664
603
447
263
101
-22
-105
-154
-177
-189
-208
-242
-270
-259
-208
-160
-164
-205
-216
-156
-75
-65
-148
-258
-312
-318
-356
-465
-582
-613
-539
-425
-339
-286
-221
-125
-28
33
35
-39
-204
-439
-663
-782
-767
-684
-619
-568
-450
-217
61
245
261
156
32
-69
-182
-342
-515
-626
-649
-627
-613
-601
-551
-467
-408
-423
-502
-574
-587
-548
-505
-497
-531
-578
-591
-556
-512
-524
-610
-709
-736
-664
-552
-469
-444
-458
-479
-479
-440
-384
-380
-480
-612
-612
-412
-152
-57
-165
-257
-115
198
395
311
113
77
248
390
300
69
-32
108
319
382
289
207
254
365
431
433
424
414
359
262
205
241
307
297
208
143
169
235
257
235
227
246
237
182
139
174
252
293
295
344
490
658
743
748
769
852
925
897
778
666
632
643
653
671
731
824
894
912
914
934
954
919
821
732
722
786
842
831
784
772
820
884
907
882
853
847
843
794
675
473
168
-246
-706
-1116
-1431
-1692
-1918
-1993
-1752
-1179
-476
150
741
1529
2615
3773
4643
5107
5362
5630
5871
5873
5540
5008
4441
3845
3160
2448
1898
1590
1384
1084
694
407
353
421
405
234
18
-133
-223
-312
-403
-453
-469
-506
-592
-667
-664
-595
-532
-514
-515
-483
-418
-369
-371
-426
-511
-590
-630
-617
-581
-566
-582
-594
-566
-505
-461
-465
-498
-527
-539
-552
-581
-613
-626
-615
-595
-586
-596
-609
-610
-610
-637
-710
-814
-913
-987
-1053
-1146
-1259
-1341
-1345
-1290
-1242
-1239
-1243
-1192
-1091
-1023
-1054
-1148
-1213
-1221
-1242
-1344
-1489
-1560
-1506
-1417
-1417
-1515
-1605
-1596
-1527
-1515
-1602
-1710
-1745
-1703
-1668
-1698
-1757
-1766
-1698
-1611
-1581
-1613
-1648
-1628
-1563
-1504
-1475
-1452
-1404
-1343
-1310
-1307
-1277
-1172
-1023
-921
-906
-929
-917
-866
-830
-843
-877
-885
-871
-866
-864
-819
-710
-594
-536
-549
-587
-615
-632
-641
-622
-572
-535
-563
-631
-679
-694
-731
-840
-998
-1154
-1293
-1423
-1478
-1322
-895
-331
145
440
655
921
1190
1292
1150
886
679
558
419
207
7
-73
-64
-96
-248
-451
-598
-642
-595
-448
-209
59
310
620
1113
1725
2164
2234
2084
2015
2093
2039
1666
1250
1234
1580
1731
1295
598
285
459
513
-79
-1086
-1831
-2067
-2179
-2501
-2725
-2271
-1088
232
1181
1972
3197
4990
6728
7615
7464
6810
6339
6248
6187
5737
4831
3806
3055
2653
2398
2114
1816
1590
1398
1088
680
423
521
804
875
581
234
227
508
624
279
-267
-472
-134
394
641
543
467
684
1043
1154
895
534
387
463
527
416
253
251
435
629
697
692
735
850
932
905
792
660
550
471
436
443
475
492
481
466
472
486
470
429
421
499
660
832
929
877
699
513
429
449
474
431
401
497
701
886
1004
1121
1291
1425
1364
1075
681
301
-25
-264
-323
-169
53
126
15
-46
140
447
525
183
-376
-713
-566
-111
181
-8
-498
-703
-221
673
1220
949
258
-35
364
915
938
460
163
437
939
1141
1051
1112
1475
1755
1596
1266
1309
1759
2026
1679
1060
877
1289
1705
1518
845
371
538
1122
1554
1501
1085
671
588
910
1395
1614
1283
596
105
183
643
980
908
638
556
739
939
952
854
844
982
1158
1247
1257
1257
1283
1322
1407
1575
1751
1751
1516
1211
1105
1250
1375
1225
932
837
1047
1315
1393
1437
1791
2410
2769
2429
1605
961
809
817
540
23
-329
-339
-257
-317
-397
-294
-147
-382
-1150
-2024
-2362
-1963
-1235
-749
-659
-558
156
1701
3568
4902
5271
5120
5363
6311
7263
7304
6353
5234
4689
4563
4188
3367
2529
2057
1773
1359
944
945
1337
1526
1091
402
112
310
426
41
-574
-905
-884
-850
-924
-839
-481
-257
-596
-1207
-1286
-503
475
665
-91
-956
-1049
-360
354
427
-101
-678
-894
-780
-608
-553
-625
-782
-1063
-1507
-1913
-1897
-1344
-661
-486
-970
-1532
-1444
-672
44
6
-660
-1221
-1217
-897
-795
-1081
-1459
-1630
-1590
-1477
-1321
-1153
-1161
-1507
-2010
-2204
-1840
-1237
-911
-1004
-1194
-1154
-913
-740
-767
-908
-1135
-1548
-2088
-2418
-2241
-1714
-1363
-1523
-1946
-2091
-1728
-1190
-959
-1121
-1356
-1362
-1151
-966
-942
-1005
-1022
-1003
-1045
-1168
-1304
-1407
-1506
-1597
-1556
-1270
-810
-414
-231
-176
-55
180
352
297
74
-144
-271
-362
-501
-656
-707
-591
-372
-153
-7
73
116
174
293
430
470
334
87
-106
-140
-66
13
70
173
363
571
678
679
670
714
748
671
501
373
364
386
303
134
78
282
647
928
1007
1029
1204
1524
1782
1822
1690
1513
1321
1085
862
777
850
923
867
793
942
1371
1828
2013
1910
1763
1715
1646
1369
889
375
-17
-292
-537
-784
-997
-1140
-1208
-1195
-1074
-798
-321
360
1154
1900
2494
3015
3636
4374
4999
5251
5140
4937
4865
4884
4790
4500
4114
3740
3358
2902
2402
1968
1659
1412
1127
798
516
366
370
498
681
823
849
760
639
585
631
731
808
840
860
915
988
1006
909
727
543
395
206
-104
-454
-624
-486
-162
90
153
156
260
441
543
492
365
236
56
-234
-540
-663
-533
-302
-171
-192
-263
-275
-212
-116
-29
0
-77
-243
-387
-411
-346
-309
-338
-357
-293
-206
-206
-296
-376
-401
-460
-628
-815
-833
-629
-369
-240
-227
-168
0
128
44
-220
-453
-518
-498
-553
-692
-783
-743
-625
-498
-348
-141
40
31
-215
-556
-823
-998
-1155
-1286
-1284
-1110
-883
-726
-582
-278
225
723
963
894
689
543
504
507
480
417
362
379
525
810
1161
1450
1561
1485
1321
1198
1190
1269
1327
1272
1132
1020
999
1012
954
779
557
385
300
268
230
147
38
-4
174
658
1347
1988
2366
2498
2586
2791
3059
3196
3100
2866
2679
2635
2688
2751
2783
2794
2781
2707
2566
2400
2280
2212
2134
1991
1813
1683
1659
1707
1758
1769
1747
1707
1644
1558
1473
1418
1397
1394
1398
1382
1287
1030
598
87
-369
-701
-929
-1117
-1308
-1486
-1560
-1398
-918
-209
480
957
1327
1925
2957
4232
5295
5857
6019
6083
6196
6221
5929
5242
4290
3289
2430
1827
1504
1409
1452
1556
1692
1844
1984
2054
1995
1793
1475
1104
763
511
361
279
223
164
95
26
-37
-99
-181
-287
-397
-473
-498
-487
-476
-491
-523
-532
-492
-415
-344
-330
-387
-472
-514
-487
-451
-500
-657
-827
-896
-861
-835
-899
-993
-988
-858
-724
-706
-760
-747
-631
-554
-685
-1016
-1368
-1573
-1613
-1575
-1521
-1438
-1308
-1142
-954
-747
-534
-390
-418
-642
-962
-1221
-1353
-1408
-1474
-1572
-1644
-1621
-1510
-1374
-1274
-1221
-1208
-1240
-1325
-1444
-1538
-1562
-1528
-1484
-1469
-1493
-1539
-1582
-1598
-1574
-1522
-1483
-1484
-1501
-1489
-1423
-1327
-1239
-1155
-1034
-869
-710
-637
-655
-685
-647
-556
-500
-527
-585
-580
-489
-380
-312
-274
-218
-135
-80
-106
-194
-284
-333
-345
-344
-343
-334
-308
-262
-196
-122
-69
-59
-88
-128
-159
-183
-214
-237
-223
-155
-57
29
70
77
88
139
223
297
316
270
206
183
226
305
381
448
503
529
501
448
446
535
652
694
626
528
478
475
473
467
487
516
476
344
248
325
544
714
708
617
619
734
784
603
213
-229
-637
-1063
-1555
-2022
-2329
-2473
-2586
-2719
-2703
-2296
-1486
-561
189
822
1697
3043
4629
5937
6661
6947
7136
7325
7291
6815
5975
5050
4228
3493
2779
2137
1676
1386
1131
812
485
278
217
185
75
-98
-227
-231
-144
-74
-91
-183
-298
-394
-460
-518
-586
-660
-721
-760
-787
-798
-766
-676
-596
-638
-828
-1034
-1071
-905
-707
-679
-823
-954
-905
-726
-606
-649
-777
-856
-850
-843
-913
-1035
-1125
-1131
-1078
-1028
-1019
-1036
-1048
-1036
-1000
-974
-999
-1077
-1153
-1156
-1073
-969
-925
-953
-989
-974
-923
-913
-972
-1051
-1071
-1021
-965
-976
-1053
-1137
-1179
-1174
-1143
-1110
-1095
-1115
-1166
-1213
-1213
-1170
-1131
-1145
-1209
-1264
-1259
-1215
-1192
-1221
-1276
-1318
-1329
-1320
-1294
-1238
-1159
-1095
-1085
-1105
-1084
-986
-874
-843
-908
-967
-901
-715
-536
-470
-494
-492
-396
-268
-211
-260
-336
-350
-302
-268
-304
-364
-350
-223
-58
15
-58
-208
-305
-288
-215
-195
-282
-432
-543
-549
-465
-368
-337
-406
-533
-626
-610
-500
-403
-413
-524
-631
-636
-540
-414
-324
-277
-254
-242
-225
-175
-82
15
59
43
38
97
171
156
37
-74
-57
65
129
24
-165
-218
-16
342
617
653
487
254
61
-86
-241
-425
-603
-731
-798
-801
-718
-514
-226
-4
-45
-453
-1129
-1816
-2319
-2688
-3117
-3653
-4038
-3918
-3215
-2224
-1273
-332
894
2504
4116
5202
5624
5754
5990
6283
6229
5598
4627
3735
3102
2621
2161
1730
1396
1129
833
516
264
95
-122
-502
-958
-1232
-1194
-1000
-928
-1068
-1188
-998
-527
-168
-268
-726
-1066
-954
-560
-350
-585
-1046
-1288
-1097
-648
-303
-286
-517
-719
-667
-422
-290
-478
-872
-1135
-1095
-954
-1002
-1193
-1162
-717
-160
22
-219
-405
-120
455
696
257
-544
-1043
-931
-533
-408
-734
-1150
-1189
-779
-303
-151
-307
-422
-245
68
156
-98
-425
-520
-403
-383
-620
-890
-841
-440
-54
-62
-419
-706
-588
-188
39
-205
-753
-1156
-1134
-829
-598
-652
-884
-1034
-975
-797
-649
-598
-640
-740
-835
-830
-640
-327
-84
-33
-81
-28
189
399
411
267
205
371
639
747
581
277
74
96
242
317
232
107
122
319
532
577
470
408
493
599
540
352
276
430
613
551
276
109
254
523
544
229
-102
-101
202
467
469
342
361
580
789
801
691
686
868
1080
1128
1027
980
1127
1374
1491
1361
1082
846
783
875
1003
1061
1024
953
942
1007
1090
1130
1139
1166
1218
1260
1278
1317
1399
1452
1358
1109
839
692
658
621
502
330
172
28
-171
-460
-802
-1142
-1487
-1867
-2245
-2474
-2381
-1928
-1268
-602
19
766
1851
3225
4548
5451
5837
5913
5947
6027
6025
5767
5192
4370
3454
2619
1998
1605
1325
1008
604
191
-113
-248
-248
-189
-165
-258
-483
-739
-865
-778
-569
-440
-522
-751
-939
-946
-805
-678
-691
-832
-970
-978
-875
-807
-881
-1023
-1053
-913
-756
-775
-955
-1078
-992
-812
-781
-942
-1073
-968
-723
-620
-776
-992
-1010
-824
-672
-733
-917
-1006
-921
-792
-778
-870
-936
-904
-838
-845
-958
-1088
-1147
-1111
-1037
-1007
-1063
-1173
-1261
-1270
-1227
-1214
-1286
-1413
-1507
-1508
-1451
-1404
-1405
-1430
-1441
-1421
-1382
-1355
-1357
-1393
-1442
-1462
-1433
-1398
-1429
-1525
-1598
-1563
-1457
-1409
-1489
-1583
-1525
-1280
-1003
-873
-928
-1057
-1131
-1116
-1076
-1079
-1149
-1241
-1260
-1151
-935
-702
-542
-471
-444
-417
-391
-369
-374
-430
-515
-557
-504
-384
-295
-311
-400
-451
-411
-325
-279
-294
-334
-384
-433
-445
-362
-184
-26
-13
-131
-230
-196
-67
36
48
12
-9
-9
-9
3
65
171
265
287
270
308
431
554
566
444
301
292
457
663
729
587
371
309
500
798
938
794
514
365
463
669
750
634
431
299
277
308
349
403
480
523
442
179
-215
-611
-908
-1129
-1407
-1846
-2380
-2763
-2746
-2299
-1638
-1019
-509
62
914
2081
3364
4485
5269
5709
5930
6058
6129
6058
5702
5011
4121
3289
2696
2321
2003
1609
1166
803
618
580
574
482
274
23
-155
-207
-186
-194
-282
-399
-452
-429
-400
-438
-538
-627
-648
-617
-605
-656
-741
-789
-753
-660
-576
-540
-529
-492
-424
-375
-399
-508
-650
-773
-861
-924
-965
-983
-973
-936
-889
-847
-832
-860
-927
-1006
-1064
-1096
-1134
-1200
-1278
-1322
-1304
-1250
-1222
-1262
-1355
-1436
-1460
-1437
-1425
-1466
-1532
-1543
-1456
-1320
-1245
-1289
-1388
-1435
-1391
-1321
-1306
-1352
-1409
-1457
-1528
-1637
-1731
-1747
-1712
-1716
-1801
-1905
-1935
-1859
-1743
-1661
-1620
-1587
-1541
-1485
-1426
-1378
-1360
-1395
-1461
-1500
-1466
-1378
-1296
-1254
-1223
-1151
-1035
-921
-861
-861
-874
-840
-744
-623
-538
-502
-466
-360
-188
-31
30
15
27
134
280
352
305
218
216
353
581
808
983
1101
1173
1195
1150
1027
817
521
168
-178
-446
-600
-653
-621
-499
-289
-34
195
359
488
620
743
795
752
675
662
744
863
951
1002
1058
1128
1169
1144
1081
1060
1125
1239
1329
1363
1370
1384
1397
1374
1310
1235
1179
1137
1100
1085
1121
1195
1250
1232
1138
1006
831
571
204
-233
-671
-1058
-1390
-1684
-1923
-2027
-1891
-1467
-836
-168
435
1074
1969
3193
4526
5610
6261
6591
6815
6979
6936
6544
5838
4987
4142
3368
2687
2120
1665
1282
930
619
378
217
110
27
-43
-116
-225
-367
-476
-492
-453
-476
-648
-926
-1169
-1289
-1317
-1328
-1324
-1242
-1062
-857
-723
-674
-636
-557
-476
-470
-538
-582
-497
-290
-85
-5
-59
-136
-125
-26
51
-12
-230
-511
-762
-970
-1185
-1422
-1619
-1696
-1651
-1571
-1534
-1539
-1523
-1451
-1370
-1345
-1375
-1402
-1376
-1315
-1261
-1219
-1144
-1004
-832
-702
-642
-624
-608
-597
-631
-718
-816
-878
-904
-929
-968
-995
-986
-968
-987
-1043
-1086
-1071
-1004
-927
-853
-773
-682
-611
-587
-599
-604
-572
-508
-430
-342
-235
-105
49
228
413
556
603
542
415
284
174
80
-4
-57
-43
52
219
440
686
919
1088
1168
1182
1187
1221
1269
1284
1246
1200
1219
1326
1464
1536
1504
1431
1413
1479
1563
1601
1600
1628
1714
1804
1824
1772
1713
1697
1701
1665
1577
1492
1463
1489
1528
1554
1577
1615
1671
1735
1806
1886
1963
2012
2025
2019
2022
2045
2088
2137
2175
2172
2115
2039
2015
2078
2178
2218
2148
2024
1944
1949
1991
1999
1943
1844
1744
1677
1661
1694
1745
1766
1735
1666
1585
1469
1258
913
447
-69
-554
-969
-1338
-1698
-1996
-2075
-1794
-1192
-491
140
790
1704
2962
4295
5312
5859
6115
6317
6482
6431
6037
5379
4635
3915
3242
2629
2116
1711
1365
1030
711
457
290
176
67
-51
-160
-247
-313
-360
-385
-395
-406
-442
-518
-621
-723
-797
-833
-838
-827
-817
-824
-854
-908
-970
-1012
-1017
-1000
-991
-1009
-1044
-1065
-1053
-1025
-1018
-1048
-1091
-1107
-1091
-1068
-1072
-1100
-1127
-1143
-1169
-1218
-1275
-1309
-1311
-1305
-1313
-1326
-1318
-1295
-1290
-1327
-1384
-1427
-1458
-1511
-1604
-1702
-1745
-1721
-1676
-1656
-1661
-1651
-1610
-1566
-1555
-1575
-1603
-1631
-1673
-1724
-1754
-1731
-1674
-1636
-1648
-1694
-1744
-1784
-1818
-1848
-1865
-1877
-1911
-1964
-1993
-1942
-1802
-1618
-1446
-1317
-1235
-1193
-1170
-1120
-981
-751
-513
-368
-317
-266
-141
15
95
51
-61
-191
-347
-528
-661
-687
-688
-822
-1076
-1176
-838
-116
606
989
1047
1022
1025
938
638
202
-205
-536
-874
-1222
-1412
-1281
-908
-583
-522
-674
-815
-782
-613
-468
-472
-597
-674
-557
-267
-2
42
-127
-321
-398
-419
-534
-719
-746
-427
130
595
740
648
579
661
776
738
532
326
299
450
607
597
420
259
289
490
670
665
526
462
598
823
938
885
787
760
777
735
623
528
498
445
244
-122
-541
-885
-1139
-1380
-1684
-2028
-2271
-2228
-1819
-1167
-508
54
671
1572
2750
3886
4635
4964
5128
5330
5491
5390
4958
4348
3756
3232
2725
2229
1809
1493
1227
949
672
466
364
314
245
136
19
-64
-105
-118
-125
-133
-149
-187
-251
-332
-411
-463
-474
-467
-487
-557
-659
-741
-770
-765
-775
-825
-879
-873
-789
-677
-618
-643
-706
-730
-694
-645
-644
-701
-768
-805
-825
-866
-937
-1001
-1035
-1055
-1098
-1149
-1165
-1138
-1119
-1154
-1222
-1251
-1220
-1190
-1241
-1380
-1526
-1602
-1590
-1539
-1502
-1509
-1555
-1599
-1599
-1546
-1491
-1502
-1587
-1692
-1766
-1812
-1845
-1845
-1777
-1639
-1499
-1425
-1410
-1392
-1351
-1332
-1395
-1529
-1658
-1723
-1718
-1662
-1555
-1386
-1175
-968
-790
-624
-451
-309
-250
-288
-371
-446
-512
-593
-665
-658
-531
-349
-228
-217
-260
-261
-204
-163
-221
-363
-496
-535
-473
-345
-179
3
155
205
147
82
129
262
295
77
-297
-537
-461
-189
3
-25
-148
-171
-74
-5
-58
-158
-163
-64
-5
-89
-251
-305
-175
5
45
-88
-220
-166
45
172
30
-272
-406
-182
249
559
608
556
668
965
1190
1119
822
564
485
438
246
7
37
487
1089
1396
1259
976
935
1173
1385
1304
986
677
519
464
419
360
266
36
-416
-994
-1494
-1817
-2031
-2222
-2282
-2004
-1358
-624
-100
290
917
1965
3151
3981
4269
4295
4436
4741
4978
4974
4778
4485
4067
3482
2837
2323
1985
1664
1226
736
335
72
-90
-134
24
343
588
541
262
13
-7
133
224
152
-56
-314
-534
-625
-499
-196
74
98
-134
-392
-409
-146
173
269
80
-192
-295
-171
-9
-50
-315
-585
-626
-413
-139
3
9
27
162
348
435
316
33
-284
-519
-652
-741
-843
-955
-1018
-974
-813
-587
-371
-233
-194
-216
-250
-287
-374
-513
-642
-687
-663
-643
-647
-580
-368
-124
-55
-239
-508
-660
-680
-707
-807
-883
-844
-757
-751
-806
-746
-485
-201
-156
-401
-712
-816
-655
-407
-292
-365
-490
-472
-225
158
482
578
456
273
210
310
453
469
301
103
99
329
575
580
369
201
287
547
725
699
562
467
452
467
498
557
610
567
392
152
-25
-58
40
191
296
288
193
116
150
282
408
452
424
345
237
171
250
491
727
747
555
377
405
582
700
679
634
657
680
612
531
589
788
931
882
741
728
892
1072
1122
1088
1125
1256
1286
1050
632
336
393
700
902
791
525
448
704
1058
1127
837
454
247
139
-166
-741
-1300
-1568
-1635
-1806
-2117
-2182
-1657
-735
28
398
780
1693
3077
4303
4899
5048
5257
5655
5867
5547
4853
4257
3951
3679
3148
2423
1846
1609
1529
1286
810
290
-35
-117
-105
-185
-427
-724
-882
-793
-539
-336
-340
-458
-475
-301
-131
-255
-709
-1172
-1307
-1154
-1040
-1157
-1318
-1213
-843
-518
-454
-515
-489
-442
-630
-1064
-1404
-1393
-1212
-1240
-1483
-1523
-1098
-519
-359
-772
-1314
-1487
-1287
-1130
-1304
-1644
-1816
-1676
-1356
-1067
-932
-965
-1135
-1368
-1561
-1648
-1647
-1595
-1491
-1339
-1211
-1193
-1270
-1296
-1143
-903
-865
-1240
-1883
-2368
-2346
-1874
-1394
-1314
-1595
-1801
-1564
-987
-553
-639
-1144
-1651
-1882
-1881
-1832
-1807
-1789
-1783
-1807
-1747
-1426
-880
-478
-541
-921
-1102
-784
-248
-23
-248
-529
-458
-83
215
194
-19
-177
-198
-165
-118
-19
89
72
-126
-356
-389
-192
-6
-60
-302
-462
-352
-61
176
229
155
65
6
-39
-77
-89
-87
-102
-131
-116
-23
101
176
204
256
366
483
532
517
523
617
763
849
771
514
189
-33
-65
25
103
112
155
374
763
1162
1446
1612
1697
1677
1498
1213
961
787
575
227
-155
-358
-295
-118
-19
-21
5
133
285
348
312
234
115
-101
-439
-846
-1241
-1580
-1863
-2086
-2247
-2353
-2351
-2123
-1596
-871
-165
426
1078
2042
3285
4417
5047
5174
5160
5328
5606
5640
5195
4382
3541
2920
2525
2211
1877
1528
1201
904
643
465
417
466
497
401
187
-33
-162
-207
-233
-294
-399
-538
-693
-829
-912
-953
-1004
-1096
-1193
-1246
-1268
-1312
-1391
-1438
-1382
-1256
-1158
-1158
-1223
-1268
-1240
-1152
-1043
-955
-930
-980
-1051
-1052
-943
-775
-635
-564
-528
-480
-413
-370
-389
-471
-595
-742
-905
-1079
-1252
-1394
-1463
-1429
-1284
-1053
-782
-520
-315
-200
-180
-237
-346
-500
-712
-990
-1306
-1588
-1752
-1767
-1689
-1628
-1646
-1692
-1656
-1495
-1288
-1164
-1174
-1254
-1316
-1333
-1337
-1339
-1316
-1255
-1179
-1108
-1027
-909
-765
-658
-621
-606
-544
-425
-323
-311
-363
-376
-279
-106
42
121
183
320
554
817
1025
1154
1218
1227
1162
1016
806
552
265
-31
-290
-469
-579
-664
-729
-729
-638
-510
-438
-445
-460
-411
-314
-236
-200
-146
-10
175
315
341
292
258
283
315
272
148
38
74
306
657
1004
1287
1548
1836
2126
2321
2348
2219
1975
1637
1225
816
552
532
723
987
1206
1357
1467
1530
1505
1371
1145
837
448
19
-357
-608
-765
-935
-1173
-1427
-1617
-1742
-1873
-2031
-2138
-2131
-2055
-2000
-1963
-1854
-1647
-1446
-1343
-1238
-920
-324
391
1048
1719
2659
3969
5388
6486
7053
7227
7262
7239
7032
6521
5748
4876
4042
3278
2552
1852
1214
697
346
157
74
27
-22
-56
-41
21
81
88
32
-61
-150
-188
-135
17
218
393
495
528
507
413
198
-144
-553
-944
-1273
-1534
-1702
-1715
-1545
-1258
-989
-827
-755
-706
-660
-654
-712
-791
-829
-813
-789
-791
-793
-754
-671
-601
-591
-626
-659
-672
-685
-717
-745
-746
-733
-747
-810
-898
-973
-1025
-1064
-1094
-1113
-1132
-1170
-1214
-1218
-1162
-1091
-1076
-1124
-1163
-1132
-1072
-1078
-1177
-1272
-1255
-1140
-1045
-1050
-1100
-1083
-968
-853
-838
-911
-971
-958
-916
-913
-941
-926
-830
-707
-636
-615
-567
-447
-309
-236
-240
-246
-187
-69
52
137
192
227
242
249
267
303
326
310
274
257
273
295
299
301
325
360
366
327
260
191
130
96
112
173
218
190
125
124
237
381
412
285
106
13
23
52
35
-2
-4
27
37
9
9
103
279
437
496
478
467
519
611
676
675
610
508
401
323
310
366
446
488
481
482
553
687
789
777
670
569
543
550
500
367
231
194
254
314
303
250
225
230
175
-15
-333
-716
-1109
-1497
-1891
-2294
-2672
-2927
-2929
-2602
-2030
-1409
-837
-183
787
2107
3487
4546
5143
5448
5696
5913
5929
5592
4937
4129
3321
2581
1931
1399
993
682
406
133
-106
-260
-326
-366
-465
-641
-816
-887
-829
-730
-701
-759
-812
-778
-684
-647
-744
-916
-1027
-1009
-930
-917
-1009
-1130
-1176
-1121
-1027
-970
-970
-992
-997
-979
-966
-990
-1056
-1140
-1211
-1255
-1288
-1338
-1406
-1459
-1464
-1423
-1374
-1366
-1420
-1501
-1552
-1561
-1587
-1700
-1879
-2008
-1991
-1868
-1775
-1784
-1828
-1811
-1742
-1711
-1746
-1772
-1721
-1645
-1651
-1748
-1824
-1798
-1721
-1702
-1768
-1836
-1841
-1816
-1831
-1893
-1940
-1932
-1903
-1928
-2025
-2126
-2126
-1961
-1666
-1359
-1157
-1092
-1112
-1149
-1198
-1304
-1486
-1707
-1915
-2070
-2139
-2080
-1875
-1583
-1312
-1129
-1003
-877
-756
-703
-732
-763
-706
-564
-424
-328
-220
-39
171
282
244
146
120
190
266
277
258
285
366
434
438
395
355
343
355
398
471
543
557
503
439
429
469
496
468
410
375
390
435
482
520
544
552
556
573
606
628
619
605
631
704
772
791
776
783
829
863
834
757
702
704
730
736
729
744
789
811
764
670
597
580
585
555
494
453
462
497
507
463
371
224
3
-300
-666
-1052
-1415
-1735
-2031
-2321
-2555
-2592
-2302
-1728
-1095
-597
-153
530
1610
2851
3806
4247
4361
4478
4682
4752
4466
3856
3133
2441
1792
1175
656
302
66
-173
-461
-715
-827
-801
-758
-818
-986
-1174
-1293
-1325
-1315
-1313
-1329
-1351
-1373
-1397
-1414
-1416
-1405
-1392
-1389
-1395
-1417
-1472
-1563
-1647
-1670
-1627
-1582
-1592
-1637
-1648
-1591
-1514
-1483
-1510
-1546
-1557
-1551
-1553
-1561
-1556
-1547
-1566
-1627
-1702
-1757
-1784
-1808
-1851
-1903
-1945
-1975
-2010
-2048
-2068
-2046
-1989
-1935
-1919
-1935
-1943
-1921
-1880
-1859
-1876
-1916
-1950
-1955
-1941
-1930
-1945
-1981
-2006
-1990
-1932
-1869
-1844
-1860
-1883
-1883
-1879
-1911
-1974
-2025
-2029
-2006
-2013
-2060
-2078
-2014
-1890
-1781
-1729
-1690
-1606
-1482
-1384
-1347
-1317
-1215
-1038
-883
-829
-830
-772
-618
-505
-603
-906
-1176
-1186
-972
-791
-801
-873
-739
-339
84
265
225
212
358
506
411
49
-334
-453
-288
-67
-35
-217
-408
-380
-128
99
45
-296
-674
-820
-725
-578
-499
-400
-152
194
415
421
397
565
852
955
732
403
288
437
606
597
531
650
945
1140
1074
891
820
883
894
761
634
691
869
945
829
670
678
885
1119
1181
988
620
304
316
696
1135
1219
877
520
597
1039
1318
1077
548
220
199
101
-453
-1310
-1901
-1872
-1467
-1198
-1255
-1299
-855
204
1533
2680
3512
4227
5008
5727
6082
6005
5782
5686
5595
5123
4175
3171
2671
2746
2896
2623
1948
1306
1048
1142
1323
1383
1249
948
584
358
426
699
863
676
229
-130
-150
95
296
227
-53
-281
-219
124
513
689
592
394
306
348
359
221
17
-75
-14
39
-55
-236
-310
-202
-53
-42
-167
-276
-264
-185
-132
-102
-39
46
74
9
-86
-130
-116
-88
-60
-28
-11
-58
-154
-223
-223
-212
-269
-403
-562
-704
-820
-859
-772
-612
-548
-676
-857
-870
-690
-537
-593
-757
-787
-644
-543
-640
-804
-789
-562
-351
-357
-513
-582
-449
-233
-121
-149
-185
-103
35
82
5
-55
51
287
441
370
210
192
352
498
463
327
296
438
610
686
695
706
683
562
413
407
564
683
589
375
294
425
567
519
345
277
391
546
604
613
670
731
694
575
518
570
601
487
357
459
766
953
774
421
337
689
1159
1342
1191
1004
1008
1139
1237
1267
1295
1316
1253
1110
1019
1059
1161
1215
1240
1333
1475
1518
1387
1204
1155
1258
1347
1286
1124
1005
1027
1157
1301
1382
1355
1202
964
733
587
525
440
221
-134
-517
-794
-925
-953
-923
-783
-439
126
798
1475
2182
3006
3922
4750
5288
5486
5481
5453
5489
5507
5333
4837
4071
3297
2787
2575
2431
2095
1534
951
574
479
604
788
807
494
-75
-547
-589
-248
87
81
-197
-408
-374
-183
2
103
82
-157
-620
-1048
-1079
-692
-304
-324
-659
-851
-607
-151
60
-149
-536
-767
-748
-620
-528
-520
-580
-687
-786
-796
-667
-474
-388
-505
-748
-929
-932
-817
-743
-775
-874
-972
-1021
-1019
-952
-820
-714
-751
-923
-1049
-991
-831
-759
-854
-962
-899
-719
-625
-712
-862
-919
-895
-937
-1118
-1324
-1370
-1191
-934
-801
-845
-930
-855
-600
-367
-389
-655
-873
-786
-443
-141
-90
-206
-258
-127
101
254
243
132
65
127
278
368
305
195
206
330
375
237
96
234
629
911
802
489
420
754
1150
1206
912
622
590
707
721
578
454
482
564
521
338
210
310
567
729
643
424
333
488
713
744
537
327
353
584
771
761
665
695
885
1073
1099
984
882
896
1005
1117
1183
1209
1204
1165
1096
1045
1058
1117
1158
1125
1038
968
966
1010
1026
967
852
728
621
538
494
515
593
675
704
689
687
724
701
500
110
-334
-678
-906
-1128
-1417
-1671
-1702
-1431
-957
-461
-5
506
1215
2173
3267
4298
5090
5576
5806
5901
5945
5917
5721
5277
4625
3918
3310
2833
2379
1826
1183
596
185
-94
-388
-770
-1130
-1294
-1211
-1014
-872
-823
-803
-756
-701
-693
-757
-868
-992
-1103
-1187
-1221
-1193
-1100
-976
-884
-887
-981
-1074
-1065
-953
-844
-829
-882
-905
-862
-818
-834
-882
-887
-847
-846
-931
-1053
-1115
-1110
-1109
-1165
-1242
-1278
-1257
-1221
-1199
-1172
-1096
-966
-828
-750
-773
-866
-956
-1007
-1064
-1229
-1507
-1744
-1766
-1572
-1362
-1315
-1387
-1371
-1172
-932
-862
-986
-1119
-1113
-1021
-1001
-1091
-1177
-1148
-1029
-937
-922
-929
-886
-786
-670
-571
-502
-467
-448
-411
-331
-237
-191
-216
-257
-243
-164
-83
-53
-58
-43
14
89
150
196
247
308
364
398
425
465
514
535
508
457
435
460
484
456
404
414
510
613
617
530
475
541
671
741
724
715
791
894
912
838
781
807
834
758
616
585
764
1033
1190
1190
1193
1332
1540
1623
1496
1274
1129
1092
1050
906
698
546
526
608
696
719
668
603
591
659
766
834
834
806
811
871
961
1041
1098
1141
1185
1241
1303
1351
1366
1346
1298
1210
1050
794
461
98
-240
-536
-805
-1062
-1302
-1465
-1448
-1184
-716
-173
355
928
1682
2640
3624
4397
4867
5127
5298
5387
5303
5005
4549
4026
3483
2937
2441
2053
1776
1541
1280
1008
800
688
628
552
444
340
270
232
210
211
242
287
298
248
162
93
70
64
35
-22
-80
-109
-112
-109
-124
-150
-176
-177
-149
-107
-82
-109
-191
-296
-379
-418
-419
-411
-409
-413
-414
-396
-355
-306
-280
-305
-369
-424
-436
-422
-436
-501
-569
-574
-509
-441
-434
-477
-508
-492
-453
-432
-433
-426
-407
-401
-423
-449
-446
-426
-437
-496
-547
-523
-421
-315
-272
-276
-267
-221
-188
-217
-288
-336
-326
-289
-275
-283
-261
-172
-48
42
68
65
93
173
255
275
219
151
155
245
350
391
374
372
436
528
572
554
536
572
626
620
538
458
457
520
550
487
386
339
369
416
416
373
334
326
328
316
302
315
346
355
317
265
249
277
310
306
281
293
366
455
496
481
478
549
675
770
780
746
749
824
920
970
964
939
934
953
980
1001
1004
980
938
906
910
933
934
904
881
902
948
971
953
928
939
974
991
968
930
917
923
896
795
613
368
67
-271
-607
-909
-1181
-1443
-1654
-1688
-1454
-1002
-504
-67
405
1105
2073
3082
3824
4194
4361
4539
4742
4795
4556
4075
3520
3003
2518
2039
1600
1260
1018
798
553
324
181
133
104
27
-88
-181
-232
-287
-381
-468
-472
-409
-393
-496
-644
-691
-581
-407
-307
-328
-446
-635
-882
-1126
-1257
-1218
-1074
-959
-931
-914
-787
-519
-207
1
7
-175
-416
-562
-569
-545
-623
-801
-916
-821
-548
-276
-147
-139
-143
-147
-258
-568
-1014
-1410
-1616
-1683
-1796
-2053
-2327
-2362
-2048
-1570
-1247
-1220
-1326
-1316
-1139
-976
-1001
-1180
-1329
-1337
-1259
-1201
-1169
-1080
-923
-814
-850
-966
-988
-836
-630
-559
-667
-788
-735
-515
-308
-258
-311
-301
-154
38
131
106
74
116
200
236
204
177
217
287
307
275
264
324
399
406
344
299
326
371
339
236
171
229
352
400
310
172
118
181
266
259
153
51
41
109
150
87
-44
-125
-75
53
135
114
60
75
176
273
288
239
201
196
177
123
99
184
352
490
529
530
599
744
866
870
776
679
636
633
628
616
614
620
602
544
457
375
308
255
210
171
137
103
76
65
78
108
132
125
67
-46
-205
-397
-623
-894
-1208
-1528
-1809
-2044
-2253
-2416
-2419
-2152
-1657
-1127
-714
-328
285
1241
2324
3150
3532
3630
3733
3935
4066
3907
3424
2780
2171
1677
1268
885
507
156
-143
-375
-546
-658
-714
-733
-746
-772
-805
-812
-789
-764
-765
-790
-829
-892
-999
-1127
-1205
-1190
-1115
-1058
-1047
-1047
-1018
-973
-957
-992
-1056
-1125
-1191
-1242
-1249
-1199
-1124
-1085
-1098
-1112
-1074
-994
-939
-973
-1072
-1168
-1216
-1235
-1278
-1368
-1477
-1570
-1639
-1705
-1777
-1808
-1742
-1589
-1427
-1338
-1320
-1298
-1229
-1161
-1192
-1355
-1576
-1740
-1786
-1746
-1694
-1689
-1726
-1736
-1649
-1468
-1332
-1412
-1725
-2058
-2149
-1954
-1715
-1686
-1849
-1946
-1801
-1539
-1424
-1530
-1647
-1555
-1312
-1167
-1219
-1264
-1047
-602
-265
-304
-645
-978
-1098
-1043
-957
-894
-797
-667
-573
-528
-422
-162
145
270
108
-180
-328
-230
-11
136
160
151
168
193
219
291
421
480
320
-8
-209
-18
468
808
646
108
-286
-144
376
744
610
166
-119
-9
303
484
410
230
121
99
98
139
331
685
1035
1160
1036
869
904
1192
1518
1594
1351
1006
861
986
1155
1103
830
593
604
790
901
839
739
776
927
1039
1047
1048
1103
1114
957
700
571
701
948
1046
911
715
670
754
729
405
-156
-722
-1133
-1428
-1722
-2007
-2123
-1928
-1470
-946
-467
64
845
1923
3099
4084
4739
5144
5463
5769
5980
5946
5591
4981
4273
3616
3045
2513
1983
1507
1166
960
821
692
595
577
604
567
401
171
11
-26
-38
-129
-285
-398
-398
-354
-399
-563
-707
-648
-360
-38
69
-114
-423
-610
-576
-441
-378
-425
-484
-473
-433
-461
-569
-640
-576
-470
-511
-757
-1019
-1035
-769
-478
-449
-685
-915
-902
-733
-694
-910
-1186
-1252
-1105
-1022
-1193
-1455
-1478
-1197
-930
-1009
-1360
-1609
-1545
-1347
-1321
-1505
-1649
-1564
-1363
-1290
-1389
-1482
-1435
-1319
-1288
-1332
-1307
-1169
-1075
-1187
-1419
-1512
-1325
-1031
-942
-1158
-1442
-1469
-1181
-838
-718
-812
-862
-718
-511
-443
-504
-476
-247
-1
-1
-245
-435
-316
33
317
366
275
242
351
513
581
486
292
139
135
265
395
424
420
541
809
1036
1024
810
635
635
687
598
373
230
317
536
697
737
769
898
1069
1136
1043
886
815
869
948
960
946
1028
1230
1446
1554
1569
1607
1705
1759
1672
1525
1487
1583
1677
1631
1507
1499
1664
1853
1895
1759
1550
1388
1332
1375
1430
1373
1162
937
922
1160
1425
1462
1287
1165
1264
1447
1453
1216
898
640
383
13
-431
-817
-1107
-1401
-1742
-1964
-1824
-1290
-582
76
669
1371
2323
3500
4729
5798
6509
6790
6759
6664
6625
6469
5910
4888
3708
2775
2238
1930
1614
1217
815
502
326
305
373
390
262
55
-65
-55
-54
-174
-322
-317
-184
-145
-316
-529
-543
-355
-204
-232
-329
-340
-294
-309
-381
-412
-407
-520
-779
-955
-825
-517
-405
-631
-891
-815
-453
-215
-351
-651
-754
-603
-474
-579
-822
-955
-899
-776
-725
-742
-766
-778
-777
-727
-615
-518
-571
-787
-997
-1023
-904
-855
-1015
-1271
-1384
-1262
-1029
-880
-862
-867
-794
-674
-599
-592
-604
-597
-614
-704
-829
-890
-844
-761
-738
-774
-784
-707
-579
-465
-391
-334
-284
-254
-245
-227
-200
-207
-267
-326
-317
-251
-204
-194
-124
77
339
495
474
374
339
386
405
322
177
54
-12
-51
-83
-100
-96
-80
-69
-68
-63
-18
104
320
574
753
778
680
553
445
316
115
-132
-341
-468
-523
-511
-393
-157
106
252
228
145
147
254
349
324
201
98
102
203
353
508
651
767
840
875
878
846
786
730
703
692
654
582
552
651
877
1131
1322
1432
1485
1457
1302
1028
723
459
237
18
-186
-311
-320
-262
-225
-279
-448
-722
-1066
-1415
-1703
-1894
-1974
-1895
-1605
-1112
-511
146
926
1931
3082
4110
4767
5066
5209
5318
5324
5107
4684
4186
3685
3159
2617
2156
1863
1684
1474
1159
781
405
34
-336
-658
-886
-1047
-1202
-1340
-1369
-1248
-1061
-924
-853
-793
-732
-742
-839
-916
-861
-715
-622
-660
-752
-791
-766
-724
-661
-526
-359
-297
-428
-640
-727
-629
-502
-546
-759
-961
-998
-903
-828
-851
-904
-880
-774
-696
-733
-856
-934
-886
-750
-653
-673
-763
-808
-746
-632
-571
-597
-663
-707
-707
-689
-664
-619
-559
-510
-497
-515
-524
-500
-459
-431
-442
-487
-538
-560
-527
-462
-423
-466
-567
-635
-612
-533
-498
-549
-627
-619
-490
-321
-209
-166
-107
58
350
710
1058
1323
1468
1496
1420
1273
1071
804
482
157
-86
-185
-154
-47
94
278
503
708
816
798
719
662
643
618
552
485
494
600
744
842
868
854
846
854
862
862
869
902
951
997
1008
987
948
895
823
737
671
659
691
717
691
626
580
591
655
742
828
893
906
880
885
995
1179
1299
1252
1094
988
1023
1120
1136
1034
913
879
933
995
1011
981
943
923
920
917
892
830
752
717
739
752
659
436
146
-113
-321
-535
-815
-1163
-1490
-1666
-1590
-1277
-864
-491
-144
354
1146
2132
3021
3600
3905
4124
4346
4486
4431
4175
3800
3361
2870
2373
1956
1652
1407
1156
911
729
616
500
335
173
81
49
-7
-125
-231
-233
-132
-19
30
11
-32
-68
-83
-66
-6
64
81
39
13
72
181
219
130
6
-21
62
127
61
-89
-171
-90
93
245
281
220
135
83
59
16
-108
-311
-509
-594
-543
-450
-424
-478
-523
-497
-441
-440
-524
-621
-657
-643
-647
-687
-720
-715
-702
-738
-814
-874
-901
-937
-1009
-1060
-1011
-880
-784
-802
-872
-890
-839
-811
-884
-1012
-1093
-1084
-1024
-956
-895
-844
-808
-764
-669
-536
-463
-521
-645
-665
-505
-285
-186
-234
-284
-213
-56
43
24
-40
-56
-13
20
8
-12
13
63
62
-28
-162
-258
-279
-280
-331
-444
-555
-603
-584
-535
-484
-424
-341
-238
-134
-39
47
113
145
150
149
148
127
73
7
-33
-36
-30
-42
-62
-58
-12
55
111
140
152
169
219
307
405
473
491
480
471
471
463
433
393
355
321
287
275
305
354
363
303
221
196
242
282
241
132
40
18
35
21
-30
-74
-94
-139
-268
-475
-717
-973
-1270
-1623
-1991
-2303
-2497
-2538
-2416
-2149
-1793
-1396
-924
-288
532
1402
2114
2577
2869
3107
3287
3304
3100
2736
2330
1922
1476
992
546
220
14
-162
-383
-628
-818
-907
-932
-960
-1027
-1116
-1191
-1238
-1262
-1254
-1209
-1151
-1152
-1260
-1426
-1536
-1511
-1391
-1304
-1336
-1455
-1555
-1558
-1484
-1421
-1431
-1499
-1556
-1540
-1458
-1379
-1363
-1408
-1457
-1466
-1454
-1464
-1512
-1553
-1551
-1516
-1496
-1513
-1539
-1546
-1545
-1563
-1585
-1564
-1491
-1428
-1443
-1516
-1548
-1479
-1375
-1366
-1503
-1694
-1802
-1791
-1747
-1767
-1830
-1833
-1721
-1570
-1502
-1555
-1634
-1628
-1538
-1470
-1518
-1646
-1739
-1711
-1596
-1485
-1437
-1430
-1406
-1342
-1268
-1222
-1201
-1169
-1097
-999
-906
-831
-754
-645
-496
-330
-188
-103
-78
-86
-89
-75
-66
-81
-102
-95
-51
-8
3
7
59
161
235
205
92
-8
-36
-16
-8
-22
-26
-4
19
21
27
67
115
106
17
-102
-174
-180
-155
-137
-122
-78
7
122
230
297
304
257
194
150
113
41
-82
-205
-247
-184
-73
25
101
190
295
373
408
445
515
537
388
77
-185
-154
197
651
997
1237
1516
1872
2157
2194
1957
1544
1018
367
-368
-1007
-1347
-1359
-1220
-1109
-1056
-964
-786
-616
-612
-844
-1249
-1672
-1993
-2201
-2345
-2420
-2322
-1963
-1420
-911
-569
-254
324
1260
2294
3031
3331
3408
3542
3753
3813
3528
2960
2330
1794
1356
968
641
409
251
79
-145
-360
-490
-543
-602
-733
-910
-1050
-1103
-1076
-1002
-914
-832
-759
-680
-584
-493
-460
-528
-658
-760
-792
-814
-922
-1108
-1254
-1252
-1113
-952
-862
-847
-828
-758
-672
-648
-719
-847
-953
-1011
-1081
-1260
-1558
-1864
-2026
-1991
-1855
-1760
-1738
-1670
-1428
-1034
-674
-531
-618
-792
-918
-996
-1114
-1278
-1384
-1369
-1291
-1271
-1330
-1365
-1295
-1196
-1201
-1346
-1502
-1510
-1348
-1155
-1090
-1208
-1436
-1626
-1671
-1584
-1498
-1521
-1593
-1527
-1222
-819
-584
-604
-682
-558
-234
12
-84
-429
-641
-462
-72
93
-103
-346
-255
117
328
127
-154
2
624
1170
1176
817
656
913
1194
1012
390
-177
-295
-55
166
156
73
173
447
636
539
303
275
580
926
928
575
283
412
827
1066
860
422
134
116
197
211
159
98
71
129
360
763
1134
1248
1106
917
849
882
907
907
931
962
935
878
918
1096
1280
1318
1242
1237
1373
1501
1446
1222
1005
924
913
831
642
463
421
527
689
809
847
827
818
887
1025
1130
1073
826
510
258
74
-133
-419
-754
-1089
-1432
-1761
-1923
-1749
-1273
-763
-408
-49
693
1950
3364
4412
4907
5095
5286
5499
5543
5312
4911
4480
4014
3435
2788
2236
1883
1653
1388
1039
683
387
142
-46
-92
67
309
367
124
-192
-187
270
873
1181
1071
804
695
740
680
340
-197
-714
-1106
-1445
-1784
-2040
-2057
-1793
-1410
-1140
-1088
-1162
-1190
-1092
-951
-910
-1008
-1129
-1114
-933
-719
-625
-658
-715
-729
-769
-936
-1188
-1341
-1271
-1065
-928
-943
-982
-902
-762
-753
-922
-1080
-1038
-847
-775
-971
-1267
-1347
-1110
-794
-695
-829
-959
-900
-735
-668
-755
-833
-760
-631
-631
-766
-831
-653
-339
-144
-174
-261
-218
-92
-76
-208
-282
-118
173
311
170
-45
-21
305
656
744
591
441
441
529
590
660
838
1072
1138
939
712
791
1168
1437
1296
911
706
855
1099
1153
1061
1067
1197
1220
999
696
563
621
684
690
754
915
1002
879
722
836
1211
1460
1281
846
594
732
1028
1146
1011
843
859
1066
1301
1408
1347
1213
1161
1271
1424
1425
1243
1104
1206
1443
1502
1257
956
921
1158
1374
1335
1138
1066
1185
1283
1164
900
738
795
946
1006
918
791
742
773
821
840
816
715
491
126
-322
-762
-1140
-1472
-1768
-1982
-1980
-1661
-1055
-340
295
837
1508
2554
3913
5160
5867
6004
5930
6004
6173
6040
5346
4265
3204
2450
1967
1568
1137
705
380
232
223
212
76
-183
-432
-547
-561
-608
-732
-818
-731
-503
-319
-319
-481
-707
-917
-1074
-1141
-1084
-927
-757
-642
-574
-524
-507
-562
-711
-923
-1117
-1237
-1260
-1201
-1131
-1110
-1123
-1101
-993
-837
-732
-753
-889
-1067
-1179
-1160
-1039
-929
-935
-1048
-1140
-1122
-1025
-944
-928
-954
-992
-1055
-1157
-1240
-1243
-1190
-1181
-1258
-1341
-1337
-1260
-1213
-1246
-1281
-1231
-1134
-1119
-1241
-1391
-1418
-1314
-1194
-1135
-1077
-930
-747
-678
-768
-865
-794
-577
-436
-512
-688
-723
-512
-207
-36
-74
-179
-173
-12
191
308
330
366
519
755
936
990
979
982
966
829
592
434
488
643
648
439
267
411
817
1111
1012
640
357
343
428
365
156
31
136
376
610
862
1268
1823
2293
2439
2263
1969
1695
1389
992
605
376
282
135
-142
-362
-278
82
385
346
62
-110
33
327
457
345
225
354
704
1002
1034
860
734
826
1051
1174
1058
801
626
658
811
901
828
652
492
399
355
358
443
607
764
808
722
564
368
119
-204
-580
-969
-1371
-1815
-2266
-2576
-2574
-2209
-1603
-942
-329
301
1117
2222
3516
4733
5616
6089
6277
6349
6347
6175
5722
4983
4069
3138
2326
1708
1297
1057
930
877
878
904
915
871
758
581
342
36
-303
-598
-772
-811
-762
-694
-649
-614
-558
-474
-384
-319
-304
-331
-367
-390
-411
-458
-521
-548
-493
-378
-288
-296
-397
-521
-613
-659
-683
-707
-743
-784
-807
-791
-745
-723
-752
-790
-787
-766
-836
-1079
-1437
-1756
-1930
-1977
-1971
-1922
-1774
-1503
-1168
-863
-615
-398
-217
-159
-320
-679
-1079
-1355
-1471
-1536
-1680
-1902
-2090
-2144
-2065
-1914
-1719
-1470
-1204
-1009
-908
-802
-579
-287
-133
-259
-555
-795
-906
-1020
-1252
-1490
-1502
-1210
-779
-418
-175
71
407
781
1057
1145
1036
757
341
-154
-620
-915
-954
-780
-537
-355
-222
7
449
1025
1470
1554
1293
932
704
647
639
575
486
473
577
727
834
880
912
963
985
912
740
561
477
503
556
546
456
346
285
290
340
407
487
588
706
829
934
1006
1045
1077
1130
1210
1285
1318
1307
1289
1297
1329
1357
1369
1384
1423
1467
1475
1437
1380
1344
1339
1338
1320
1293
1276
1275
1275
1266
1250
1242
1241
1218
1133
963
712
394
32
-361
-761
-1148
-1484
-1689
-1669
-1388
-925
-409
129
817
1783
2944
4003
4699
5046
5277
5541
5735
5652
5228
4628
4051
3549
3052
2520
2019
1629
1346
1083
784
488
280
201
197
170
67
-70
-154
-136
-54
12
14
-25
-69
-117
-183
-254
-283
-251
-203
-207
-275
-341
-337
-268
-205
-196
-225
-237
-205
-161
-138
-141
-149
-149
-148
-147
-137
-118
-102
-103
-113
-116
-111
-117
-144
-174
-179
-153
-133
-153
-206
-241
-229
-200
-219
-315
-441
-519
-518
-478
-452
-450
-450
-444
-447
-459
-453
-426
-428
-516
-667
-775
-755
-643
-553
-556
-613
-635
-589
-517
-472
-469
-496
-540
-585
-602
-562
-474
-380
-316
-284
-255
-209
-141
-53
43
129
182
200
215
255
312
341
317
269
254
299
364
395
382
372
405
471
518
506
440
349
257
179
136
143
189
235
249
260
316
434
555
592
517
382
270
230
250
291
325
349
382
434
505
585
660
718
746
737
703
685
723
815
912
965
975
984
1019
1050
1030
969
929
953
1003
1006
940
871
873
944
1011
1001
914
809
732
695
687
684
661
612
564
558
604
646
591
390
97
-189
-412
-587
-766
-992
-1269
-1530
-1641
-1488
-1103
-693
-469
-388
-143
546
1614
2663
3344
3677
3953
4345
4708
4757
4395
3798
3197
2664
2155
1663
1260
995
822
651
457
287
173
73
-65
-226
-343
-378
-372
-406
-519
-659
-732
-701
-641
-664
-807
-983
-1062
-1008
-896
-829
-832
-856
-864
-876
-926
-994
-1019
-962
-856
-769
-733
-731
-728
-720
-732
-779
-836
-860
-838
-810
-813
-828
-805
-749
-727
-790
-898
-957
-941
-932
-999
-1094
-1103
-987
-853
-825
-892
-930
-864
-755
-726
-810
-935
-1031
-1115
-1235
-1383
-1483
-1474
-1395
-1341
-1349
-1356
-1270
-1087
-894
-788
-784
-818
-820
-781
-745
-750
-776
-768
-704
-636
-643
-731
-798
-722
-489
-236
-128
-173
-210
-90
159
348
338
187
62
60
119
135
101
111
232
400
480
406
251
144
138
171
141
18
-137
-241
-263
-239
-217
-223
-252
-289
-318
-325
-302
-256
-208
-187
-208
-260
-306
-313
-282
-250
-254
-295
-338
-341
-299
-246
-215
-207
-197
-170
-151
-163
-184
-156
-60
44
66
-2
-68
-25
131
277
306
229
157
183
292
390
390
280
126
5
-47
-56
-63
-73
-53
14
84
100
64
41
66
68
-71
-376
-752
-1085
-1335
-1546
-1764
-2001
-2208
-2293
-2149
-1742
-1184
-663
-252
193
898
1898
2930
3662
3995
4134
4334
4625
4784
4583
4016
3296
2648
2132
1660
1150
645
246
-25
-250
-478
-638
-650
-585
-615
-807
-1017
-1050
-892
-735
-722
-818
-904
-956
-1023
-1094
-1116
-1122
-1239
-1480
-1643
-1516
-1196
-1038
-1256
-1630
-1783
-1661
-1576
-1764
-2042
-2046
-1710
-1375
-1338
-1468
-1393
-1003
-603
-523
-745
-1022
-1243
-1470
-1677
-1652
-1287
-935
-1103
-1778
-2261
-1894
-883
-151
-323
-1012
-1272
-672
250
627
198
-548
-1025
-1151
-1257
-1595
-2058
-2370
-2417
-2292
-2136
-2013
-1953
-1987
-2101
-2198
-2205
-2149
-2108
-2061
-1909
-1636
-1357
-1196
-1113
-966
-753
-668
-863
-1228
-1471
-1412
-1133
-830
-609
-435
-236
-33
114
170
148
96
43
-19
-104
-144
-18
281
528
483
199
8
136
414
480
260
61
147
434
604
539
429
452
557
573
434
223
79
111
337
608
663
403
102
177
659
1041
828
149
-348
-230
269
619
603
464
483
639
773
871
1036
1262
1404
1391
1329
1345
1390
1337
1188
1088
1110
1129
991
761
704
945
1287
1398
1186
881
757
817
849
719
523
446
527
651
747
875
1099
1324
1342
1061
593
136
-218
-511
-827
-1233
-1733
-2225
-2465
-2223
-1554
-837
-448
-306
99
1174
2731
4119
4868
5117
5338
5740
6073
5970
5384
4606
3925
3394
2874
2251
1572
1018
760
794
876
712
266
-111
-55
335
538
196
-402
-657
-362
51
62
-317
-644
-633
-454
-403
-510
-612
-647
-657
-589
-299
127
296
-42
-552
-654
-228
159
-51
-701
-1124
-952
-512
-338
-495
-614
-448
-188
-147
-306
-406
-336
-290
-498
-915
-1242
-1260
-1047
-865
-872
-993
-1021
-857
-667
-732
-1069
-1353
-1275
-967
-884
-1220
-1615
-1559
-1040
-595
-638
-982
-1095
-812
-520
-627
-1055
-1369
-1314
-1073
-958
-1058
-1165
-1040
-668
-263
-76
-186
-428
-562
-497
-377
-357
-404
-392
-240
9
277
565
909
1237
1397
1313
1097
940
932
992
956
761
538
514
763
1075
1127
847
500
394
530
659
624
525
525
643
776
852
885
878
789
654
585
611
653
665
716
881
1069
1092
971
936
1105
1264
1144
818
613
665
733
584
377
467
876
1215
1197
1057
1241
1773
2163
1987
1416
1009
1046
1245
1192
877
678
845
1165
1264
1090
932
977
1077
981
748
708
958
1158
945
503
408
858
1350
1243
563
-15
-27
226
111
-505
-1128
-1333
-1317
-1549
-2072
-2370
-2007
-1203
-550
-274
51
983
2542
4155
5239
5716
5940
6242
6579
6666
6365
5789
5122
4442
3723
2986
2318
1774
1327
937
626
433
314
178
-11
-188
-286
-325
-370
-423
-449
-452
-494
-615
-739
-769
-716
-672
-670
-646
-538
-395
-315
-301
-286
-282
-397
-689
-1005
-1082
-858
-565
-464
-523
-449
-54
478
744
534
31
-433
-715
-950
-1295
-1699
-1970
-2003
-1878
-1728
-1575
-1363
-1129
-1008
-1053
-1137
-1092
-953
-972
-1311
-1780
-2010
-1842
-1495
-1318
-1398
-1516
-1467
-1289
-1173
-1177
-1161
-995
-792
-802
-1091
-1405
-1404
-1043
-631
-500
-667
-850
-780
-467
-147
-53
-297
-812
-1357
-1582
-1269
-502
372
1105
1806
2737
3822
4561
4454
3492
2140
821
-426
-1743
-3029
-3808
-3630
-2523
-1026
210
857
1008
919
698
241
-564
-1606
-2553
-3088
-3116
-2725
-2026
-1122
-181
537
844
781
583
429
309
123
-142
-370
-427
-308
-103
102
265
376
426
448
533
759
1099
1436
1670
1771
1746
1576
1261
898
636
540
519
448
342
335
488
691
821
923
1147
1481
1680
1531
1137
819
754
785
667
410
288
491
887
1177
1225
1141
1094
1102
1055
878
613
351
148
-1
-111
-213
-352
-573
-862
-1130
-1248
-1130
-792
-355
58
433
909
1670
2745
3913
4854
5397
5627
5749
5875
5971
5925
5648
5100
4323
3451
2663
2067
1584
1029
321
-390
-849
-945
-811
-694
-736
-893
-1025
-1048
-998
-979
-1031
-1102
-1118
-1072
-1014
-964
-869
-695
-493
-363
-341
-362
-381
-428
-537
-671
-758
-812
-917
-1069
-1115
-951
-719
-679
-898
-1131
-1112
-868
-676
-742
-1021
-1383
-1795
-2274
-2757
-3128
-3392
-3694
-4074
-4326
-4192
-3666
-2993
-2380
-1786
-1099
-389
89
158
-85
-381
-565
-637
-672
-718
-773
-812
-796
-681
-488
-344
-396
-687
-1105
-1489
-1753
-1909
-1998
-2062
-2152
-2318
-2533
-2677
-2622
-2368
-2091
-1992
-2118
-2313
-2351
-2118
-1668
-1141
-646
-229
103
367
596
838
1089
1270
1287
1110
816
539
368
304
280
227
124
2
-94
-153
-222
-362
-580
-792
-891
-826
-634
-379
-101
186
447
624
674
607
457
257
33
-177
-327
-404
-441
-471
-486
-445
-327
-176
-59
-5
0
-14
-34
-63
-92
-111
-122
-135
-150
-138
-78
8
69
77
54
38
45
63
86
118
154
174
167
156
180
245
307
319
275
216
177
170
189
222
253
258
236
212
212
207
117
-118
-471
-841
-1146
-1399
-1673
-1989
-2237
-2241
-1933
-1433
-937
-488
93
1001
2191
3354
4174
4610
4874
5145
5382
5396
5091
4558
3960
3389
2854
2358
1942
1629
1393
1174
944
739
615
595
636
660
604
479
357
299
293
283
233
154
67
-30
-135
-212
-208
-123
-31
-8
-67
-158
-222
-249
-262
-284
-331
-397
-458
-483
-465
-441
-445
-478
-499
-487
-470
-486
-537
-581
-594
-600
-635
-704
-783
-843
-883
-907
-927
-950
-986
-1027
-1057
-1068
-1084
-1129
-1194
-1241
-1242
-1214
-1194
-1201
-1222
-1229
-1210
-1179
-1164
-1186
-1239
-1286
-1292
-1265
-1250
-1274
-1300
-1268
-1163
-1033
-940
-888
-842
-777
-711
-667
-642
-610
-559
-505
-459
-403
-308
-179
-68
-22
-31
-16
97
294
476
535
463
374
386
514
648
666
560
439
416
499
602
627
572
517
517
561
581
544
482
455
481
547
638
756
903
1051
1156
1198
1205
1231
1293
1359
1369
1290
1152
998
839
650
427
225
107
79
102
165
313
567
872
1146
1378
1565
1618
1428
1040
714
684
868
932
705
419
456
914
1502
1894
2035
2073
2055
1895
1581
1291
1189
1195
1067
721
382
348
658
1055
1251
1186
1006
846
670
390
25
-302
-526
-718
-962
-1173
-1136
-774
-272
122
429
942
1848
2951
3832
4321
4661
5173
5828
6249
6113
5495
4754
4166
3727
3266
2687
2054
1512
1171
1054
1098
1175
1172
1072
973
970
1038
1056
950
792
708
728
751
693
593
571
656
747
744
675
645
689
729
684
568
474
468
524
575
581
536
462
401
386
399
364
218
-9
-202
-269
-237
-220
-279
-356
-340
-203
-36
32
-42
-189
-312
-384
-450
-554
-670
-732
-710
-640
-583
-560
-556
-559
-579
-630
-701
-787
-905
-1049
-1164
-1171
-1055
-907
-837
-867
-904
-854
-727
-617
-592
-629
-655
-628
-560
-497
-464
-466
-500
-560
-624
-650
-602
-491
-373
-308
-301
-295
-242
-156
-101
-114
-164
-192
-185
-175
-175
-144
-57
45
88
50
-7
-21
-15
-67
-194
-314
-330
-247
-166
-172
-233
-246
-163
-63
-59
-168
-296
-339
-313
-321
-424
-561
-631
-616
-579
-565
-533
-437
-317
-260
-285
-305
-240
-123
-60
-92
-140
-108
-4
81
82
57
117
283
427
420
301
258
392
558
518
240
-24
-25
155
196
-59
-379
-437
-235
-98
-264
-594
-752
-619
-405
-381
-571
-784
-855
-783
-697
-736
-958
-1322
-1700
-1984
-2181
-2393
-2625
-2704
-2426
-1811
-1108
-506
92
949
2119
3305
4099
4357
4292
4212
4212
4149
3851
3297
2609
1928
1328
817
390
52
-206
-427
-636
-786
-800
-645
-409
-240
-210
-261
-287
-264
-248
-277
-299
-277
-243
-260
-318
-331
-271
-204
-196
-243
-313
-407
-522
-597
-575
-524
-569
-673
-615
-258
166
247
-128
-601
-724
-477
-249
-346
-671
-910
-917
-774
-576
-321
-48
57
-146
-516
-670
-416
-25
45
-335
-795
-861
-494
-121
-139
-496
-784
-733
-521
-512
-765
-942
-690
-73
470
578
315
68
98
274
262
-100
-616
-939
-921
-712
-515
-362
-161
89
256
266
221
301
533
716
656
399
210
306
663
1036
1186
1071
857
760
837
951
940
798
672
695
838
966
1004
1007
1046
1072
982
768
586
598
774
909
851
694
675
883
1125
1136
881
601
529
613
604
383
142
156
438
704
708
538
487
684
910
887
608
384
477
831
1151
1241
1185
1196
1372
1637
1858
1948
1888
1714
1507
1362
1325
1335
1300
1213
1155
1179
1256
1329
1389
1451
1480
1405
1219
1053
1079
1315
1559
1580
1361
1115
1055
1191
1296
1150
726
187
-314
-722
-1032
-1232
-1352
-1513
-1744
-1864
-1600
-909
-79
568
1043
1673
2669
3879
4968
5729
6164
6341
6321
6186
5998
5687
5097
4227
3365
2827
2584
2299
1773
1213
957
1038
1139
971
604
340
337
453
439
209
-74
-204
-121
27
19
-204
-461
-494
-249
56
161
61
-34
43
209
237
41
-232
-379
-379
-372
-456
-561
-527
-311
-69
17
-60
-150
-163
-178
-320
-555
-698
-687
-703
-939
-1284
-1376
-1046
-590
-471
-784
-1121
-1064
-674
-412
-580
-1013
-1297
-1244
-1039
-958
-1056
-1182
-1213
-1161
-1125
-1178
-1315
-1460
-1494
-1343
-1069
-860
-841
-921
-906
-736
-549
-546
-754
-1024
-1212
-1284
-1282
-1202
-998
-686
-383
-198
-99
24
201
332
287
57
-181
-190
96
485
675
543
276
193
398
634
557
141
-256
-285
12
269
261
148
202
403
485
313
87
55
144
58
-291
-599
-514
-69
318
305
-15
-261
-196
91
337
334
82
-170
-146
183
548
648
465
279
342
604
831
905
913
958
1052
1169
1316
1456
1431
1155
830
805
1160
1534
1516
1131
813
892
1218
1384
1198
831
536
400
336
288
306
407
488
458
361
328
403
471
355
-13
-524
-1005
-1354
-1599
-1831
-2127
-2457
-2655
-2505
-1932
-1122
-365
269
1044
2269
3877
5381
6312
6643
6736
6898
7055
6916
6340
5457
4506
3635
2873
2232
1742
1379
1055
705
364
150
123
189
181
32
-148
-205
-116
-5
22
-11
-31
-57
-195
-468
-729
-814
-746
-722
-866
-1068
-1109
-926
-694
-614
-680
-683
-459
-85
175
124
-186
-517
-685
-718
-807
-1100
-1543
-1921
-2071
-2024
-1950
-1974
-2048
-2034
-1864
-1620
-1446
-1414
-1485
-1572
-1639
-1730
-1895
-2120
-2307
-2353
-2250
-2110
-2050
-2074
-2083
-1992
-1840
-1741
-1754
-1832
-1907
-1964
-2021
-2036
-1942
-1755
-1612
-1615
-1700
-1702
-1553
-1380
-1342
-1438
-1515
-1448
-1261
-1068
-933
-844
-785
-757
-744
-685
-532
-322
-153
-74
-16
110
294
430
433
342
297
364
439
391
229
107
161
348
482
449
356
416
703
1020
1087
848
563
541
776
919
669
165
-121
97
575
788
532
143
98
467
869
917
649
429
631
820
1076
1142
1092
1094
1207
1361
1470
1491
1448
1412
1452
1559
1656
1672
1617
1565
1567
1595
1583
1517
1451
1441
1474
1477
1411
1325
1306
1353
1368
1266
1104
1035
1126
1259
1276
1172
1094
1130
1162
991
579
109
-265
-594
-1046
-1646
-2231
-2630
-2821
-2842
-2644
-2135
-1355
-493
341
1283
2549
4114
5626
6697
7241
7489
7679
7817
7715
7217
6347
5290
4256
3387
2725
2213
1760
1322
934
674
571
564
535
410
214
32
-67
-81
-72
-112
-208
-305
-344
-327
-319
-373
-468
-535
-537
-499
-471
-466
-470
-472
-488
-526
-560
-550
-501
-464
-473
-500
-490
-433
-384
-398
-477
-571
-642
-693
-754
-839
-932
-1002
-1032
-1024
-995
-964
-943
-943
-962
-979
-979
-970
-971
-984
-976
-922
-843
-804
-845
-937
-1026
-1096
-1182
-1317
-1496
-1701
-1905
-2057
-2069
-1892
-1586
-1291
-1085
-903
-642
-327
-115
-111
-234
-295
-218
-120
-159
-337
-489
-466
-293
-114
-34
-24
22
159
337
461
490
461
423
381
291
136
-23
-81
1
158
278
328
394
576
863
1118
1203
1107
938
802
719
666
637
650
697
729
707
651
611
596
567
500
434
418
448
478
486
506
569
650
688
673
663
701
748
743
693
686
787
941
1017
939
739
513
323
200
179
303
564
881
1161
1381
1599
1863
2124
2252
2149
1847
1492
1224
1088
1029
978
932
931
985
1058
1114
1162
1206
1170
940
481
-76
-528
-803
-1041
-1431
-1967
-2390
-2407
-1986
-1378
-837
-329
414
1547
2862
3950
4610
5020
5487
6049
6428
6370
5943
5455
5082
4703
4114
3321
2559
2036
1719
1421
1039
651
398
309
281
201
56
-89
-173
-206
-243
-317
-407
-471
-498
-510
-533
-561
-586
-612
-647
-682
-696
-694
-702
-737
-786
-830
-874
-929
-977
-984
-951
-923
-932
-945
-912
-855
-863
-975
-1126
-1219
-1250
-1305
-1419
-1520
-1512
-1416
-1345
-1368
-1427
-1431
-1386
-1384
-1481
-1621
-1701
-1696
-1664
-1671
-1707
-1727
-1716
-1702
-1710
-1734
-1743
-1730
-1720
-1740
-1786
-1816
-1783
-1677
-1542
-1448
-1432
-1464
-1476
-1432
-1362
-1327
-1346
-1383
-1382
-1328
-1242
-1151
-1061
-964
-862
-762
-667
-581
-502
-428
-363
-328
-333
-364
-373
-318
-216
-139
-134
-167
-165
-99
-29
-30
-102
-174
-196
-202
-257
-355
-411
-367
-276
-250
-317
-384
-341
-201
-94
-114
-224
-307
-304
-267
-262
-284
-274
-223
-185
-206
-257
-265
-211
-146
-127
-144
-139
-77
16
80
94
95
137
240
357
429
448
461
498
528
481
338
160
27
-36
-55
-43
30
191
402
597
725
778
753
639
448
242
72
-75
-260
-486
-681
-791
-871
-1036
-1331
-1675
-1953
-2105
-2112
-1933
-1540
-1003
-469
8
568
1370
2347
3180
3596
3640
3614
3720
3867
3819
3489
3010
2544
2123
1693
1259
901
653
429
134
-207
-457
-527
-477
-461
-572
-769
-935
-994
-951
-871
-823
-840
-898
-944
-937
-915
-955
-1073
-1176
-1158
-1023
-894
-885
-966
-1006
-934
-816
-774
-846
-958
-1025
-1025
-995
-981
-997
-1031
-1066
-1075
-1053
-1021
-1020
-1079
-1192
-1329
-1450
-1512
-1505
-1466
-1460
-1510
-1551
-1493
-1339
-1200
-1183
-1273
-1352
-1331
-1238
-1154
-1125
-1128
-1139
-1166
-1228
-1315
-1395
-1456
-1513
-1580
-1650
-1706
-1724
-1691
-1614
-1535
-1504
-1531
-1559
-1520
-1407
-1276
-1192
-1163
-1145
-1098
-1022
-948
-917
-946
-1013
-1063
-1045
-951
-827
-718
-609
-457
-261
-99
-51
-110
-184
-202
-192
-243
-387
-553
-638
-608
-524
-468
-465
-485
-491
-489
-502
-539
-582
-621
-670
-753
-861
-948
-976
-958
-947
-970
-1004
-1004
-938
-812
-660
-524
-435
-400
-377
-312
-210
-149
-208
-381
-564
-658
-655
-598
-527
-451
-374
-299
-191
-6
237
401
345
101
-143
-221
-175
-184
-352
-574
-664
-559
-374
-253
-233
-264
-297
-334
-409
-535
-677
-787
-810
-708
-545
-487
-678
-1070
-1415
-1540
-1581
-1856
-2433
-2979
-3044
-2524
-1754
-1120
-629
44
1144
2527
3704
4218
4022
3573
3494
3996
4586
4490
3486
2245
1678
1974
2386
2089
1075
76
-311
-241
-272
-623
-990
-1039
-863
-850
-1166
-1559
-1646
-1373
-1050
-1033
-1377
-1772
-1808
-1345
-651
-191
-233
-617
-915
-852
-570
-460
-727
-1165
-1392
-1263
-1015
-933
-1038
-1110
-1043
-1008
-1202
-1536
-1683
-1483
-1199
-1236
-1634
-1941
-1674
-898
-244
-278
-865
-1317
-1137
-577
-355
-833
-1610
-1961
-1627
-1062
-879
-1193
-1574
-1573
-1187
-795
-734
-982
-1269
-1371
-1282
-1167
-1156
-1229
-1277
-1229
-1117
-1014
-973
-986
-1011
-1008
-945
-806
-640
-560
-650
-827
-861
-606
-200
52
-1
-205
-279
-118
136
303
355
371
375
319
214
182
308
497
567
450
272
201
244
287
246
188
218
343
459
456
366
309
345
412
383
206
-65
-318
-462
-440
-238
66
326
407
316
225
289
466
559
428
120
-189
-366
-382
-257
-24
239
436
534
604
732
922
1068
1073
943
760
628
601
662
728
685
516
335
308
473
696
789
700
557
537
693
906
985
846
594
437
501
677
722
560
380
381
487
393
-63
-653
-990
-1002
-1035
-1428
-2039
-2336
-1962
-1154
-477
-168
118
896
2210
3559
4420
4785
5035
5420
5777
5809
5476
4997
4506
3936
3268
2697
2412
2288
2030
1584
1158
928
771
423
-100
-483
-533
-446
-520
-724
-706
-261
397
844
864
586
267
58
-27
-27
-6
-47
-225
-509
-748
-793
-608
-301
-87
-139
-452
-831
-988
-747
-196
342
520
276
-123
-307
-114
217
258
-193
-850
-1229
-1122
-770
-561
-610
-694
-583
-338
-210
-282
-411
-429
-367
-372
-499
-632
-678
-694
-799
-974
-1053
-933
-706
-594
-732
-993
-1109
-931
-587
-395
-563
-956
-1246
-1271
-1174
-1145
-1177
-1087
-796
-484
-337
-272
-62
306
548
395
-67
-474
-572
-483
-473
-609
-681
-436
121
685
922
799
595
559
616
424
-253
-1122
-1506
-1079
-317
-43
-498
-961
-544
655
1489
1012
-374
-1268
-818
357
930
388
-470
-595
113
804
770
176
-310
-369
-232
-246
-439
-580
-507
-268
10
224
272
122
-81
-64
262
607
590
207
-94
104
690
1108
968
468
143
280
595
626
273
-126
-203
44
279
197
-115
-280
-65
362
581
367
-23
-135
123
322
-9
-841
-1631
-1856
-1541
-1183
-1215
-1604
-1940
-1855
-1320
-625
-108
127
252
545
1135
1948
2789
3504
3966
4070
3839
3536
3459
3595
3547
2920
1837
910
613
775
820
447
-96
-409
-425
-417
-553
-677
-603
-418
-383
-577
-762
-699
-457
-367
-631
-1083
-1387
-1393
-1254
-1191
-1242
-1228
-1016
-707
-563
-717
-1009
-1158
-1073
-935
-967
-1165
-1315
-1276
-1130
-1063
-1125
-1218
-1235
-1216
-1249
-1321
-1349
-1279
-1172
-1124
-1159
-1231
-1280
-1289
-1275
-1281
-1334
-1405
-1417
-1327
-1204
-1180
-1322
-1525
-1627
-1582
-1512
-1549
-1670
-1731
-1644
-1463
-1306
-1227
-1230
-1296
-1376
-1386
-1276
-1122
-1065
-1120
-1130
-964
-743
-704
-897
-1105
-1097
-887
-637
-374
53
678
1269
1546
1471
1230
896
311
-625
-1665
-2374
-2575
-2501
-2444
-2338
-1881
-1005
-114
254
11
-432
-625
-557
-581
-954
-1512
-1841
-1726
-1320
-907
-645
-525
-501
-578
-747
-920
-997
-978
-921
-848
-724
-512
-289
-181
-208
-248
-183
-51
-31
-231
-523
-635
-426
-39
235
242
96
42
199
456
607
560
401
267
199
169
156
195
303
407
423
350
289
295
285
152
-87
-275
-297
-205
-138
-127
-67
142
419
561
454
192
-89
-391
-843
-1488
-2149
-2556
-2579
-2331
-2002
-1632
-1099
-316
604
1432
2049
2589
3272
4101
4777
4983
4743
4400
4253
4231
3988
3302
2341
1481
932
628
412
225
78
-57
-222
-372
-410
-310
-182
-181
-331
-528
-663
-712
-692
-615
-534
-556
-753
-1060
-1309
-1367
-1232
-1044
-987
-1141
-1400
-1572
-1549
-1436
-1410
-1510
-1574
-1449
-1186
-955
-797
-578
-205
216
485
561
571
580
455
56
-501
-965
-1243
-1494
-1882
-2282
-2397
-2133
-1751
-1591
-1712
-1848
-1741
-1448
-1252
-1352
-1664
-1965
-2130
-2216
-2323
-2420
-2361
-2078
-1713
-1477
-1405
-1327
-1066
-663
-350
-315
-530
-802
-955
-952
-878
-857
-938
-1064
-1110
-1002
-815
-738
-858
-1045
-1082
-892
-612
-421
-327
-191
73
378
555
542
418
302
236
193
138
100
122
198
263
263
218
197
233
288
290
206
65
-92
-234
-311
-263
-98
59
76
-14
-29
150
421
555
462
284
216
271
307
240
163
221
413
577
567
412
279
290
408
494
473
423
477
684
947
1118
1134
1069
1027
1007
934
764
573
501
603
774
855
786
669
647
743
823
735
488
258
220
373
562
646
622
571
526
421
166
-234
-676
-1053
-1341
-1596
-1839
-1994
-1948
-1658
-1207
-715
-209
422
1264
2243
3167
3872
4352
4707
4994
5163
5126
4851
4384
3805
3175
2542
1971
1502
1117
771
460
248
191
260
338
327
224
99
0
-91
-208
-335
-427
-479
-527
-590
-621
-555
-405
-271
-243
-323
-417
-459
-474
-545
-700
-854
-892
-802
-700
-701
-778
-803
-701
-543
-475
-554
-703
-808
-834
-823
-837
-910
-1034
-1146
-1172
-1100
-1000
-959
-978
-994
-988
-1027
-1165
-1336
-1415
-1375
-1330
-1377
-1451
-1421
-1261
-1099
-1061
-1138
-1231
-1286
-1327
-1381
-1419
-1417
-1396
-1391
-1384
-1320
-1201
-1097
-1063
-1060
-1017
-931
-899
-964
-1035
-999
-863
-746
-729
-731
-627
-420
-241
-176
-167
-121
-50
-36
-68
-21
183
432
531
425
269
231
309
354
268
105
-20
-60
-44
16
152
377
639
868
1019
1078
1046
907
663
370
98
-114
-283
-417
-427
-166
417
1162
1768
2023
1973
1812
1651
1383
849
88
-648
-1125
-1297
-1292
-1219
-1059
-752
-325
86
332
370
279
193
196
274
366
466
617
848
1092
1211
1140
950
771
649
530
342
96
-105
-127
94
482
870
1125
1254
1331
1343
1177
760
185
-348
-762
-1187
-1747
-2338
-2663
-2519
-2009
-1436
-997
-609
-13
951
2172
3339
4166
4596
4804
4995
5203
5260
5004
4431
3714
3054
2544
2151
1807
1489
1215
1003
835
686
558
474
453
463
472
483
547
676
811
867
806
649
450
258
113
42
13
-33
-89
-66
103
336
453
378
253
266
422
524
404
132
-83
-126
-64
-2
42
108
185
220
203
197
245
287
235
87
-70
-170
-236
-312
-374
-363
-290
-246
-297
-386
-389
-268
-129
-97
-190
-302
-335
-298
-276
-327
-435
-542
-614
-646
-646
-630
-620
-635
-661
-663
-629
-590
-595
-640
-671
-655
-644
-705
-825
-901
-843
-682
-545
-501
-477
-356
-128
85
173
159
151
187
189
93
-42
-80
26
180
264
285
354
522
690
716
580
406
311
272
185
25
-99
-66
104
258
288
245
265
376
468
422
263
121
62
17
-112
-295
-387
-302
-133
-49
-99
-149
-50
174
347
337
212
152
241
385
437
378
307
320
403
464
460
436
436
457
447
377
263
159
92
33
-61
-206
-339
-356
-211
10
139
90
-37
-68
27
85
-64
-405
-779
-1070
-1293
-1518
-1749
-1931
-2030
-2045
-1993
-1848
-1561
-1098
-471
243
944
1649
2461
3382
4161
4473
4330
4144
4252
4439
4131
3152
2064
1571
1689
1738
1200
336
-178
-97
155
63
-374
-755
-839
-796
-867
-1022
-1047
-880
-738
-838
-1093
-1176
-898
-473
-328
-613
-1009
-1079
-784
-533
-695
-1185
-1612
-1729
-1636
-1509
-1370
-1198
-1067
-1022
-888
-457
91
198
-434
-1321
-1607
-1068
-448
-623
-1552
-2290
-2069
-1148
-479
-634
-1291
-1733
-1638
-1268
-1042
-1114
-1366
-1611
-1710
-1583
-1281
-1025
-1067
-1394
-1689
-1617
-1223
-934
-1100
-1607
-1970
-1873
-1501
-1307
-1505
-1825
-1852
-1502
-1084
-932
-1017
-1013
-733
-402
-407
-826
-1287
-1363
-1019
-625
-525
-688
-789
-580
-143
250
418
410
387
434
497
496
416
303
214
154
115
98
110
146
174
219
321
449
491
372
192
165
365
601
621
400
197
240
465
591
451
173
29
146
396
558
529
410
374
505
702
783
704
622
716
920
989
812
592
629
942
1234
1228
980
783
823
1023
1208
1307
1349
1333
1213
1051
1001
1132
1276
1188
848
531
528
826
1130
1177
988
785
752
873
1005
1035
947
767
476
80
-338
-679
-957
-1293
-1738
-2108
-2127
-1717
-1100
-537
19
850
2067
3351
4258
4687
4933
5248
5502
5400
4931
4425
4115
3851
3347
2637
2123
2059
2150
1866
1104
360
203
597
946
770
238
-63
202
782
1174
1164
946
771
625
319
-155
-538
-604
-450
-367
-489
-616
-462
-48
252
103
-411
-859
-905
-647
-461
-560
-793
-873
-687
-371
-110
19
-12
-216
-491
-608
-435
-192
-258
-705
-1101
-943
-309
168
14
-551
-914
-772
-398
-208
-295
-459
-528
-543
-563
-533
-440
-419
-598
-859
-920
-686
-407
-380
-557
-633
-496
-374
-496
-699
-642
-321
-144
-423
-902
-1019
-584
-36
57
-309
-584
-359
172
495
364
36
-83
103
341
353
145
-67
-110
31
244
405
438
352
257
288
457
572
422
44
-254
-192
130
310
113
-230
-315
-40
295
358
128
-137
-197
-33
207
353
301
102
-40
33
226
256
1
-305
-306
48
423
564
571
705
1004
1228
1189
951
708
603
639
732
771
692
594
689
1005
1229
971
310
-146
105
794
1101
648
-43
-162
452
1165
1290
797
233
69
274
443
221
-408
-1128
-1546
-1505
-1232
-1130
-1341
-1552
-1320
-570
300
887
1229
1677
2443
3330
3926
4021
3766
3524
3543
3777
3941
3747
3212
2638
2313
2229
2097
1683
1054
476
146
79
170
253
153
-201
-603
-699
-358
130
310
81
-216
-253
-93
-45
-229
-458
-548
-585
-755
-1003
-1071
-863
-612
-600
-786
-877
-711
-472
-437
-600
-704
-584
-370
-304
-428
-554
-515
-397
-438
-745
-1174
-1498
-1615
-1575
-1472
-1351
-1231
-1141
-1082
-1009
-879
-753
-747
-897
-1105
-1241
-1288
-1323
-1381
-1410
-1360
-1296
-1324
-1434
-1478
-1365
-1189
-1108
-1104
-974
-618
-241
-178
-500
-893
-1029
-921
-856
-995
-1158
-1062
-684
-262
-5
121
264
453
552
446
166
-160
-429
-619
-733
-785
-789
-759
-699
-581
-381
-137
47
104
60
6
31
125
192
129
-49
-205
-228
-145
-93
-140
-171
-38
218
365
249
28
28
356
743
840
617
387
417
618
685
474
161
0
40
143
207
275
421
602
705
705
687
719
755
709
589
491
502
621
786
945
1082
1187
1252
1271
1245
1157
980
717
450
284
251
282
286
242
205
216
256
281
266
185
-2
-314
-688
-1010
-1218
-1359
-1496
-1587
-1515
-1221
-788
-316
228
963
1897
2827
3501
3867
4088
4306
4456
4346
3902
3269
2657
2148
1700
1274
898
615
426
320
307
396
539
674
783
876
919
844
643
414
265
167
-5
-292
-579
-732
-772
-842
-1013
-1210
-1329
-1374
-1428
-1520
-1589
-1583
-1524
-1446
-1338
-1189
-1067
-1097
-1305
-1579
-1786
-1904
-2000
-2086
-2081
-1900
-1583
-1250
-994
-819
-689
-598
-571
-620
-735
-877
-983
-971
-796
-497
-187
46
206
330
406
348
102
-273
-653
-970
-1266
-1600
-1942
-2176
-2217
-2122
-2036
-2046
-2103
-2090
-1961
-1792
-1692
-1672
-1669
-1643
-1655
-1810
-2124
-2481
-2718
-2718
-2465
-2002
-1392
-687
83
897
1697
2358
2728
2720
2391
1901
1418
1030
746
554
451
437
481
528
547
545
532
486
371
191
17
-57
6
154
300
392
435
455
456
423
346
243
156
135
202
316
401
417
404
437
532
617
629
601
630
740
833
774
537
222
-28
-121
-50
147
403
648
857
1081
1390
1769
2093
2215
2091
1804
1484
1217
1031
912
830
769
751
837
1057
1356
1625
1794
1864
1846
1713
1442
1077
706
382
84
-237
-594
-941
-1196
-1258
-1062
-652
-180
226
620
1191
2039
3017
3834
4326
4579
4770
4950
4997
4770
4260
3596
2938
2387
1966
1639
1366
1129
939
813
748
734
755
788
797
742
626
503
427
410
419
420
397
352
298
250
215
163
62
-99
-270
-384
-418
-394
-344
-260
-120
55
186
214
167
132
160
201
157
5
-167
-239
-175
-55
5
-53
-195
-348
-466
-538
-587
-632
-668
-676
-651
-606
-562
-525
-484
-467
-518
-659
-832
-937
-924
-841
-772
-745
-730
-705
-694
-716
-739
-713
-641
-596
-639
-735
-789
-751
-662
-604
-611
-644
-661
-654
-639
-609
-536
-412
-270
-152
-67
13
107
209
289
328
323
288
246
235
276
353
413
420
402
418
484
545
536
462
398
393
409
381
301
234
239
302
361
372
343
313
314
340
356
320
222
106
46
88
196
278
275
216
194
270
402
481
432
302
230
304
476
617
655
642
674
769
847
837
740
617
507
426
408
484
628
762
838
886
955
1013
979
823
632
526
547
678
912
1239
1566
1720
1611
1344
1084
843
459
-180
-958
-1644
-2124
-2427
-2553
-2414
-1993
-1447
-947
-429
344
1458
2662
3576
4074
4354
4633
4900
4977
4733
4197
3487
2744
2115
1700
1469
1286
1053
824
722
747
746
591
343
189
227
362
434
386
303
302
408
543
598
526
369
223
156
164
187
179
144
112
106
125
149
171
195
218
223
188
123
69
66
117
169
146
13
-173
-297
-282
-171
-95
-154
-318
-448
-429
-289
-161
-156
-237
-276
-189
-19
101
87
-27
-148
-222
-273
-355
-472
-581
-641
-664
-684
-712
-718
-673
-581
-485
-433
-437
-490
-569
-641
-661
-613
-542
-520
-567
-609
-548
-390
-251
-232
-295
-312
-225
-111
-69
-79
-16
191
472
691
774
752
677
565
417
248
86
-65
-208
-314
-341
-287
-198
-132
-89
-45
-11
-19
-69
-96
-55
12
26
-47
-144
-159
-56
79
119
20
-124
-166
-47
130
213
182
180
345
636
878
980
1059
1293
1678
1986
1985
1651
1160
687
269
-153
-616
-1075
-1423
-1559
-1437
-1098
-660
-275
-46
34
51
65
70
23
-110
-307
-509
-634
-610
-430
-166
37
57
-123
-428
-751
-1033
-1285
-1550
-1865
-2189
-2382
-2269
-1802
-1149
-560
-106
414
1268
2458
3654
4480
4832
4905
4944
5019
4998
4702
4064
3184
2291
1622
1254
1065
851
526
217
73
92
110
-3
-214
-419
-574
-705
-816
-852
-782
-673
-640
-727
-887
-1049
-1205
-1385
-1575
-1698
-1691
-1575
-1426
-1299
-1190
-1075
-956
-865
-829
-858
-950
-1102
-1278
-1390
-1349
-1155
-944
-848
-875
-891
-808
-713
-792
-1095
-1436
-1608
-1603
-1585
-1638
-1660
-1550
-1408
-1428
-1577
-1551
-1158
-675
-618
-1141
-1805
-2034
-1772
-1544
-1828
-2461
-2798
-2452
-1732
-1300
-1429
-1742
-1706
-1271
-914
-1050
-1517
-1777
-1561
-1189
-1149
-1464
-1688
-1470
-1011
-792
-968
-1204
-1144
-849
-640
-626
-575
-290
107
293
161
-52
-76
84
193
102
-56
-37
267
691
959
952
774
628
611
651
642
552
421
299
249
362
640
940
1044
888
665
622
774
895
818
647
620
826
1138
1374
1474
1486
1453
1408
1390
1424
1475
1473
1428
1437
1557
1725
1828
1854
1883
1938
1914
1715
1426
1273
1389
1646
1794
1747
1653
1691
1854
1965
1906
1739
1610
1576
1578
1573
1593
1689
1852
1982
1949
1672
1174
609
165
-107
-382
-893
-1616
-2177
-2163
-1552
-746
-138
290
917
2037
3544
5038
6176
6889
7325
7637
7850
7862
7535
6836
5901
4959
4156
3481
2860
2271
1776
1431
1198
1004
819
627
402
156
-11
1
134
190
48
-134
-99
169
355
155
-313
-608
-465
-106
31
-191
-480
-512
-305
-140
-206
-413
-562
-608
-659
-769
-836
-740
-519
-375
-484
-779
-1000
-955
-731
-624
-840
-1241
-1489
-1387
-1082
-857
-847
-968
-1105
-1239
-1358
-1378
-1251
-1106
-1156
-1400
-1573
-1457
-1170
-1049
-1241
-1528
-1630
-1560
-1536
-1645
-1760
-1744
-1631
-1515
-1370
-1123
-900
-968
-1403
-1877
-1948
-1559
-1139
-1117
-1476
-1785
-1662
-1130
-561
-301
-424
-743
-991
-989
-753
-470
-318
-320
-367
-399
-437
-449
-321
-42
172
68
-281
-449
-133
443
760
584
218
91
240
340
170
-125
-261
-149
60
243
411
588
755
903
1018
1038
894
648
491
560
754
841
790
827
1090
1379
1409
1217
1131
1286
1438
1326
1081
1072
1389
1678
1592
1225
1004
1168
1510
1673
1549
1292
1045
839
693
680
816
937
847
587
439
612
995
1287
1282
1034
723
419
41
-448
-918
-1269
-1540
-1798
-1948
-1769
-1186
-399
326
968
1743
2748
3781
4562
5088
5597
6174
6566
6478
5962
5290
4490
3835
2955
2123
1567
1232
909
534
253
203
270
171
-207
-630
-743
-497
-229
-346
-857
-1315
-1274
-790
-358
-377
-753
-1066
-1040
-783
-590
-618
-770
-918
-1047
-1180
-1242
-1122
-852
-650
-698
-911
-1030
-934
-796
-876
-1186
-1448
-1408
-1143
-971
-1092
-1347
-1412
-1172
-855
-788
-1076
-1506
-1786
-1804
-1686
-1625
-1689
-1790
-1824
-1764
-1657
-1563
-1535
-1625
-1841
-2092
-2227
-2168
-2015
-1913
-1891
-1848
-1704
-1535
-1497
-1603
-1689
-1604
-1385
-1232
-1283
-1464
-1584
-1523
-1338
-1196
-1225
-1416
-1617
-1650
-1442
-1093
-809
-743
-872
-1016
-1011
-866
-738
-775
-962
-1147
-1176
-1023
-789
-600
-517
-505
-481
-408
-331
-331
-422
-536
-579
-541
-497
-511
-554
-549
-486
-424
-400
-372
-297
-216
-219
-325
-445
-466
-373
-260
-238
-320
-410
-387
-217
18
179
178
62
-39
-44
15
43
-4
-83
-129
-111
-46
59
197
318
352
278
157
72
49
32
-31
-134
-232
-307
-344
-313
-195
-30
84
67
-60
-211
-365
-590
-929
-1310
-1602
-1772
-1903
-2042
-2073
-1822
-1278
-648
-130
326
969
1944
3063
3950
4396
4520
4583
4681
4655
4303
3636
2870
2203
1650
1133
633
229
-14
-155
-294
-438
-497
-415
-245
-91
-8
14
-31
-174
-411
-675
-899
-1111
-1390
-1745
-2064
-2211
-2152
-1984
-1827
-1728
-1658
-1566
-1447
-1342
-1295
-1308
-1338
-1335
-1284
-1199
-1114
-1042
-985
-962
-982
-1034
-1077
-1086
-1080
-1099
-1161
-1229
-1259
-1242
-1217
-1226
-1275
-1339
-1403
-1469
-1518
-1501
-1379
-1199
-1061
-1044
-1117
-1174
-1148
-1086
-1108
-1275
-1528
-1743
-1842
-1840
-1787
-1697
-1552
-1346
-1099
-824
-507
-152
172
367
405
362
304
204
-24
-394
-810
-1147
-1390
-1597
-1791
-1914
-1902
-1777
-1610
-1438
-1245
-1037
-876
-812
-802
-750
-626
-508
-472
-495
-496
-440
-384
-394
-452
-479
-441
-384
-375
-409
-427
-400
-367
-374
-405
-411
-369
-306
-273
-291
-337
-373
-376
-347
-314
-310
-336
-344
-293
-194
-98
-38
3
59
133
205
258
294
307
291
261
255
286
327
350
383
481
643
788
820
738
622
551
514
452
336
205
127
140
239
390
533
614
610
532
390
172
-121
-449
-753
-1014
-1245
-1409
-1390
-1107
-637
-171
198
605
1261
2172
3082
3711
4035
4263
4545
4796
4816
4535
4077
3597
3127
2623
2109
1695
1447
1304
1145
939
782
773
888
994
972
832
687
617
604
574
495
414
390
415
423
377
326
356
484
625
681
638
576
574
638
700
705
657
601
588
631
694
715
652
538
453
457
519
562
545
521
566
681
763
733
627
562
592
636
570
386
207
145
170
159
58
-55
-81
-24
16
-12
-54
-30
42
71
24
-34
-35
-11
-49
-165
-262
-264
-221
-243
-351
-430
-383
-243
-133
-94
-72
-22
12
-13
-35
51
230
353
307
167
115
227
412
562
664
738
734
618
497
549
773
930
800
476
276
377
622
719
581
371
274
308
373
401
408
435
493
557
581
521
384
269
281
402
482
407
256
214
361
585
725
748
739
774
837
876
888
906
935
959
979
1011
1049
1067
1055
1035
1022
1010
998
999
1009
1005
981
989
1063
1144
1124
973
795
716
752
815
828
805
795
804
783
670
429
87
-248
-478
-625
-818
-1109
-1320
-1191
-700
-140
214
472
1030
2064
3263
4118
4439
4484
4614
4879
5032
4845
4344
3732
3185
2739
2354
2022
1771
1566
1304
900
462
248
395
720
858
647
320
234
451
675
609
288
-23
-172
-253
-400
-565
-583
-407
-196
-131
-218
-307
-305
-253
-236
-263
-273
-224
-138
-59
4
46
40
-35
-164
-274
-313
-298
-278
-271
-250
-184
-100
-60
-91
-155
-199
-212
-225
-264
-318
-352
-361
-381
-437
-509
-554
-547
-514
-497
-527
-608
-707
-777
-795
-788
-807
-872
-936
-938
-871
-778
-697
-637
-602
-617
-672
-685
-583
-427
-390
-550
-742
-703
-383
-23
104
-3
-92
34
304
489
470
335
232
218
253
291
314
311
288
275
305
367
406
375
297
230
201
192
183
188
219
262
280
274
266
276
289
270
213
136
59
-5
-47
-68
-84
-130
-221
-321
-362
-302
-163
-17
81
141
215
341
500
631
682
645
559
469
398
347
305
267
226
174
113
58
33
53
99
135
144
129
113
111
120
148
194
211
130
-75
-363
-665
-939
-1177
-1370
-1546
-1770
-2048
-2227
-2081
-1547
-877
-408
-162
233
1129
2416
3563
4140
4221
4233
4447
4716
4662
4087
3164
2264
1641
1264
919
470
13
-240
-226
-131
-191
-437
-677
-753
-748
-848
-1074
-1244
-1194
-980
-796
-744
-763
-748
-712
-757
-901
-1038
-1081
-1085
-1147
-1257
-1295
-1208
-1111
-1131
-1215
-1206
-1118
-1191
-1574
-2048
-2185
-1827
-1328
-1164
-1416
-1683
-1548
-1062
-642
-597
-833
-1048
-1108
-1123
-1216
-1317
-1281
-1121
-1066
-1301
-1690
-1871
-1659
-1321
-1330
-1830
-2423
-2565
-2154
-1597
-1339
-1435
-1616
-1648
-1531
-1375
-1240
-1192
-1348
-1722
-2070
-2053
-1615
-1140
-1086
-1509
-1998
-2097
-1758
-1308
-1106
-1219
-1434
-1460
-1169
-679
-276
-221
-500
-784
-756
-481
-344
-591
-971
-994
-542
-54
-17
-354
-527
-215
256
320
-45
-291
-31
421
458
-20
-464
-396
-3
146
-143
-454
-332
154
527
501
253
126
180
192
14
-208
-232
2
334
565
661
723
838
993
1098
1077
917
696
533
504
617
811
1034
1241
1373
1380
1302
1270
1369
1496
1433
1118
776
748
1123
1602
1770
1519
1153
1069
1322
1565
1424
884
284
-41
-85
-132
-443
-997
-1543
-1855
-1898
-1775
-1597
-1409
-1153
-704
72
1215
2592
3934
5004
5695
6062
6229
6283
6228
5996
5515
4782
3923
3149
2627
2352
2151
1839
1368
896
628
619
698
641
402
151
71
146
202
133
3
-63
-38
10
3
-43
-55
-10
36
-4
-118
-182
-69
155
254
53
-317
-505
-298
113
337
203
-93
-247
-187
-46
57
128
172
96
-162
-458
-550
-370
-150
-168
-456
-746
-748
-473
-221
-256
-542
-807
-837
-666
-481
-416
-439
-468
-479
-480
-426
-292
-150
-155
-349
-586
-677
-588
-452
-412
-487
-611
-706
-712
-608
-443
-311
-237
-148
16
191
241
170
181
433
787
920
696
350
275
599
1023
1114
741
229
84
480
1043
1220
877
490
582
1075
1386
1137
642
509
865
1223
1145
809
761
1177
1628
1643
1288
1046
1181
1463
1489
1204
940
984
1230
1389
1379
1386
1555
1795
1913
1890
1873
1920
1916
1771
1608
1640
1847
1957
1786
1465
1302
1437
1707
1839
1747
1548
1434
1488
1641
1759
1756
1657
1551
1496
1488
1527
1646
1797
1770
1401
800
323
201
256
89
-445
-1063
-1359
-1232
-901
-590
-289
137
787
1673
2764
4001
5251
6285
6925
7187
7247
7283
7274
6982
6227
5092
3916
3033
2515
2182
1830
1404
966
586
320
187
164
174
107
-78
-286
-349
-202
32
138
-7
-324
-599
-651
-497
-332
-331
-513
-742
-856
-811
-689
-636
-746
-957
-1068
-932
-630
-451
-612
-994
-1245
-1159
-927
-887
-1121
-1375
-1388
-1218
-1120
-1199
-1307
-1280
-1193
-1275
-1605
-1956
-2019
-1739
-1395
-1316
-1540
-1767
-1674
-1259
-877
-912
-1382
-1895
-2017
-1700
-1349
-1411
-1901
-2394
-2479
-2177
-1894
-1936
-2196
-2303
-2074
-1683
-1410
-1336
-1332
-1301
-1293
-1374
-1483
-1496
-1376
-1235
-1199
-1250
-1245
-1081
-803
-576
-514
-581
-597
-417
-103
127
140
39
38
182
295
194
-76
-299
-359
-351
-411
-506
-486
-292
-63
23
-35
-65
50
213
228
60
-100
-62
130
245
132
-82
-146
-6
146
108
-76
-170
-30
248
449
470
397
373
465
625
757
799
770
755
804
877
899
875
889
950
917
658
271
63
220
559
710
533
282
298
620
977
1092
936
683
447
214
-66
-427
-866
-1362
-1849
-2245
-2511
-2669
-2680
-2393
-1670
-596
532
1483
2337
3362
4657
5953
6820
7056
6847
6550
6350
6144
5707
4961
4041
3159
2419
1804
1269
820
471
182
-132
-461
-685
-709
-586
-494
-560
-736
-873
-881
-795
-711
-687
-735
-848
-994
-1115
-1156
-1125
-1106
-1182
-1345
-1502
-1557
-1506
-1439
-1449
-1534
-1615
-1627
-1589
-1557
-1562
-1582
-1586
-1573
-1551
-1521
-1488
-1481
-1530
-1613
-1664
-1657
-1639
-1679
-1779
-1865
-1892
-1912
-1983
-2077
-2105
-2041
-1977
-2011
-2115
-2167
-2091
-1952
-1878
-1936
-2074
-2193
-2234
-2215
-2195
-2217
-2271
-2303
-2261
-2164
-2082
-2070
-2120
-2174
-2185
-2152
-2101
-2053
-1996
-1913
-1790
-1627
-1441
-1273
-1163
-1135
-1195
-1316
-1434
-1473
-1384
-1181
-924
-664
-406
-128
161
410
566
610
561
447
314
222
206
233
229
173
122
148
232
271
191
33
-87
-104
-48
17
59
91
135
206
301
401
462
454
418
460
633
857
996
1014
1011
1088
1203
1224
1111
966
910
943
971
942
896
900
942
980
994
984
946
881
835
868
978
1084
1111
1091
1111
1188
1237
1191
1075
950
800
548
190
-181
-479
-749
-1129
-1677
-2298
-2814
-3071
-2999
-2621
-2057
-1453
-828
5
1265
2887
4446
5459
5829
5898
6041
6255
6217
5692
4796
3866
3119
2550
2072
1652
1273
896
527
271
233
348
384
204
-75
-231
-208
-178
-304
-537
-701
-724
-706
-747
-793
-724
-547
-418
-461
-623
-737
-728
-690
-759
-948
-1148
-1250
-1234
-1160
-1074
-988
-921
-914
-977
-1050
-1059
-1010
-1000
-1090
-1212
-1247
-1177
-1107
-1125
-1195
-1213
-1164
-1152
-1255
-1413
-1495
-1463
-1403
-1404
-1439
-1432
-1383
-1369
-1436
-1517
-1526
-1488
-1512
-1648
-1793
-1797
-1640
-1470
-1435
-1525
-1590
-1535
-1429
-1412
-1515
-1612
-1569
-1394
-1221
-1148
-1140
-1090
-963
-819
-727
-689
-663
-612
-520
-376
-190
-34
14
-27
-43
61
219
268
157
37
83
256
332
185
-33
-78
79
207
104
-151
-278
-126
172
363
348
252
251
374
491
468
291
86
-4
65
202
293
317
347
457
601
676
676
700
810
921
873
634
386
333
476
626
599
434
350
503
821
1080
1126
1020
934
926
862
599
220
7
131
433
573
426
245
346
707
935
692
58
-580
-950
-1156
-1467
-1923
-2237
-2130
-1655
-1137
-788
-446
238
1373
2667
3685
4269
4632
5027
5439
5634
5467
5046
4554
4041
3439
2754
2129
1701
1450
1243
977
665
391
224
168
139
10
-274
-594
-750
-695
-620
-742
-1017
-1165
-1004
-682
-508
-584
-707
-647
-426
-293
-420
-721
-975
-1061
-1036
-1019
-1043
-1034
-910
-688
-480
-370
-326
-265
-167
-111
-178
-323
-415
-384
-298
-268
-327
-434
-549
-699
-936
-1261
-1626
-1946
-2114
-2081
-1917
-1775
-1752
-1768
-1647
-1364
-1143
-1235
-1617
-1988
-2080
-1926
-1796
-1877
-2064
-2109
-1896
-1548
-1281
-1201
-1250
-1304
-1286
-1199
-1094
-1012
-947
-869
-754
-617
-521
-524
-621
-717
-696
-547
-373
-270
-221
-119
80
259
277
166
111
193
268
133
-179
-393
-301
-44
65
-74
-232
-135
213
535
605
443
231
110
95
114
92
0
-136
-217
-148
54
253
306
214
119
150
301
439
439
312
205
254
449
641
687
597
510
530
591
568
441
321
293
310
273
178
123
160
224
222
155
102
106
132
132
125
152
197
176
44
-143
-289
-385
-532
-823
-1241
-1655
-1936
-2034
-1962
-1753
-1446
-1101
-757
-347
274
1151
2090
2773
3063
3132
3268
3541
3733
3609
3180
2657
2196
1775
1323
868
497
212
-85
-457
-821
-1035
-1068
-1040
-1082
-1210
-1329
-1365
-1344
-1349
-1416
-1491
-1507
-1487
-1511
-1629
-1785
-1865
-1816
-1685
-1560
-1492
-1463
-1448
-1457
-1508
-1583
-1648
-1677
-1675
-1672
-1682
-1714
-1754
-1779
-1780
-1763
-1748
-1772
-1866
-2018
-2154
-2177
-2057
-1878
-1791
-1878
-2057
-2159
-2087
-1889
-1735
-1747
-1899
-2054
-2117
-2096
-2045
-1979
-1872
-1736
-1660
-1704
-1805
-1819
-1668
-1445
-1322
-1426
-1747
-2157
-2475
-2545
-2380
-2199
-2259
-2573
-2828
-2690
-2169
-1639
-1447
-1562
-1655
-1535
-1349
-1328
-1443
-1423
-1137
-810
-785
-1070
-1300
-1166
-749
-422
-435
-664
-831
-819
-733
-702
-689
-613
-511
-521
-689
-859
-842
-621
-389
-313
-378
-450
-500
-639
-893
-1058
-897
-505
-321
-624
-1087
-1070
-338
587
929
538
15
-53
269
474
332
133
188
368
309
11
-60
403
1063
1277
856
322
302
749
1041
774
233
-35
29
-47
-518
-945
-717
47
495
127
-458
-248
887
1861
1605
400
-462
-230
442
328
-862
-2177
-2568
-2057
-1527
-1609
-2002
-1924
-1025
274
1265
1701
1967
2527
3371
3972
3928
3461
3159
3226
3269
2814
1957
1274
1124
1262
1213
868
485
256
108
-61
-206
-264
-343
-598
-943
-1103
-960
-711
-583
-573
-541
-521
-678
-965
-1063
-781
-373
-256
-502
-747
-600
-94
385
490
207
-232
-498
-403
-139
-176
-735
-1370
-1298
-325
713
801
-22
-623
-150
859
1074
24
-1294
-1635
-975
-418
-754
-1526
-1718
-1027
-158
110
-211
-475
-281
153
294
-86
-706
-1086
-1007
-657
-406
-521
-937
-1307
-1277
-808
-208
102
-8
-251
-208
281
926
1192
745
-213
-1068
-1275
-804
-187
-84
-625
-1240
-1212
-468
350
579
224
-185
-208
41
221
205
129
100
28
-155
-326
-273
44
417
580
466
233
132
262
448
455
194
-135
-243
-118
-45
-204
-399
-263
233
628
443
-175
-570
-275
491
1046
971
512
219
384
854
1308
1494
1281
763
287
267
838
1570
1809
1328
621
389
782
1318
1466
1162
763
579
615
722
782
745
654
575
574
617
610
540
628
1100
1709
1875
1290
373
-69
273
823
744
-84
-885
-858
-35
872
1306
1460
1904
2864
3931
4606
4857
5015
5302
5560
5466
4937
4238
3724
3545
3503
3255
2740
2231
2002
1965
1738
1187
705
826
1473
1940
1693
1048
836
1363
1995
1882
960
11
-229
192
604
489
-14
-337
-34
789
1565
1723
1199
510
283
617
1013
996
608
298
345
539
546
372
318
495
539
141
-434
-554
9
751
975
597
228
351
726
734
219
-291
-304
-3
10
-483
-993
-906
-209
471
579
139
-355
-450
-95
392
581
280
-279
-638
-519
-100
169
21
-389
-644
-543
-239
27
174
264
366
471
542
531
431
296
214
259
427
620
704
639
540
601
904
1273
1345
929
268
-118
92
656
991
804
365
182
443
889
1171
1188
1058
874
650
472
501
801
1197
1386
1206
736
278
138
356
682
778
540
237
255
678
1196
1455
1432
1380
1471
1593
1583
1490
1512
1688
1832
1750
1521
1405
1509
1662
1617
1338
1013
871
978
1158
1195
1071
990
1141
1429
1545
1336
1020
945
1138
1264
1051
625
334
289
245
-54
-548
-936
-1037
-893
-617
-237
191
564
874
1329
2167
3299
4297
4803
4883
4901
5065
5211
5067
4582
3939
3298
2686
2099
1590
1228
997
814
657
587
626
673
607
431
279
236
213
71
-199
-422
-440
-296
-199
-269
-410
-421
-232
-8
14
-216
-499
-588
-451
-298
-338
-557
-732
-697
-498
-299
-196
-164
-179
-292
-527
-746
-767
-576
-385
-393
-535
-549
-282
150
501
645
615
475
213
-181
-637
-1026
-1276
-1408
-1475
-1515
-1570
-1664
-1750
-1709
-1492
-1276
-1331
-1716
-2142
-2222
-1876
-1443
-1323
-1594
-1960
-2082
-1903
-1632
-1510
-1598
-1775
-1844
-1671
-1272
-833
-593
-649
-857
-971
-885
-720
-670
-770
-877
-831
-620
-377
-212
-152
-164
-209
-262
-269
-187
-34
106
146
94
62
139
287
364
275
79
-37
55
287
468
466
342
276
368
540
625
532
319
147
119
228
370
428
359
232
186
302
532
722
761
687
637
690
793
840
800
736
710
724
738
742
754
782
801
797
804
849
877
807
634
483
470
564
615
542
422
396
464
474
284
-73
-426
-670
-878
-1198
-1655
-2077
-2232
-2044
-1650
-1254
-906
-438
358
1478
2644
3523
4009
4258
4470
4661
4678
4381
3789
3058
2340
1721
1229
841
497
150
-169
-367
-405
-351
-336
-429
-572
-671
-691
-665
-653
-694
-783
-884
-952
-977
-1001
-1076
-1193
-1269
-1219
-1062
-910
-843
-818
-736
-586
-484
-528
-666
-754
-739
-724
-840
-1061
-1228
-1247
-1213
-1287
-1499
-1709
-1782
-1745
-1744
-1852
-1961
-1927
-1746
-1567
-1516
-1557
-1554
-1446
-1326
-1333
-1495
-1694
-1791
-1746
-1637
-1566
-1562
-1577
-1536
-1407
-1234
-1120
-1144
-1284
-1422
-1458
-1406
-1389
-1482
-1629
-1710
-1683
-1643
-1682
-1748
-1696
-1465
-1173
-999
-977
-965
-819
-562
-351
-295
-350
-380
-320
-228
-179
-170
-140
-61
14
16
-52
-106
-70
45
146
149
64
-14
3
110
227
281
265
223
193
174
154
142
157
192
209
174
113
98
175
313
421
452
446
472
565
682
757
767
746
752
814
909
976
959
880
833
901
1051
1149
1105
979
930
1043
1228
1315
1220
1014
830
745
753
801
835
831
801
802
888
1048
1182
1176
996
708
389
63
-292
-684
-1095
-1498
-1851
-2071
-2051
-1743
-1234
-659
-22
829
1990
3309
4453
5197
5599
5856
6037
6016
5673
5047
4292
3525
2796
2157
1665
1311
1015
723
485
379
384
370
258
109
27
13
-42
-201
-389
-479
-432
-345
-337
-422
-515
-525
-466
-422
-464
-579
-680
-722
-742
-802
-881
-888
-771
-595
-495
-531
-629
-678
-650
-624
-691
-859
-1059
-1201
-1236
-1180
-1113
-1113
-1171
-1203
-1140
-1017
-951
-1010
-1141
-1236
-1258
-1268
-1334
-1428
-1472
-1435
-1366
-1352
-1421
-1520
-1574
-1558
-1522
-1515
-1540
-1547
-1512
-1476
-1483
-1508
-1470
-1352
-1258
-1304
-1460
-1555
-1468
-1269
-1141
-1161
-1223
-1175
-1011
-852
-787
-775
-712
-573
-429
-347
-310
-255
-161
-82
-70
-120
-180
-211
-215
-202
-177
-146
-128
-129
-120
-66
29
124
189
233
273
281
221
110
24
13
36
35
-1
-13
53
171
275
317
302
277
291
362
459
503
453
370
373
507
679
768
766
767
835
914
930
896
894
940
945
849
716
654
675
688
628
543
531
621
763
897
1012
1101
1149
1158
1166
1183
1135
933
570
162
-172
-428
-720
-1133
-1602
-1942
-1973
-1675
-1182
-667
-176
436
1366
2630
3988
5117
5864
6308
6589
6750
6713
6415
5890
5215
4436
3591
2787
2186
1881
1784
1652
1297
781
372
275
412
486
275
-147
-487
-532
-325
-74
52
22
-99
-225
-275
-212
-87
-14
-66
-192
-269
-233
-137
-81
-88
-126
-181
-271
-393
-501
-558
-590
-644
-723
-754
-692
-576
-505
-544
-671
-802
-874
-897
-942
-1053
-1185
-1238
-1147
-970
-834
-811
-846
-832
-745
-686
-773
-999
-1238
-1367
-1385
-1396
-1481
-1609
-1680
-1636
-1522
-1437
-1437
-1484
-1505
-1464
-1405
-1382
-1393
-1387
-1332
-1254
-1202
-1171
-1102
-958
-779
-658
-630
-636
-579
-439
-305
-287
-396
-533
-584
-528
-442
-404
-419
-429
-390
-323
-269
-238
-212
-192
-206
-267
-341
-380
-378
-374
-404
-458
-503
-526
-545
-569
-596
-620
-649
-685
-705
-679
-621
-577
-573
-575
-530
-436
-358
-342
-350
-298
-162
-22
19
-55
-156
-209
-227
-266
-335
-374
-342
-276
-247
-263
-267
-225
-190
-240
-366
-476
-510
-507
-549
-652
-754
-793
-768
-712
-649
-608
-634
-751
-921
-1090
-1278
-1562
-1974
-2432
-2826
-3110
-3278
-3275
-3014
-2508
-1889
-1229
-422
688
2039
3292
4100
4410
4476
4553
4651
4559
4075
3232
2283
1512
1013
650
241
-227
-595
-741
-750
-808
-981
-1159
-1224
-1213
-1270
-1461
-1703
-1861
-1881
-1808
-1723
-1697
-1774
-1926
-2079
-2155
-2137
-2069
-2001
-1960
-1960
-2008
-2073
-2073
-1984
-1889
-1904
-2044
-2164
-2143
-2033
-1998
-2090
-2154
-2016
-1712
-1498
-1565
-1820
-1987
-1921
-1773
-1808
-2080
-2371
-2436
-2275
-2096
-2042
-2065
-2042
-1963
-1892
-1839
-1721
-1526
-1427
-1614
-2043
-2396
-2412
-2183
-2062
-2284
-2664
-2776
-2413
-1835
-1542
-1783
-2287
-2516
-2193
-1564
-1159
-1263
-1629
-1757
-1429
-918
-639
-704
-873
-928
-930
-1072
-1295
-1320
-1001
-579
-421
-564
-658
-385
153
527
447
74
-174
-109
76
101
-37
-82
99
286
163
-230
-484
-290
157
360
102
-305
-423
-199
33
9
-148
-145
95
379
541
593
638
711
796
892
995
1041
975
843
787
880
1037
1122
1116
1104
1163
1286
1409
1474
1473
1456
1512
1672
1802
1705
1351
991
925
1160
1366
1250
918
764
1007
1459
1745
1725
1560
1417
1211
749
52
-610
-1005
-1175
-1322
-1489
-1468
-1086
-428
262
903
1666
2712
3878
4757
5145
5294
5597
6081
6357
6070
5342
4654
4270
3982
3436
2634
1961
1682
1596
1293
721
290
333
631
651
218
-245
-242
156
400
159
-264
-356
-52
184
-21
-491
-750
-622
-399
-426
-688
-882
-803
-535
-330
-327
-461
-545
-446
-237
-153
-364
-767
-1063
-1072
-924
-837
-874
-938
-978
-1020
-1026
-918
-752
-757
-1033
-1319
-1266
-930
-766
-1051
-1482
-1563
-1260
-1032
-1164
-1383
-1276
-947
-863
-1178
-1455
-1289
-901
-898
-1439
-1951
-1839
-1229
-805
-962
-1372
-1429
-971
-402
-157
-236
-300
-130
154
293
242
197
332
573
708
632
454
346
361
433
437
288
22
-186
-88
342
775
781
336
-28
237
1013
1566
1396
867
759
1285
1811
1663
967
474
633
1099
1256
958
597
553
807
1100
1259
1291
1297
1387
1607
1868
1969
1754
1342
1092
1224
1594
1838
1778
1557
1442
1555
1809
2054
2181
2126
1888
1598
1502
1747
2167
2385
2177
1740
1492
1646
2000
2187
2050
1752
1526
1442
1443
1485
1534
1494
1219
711
184
-125
-166
-135
-161
-142
123
658
1286
1843
2371
3039
3853
4585
5009
5159
5301
5604
5924
5949
5567
4991
4521
4192
3773
3075
2197
1469
1093
990
957
883
818
831
890
929
929
926
921
830
610
361
262
362
507
494
289
102
161
476
818
932
771
513
391
475
637
659
415
9
-293
-309
-128
-20
-150
-372
-416
-184
138
293
212
31
-107
-179
-227
-280
-335
-403
-501
-623
-709
-725
-698
-661
-631
-611
-597
-580
-521
-413
-307
-289
-385
-521
-592
-572
-552
-629
-780
-883
-840
-674
-523
-483
-531
-538
-397
-146
69
127
48
-29
27
227
473
640
683
661
691
848
1081
1245
1219
1016
762
576
480
407
290
145
40
18
79
177
271
349
410
446
442
414
398
422
474
515
514
497
514
558
551
440
292
259
389
525
458
198
25
201
650
1002
981
717
585
787
1147
1335
1224
977
837
883
1023
1128
1146
1106
1064
1048
1047
1051
1056
1072
1093
1089
1035
961
947
1034
1171
1267
1278
1203
1035
768
440
142
-74
-263
-506
-790
-997
-1014
-841
-560
-238
120
537
1051
1702
2474
3243
3823
4128
4256
4374
4524
4569
4375
3934
3375
2837
2385
2008
1645
1235
786
414
228
203
184
57
-103
-134
-3
145
171
106
71
79
22
-167
-386
-472
-389
-253
-176
-143
-69
64
165
140
-16
-244
-486
-710
-879
-952
-925
-858
-825
-831
-795
-657
-481
-403
-480
-631
-713
-690
-646
-677
-782
-881
-921
-917
-919
-952
-1000
-1028
-1017
-970
-917
-886
-878
-877
-879
-908
-984
-1082
-1155
-1181
-1195
-1227
-1255
-1246
-1218
-1217
-1260
-1300
-1286
-1238
-1223
-1256
-1263
-1173
-1010
-878
-849
-898
-947
-941
-871
-753
-610
-480
-402
-365
-307
-174
-1
95
47
-90
-177
-147
-62
-32
-82
-134
-111
-32
25
22
1
26
92
142
144
122
120
146
178
209
263
340
388
350
259
228
308
384
290
15
-238
-246
6
339
625
921
1356
1918
2448
2803
2973
2981
2764
2244
1502
787
307
38
-191
-451
-627
-563
-264
92
334
440
506
617
766
896
989
1083
1224
1396
1524
1520
1372
1142
887
597
229
-200
-595
-881
-1070
-1205
-1245
-1086
-719
-306
-16
209
651
1502
2622
3637
4309
4722
5097
5502
5785
5760
5391
4793
4103
3417
2798
2279
1849
1466
1113
837
691
669
696
680
588
447
309
206
126
33
-77
-155
-146
-72
-30
-93
-211
-261
-178
-33
46
14
-65
-105
-100
-100
-146
-232
-334
-445
-565
-671
-731
-743
-740
-748
-746
-679
-524
-337
-206
-169
-186
-202
-216
-272
-387
-519
-608
-646
-667
-695
-717
-707
-666
-621
-596
-604
-645
-711
-770
-785
-762
-732
-713
-685
-634
-592
-614
-694
-758
-754
-727
-755
-841
-891
-819
-653
-483
-356
-240
-110
-1
39
29
45
125
223
272
284
338
482
669
809
855
851
864
904
923
885
820
782
786
788
741
654
576
539
521
488
437
396
387
397
414
454
531
616
656
634
592
594
654
723
750
732
706
689
683
693
735
809
891
959
1024
1112
1225
1315
1346
1328
1296
1252
1166
1041
938
921
966
991
955
909
934
1030
1124
1163
1165
1160
1132
1058
963
926
972
1027
962
727
397
89
-146
-352
-609
-958
-1349
-1639
-1665
-1377
-886
-379
78
631
1492
2659
3842
4696
5137
5382
5657
5920
5917
5496
4806
4126
3588
3084
2474
1804
1252
914
694
448
158
-72
-182
-257
-410
-631
-778
-754
-624
-546
-595
-681
-674
-560
-458
-478
-605
-720
-742
-708
-717
-797
-892
-936
-934
-925
-917
-880
-811
-775
-834
-945
-989
-902
-754
-687
-770
-934
-1049
-1057
-1012
-1019
-1124
-1285
-1406
-1416
-1315
-1168
-1053
-1018
-1074
-1189
-1308
-1384
-1415
-1449
-1525
-1622
-1672
-1618
-1472
-1310
-1190
-1112
-1045
-994
-1013
-1129
-1279
-1333
-1212
-983
-835
-872
-1004
-1020
-820
-542
-423
-549
-744
-764
-557
-280
-110
-64
-40
26
105
166
244
363
451
410
260
179
301
535
647
535
359
340
491
615
579
490
542
750
923
911
771
677
706
768
754
662
572
547
592
682
783
860
903
941
1017
1126
1208
1210
1166
1168
1265
1410
1506
1517
1498
1530
1628
1726
1748
1678
1568
1489
1465
1471
1487
1516
1568
1615
1618
1578
1558
1608
1685
1687
1568
1395
1291
1301
1367
1406
1389
1339
1266
1147
948
654
288
-101
-474
-831
-1200
-1557
-1761
-1643
-1188
-602
-110
323
1002
2151
3583
4808
5481
5701
5817
6005
6114
5886
5254
4388
3511
2752
2145
1686
1340
1042
749
484
302
214
149
34
-130
-290
-411
-496
-561
-589
-556
-487
-447
-487
-590
-691
-750
-781
-824
-891
-955
-989
-994
-995
-1013
-1048
-1082
-1094
-1073
-1033
-1007
-1021
-1076
-1150
-1225
-1298
-1365
-1416
-1448
-1487
-1564
-1672
-1746
-1720
-1616
-1528
-1525
-1597
-1677
-1720
-1728
-1735
-1778
-1880
-2034
-2191
-2275
-2254
-2171
-2098
-2076
-2074
-2045
-1986
-1934
-1920
-1935
-1945
-1934
-1922
-1948
-2023
-2112
-2161
-2143
-2092
-2057
-2048
-2027
-1964
-1871
-1751
-1588
-1378
-1190
-1099
-1084
-1021
-823
-577
-473
-596
-839
-1046
-1179
-1291
-1382
-1360
-1176
-911
-680
-492
-247
88
393
499
381
189
90
113
154
102
-44
-173
-188
-98
-15
-51
-197
-329
-368
-379
-502
-765
-986
-942
-590
-149
102
73
-46
21
342
693
769
499
139
28
229
453
379
26
-242
-103
375
799
877
692
553
618
749
754
647
606
709
823
794
708
785
1065
1295
1196
803
416
261
245
105
-274
-775
-1232
-1617
-1963
-2192
-2139
-1766
-1238
-753
-293
342
1302
2485
3620
4491
5045
5344
5484
5558
5587
5486
5104
4418
3632
3026
2681
2390
1927
1327
821
551
425
301
195
200
262
177
-118
-380
-321
8
209
3
-438
-689
-566
-302
-217
-359
-509
-505
-410
-379
-432
-474
-469
-483
-564
-640
-616
-531
-529
-666
-824
-850
-770
-750
-879
-1039
-1047
-878
-710
-709
-850
-965
-949
-864
-845
-936
-1071
-1163
-1182
-1160
-1142
-1177
-1292
-1445
-1537
-1501
-1380
-1299
-1337
-1442
-1498
-1439
-1287
-1117
-1010
-1019
-1143
-1275
-1287
-1151
-984
-936
-1018
-1083
-1005
-804
-609
-509
-480
-442
-340
-177
5
160
268
318
297
193
45
-46
-9
107
174
131
84
166
339
424
323
153
102
167
181
77
-5
92
295
361
206
19
29
222
355
233
-77
-313
-283
-55
148
173
87
103
350
706
881
722
395
231
386
700
884
804
599
564
851
1320
1655
1644
1396
1207
1220
1307
1260
1053
856
760
683
537
432
545
844
1056
977
713
545
599
778
962
1143
1293
1279
990
527
177
112
170
16
-469
-1012
-1189
-839
-194
392
816
1297
2059
3009
3841
4400
4846
5405
5963
6172
5873
5328
4929
4737
4436
3787
2953
2339
2122
2092
1942
1640
1388
1337
1386
1327
1111
860
692
614
572
536
498
440
349
258
250
354
500
587
581
515
449
450
518
545
321
-247
-859
-1010
-555
36
140
-267
-521
-94
702
1056
640
10
-152
71
-2
-673
-1380
-1367
-672
-118
-316
-945
-1192
-774
-234
-246
-795
-1260
-1180
-763
-552
-744
-997
-922
-584
-401
-608
-1014
-1253
-1183
-1006
-978
-1119
-1246
-1228
-1130
-1106
-1175
-1224
-1170
-1041
-921
-836
-720
-545
-388
-328
-320
-230
-28
149
127
-81
-257
-222
-4
242
429
570
638
539
268
24
39
280
426
199
-269
-543
-357
84
341
232
-7
-55
134
332
359
288
301
426
506
432
275
179
171
175
174
262
462
607
527
303
246
536
974
1179
1033
823
859
1116
1300
1242
1074
976
918
780
598
563
724
841
689
389
280
473
701
681
475
377
499
645
634
567
663
903
1010
798
376
-7
-242
-421
-672
-1011
-1353
-1558
-1466
-1010
-340
261
677
1130
1944
3117
4240
4898
5094
5140
5236
5242
4913
4246
3508
2946
2561
2214
1812
1399
1096
994
1087
1246
1276
1052
625
172
-180
-472
-817
-1229
-1584
-1749
-1703
-1509
-1224
-881
-565
-400
-439
-600
-730
-787
-887
-1169
-1590
-1938
-2039
-1905
-1694
-1549
-1501
-1484
-1423
-1313
-1235
-1305
-1571
-1918
-2114
-2010
-1705
-1458
-1438
-1575
-1667
-1621
-1525
-1516
-1631
-1816
-2029
-2266
-2488
-2602
-2572
-2468
-2413
-2442
-2464
-2379
-2196
-2033
-1979
-2008
-2033
-1985
-1869
-1762
-1746
-1843
-1984
-2068
-2053
-1997
-2000
-2077
-2143
-2104
-1975
-1831
-1683
-1476
-1212
-1024
-1052
-1241
-1349
-1221
-972
-864
-988
-1161
-1151
-924
-661
-532
-541
-584
-587
-560
-543
-549
-552
-515
-415
-283
-217
-275
-400
-448
-347
-197
-167
-295
-426
-398
-234
-110
-128
-195
-160
-36
16
-91
-214
-144
128
369
365
167
11
18
66
-25
-241
-380
-297
-56
174
330
490
720
952
1048
963
785
642
579
541
462
341
241
232
311
404
439
409
367
370
411
438
411
355
308
258
131
-153
-577
-1029
-1392
-1666
-1944
-2280
-2570
-2591
-2207
-1516
-774
-154
425
1219
2375
3715
4821
5365
5381
5207
5128
5089
4801
4135
3345
2832
2736
2823
2784
2597
2478
2534
2574
2323
1753
1084
512
9
-552
-1173
-1698
-2010
-2156
-2254
-2343
-2366
-2293
-2183
-2103
-2031
-1899
-1701
-1501
-1352
-1238
-1119
-1016
-995
-1078
-1197
-1264
-1266
-1258
-1285
-1322
-1327
-1310
-1333
-1424
-1528
-1560
-1514
-1464
-1492
-1599
-1710
-1759
-1754
-1747
-1772
-1819
-1863
-1902
-1949
-2001
-2041
-2064
-2080
-2099
-2102
-2063
-1982
-1897
-1846
-1829
-1816
-1792
-1771
-1774
-1798
-1817
-1818
-1798
-1764
-1713
-1652
-1591
-1536
-1479
-1408
-1315
-1209
-1100
-995
-896
-812
-744
-678
-591
-474
-352
-265
-215
-167
-90
3
66
79
64
51
55
72
105
157
213
241
230
209
217
255
287
285
262
237
224
239
298
403
507
553
540
528
565
621
620
546
472
479
558
630
650
667
750
890
1000
1014
962
931
971
1040
1070
1041
1000
998
1044
1107
1151
1151
1106
1043
1011
1041
1109
1148
1114
1023
928
866
841
844
862
866
820
721
625
591
599
549
340
-27
-443
-803
-1106
-1433
-1811
-2126
-2185
-1905
-1410
-898
-406
251
1276
2612
3922
4870
5397
5699
5961
6145
6069
5622
4876
4003
3138
2352
1695
1208
890
652
393
95
-160
-292
-328
-379
-522
-720
-867
-905
-874
-854
-873
-887
-857
-811
-818
-913
-1041
-1111
-1090
-1028
-1015
-1085
-1190
-1261
-1286
-1312
-1384
-1479
-1537
-1535
-1512
-1514
-1523
-1486
-1389
-1295
-1299
-1413
-1542
-1585
-1551
-1531
-1594
-1696
-1739
-1688
-1616
-1629
-1753
-1899
-1955
-1883
-1759
-1712
-1813
-2004
-2136
-2097
-1917
-1751
-1730
-1832
-1907
-1828
-1631
-1489
-1541
-1760
-1978
-2041
-1931
-1777
-1702
-1703
-1680
-1567
-1389
-1213
-1059
-907
-766
-692
-711
-761
-746
-647
-540
-474
-394
-212
71
332
459
468
446
430
372
234
40
-165
-365
-547
-656
-609
-390
-74
243
538
881
1306
1730
1991
1962
1646
1174
710
336
7
-373
-813
-1184
-1336
-1248
-1036
-823
-606
-305
93
477
723
809
805
771
698
560
395
278
231
193
131
87
160
391
695
925
999
975
988
1107
1251
1265
1067
739
473
399
483
582
599
569
603
736
902
1000
1010
975
905
738
423
12
-369
-642
-825
-955
-985
-820
-442
43
543
1104
1860
2828
3811
4539
4931
5137
5334
5512
5489
5126
4492
3795
3197
2705
2236
1759
1331
1023
828
663
470
271
129
57
-10
-146
-337
-497
-566
-576
-587
-614
-625
-620
-657
-771
-908
-968
-913
-821
-801
-885
-997
-1041
-1008
-972
-1011
-1113
-1199
-1203
-1141
-1082
-1065
-1058
-1029
-1006
-1055
-1189
-1334
-1414
-1464
-1581
-1788
-1975
-2013
-1907
-1796
-1795
-1877
-1932
-1912
-1877
-1902
-1986
-2070
-2118
-2160
-2231
-2328
-2418
-2486
-2543
-2607
-2684
-2764
-2831
-2858
-2828
-2742
-2637
-2545
-2461
-2368
-2267
-2194
-2186
-2216
-2203
-2104
-1966
-1882
-1888
-1925
-1904
-1811
-1714
-1676
-1680
-1655
-1559
-1439
-1356
-1322
-1280
-1197
-1123
-1143
-1260
-1368
-1358
-1252
-1188
-1267
-1428
-1515
-1462
-1350
-1281
-1269
-1241
-1177
-1138
-1166
-1205
-1179
-1099
-1054
-1090
-1148
-1141
-1078
-1039
-1069
-1122
-1123
-1059
-977
-918
-868
-803
-721
-638
-563
-485
-388
-275
-181
-155
-231
-385
-545
-635
-648
-636
-652
-666
-605
-432
-209
-33
35
-9
-129
-279
-414
-497
-538
-580
-650
-682
-583
-350
-101
24
-29
-221
-491
-830
-1246
-1713
-2144
-2452
-2563
-2435
-2066
-1503
-797
30
959
1905
2708
3266
3629
3947
4233
4295
3933
3207
2480
2102
2077
2072
1731
1027
276
-140
-112
112
154
-164
-676
-1004
-934
-591
-297
-267
-443
-622
-681
-659
-629
-583
-460
-327
-344
-578
-879
-1025
-978
-908
-993
-1219
-1430
-1526
-1533
-1504
-1415
-1212
-927
-678
-571
-602
-702
-797
-832
-788
-708
-687
-811
-1006
-1083
-932
-657
-509
-662
-1005
-1248
-1208
-985
-876
-1067
-1405
-1544
-1299
-872
-661
-826
-1098
-1078
-720
-405
-509
-987
-1434
-1530
-1323
-1090
-1005
-1029
-1044
-1006
-931
-807
-617
-421
-343
-420
-522
-471
-262
-73
-46
-129
-144
3
219
351
383
414
499
581
564
459
390
438
536
560
468
348
318
398
507
552
506
419
347
302
273
269
329
454
576
608
532
450
480
611
679
567
340
200
293
569
848
975
947
914
999
1190
1360
1371
1222
1094
1144
1329
1435
1306
1050
917
1028
1215
1221
1036
933
1142
1555
1799
1670
1362
1234
1390
1526
1300
770
363
402
778
1104
1124
944
852
975
1177
1188
840
197
-475
-871
-881
-716
-686
-858
-976
-723
-100
604
1151
1609
2205
2984
3772
4383
4847
5263
5557
5545
5196
4712
4280
3912
3491
2982
2428
1852
1270
844
768
952
971
506
-200
-541
-262
182
168
-332
-759
-690
-303
-53
-115
-256
-240
-142
-134
-198
-164
17
183
149
-73
-313
-430
-428
-404
-406
-416
-401
-359
-334
-353
-345
-273
-229
-364
-670
-905
-845
-565
-400
-551
-860
-1008
-876
-643
-572
-732
-946
-996
-848
-646
-564
-661
-811
-851
-772
-731
-846
-1056
-1203
-1225
-1218
-1262
-1292
-1149
-784
-370
-170
-279
-488
-491
-223
38
-2
-267
-390
-163
163
184
-129
-372
-198
266
597
592
441
401
496
582
602
595
548
397
210
195
458
795
876
630
319
286
578
905
962
738
441
274
263
298
325
374
456
488
410
330
423
689
903
868
677
614
800
1042
1082
897
674
586
657
829
1029
1152
1106
959
934
1147
1406
1419
1172
1013
1238
1668
1789
1395
859
689
969
1284
1273
1027
930
1151
1462
1538
1345
1116
1040
1037
898
585
295
212
265
235
27
-230
-361
-382
-449
-608
-683
-480
-46
392
754
1256
2156
3347
4399
5005
5285
5550
5895
6074
5855
5308
4688
4098
3432
2658
2003
1713
1720
1673
1339
871
599
640
780
757
514
198
-36
-147
-138
-22
139
204
86
-132
-267
-242
-174
-244
-492
-770
-892
-826
-701
-670
-747
-801
-728
-589
-554
-693
-882
-948
-891
-885
-1054
-1302
-1421
-1336
-1171
-1086
-1084
-1065
-977
-888
-873
-931
-1022
-1140
-1293
-1440
-1494
-1436
-1357
-1371
-1496
-1646
-1745
-1795
-1831
-1854
-1824
-1699
-1487
-1230
-964
-712
-498
-338
-247
-244
-362
-630
-1017
-1440
-1827
-2161
-2445
-2641
-2683
-2560
-2337
-2074
-1738
-1255
-675
-189
37
41
-11
-53
-199
-569
-1100
-1574
-1815
-1786
-1519
-1035
-370
361
995
1394
1497
1305
874
320
-219
-687
-1135
-1588
-1909
-1877
-1427
-780
-270
-52
-32
-45
-49
-119
-304
-530
-668
-627
-431
-172
73
292
524
783
987
1006
826
647
731
1127
1587
1804
1730
1601
1632
1779
1825
1670
1442
1325
1329
1318
1217
1124
1170
1347
1505
1513
1377
1192
1053
983
960
954
935
912
909
943
976
914
674
267
-224
-722
-1195
-1606
-1847
-1798
-1435
-862
-185
615
1648
2937
4312
5501
6314
6765
6978
7033
6891
6469
5753
4837
3887
3040
2348
1771
1250
771
381
129
-1
-68
-142
-251
-371
-473
-564
-662
-777
-891
-977
-1021
-1034
-1042
-1066
-1119
-1183
-1227
-1215
-1134
-1027
-959
-973
-1030
-1051
-1005
-974
-1089
-1400
-1821
-2204
-2457
-2603
-2722
-2842
-2906
-2833
-2597
-2263
-1938
-1690
-1531
-1435
-1393
-1425
-1537
-1684
-1794
-1832
-1817
-1788
-1748
-1676
-1578
-1503
-1484
-1528
-1610
-1728
-1892
-2079
-2216
-2263
-2265
-2311
-2417
-2503
-2472
-2336
-2192
-2123
-2111
-2072
-1954
-1775
-1601
-1500
-1520
-1656
-1848
-2008
-2086
-2094
-2067
-1998
-1823
-1502
-1070
-623
-233
81
330
488
519
420
242
54
-91
-187
-237
-247
-235
-221
-213
-202
-178
-161
-194
-305
-479
-640
-717
-698
-620
-540
-504
-525
-587
-638
-623
-537
-441
-417
-461
-475
-366
-174
-50
-88
-220
-298
-271
-231
-274
-368
-390
-284
-126
-15
48
146
310
463
511
452
371
325
285
203
92
8
-14
-2
-11
-64
-135
-189
-205
-193
-180
-189
-217
-233
-223
-231
-347
-630
-1060
-1542
-2000
-2430
-2884
-3387
-3868
-4176
-4171
-3830
-3259
-2579
-1798
-813
451
1901
3306
4442
5224
5687
5898
5879
5621
5127
4430
3587
2684
1827
1103
551
144
-176
-451
-689
-877
-1019
-1144
-1264
-1365
-1417
-1427
-1444
-1505
-1574
-1583
-1535
-1519
-1599
-1721
-1786
-1790
-1831
-1958
-2080
-2077
-1963
-1863
-1860
-1891
-1842
-1712
-1597
-1575
-1626
-1690
-1760
-1871
-2018
-2133
-2143
-2052
-1940
-1886
-1909
-1962
-1980
-1930
-1844
-1807
-1878
-2025
-2135
-2107
-1968
-1851
-1850
-1909
-1898
-1775
-1652
-1650
-1749
-1818
-1775
-1671
-1604
-1607
-1610
-1541
-1403
-1262
-1203
-1279
-1468
-1657
-1698
-1559
-1378
-1321
-1358
-1253
-862
-341
-10
17
-57
-7
140
187
83
7
101
225
155
-25
58
581
1170
1241
688
66
-6
458
869
771
334
79
241
592
812
842
810
755
617
429
352
483
682
752
690
684
821
983
1037
1035
1132
1326
1429
1317
1127
1082
1197
1269
1172
1031
1040
1188
1286
1232
1169
1295
1601
1857
1853
1626
1396
1331
1411
1477
1398
1191
1021
1060
1283
1453
1355
1056
855
949
1173
1209
1020
904
1111
1484
1624
1372
973
711
548
217
-380
-1049
-1576
-1915
-2056
-1862
-1212
-299
446
856
1293
2245
3666
4903
5367
5188
5063
5442
6031
6171
5606
4740
4136
3888
3607
2962
2103
1463
1229
1146
848
313
-145
-251
-57
148
145
-23
-185
-212
-130
-38
-5
-48
-167
-332
-489
-575
-541
-423
-345
-397
-526
-572
-446
-265
-257
-516
-864
-1038
-975
-869
-920
-1106
-1229
-1164
-995
-892
-924
-1013
-1076
-1119
-1175
-1217
-1193
-1130
-1132
-1242
-1359
-1356
-1252
-1210
-1335
-1523
-1595
-1553
-1590
-1823
-2099
-2118
-1804
-1434
-1340
-1533
-1695
-1559
-1238
-1061
-1187
-1441
-1559
-1488
-1392
-1383
-1384
-1273
-1090
-984
-1004
-1022
-905
-691
-535
-514
-562
-560
-472
-357
-267
-206
-157
-123
-119
-152
-218
-294
-351
-369
-348
-321
-320
-339
-353
-337
-299
-248
-175
-63
67
153
137
28
-93
-142
-114
-90
-156
-298
-410
-392
-256
-118
-74
-103
-115
-60
19
64
84
139
242
324
332
318
394
572
722
698
519
370
388
515
571
453
246
129
188
345
455
424
264
65
-75
-91
12
151
212
156
72
91
264
495
606
487
172
-217
-572
-862
-1117
-1399
-1760
-2138
-2342
-2180
-1666
-1042
-532
-77
610
1666
2859
3792
4292
4526
4736
4931
4934
4641
4132
3553
2960
2357
1786
1324
983
688
382
98
-91
-178
-235
-326
-440
-523
-540
-536
-585
-701
-815
-829
-714
-563
-510
-611
-785
-925
-980
-959
-882
-788
-746
-831
-1001
-1094
-982
-749
-639
-780
-1034
-1174
-1148
-1123
-1237
-1410
-1474
-1435
-1469
-1625
-1735
-1645
-1456
-1438
-1655
-1869
-1837
-1612
-1442
-1435
-1449
-1348
-1196
-1140
-1186
-1248
-1315
-1450
-1636
-1734
-1690
-1635
-1733
-1921
-1997
-1866
-1638
-1417
-1164
-853
-668
-831
-1238
-1454
-1210
-783
-744
-1258
-1822
-1795
-1120
-387
-197
-518
-783
-552
-7
275
-9
-557
-827
-640
-320
-267
-490
-608
-351
116
386
288
29
-89
-36
-25
-165
-301
-215
53
229
130
-103
-141
149
504
556
236
-144
-222
8
227
150
-126
-238
46
512
716
486
136
130
558
1010
1042
679
393
556
1027
1321
1160
758
534
652
883
940
811
725
819
954
899
648
448
512
734
825
665
440
404
561
691
662
594
629
718
658
382
56
-156
-335
-665
-1152
-1592
-1846
-2004
-2224
-2433
-2363
-1890
-1214
-631
-140
538
1575
2754
3643
4031
4097
4152
4310
4410
4253
3813
3237
2721
2358
2112
1867
1498
987
474
141
46
31
-130
-478
-808
-908
-791
-668
-719
-886
-935
-759
-556
-610
-913
-1135
-1020
-701
-585
-852
-1186
-1153
-751
-432
-553
-919
-1043
-788
-543
-738
-1280
-1651
-1515
-1082
-803
-848
-970
-876
-558
-283
-311
-679
-1190
-1589
-1742
-1711
-1663
-1724
-1815
-1747
-1459
-1094
-877
-871
-1008
-1185
-1330
-1401
-1361
-1251
-1219
-1339
-1485
-1459
-1227
-981
-916
-987
-1023
-987
-979
-1006
-877
-493
-99
-95
-495
-803
-553
115
566
370
-187
-436
-63
545
773
472
67
73
483
825
741
404
280
514
757
663
339
254
667
1231
1390
1033
603
550
840
1074
1001
770
629
579
501
437
621
1109
1537
1477
962
499
542
991
1374
1362
1083
918
1054
1363
1578
1548
1309
1039
921
1047
1315
1502
1502
1464
1651
2057
2309
2055
1446
1046
1213
1696
1888
1508
913
649
871
1275
1489
1461
1340
1233
1168
1208
1430
1698
1724
1396
958
744
755
677
292
-210
-509
-540
-512
-559
-524
-202
384
1015
1512
1909
2401
3163
4157
5072
5484
5243
4657
4217
4097
3981
3459
2583
1832
1558
1617
1591
1288
908
747
820
905
824
589
341
211
287
519
683
549
111
-312
-337
76
522
517
41
-428
-406
65
449
303
-249
-683
-653
-348
-223
-463
-790
-822
-486
-57
105
-124
-515
-714
-577
-263
-71
-157
-388
-529
-458
-219
78
290
188
-341
-1045
-1363
-934
-60
522
373
-178
-415
-30
603
885
616
47
-488
-827
-954
-889
-684
-456
-328
-343
-408
-400
-282
-119
-31
-128
-412
-726
-829
-596
-128
300
466
349
140
66
206
450
611
586
427
277
245
339
470
543
515
424
375
456
638
798
841
757
605
451
347
340
431
532
520
381
264
338
605
873
952
820
619
503
526
631
714
711
634
577
628
770
895
915
852
815
842
880
900
941
1040
1136
1117
966
821
804
885
957
962
936
909
855
796
837
1024
1218
1201
930
615
505
612
733
686
483
256
138
168
296
400
325
20
-400
-753
-959
-1088
-1210
-1271
-1172
-912
-554
-72
647
1611
2587
3282
3619
3783
3947
4072
4000
3683
3237
2786
2342
1884
1472
1198
1048
895
636
335
152
164
287
389
410
392
411
493
594
649
616
511
381
257
140
17
-87
-130
-101
-25
55
125
192
255
305
327
319
282
223
155
87
14
-69
-140
-172
-178
-221
-327
-437
-451
-367
-304
-362
-487
-527
-437
-350
-414
-596
-715
-658
-509
-443
-520
-636
-662
-582
-487
-468
-545
-667
-759
-780
-745
-717
-751
-814
-813
-686
-492
-354
-344
-399
-420
-377
-327
-331
-381
-421
-407
-344
-260
-180
-117
-72
-41
-2
42
66
65
55
57
68
57
28
18
64
145
187
152
78
44
82
150
173
130
77
77
138
202
205
142
78
81
168
279
327
283
214
225
337
441
392
151
-154
-368
-461
-519
-606
-669
-594
-343
20
401
754
1068
1311
1442
1468
1443
1405
1336
1222
1095
1014
1010
1040
1053
1048
1053
1079
1092
1055
975
890
836
820
832
864
900
917
881
784
655
528
384
179
-95
-393
-671
-944
-1235
-1494
-1580
-1402
-1043
-663
-280
305
1260
2438
3433
3965
4162
4356
4649
4734
4233
3122
1788
661
-98
-557
-777
-726
-397
101
645
1208
1804
2316
2504
2237
1652
1063
675
450
244
21
-123
-120
-34
18
-2
-46
-64
-81
-161
-317
-478
-538
-437
-225
-30
30
-75
-277
-463
-570
-599
-582
-534
-460
-375
-325
-333
-385
-436
-461
-483
-556
-719
-930
-1090
-1116
-1037
-965
-980
-1041
-1039
-926
-773
-680
-671
-688
-692
-713
-795
-922
-1020
-1031
-952
-841
-771
-775
-812
-789
-674
-537
-501
-594
-698
-681
-545
-433
-438
-495
-476
-357
-254
-266
-367
-458
-476
-447
-406
-357
-294
-232
-189
-154
-95
0
95
138
104
13
-79
-128
-145
-179
-270
-380
-435
-412
-380
-399
-430
-391
-287
-241
-335
-485
-526
-426
-337
-415
-619
-762
-732
-614
-552
-589
-657
-680
-647
-567
-438
-274
-138
-78
-73
-57
0
44
18
-68
-150
-193
-221
-260
-289
-264
-177
-71
-11
-39
-158
-320
-452
-501
-485
-481
-540
-626
-645
-548
-386
-244
-164
-142
-193
-369
-681
-1046
-1347
-1556
-1773
-2078
-2386
-2484
-2244
-1771
-1285
-870
-368
417
1445
2436
3122
3485
3716
3962
4156
4118
3785
3262
2702
2174
1674
1215
837
546
276
-24
-308
-478
-516
-529
-635
-833
-1004
-1062
-1046
-1061
-1141
-1216
-1201
-1114
-1064
-1138
-1312
-1470
-1508
-1414
-1270
-1179
-1192
-1264
-1296
-1226
-1096
-1030
-1104
-1262
-1379
-1401
-1410
-1508
-1664
-1728
-1612
-1429
-1378
-1499
-1616
-1542
-1333
-1229
-1368
-1622
-1750
-1678
-1559
-1577
-1740
-1897
-1936
-1883
-1836
-1829
-1836
-1840
-1882
-1973
-2057
-2068
-2016
-1963
-1944
-1917
-1818
-1659
-1534
-1516
-1574
-1611
-1568
-1465
-1348
-1227
-1076
-891
-713
-590
-539
-540
-576
-661
-804
-974
-1098
-1123
-1046
-898
-712
-519
-345
-196
-74
14
37
-17
-106
-155
-157
-170
-232
-278
-188
57
300
357
224
96
164
417
657
697
522
286
179
270
440
498
368
178
145
341
613
755
729
682
761
944
1098
1148
1147
1195
1315
1450
1523
1520
1487
1477
1494
1496
1444
1346
1250
1182
1133
1084
1053
1057
1083
1098
1098
1124
1200
1274
1278
1225
1203
1265
1340
1304
1120
883
685
508
250
-126
-551
-932
-1235
-1438
-1469
-1259
-864
-450
-83
419
1312
2591
3886
4781
5212
5461
5784
6087
6063
5551
4712
3843
3099
2458
1870
1369
1012
790
643
535
475
458
432
354
231
96
-38
-175
-300
-367
-347
-278
-231
-246
-289
-300
-261
-208
-194
-235
-307
-378
-433
-486
-564
-671
-778
-838
-834
-791
-766
-783
-827
-865
-884
-908
-964
-1047
-1117
-1142
-1135
-1138
-1180
-1244
-1298
-1326
-1344
-1371
-1397
-1408
-1418
-1457
-1521
-1561
-1544
-1506
-1524
-1632
-1773
-1863
-1873
-1844
-1826
-1831
-1855
-1892
-1931
-1941
-1894
-1822
-1807
-1876
-1939
-1880
-1708
-1563
-1551
-1597
-1527
-1283
-1015
-912
-976
-1035
-937
-714
-515
-427
-421
-410
-343
-208
-35
120
191
161
81
28
16
0
-46
-92
-102
-104
-124
-130
-48
131
307
363
296
196
120
60
4
-40
-83
-173
-315
-419
-387
-245
-128
-117
-138
-57
142
354
472
510
554
669
849
1026
1097
1013
856
811
967
1165
1140
848
573
611
902
1080
904
551
393
570
834
865
637
402
382
555
729
785
787
876
1111
1399
1571
1525
1288
949
548
73
-502
-1163
-1836
-2400
-2723
-2734
-2485
-2127
-1731
-1157
-175
1246
2800
4068
4898
5534
6259
7005
7399
7192
6569
5936
5465
4945
4152
3208
2492
2184
2028
1644
1005
476
366
540
595
329
-68
-245
-68
280
542
584
434
218
76
70
115
37
-243
-589
-753
-638
-406
-305
-419
-608
-655
-462
-116
173
217
-23
-370
-543
-409
-135
-75
-412
-917
-1125
-786
-160
205
-13
-597
-1019
-954
-599
-436
-719
-1252
-1614
-1582
-1301
-1051
-948
-913
-880
-890
-996
-1115
-1102
-970
-937
-1157
-1478
-1561
-1280
-876
-718
-902
-1160
-1180
-928
-651
-595
-756
-906
-821
-488
-110
47
-80
-276
-273
-52
139
125
31
110
387
604
575
461
556
863
1035
802
355
158
430
881
1029
746
404
456
932
1396
1386
884
358
261
576
848
682
179
-159
27
566
904
708
258
151
617
1247
1441
1110
741
776
1088
1183
909
653
821
1284
1524
1330
1075
1177
1510
1542
1077
547
504
904
1182
991
640
672
1145
1540
1438
1040
871
1083
1286
1113
701
507
696
953
906
598
375
389
408
122
-449
-1023
-1390
-1565
-1649
-1621
-1376
-952
-492
-26
633
1717
3165
4556
5484
5932
6205
6519
6723
6520
5847
4954
4129
3449
2857
2345
1952
1649
1383
1198
1169
1194
969
321
-446
-829
-706
-548
-857
-1486
-1766
-1308
-518
-167
-477
-894
-813
-340
-146
-586
-1214
-1314
-800
-336
-552
-1244
-1575
-1086
-278
-39
-613
-1299
-1313
-710
-263
-500
-1118
-1398
-1090
-633
-553
-906
-1316
-1463
-1330
-1106
-1026
-1262
-1766
-2212
-2225
-1779
-1310
-1249
-1557
-1841
-1870
-1799
-1837
-1910
-1846
-1726
-1793
-2049
-2137
-1783
-1216
-918
-1060
-1370
-1558
-1625
-1678
-1652
-1412
-1043
-826
-868
-966
-877
-607
-329
-165
-130
-253
-576
-949
-1019
-590
91
507
388
-55
-422
-514
-424
-332
-317
-410
-640
-921
-1014
-745
-229
179
202
-90
-359
-354
-136
61
70
-110
-326
-410
-255
106
493
676
590
388
312
458
666
685
443
168
161
489
867
924
609
260
271
672
1098
1171
879
564
528
697
733
462
89
-48
169
504
634
502
355
414
644
775
623
292
70
98
254
296
148
-53
-145
-152
-251
-534
-908
-1205
-1358
-1437
-1492
-1477
-1314
-980
-476
230
1142
2126
2938
3435
3723
4043
4475
4809
4766
4273
3547
2873
2363
1902
1366
791
328
101
82
119
75
-69
-233
-358
-472
-638
-860
-1040
-1069
-965
-861
-868
-968
-1057
-1088
-1144
-1313
-1528
-1606
-1439
-1130
-884
-767
-613
-225
360
886
1111
1028
787
479
48
-566
-1270
-1908
-2417
-2842
-3184
-3324
-3141
-2700
-2227
-1919
-1809
-1814
-1883
-2010
-2208
-2470
-2776
-3078
-3262
-3195
-2866
-2438
-2107
-1918
-1773
-1613
-1525
-1637
-1930
-2204
-2290
-2207
-2108
-2086
-2086
-2005
-1833
-1668
-1607
-1651
-1702
-1664
-1497
-1213
-837
-415
-28
224
276
153
-74
-363
-730
-1168
-1593
-1878
-1950
-1845
-1636
-1363
-1045
-735
-536
-512
-607
-695
-718
-728
-808
-954
-1065
-1044
-893
-717
-608
-575
-558
-518
-474
-468
-497
-504
-455
-399
-419
-526
-629
-639
-571
-512
-500
-458
-305
-77
97
145
138
196
336
459
474
392
311
313
390
477
522
524
518
531
552
555
537
523
538
562
547
483
417
405
439
446
394
339
348
398
386
260
76
-74
-176
-297
-490
-738
-995
-1211
-1314
-1215
-889
-454
-68
277
795
1659
2750
3706
4249
4433
4514
4639
4708
4529
4044
3373
2681
2067
1555
1140
806
525
271
55
-91
-157
-177
-201
-253
-328
-419
-526
-642
-739
-793
-807
-813
-833
-876
-932
-994
-1042
-1037
-960
-851
-790
-811
-856
-818
-664
-471
-358
-367
-443
-504
-521
-531
-585
-693
-812
-878
-857
-775
-695
-661
-666
-681
-691
-709
-750
-813
-884
-953
-1013
-1052
-1049
-1007
-966
-963
-1002
-1043
-1051
-1023
-993
-985
-990
-986
-975
-977
-998
-1006
-967
-894
-842
-836
-836
-789
-699
-619
-583
-563
-523
-473
-443
-429
-379
-271
-147
-66
-21
44
150
250
290
281
290
338
370
338
283
300
409
517
535
496
514
630
745
740
630
553
590
671
663
539
410
390
473
567
605
602
597
595
586
582
607
657
674
620
526
490
588
781
940
972
912
900
1038
1263
1403
1345
1161
1031
1056
1169
1223
1159
1059
1042
1129
1228
1243
1163
1065
1020
1015
993
936
893
916
988
1040
1038
1030
1090
1205
1256
1114
744
254
-188
-494
-733
-1059
-1529
-1963
-2061
-1693
-1056
-483
-75
419
1302
2528
3695
4433
4745
4914
5136
5318
5256
4896
4369
3805
3208
2560
1949
1501
1208
904
459
-35
-345
-369
-271
-304
-524
-737
-747
-595
-482
-531
-659
-720
-682
-638
-682
-814
-966
-1060
-1042
-920
-774
-723
-812
-967
-1076
-1113
-1129
-1153
-1193
-1305
-1556
-1898
-2118
-2062
-1839
-1728
-1871
-2104
-2145
-1910
-1585
-1418
-1506
-1743
-1930
-1930
-1757
-1595
-1654
-1969
-2310
-2400
-2249
-2154
-2350
-2708
-2887
-2748
-2511
-2458
-2562
-2523
-2159
-1688
-1512
-1771
-2176
-2331
-2148
-1919
-1959
-2267
-2553
-2553
-2280
-1963
-1768
-1676
-1597
-1508
-1455
-1437
-1367
-1190
-985
-911
-1013
-1167
-1217
-1144
-1084
-1142
-1258
-1293
-1216
-1148
-1191
-1281
-1279
-1142
-983
-946
-1075
-1304
-1523
-1611
-1489
-1235
-1069
-1166
-1429
-1548
-1325
-941
-760
-910
-1139
-1150
-939
-756
-747
-809
-790
-732
-769
-897
-967
-925
-888
-972
-1092
-1040
-763
-437
-255
-218
-214
-187
-170
-175
-177
-218
-402
-724
-974
-959
-754
-646
-784
-988
-962
-666
-353
-251
-292
-238
11
306
439
370
214
69
-101
-407
-882
-1435
-1917
-2248
-2449
-2539
-2470
-2202
-1785
-1329
-861
-246
658
1759
2768
3448
3836
4159
4541
4847
4840
4422
3727
2997
2405
1976
1604
1154
605
93
-194
-216
-132
-124
-238
-380
-468
-514
-556
-587
-588
-600
-690
-817
-844
-721
-571
-577
-767
-980
-1028
-915
-812
-864
-1056
-1257
-1353
-1340
-1288
-1261
-1261
-1238
-1162
-1057
-971
-924
-881
-822
-777
-796
-889
-993
-1045
-1054
-1074
-1136
-1216
-1281
-1310
-1302
-1268
-1243
-1263
-1339
-1423
-1448
-1406
-1352
-1337
-1341
-1312
-1238
-1174
-1162
-1195
-1230
-1247
-1269
-1313
-1350
-1327
-1232
-1112
-1020
-957
-872
-733
-571
-450
-410
-427
-440
-409
-336
-243
-157
-92
-53
-35
-14
28
82
118
119
108
128
187
234
212
131
61
57
97
107
67
44
114
258
378
418
428
479
540
503
342
177
149
236
271
147
-35
-77
80
291
379
325
262
300
413
501
524
538
591
651
645
569
517
577
733
869
900
872
899
1011
1119
1117
1015
914
868
810
653
436
325
422
642
794
783
705
720
858
967
881
599
258
-35
-314
-663
-1070
-1432
-1686
-1877
-2053
-2124
-1935
-1462
-867
-275
387
1279
2382
3466
4296
4836
5197
5442
5530
5407
5084
4589
3933
3184
2507
2052
1776
1463
968
389
-56
-287
-442
-651
-853
-896
-777
-679
-728
-802
-651
-244
140
198
-38
-220
-102
161
219
-52
-412
-540
-422
-350
-548
-900
-1107
-1052
-915
-922
-1073
-1163
-1051
-836
-714
-736
-757
-635
-421
-293
-358
-572
-815
-1018
-1173
-1251
-1216
-1100
-1016
-1050
-1138
-1094
-814
-429
-236
-420
-849
-1180
-1177
-933
-760
-860
-1148
-1382
-1426
-1345
-1261
-1210
-1140
-1026
-907
-843
-850
-901
-943
-917
-811
-716
-773
-1005
-1211
-1114
-690
-232
-49
-101
-45
341
845
1048
798
388
215
358
544
510
298
178
334
691
1031
1206
1208
1116
1025
986
981
943
831
688
625
693
798
815
778
851
1079
1245
1066
564
122
108
473
820
867
752
799
1094
1391
1457
1350
1295
1354
1377
1255
1109
1135
1325
1459
1384
1224
1210
1377
1522
1464
1281
1207
1315
1424
1341
1102
921
904
953
911
792
755
901
1151
1340
1381
1325
1271
1251
1174
880
266
-580
-1369
-1794
-1780
-1530
-1310
-1186
-982
-445
537
1842
3181
4252
4913
5253
5491
5765
6019
6056
5719
5048
4276
3668
3318
3101
2804
2334
1778
1249
775
341
39
12
200
285
17
-416
-544
-171
344
491
176
-241
-441
-470
-560
-719
-754
-594
-439
-473
-590
-533
-241
52
96
-84
-260
-309
-310
-363
-425
-393
-326
-455
-882
-1342
-1406
-945
-353
-188
-574
-1052
-1090
-671
-304
-421
-883
-1175
-1053
-799
-828
-1133
-1323
-1150
-829
-746
-956
-1128
-965
-608
-454
-654
-947
-996
-800
-668
-821
-1103
-1164
-873
-484
-343
-517
-707
-592
-202
142
147
-162
-428
-331
109
542
617
338
58
90
383
577
405
8
-218
-46
377
711
786
700
608
554
512
472
448
426
371
284
217
215
297
491
784
1029
1007
686
343
312
617
914
901
680
561
673
825
850
860
996
1112
915
411
63
292
931
1345
1145
624
416
755
1265
1456
1274
1063
1088
1257
1288
1094
903
952
1195
1357
1255
986
810
867
1021
1004
729
380
225
282
345
243
21
-162
-246
-345
-539
-735
-736
-487
-115
235
589
1104
1856
2729
3502
4062
4477
4876
5251
5447
5310
4850
4244
3704
3309
2977
2550
1959
1337
936
890
994
848
292
-342
-546
-221
162
104
-341
-611
-346
166
345
32
-358
-405
-193
-149
-433
-745
-743
-473
-272
-326
-489
-549
-544
-675
-962
-1159
-1050
-728
-516
-581
-737
-652
-277
55
-16
-489
-987
-1166
-1072
-1015
-1182
-1422
-1461
-1247
-1011
-969
-1038
-945
-564
-84
199
171
-57
-336
-641
-1012
-1438
-1856
-2220
-2514
-2706
-2741
-2608
-2355
-2050
-1740
-1512
-1483
