-1674
-3036
-3769
-3910
-3600
-2979
-2183
-1349
-592
49
545
803
704
215
-487
-1121
-1504
-1616
-1495
-1064
-310
540
1177
1552
1985
2760
3675
4156
3901
3222
2625
2174
1519
615
176
1124
3531
6320
8120
8381
7613
6596
5516
3911
1364
-1881
-4955
-6928
-7385
-6569
-5094
-3539
-2211
-1148
-294
391
831
942
739
300
-209
-574
-611
-250
381
1022
1432
1531
1369
1004
509
88
128
959
2483
4050
4875
4634
3707
2794
2269
1868
1082
-214
-1492
-1961
-1271
171
1542
2286
2445
2410
2431
2379
1970
1103
23
-850
-1162
-768
177
1313
2299
3024
3574
3951
3948
3361
2343
1349
658
128
-399
-552
470
3006
6224
8579
9060
7939
6259
4722
3162
1028
-1835
-4938
-7507
-8920
-8860
-7378
-4942
-2345
-355
671
876
620
108
-666
-1773
-3153
-4528
-5478
-5615
-4806
-3293
-1604
-277
414
551
440
391
558
936
1426
1887
2222
2392
2465
2576
2811
3115
3322
3350
3379
3749
4616
5710
6467
6451
5642
4351
2893
1397
-125
-1605
-2868
-3700
-3906
-3373
-2153
-539
1011
2113
2653
2763
2627
2343
1972
1598
1304
1097
945
861
955
1295
1751
2049
1987
1605
1143
851
831
1034
1346
1645
1822
1810
1612
1311
1026
804
620
448
321
251
157
-84
-476
-862
-1099
-1255
-1545
-2006
-2309
-2013
-1039
167
981
1102
694
118
-432
-1033
-1868
-3010
-4324
-5495
-6191
-6249
-5782
-5113
-4562
-4270
-4193
-4211
-4233
-4280
-4415
-4671
-4998
-5257
-5297
-5098
-4804
-4596
-4518
-4461
-4301
-4077
-3961
-4068
-4291
-4379
-4180
-3801
-3477
-3342
-3314
-3208
-2908
-2426
-1834
-1208
-620
-164
99
201
250
355
534
722
838
869
908
1079
1411
1805
2123
2317
2452
2599
2739
2824
2901
3088
3416
3756
3975
4144
4470
5000
5522
5791
5842
5947
6238
6500
6388
5817
5049
4389
3902
3468
3015
2610
2323
2144
2036
2021
2142
2337
2466
2461
2393
2382
2451
2522
2524
2464
2382
2292
2190
2078
1953
1773
1496
1142
806
548
321
36
-294
-561
-692
-758
-904
-1164
-1423
-1549
-1567
-1607
-1730
-1853
-1884
-1880
-2012
-2394
-2933
-3411
-3658
-3646
-3463
-3210
-2927
-2580
-2099
-1467
-796
-294
-141
-369
-836
-1343
-1763
-2109
-2461
-2825
-3072
-3073
-2834
-2502
-2228
-2030
-1865
-1768
-1834
-2060
-2307
-2463
-2574
-2727
-2751
-2214
-854
999
2563
3245
3117
2720
2406
1947
796
-1287
-3903
-6264
-7723
-8116
-7707
-6898
-5992
-5123
-4287
-3436
-2577
-1874
-1580
-1830
-2473
-3096
-3318
-3062
-2548
-2042
-1642
-1274
-872
-559
-515
-745
-1057
-1267
-1422
-1687
-2079
-2423
-2632
-2894
-3458
-4183
-4513
-4008
-2891
-1972
-2032
-3297
-5461
-8074
-10848
-13680
-16517
-19218
-21456
-22787
-22913
-21925
-20287
-18552
-17109
-16194
-15996
-16585
-17742
-18992
-19873
-20206
-20035
-19343
-17948
-15717
-12809
-9667
-6792
-4525
-2936
-1940
-1377
-1028
-637
37
1071
2285
3365
4086
4410
4425
4232
3970
3892
4281
5228
6485
7619
8370
8843
9353
10079
10847
11281
11184
10757
10488
10766
11588
12628
13572
14386
15243
16240
17244
18050
18594
19060
19657
20387
21068
21526
21746
21853
21931
21899
21591
20970
20129
19241
18504
18118
18227
18788
19500
20021
20271
20452
20705
20889
20827
20720
21112
22294
23856
24950
25045
24315
23282
22211
20920
19124
16837
14418
12319
10863
10137
10015
10225
10469
10555
10427
10109
9651
9052
8322
7470
6526
5597
4862
4427
4207
3990
3619
3112
2573
2014
1347
535
-243
-690
-658
-285
114
325
367
378
427
453
378
237
150
169
215
179
74
63
287
696
1077
1248
1234
1211
1308
1457
1491
1324
1061
899
929
1059
1113
1006
818
694
667
617
416
106
-104
-61
152
284
176
-70
-203
-114
61
81
-147
-500
-813
-1036
-1245
-1511
-1809
-2068
-2262
-2436
-2647
-2917
-3228
-3548
-3842
-4087
-4285
-4494
-4779
-5150
-5496
-5666
-5610
-5447
-5368
-5476
-5679
-5789
-5719
-5575
-5552
-5759
-6123
-6448
-6533
-6219
-5471
-4444
-3478
-2924
-2871
-3079
-3250
-3396
-3824
-4757
-5980
-6985
-7456
-7507
-7460
-7440
-7311
-6954
-6475
-6112
-5991
-6046
-6179
-6391
-6703
-7024
-7152
-6960
-6563
-6197
-5959
-5724
-5312
-4754
-4305
-4130
-4112
-3923
-3345
-2453
-1452
-460
497
1321
1803
1802
1414
828
95
-919
-2288
-3793
-5049
-5819
-6166
-6273
-6205
-5887
-5314
-4685
-4252
-4117
-4162
-4210
-4245
-4384
-4670
-4982
-5132
-5083
-4994
-5015
-5130
-5198
-5186
-5203
-5290
-5271
-4892
-4136
-3329
-2854
-2797
-2929
-2984
-2922
-2841
-2785
-2723
-2728
-3032
-3789
-4837
-5780
-6363
-6699
-7098
-7683
-8250
-8456
-8125
-7370
-6477
-5728
-5260
-5016
-4817
-4497
-4058
-3690
-3586
-3721
-3847
-3722
-3305
-2758
-2244
-1819
-1493
-1351
-1495
-1880
-2266
-2404
-2258
-2025
-1895
-1853
-1713
-1318
-737
-231
-45
-196
-465
-599
-516
-386
-439
-724
-1046
-1153
-1007
-820
-813
-998
-1198
-1281
-1300
-1379
-1535
-1649
-1616
-1483
-1398
-1446
-1599
-1793
-2020
-2306
-2621
-2896
-3081
-3202
-3292
-3343
-3338
-3302
-3324
-3466
-3705
-3954
-4154
-4321
-4493
-4650
-4732
-4695
-4577
-4462
-4413
-4421
-4439
-4462
-4539
-4693
-4813
-4693
-4230
-3577
-3029
-2770
-2696
-2549
-2199
-1778
-1539
-1600
-1826
-1975
-1894
-1585
-1149
-667
-172
334
835
1273
1598
1825
2036
2307
2598
2753
2655
2391
2224
2354
2699
2975
3003
2897
2937
3265
3782
4307
4757
5122
5372
5474
5525
5754
6287
6958
7468
7719
7940
8427
9156
9778
9964
9726
9381
9233
9343
9557
9711
9818
10053
10606
11507
12546
13397
13852
13952
13895
13815
13662
13309
12703
11911
11092
10414
9984
9781
9683
9551
9304
8929
8431
7853
7307
6894
6513
5815
4490
2617
663
-900
-1926
-2520
-2739
-2509
-1817
-811
377
1727
3178
4413
4992
4768
4045
3250
2528
1782
1050
617
745
1338
2016
2479
2664
2602
2225
1398
75
-1569
-3245
-4672
-5627
-6013
-5928
-5670
-5575
-5754
-6004
-6041
-5867
-5862
-6454
-7665
-9046
-10054
-10434
-10282
-9777
-8974
-7870
-6552
-5179
-3864
-2674
-1776
-1442
-1820
-2698
-3594
-4139
-4358
-4580
-5077
-5784
-6369
-6585
-6470
-6276
-6244
-6396
-6583
-6722
-6915
-7277
-7753
-8191
-8631
-9441
-10967
-13046
-14973
-16107
-16533
-16999
-18060
-19396
-20030
-19276
-17381
-15167
-13126
-11000
-8273
-4874
-1272
2081
5200
8346
11459
14014
15484
15867
15681
15414
15080
14344
13015
11300
9638
8364
7506
6872
6229
5400
4340
3155
2060
1218
597
-12
-790
-1741
-2728
-3616
-4372
-5012
-5541
-5940
-6222
-6438
-6641
-6882
-7172
-7456
-7620
-7539
-7199
-6745
-6392
-6249
-6223
-6091
-5666
-4919
-3962
-2961
-2036
-1213
-441
349
1176
1994
2743
3414
4042
4648
5191
5599
5875
6115
6417
6760
7032
7157
7235
7438
7799
8167
8342
8285
8125
7998
7933
7885
7836
7818
7819
7759
7557
7213
6792
6363
5996
5769
5769
6028
6501
7130
7873
8682
9433
9929
9998
9623
8908
7971
6925
5908
5108
4659
4544
4614
4728
4857
4943
4808
4280
3460
2780
2632
2944
3184
2868
2055
1263
881
772
451
-374
-1517
-2516
-3033
-3038
-2709
-2256
-1824
-1484
-1244
-1068
-897
-735
-642
-694
-937
-1314
-1679
-1851
-1743
-1454
-1206
-1172
-1349
-1580
-1714
-1727
-1707
-1739
-1829
-1908
-1905
-1824
-1746
-1757
-1844
-1879
-1742
-1461
-1205
-1116
-1161
-1225
-1334
-1705
-2516
-3622
-4564
-4925
-4659
-4087
-3556
-3134
-2619
-1793
-681
430
1205
1479
1313
904
477
224
266
604
1064
1394
1455
1339
1265
1328
1437
1453
1367
1304
1335
1413
1470
1523
1618
1685
1535
1045
328
-352
-806
-1043
-1161
-1182
-1050
-738
-338
30
337
648
1020
1408
1704
1829
1788
1710
1726
1877
2092
2276
2384
2399
2311
2131
1978
2022
2269
2433
2175
1548
1055
1154
1690
1999
1641
925
600
1030
1802
2209
2019
1671
1730
2290
2949
3284
3268
3210
3357
3633
3771
3669
3492
3498
3766
4139
4413
4543
4617
4679
4663
4491
4162
3730
3251
2766
2338
2053
1949
1989
2100
2217
2303
2314
2213
2002
1734
1451
1156
819
422
4
-339
-500
-434
-195
94
316
413
381
224
-54
-395
-726
-1031
-1357
-1715
-2034
-2223
-2284
-2289
-2272
-2191
-2019
-1821
-1655
-1453
-1070
-477
170
712
1165
1655
2171
2486
2368
1803
973
31
-1008
-2165
-3353
-4401
-5173
-5647
-5873
-5923
-5871
-5782
-5709
-5671
-5681
-5761
-5920
-6107
-6244
-6295
-6299
-6317
-6358
-6390
-6401
-6440
-6571
-6791
-6998
-7060
-6920
-6632
-6295
-5958
-5609
-5235
-4885
-4645
-4550
-4551
-4571
-4577
-4576
-4548
-4443
-4232
-3965
-3715
-3504
-3293
-3062
-2865
-2775
-2788
-2827
-2845
-2878
-2977
-3106
-3145
-3012
-2770
-2568
-2474
-2387
-2128
-1624
-984
-410
-50
70
5
-178
-439
-738
-1045
-1356
-1670
-1948
-2101
-2039
-1753
-1342
-949
-662
-476
-335
-200
-65
72
211
345
458
542
622
742
902
1035
1061
981
893
911
1054
1236
1362
1429
1514
1664
1819
1871
1782
1623
1499
1449
1450
1490
1605
1820
2067
2228
2251
2189
2129
2071
1945
1708
1398
1100
860
680
565
536
576
608
545
376
172
2
-141
-326
-595
-908
-1182
-1390
-1592
-1864
-2193
-2458
-2534
-2422
-2242
-2117
-2044
-1911
-1633
-1257
-934
-786
-797
-821
-706
-416
-64
187
250
173
80
39
2
-128
-370
-627
-774
-783
-738
-724
-733
-705
-646
-645
-768
-953
-1055
-1012
-909
-861
-869
-826
-669
-474
-383
-474
-706
-998
-1294
-1576
-1821
-1996
-2083
-2100
-2079
-2058
-2066
-2103
-2138
-2122
-2047
-1961
-1908
-1879
-1835
-1747
-1601
-1388
-1105
-753
-343
140
735
1427
2118
2716
3251
3850
4568
5289
5871
6341
6885
7613
8411
9016
9266
9246
9172
9169
9170
8997
8573
8016
7525
7166
6808
6311
5760
5414
5398
5519
5472
5188
4918
4878
4939
4772
4232
3499
2831
2268
1675
995
356
-85
-317
-474
-662
-875
-1047
-1182
-1350
-1628
-2041
-2541
-3046
-3515
-3969
-4440
-4882
-5198
-5358
-5493
-5801
-6344
-6961
-7428
-7694
-7934
-8355
-8974
-9605
-10057
-10309
-10477
-10663
-10869
-11052
-11203
-11363
-11556
-11750
-11884
-11927
-11898
-11832
-11734
-11564
-11307
-11026
-10840
-10832
-10965
-11125
-11232
-11312
-11442
-11632
-11801
-11869
-11853
-11842
-11888
-11961
-11984
-11894
-11648
-11195
-10506
-9606
-8562
-7421
-6172
-4784
-3263
-1666
-43
1598
3266
4948
6596
8167
9647
11032
12305
13424
14343
15042
15543
15907
16199
16444
16620
16680
16594
16360
15982
15453
14775
13975
13104
12221
11379
10631
9989
9426
8899
8402
7961
7588
7227
6795
6278
5773
5402
5195
5070
4950
4847
4839
4979
5244
5585
5987
6461
6984
7484
7904
8269
8654
9065
9383
9486
9407
9355
9534
9962
10497
11007
11495
12021
12572
13066
13440
13705
13859
13827
13549
13103
12675
12381
12148
11825
11366
10875
10506
10327
10307
10389
10527
10685
10838
10989
11155
11322
11423
11388
11210
10947
10663
10395
10165
9993
9910
9934
10044
10151
10119
9849
9367
8816
8338
7939
7502
6941
6331
5856
5626
5555
5438
5160
4783
4452
4239
4081
3875
3582
3245
2927
2678
2525
2471
2479
2487
2482
2555
2836
3346
3922
4317
4401
4233
3961
3657
3249
2622
1762
806
-30
-584
-853
-971
-1099
-1288
-1478
-1595
-1651
-1729
-1890
-2133
-2437
-2785
-3091
-3212
-3071
-2786
-2622
-2752
-3085
-3378
-3493
-3528
-3681
-4019
-4418
-4700
-4788
-4745
-4683
-4667
-4698
-4728
-4700
-4590
-4439
-4356
-4467
-4817
-5329
-5826
-6127
-6155
-5983
-5775
-5675
-5730
-5872
-6001
-6061
-6092
-6199
-6454
-6833
-7199
-7376
-7284
-6993
-6671
-6463
-6400
-6419
-6453
-6470
-6471
-6474
-6524
-6671
-6896
-7068
-7044
-6828
-6600
-6510
-6525
-6501
-6414
-6435
-6693
-7087
-7406
-7655
-8131
-9060
-10245
-11168
-11459
-11214
-10798
-10420
-9960
-9198
-8140
-7078
-6355
-6112
-6222
-6423
-6520
-6500
-6507
-6673
-6984
-7269
-7335
-7109
-6712
-6375
-6293
-6474
-6734
-6817
-6617
-6255
-5975
-5941
-6104
-6284
-6328
-6212
-5987
-5705
-5424
-5249
-5296
-5604
-6086
-6634
-7221
-7854
-8401
-8598
-8265
-7507
-6619
-5775
-4894
-3887
-2972
-2600
-3038
-4060
-5161
-5993
-6609
-7244
-7932
-8436
-8474
-7997
-7257
-6626
-6346
-6448
-6805
-7238
-7627
-7953
-8234
-8437
-8484
-8321
-8001
-7676
-7453
-7235
-6731
-5744
-4455
-3435
-3229
-3845
-4724
-5191
-5034
-4638
-4528
-4800
-4988
-4496
-3190
-1580
-384
96
199
482
1111
1733
1965
1878
1914
2330
2888
3206
3291
3520
4094
4701
4860
4532
4186
4200
4437
4494
4273
4116
4339
4799
5043
4818
4332
3999
4041
4397
4864
5295
5650
5986
6356
6680
6738
6402
5926
5884
6616
7765
8522
8419
7831
7574
8001
8650
8785
8187
7321
6794
6780
7033
7294
7506
7693
7800
7744
7564
7433
7415
7424
7348
7237
7257
7445
7678
7853
8007
8169
8174
7783
7043
6368
6170
6400
6589
6391
5971
5791
6036
6343
6098
5001
3348
1847
1138
1349
2033
2536
2539
2304
2335
2798
3323
3393
2887
2141
1519
1091
725
426
373
606
837
697
164
-367
-487
-214
53
-9
-329
-548
-426
-82
158
91
-196
-448
-514
-478
-522
-707
-874
-820
-512
-123
136
184
55
-202
-530
-782
-750
-372
128
448
491
434
469
535
378
-110
-704
-1066
-1066
-858
-677
-583
-483
-356
-347
-616
-1094
-1492
-1596
-1498
-1465
-1603
-1713
-1555
-1154
-764
-543
-390
-164
63
84
-106
-208
76
683
1226
1363
1139
889
857
970
983
773
395
-18
-373
-633
-709
-522
-163
60
-137
-681
-1193
-1440
-1664
-2338
-3556
-4754
-5189
-4682
-3799
-3267
-3240
-3221
-2654
-1532
-431
37
-237
-813
-1124
-968
-620
-482
-691
-1026
-1167
-1061
-951
-1024
-1245
-1465
-1580
-1669
-1831
-2033
-2136
-2000
-1634
-1224
-973
-976
-1137
-1320
-1556
-2078
-3056
-4303
-5355
-5878
-5969
-5994
-6157
-6265
-5924
-4960
-3591
-2284
-1483
-1385
-1851
-2498
-2945
-3110
-3228
-3550
-4059
-4452
-4445
-4051
-3479
-2919
-2464
-2171
-2088
-2160
-2202
-2108
-2020
-2214
-2786
-3539
-4245
-4871
-5471
-5906
-5904
-5472
-5115
-5402
-6303
-7123
-7214
-6693
-6325
-6669
-7459
-7910
-7492
-6357
-5064
-4042
-3355
-2827
-2241
-1436
-412
620
1332
1501
1211
760
410
246
215
223
153
-89
-436
-581
-196
693
1628
2086
1925
1458
1076
888
713
354
-198
-784
-1201
-1317
-1140
-850
-720
-899
-1232
-1339
-948
-166
583
950
993
1085
1535
2280
2967
3288
3220
2965
2744
2672
2767
2968
3151
3185
3063
2927
2943
3162
3458
3638
3589
3348
3109
3101
3382
3721
3785
3509
3198
3116
2951
1959
-170
-2613
-3878
-3152
-1137
639
1365
1710
2961
5509
8347
10045
10045
8967
7818
7115
6781
6598
6548
6682
6908
7059
7108
7230
7538
7859
7833
7253
6269
5287
4686
4609
4918
5324
5512
5306
4754
4081
3528
3194
3002
2841
2685
2569
2463
2255
1864
1396
1087
1124
1435
1719
1717
1460
1255
1352
1651
1713
1117
-129
-1543
-2500
-2674
-2202
-1522
-1001
-689
-336
348
1379
2407
2942
2724
1914
964
288
38
110
263
269
79
-123
-68
350
898
1195
1054
638
249
33
-69
-111
-31
213
472
498
216
-157
-312
-177
-3
-105
-553
-1127
-1533
-1681
-1728
-1895
-2230
-2543
-2574
-2229
-1660
-1126
-760
-472
-84
443
949
1234
1255
1161
1105
1068
881
429
-187
-710
-981
-1081
-1219
-1473
-1673
-1590
-1212
-801
-649
-794
-1006
-1046
-889
-712
-685
-796
-902
-886
-767
-631
-536
-474
-418
-374
-389
-478
-578
-570
-383
-75
206
351
362
291
149
-94
-427
-757
-1012
-1230
-1475
-1684
-1695
-1425
-1034
-802
-863
-1085
-1227
-1190
-1054
-928
-788
-516
-109
240
281
-36
-501
-852
-1028
-1214
-1597
-2119
-2490
-2435
-1918
-1127
-327
262
536
506
317
170
171
262
324
314
300
404
692
1121
1545
1806
1905
2121
2871
4293
5975
7202
7538
7189
6691
6306
5801
4833
3428
2026
1094
801
1042
1640
2426
3201
3772
4093
4313
4565
4783
4739
4324
3709
3214
3037
3147
3365
3505
3462
3225
2880
2579
2446
2505
2669
2807
2842
2758
2574
2307
1966
1584
1245
1057
1090
1289
1496
1557
1444
1227
978
725
497
356
333
350
280
91
-118
-246
-352
-604
-1052
-1526
-1764
-1695
-1482
-1332
-1279
-1194
-996
-783
-723
-854
-1042
-1128
-1091
-1038
-1059
-1115
-1115
-1028
-943
-997
-1265
-1701
-2176
-2559
-2816
-3002
-3184
-3361
-3473
-3487
-3472
-3550
-3776
-4087
-4386
-4647
-4871
-5019
-5002
-4808
-4553
-4398
-4391
-4451
-4488
-4499
-4499
-4430
-4200
-3832
-3464
-3188
-2913
-2469
-1858
-1307
-1051
-1075
-1137
-1044
-848
-757
-862
-1018
-1007
-767
-471
-345
-400
-403
-104
489
1112
1504
1685
1929
2464
3247
4038
4640
5024
5272
5476
5705
6000
6329
6579
6637
6533
6454
6564
6837
7072
7112
6999
6909
6955
7062
7058
6836
6470
6159
6042
6085
6121
6006
5731
5389
5055
4714
4321
3874
3405
2934
2467
2038
1713
1525
1395
1186
839
419
24
-340
-748
-1232
-1703
-2061
-2319
-2565
-2818
-2993
-3036
-3031
-3118
-3313
-3501
-3584
-3583
-3560
-3540
-3529
-3556
-3624
-3616
-3401
-3093
-3103
-3791
-5034
-6240
-6853
-6802
-6428
-6073
-5765
-5269
-4378
-3115
-1753
-688
-241
-451
-1073
-1757
-2301
-2716
-3109
-3535
-3986
-4409
-4712
-4778
-4591
-4374
-4467
-4993
-5694
-6179
-6338
-6410
-6628
-6886
-6854
-6435
-5967
-5874
-6169
-6425
-6264
-5792
-5452
-5486
-5686
-5705
-5509
-5417
-5677
-6136
-6461
-6577
-6747
-7222
-7908
-8485
-8823
-9095
-9528
-10107
-10602
-10830
-10781
-10525
-10110
-9570
-8983
-8433
-7889
-7230
-6414
-5560
-4834
-4263
-3730
-3126
-2470
-1832
-1188
-409
564
1564
2303
2624
2637
2578
2530
2323
1730
718
-498
-1636
-2566
-3317
-3973
-4558
-5009
-5216
-5055
-4440
-3380
-1973
-346
1388
3121
4721
6057
7075
7800
8300
8650
8938
9261
9662
10074
10382
10547
10645
10782
10937
10940
10612
9951
9164
8502
8051
7683
7185
6455
5589
4768
4075
3431
2684
1785
829
-15
-622
-969
-1110
-1139
-1150
-1195
-1260
-1291
-1243
-1105
-897
-638
-329
37
459
934
1443
1956
2420
2798
3082
3298
3467
3578
3605
3555
3477
3407
3328
3181
2943
2666
2428
2270
2161
2061
1983
1966
2018
2109
2224
2392
2608
2766
2733
2507
2305
2386
2796
3293
3591
3650
3687
3917
4319
4682
4828
4758
4608
4508
4540
4772
5244
5882
6492
6889
7062
7171
7360
7574
7611
7379
7044
6874
6997
7307
7592
7727
7697
7499
7115
6582
6014
5496
4988
4370
3610
2832
2209
1803
1547
1332
1087
778
400
19
-233
-271
-161
-79
-146
-318
-466
-550
-642
-805
-983
-1055
-997
-914
-902
-913
-787
-427
69
497
731
796
786
761
734
697
634
496
244
-42
-166
-13
277
392
180
-163
-301
-161
-32
-229
-708
-1097
-1111
-856
-672
-751
-976
-1113
-1101
-1077
-1169
-1357
-1553
-1751
-2005
-2279
-2434
-2377
-2201
-2115
-2228
-2463
-2677
-2841
-3022
-3196
-3229
-3061
-2853
-2864
-3134
-3403
-3394
-3161
-3046
-3296
-3769
-4068
-3961
-3603
-3309
-3229
-3252
-3215
-3110
-3055
-3114
-3214
-3231
-3121
-2924
-2676
-2376
-1992
-1546
-1105
-715
-386
-142
-37
-87
-212
-270
-179
-21
9
-166
-375
-326
88
605
811
579
230
216
635
1126
1259
992
646
498
493
402
159
-67
-114
-31
10
-64
-169
-220
-259
-396
-664
-976
-1227
-1403
-1544
-1631
-1589
-1428
-1340
-1555
-2091
-2670
-2973
-2974
-2945
-3073
-3161
-2787
-1794
-508
581
1268
1743
2244
2710
2830
2408
1620
895
544
525
573
498
381
456
809
1230
1392
1139
609
38
-443
-819
-1076
-1194
-1196
-1163
-1133
-1031
-769
-371
21
289
396
335
127
-110
-190
-22
226
294
219
412
1264
2641
3926
4594
4703
4743
5040
5429
5519
5180
4672
4333
4242
4225
4123
3961
3854
3826
3777
3579
3204
2745
2299
1892
1490
1112
851
783
892
1074
1232
1349
1468
1598
1675
1619
1456
1335
1412
1661
1792
1410
338
-1177
-2585
-3434
-3670
-3590
-3475
-3301
-2776
-1671
-117
1425
2486
2888
2786
2439
1988
1479
979
611
425
337
292
432
960
1819
2597
2868
2646
2370
2388
2615
2725
2591
2413
2415
2556
2641
2623
2678
2951
3335
3575
3507
3184
2720
2116
1321
393
-410
-771
-558
82
893
1725
2579
3449
4160
4481
4366
4032
3793
3795
3956
4160
4422
4849
5496
6233
6829
7106
7034
6716
6292
5817
5257
4568
3842
3292
3018
2849
2516
1975
1494
1305
1281
1097
709
467
579
587
-311
-2325
-4610
-5956
-5942
-5241
-4771
-4684
-4324
-3113
-1287
329
1102
1029
470
-353
-1471
-2830
-4058
-4682
-4597
-4219
-4028
-4052
-3865
-3141
-2166
-1631
-1950
-2835
-3619
-3929
-3927
-3958
-4105
-4199
-4111
-3967
-4002
-4306
-4732
-5010
-4976
-4686
-4381
-4309
-4515
-4797
-4888
-4679
-4284
-3900
-3642
-3491
-3415
-3426
-3530
-3660
-3706
-3670
-3710
-3960
-4329
-4512
-4311
-3850
-3457
-3308
-3233
-2949
-2398
-1800
-1385
-1196
-1156
-1189
-1199
-995
-445
276
730
620
151
-163
-62
186
120
-370
-943
-1173
-965
-557
-227
-67
33
212
477
706
780
706
582
425
118
-395
-905
-1086
-832
-409
-133
0
227
619
914
871
666
705
1070
1321
1009
245
-403
-560
-437
-503
-905
-1369
-1626
-1745
-1954
-2245
-2340
-2032
-1449
-897
-513
-169
309
905
1386
1542
1353
962
517
68
-358
-687
-872
-1024
-1381
-2004
-2571
-2578
-1821
-685
129
156
-541
-1582
-2673
-3748
-4807
-5772
-6501
-6903
-6958
-6659
-6014
-5121
-4189
-3457
-3075
-3072
-3339
-3659
-3827
-3747
-3532
-3378
-3334
-3231
-2884
-2367
-2002
-2054
-2452
-2871
-3082
-3165
-3320
-3577
-3760
-3794
-3933
-4561
-5748
-7125
-8241
-8986
-9548
-10001
-10107
-9606
-8624
-7669
-7158
-7054
-7026
-6862
-6668
-6676
-6951
-7346
-7705
-7995
-8249
-8444
-8509
-8466
-8416
-8430
-8447
-8354
-8147
-7933
-7772
-7594
-7285
-6847
-6359
-5804
-5004
-3830
-2447
-1278
-649
-504
-507
-402
-248
-308
-719
-1322
-1769
-1778
-1340
-690
-128
194
339
477
687
904
1000
915
732
582
560
685
918
1187
1409
1519
1499
1395
1293
1273
1366
1542
1743
1935
2119
2289
2414
2455
2403
2277
2107
1939
1872
2032
2457
3026
3529
3865
4156
4609
5281
6007
6542
6791
6856
6903
7008
7134
7239
7344
7510
7792
8182
8601
8944
9166
9310
9424
9482
9409
9208
9017
8988
9090
9132
9012
8900
9076
9577
10105
10343
10337
10467
11023
11874
12596
12916
12947
13001
13249
13576
13726
13540
13055
12436
11841
11348
10953
10603
10249
9879
9511
9203
9044
9084
9223
9218
8855
8153
7345
6633
6009
5305
4432
3487
2678
2159
1956
1985
2046
1888
1354
550
-211
-669
-854
-1024
-1359
-1750
-1905
-1647
-1095
-592
-448
-744
-1327
-1985
-2625
-3288
-4017
-4739
-5306
-5617
-5692
-5636
-5541
-5447
-5389
-5419
-5570
-5808
-6049
-6219
-6285
-6239
-6077
-5764
-5246
-4524
-3724
-3051
-2647
-2483
-2436
-2496
-2810
-3484
-4362
-5082
-5363
-5246
-4989
-4778
-4572
-4224
-3679
-3020
-2380
-1848
-1474
-1298
-1326
-1521
-1823
-2209
-2712
-3354
-4094
-4821
-5403
-5775
-5937
-5917
-5727
-5383
-4963
-4597
-4405
-4380
-4418
-4429
-4427
-4475
-4564
-4597
-4500
-4332
-4234
-4273
-4389
-4475
-4484
-4448
-4403
-4320
-4136
-3804
-3360
-2921
-2624
-2547
-2661
-2857
-3054
-3220
-3329
-3350
-3282
-3212
-3213
-3190
-2906
-2218
-1298
-513
-105
-6
14
41
-59
-472
-1238
-2215
-3155
-3824
-4111
-4123
-4123
-4290
-4513
-4500
-4102
-3493
-2974
-2628
-2247
-1586
-639
396
1309
2021
2516
2754
2709
2406
1943
1417
896
439
127
26
118
307
507
706
959
1299
1657
1919
2036
2123
2377
2878
3480
3912
4025
3946
4008
4494
5423
6550
7567
8284
8673
8761
8542
8038
7376
6752
6281
5910
5561
5319
5423
6011
6884
7601
7828
7596
7203
6878
6612
6266
5769
5208
4726
4414
4273
4262
4331
4408
4398
4248
4002
3776
3661
3642
3637
3582
3490
3397
3285
3092
2826
2619
2637
2876
3116
3107
2801
2357
1928
1497
948
280
-340
-734
-888
-940
-1023
-1129
-1171
-1150
-1175
-1356
-1686
-2050
-2335
-2511
-2600
-2605
-2494
-2267
-1985
-1697
-1365
-899
-333
119
245
61
-188
-319
-472
-996
-2074
-3486
-4771
-5611
-6012
-6163
-6186
-6037
-5610
-4887
-4005
-3187
-2651
-2505
-2696
-3085
-3547
-4012
-4446
-4816
-5089
-5257
-5325
-5303
-5200
-5047
-4927
-4917
-5028
-5197
-5341
-5418
-5417
-5335
-5189
-5035
-4948
-4954
-4985
-4931
-4749
-4499
-4268
-4099
-3997
-3976
-4067
-4275
-4555
-4862
-5187
-5534
-5855
-6034
-5992
-5762
-5474
-5246
-5113
-5041
-4988
-4951
-4965
-5058
-5204
-5336
-5398
-5392
-5355
-5284
-5104
-4758
-4308
-3908
-3635
-3387
-3005
-2488
-2056
-1924
-2058
-2173
-2014
-1586
-1097
-702
-337
196
995
1935
2775
3351
3666
3816
3878
3891
3904
3991
4195
4462
4711
4965
5367
6024
6815
7413
7564
7304
6924
6691
6628
6577
6420
6189
5987
5856
5760
5657
5527
5355
5115
4820
4543
4355
4241
4134
4010
3942
3996
4122
4188
4113
3946
3782
3635
3416
3069
2665
2343
2152
2005
1786
1503
1266
1113
929
590
153
-133
-86
210
475
525
420
329
277
95
-362
-1017
-1617
-1959
-2035
-1977
-1899
-1821
-1688
-1439
-1056
-596
-196
2
-54
-250
-372
-295
-100
-12
-175
-510
-777
-817
-718
-717
-963
-1354
-1641
-1650
-1426
-1153
-997
-984
-1017
-977
-825
-618
-415
-199
131
653
1298
1855
2115
2027
1711
1318
885
337
-389
-1208
-1908
-2293
-2327
-2141
-1923
-1783
-1690
-1556
-1358
-1190
-1189
-1409
-1745
-2030
-2168
-2189
-2173
-2142
-2049
-1860
-1642
-1529
-1578
-1728
-1874
-2000
-2186
-2483
-2823
-3097
-3293
-3511
-3826
-4158
-4337
-4293
-4155
-4130
-4317
-4646
-4969
-5172
-5230
-5208
-5211
-5326
-5550
-5768
-5844
-5762
-5672
-5764
-6095
-6536
-6889
-7047
-7073
-7102
-7207
-7363
-7510
-7634
-7765
-7921
-8062
-8150
-8204
-8282
-8408
-8523
-8529
-8405
-8224
-8064
-7909
-7675
-7341
-7027
-6864
-6807
-6641
-6254
-5864
-5873
-6468
-7359
-8004
-8088
-7727
-7235
-6754
-6157
-5262
-4048
-2663
-1300
-127
734
1258
1581
1960
2607
3551
4661
5775
6818
7828
8874
9974
11027
11842
12267
12330
12223
12158
12222
12392
12641
12967
13324
13584
13616
13404
13076
12793
12611
12474
12309
12107
11929
11869
11984
12235
12499
12636
12601
12464
12321
12178
11958
11621
11244
10961
10828
10802
10822
10880
10975
11062
11071
10982
10842
10698
10539
10315
10022
9727
9495
9333
9189
9021
8854
8775
8839
8996
9107
9047
8815
8515
8239
7984
7688
7335
6984
6704
6507
6375
6321
6338
6333
6205
5970
5775
5717
5678
5448
5010
4616
4546
4789
5088
5264
5414
5734
6230
6691
6925
6934
6804
6501
5882
4898
3732
2685
1925
1384
899
425
99
94
413
837
1079
1011
709
321
-100
-600
-1169
-1677
-2012
-2229
-2476
-2792
-3045
-3111
-3068
-3133
-3418
-3823
-4178
-4439
-4687
-4958
-5175
-5272
-5308
-5414
-5643
-5913
-6123
-6265
-6418
-6643
-6920
-7192
-7423
-7627
-7818
-7986
-8099
-8151
-8178
-8222
-8304
-8409
-8509
-8589
-8650
-8718
-8828
-8986
-9148
-9244
-9241
-9176
-9114
-9067
-8979
-8794
-8557
-8381
-8331
-8354
-8336
-8223
-8087
-8052
-8155
-8256
-8131
-7663
-6972
-6341
-5997
-5958
-6091
-6288
-6565
-6988
-7566
-8229
-8882
-9416
-9715
-9700
-9423
-9058
-8756
-8516
-8230
-7849
-7469
-7220
-7126
-7095
-7010
-6809
-6465
-5981
-5403
-4834
-4355
-3965
-3601
-3247
-2975
-2856
-2849
-2818
-2673
-2470
-2326
-2276
-2229
-2080
-1821
-1517
-1213
-899
-579
-280
0
351
859
1483
2064
2480
2762
3028
3312
3508
3486
3225
2845
2501
2285
2184
2105
1953
1745
1629
1774
2181
2665
3045
3325
3669
4161
4684
5060
5258
5406
5585
5716
5688
5551
5494
5626
5853
6004
6050
6115
6305
6572
6766
6793
6681
6505
6287
6035
5789
5605
5514
5513
5588
5684
5682
5461
5037
4613
4421
4485
4599
4571
4469
4573
5098
5947
6761
7206
7195
6872
6434
5949
5355
4615
3820
3152
2732
2548
2507
2542
2633
2720
2713
2596
2450
2339
2202
1900
1406
903
609
537
478
242
-144
-499
-692
-729
-701
-660
-630
-654
-795
-1047
-1301
-1439
-1469
-1555
-1820
-2131
-2155
-1708
-1051
-755
-1161
-2004
-2647
-2722
-2458
-2349
-2560
-2739
-2457
-1732
-991
-594
-530
-573
-633
-826
-1204
-1591
-1768
-1756
-1773
-1892
-1901
-1584
-1084
-814
-976
-1313
-1419
-1232
-1086
-1260
-1622
-1797
-1616
-1296
-1171
-1367
-1755
-2141
-2389
-2451
-2354
-2197
-2088
-2053
-1999
-1860
-1685
-1568
-1536
-1533
-1495
-1440
-1449
-1547
-1645
-1615
-1426
-1222
-1203
-1387
-1529
-1345
-839
-332
-96
8
399
1259
2248
2800
2674
2110
1490
952
379
-331
-1096
-1743
-2143
-2247
-2064
-1661
-1171
-745
-469
-341
-327
-396
-490
-501
-363
-121
112
254
329
415
545
659
663
507
230
-35
-142
-8
337
780
1197
1505
1680
1746
1766
1797
1831
1778
1572
1277
1056
1019
1102
1157
1144
1192
1428
1795
2101
2215
2212
2272
2474
2711
2807
2712
2562
2559
2773
3032
3063
2777
2345
1991
1691
1192
358
-566
-1147
-1216
-1037
-967
-1050
-1023
-689
-158
280
434
245
-346
-1371
-2685
-3962
-4937
-5606
-6087
-6364
-6256
-5676
-4786
-3802
-2752
-1531
-217
831
1277
1136
725
277
-259
-1050
-2105
-3236
-4208
-4877
-5224
-5322
-5309
-5312
-5331
-5237
-4975
-4723
-4772
-5229
-5861
-6338
-6571
-6743
-7030
-7354
-7452
-7141
-6447
-5550
-4665
-3972
-3561
-3398
-3337
-3243
-3124
-3117
-3327
-3711
-4127
-4467
-4720
-4909
-5048
-5164
-5320
-5547
-5765
-5837
-5712
-5496
-5355
-5352
-5421
-5492
-5593
-5827
-6230
-6724
-7188
-7525
-7682
-7616
-7316
-6863
-6412
-6079
-5848
-5628
-5358
-5092
-4936
-4910
-4914
-4784
-4404
-3764
-2978
-2225
-1677
-1391
-1293
-1275
-1301
-1438
-1756
-2211
-2643
-2914
-3008
-2979
-2841
-2549
-2102
-1636
-1325
-1176
-949
-297
948
2593
4191
5327
5870
6010
6048
6112
6052
5606
4700
3597
2764
2568
3058
3990
5021
5888
6477
6795
6935
7036
7211
7478
7759
7973
8162
8515
9202
10205
11273
12054
12333
12153
11741
11335
11060
10922
10859
10781
10642
10493
10476
10707
11141
11577
11830
11875
11819
11749
11631
11364
10869
10151
9344
8721
8593
9066
9859
10443
10466
10035
9550
9217
8818
7986
6642
5123
3900
3225
3054
3201
3464
3673
3719
3624
3502
3388
3169
2715
2113
1669
1610
1813
1916
1717
1385
1231
1307
1311
913
117
-751
-1373
-1711
-1982
-2407
-3040
-3760
-4386
-4764
-4837
-4649
-4282
-3811
-3306
-2855
-2509
-2238
-1980
-1751
-1655
-1791
-2137
-2597
-3094
-3552
-3864
-3991
-4108
-4460
-4947
-4971
-3953
-2115
-535
-230
-1186
-2460
-3243
-3682
-4538
-6203
-8216
-9737
-10293
-10006
-9279
-8434
-7646
-7036
-6659
-6468
-6358
-6302
-6364
-6583
-6869
-7055
-7014
-6763
-6430
-6136
-5963
-5956
-6141
-6495
-6894
-7134
-7089
-6809
-6464
-6188
-6011
-5902
-5809
-5654
-5334
-4853
-4412
-4274
-4462
-4639
-4405
-3745
-3107
-2980
-3410
-3992
-4300
-4284
-4217
-4346
-4648
-4895
-4873
-4528
-3927
-3155
-2329
-1595
-1069
-755
-535
-330
-216
-296
-492
-598
-562
-589
-812
-899
-228
1373
3184
4142
3876
3038
2557
2687
2917
2716
2112
1513
1181
1078
1151
1500
2149
2806
3046
2747
2257
2066
2341
2860
3326
3641
3916
4323
4985
5928
7017
7915
8305
8204
8051
8312
9016
9733
10009
9791
9393
9115
8949
8587
7694
6324
5174
5315
7305
10366
12670
12821
11127
9231
8348
8049
6920
4289
1045
-1250
-1769
-853
678
2286
3774
4967
5646
5774
5601
5396
5201
4832
4193
3480
3060
3174
3737
4414
4898
5104
5114
4993
4723
4323
3929
3706
3647
3544
3143
2367
1388
501
-77
-314
-333
-284
-235
-181
-131
-147
-311
-640
-1055
-1458
-1824
-2178
-2535
-2876
-3181
-3447
-3660
-3743
-3635
-3399
-3171
-3015
-2854
-2616
-2373
-2293
-2440
-2701
-2968
-3271
-3665
-3976
-3876
-3261
-2491
-2106
-2297
-2755
-3085
-3310
-3854
-5057
-6799
-8612
-10083
-11118
-11869
-12494
-13033
-13440
-13666
-13734
-13736
-13773
-13911
-14155
-14480
-14886
-15363
-15847
-16235
-16473
-16586
-16638
-16678
-16713
-16723
-16689
-16592
-16426
-16218
-16014
-15795
-15469
-14977
-14371
-13765
-13204
-12627
-11990
-11345
-10781
-10280
-9741
-9123
-8465
-7723
-6687
-5200
-3472
-2023
-1209
-880
-595
-150
224
228
-59
-209
117
901
1917
3053
4347
5767
7081
8037
8631
9100
9645
10220
10655
10903
11132
11577
12296
13142
13919
14562
15120
15636
16089
16442
16704
16923
17129
17297
17383
17347
17191
16969
16762
16618
16517
16391
16210
16014
15860
15754
15654
15540
15426
15330
15261
15258
15378
15632
15939
16188
16351
16474
16566
16556
16410
16231
16170
16211
16132
15727
15044
14339
13780
13256
12499
11349
9883
8331
6901
5704
4757
3976
3222
2420
1640
1049
739
582
298
-316
-1231
-2220
-3011
-3453
-3605
-3688
-3898
-4214
-4385
-4176
-3650
-3172
-3099
-3453
-3938
-4282
-4486
-4745
-5175
-5691
-6130
-6420
-6601
-6720
-6794
-6846
-6931
-7097
-7316
-7510
-7640
-7715
-7773
-7846
-7958
-8135
-8383
-8645
-8825
-8888
-8916
-9051
-9339
-9674
-9887
-9909
-9849
-9875
-10038
-10232
-10323
-10307
-10273
-10255
-10148
-9816
-9262
-8646
-8136
-7754
-7419
-7105
-6915
-6977
-7283
-7687
-8039
-8299
-8513
-8687
-8767
-8710
-8568
-8435
-8367
-8342
-8340
-8393
-8549
-8804
-9090
-9336
-9524
-9663
-9738
-9704
-9533
-9243
-8871
-8413
-7815
-7036
-6094
-5058
-3976
-2824
-1550
-156
1260
2588
3808
4998
6219
7421
8475
9300
9927
10434
10854
11200
11516
11877
12280
12617
12784
12805
12822
12905
12937
12730
12244
11642
11105
10633
10106
9490
8920
8532
8268
7937
7481
7097
7046
7354
7787
8141
8467
8961
9660
10362
10831
11062
11254
11563
11951
12274
12471
12627
12841
13104
13304
13321
13110
12703
12181
11638
11146
10724
10339
9950
9549
9161
8800
8452
8082
7662
7174
6616
6008
5404
4890
4519
4263
4046
3815
3579
3361
3149
2901
2609
2316
2055
1808
1532
1234
968
756
549
286
-3
-203
-249
-206
-231
-409
-663
-859
-954
-1007
-1075
-1143
-1162
-1149
-1154
-1161
-1052
-728
-250
210
583
990
1588
2328
2937
3182
3101
2940
2864
2804
2579
2129
1560
992
448
-93
-572
-861
-924
-877
-882
-960
-979
-835
-599
-461
-560
-858
-1199
-1468
-1668
-1866
-2093
-2309
-2439
-2446
-2362
-2267
-2229
-2253
-2303
-2376
-2521
-2788
-3132
-3412
-3498
-3387
-3221
-3155
-3220
-3301
-3284
-3190
-3157
-3300
-3588
-3897
-4146
-4357
-4578
-4771
-4833
-4734
-4590
-4560
-4696
-4920
-5163
-5459
-5895
-6468
-7044
-7477
-7712
-7782
-7727
-7564
-7322
-7071
-6874
-6721
-6559
-6390
-6298
-6362
-6506
-6553
-6423
-6230
-6127
-6120
-6062
-5878
-5692
-5653
-5712
-5679
-5527
-5553
-6073
-7014
-7892
-8246
-8061
-7690
-7414
-7142
-6560
-5499
-4138
-2883
-2094
-1906
-2225
-2837
-3526
-4165
-4731
-5243
-5685
-5993
-6078
-5912
-5542
-5076
-4650
-4374
-4295
-4365
-4455
-4428
-4232
-3912
-3556
-3231
-2979
-2863
-2926
-3107
-3227
-3164
-3020
-3054
-3402
-3870
-4064
-3727
-2935
-1969
-1058
-246
517
1254
1910
2393
2602
2475
2052
1462
885
488
352
439
608
721
760
834
1023
1200
1120
742
405
549
1209
1898
2074
1687
1168
892
748
328
-560
-1678
-2620
-3172
-3376
-3327
-3059
-2667
-2347
-2213
-2145
-1902
-1438
-1036
-1003
-1313
-1611
-1566
-1179
-704
-290
185
888
1738
2431
2747
2784
2816
2957
3043
2847
2346
1753
1311
1102
1055
1079
1143
1257
1425
1630
1865
2131
2399
2627
2775
2828
2842
2929
3156
3445
3592
3423
2982
2531
2325
2404
2597
2714
2699
2605
2488
2361
2234
2122
2011
1860
1645
1419
1275
1246
1271
1260
1182
1078
1005
981
976
948
844
634
331
-13
-357
-748
-1282
-1974
-2664
-3077
-3041
-2628
-2089
-1631
-1246
-785
-178
440
824
825
510
74
-324
-636
-879
-1056
-1137
-1111
-1016
-914
-831
-741
-622
-497
-418
-415
-453
-460
-411
-353
-345
-366
-321
-144
113
315
380
377
441
617
811
885
809
664
546
483
466
496
589
741
901
1010
1072
1146
1280
1444
1552
1541
1446
1370
1373
1423
1463
1504
1611
1813
2059
2288
2522
2828
3163
3309
3039
2371
1596
1067
894
900
845
689
642
944
1624
2441
3052
3266
3149
2938
2859
2960
3124
3189
3110
2991
2996
3174
3382
3433
3266
3014
2833
2750
2681
2590
2564
2721
3040
3357
3519
3509
3413
3300
3165
2990
2805
2695
2725
2861
2984
2983
2853
2692
2592
2538
2435
2228
1991
1862
1912
2093
2321
2563
2830
3110
3342
3482
3550
3601
3639
3611
3478
3272
3054
2836
2563
2187
1759
1402
1181
1033
820
499
166
-45
-118
-169
-333
-622
-936
-1183
-1353
-1493
-1614
-1656
-1574
-1413
-1308
-1370
-1572
-1774
-1878
-1945
-2135
-2526
-3022
-3453
-3754
-3987
-4220
-4395
-4373
-4100
-3675
-3257
-2911
-2577
-2202
-1861
-1738
-1949
-2378
-2737
-2839
-2782
-2834
-3129
-3511
-3742
-3815
-3944
-4261
-4629
-4843
-4985
-5415
-6322
-7388
-8006
-7832
-7085
-6266
-5669
-5251
-4871
-4526
-4333
-4347
-4524
-4807
-5175
-5569
-5840
-5837
-5532
-5045
-4517
-4005
-3532
-3177
-3060
-3194
-3433
-3609
-3725
-3954
-4405
-4921
-5221
-5195
-5050
-5091
-5414
-5895
-6423
-7065
-7913
-8823
-9423
-9465
-9075
-8659
-8538
-8652
-8646
-8228
-7463
-6761
-6579
-7090
-8024
-8846
-9130
-8879
-8466
-8248
-8175
-7801
-6767
-5280
-4028
-3569
-3791
-4018
-3735
-3129
-2852
-3291
-4153
-4818
-5014
-5029
-5311
-5938
-6586
-6912
-6865
-6630
-6334
-5922
-5279
-4411
-3495
-2733
-2202
-1800
-1317
-615
252
1091
1758
2314
2990
3940
5061
6053
6684
6985
7152
7332
7523
7688
7844
8016
8194
8410
8819
9598
10711
11847
12656
13074
13346
13717
14162
14445
14393
14064
13682
13474
13564
13949
14495
14977
15221
15223
15126
15087
15171
15334
15462
15438
15226
14940
14781
14817
14837
14496
13671
12632
11777
11239
10822
10306
9752
9402
9358
9482
9577
9581
9515
9355
9030
8560
8063
7577
6998
6285
5664
5467
5720
5998
5814
5117
4281
3631
3088
2357
1377
419
-217
-524
-712
-915
-1073
-1102
-1090
-1225
-1585
-2044
-2403
-2591
-2726
-2959
-3311
-3612
-3654
-3413
-3110
-3030
-3221
-3446
-3471
-3348
-3365
-3667
-4065
-4254
-4213
-4234
-4509
-4809
-4692
-4036
-3244
-2864
-3064
-3550
-3982
-4356
-4923
-5809
-6838
-7692
-8188
-8331
-8181
-7761
-7105
-6343
-5657
-5160
-4831
-4582
-4356
-4166
-4046
-4021
-4087
-4191
-4231
-4127
-3882
-3582
-3340
-3211
-3170
-3131
-2980
-2660
-2272
-2092
-2347
-2893
-3188
-2719
-1576
-504
-286
-1024
-2103
-2876
-3319
-3966
-5250
-7004
-8609
-9516
-9585
-8995
-8013
-6891
-5863
-5081
-4529
-4045
-3518
-3057
-2870
-3043
-3387
-3517
-3132
-2226
-1078
-63
556
697
465
120
-20
253
836
1362
1507
1300
1086
1138
1317
1204
533
-527
-1541
-2180
-2431
-2490
-2541
-2627
-2644
-2448
-2004
-1452
-1029
-901
-1002
-1149
-1236
-1290
-1377
-1483
-1530
-1470
-1305
-1073
-844
-667
-463
33
1103
2710
4379
5503
5831
5632
5351
5159
4860
4217
3326
2596
2410
2808
3510
4217
4857
5549
6370
7198
7813
8111
8196
8248
8352
8482
8577
8618
8619
8606
8618
8689
8777
8788
8630
8308
7924
7569
7283
7112
7120
7282
7408
7297
6956
6611
6448
6358
6033
5318
4395
3604
3123
2889
2782
2802
3015
3373
3674
3728
3546
3297
3101
2908
2601
2214
1957
1984
2176
2231
2024
1776
1806
2131
2404
2313
1961
1767
1999
2482
2781
2647
2196
1704
1329
1051
808
583
385
188
-25
-214
-320
-367
-490
-809
-1260
-1642
-1794
-1742
-1644
-1628
-1696
-1786
-1872
-1980
-2146
-2398
-2764
-3199
-3545
-3597
-3320
-2949
-2808
-2999
-3322
-3518
-3555
-3632
-3911
-4328
-4675
-4824
-4806
-4726
-4627
-4509
-4408
-4406
-4554
-4804
-5052
-5245
-5399
-5558
-5722
-5857
-5926
-5946
-5999
-6182
-6534
-6991
-7421
-7710
-7848
-7910
-7965
-7997
-7946
-7829
-7778
-7935
-8290
-8665
-8880
-8924
-8948
-9072
-9229
-9244
-9042
-8753
-8571
-8558
-8620
-8655
-8663
-8694
-8735
-8709
-8590
-8462
-8429
-8495
-8580
-8634
-8710
-8862
-9022
-9056
-8903
-8621
-8282
-7888
-7412
-6912
-6513
-6249
-5990
-5548
-4869
-4049
-3163
-2157
-943
416
1703
2736
3518
4153
4678
5033
5184
5223
5305
5522
5873
6326
6848
7364
7738
7871
7777
7564
7310
6998
6595
6155
5789
5574
5492
5461
5414
5323
5183
4994
4785
4607
4499
4443
4375
4244
4070
3923
3857
3853
3832
3720
3517
3303
3170
3152
3210
3282
3342
3402
3479
3554
3581
3527
3408
3299
3273
3331
3417
3476
3513
3576
3708
3892
4074
4214
4330
4497
4792
5229
5720
6123
6356
6480
6651
6964
7361
7703
7932
8120
8334
8518
8540
8332
7931
7383
6662
5718
4600
3443
2370
1408
538
-219
-830
-1321
-1759
-2184
-2582
-2935
-3268
-3635
-4062
-4547
-5071
-5577
-5971
-6202
-6328
-6490
-6765
-7069
-7260
-7323
-7395
-7595
-7889
-8129
-8232
-8246
-8238
-8179
-7990
-7664
-7306
-7034
-6877
-6778
-6690
-6630
-6646
-6761
-6937
-7132
-7317
-7480
-7621
-7743
-7865
-8022
-8236
-8482
-8704
-8878
-9046
-9288
-9636
-10035
-10406
-10741
-11134
-11693
-12412
-13133
-13687
-14056
-14418
-14973
-15694
-16256
-16255
-15524
-14246
-12748
-11186
-9437
-7309
-4827
-2279
-10
1834
3347
4697
5990
7236
8432
9601
10775
11943
13071
14145
15169
16137
17026
17817
18477
18949
19178
19203
19153
19158
19203
19113
18730
18104
17475
17053
16824
16598
16219
15688
15083
14409
13581
12528
11307
10099
9102
8409
7977
7691
7472
7352
7421
7703
8088
8410
8602
8742
8965
9309
9718
10135
10553
10987
11416
11794
12104
12363
12591
12785
12924
13004
13047
13072
13083
13074
13025
12918
12741
12481
12110
11607
11003
10415
9974
9708
9480
9105
8517
7814
7131
6497
5817
4994
4045
3089
2264
1635
1186
864
619
429
284
155
-6
-214
-429
-585
-652
-670
-688
-700
-632
-439
-158
103
272
364
430
482
493
440
366
333
355
368
321
237
200
270
416
543
582
530
425
313
222
143
33
-141
-336
-420
-303
-44
173
214
122
40
28
-11
-190
-491
-773
-907
-869
-702
-462
-218
-68
-82
-222
-379
-498
-649
-928
-1318
-1684
-1934
-2127
-2395
-2749
-3025
-3049
-2845
-2658
-2731
-3078
-3472
-3662
-3587
-3402
-3309
-3404
-3646
-3938
-4184
-4341
-4432
-4537
-4733
-5030
-5361
-5654
-5900
-6126
-6345
-6548
-6757
-7039
-7414
-7793
-8012
-7978
-7763
-7546
-7453
-7468
-7476
-7381
-7203
-7049
-7004
-7046
-7082
-7047
-6959
-6875
-6809
-6735
-6616
-6452
-6291
-6224
-6315
-6497
-6543
-6199
-5424
-4478
-3702
-3205
-2788
-2212
-1527
-1051
-1037
-1457
-2070
-2665
-3173
-3598
-3917
-4110
-4207
-4247
-4206
-4044
-3854
-3898
-4420
-5366
-6363
-7002
-7171
-7081
-6959
-6781
-6279
-5240
-3777
-2295
-1221
-749
-772
-1020
-1278
-1540
-1927
-2498
-3101
-3471
-3464
-3190
-2825
-2430
-1994
-1619
-1528
-1830
-2369
-2875
-3216
-3446
-3623
-3723
-3782
-3970
-4369
-4726
-4592
-3806
-2748
-1997
-1740
-1643
-1285
-612
39
308
108
-398
-974
-1423
-1619
-1548
-1314
-1082
-961
-965
-1025
-1049
-989
-913
-1023
-1504
-2319
-3157
-3656
-3724
-3570
-3427
-3313
-3116
-2839
-2656
-2700
-2881
-3006
-3028
-3098
-3334
-3627
-3747
-3613
-3374
-3219
-3170
-3087
-2852
-2504
-2199
-2063
-2090
-2171
-2200
-2165
-2130
-2136
-2112
-1940
-1598
-1222
-988
-925
-873
-662
-305
34
218
296
407
583
714
716
664
738
989
1241
1243
930
496
186
58
-47
-311
-743
-1129
-1219
-916
-373
134
412
482
509
595
693
725
714
735
760
675
467
333
489
901
1313
1539
1643
1796
2018
2164
2157
2061
1948
1794
1590
1480
1626
1962
2180
2069
1785
1676
1875
2130
2091
1696
1176
769
506
289
114
94
286
561
755
897
1195
1780
2495
3036
3271
3362
3489
3562
3285
2520
1457
377
-676
-1855
-3189
-4411
-5108
-5038
-4279
-3141
-2022
-1194
-615
36
1044
2263
3138
3260
2833
2491
2640
3058
3196
2779
2049
1411
1012
710
362
22
-162
-138
17
221
454
702
902
997
1030
1095
1187
1166
969
760
836
1303
1911
2280
2282
2132
2105
2242
2377
2392
2357
2395
2504
2599
2672
2809
3033
3189
3117
2916
2915
3355
4112
4814
5260
5639
6310
7362
8483
9244
9464
9278
8917
8496
8004
7404
6706
5968
5309
4879
4773
4937
5187
5342
5358
5283
5165
5005
4791
4532
4209
3780
3249
2700
2237
1902
1664
1494
1399
1367
1329
1230
1119
1114
1242
1324
1095
470
-342
-1017
-1383
-1512
-1565
-1576
-1402
-897
-105
728
1333
1613
1678
1652
1510
1149
600
158
141
500
854
843
458
-27
-408
-759
-1293
-2133
-3214
-4304
-5098
-5402
-5371
-5529
-6393
-7939
-9495
-10276
-10009
-9051
-7932
-6854
-5652
-4096
-2164
-110
1612
2507
2340
1348
151
-684
-1022
-1127
-1306
-1607
-1829
-1828
-1706
-1683
-1942
-2530
-3367
-4286
-5076
-5556
-5658
-5464
-5143
-4835
-4607
-4498
-4583
-4956
-5625
-6429
-7070
-7247
-6817
-5894
-4801
-3859
-3132
-2379
-1357
-178
690
809
185
-731
-1447
-1792
-1929
-2083
-2330
-2571
-2656
-2471
-1985
-1313
-749
-625
-1087
-1980
-2971
-3790
-4422
-5078
-5947
-6985
-7918
-8491
-8719
-8858
-9124
-9464
-9637
-9523
-9298
-9239
-9432
-9674
-9716
-9544
-9314
-9125
-8887
-8436
-7797
-7199
-6854
-6747
-6700
-6605
-6536
-6575
-6619
-6479
-6167
-5929
-5877
-5657
-4717
-2980
-1132
-68
-18
-357
-346
63
259
-244
-1209
-1901
-1770
-828
551
2040
3535
5035
6513
7881
9070
10080
10964
11809
12663
13502
14287
15034
15822
16704
17605
18358
18820
18979
18938
18840
18799
18872
19037
19176
19148
18903
18531
18170
17879
17607
17319
17076
16968
16965
16890
16548
15861
14886
13742
12533
11335
10176
9029
7843
6631
5484
4485
3611
2743
1778
721
-335
-1287
-2046
-2553
-2800
-2856
-2844
-2829
-2786
-2677
-2557
-2537
-2638
-2760
-2834
-2928
-3167
-3507
-3684
-3464
-2922
-2411
-2235
-2398
-2668
-2802
-2677
-2285
-1743
-1292
-1189
-1472
-1874
-2073
-2042
-2071
-2413
-2973
-3420
-3556
-3456
-3293
-3121
-2884
-2591
-2373
-2323
-2358
-2297
-2093
-1894
-1869
-2026
-2215
-2312
-2362
-2456
-2506
-2255
-1564
-684
-104
-94
-422
-617
-493
-345
-609
-1372
-2301
-3010
-3401
-3636
-3875
-4116
-4289
-4413
-4614
-4999
-5561
-6200
-6792
-7201
-7292
-7004
-6406
-5656
-4897
-4161
-3412
-2690
-2177
-2075
-2408
-2977
-3498
-3788
-3830
-3706
-3500
-3261
-2994
-2668
-2246
-1745
-1309
-1164
-1458
-2126
-2903
-3524
-3899
-4131
-4345
-4543
-4619
-4480
-4168
-3837
-3655
-3699
-3911
-4172
-4355
-4369
-4209
-3970
-3793
-3729
-3654
-3387
-2911
-2459
-2303
-2385
-2287
-1625
-479
640
1297
1519
1660
1909
2048
1720
867
-175
-975
-1345
-1354
-1136
-776
-353
10
224
300
309
267
104
-177
-427
-473
-296
-64
76
169
376
741
1086
1199
1096
1047
1330
1978
2777
3462
3920
4207
4426
4621
4770
4858
4917
4977
5016
5014
5016
5120
5356
5605
5707
5662
5665
5880
6228
6461
6438
6263
6113
6004
5785
5358
4814
4346
4058
3929
3894
3891
3836
3638
3316
3036
2998
3209
3458
3552
3550
3651
3949
4318
4569
4644
4580
4383
4044
3670
3458
3457
3468
3330
3273
3775
4962
6241
6737
6133
4955
3969
3379
2735
1566
-16
-1394
-2021
-1827
-1126
-286
487
1136
1643
1991
2165
2176
2051
1837
1577
1291
1053
1000
1287
1933
2733
3345
3508
3216
2674
2112
1626
1172
675
148
-291
-513
-498
-382
-350
-484
-702
-875
-995
-1207
-1656
-2310
-2961
-3423
-3675
-3830
-3978
-4120
-4234
-4386
-4707
-5218
-5832
-6472
-7142
-7879
-8634
-9318
-9955
-10688
-11595
-12585
-13591
-14822
-16622
-18941
-21134
-22456
-22799
-22784
-23019
-23401
-23291
-22316
-20847
-19620
-19006
-18784
-18526
-18050
-17461
-16922
-16495
-16156
-15869
-15584
-15250
-14832
-14394
-14013
-13695
-13394
-13060
-12663
-12170
-11537
-10761
-9930
-9195
-8654
-8275
-7936
-7548
-7117
-6698
-6310
-5912
-5465
-4980
-4493
-4026
-3563
-3079
-2553
-1949
-1219
-341
641
1635
2578
3472
4341
5173
5923
6585
7220
7902
8634
9345
9970
10511
10994
11408
11707
11880
11999
12148
12336
12519
12683
12899
13246
13722
14256
14813
15425
16087
16673
16975
16896
16550
16195
16027
16059
16180
16291
16389
16529
16756
17050
17324
17450
17322
16920
16347
15783
15375
15143
15017
14901
14733
14515
14270
14035
13808
13529
13120
12555
11918
11355
10967
10759
10687
10713
10792
10823
10692
10405
10112
9982
10036
10151
10219
10249
10305
10356
10274
9973
9511
8998
8460
7815
6974
5966
4928
3980
3123
2266
1317
301
-649
-1403
-1956
-2436
-2948
-3455
-3804
-3904
-3837
-3760
-3752
-3767
-3761
-3802
-3995
-4319
-4622
-4795
-4910
-5143
-5562
-6060
-6484
-6810
-7129
-7527
-7980
-8415
-8824
-9233
-9628
-9940
-10156
-10406
-10876
-11613
-12445
-13162
-13736
-14321
-15037
-15798
-16382
-16650
-16649
-16483
-16181
-15721
-15171
-14689
-14349
-14045
-13611
-13037
-12514
-12234
-12169
-12096
-11869
-11609
-11607
-12013
-12650
-13146
-13262
-13053
-12749
-12493
-12176
-11554
-10476
-9010
-7366
-5742
-4182
-2591
-824
1202
3435
5706
7827
9707
11386
12971
14523
16009
17314
18314
18962
19313
19485
19573
19578
19416
19011
18355
17493
16449
15209
13782
12247
10722
9275
7905
6638
5576
4862
4583
4703
5123
5778
6611
7547
8476
9321
10071
10729
11247
11573
11747
11911
12188
12564
12931
13222
13467
13693
13810
13686
13305
12826
12441
12200
11996
11709
11331
10957
10667
10463
10270
10009
9627
9117
8521
7925
7424
7050
6757
6464
6124
5773
5495
5341
5282
5226
5110
4944
4793
4706
4672
4623
4486
4245
3943
3654
3411
3190
2953
2712
2513
2391
2322
2272
2234
2219
2190
2057
1783
1447
1202
1129
1141
1088
940
807
814
945
1055
1027
882
729
646
591
457
186
-182
-540
-791
-938
-1079
-1312
-1609
-1812
-1757
-1460
-1132
-999
-1113
-1336
-1524
-1684
-1967
-2484
-3183
-3905
-4511
-4978
-5363
-5714
-6036
-6331
-6623
-6936
-7249
-7493
-7619
-7658
-7695
-7775
-7853
-7862
-7809
-7783
-7854
-7998
-8139
-8241
-8348
-8524
-8754
-8960
-9057
-9034
-8954
-8893
-8883
-8901
-8923
-8944
-8974
-8984
-8925
-8802
-8710
-8744
-8859
-8863
-8616
-8197
-7854
-7752
-7810
-7801
-7599
-7293
-7072
-7034
-7113
-7186
-7179
-7102
-6992
-6858
-6687
-6474
-6247
-6040
-5836
-5580
-5251
-4923
-4724
-4704
-4780
-4822
-4788
-4748
-4772
-4819
-4761
-4514
-4127
-3735
-3443
-3244
-3042
-2748
-2379
-2048
-1867
-1854
-1914
-1926
-1863
-1790
-1763
-1750
-1672
-1507
-1325
-1221
-1221
-1295
-1407
-1540
-1670
-1775
-1893
-2134
-2592
-3214
-3760
-3984
-3834
-3472
-3097
-2732
-2209
-1363
-249
855
1665
2116
2376
2660
3007
3277
3358
3329
3396
3677
4077
4408
4579
4675
4816
4986
5035
4850
4494
4155
3968
3911
3886
3857
3863
3908
3890
3704
3444
3389
3720
4270
4649
4626
4361
4196
4245
4268
3955
3284
2538
2026
1814
1740
1625
1417
1182
991
875
828
813
772
685
600
575
618
671
673
619
523
352
71
-260
-480
-476
-309
-122
71
430
1061
1810
2367
2571
2558
2559
2616
2578
2353
2058
1901
1934
2009
1982
1871
1800
1831
1869
1789
1564
1267
980
747
599
612
874
1346
1813
2023
1892
1568
1242
927
450
-325
-1295
-2177
-2753
-3026
-3145
-3198
-3143
-2936
-2657
-2485
-2540
-2777
-3055
-3284
-3492
-3764
-4103
-4415
-4607
-4663
-4660
-4666
-4692
-4731
-4810
-4970
-5205
-5430
-5539
-5502
-5415
-5402
-5503
-5604
-5514
-5126
-4513
-3887
-3446
-3221
-3092
-2924
-2710
-2556
-2545
-2629
-2670
-2572
-2366
-2160
-2001
-1843
-1631
-1395
-1235
-1206
-1227
-1146
-907
-626
-463
-452
-466
-377
-214
-130
-215
-382
-454
-339
-92
177
411
594
705
692
522
201
-234
-737
-1252
-1684
-1941
-1977
-1811
-1517
-1183
-901
-728
-629
-501
-281
-19
170
251
349
617
1069
1546
1872
2009
2042
2047
2016
1924
1811
1768
1847
2015
2212
2433
2714
3053
3373
3600
3750
3910
4149
4442
4712
4901
5011
5083
5146
5187
5148
4965
4623
4179
3720
3291
2883
2465
2079
1816
1738
1806
1923
2039
2153
2256
2292
2205
2018
1813
1662
1586
1615
1840
2340
3046
3710
4065
4046
3831
3646
3545
3397
3063
2611
2331
2501
3116
3874
4413
4605
4583
4488
4247
3673
2703
1536
444
-505
-1452
-2502
-3505
-4189
-4460
-4505
-4573
-4734
-4873
-4888
-4823
-4799
-4861
-4962
-5059
-5179
-5346
-5504
-5556
-5462
-5289
-5115
-4941
-4721
-4471
-4310
-4353
-4539
-4652
-4528
-4218
-3921
-3795
-3849
-4032
-4347
-4827
-5458
-6210
-7140
-8359
-9826
-11233
-12178
-12487
-12335
-12030
-11727
-11356
-10804
-10075
-9296
-8611
-8133
-7936
-8004
-8196
-8302
-8189
-7882
-7504
-7150
-6819
-6461
-6059
-5618
-5142
-4635
-4133
-3675
-3223
-2603
-1575
-18
1907
3809
5309
6258
6732
6846
6616
6028
5177
4316
3701
3433
3462
3697
4080
4578
5132
5613
5831
5636
5029
4164
3223
2286
1375
613
221
283
513
423
-217
-1153
-1940
-2400
-2739
-3177
-3625
-3752
-3347
-2494
-1454
-478
264
681
788
732
688
688
633
441
169
-33
-77
25
244
570
952
1260
1371
1291
1174
1208
1465
1876
2312
2693
3019
3318
3592
3813
3956
4035
4095
4169
4249
4299
4308
4322
4420
4651
4981
5316
5580
5774
5972
6217
6444
6555
6534
6477
6499
6623
6786
6969
7203
7492
7786
8047
8316
8592
8685
8309
7417
6384
5747
5741
6137
6584
7033
7736
8875
10265
11458
12084
12068
11546
10679
9570
8314
7047
5918
5003
4296
3759
3371
3133
3018
2909
2646
2140
1443
705
59
-461
-876
-1209
-1486
-1754
-2041
-2328
-2530
-2561
-2419
-2182
-1942
-1734
-1547
-1388
-1327
-1462
-1832
-2353
-2854
-3183
-3287
-3207
-2994
-2664
-2211
-1659
-1074
-533
-97
198
320
263
73
-163
-368
-512
-608
-668
-691
-670
-634
-632
-676
-711
-676
-574
-507
-602
-892
-1287
-1679
-2072
-2566
-3240
-4026
-4767
-5351
-5801
-6194
-6550
-6809
-6906
-6859
-6745
-6632
-6530
-6401
-6203
-5929
-5623
-5351
-5146
-4997
-4874
-4771
-4703
-4675
-4662
-4637
-4601
-4574
-4549
-4494
-4384
-4214
-3971
-3634
-3231
-2885
-2765
-2936
-3292
-3655
-3947
-4270
-4773
-5454
-6114
-6518
-6585
-6447
-6329
-6376
-6568
-6769
-6845
-6760
-6566
-6340
-6104
-5811
-5444
-5098
-4941
-5050
-5306
-5476
-5426
-5231
-5040
-4859
-4507
-3801
-2768
-1627
-622
143
682
1040
1253
1386
1536
1781
2135
2568
3073
3662
4318
4972
5528
5925
6154
6237
6199
6064
5887
5747
5689
5697
5752
5820
5896
6058
6398
6909
7416
7658
7574
7389
7354
7373
7041
6224
5499
5770
7305
9259
10361
10130
9248
8715
8737
8579
7474
5496
3458
2141
1716
1855
2188
2550
2912
3235
3465
3579
3578
3418
3090
2677
2325
2178
2293
2632
3124
3673
4141
4381
4317
4004
3572
3132
2729
2369
2068
1826
1580
1246
797
314
-79
-319
-451
-559
-688
-840
-1010
-1210
-1446
-1698
-1942
-2182
-2445
-2744
-3062
-3362
-3621
-3836
-4016
-4171
-4317
-4470
-4643
-4837
-5055
-5305
-5607
-5951
-6301
-6611
-6863
-7082
-7319
-7606
-7923
-8235
-8545
-8908
-9369
-9891
-10390
-10838
-11298
-11832
-12379
-12783
-12971
-13068
-13287
-13727
-14284
-14803
-15240
-15667
-16148
-16631
-16977
-17052
-16791
-16237
-15562
-15008
-14745
-14748
-14854
-14946
-15067
-15317
-15671
-15912
-15797
-15252
-14394
-13381
-12294
-11154
-10002
-8919
-7961
-7104
-6277
-5444
-4646
-3933
-3275
-2569
-1743
-839
-4
655
1160
1604
2043
2460
2839
3246
3774
4426
5082
5595
5916
6091
6167
6120
5903
5538
5128
4796
4599
4526
4549
4650
4829
5073
5350
5612
5831
5992
6113
6238
6415
6682
7044
7475
7936
8413
8892
9332
9677
9888
9970
9964
9905
9799
9660
9514
9382
9235
9020
8715
8392
8152
8025
7970
7955
8008
8168
8392
8569
8639
8660
8717
8789
8755
8572
8398
8453
8772
9148
9352
9372
9369
9440
9491
9360
9006
8548
8123
7770
7438
7094
6776
6566
6508
6551
6560
6432
6215
6122
6337
6793
7171
7204
6918
6589
6444
6425
6271
5799
5073
4335
3793
3476
3284
3139
3090
3250
3662
4221
4752
5171
5544
5981
6465
6850
7015
7016
7036
7193
7430
7604
7669
7743
7986
8416
8877
9176
9235
9120
8940
8692
8267
7599
6795
6076
5535
5009
4237
3135
1849
497
-1038
-2938
-5076
-6974
-8225
-8891
-9378
-9920
-10303
-10177
-9564
-8924
-8694
-8881
-9149
-9234
-9173
-9147
-9224
-9301
-9250
-9070
-8889
-8863
-9072
-9492
-9992
-10433
-10762
-11022
-11261
-11443
-11492
-11392
-11245
-11204
-11358
-11672
-12042
-12369
-12591
-12662
-12562
-12319
-11990
-11588
-11055
-10336
-9472
-8595
-7782
-6951
-5955
-4771
-3561
-2522
-1703
-991
-270
443
1034
1438
1720
2015
2431
2983
3591
4140
4561
4921
5377
6028
6789
7416
7691
7601
7326
7054
6811
6472
5921
5208
4530
4083
3907
3893
3925
3971
4041
4104
4092
3979
3808
3621
3390
3086
2762
2512
2362
2239
2084
1949
1909
1930
1876
1684
1446
1300
1287
1375
1554
1854
2224
2514
2660
2809
3171
3762
4368
4832
5293
6047
7162
8347
9236
9738
10054
10376
10668
10743
10502
10026
9490
9019
8678
8513
8553
8762
9032
9252
9391
9502
9647
9833
10029
10202
10360
10540
10770
11057
11382
11708
11971
12095
12032
11807
11515
11255
11062
10911
10764
10609
10460
10324
10188
10027
9838
9623
9363
9026
8591
8096
7615
7198
6844
6516
6206
5957
5795
5667
5471
5165
4820
4532
4296
4013
3626
3221
2927
2755
2572
2266
1870
1516
1255
981
570
30
-500
-892
-1142
-1336
-1543
-1778
-2017
-2231
-2420
-2628
-2935
-3396
-3959
-4465
-4748
-4780
-4684
-4624
-4651
-4685
-4623
-4480
-4391
-4481
-4738
-5022
-5192
-5225
-5208
-5211
-5208
-5102
-4867
-4598
-4439
-4441
-4516
-4505
-4340
-4108
-3967
-3993
-4115
-4203
-4208
-4186
-4224
-4359
-4577
-4830
-5021
-5035
-4823
-4531
-4419
-4600
-4883
-4942
-4678
-4347
-4282
-4510
-4720
-4604
-4176
-3687
-3321
-3016
-2624
-2167
-1883
-1977
-2414
-2968
-3477
-4006
-4720
-5630
-6469
-6872
-6689
-6114
-5525
-5185
-5098
-5090
-5013
-4843
-4639
-4468
-4351
-4243
-4058
-3701
-3159
-2550
-2038
-1746
-1694
-1843
-2119
-2447
-2720
-2809
-2648
-2308
-1926
-1587
-1287
-995
-763
-706
-848
-1045
-1069
-810
-341
234
910
1721
2553
3114
3163
2760
2228
1842
1601
1319
930
620
635
990
1434
1668
1627
1467
1323
1123
711
104
-437
-627
-441
-151
-9
12
127
429
729
741
411
-61
-439
-681
-918
-1241
-1600
-1897
-2121
-2341
-2601
-2874
-3107
-3265
-3318
-3225
-3005
-2773
-2679
-2738
-2781
-2627
-2307
-2046
-2023
-2164
-2234
-2110
-1904
-1808
-1856
-1925
-1909
-1843
-1825
-1858
-1838
-1704
-1502
-1315
-1175
-1067
-1027
-1125
-1359
-1606
-1745
-1781
-1814
-1862
-1782
-1419
-825
-275
-43
-215
-688
-1339
-2131
-3065
-4083
-5031
-5737
-6112
-6165
-5962
-5569
-5051
-4474
-3902
-3364
-2839
-2294
-1740
-1215
-743
-299
141
565
926
1195
1352
1369
1238
1031
904
957
1107
1168
1069
958
1026
1288
1561
1673
1660
1712
1975
2424
2921
3333
3569
3601
3481
3323
3209
3141
3063
2935
2766
2584
2416
2289
2246
2289
2336
2303
2240
2328
2713
3328
3929
4314
4487
4600
4769
4950
4990
4792
4411
4047
3897
4003
4235
4416
4490
4553
4717
4976
5220
5357
5416
5483
5576
5613
5515
5275
4967
4686
4487
4329
4139
3903
3701
3635
3722
3882
4033
4182
4395
4703
5051
5400
5807
6359
7022
7613
7937
7961
7820
7665
7546
7399
7117
6628
5963
5282
4821
4721
4894
5091
5139
5105
5198
5512
5895
6090
5985
5672
5292
4883
4390
3788
3152
2605
2202
1899
1613
1307
999
764
592
360
-71
-693
-1321
-1773
-2005
-2023
-1714
-936
137
903
801
-47
-844
-953
-567
-417
-826
-1298
-1109
-99
1257
2419
3167
3472
3346
3000
2905
3351
3926
3786
2655
1301
786
1285
1857
1565
470
-566
-914
-729
-513
-440
-278
133
587
724
391
-334
-1370
-2726
-4335
-5987
-7430
-8505
-9113
-9142
-8561
-7582
-6636
-6081
-5916
-5842
-5653
-5509
-5747
-6502
-7521
-8428
-9048
-9462
-9807
-10133
-10425
-10696
-11013
-11455
-12168
-13349
-15077
-17139
-19114
-20739
-22115
-23452
-24665
-25383
-25403
-24978
-24513
-24057
-23299
-22083
-20749
-19769
-19146
-18335
-16838
-14694
-12307
-9867
-7087
-3610
536
4900
9000
12640
15868
18721
21110
22917
24151
24979
25567
25953
26042
25725
25002
23969
22732
21329
19742
17974
16079
14130
12177
10249
8362
6542
4847
3381
2227
1354
587
-264
-1212
-2057
-2579
-2767
-2835
-2995
-3242
-3377
-3245
-2894
-2485
-2115
-1772
-1444
-1181
-1018
-871
-588
-123
397
843
1273
1900
2847
3965
4947
5614
6039
6400
6769
7071
7226
7267
7305
7418
7598
7801
7982
8105
8133
8049
7877
7679
7526
7479
7583
7850
8215
8567
8843
9043
9165
9162
8979
8624
8172
7695
7225
6809
6525
6386
6276
6054
5767
5660
5903
6342
6588
6388
5851
5285
4861
4490
3986
3295
2538
1902
1537
1487
1680
1964
2189
2291
2301
2274
2225
2115
1898
1560
1128
671
289
60
-18
-22
-43
-142
-328
-585
-854
-1055
-1149
-1185
-1261
-1416
-1598
-1732
-1820
-1925
-2092
-2292
-2485
-2656
-2759
-2677
-2298
-1686
-1119
-900
-1083
-1449
-1745
-1944
-2263
-2900
-3780
-4569
-4940
-4819
-4396
-3930
-3545
-3225
-2919
-2627
-2368
-2144
-1948
-1799
-1720
-1675
-1559
-1273
-839
-389
-60
100
114
22
-139
-314
-424
-416
-291
-107
65
170
189
144
79
20
-47
-145
-266
-363
-414
-456
-537
-650
-722
-702
-612
-498
-359
-164
60
197
157
4
-88
-25
89
42
-223
-537
-674
-592
-464
-433
-432
-274
64
345
297
-92
-564
-870
-1031
-1264
-1690
-2184
-2502
-2511
-2294
-2048
-1906
-1874
-1863
-1788
-1636
-1449
-1259
-1040
-735
-334
135
672
1342
2184
3096
3837
4194
4168
3970
3848
3899
4030
4063
3909
3639
3415
3325
3286
3116
2719
2194
1761
1593
1717
2016
2324
2504
2491
2318
2079
1824
1500
1032
458
-46
-295
-246
14
417
983
1708
2454
3004
3273
3392
3544
3781
3973
3998
3902
3838
3908
4065
4198
4250
4212
4087
3875
3611
3372
3210
3103
2972
2774
2515
2203
1838
1481
1313
1543
2181
2941
3424
3454
3210
3013
2966
2874
2480
1760
939
270
-149
-346
-357
-219
-27
88
88
90
218
437
580
526
328
142
58
43
31
20
34
33
-95
-432
-912
-1355
-1619
-1709
-1758
-1890
-2137
-2421
-2642
-2735
-2712
-2669
-2748
-3014
-3374
-3661
-3859
-4232
-5125
-6590
-8192
-9291
-9525
-9054
-8331
-7684
-7085
-6310
-5244
-4060
-3139
-2827
-3232
-4157
-5246
-6199
-6921
-7488
-7996
-8458
-8825
-9056
-9170
-9217
-9266
-9394
-9663
-10088
-10583
-10990
-11173
-11107
-10896
-10707
-10666
-10814
-11073
-11293
-11327
-11132
-10789
-10423
-10076
-9692
-9230
-8746
-8333
-7970
-7520
-6891
-6186
-5621
-5300
-5123
-4936
-4739
-4679
-4853
-5147
-5318
-5228
-4938
-4601
-4292
-3978
-3630
-3302
-3067
-2899
-2666
-2271
-1781
-1349
-992
-502
363
1588
2841
3766
4299
4667
5105
5598
5961
6113
6207
6469
6972
7607
8238
8825
9405
9975
10472
10868
11239
11713
12342
13025
13571
13845
13845
13659
13342
12864
12156
11213
10155
9170
8416
7957
7774
7796
7908
8001
8015
7963
7874
7692
7310
6700
5997
5410
5022
4728
4387
4022
3809
3854
4041
4153
4106
4016
4035
4169
4275
4233
4036
3747
3390
2950
2441
1945
1539
1209
872
470
44
-300
-494
-574
-636
-751
-905
-1035
-1104
-1143
-1223
-1404
-1682
-2012
-2349
-2671
-2979
-3276
-3557
-3818
-4060
-4294
-4520
-4739
-4972
-5249
-5592
-5989
-6399
-6754
-6997
-7115
-7160
-7201
-7250
-7278
-7259
-7207
-7186
-7260
-7409
-7544
-7577
-7534
-7578
-7884
-8473
-9165
-9748
-10166
-10498
-10751
-10737
-10222
-9189
-7872
-6520
-5180
-3774
-2331
-1063
-183
286
479
532
495
396
284
184
60
-114
-296
-410
-473
-645
-1084
-1768
-2513
-3140
-3587
-3910
-4171
-4357
-4440
-4470
-4555
-4755
-5003
-5190
-5326
-5583
-6108
-6836
-7534
-8054
-8475
-8941
-9371
-9439
-8881
-7765
-6400
-4981
-3433
-1607
413
2292
3717
4675
5383
6006
6487
6680
6569
6304
6069
5929
5869
5916
6133
6509
6915
7240
7555
8057
8815
9615
10123
10211
10061
9931
9855
9638
9115
8339
7505
6734
6015
5324
4707
4189
3671
3018
2246
1593
1301
1375
1598
1777
1932
2224
2728
3336
3862
4214
4443
4633
4818
4978
5103
5204
5310
5434
5560
5637
5606
5452
5235
5040
4905
4800
4685
4548
4360
4053
3576
2978
2397
1905
1418
802
65
-606
-1029
-1224
-1388
-1666
-2010
-2263
-2364
-2392
-2446
-2530
-2565
-2500
-2357
-2180
-1951
-1601
-1102
-499
120
694
1235
1792
2394
3017
3601
4095
4493
4836
5161
5480
5776
6015
6180
6286
6350
6378
6379
6380
6429
6531
6606
6552
6381
6268
6404
6771
7089
7039
6567
5946
5504
5293
5057
4545
3805
3156
2846
2816
2785
2567
2236
1994
1929
1952
1934
1861
1820
1886
2062
2306
2586
2885
3176
3418
3597
3732
3868
4039
4237
4418
4543
4609
4662
4760
4900
5019
5042
4953
4796
4627
4469
4313
4141
3944
3735
3538
3368
3211
3036
2846
2691
2615
2599
2560
2439
2268
2135
2073
2024
1907
1721
1548
1459
1443
1441
1402
1313
1179
1003
806
641
555
531
501
427
338
289
260
173
4
-148
-158
-33
99
179
374
938
1908
2970
3691
3868
3624
3181
2604
1803
719
-556
-1826
-2909
-3687
-4084
-4118
-3925
-3702
-3577
-3527
-3457
-3362
-3353
-3534
-3862
-4173
-4337
-4381
-4417
-4495
-4560
-4553
-4521
-4560
-4680
-4749
-4608
-4244
-3824
-3546
-3498
-3614
-3767
-3878
-3951
-4038
-4176
-4333
-4429
-4423
-4364
-4361
-4484
-4710
-4981
-5303
-5717
-6203
-6638
-6877
-6898
-6801
-6697
-6604
-6467
-6267
-6062
-5924
-5867
-5843
-5830
-5838
-5859
-5864
-5834
-5809
-5839
-5878
-5809
-5595
-5373
-5305
-5354
-5239
-4677
-3649
-2393
-1183
-190
493
784
666
232
-392
-1141
-2033
-3085
-4166
-4998
-5308
-5023
-4364
-3738
-3416
-3293
-3061
-2714
-2766
-3821
-5880
-8125
-9590
-9982
-9760
-9469
-9157
-8494
-7288
-5741
-4237
-3031
-2220
-1837
-1852
-2079
-2223
-2100
-1793
-1561
-1603
-1902
-2278
-2519
-2511
-2329
-2183
-2249
-2522
-2845
-3034
-2996
-2766
-2442
-2153
-2045
-2229
-2665
-3163
-3513
-3621
-3553
-3437
-3356
-3346
-3439
-3648
-3916
-4134
-4243
-4297
-4391
-4505
-4488
-4261
-4041
-4249
-5124
-6413
-7501
-7899
-7583
-6889
-6121
-5275
-4152
-2644
-909
678
1734
2044
1663
887
65
-591
-1053
-1344
-1445
-1338
-1098
-850
-606
-235
328
895
1140
969
685
753
1372
2291
3057
3381
3296
2997
2631
2221
1760
1294
931
771
836
1050
1303
1513
1638
1651
1544
1357
1187
1128
1205
1352
1479
1546
1584
1688
1910
2164
2244
1990
1465
919
533
249
-86
-442
-607
-552
-658
-1398
-2742
-4005
-4411
-3831
-2847
-2109
-1689
-1126
-32
1413
2603
3056
2773
2116
1447
899
451
81
-161
-234
-175
-40
118
286
464
617
702
685
573
415
293
314
503
761
933
937
817
660
502
352
293
433
721
870
580
-133
-894
-1308
-1304
-1124
-969
-756
-261
568
1530
2370
3003
3487
3811
3816
3366
2554
1714
1164
970
913
744
460
279
393
753
1097
1226
1164
1051
982
969
1032
1226
1530
1785
1819
1653
1504
1569
1803
1986
1953
1723
1439
1206
1015
825
631
454
341
156
65
77
206
417
665
943
1234
1437
1400
1048
477
-116
-607
-1017
-1404
-1738
-1904
-1845
-1669
-1564
-1606
-1692
-1677
-1544
-1422
-1419
-1492
-1494
-1349
-1134
-994
-999
-1108
-1229
-1268
-1166
-945
-729
-670
-783
-873
-704
-242
320
782
1134
1513
2002
2543
3075
3629
4242
4839
5283
5526
5658
5785
5916
6009
6073
6161
6257
6289
6252
6231
6245
6104
5587
4763
4033
3731
3751
3664
3272
2885
2959
3475
3856
3538
2556
1439
584
-140
-1145
-2563
-4054
-5149
-5672
-5789
-5723
-5583
-5393
-5200
-5077
-5045
-5096
-5237
-5506
-5892
-6305
-6646
-6870
-6974
-6934
-6749
-6518
-6379
-6354
-6295
-6093
-5900
-6037
-6623
-7357
-7801
-7829
-7721
-7708
-7552
-6684
-4861
-2581
-758
31
-65
-494
-927
-1499
-2471
-3821
-5180
-6128
-6454
-6198
-5543
-4734
-4042
-3678
-3691
-3966
-4379
-4908
-5570
-6308
-6962
-7385
-7531
-7431
-7104
-6543
-5802
-5020
-4334
-3767
-3251
-2730
-2234
-1820
-1459
-1047
-542
-20
398
714
1112
1795
2768
3797
4574
4961
5072
5127
5239
5348
5375
5376
5507
5842
6244
6491
6518
6455
6439
6431
6261
5872
5410
5051
4799
4522
4171
3851
3664
3564
3425
3231
3126
3253
3557
3813
3837
3653
3431
3295
3198
2995
2653
2319
2158
2159
2151
2046
2034
2415
3212
4023
4345
4038
3441
2971
2692
2327
1637
720
-75
-483
-516
-368
-182
44
348
696
980
1117
1123
1074
1040
1043
1061
1080
1118
1192
1296
1356
1259
942
483
66
-148
-107
172
711
1563
2668
3771
4545
4806
4601
4095
3399
2508
1400
174
-894
-1413
-1109
-49
1334
2509
3222
3591
3843
4004
3845
3174
2126
1103
481
374
620
958
1215
1394
1578
1816
2039
2112
1970
1688
1416
1248
1172
1128
1093
1078
1068
990
778
453
122
-99
-179
-172
-137
-77
50
243
440
564
579
519
419
274
51
-272
-689
-1174
-1688
-2165
-2543
-2785
-2911
-2963
-2972
-2958
-2947
-2976
-3053
-3127
-3127
-3050
-2969
-2933
-2885
-2710
-2386
-2035
-1814
-1737
-1661
-1474
-1234
-1095
-1078
-1013
-727
-251
202
472
602
725
860
888
721
406
70
-218
-464
-627
-599
-334
49
341
442
426
398
336
135
-242
-716
-1186
-1628
-2061
-2435
-2633
-2601
-2424
-2230
-2063
-1845
-1512
-1101
-707
-381
-119
64
113
2
-191
-349
-449
-576
-790
-1014
-1082
-925
-651
-435
-350
-336
-326
-349
-479
-716
-949
-1059
-1022
-872
-644
-363
-46
297
685
1121
1527
1795
1915
2005
2128
2153
1950
1752
2151
3504
5362
6699
6832
6082
5386
5238
5204
4514
3017
1415
555
672
1390
2268
3152
4027
4752
5118
5131
5050
5073
5089
4877
4458
4192
4433
5151
5958
6486
6659
6586
6310
5768
4961
4078
3391
3025
2875
2737
2494
2175
1884
1703
1626
1584
1528
1469
1463
1498
1450
1209
817
452
261
213
158
6
-191
-328
-380
-418
-522
-705
-925
-1125
-1263
-1331
-1350
-1356
-1358
-1333
-1257
-1157
-1070
-993
-893
-791
-772
-906
-1153
-1395
-1576
-1771
-2086
-2513
-2908
-3145
-3245
-3328
-3469
-3636
-3754
-3798
-3807
-3830
-3888
-3982
-4110
-4259
-4393
-4488
-4554
-4616
-4674
-4700
-4697
-4733
-4871
-5080
-5230
-5227
-5122
-5064
-5141
-5305
-5454
-5568
-5739
-6062
-6510
-6951
-7283
-7536
-7830
-8228
-8665
-9042
-9358
-9723
-10228
-10811
-11308
-11624
-11812
-11970
-12104
-12130
-12000
-11790
-11630
-11563
-11516
-11404
-11231
-11091
-11059
-11111
-11144
-11060
-10833
-10495
-10088
-9619
-9076
-8459
-7780
-7058
-6303
-5522
-4736
-3968
-3220
-2466
-1654
-746
236
1210
2094
2925
3877
5120
6616
8082
9210
9928
10440
11014
11703
12327
12687
12798
12902
13252
13877
14583
15181
15685
16264
16965
17551
17684
17270
16544
15819
15159
14367
13287
12032
10892
10061
9503
9050
8572
8041
7494
7003
6642
6411
6243
6088
5990
6013
6077
5938
5452
4793
4309
4122
3963
3501
2812
2394
2651
3438
4179
4439
4272
4014
3835
3605
3146
2497
1899
1580
1627
2020
2707
3618
4630
5587
6347
6844
7107
7202
7196
7064
6743
6237
5621
4971
4282
3519
2694
1835
918
-97
-1151
-2071
-2757
-3299
-3831
-4293
-4484
-4409
-4439
-4967
-5956
-6966
-7675
-8233
-9009
-10069
-11071
-11674
-11888
-11975
-12085
-12135
-12032
-11879
-11903
-12218
-12682
-13017
-13057
-12870
-12671
-12568
-12372
-11727
-10484
-8901
-7457
-6398
-5562
-4652
-3617
-2685
-2072
-1740
-1510
-1284
-1091
-951
-814
-672
-602
-653
-727
-680
-543
-574
-968
-1632
-2282
-2723
-2975
-3123
-3158
-3034
-2791
-2532
-2273
-1938
-1509
-1137
-1003
-1082
-1161
-1075
-896
-850
-1087
-1563
-2130
-2662
-3128
-3562
-4024
-4559
-5161
-5748
-6203
-6456
-6530
-6504
-6455
-6398
-6284
-6051
-5676
-5185
-4629
-4044
-3417
-2699
-1851
-884
132
1108
1997
2829
3656
4489
5282
5985
6581
7084
7486
7761
7908
7974
7983
7891
7636
7252
6893
6699
6635
6542
6310
6006
5778
5665
5547
5277
4836
4322
3831
3384
2977
2629
2353
2110
1838
1554
1342
1252
1212
1121
982
888
894
938
931
906
995
1231
1457
1483
1312
1180
1340
1823
2431
2963
3420
4006
4895
6015
7067
7770
8084
8176
8201
8149
7928
7539
7106
6722
6358
5972
5629
5448
5405
5299
4960
4465
4054
3834
3651
3286
2747
2282
2095
2111
2059
1771
1305
820
366
-106
-605
-1048
-1366
-1607
-1889
-2238
-2508
-2544
-2358
-2154
-2142
-2346
-2580
-2629
-2445
-2202
-2136
-2298
-2485
-2437
-2111
-1737
-1583
-1686
-1839
-1857
-1760
-1687
-1678
-1613
-1366
-943
-439
89
636
1163
1576
1802
1875
1895
1905
1872
1771
1628
1529
1545
1672
1845
1988
2053
2031
1947
1822
1666
1480
1290
1125
984
833
661
519
471
509
538
452
237
-15
-196
-265
-269
-283
-348
-449
-548
-607
-607
-567
-536
-573
-710
-918
-1113
-1209
-1188
-1108
-1049
-1033
-1033
-1018
-1011
-1060
-1171
-1296
-1378
-1413
-1428
-1426
-1354
-1160
-874
-614
-487
-508
-585
-620
-612
-623
-697
-779
-766
-631
-471
-418
-505
-649
-746
-773
-779
-817
-886
-933
-882
-682
-359
-13
245
419
639
1009
1455
1766
1819
1729
1716
1853
2006
2035
1977
1966
2043
2122
2148
2193
2305
2343
2031
1258
287
-452
-768
-839
-950
-1166
-1281
-1106
-705
-318
-86
60
257
524
795
1084
1519
2136
2722
2942
2665
2099
1562
1169
752
136
-618
-1254
-1577
-1577
-1381
-1124
-930
-881
-963
-1067
-1106
-1121
-1230
-1400
-1419
-1143
-730
-589
-952
-1564
-1881
-1596
-973
-611
-850
-1422
-1664
-1110
93
1312
1993
2118
2162
2632
3597
4673
5365
5434
4977
4280
3601
3066
2660
2290
1871
1423
1084
1000
1182
1532
1918
2207
2276
2043
1591
1153
925
862
737
394
-43
-336
-430
-497
-700
-985
-1230
-1525
-2116
-3054
-3965
-4346
-4100
-3636
-3398
-3361
-3104
-2352
-1323
-507
-177
-227
-422
-669
-996
-1347
-1572
-1588
-1488
-1391
-1273
-1024
-625
-220
62
258
506
805
968
832
471
148
64
194
372
475
508
532
588
721
986
1362
1669
1668
1312
869
672
747
779
508
109
27
419
888
908
459
62
150
550
690
286
-366
-797
-916
-1045
-1468
-2147
-2882
-3591
-4263
-4707
-4538
-3551
-2033
-562
504
1262
2012
2826
3454
3602
3238
2570
1843
1213
776
605
666
822
954
1084
1310
1572
1635
1365
965
835
1127
1550
1690
1486
1270
1295
1416
1272
728
9
-582
-944
-1113
-1045
-652
-61
404
539
533
783
1432
2176
2597
2583
2345
2112
1903
1644
1328
997
634
152
-442
-985
-1310
-1427
-1493
-1620
-1758
-1798
-1711
-1579
-1487
-1455
-1459
-1458
-1452
-1486
-1625
-1885
-2187
-2411
-2488
-2471
-2447
-2422
-2320
-2109
-1861
-1695
-1645
-1657
-1666
-1675
-1733
-1858
-1985
-2022
-1938
-1802
-1736
-1805
-1944
-2020
-1980
-1915
-1898
-1824
-1481
-838
-168
210
267
261
378
459
208
-378
-920
-1033
-699
-235
69
186
243
287
223
-45
-493
-1022
-1538
-1982
-2288
-2384
-2252
-1952
-1599
-1289
-1056
-910
-872
-942
-1039
-1027
-817
-471
-181
-118
-248
-351
-217
122
439
567
604
808
1311
1963
2480
2721
2751
2677
2480
2085
1542
1068
864
874
897
814
681
616
613
552
360
71
-260
-632
-1044
-1425
-1733
-2134
-2965
-4376
-5992
-7080
-7130
-6302
-5232
-4395
-3687
-2669
-1164
441
1485
1586
896
-102
-984
-1605
-2043
-2415
-2755
-3029
-3167
-3158
-3055
-2932
-2894
-3040
-3420
-3964
-4510
-4897
-5073
-5127
-5204
-5393
-5702
-6111
-6601
-7107
-7484
-7605
-7567
-7715
-8368
-9475
-10562
-11119
-11081
-10871
-10925
-11212
-11306
-10949
-10460
-10502
-11457
-13110
-14950
-16648
-18181
-19538
-20511
-20851
-20585
-19983
-19289
-18500
-17497
-16346
-15366
-14897
-15073
-15746
-16621
-17409
-17912
-18060
-17901
-17511
-16903
-16000
-14712
-13041
-11122
-9164
-7346
-5739
-4299
-2944
-1653
-489
533
1569
2900
4680
6739
8700
10291
11528
12588
13527
14196
14452
14356
14159
14102
14264
14598
15048
15581
16133
16589
16843
16898
16856
16796
16704
16505
16198
15904
15754
15768
15871
16023
16286
16691
17114
17366
17404
17382
17426
17432
17219
16838
16620
16773
17016
16783
15818
14487
13430
12914
12636
12156
11408
10764
10638
11104
11875
12569
12921
12864
12481
11905
11249
10561
9825
9037
8246
7533
6962
6552
6297
6173
6116
6019
5777
5363
4869
4445
4188
4058
3929
3680
3271
2735
2131
1506
885
300
-221
-666
-1042
-1366
-1636
-1840
-1985
-2109
-2270
-2495
-2742
-2917
-2967
-2932
-2908
-2975
-3129
-3283
-3360
-3380
-3432
-3569
-3733
-3795
-3691
-3502
-3376
-3426
-3670
-4062
-4499
-4820
-4861
-4579
-4126
-3724
-3437
-3091
-2471
-1615
-856
-546
-750
-1213
-1623
-1870
-2049
-2275
-2543
-2748
-2798
-2706
-2530
-2313
-2098
-1943
-1920
-2045
-2237
-2358
-2326
-2175
-2013
-1916
-1859
-1760
-1599
-1472
-1516
-1742
-1975
-1990
-1743
-1429
-1279
-1287
-1207
-825
-213
319
533
460
299
160
-17
-350
-843
-1372
-1813
-2126
-2343
-2484
-2546
-2536
-2492
-2459
-2432
-2374
-2260
-2105
-1933
-1735
-1474
-1153
-838
-608
-476
-360
-176
66
268
362
401
511
757
1076
1354
1538
1661
1767
1837
1811
1686
1522
1370
1205
958
621
276
7
-176
-342
-541
-766
-973
-1151
-1306
-1436
-1519
-1548
-1548
-1552
-1562
-1550
-1493
-1384
-1238
-1087
-965
-884
-815
-703
-531
-350
-219
-139
-42
125
333
505
621
752
977
1270
1524
1659
1726
1849
2079
2345
2540
2648
2762
2971
3264
3554
3777
3935
4073
4215
4359
4494
4599
4648
4634
4592
4581
4616
4647
4609
4489
4331
4166
3979
3746
3476
3192
2893
2554
2182
1838
1576
1389
1223
1046
881
762
686
625
561
497
434
351
233
97
-16
-75
-90
-100
-131
-173
-188
-146
-51
70
202
359
562
788
997
1174
1349
1552
1754
1889
1927
1914
1915
1922
1875
1743
1578
1448
1347
1200
958
672
436
281
152
-24
-254
-488
-682
-837
-992
-1176
-1375
-1548
-1677
-1788
-1916
-2057
-2174
-2251
-2331
-2460
-2604
-2648
-2513
-2243
-1939
-1625
-1226
-698
-138
256
371
255
24
-275
-682
-1221
-1837
-2434
-2959
-3403
-3764
-4034
-4222
-4372
-4529
-4694
-4839
-4950
-5038
-5103
-5133
-5129
-5134
-5204
-5350
-5522
-5667
-5783
-5918
-6110
-6344
-6572
-6759
-6915
-7069
-7259
-7517
-7861
-8272
-8685
-9033
-9295
-9513
-9736
-9977
-10197
-10357
-10457
-10520
-10582
-10665
-10777
-10910
-11042
-11156
-11260
-11378
-11527
-11693
-11839
-11950
-12031
-12088
-12111
-12076
-11983
-11853
-11703
-11516
-11272
-10991
-10746
-10603
-10557
-10535
-10487
-10449
-10509
-10696
-10938
-11147
-11279
-11359
-11457
-11621
-11819
-11973
-12052
-12150
-12409
-12833
-13232
-13451
-13633
-14088
-14805
-15186
-14469
-12487
-9870
-7381
-5127
-2570
691
4302
7437
9582
10907
11906
12860
13724
14408
14975
15536
16091
16561
16930
17280
17652
17966
18127
18148
18141
18221
18412
18664
18918
19139
19282
19261
18988
18441
17681
16819
15957
15159
14442
13779
13119
12411
11633
10820
10054
9423
8990
8741
8604
8497
8376
8278
8227
8103
7685
6860
5770
4662
3626
2557
1436
487
-76
-397
-874
-1582
-1981
-1433
22
1572
2463
2771
3206
4201
5410
6103
5923
5126
4187
3335
2524
1693
908
240
-344
-955
-1646
-2312
-2788
-3034
-3203
-3538
-4119
-4717
-4993
-4827
-4452
-4231
-4332
-4660
-5063
-5515
-6066
-6652
-7021
-6861
-5995
-4474
-2514
-364
1783
3804
5602
7065
8052
8425
8133
7279
6108
4920
3942
3231
2713
2322
2098
2137
2466
2970
3458
3804
4005
4136
4231
4273
4239
4138
3986
3766
3451
3056
2648
2312
2100
2018
2056
2192
2383
2569
2712
2840
3022
3284
3575
3816
3995
4188
4462
4772
4989
5017
4887
4716
4590
4494
4350
4122
3850
3601
3395
3195
2960
2680
2386
2106
1828
1502
1095
632
174
-230
-574
-887
-1195
-1505
-1807
-2097
-2386
-2709
-3107
-3582
-4071
-4473
-4758
-5026
-5418
-5978
-6592
-7102
-7453
-7720
-8001
-8319
-8628
-8871
-8998
-8962
-8738
-8360
-7908
-7422
-6861
-6146
-5250
-4224
-3126
-1980
-778
452
1660
2819
3944
5040
6064
6935
7610
8129
8587
9055
9522
9912
10182
10370
10573
10847
11163
11454
11703
11953
12218
12430
12501
12414
12246
12077
11904
11659
11292
10845
10439
10181
10097
10117
10133
10077
9968
9887
9890
9955
10011
9996
9881
9688
9491
9385
9422
9543
9606
9514
9320
9166
9148
9217
9237
9124
8905
8658
8432
8218
7987
7717
7400
7037
6650
6293
6038
5931
5973
6124
6333
6583
6881
7208
7467
7509
7213
6587
5764
4913
4121
3350
2525
1642
797
110
-383
-747
-1092
-1462
-1824
-2103
-2274
-2390
-2514
-2670
-2818
-2898
-2904
-2912
-3021
-3252
-3521
-3736
-3898
-4080
-4302
-4469
-4455
-4261
-4054
-4011
-4166
-4410
-4609
-4719
-4781
-4851
-4952
-5073
-5176
-5217
-5180
-5110
-5089
-5135
-5186
-5160
-5060
-4983
-5004
-5085
-5115
-5046
-4949
-4953
-5110
-5361
-5588
-5705
-5700
-5628
-5567
-5544
-5516
-5402
-5170
-4878
-4635
-4489
-4370
-4180
-3929
-3730
-3680
-3724
-3696
-3510
-3272
-3177
-3301
-3511
-3615
-3556
-3437
-3367
-3332
-3239
-3055
-2847
-2692
-2587
-2459
-2260
-2018
-1803
-1668
-1624
-1648
-1692
-1704
-1657
-1584
-1552
-1601
-1711
-1828
-1904
-1919
-1873
-1784
-1705
-1685
-1725
-1755
-1695
-1530
-1321
-1151
-1060
-1037
-1056
-1100
-1160
-1234
-1342
-1495
-1666
-1790
-1830
-1839
-1894
-1985
-1998
-1830
-1526
-1249
-1116
-1101
-1087
-1004
-877
-774
-726
-721
-738
-738
-694
-609
-516
-446
-378
-265
-125
-72
-199
-472
-765
-985
-1166
-1384
-1648
-1881
-2028
-2118
-2211
-2314
-2388
-2421
-2471
-2623
-2880
-3142
-3303
-3345
-3341
-3359
-3398
-3427
-3450
-3515
-3628
-3688
-3583
-3318
-3005
-2718
-2378
-1864
-1207
-650
-431
-580
-927
-1315
-1750
-2327
-3056
-3826
-4502
-5029
-5416
-5683
-5856
-6000
-6182
-6421
-6651
-6790
-6835
-6838
-6845
-6856
-6843
-6787
-6709
-6645
-6602
-6552
-6439
-6237
-5978
-5728
-5504
-5237
-4837
-4306
-3767
-3356
-3103
-2916
-2669
-2320
-1923
-1559
-1266
-1025
-782
-497
-171
150
404
561
643
708
814
1014
1337
1772
2265
2764
3275
3850
4503
5129
5570
5746
5743
5729
5791
5875
5882
5800
5701
5668
5709
5780
5844
5900
5961
6031
6098
6154
6207
6288
6423
6618
6833
7009
7123
7204
7289
7366
7393
7364
7334
7350
7372
7329
7206
7068
6966
6870
6709
6468
6208
5978
5762
5510
5212
4920
4669
4457
4265
4097
3974
3911
3896
3915
3948
3978
3984
3968
3949
3922
3866
3751
3585
3400
3219
3048
2889
2754
2632
2500
2346
2191
2075
2002
1927
1803
1635
1463
1316
1200
1117
1063
1017
934
804
681
629
635
592
415
142
-79
-137
-45
82
153
178
221
325
455
533
493
341
137
-67
-260
-452
-632
-753
-781
-757
-750
-762
-763
-732
-688
-685
-756
-891
-1058
-1221
-1334
-1350
-1256
-1063
-767
-339
174
582
683
488
252
210
321
338
138
-99
-98
199
609
972
1321
1706
1983
1911
1465
919
569
393
99
-478
-1162
-1638
-1777
-1724
-1690
-1748
-1852
-1986
-2191
-2441
-2602
-2580
-2423
-2290
-2314
-2489
-2681
-2731
-2579
-2334
-2186
-2215
-2284
-2188
-1944
-1887
-2407
-3547
-4904
-5947
-6421
-6428
-6179
-5780
-5209
-4403
-3360
-2161
-999
-155
125
-180
-814
-1391
-1661
-1641
-1541
-1538
-1545
-1233
-281
1320
3133
4541
5176
5124
4727
4221
3597
2756
1712
638
-253
-792
-885
-502
266
1206
2082
2753
3220
3520
3590
3324
2690
1823
959
304
-76
-247
-312
-344
-374
-427
-541
-747
-1015
-1237
-1285
-1133
-905
-775
-837
-1041
-1275
-1475
-1651
-1819
-1947
-1981
-1914
-1793
-1692
-1635
-1589
-1503
-1379
-1287
-1301
-1404
-1499
-1501
-1428
-1380
-1417
-1492
-1504
-1422
-1316
-1270
-1304
-1362
-1395
-1418
-1490
-1641
-1799
-1822
-1597
-1164
-725
-503
-586
-865
-1170
-1436
-1744
-2211
-2858
-3584
-4228
-4669
-4872
-4886
-4813
-4754
-4753
-4783
-4789
-4741
-4665
-4622
-4662
-4780
-4902
-4940
-4863
-4711
-4537
-4353
-4169
-3996
-3829
-3631
-3371
-3092
-2868
-2696
-2485
-2189
-1906
-1742
-1543
-902
444
2232
3802
4636
4760
4557
4268
3771
2832
1462
-35
-1305
-2157
-2555
-2514
-2110
-1523
-986
-638
-433
-234
0
175
208
155
182
406
782
1166
1477
1743
1990
2149
2120
1916
1700
1665
1855
2137
2340
2413
2436
2490
2554
2550
2463
2379
2389
2466
2501
2460
2465
2663
3027
3333
3391
3234
3066
3001
2918
2608
2015
1316
744
405
246
182
171
193
208
171
80
-9
-50
-63
-110
-237
-400
-483
-368
-52
308
522
546
543
719
1095
1470
1636
1597
1502
1422
1264
977
733
800
1226
1734
2003
1996
1942
2020
2108
1911
1277
377
-458
-1000
-1230
-1258
-1177
-996
-708
-370
-96
41
72
69
43
-81
-348
-646
-772
-639
-399
-332
-596
-1100
-1601
-1901
-1973
-1908
-1792
-1621
-1331
-916
-481
-186
-114
-206
-327
-393
-409
-404
-358
-235
-56
112
222
287
351
413
435
415
408
463
564
645
677
712
849
1131
1510
1884
2177
2381
2526
2601
2544
2285
1814
1215
613
103
-272
-485
-488
-208
384
1206
2079
2844
3417
3815
4095
4293
4409
4414
4278
4039
3835
3842
4139
4625
5103
5479
5826
6255
6736
7112
7252
7173
6976
6689
6259
5662
4990
4380
3885
3454
3018
2569
2155
1823
1590
1440
1359
1348
1414
1589
1882
2230
2537
2751
2887
2981
3026
2984
2852
2699
2594
2512
2392
2281
2379
2887
3744
4584
4984
4773
4135
3372
2615
1769
695
-593
-1860
-2788
-3162
-2997
-2511
-1989
-1607
-1374
-1223
-1154
-1282
-1734
-2517
-3491
-4436
-5142
-5466
-5379
-4977
-4447
-3968
-3633
-3445
-3336
-3329
-3560
-4098
-4794
-5378
-5761
-6170
-6866
-7770
-8546
-9131
-9973
-11507
-13487
-15077
-15778
-16031
-16677
-17858
-18750
-18492
-17177
-15719
-14858
-14524
-14170
-13506
-12714
-12081
-11652
-11292
-10905
-10507
-10138
-9816
-9540
-9378
-9356
-9435
-9554
-9675
-9776
-9837
-9855
-9841
-9830
-9864
-9963
-10108
-10259
-10395
-10542
-10724
-10911
-11044
-11115
-11191
-11341
-11555
-11751
-11849
-11836
-11721
-11488
-11137
-10706
-10255
-9791
-9299
-8835
-8539
-8478
-8503
-8321
-7758
-6913
-6003
-5088
-3998
-2551
-770
1122
2915
4554
6082
7532
8882
10088
11156
12104
12929
13590
14082
14462
14806
15127
15347
15386
15325
15388
15721
16196
16474
16319
15828
15319
14967
14622
14017
13070
11987
11066
10444
10036
9642
9078
8293
7407
6644
6164
5922
5733
5503
5348
5463
5855
6293
6509
6436
6186
5856
5422
4832
4137
3480
2978
2653
2480
2459
2582
2788
2981
3106
3194
3282
3321
3219
2952
2595
2237
1876
1455
988
583
305
55
-352
-960
-1576
-1948
-2008
-1899
-1769
-1599
-1254
-685
32
783
1467
1981
2247
2281
2206
2125
2010
1790
1510
1312
1239
1168
1023
977
1274
1821
2148
1878
1180
615
520
676
614
151
-476
-930
-1107
-1139
-1175
-1256
-1363
-1477
-1597
-1736
-1916
-2169
-2500
-2878
-3283
-3722
-4183
-4586
-4862
-5044
-5239
-5485
-5689
-5736
-5644
-5569
-5650
-5877
-6123
-6295
-6408
-6559
-6842
-7273
-7785
-8255
-8580
-8751
-8869
-9059
-9362
-9706
-9983
-10105
-10026
-9751
-9352
-8935
-8557
-8151
-7597
-6880
-6146
-5540
-5011
-4328
-3319
-2058
-778
378
1461
2551
3572
4323
4705
4832
4919
5072
5234
5324
5368
5451
5593
5703
5664
5447
5116
4732
4287
3740
3095
2436
1878
1482
1234
1085
1011
1020
1111
1249
1387
1512
1652
1831
2040
2241
2418
2589
2774
2978
3222
3561
4077
4790
5614
6444
7254
8098
9005
9879
10575
11048
11432
11903
12483
12991
13256
13333
13457
13767
14125
14256
14094
13910
14048
14555
15143
15521
15715
16006
16580
17281
17736
17673
17117
16289
15385
14444
13417
12288
11144
10124
9331
8790
8460
8252
8063
7790
7403
6960
6542
6175
5820
5459
5148
4956
4861
4779
4704
4733
4909
5060
4937
4513
4056
3835
3796
3629
3168
2624
2362
2484
2731
2782
2584
2338
2225
2208
2118
1853
1474
1111
834
612
370
75
-232
-475
-617
-702
-817
-1014
-1264
-1499
-1688
-1868
-2077
-2326
-2580
-2794
-2956
-3083
-3227
-3456
-3783
-4123
-4332
-4342
-4261
-4292
-4523
-4825
-4979
-4921
-4790
-4769
-4892
-5065
-5201
-5301
-5379
-5404
-5372
-5366
-5462
-5593
-5574
-5319
-4997
-4867
-4983
-5135
-5099
-4898
-4754
-4819
-5027
-5209
-5290
-5323
-5364
-5406
-5436
-5492
-5607
-5721
-5729
-5609
-5462
-5408
-5460
-5544
-5608
-5666
-5716
-5688
-5530
-5304
-5156
-5151
-5194
-5135
-4940
-4718
-4602
-4612
-4657
-4638
-4529
-4396
-4323
-4325
-4295
-4099
-3733
-3386
-3303
-3527
-3837
-3960
-3832
-3654
-3665
-3880
-4092
-4079
-3802
-3412
-3100
-2948
-2905
-2865
-2798
-2786
-2937
-3266
-3643
-3914
-4015
-3995
-3908
-3730
-3402
-2919
-2363
-1842
-1429
-1163
-1054
-1064
-1106
-1113
-1099
-1095
-1086
-1030
-955
-973
-1127
-1249
-1120
-741
-392
-307
-351
-125
566
1453
2068
2218
2100
1990
1898
1619
1023
227
-535
-1116
-1512
-1776
-1949
-2050
-2115
-2189
-2296
-2423
-2525
-2557
-2515
-2467
-2517
-2696
-2906
-3011
-2979
-2902
-2898
-2964
-2987
-2886
-2715
-2596
-2588
-2650
-2735
-2865
-3087
-3362
-3556
-3579
-3485
-3418
-3442
-3466
-3367
-3165
-3046
-3175
-3525
-3893
-4089
-4110
-4111
-4232
-4469
-4692
-4784
-4752
-4695
-4713
-4826
-4980
-5119
-5217
-5278
-5318
-5354
-5396
-5463
-5555
-5652
-5721
-5744
-5723
-5654
-5518
-5312
-5098
-4990
-5052
-5218
-5333
-5320
-5271
-5336
-5514
-5601
-5381
-4878
-4360
-4094
-4085
-4110
-3959
-3646
-3363
-3258
-3288
-3268
-3028
-2541
-1939
-1405
-1061
-891
-777
-621
-422
-269
-239
-301
-363
-348
-248
-96
77
238
320
250
31
-205
-312
-262
-175
-173
-249
-268
-129
129
368
470
417
268
117
45
83
189
269
277
260
322
509
766
1011
1205
1369
1545
1759
2031
2370
2738
3060
3297
3487
3699
3940
4145
4259
4317
4417
4603
4815
4955
4981
4946
4950
5034
5137
5127
4930
4613
4335
4199
4143
4007
3706
3326
3038
2922
2902
2874
2837
2863
2950
2984
2872
2683
2618
2773
3020
3153
3161
3278
3741
4505
5265
5735
5880
5864
5824
5740
5485
4988
4294
3546
2910
2494
2292
2176
2004
1763
1559
1490
1505
1428
1138
702
304
69
-31
-113
-248
-390
-447
-385
-260
-148
-65
33
180
340
433
431
390
403
489
569
545
415
296
310
449
592
618
526
438
451
509
478
316
132
45
26
-75
-314
-535
-554
-430
-485
-984
-1819
-2591
-2992
-3064
-3045
-3035
-2883
-2395
-1577
-621
269
1005
1558
1871
1896
1670
1316
948
619
316
31
-226
-458
-680
-887
-1069
-1245
-1477
-1806
-2218
-2636
-2979
-3228
-3411
-3568
-3727
-3896
-4091
-4313
-4545
-4740
-4854
-4875
-4852
-4860
-4943
-5062
-5118
-5055
-4915
-4799
-4770
-4804
-4823
-4779
-4696
-4650
-4726
-4948
-5233
-5417
-5371
-5100
-4752
-4479
-4318
-4203
-4076
-3981
-4044
-4376
-5008
-5880
-6887
-7923
-8928
-9905
-10896
-11929
-12992
-14056
-15093
-16076
-16959
-17694
-18251
-18627
-18796
-18695
-18282
-17581
-16681
-15662
-14555
-13367
-12119
-10828
-9455
-7930
-6245
-4489
-2780
-1159
408
1911
3221
4178
4748
5076
5354
5646
5887
6023
6120
6322
6729
7294
7870
8346
8715
9051
9399
9723
9965
10135
10322
10593
10902
11155
11357
11656
12186
12888
13536
13938
14104
14191
14299
14363
14240
13864
13305
12701
12176
11776
11481
11227
10959
10666
10378
10127
9908
9672
9386
9067
8749
8451
8172
7918
7723
7607
7537
7431
7228
6936
6617
6323
6042
5753
5471
5220
4980
4684
4281
3802
3322
2886
2467
2016
1494
874
138
-690
-1511
-2198
-2692
-3038
-3291
-3418
-3319
-2938
-2330
-1616
-890
-206
379
810
1083
1269
1446
1627
1770
1849
1909
2015
2182
2376
2568
2743
2866
2879
2755
2559
2398
2319
2275
2209
2145
2167
2296
2436
2446
2291
2061
1858
1662
1351
843
210
-382
-826
-1163
-1510
-1921
-2326
-2620
-2788
-2914
-3100
-3360
-3615
-3787
-3863
-3896
-3947
-4031
-4117
-4178
-4213
-4237
-4252
-4235
-4155
-4014
-3840
-3662
-3477
-3267
-3036
-2827
-2700
-2676
-2732
-2817
-2892
-2947
-2999
-3053
-3089
-3079
-3021
-2944
-2872
-2790
-2657
-2452
-2204
-1974
-1794
-1645
-1480
-1264
-985
-656
-327
-62
133
335
644
1068
1481
1743
1828
1836
1867
1928
1982
2061
2260
2640
3148
3649
4008
4140
4003
3597
2979
2218
1348
378
-630
-1503
-2030
-2146
-1994
-1783
-1610
-1426
-1178
-920
-757
-690
-591
-350
22
454
949
1607
2478
3416
4156
4520
4535
4363
4152
3970
3826
3695
3535
3333
3172
3175
3347
3497
3370
2898
2273
1772
1506
1368
1235
1113
1105
1277
1592
1953
2277
2516
2631
2590
2400
2131
1888
1750
1723
1737
1721
1666
1628
1671
1789
1893
1895
1784
1628
1504
1433
1390
1338
1266
1187
1122
1073
1030
986
957
961
988
996
950
866
796
785
819
842
825
791
791
834
871
841
733
580
431
314
246
238
295
393
501
615
755
929
1095
1203
1263
1346
1490
1630
1658
1557
1452
1493
1712
1986
2156
2172
2102
2051
2052
2052
1971
1764
1468
1169
954
854
840
857
874
878
861
811
732
650
574
480
325
105
-122
-276
-329
-332
-363
-473
-662
-897
-1147
-1383
-1582
-1739
-1880
-2041
-2232
-2411
-2540
-2635
-2753
-2919
-3089
-3202
-3249
-3289
-3359
-3431
-3466
-3498
-3633
-3940
-4360
-4754
-5028
-5194
-5307
-5390
-5419
-5367
-5252
-5129
-5059
-5089
-5241
-5508
-5850
-6218
-6569
-6890
-7174
-7425
-7655
-7890
-8154
-8456
-8783
-9114
-9444
-9796
-10212
-10698
-11178
-11550
-11773
-11902
-12037
-12229
-12457
-12684
-12883
-13016
-13014
-12840
-12544
-12224
-11902
-11486
-10890
-10196
-9627
-9348
-9318
-9365
-9384
-9434
-9626
-9964
-10318
-10541
-10587
-10500
-10323
-10054
-9683
-9241
-8791
-8380
-8009
-7663
-7325
-7005
-6729
-6508
-6328
-6171
-6025
-5893
-5775
-5655
-5501
-5288
-5026
-4746
-4458
-4150
-3809
-3457
-3147
-2907
-2721
-2552
-2371
-2162
-1910
-1592
-1197
-726
-192
397
1033
1725
2503
3387
4366
5385
6395
7404
8462
9568
10646
11621
12502
13369
14242
15028
15606
15952
16157
16309
16392
16324
16070
15708
15358
15094
14913
14791
14734
14765
14896
15105
15368
15661
15949
16185
16371
16565
16830
17150
17436
17617
17689
17647
17412
16883
16060
15007
13671
11846
9454
6849
4673
3296
2475
1674
729
52
135
949
1931
2558
2763
2814
2893
2933
2806
2533
2243
2004
1777
1522
1304
1225
1308
1459
1550
1536
1486
1505
1606
1712
1726
1621
1437
1210
934
620
333
146
60
8
-62
-137
-197
-304
-575
-1042
-1601
-2119
-2576
-3055
-3597
-4117
-4500
-4749
-4972
-5255
-5551
-5746
-5816
-5886
-6152
-6743
-7653
-8757
-9900
-10997
-12082
-13255
-14545
-15833
-16925
-17711
-18267
-18761
-19283
-19798
-20222
-20522
-20682
-20617
-20217
-19470
-18519
-17508
-16411
-15066
-13415
-11626
-9919
-8305
-6559
-4472
-2049
580
3365
6376
9608
12835
15721
18067
19894
21320
22400
23109
23439
23453
23259
22982
22731
22566
22460
22295
21942
21352
20575
19689
18737
17725
16657
15564
14494
13492
12591
11808
11140
10552
9997
9453
8933
8447
7960
7429
6878
6431
6208
6191
6222
6181
6122
6215
6549
7019
7441
7712
7866
7971
8058
8116
8133
8100
7987
7770
7484
7189
6913
6615
6239
5792
5345
4945
4563
4128
3608
3051
2528
2071
1642
1176
649
108
-376
-782
-1147
-1520
-1892
-2213
-2463
-2687
-2937
-3189
-3360
-3414
-3425
-3490
-3593
-3601
-3409
-3078
-2789
-2644
-2554
-2353
-1995
-1609
-1355
-1248
-1158
-964
-666
-343
-52
206
449
660
809
879
863
753
565
332
79
-204
-526
-851
-1096
-1230
-1316
-1453
-1660
-1871
-2035
-2192
-2410
-2683
-2923
-3074
-3187
-3367
-3637
-3896
-4040
-4079
-4107
-4185
-4253
-4219
-4083
-3939
-3857
-3798
-3668
-3457
-3277
-3232
-3297
-3347
-3298
-3198
-3151
-3189
-3239
-3212
-3097
-2964
-2895
-2917
-2971
-2975
-2894
-2769
-2704
-2768
-2945
-3142
-3262
-3262
-3192
-3147
-3182
-3254
-3239
-3053
-2790
-2661
-2791
-3070
-3268
-3278
-3213
-3261
-3480
-3754
-3937
-3974
-3875
-3660
-3361
-3054
-2780
-2432
-1818
-889
105
783
990
912
827
778
540
-63
-917
-1710
-2232
-2532
-2768
-2997
-3118
-3042
-2830
-2643
-2589
-2643
-2733
-2838
-3013
-3285
-3567
-3727
-3732
-3697
-3770
-3964
-4129
-4119
-3949
-3792
-3790
-3920
-4045
-4083
-4080
-4124
-4217
-4298
-4341
-4403
-4544
-4727
-4823
-4741
-4521
-4304
-4199
-4186
-4150
-4019
-3826
-3661
-3564
-3487
-3353
-3142
-2902
-2690
-2515
-2306
-1979
-1526
-1099
-967
-1321
-2082
-2922
-3499
-3734
-3810
-3927
-4073
-4032
-3606
-2823
-1936
-1228
-828
-657
-579
-568
-706
-1011
-1316
-1393
-1236
-1099
-1212
-1458
-1462
-1018
-384
-33
-165
-532
-716
-536
-149
186
335
330
285
300
416
585
722
772
759
743
729
685
623
606
653
690
624
481
407
505
707
842
804
649
523
496
499
417
215
-37
-237
-357
-434
-498
-525
-479
-394
-357
-396
-443
-437
-444
-611
-977
-1371
-1577
-1586
-1584
-1724
-1926
-1980
-1812
-1576
-1473
-1526
-1607
-1626
-1650
-1800
-2091
-2417
-2662
-2809
-2897
-2959
-3002
-3055
-3158
-3298
-3398
-3392
-3321
-3306
-3405
-3521
-3501
-3289
-2974
-2677
-2431
-2171
-1837
-1476
-1204
-1119
-1214
-1378
-1495
-1538
-1582
-1706
-1859
-1860
-1565
-1037
-536
-297
-345
-529
-713
-924
-1299
-1909
-2664
-3362
-3834
-4035
-4036
-3937
-3793
-3599
-3329
-3001
-2683
-2446
-2323
-2291
-2304
-2326
-2335
-2338
-2349
-2374
-2386
-2349
-2266
-2197
-2190
-2211
-2138
-1864
-1402
-853
-306
231
790
1364
1902
2366
2777
3173
3568
3945
4307
4701
5175
5715
6247
6690
7029
7310
7569
7781
7876
7808
7616
7394
7217
7077
6945
6821
6731
6667
6575
6402
6160
5911
5699
5513
5306
5053
4757
4448
4163
3932
3748
3564
3356
3161
3061
3108
3267
3456
3624
3774
3927
4090
4254
4387
4435
4325
4035
3612
3142
2664
2179
1698
1273
954
737
582
483
464
528
612
627
501
203
-252
-776
-1243
-1576
-1786
-1957
-2136
-2252
-2184
-1911
-1578
-1397
-1475
-1744
-2049
-2344
-2751
-3403
-4213
-4855
-5043
-4814
-4472
-4227
-3988
-3537
-2866
-2248
-1951
-1968
-2109
-2295
-2645
-3264
-4032
-4690
-5101
-5353
-5596
-5826
-5882
-5667
-5265
-4871
-4622
-4517
-4486
-4524
-4691
-5018
-5432
-5833
-6201
-6619
-7162
-7796
-8382
-8790
-8985
-9017
-8956
-8838
-8663
-8400
-8002
-7453
-6812
-6223
-5798
-5531
-5325
-5127
-5030
-5179
-5581
-6025
-6240
-6143
-5915
-5790
-5798
-5740
-5411
-4818
-4154
-3592
-3133
-2653
-2038
-1282
-439
400
1155
1771
2251
2665
3083
3507
3870
4121
4280
4425
4618
4861
5135
5434
5750
6046
6225
6192
5923
5479
4970
4494
4117
3878
3800
3883
4100
4420
4824
5270
5674
5925
5973
5882
5772
5700
5636
5537
5433
5390
5419
5465
5481
5474
5462
5428
5356
5307
5387
5625
5930
6189
6396
6631
6906
7095
7054
6773
6396
6083
5893
5793
5733
5708
5739
5826
5945
6037
6038
5922
5724
5524
5378
5265
5127
4954
4801
4730
4725
4683
4501
4173
3801
3492
3235
2917
2459
1935
1523
1331
1277
1166
889
504
156
-66
-185
-274
-388
-529
-660
-723
-659
-479
-290
-215
-285
-401
-442
-386
-313
-282
-254
-152
28
188
271
350
544
871
1203
1390
1387
1253
1054
789
419
-78
-699
-1417
-2164
-2807
-3215
-3346
-3250
-2991
-2593
-2066
-1453
-826
-231
327
812
1149
1303
1344
1411
1566
1741
1821
1773
1659
1569
1547
1583
1656
1750
1849
1946
2041
2123
2154
2105
1995
1880
1786
1646
1370
963
563
332
299
303
154
-178
-554
-837
-1048
-1325
-1731
-2153
-2432
-2536
-2572
-2608
-2562
-2281
-1749
-1156
-742
-590
-599
-616
-600
-641
-841
-1223
-1669
-2028
-2212
-2234
-2161
-2034
-1849
-1618
-1408
-1309
-1380
-1628
-2023
-2503
-2950
-3205
-3192
-3006
-2843
-2806
-2818
-2748
-2597
-2548
-2802
-3377
-4089
-4693
-5021
-5051
-4865
-4577
-4266
-3945
-3570
-3116
-2628
-2226
-2011
-1984
-2065
-2148
-2162
-2087
-1935
-1742
-1551
-1407
-1338
-1321
-1287
-1180
-995
-769
-537
-311
-104
30
23
-118
-241
-127
338
1058
1783
2276
2461
2422
2303
2193
2085
1893
1539
1049
593
401
581
1025
1504
1859
2100
2318
2542
2726
2850
2960
3081
3140
3034
2773
2497
2330
2246
2115
1873
1598
1431
1446
1632
1954
2380
2837
3218
3432
3465
3374
3225
3068
2950
2907
2937
2986
2999
2983
2996
3060
3137
3169
3134
3055
2951
2806
2602
2378
2205
2124
2093
2039
1943
1858
1831
1833
1785
1658
1506
1400
1332
1208
976
705
534
522
578
556
407
215
70
-39
-195
-405
-554
-516
-299
-52
84
100
67
12
-109
-352
-713
-1139
-1577
-1970
-2249
-2364
-2346
-2299
-2324
-2413
-2484
-2519
-2587
-2754
-2985
-3203
-3408
-3682
-4048
-4379
-4501
-4398
-4260
-4276
-4424
-4508
-4399
-4210
-4198
-4527
-5149
-5910
-6723
-7616
-8646
-9794
-10958
-12042
-13020
-13935
-14827
-15692
-16531
-17393
-18334
-19313
-20220
-21012
-21758
-22538
-23293
-23889
-24343
-24878
-25625
-26330
-26488
-25863
-24764
-23709
-22861
-21900
-20469
-18647
-16893
-15584
-14730
-14098
-13506
-12923
-12365
-11810
-11255
-10753
-10344
-9981
-9557
-9033
-8502
-8091
-7846
-7699
-7528
-7254
-6883
-6482
-6116
-5801
-5495
-5136
-4684
-4149
-3575
-3002
-2429
-1837
-1239
-702
-313
-101
-4
65
148
244
374
601
959
1389
1783
2109
2434
2813
3179
3431
3607
3924
4560
5452
6351
7101
7812
8694
9780
10855
11676
12202
12580
12966
13393
13821
14251
14720
15227
15719
16159
16594
17119
17745
18370
18853
19150
19344
19554
19818
20067
20215
20249
20225
20210
20214
20203
20149
20052
19940
19840
19754
19643
19447
19152
18827
18569
18397
18228
17968
17638
17336
17089
16761
16183
15353
14470
13723
13099
12456
11755
11169
10927
11005
11106
10947
10510
9994
9492
8836
7810
6466
5130
4068
3245
2505
1941
1945
2795
4285
5855
7113
8137
9220
10408
11368
11730
11441
10791
10137
9646
9286
8969
8644
8299
7963
7684
7488
7327
7055
6557
5893
5279
4919
4827
4844
4832
4834
4981
5291
5582
5600
5240
4612
3912
3260
2661
2084
1518
984
503
82
-277
-585
-878
-1192
-1556
-1948
-2305
-2576
-2762
-2900
-3064
-3307
-3632
-4015
-4427
-4890
-5469
-6221
-7126
-8066
-8892
-9530
-10021
-10437
-10798
-11067
-11213
-11254
-11244
-11211
-11135
-10999
-10807
-10574
-10289
-9920
-9462
-8961
-8491
-8106
-7815
-7584
-7373
-7185
-7064
-7071
-7249
-7576
-7950
-8230
-8302
-8141
-7794
-7325
-6737
-5963
-4937
-3691
-2366
-1131
-56
920
1895
2873
3748
4425
4927
5361
5796
6192
6465
6595
6632
6607
6485
6199
5755
5231
4716
4228
3727
3158
2484
1709
897
141
-509
-1093
-1699
-2346
-2907
-3197
-3147
-2852
-2465
-2040
-1511
-822
-40
694
1278
1708
2032
2261
2383
2431
2482
2607
2782
2927
2994
3001
3002
3024
3054
3072
3066
3020
2930
2830
2793
2865
3012
3153
3238
3292
3353
3407
3418
3415
3481
3659
3881
4038
4124
4263
4583
5065
5558
5928
6183
6433
6747
7084
7342
7460
7448
7355
7249
7205
7278
7468
7687
7817
7816
7763
7784
7904
8005
7939
7683
7377
7193
7167
7171
7059
6854
6723
6794
7007
7177
7168
6994
6742
6469
6190
5938
5739
5554
5295
4985
4817
4975
5373
5660
5522
4967
4253
3558
2818
1887
776
-336
-1302
-2118
-2831
-3416
-3791
-3955
-4020
-4110
-4243
-4350
-4392
-4386
-4353
-4284
-4166
-4025
-3924
-3905
-3949
-4012
-4083
-4182
-4308
-4424
-4486
-4494
-4491
-4510
-4541
-4547
-4515
-4481
-4497
-4572
-4661
-4705
-4691
-4659
-4663
-4722
-4819
-4928
-5028
-5113
-5178
-5223
-5267
-5333
-5424
-5507
-5542
-5527
-5495
-5487
-5511
-5539
-5539
-5498
-5436
-5394
-5396
-5437
-5482
-5491
-5445
-5357
-5253
-5147
-5041
-4927
-4808
-4691
-4572
-4446
-4322
-4231
-4201
-4217
-4233
-4206
-4124
-3999
-3845
-3666
-3483
-3329
-3216
-3109
-2966
-2805
-2702
-2710
-2791
-2859
-2864
-2823
-2779
-2739
-2678
-2591
-2506
-2441
-2388
-2330
-2278
-2254
-2261
-2268
-2247
-2206
-2177
-2167
-2136
-2031
-1840
-1609
-1402
-1254
-1159
-1109
-1131
-1246
-1417
-1562
-1645
-1723
-1889
-2147
-2383
-2484
-2450
-2376
-2335
-2300
-2210
-2069
-1945
-1872
-1813
-1699
-1527
-1370
-1299
-1305
-1316
-1264
-1164
-1085
-1092
-1184
-1295
-1369
-1422
-1521
-1712
-1968
-2206
-2376
-2510
-2676
-2899
-3117
-3248
-3278
-3269
-3290
-3352
-3401
-3396
-3362
-3326
-3270
-3150
-2946
-2686
-2411
-2153
-1953
-1841
-1779
-1646
-1356
-988
-716
-570
-295
419
1566
2743
3504
3763
3786
3820
3816
3544
2907
2059
1249
609
144
-164
-313
-335
-320
-364
-488
-638
-769
-888
-1009
-1124
-1208
-1240
-1224
-1176
-1105
-1023
-968
-1003
-1164
-1412
-1642
-1763
-1764
-1710
-1668
-1671
-1723
-1828
-1984
-2148
-2253
-2270
-2254
-2283
-2373
-2474
-2521
-2516
-2513
-2567
-2686
-2838
-2964
-3011
-2959
-2864
-2845
-2974
-3186
-3324
-3294
-3187
-3198
-3414
-3693
-3784
-3564
-3162
-2833
-2707
-2686
-2577
-2315
-2018
-1845
-1827
-1849
-1808
-1725
-1678
-1686
-1667
-1553
-1405
-1351
-1430
-1534
-1526
-1386
-1228
-1148
-1117
-1048
-904
-747
-638
-568
-480
-359
-240
-137
-19
131
253
268
179
86
68
85
35
-120
-303
-409
-432
-454
-540
-662
-732
-698
-594
-484
-397
-305
-165
29
227
371
441
468
499
547
599
644
684
723
756
789
843
922
996
1022
1010
1028
1130
1279
1378
1388
1376
1440
1594
1748
1814
1800
1803
1902
2087
2281
2423
2523
2635
2809
3037
3266
3445
3582
3719
3890
4085
4269
4429
4595
4773
4916
4964
4914
4858
4893
4989
5003
4858
4661
4589
4664
4687
4487
4167
4029
4232
4582
4765
4738
4801
5222
5876
6336
6312
5921
5480
5127
4724
4097
3275
2460
1820
1374
1064
856
724
630
533
439
396
395
345
179
-52
-232
-312
-368
-516
-776
-1067
-1322
-1551
-1792
-2020
-2165
-2196
-2152
-2075
-1956
-1754
-1461
-1116
-767
-433
-111
197
491
763
1001
1184
1304
1369
1401
1411
1380
1272
1130
1073
1145
1222
1118
827
555
440
314
-119
-860
-1530
-1853
-2112
-2916
-4450
-6137
-7175
-7318
-6992
-6665
-6314
-5608
-4458
-3169
-2090
-1328
-864
-783
-1225
-2105
-3066
-3750
-4085
-4256
-4440
-4612
-4654
-4530
-4347
-4278
-4432
-4799
-5289
-5828
-6387
-6927
-7369
-7649
-7799
-7969
-8314
-8916
-9749
-10710
-11663
-12492
-13170
-13762
-14333
-14817
-15028
-14825
-14231
-13387
-12398
-11258
-9929
-8468
-7019
-5708
-4578
-3601
-2731
-1912
-1075
-158
860
1954
3093
4243
5350
6327
7083
7569
7790
7782
7639
7483
7406
7427
7516
7651
7843
8082
8296
8398
8329
8006
7252
5857
3835
1610
-148
-970
-884
-292
439
1269
2393
3898
5545
6859
7418
7122
6224
5156
4279
3737
3475
3358
3297
3280
3346
3533
3818
4079
4140
3902
3435
2926
2531
2295
2207
2273
2501
2804
3017
3055
3037
3191
3630
4225
4721
4958
4965
4863
4707
4436
3963
3299
2593
2043
1755
1669
1620
1487
1283
1107
1014
964
871
697
492
332
252
245
286
359
468
623
825
1044
1242
1406
1571
1783
2030
2246
2381
2449
2492
2506
2448
2325
2244
2302
2456
2535
2452
2338
2414
2717
3033
3139
3059
3019
3151
3334
3364
3234
3145
3249
3472
3618
3618
3592
3668
3813
3887
3804
3620
3433
3274
3114
2929
2734
2545
2348
2126
1877
1624
1358
1042
657
223
-215
-629
-1013
-1350
-1613
-1788
-1897
-1972
-2014
-1997
-1908
-1783
-1677
-1603
-1522
-1392
-1227
-1094
-1046
-1058
-1066
-1033
-993
-1003
-1071
-1156
-1228
-1293
-1374
-1476
-1593
-1742
-1960
-2232
-2480
-2641
-2740
-2871
-3084
-3318
-3466
-3485
-3433
-3395
-3404
-3437
-3449
-3412
-3326
-3215
-3115
-3052
-3024
-3010
-2994
-2970
-2936
-2876
-2776
-2639
-2491
-2351
-2216
-2064
-1891
-1725
-1604
-1550
-1536
-1505
-1416
-1261
-1052
-780
-413
49
537
937
1172
1252
1237
1160
996
717
363
42
-152
-205
-178
-123
-38
103
269
379
398
370
368
421
494
538
535
490
410
336
351
497
699
832
880
1006
1388
2003
2620
3009
3136
3098
2950
2656
2216
1723
1282
878
435
-21
-336
-394
-278
-202
-307
-554
-815
-1010
-1097
-1037
-830
-558
-329
-151
78
406
696
723
429
5
-303
-410
-390
-291
-41
438
1093
1756
2305
2738
3101
3380
3518
3490
3359
3233
3194
3260
3408
3609
3846
4102
4353
4552
4653
4647
4581
4519
4474
4392
4222
3999
3833
3800
3862
3890
3800
3635
3518
3520
3593
3622
3537
3372
3211
3108
3054
3008
2950
2895
2862
2839
2782
2666
2520
2410
2362
2336
2261
2116
1961
1863
1825
1793
1719
1612
1522
1477
1465
1455
1423
1355
1256
1141
1030
926
817
688
539
379
213
38
-153
-358
-570
-783
-999
-1212
-1420
-1629
-1854
-2097
-2349
-2612
-2915
-3292
-3744
-4232
-4722
-5221
-5772
-6392
-7053
-7723
-8403
-9152
-10013
-10967
-11953
-12943
-13984
-15143
-16416
-17707
-18929
-20104
-21341
-22698
-24070
-25245
-26067
-26533
-26736
-26724
-26473
-25945
-25182
-24301
-23439
-22703
-22130
-21687
-21296
-20882
-20418
-19906
-19317
-18573
-17616
-16488
-15306
-14173
-13093
-12015
-10942
-9941
-9054
-8242
-7401
-6455
-5403
-4302
-3221
-2208
-1255
-296
761
1953
3222
4471
5698
7037
8620
10393
12106
13516
14592
15487
16337
17105
17653
17938
18092
18306
18664
19117
19578
20023
20482
20976
21455
21847
22105
22236
22285
22305
22306
22261
22171
22065
21980
21910
21824
21718
21621
21542
21434
21250
21023
20831
20665
20360
19735
18781
17682
16614
15567
14405
13080
11739
10609
9791
9217
8759
8366
8043
7778
7515
7204
6851
6492
6133
5738
5281
4804
4379
4050
3787
3518
3205
2873
2568
2296
2026
1747
1488
1278
1094
875
608
345
149
23
-87
-212
-302
-282
-139
43
153
135
2
-213
-505
-896
-1399
-1983
-2577
-3115
-3574
-3974
-4340
-4670
-4946
-5175
-5381
-5581
-5796
-6039
-6311
-6582
-6822
-7066
-7417
-7932
-8507
-8996
-9440
-10087
-11078
-12128
-12660
-12333
-11358
-10219
-9113
-7786
-5953
-3773
-1796
-473
181
440
501
347
-72
-655
-1209
-1634
-1968
-2260
-2444
-2443
-2304
-2180
-2176
-2226
-2195
-2036
-1802
-1542
-1252
-1000
-1026
-1621
-2874
-4580
-6447
-8343
-10315
-12396
-14449
-16220
-17507
-18252
-18536
-18543
-18483
-18484
-18496
-18344
-17905
-17233
-16486
-15744
-14909
-13814
-12388
-10725
-8986
-7313
-5805
-4525
-3473
-2554
-1650
-702
274
1253
2267
3368
4535
5691
6831
8086
9589
11303
13025
14624
16202
17951
19855
21622
22941
23786
24398
24971
25442
25607
25392
24956
24507
24096
23617
22956
22110
21115
19953
18555
16919
15148
13370
11646
9942
8228
6564
5070
3824
2816
1988
1316
832
576
553
724
1030
1399
1755
2048
2283
2503
2729
2928
3040
3032
2932
2798
2659
2510
2338
2131
1899
1644
1382
1132
920
760
642
548
448
317
136
-98
-364
-621
-822
-955
-1055
-1166
-1282
-1335
-1246
-1004
-692
-401
-154
101
405
732
1014
1215
1376
1568
1827
2137
2461
2787
3134
3510
3888
4209
4424
4532
4575
4601
4622
4610
4534
4416
4333
4337
4388
4371
4221
4009
3857
3788
3676
3379
2913
2435
2064
1759
1393
919
431
34
-274
-575
-920
-1270
-1559
-1777
-1977
-2196
-2405
-2565
-2690
-2864
-3157
-3525
-3817
-3909
-3830
-3741
-3774
-3893
-3937
-3796
-3520
-3247
-3061
-2915
-2718
-2454
-2198
-2027
-1937
-1859
-1742
-1614
-1547
-1570
-1623
-1616
-1526
-1433
-1444
-1581
-1749
-1838
-1837
-1831
-1893
-2007
-2107
-2159
-2203
-2282
-2386
-2477
-2539
-2593
-2653
-2701
-2725
-2752
-2827
-2941
-3032
-3062
-3052
-3042
-3046
-3064
-3112
-3210
-3302
-3259
-3009
-2644
-2337
-2140
-1899
-1413
-695
-10
361
373
211
67
-50
-287
-759
-1403
-2030
-2483
-2734
-2858
-2938
-3007
-3066
-3120
-3173
-3210
-3218
-3217
-3248
-3334
-3425
-3434
-3332
-3192
-3118
-3136
-3176
-3166
-3117
-3102
-3151
-3212
-3209
-3128
-3033
-2981
-2963
-2921
-2833
-2752
-2738
-2789
-2842
-2833
-2769
-2716
-2724
-2780
-2818
-2796
-2729
-2664
-2631
-2625
-2637
-2672
-2730
-2793
-2829
-2836
-2852
-2900
-2958
-2984
-2973
-2970
-3012
-3065
-3056
-2958
-2817
-2698
-2599
-2464
-2267
-2058
-1909
-1828
-1742
-1582
-1372
-1201
-1124
-1107
-1061
-938
-774
-653
-617
-653
-715
-770
-803
-801
-758
-701
-678
-711
-759
-749
-656
-525
-426
-369
-299
-160
25
168
204
143
48
-49
-179
-405
-737
-1096
-1367
-1512
-1594
-1708
-1872
-1998
-1994
-1870
-1727
-1641
-1572
-1403
-1082
-682
-314
-12
282
614
948
1209
1379
1523
1701
1892
2026
2083
2128
2250
2459
2675
2807
2823
2766
2719
2749
2874
3038
3143
3133
3033
2923
2856
2817
2757
2645
2474
2243
1958
1657
1392
1167
926
624
304
57
-107
-267
-495
-749
-910
-940
-938
-1011
-1135
-1206
-1211
-1277
-1507
-1789
-1873
-1659
-1326
-1138
-1103
-932
-372
457
1113
1243
914
493
245
81
-283
-968
-1792
-2444
-2774
-2876
-2928
-3011
-3082
-3096
-3088
-3116
-3169
-3181
-3119
-3027
-2974
-2955
-2891
-2720
-2473
-2244
-2112
-2084
-2121
-2160
-2138
-2015
-1823
-1655
-1591
-1602
-1559
-1371
-1092
-889
-885
-1034
-1174
-1188
-1107
-1052
-1105
-1228
-1307
-1258
-1089
-872
-679
-530
-407
-290
-190
-127
-110
-121
-130
-124
-103
-61
17
143
308
489
658
806
918
966
932
832
715
614
503
330
90
-145
-273
-263
-180
-118
-111
-113
-67
16
84
111
134
215
367
544
708
882
1110
1389
1655
1851
1994
2142
2311
2460
2544
2589
2660
2776
2894
2960
2981
3023
3120
3240
3326
3357
3369
3400
3453
3499
3517
3503
3457
3378
3273
3156
3030
2882
2701
2507
2350
2248
2166
2049
1892
1749
1674
1653
1613
1490
1296
1106
995
979
1012
1027
997
960
970
1046
1146
1200
1184
1123
1045
953
843
743
700
722
749
720
637
559
526
509
449
330
195
73
-48
-208
-409
-615
-783
-899
-1017
-1196
-1432
-1653
-1813
-1966
-2238
-2656
-3054
-3233
-3195
-3154
-3217
-3113
-2388
-928
752
1874
2071
1652
1183
855
333
-776
-2411
-4062
-5206
-5715
-5813
-5771
-5700
-5584
-5465
-5496
-5802
-6350
-6988
-7605
-8244
-8999
-9838
-10594
-11171
-11678
-12318
-13084
-13651
-13652
-13026
-12067
-11053
-9936
-8445
-6523
-4569
-3177
-2668
-2888
-3433
-3992
-4477
-4896
-5216
-5390
-5396
-5252
-4954
-4481
-3889
-3333
-2986
-2911
-3011
-3097
-3007
-2703
-2273
-1845
-1502
-1253
-1067
-930
-872
-928
-1076
-1235
-1306
-1225
-983
-606
-124
418
948
1395
1709
1883
1932
1858
1662
1393
1161
1034
961
800
477
86
-222
-421
-636
-966
-1344
-1638
-1871
-2221
-2796
-3482
-4110
-4745
-5665
-6963
-8265
-8984
-8868
-8227
-7560
-7030
-6397
-5434
-4281
-3340
-2901
-2940
-3262
-3709
-4205
-4639
-4838
-4672
-4182
-3548
-2916
-2260
-1453
-469
530
1336
1978
2789
4121
5991
8041
9881
11421
12829
14206
15420
16271
16738
16999
17234
17489
17747
18037
18403
18811
19146
19318
19329
19229
19032
18696
18203
17608
17013
16509
16136
15883
15710
15577
15453
15307
15097
14785
14373
13913
13476
13112
12831
12613
12425
12226
11974
11655
11288
10898
10483
9959
9212
8216
7093
6013
5025
4020
2899
1778
920
467
264
40
-256
-372
-77
501
924
856
367
-213
-673
-1112
-1749
-2632
-3556
-4241
-4540
-4488
-4218
-3863
-3510
-3198
-2928
-2698
-2526
-2468
-2566
-2788
-3048
-3249
-3339
-3334
-3296
-3280
-3312
-3395
-3522
-3679
-3850
-4029
-4213
-4394
-4558
-4691
-4795
-4902
-5039
-5210
-5390
-5533
-5589
-5511
-5293
-5003
-4759
-4644
-4635
-4661
-4716
-4903
-5330
-5963
-6627
-7158
-7537
-7842
-8109
-8271
-8251
-8075
-7865
-7727
-7674
-7647
-7607
-7567
-7544
-7522
-7463
-7336
-7131
-6858
-6540
-6229
-5978
-5774
-5545
-5238
-4908
-4638
-4378
-3896
-2994
-1785
-690
-94
7
-34
91
331
374
34
-529
-940
-922
-473
199
853
1331
1593
1682
1677
1627
1506
1255
867
434
102
-28
45
249
506
759
953
1051
1058
1018
989
1017
1112
1252
1406
1558
1739
2013
2382
2719
2857
2765
2608
2586
2721
2868
2924
2985
3224
3673
4185
4611
4944
5258
5545
5699
5650
5462
5267
5137
5055
4979
4916
4905
4974
5109
5272
5408
5463
5416
5294
5146
5012
4916
4861
4837
4815
4766
4683
4600
4555
4546
4533
4469
4323
4065
3677
3194
2703
2292
1987
1755
1564
1424
1367
1395
1478
1600
1765
1964
2164
2364
2636
3063
3624
4163
4499
4569
4451
4259
4023
3699
3248
2701
2142
1650
1269
1005
836
719
605
451
243
-25
-344
-663
-925
-1112
-1256
-1400
-1552
-1690
-1807
-1930
-2071
-2197
-2292
-2445
-2810
-3446
-4213
-4867
-5267
-5445
-5484
-5393
-5124
-4684
-4161
-3642
-3153
-2730
-2475
-2501
-2798
-3197
-3507
-3659
-3715
-3769
-3855
-3950
-4037
-4119
-4211
-4331
-4489
-4693
-4936
-5188
-5386
-5460
-5391
-5243
-5127
-5116
-5198
-5305
-5402
-5504
-5624
-5721
-5752
-5728
-5699
-5693
-5700
-5718
-5781
-5910
-6062
-6165
-6205
-6216
-6206
-6137
-6026
-6015
-6254
-6711
-7138
-7296
-7182
-7015
-6968
-6978
-6827
-6394
-5804
-5313
-5087
-5107
-5260
-5477
-5756
-6079
-6362
-6521
-6564
-6577
-6621
-6654
-6587
-6419
-6264
-6260
-6435
-6696
-6926
-7050
-7048
-6928
-6732
-6537
-6421
-6401
-6427
-6449
-6471
-6522
-6601
-6659
-6649
-6577
-6489
-6425
-6388
-6348
-6274
-6151
-5978
-5784
-5607
-5460
-5320
-5151
-4951
-4766
-4649
-4610
-4620
-4673
-4798
-5021
-5316
-5630
-5916
-6157
-6363
-6557
-6756
-6940
-7055
-7061
-7007
-6999
-7096
-7227
-7282
-7263
-7316
-7578
-8017
-8481
-8860
-9149
-9340
-9350
-9120
-8737
-8378
-8087
-7703
-7078
-6320
-5736
-5483
-5362
-5029
-4375
-3631
-3112
-2883
-2771
-2618
-2453
-2391
-2460
-2552
-2545
-2380
-2006
-1342
-353
864
2112
3229
4138
4776
5048
4927
4560
4167
3868
3689
3806
4637
6580
9557
12956
16100
18730
20989
22960
24395
24944
24556
23569
22409
21327
20438
19885
19830
20264
20926
21463
21681
21610
21332
20844
20075
19007
17766
16546
15500
14657
13958
13314
12642
11875
10981
9999
9022
8145
7393
6740
6170
5700
5342
5049
4732
4323
3814
3242
2646
2056
1489
929
326
-356
-1066
-1693
-2157
-2478
-2734
-2961
-3131
-3199
-3142
-2927
-2489
-1797
-928
-35
784
1570
2406
3273
4026
4528
4767
4835
4817
4741
4605
4420
4201
3952
3680
3405
3146
2877
2561
2201
1857
1562
1280
945
542
141
-171
-375
-541
-761
-1069
-1402
-1648
-1741
-1710
-1649
-1620
-1601
-1526
-1374
-1181
-986
-793
-611
-498
-510
-615
-685
-628
-495
-428
-508
-687
-877
-1085
-1402
-1887
-2506
-3172
-3837
-4522
-5231
-5908
-6471
-6883
-7189
-7481
-7822
-8201
-8561
-8847
-9046
-9179
-9275
-9330
-9311
-9165
-8860
-8423
-7933
-7469
-7027
-6504
-5768
-4778
-3609
-2359
-1028
455
2126
3908
5673
7333
8857
10231
11439
12509
13519
14507
15406
16118
16667
17218
17896
18610
19095
19174
18924
18568
18241
17870
17289
16456
15515
14661
13992
13455
12954
12453
12007
11668
11421
11195
10924
10598
10247
9893
9541
9190
8851
8525
8188
7819
7433
7054
6695
6326
5921
5485
5050
4611
4164
3753
3417
3134
2833
2482
2129
1835
1562
1211
782
361
-45
-588
-1405
-2399
-3293
-3929
-4445
-5051
-5722
-6188
-6238
-5973
-5682
-5573
-5633
-5735
-5784
-5770
-5734
-5743
-5842
-6000
-6115
-6106
-5960
-5755
-5584
-5487
-5483
-5589
-5779
-5973
-6092
-6116
-6072
-5982
-5859
-5709
-5556
-5434
-5350
-5291
-5247
-5206
-5159
-5105
-5046
-4984
-4898
-4773
-4627
-4507
-4439
-4410
-4387
-4362
-4363
-4394
-4412
-4378
-4321
-4334
-4471
-4653
-4749
-4711
-4632
-4642
-4744
-4808
-4730
-4553
-4433
-4456
-4553
-4601
-4568
-4532
-4581
-4711
-4849
-4938
-4971
-4962
-4917
-4854
-4813
-4817
-4841
-4828
-4744
-4612
-4499
-4446
-4439
-4438
-4403
-4329
-4247
-4187
-4153
-4104
-3982
-3781
-3558
-3385
-3274
-3154
-2934
-2613
-2289
-2075
-1995
-1963
-1875
-1701
-1497
-1335
-1231
-1148
-1054
-959
-882
-810
-703
-520
-285
-89
-21
-72
-129
-71
109
281
277
76
-130
-91
262
721
976
922
762
789
1057
1317
1300
1047
877
1046
1477
1853
1966
1896
1823
1760
1529
989
225
-549
-1215
-1829
-2487
-3149
-3648
-3878
-3902
-3890
-3960
-4112
-4306
-4521
-4760
-5003
-5188
-5275
-5287
-5284
-5291
-5305
-5338
-5424
-5558
-5652
-5627
-5523
-5501
-5681
-5972
-6139
-6050
-5831
-5747
-5915
-6168
-6243
-6071
-5831
-5721
-5728
-5664
-5423
-5119
-4950
-4975
-5078
-5128
-5129
-5162
-5235
-5269
-5196
-5051
-4901
-4755
-4573
-4350
-4138
-3959
-3786
-3607
-3472
-3433
-3444
-3364
-3119
-2807
-2579
-2466
-2346
-2105
-1772
-1460
-1218
-1005
-806
-698
-751
-890
-929
-767
-503
-336
-362
-477
-508
-403
-259
-214
-309
-473
-602
-632
-569
-456
-344
-250
-153
-34
86
155
139
70
18
-6
-73
-239
-432
-501
-371
-142
14
31
19
134
405
724
972
1115
1204
1294
1402
1526
1652
1759
1824
1854
1891
1978
2116
2261
2361
2394
2374
2334
2299
2284
2297
2350
2457
2623
2840
3089
3361
3660
3978
4263
4446
4497
4466
4437
4435
4415
4325
4195
4115
4136
4201
4217
4153
4075
4045
4066
4080
4051
3989
3926
3878
3838
3787
3689
3500
3240
2989
2815
2700
2579
2444
2375
2434
2552
2608
2599
2682
2985
3435
3847
4148
4461
4912
5428
5755
5699
5277
4656
3976
3264
2485
1624
725
-106
-757
-1182
-1456
-1718
-2046
-2403
-2693
-2866
-2963
-3040
-3096
-3088
-2998
-2828
-2594
-2320
-2069
-1946
-2039
-2360
-2829
-3326
-3758
-4088
-4310
-4407
-4359
-4152
-3808
-3378
-2909
-2436
-1989
-1583
-1203
-864
-613
-482
-453
-470
-525
-697
-1041
-1490
-1950
-2476
-3248
-4264
-5120
-5250
-4493
-3272
-2158
-1260
-186
1377
3189
4680
5503
5746
5654
5354
4909
4470
4163
3874
3339
2523
1742
1287
950
144
-1429
-3407
-5131
-6292
-7109
-7867
-8478
-8619
-8226
-7647
-7274
-7121
-6897
-6427
-5896
-5591
-5540
-5449
-5037
-4323
-3587
-3051
-2735
-2526
-2335
-2158
-2023
-1942
-1916
-1948
-2016
-2037
-1919
-1649
-1340
-1147
-1182
-1461
-1921
-2456
-2928
-3231
-3356
-3394
-3424
-3420
-3305
-3075
-2838
-2670
-2493
-2174
-1763
-1520
-1677
-2160
-2649
-2862
-2746
-2377
-1800
-1029
-149
698
1450
2155
2815
3285
3382
3105
2674
2321
2111
1980
1860
1734
1592
1378
1067
714
380
54
-325
-751
-1120
-1311
-1290
-1122
-891
-645
-408
-215
-123
-145
-209
-203
-60
196
503
817
1109
1365
1583
1752
1853
1870
1820
1760
1732
1678
1448
975
378
-88
-215
59
702
1695
2999
4486
5963
7297
8460
9423
10043
10136
9677
8881
8071
7458
7058
6780
6577
6482
6556
6800
7132
7431
7606
7634
7570
7477
7390
7335
7340
7413
7516
7569
7497
7276
6957
6626
6352
6167
6054
5963
5838
5655
5422
5159
4866
4530
4155
3782
3453
3163
2856
2469
2021
1609
1324
1171
1076
981
938
1071
1460
2040
2628
3053
3273
3372
3466
3584
3647
3546
3262
2921
2694
2655
2736
2814
2828
2781
2671
2482
2238
2027
1895
1765
1516
1165
905
906
1110
1260
1176
945
785
783
813
694
397
45
-249
-492
-762
-1087
-1406
-1648
-1802
-1919
-2038
-2149
-2221
-2241
-2233
-2243
-2294
-2380
-2469
-2533
-2562
-2571
-2578
-2578
-2536
-2419
-2244
-2096
-2074
-2194
-2379
-2533
-2643
-2787
-3050
-3417
-3787
-4085
-4331
-4556
-4661
-4418
-3718
-2789
-2116
-2061
-2547
-3180
-3679
-4157
-4942
-6149
-7486
-8470
-8814
-8585
-8061
-7487
-6958
-6462
-5971
-5484
-5033
-4674
-4450
-4342
-4271
-4128
-3840
-3414
-2914
-2401
-1920
-1509
-1197
-989
-844
-685
-474
-228
-5
144
186
92
-135
-404
-547
-447
-148
153
260
124
-179
-584
-1067
-1584
-2061
-2454
-2804
-3167
-3464
-3496
-3129
-2444
-1671
-962
-265
587
1685
2997
4418
5759
6801
7381
7504
7342
7052
6632
6000
5190
4377
3714
3241
3031
3329
4374
6015
7619
8495
8464
7942
7437
7046
6466
5408
3949
2508
1519
1163
1341
1809
2340
2797
3157
3477
3816
4164
4444
4591
4594
4496
4374
4293
4287
4328
4306
4055
3464
2601
1714
1078
825
910
1226
1705
2318
2988
3579
3968
4109
4015
3721
3281
2782
2320
1939
1608
1285
979
741
590
469
306
75
-203
-480
-727
-931
-1087
-1191
-1246
-1277
-1324
-1420
-1576
-1775
-1975
-2158
-2328
-2461
-2503
-2430
-2329
-2356
-2567
-2831
-2974
-3022
-3205
-3634
-4027
-3890
-3055
-1962
-1325
-1503
-2237
-3021
-3641
-4311
-5352
-6796
-8341
-9586
-10276
-10395
-10113
-9674
-9293
-9064
-8967
-8940
-8956
-9046
-9232
-9489
-9772
-10025
-10186
-10199
-10046
-9793
-9557
-9430
-9414
-9433
-9413
-9316
-9128
-8824
-8404
-7945
-7578
-7405
-7410
-7470
-7474
-7400
-7298
-7202
-7094
-6925
-6676
-6375
-6077
-5818
-5588
-5360
-5109
-4853
-4641
-4504
-4408
-4260
-3972
-3523
-2981
-2446
-1980
-1592
-1264
-1006
-855
-844
-957
-1128
-1284
-1374
-1380
-1302
-1142
-901
-615
-334
-76
172
411
630
809
939
1016
1022
935
784
683
729
877
967
913
846
1018
1527
2181
2676
2874
2867
2786
2603
2190
1525
761
66
-529
-1074
-1528
-1742
-1618
-1255
-885
-638
-456
-240
2
163
189
137
104
92
29
-97
-178
-111
67
198
166
19
-99
-116
-93
-123
-205
-269
-270
-235
-193
-119
14
166
258
276
303
422
607
757
826
892
1054
1298
1533
1704
1847
2012
2159
2187
2060
1853
1676
1557
1441
1283
1114
1015
1035
1157
1325
1481
1576
1581
1509
1426
1410
1460
1466
1327
1077
810
551
215
-277
-929
-1765
-2881
-4298
-5831
-7226
-8523
-10070
-12034
-13947
-14979
-14780
-13882
-13059
-12407
-11268
-9111
-6234
-3450
-1229
616
2428
4163
5548
6581
7637
9007
10548
11889
12902
13803
14783
15705
16247
16243
15805
15156
14439
13715
13070
12648
12525
12607
12693
12630
12380
11967
11379
10575
9540
8293
6868
5309
3700
2186
923
-8
-658
-1168
-1638
-2031
-2224
-2131
-1798
-1364
-946
-549
-101
450
1047
1582
2003
2367
2776
3270
3799
4302
4772
5241
5722
6170
6534
6808
7016
7150
7196
7172
7138
7128
7101
7003
6860
6767
6783
6856
6907
6929
6997
7140
7264
7251
7129
7036
7052
7096
7063
7016
7169
7630
8234
8675
8826
8848
8972
9186
9200
8732
7780
6602
5447
4349
3204
1960
705
-413
-1327
-2059
-2655
-3149
-3598
-4094
-4681
-5291
-5794
-6156
-6473
-6858
-7280
-7572
-7579
-7315
-6933
-6549
-6149
-5671
-5131
-4615
-4157
-3670
-3047
-2290
-1508
-772
-7
918
2031
3208
4299
5282
6260
7334
8494
9633
10652
11514
12233
12842
13341
13707
13921
13988
13955
13859
13721
13576
13469
13422
13376
13236
12971
12657
12383
12125
11780
11322
10873
10583
10459
10362
10178
9945
9782
9721
9668
9508
9207
8817
8405
8009
7650
7326
7004
6656
6305
6024
5873
5820
5740
5497
5122
4722
4339
3907
3352
2718
2096
1488
840
216
-152
-154
-55
-337
-1184
-2239
-2970
-3247
-3428
-3854
-4411
-4694
-4499
-4019
-3590
-3345
-3197
-3072
-3036
-3189
-3526
-3953
-4365
-4668
-4783
-4682
-4425
-4192
-4113
-4162
-4228
-4255
-4287
-4409
-4641
-4903
-5114
-5249
-5337
-5396
-5411
-5379
-5337
-5324
-5332
-5320
-5262
-5170
-5062
-4948
-4867
-4874
-4983
-5124
-5200
-5188
-5167
-5195
-5218
-5118
-4878
-4641
-4557
-4615
-4673
-4615
-4490
-4428
-4460
-4473
-4352
-4120
-3923
-3864
-3899
-3947
-4018
-4209
-4571
-5037
-5461
-5749
-5914
-6035
-6177
-6332
-6418
-6350
-6112
-5794
-5499
-5223
-4847
-4256
-3521
-2881
-2528
-2430
-2377
-2218
-2042
-2117
-2643
-3563
-4600
-5486
-6148
-6670
-7112
-7386
-7308
-6805
-5999
-5090
-4198
-3306
-2385
-1514
-875
-587
-620
-834
-1091
-1322
-1507
-1642
-1717
-1738
-1737
-1751
-1783
-1801
-1782
-1779
-1895
-2169
-2516
-2761
-2768
-2548
-2255
-2070
-2061
-2161
-2254
-2301
-2362
-2479
-2610
-2699
-2830
-3221
-4012
-5066
-6033
-6614
-6757
-6593
-6247
-5765
-5165
-4487
-3770
-3060
-2482
-2257
-2543
-3233
-3977
-4466
-4686
-4863
-5159
-5489
-5643
-5530
-5282
-5105
-5114
-5313
-5635
-5986
-6256
-6361
-6314
-6230
-6208
-6260
-6340
-6454
-6688
-7072
-7486
-7752
-7817
-7838
-8008
-8337
-8645
-8790
-8849
-9033
-9430
-9880
-10126
-10055
-9791
-9550
-9433
-9389
-9325
-9209
-9067
-8911
-8709
-8420
-8035
-7578
-7083
-6572
-6058
-5543
-5018
-4492
-4016
-3664
-3478
-3416
-3377
-3282
-3109
-2885
-2636
-2349
-2001
-1588
-1133
-677
-252
128
453
705
868
944
959
951
947
957
981
1031
1118
1233
1341
1407
1418
1392
1349
1281
1179
1058
963
923
914
879
786
670
598
601
649
688
697
701
730
798
883
960
1033
1146
1332
1578
1839
2106
2409
2776
3171
3541
3920
4438
5182
6065
6905
7660
8513
9666
11045
12299
13111
13499
13736
14023
14284
14307
14026
13590
13194
12902
12655
12391
12101
11808
11517
11222
10910
10559
10146
9720
9369
9116
8852
8451
7917
7378
6877
6245
5254
3925
2573
1554
971
679
541
570
862
1422
2119
2773
3235
3412
3278
2875
2296
1642
969
287
-423
-1115
-1699
-2112
-2396
-2629
-2842
-3016
-3197
-3505
-3970
-4389
-4498
-4357
-4430
-5175
-6509
-7745
-8166
-7613
-6477
-5180
-3713
-1721
1009
4149
6920
8644
9283
9462
9872
10576
10946
10356
8920
7427
6539
6157
5585
4288
2361
474
-758
-1281
-1540
-1960
-2513
-2820
-2730
-2618
-2946
-3649
-4243
-4642
-5574
-7748
-10704
-12929
-13316
-12344
-11516
-11722
-12435
-12519
-11518
-9948
-8548
-7591
-6925
-6378
-5882
-5378
-4821
-4292
-3962
-3896
-3956
-3926
-3721
-3392
-3035
-2842
-3008
-3455
-3777
-3619
-3175
-3103
-3831
-5083
-6289
-7413
-9146
-12141
-16147
-20086
-22938
-24427
-24865
-24560
-23528
-21678
-19049
-15781
-12051
-8159
-4603
-1909
-274
608
1265
2038
2946
3846
4715
5671
6821
8128
9423
10535
11391
12010
12415
12558
12452
12255
12155
12185
12206
12098
11898
11745
11673
11605
11563
11742
12243
12774
12774
11953
10639
9548
9175
9469
10076
10775
11622
12741
14096
15485
16658
17369
17392
16610
15162
13454
11934
10803
9938
9057
8029
6954
6008
5254
4542
3626
2368
862
-640
-1888
-2745
-3223
-3427
-3487
-3513
-3598
-3801
-4123
-4500
-4844
-5106
-5299
-5443
-5521
-5508
-5422
-5329
-5281
-5269
-5250
-5197
-5099
-4933
-4659
-4289
-3908
-3596
-3357
-3150
-2974
-2894
-2950
-3059
-3063
-2934
-2829
-2865
-2876
-2511
-1643
-624
-7
3
-260
-359
-304
-574
-1576
-3149
-4660
-5504
-5484
-4767
-3638
-2321
-932
499
1972
3398
4534
5098
5020
4545
4047
3751
3653
3670
3785
4045
4441
4842
5119
5240
5265
5281
5329
5390
5410
5361
5283
5248
5301
5388
5388
5203
4860
4502
4250
4111
4031
3999
4072
4260
4448
4505
4431
4346
4301
4189
3927
3696
3848
4520
5401
5981
6038
5789
5567
5411
5055
4272
3140
1963
1009
372
21
-113
-108
-46
31
129
258
376
395
279
55
-228
-535
-820
-1027
-1129
-1177
-1269
-1443
-1636
-1755
-1799
-1850
-1961
-2089
-2156
-2174
-2264
-2530
-2925
-3260
-3355
-3166
-2775
-2282
-1728
-1104
-463
41
231
41
-431
-1014
-1576
-2100
-2635
-3136
-3455
-3476
-3252
-2974
-2784
-2645
-2440
-2139
-1806
-1495
-1191
-863
-576
-457
-559
-797
-1020
-1106
-1009
-762
-506
-443
-646
-892
-811
-252
489
917
821
458
225
206
159
-95
-359
-222
420
1196
1596
1453
1041
713
498
111
-666
-1694
-2562
-2927
-2777
-2353
-1885
-1478
-1176
-993
-875
-716
-490
-342
-436
-718
-936
-911
-720
-468
100
1501
3872
6515
8306
8656
7985
7186
6678
6105
4899
2979
854
-843
-1759
-1874
-1358
-469
455
1119
1414
1441
1370
1254
1010
572
-10
-564
-897
-916
-673
-317
-20
90
-49
-387
-736
-842
-558
44
737
1333
1816
2200
2424
2406
2200
1995
1913
1869
1732
1553
1512
1607
1591
1359
1296
2008
3598
5325
6189
5859
4912
4131
3675
3026
1683
-219
-2005
-3052
-3243
-2896
-2404
-1980
-1665
-1461
-1401
-1511
-1773
-2169
-2700
-3380
-4159
-4853
-5243
-5245
-5007
-4791
-4765
-4923
-5158
-5406
-5687
-6016
-6329
-6533
-6613
-6671
-6823
-7048
-7163
-6996
-6573
-6137
-5961
-6145
-6585
-7128
-7731
-8471
-9406
-10462
-11445
-12167
-12560
-12706
-12785
-12947
-13226
-13591
-14027
-14547
-15138
-15739
-16304
-16856
-17411
-17910
-18279
-18569
-18983
-19629
-20272
-20470
-20012
-19140
-18357
-17859
-17283
-16097
-14219
-12210
-10775
-10048
-9461
-8402
-6934
-5715
-5129
-4672
-3413
-1125
1242
2391
1937
702
-222
-560
-929
-1964
-3559
-4970
-5489
-4938
-3630
-2056
-636
421
1126
1618
2036
2411
2651
2695
2585
2444
2421
2619
3055
3671
4353
4967
5395
5597
5643
5675
5837
6186
6680
7219
7694
8011
8126
8067
7914
7769
7699
7684
7641
7490
7215
6869
6510
6113
5568
4817
4009
3470
3439
3796
4097
3944
3312
2513
1842
1300
658
-263
-1414
-2576
-3507
-4019
-3989
-3432
-2576
-1783
-1291
-1018
-675
-92
574
990
969
663
432
544
998
1603
2171
2627
2971
3228
3434
3663
3983
4417
4918
5416
5914
6502
7264
8155
9028
9752
10295
10686
10901
10862
10537
10040
9589
9363
9381
9527
9660
9697
9633
9493
9287
8985
8524
7875
7111
6402
5895
5607
5430
5246
5036
4836
4640
4398
4074
3726
3470
3378
3434
3590
3815
4105
4465
4883
5313
5672
5875
5925
5957
6169
6676
7408
8167
8774
9188
9474
9706
9900
10025
10065
10054
10066
10184
10458
10856
11279
11604
11749
11701
11491
11134
10619
9936
9144
8365
7706
7163
6630
6009
5329
4755
4430
4297
4129
3762
3265
2870
2717
2689
2553
2222
1857
1676
1726
1885
2054
2300
2759
3424
4093
4524
4627
4491
4237
3888
3361
2598
1670
752
-20
-651
-1248
-1871
-2452
-2878
-3150
-3390
-3718
-4084
-4297
-4222
-3931
-3629
-3465
-3428
-3412
-3355
-3279
-3241
-3270
-3364
-3525
-3737
-3947
-4098
-4210
-4410
-4839
-5496
-6207
-6769
-7136
-7426
-7773
-8183
-8532
-8697
-8679
-8586
-8532
-8553
-8601
-8605
-8558
-8508
-8513
-8580
-8661
-8721
-8777
-8883
-9065
-9295
-9528
-9732
-9894
-10011
-10081
-10085
-9988
-9769
-9467
-9186
-9014
-8935
-8840
-8629
-8305
-7960
-7695
-7582
-7676
-8007
-8549
-9222
-9943
-10672
-11360
-11878
-12043
-11740
-11007
-9979
-8775
-7480
-6191
-5017
-3989
-3040
-2113
-1271
-630
-177
320
1110
2221
3435
4530
5468
6361
7287
8229
9151
10069
11007
11962
12952
14093
15488
17033
18432
19476
20280
21164
22252
23281
23855
23859
23577
23360
23274
23083
22541
21658
20678
19860
19273
18804
18304
17726
17124
16579
16118
15713
15328
14942
14543
14107
13623
