416
427
391
325
277
287
352
413
413
356
305
316
370
401
370
305
262
261
269
245
182
106
47
7
-37
-99
-163
-187
-150
-74
-6
35
72
135
216
286
327
363
412
464
506
545
609
697
773
814
844
894
942
935
855
766
752
824
917
971
996
1041
1107
1142
1107
1039
1012
1046
1073
1014
876
758
748
830
901
885
810
767
797
845
832
750
664
627
600
517
357
163
-17
-190
-383
-579
-719
-782
-832
-954
-1160
-1370
-1496
-1532
-1533
-1518
-1429
-1185
-766
-223
396
1077
1786
2412
2815
2937
2854
2673
2416
2029
1495
906
397
37
-189
-303
-306
-207
-72
20
60
104
199
317
394
411
395
378
356
316
272
252
266
297
328
358
403
463
516
536
499
391
221
21
-170
-323
-428
-494
-525
-523
-480
-390
-254
-106
-9
-16
-117
-236
-299
-306
-318
-385
-485
-549
-535
-464
-389
-346
-340
-363
-408
-450
-468
-479
-520
-611
-724
-810
-877
-977
-1130
-1270
-1318
-1283
-1260
-1317
-1408
-1443
-1404
-1368
-1408
-1504
-1586
-1622
-1640
-1667
-1690
-1684
-1650
-1606
-1545
-1446
-1312
-1180
-1070
-963
-830
-682
-573
-531
-510
-448
-340
-249
-235
-283
-325
-313
-261
-200
-129
-16
145
315
459
598
780
1002
1188
1255
1190
1048
884
707
509
304
138
38
-9
-35
-39
9
120
244
300
247
132
45
27
37
18
-30
-42
27
147
238
256
233
226
246
256
223
160
120
149
240
344
404
409
394
401
432
453
429
373
330
315
294
210
61
-89
-172
-194
-236
-360
-527
-627
-595
-485
-416
-448
-526
-558
-512
-438
-399
-406
-422
-402
-333
-228
-107
22
158
302
438
530
562
552
539
543
543
511
456
414
416
462
536
632
746
853
917
922
895
886
912
938
910
811
692
643
701
812
864
804
685
606
601
605
540
382
177
-23
-196
-336
-448
-547
-669
-845
-1072
-1314
-1536
-1712
-1821
-1841
-1763
-1600
-1347
-956
-363
427
1293
2060
2615
2966
3185
3299
3262
3026
2611
2106
1594
1122
723
443
323
345
428
490
507
524
581
669
733
719
618
465
321
231
198
192
181
167
169
189
211
227
266
365
510
636
677
626
540
469
406
303
132
-71
-225
-280
-250
-197
-170
-170
-169
-156
-153
-195
-286
-401
-507
-585
-631
-653
-658
-660
-673
-697
-722
-746
-779
-832
-894
-955
-1014
-1075
-1116
-1106
-1051
-1020
-1072
-1176
-1225
-1154
-1023
-950
-970
-1003
-964
-867
-807
-843
-951
-1066
-1146
-1183
-1184
-1162
-1148
-1163
-1174
-1126
-1003
-861
-778
-762
-756
-714
-647
-585
-531
-471
-418
-405
-427
-424
-352
-243
-174
-175
-198
-174
-97
-15
40
88
143
174
142
57
-14
-23
10
20
-10
-40
-19
52
133
190
214
204
152
68
-8
-41
-46
-64
-115
-154
-128
-35
78
181
301
473
673
818
851
799
730
677
625
565
529
541
588
626
647
682
738
750
644
437
230
116
93
93
75
67
124
261
438
603
721
783
800
797
808
845
888
908
904
894
894
899
896
891
899
923
949
969
999
1049
1101
1112
1064
979
900
850
816
784
766
775
802
824
838
851
864
855
817
786
809
878
927
903
829
786
817
863
824
655
415
211
114
107
111
53
-89
-288
-489
-645
-725
-726
-666
-577
-475
-319
-29
448
1070
1696
2184
2483
2646
2755
2824
2795
2604
2256
1824
1393
1015
711
489
347
258
175
70
-27
-52
19
136
219
238
220
201
188
170
157
162
173
163
137
148
228
328
362
309
246
250
291
254
82
-147
-303
-350
-376
-469
-618
-737
-781
-791
-838
-934
-1032
-1096
-1142
-1210
-1302
-1387
-1440
-1477
-1534
-1626
-1731
-1813
-1871
-1935
-2028
-2130
-2196
-2208
-2202
-2222
-2268
-2287
-2238
-2148
-2095
-2117
-2164
-2159
-2088
-2018
-2011
-2047
-2054
-2002
-1937
-1914
-1925
-1917
-1864
-1796
-1754
-1735
-1703
-1639
-1557
-1473
-1387
-1292
-1192
-1099
-1016
-932
-834
-722
-608
-508
-436
-380
-307
-191
-48
78
153
191
234
305
385
448
489
515
530
524
510
517
563
631
680
692
686
704
760
828
865
858
832
827
856
889
887
852
824
832
862
883
884
882
888
895
889
870
837
777
678
562
474
429
387
306
199
122
101
91
39
-40
-81
-43
38
103
143
199
291
391
463
509
561
620
651
631
595
599
652
702
696
641
593
593
624
641
613
556
514
508
523
521
476
403
336
294
263
216
159
128
156
227
297
338
361
391
422
424
394
371
388
418
392
286
158
82
58
9
-133
-356
-605
-850
-1106
-1380
-1631
-1821
-1980
-2196
-2527
-2916
-3222
-3327
-3251
-3125
-3078
-3093
-2976
-2496
-1598
-483
516
1198
1625
2004
2440
2827
2961
2757
2324
1854
1473
1195
991
855
788
766
734
661
577
536
551
571
535
436
332
289
328
414
492
533
545
550
556
555
538
509
483
466
457
461
495
572
674
763
807
818
823
830
807
710
524
291
68
-111
-245
-357
-463
-563
-642
-686
-692
-666
-629
-589
-548
-499
-442
-389
-351
-330
-317
-308
-307
-319
-342
-375
-417
-476
-553
-644
-742
-844
-954
-1069
-1180
-1276
-1351
-1400
-1423
-1428
-1433
-1458
-1503
-1541
-1554
-1548
-1550
-1565
-1567
-1524
-1436
-1332
-1239
-1151
-1052
-941
-833
-741
-661
-590
-541
-533
-550
-553
-526
-501
-515
-563
-587
-544
-453
-377
-347
-328
-276
-194
-133
-135
-176
-199
-174
-123
-87
-73
-53
5
106
228
349
466
585
702
802
876
930
990
1073
1167
1233
1250
1250
1304
1442
1608
1695
1656
1550
1484
1493
1501
1409
1208
987
841
787
769
727
660
600
577
593
633
680
720
744
758
778
821
887
958
1019
1073
1127
1189
1254
1313
1358
1393
1427
1468
1521
1578
1632
1678
1717
1746
1768
1795
1837
1890
1931
1941
1929
1919
1922
1929
1933
1945
1976
2008
2005
1952
1871
1802
1762
1742
1713
1645
1536
1416
1337
1322
1335
1304
1175
956
704
464
244
26
-208
-470
-763
-1091
-1455
-1818
-2102
-2205
-2085
-1815
-1522
-1228
-786
-7
1104
2286
3221
3791
4123
4394
4633
4722
4559
4167
3659
3144
2692
2349
2144
2052
1994
1899
1757
1622
1556
1566
1612
1646
1645
1613
1570
1551
1580
1646
1701
1706
1676
1670
1731
1837
1916
1928
1909
1929
2006
2073
2046
1914
1768
1701
1719
1738
1672
1528
1392
1349
1395
1447
1427
1340
1261
1255
1321
1385
1373
1280
1167
1098
1077
1047
945
757
541
383
310
264
161
-11
-181
-282
-333
-419
-569
-698
-716
-660
-669
-815
-1003
-1085
-1047
-1024
-1136
-1355
-1554
-1668
-1749
-1869
-2042
-2244
-2478
-2764
-3081
-3359
-3547
-3668
-3772
-3868
-3904
-3828
-3649
-3413
-3156
-2897
-2640
-2394
-2169
-1966
-1772
-1564
-1324
-1052
-772
-525
-348
-245
-184
-119
-25
83
152
137
50
-23
15
184
395
534
564
558
604
722
861
975
1064
1146
1211
1237
1240
1267
1342
1421
1435
1372
1296
1277
1318
1358
1345
1285
1224
1196
1196
1192
1165
1116
1069
1057
1098
1175
1242
1263
1243
1226
1242
1272
1274
1230
1164
1109
1074
1046
1020
1007
1011
1022
1028
1034
1050
1068
1063
1028
988
979
1010
1054
1081
1089
1097
1124
1174
1238
1305
1361
1394
1401
1402
1415
1440
1453
1436
1399
1365
1341
1306
1247
1176
1122
1101
1106
1121
1131
1114
1062
989
923
884
867
837
759
612
405
170
-61
-269
-462
-658
-881
-1146
-1455
-1770
-2003
-2054
-1901
-1638
-1393
-1189
-898
-349
485
1440
2281
2867
3222
3446
3606
3686
3621
3366
2933
2394
1856
1423
1143
992
901
802
676
553
483
495
574
667
716
688
595
485
416
404
407
364
264
157
109
134
190
223
232
259
325
394
397
301
150
36
25
99
169
164
93
28
28
67
62
-26
-145
-206
-186
-132
-89
-42
43
133
140
12
-203
-417
-594
-767
-954
-1111
-1176
-1129
-996
-800
-545
-226
129
434
586
531
323
91
-45
-55
-1
40
44
39
72
156
242
230
34
-323
-670
-843
-859
-913
-1139
-1406
-1436
-1128
-683
-371
-226
-48
304
728
992
1009
908
859
893
906
802
580
310
72
-102
-247
-443
-718
-981
-1099
-1049
-973
-1019
-1166
-1246
-1118
-801
-433
-99
207
503
754
917
1025
1132
1217
1204
1057
847
681
589
521
419
291
199
191
263
374
490
594
677
723
704
624
550
558
646
720
685
557
460
480
552
537
399
236
161
172
196
194
203
269
401
587
834
1144
1450
1638
1660
1585
1513
1451
1311
1037
715
513
523
670
796
824
821
896
1067
1249
1345
1333
1275
1242
1266
1342
1445
1543
1609
1628
1613
1587
1566
1553
1522
1453
1358
1267
1206
1176
1152
1092
969
782
543
283
51
-116
-232
-373
-605
-915
-1205
-1368
-1372
-1266
-1110
-913
-635
-232
325
1028
1793
2459
2878
3029
3056
3118
3218
3201
2937
2479
2028
1733
1575
1429
1213
963
767
653
589
557
578
678
834
983
1075
1098
1071
1017
947
872
817
799
802
787
750
736
788
890
955
903
753
587
461
356
248
169
167
202
137
-125
-513
-818
-902
-845
-856
-1044
-1293
-1368
-1163
-840
-657
-708
-836
-859
-804
-867
-1146
-1492
-1677
-1670
-1679
-1868
-2138
-2243
-2092
-1845
-1697
-1657
-1573
-1351
-1067
-854
-756
-702
-614
-477
-339
-250
-258
-368
-518
-599
-554
-448
-424
-578
-848
-1066
-1107
-982
-830
-824
-1049
-1442
-1827
-2024
-1968
-1717
-1405
-1110
-803
-401
122
669
1089
1299
1339
1294
1178
954
629
321
159
128
73
-121
-384
-539
-505
-392
-370
-466
-554
-503
-337
-196
-179
-267
-364
-398
-388
-396
-469
-581
-660
-649
-563
-501
-555
-715
-878
-934
-873
-766
-670
-565
-405
-201
-41
-5
-75
-157
-173
-137
-117
-152
-188
-134
41
261
392
361
225
117
124
211
281
297
317
413
575
736
858
947
994
943
761
514
340
321
415
528
622
716
814
873
864
820
802
834
900
988
1120
1310
1543
1784
2000
2156
2216
2154
1985
1765
1558
1395
1273
1172
1080
1000
922
829
696
522
321
101
-140
-406
-686
-945
-1152
-1306
-1415
-1466
-1430
-1301
-1112
-886
-584
-127
511
1253
1960
2512
2845
2952
2880
2712
2507
2228
1764
1076
320
-239
-454
-417
-359
-394
-449
-396
-224
-44
42
34
-15
-80
-179
-297
-363
-333
-258
-238
-307
-403
-445
-435
-450
-531
-628
-649
-562
-411
-251
-100
67
252
417
520
555
545
520
492
454
407
349
278
183
64
-61
-160
-219
-257
-317
-415
-508
-542
-502
-440
-429
-492
-593
-689
-767
-839
-911
-988
-1084
-1215
-1363
-1469
-1491
-1458
-1459
-1558
-1729
-1875
-1919
-1870
-1797
-1763
-1773
-1779
-1733
-1627
-1495
-1384
-1321
-1298
-1301
-1305
-1282
-1206
-1063
-871
-677
-534
-454
-405
-336
-224
-103
-37
-58
-128
-167
-115
18
173
299
378
422
443
449
449
463
501
540
544
487
400
352
390
504
630
705
712
677
641
627
623
581
441
189
-112
-356
-483
-533
-585
-661
-701
-654
-555
-482
-451
-396
-288
-193
-208
-330
-435
-414
-291
-173
-116
-79
14
189
424
692
969
1196
1292
1228
1070
920
826
748
625
468
359
374
541
813
1094
1292
1378
1427
1548
1765
1958
1981
1830
1688
1722
1885
1942
1733
1373
1126
1111
1186
1143
965
846
959
1260
1556
1707
1716
1630
1465
1212
894
548
173
-262
-757
-1226
-1580
-1827
-2050
-2293
-2479
-2507
-2411
-2360
-2494
-2748
-2896
-2780
-2476
-2204
-2059
-1886
-1444
-657
301
1174
1847
2366
2776
3028
3065
2923
2700
2419
2008
1427
812
390
258
297
309
240
193
265
418
523
514
453
434
459
434
309
148
60
76
125
131
98
102
171
242
233
150
84
88
107
65
-28
-69
1
106
126
46
-39
-52
-29
-43
-92
-109
-68
-36
-75
-162
-233
-286
-397
-592
-790
-890
-905
-924
-989
-1032
-948
-724
-473
-335
-357
-469
-550
-551
-563
-735
-1099
-1482
-1628
-1447
-1111
-877
-837
-863
-799
-628
-474
-444
-534
-680
-825
-940
-992
-960
-869
-762
-670
-601
-568
-583
-649
-731
-781
-800
-816
-824
-774
-632
-424
-226
-75
49
175
292
360
378
393
429
445
390
276
182
152
152
125
79
86
175
281
308
239
134
48
-25
-116
-224
-321
-389
-429
-449
-424
-335
-207
-101
-64
-86
-120
-127
-102
-69
-48
-34
-9
41
106
163
186
187
198
242
307
357
379
406
476
586
688
734
739
761
838
941
1003
1012
1017
1067
1157
1220
1221
1190
1176
1178
1144
1045
919
832
807
817
829
846
893
965
1028
1049
1035
1006
970
921
851
774
717
699
715
748
791
850
927
996
1030
1018
977
918
829
694
518
332
157
-27
-248
-499
-731
-916
-1115
-1429
-1893
-2389
-2709
-2723
-2483
-2155
-1838
-1455
-845
49
1096
2074
2828
3327
3601
3682
3606
3423
3165
2806
2305
1713
1194
902
831
831
763
660
660
838
1111
1320
1400
1417
1469
1565
1618
1546
1366
1167
1036
1004
1050
1122
1170
1162
1114
1091
1139
1238
1319
1341
1326
1332
1377
1427
1439
1399
1336
1278
1208
1073
835
535
274
146
168
270
367
432
509
655
867
1071
1169
1119
976
843
787
786
764
674
550
476
501
607
732
813
827
790
734
686
653
617
576
559
598
696
813
925
1044
1195
1359
1461
1438
1303
1126
962
808
627
403
172
5
-55
-16
67
136
157
125
55
-28
-96
-129
-132
-142
-199
-302
-394
-420
-386
-377
-476
-680
-897
-1047
-1143
-1274
-1488
-1731
-1904
-1954
-1918
-1866
-1836
-1825
-1831
-1853
-1880
-1879
-1840
-1802
-1794
-1792
-1719
-1533
-1289
-1101
-1018
-986
-927
-846
-824
-917
-1090
-1265
-1425
-1625
-1895
-2174
-2379
-2509
-2645
-2825
-2960
-2922
-2703
-2434
-2217
-1998
-1652
-1166
-695
-392
-239
-93
128
353
466
455
416
418
412
288
8
-342
-584
-570
-281
146
521
764
967
1294
1788
2293
2599
2650
2595
2639
2858
3149
3363
3419
3350
3224
3076
2897
2662
2369
2047
1726
1422
1148
927
768
619
373
-47
-604
-1172
-1660
-2075
-2467
-2818
-3041
-3091
-3032
-2968
-2913
-2801
-2599
-2378
-2230
-2127
-1908
-1441
-770
-81
438
741
903
1017
1120
1178
1124
917
576
175
-189
-444
-560
-557
-504
-488
-546
-606
-535
-272
75
306
319
212
173
300
536
768
960
1144
1349
1547
1705
1832
1936
1985
1915
1722
1478
1266
1101
950
790
656
592
582
575
533
477
438
405
326
177
3
-113
-130
-83
-42
-44
-63
-52
0
62
102
121
140
169
194
197
175
140
113
104
116
154
207
252
258
223
180
160
155
138
108
99
141
207
241
224
212
267
379
463
458
393
356
392
472
526
518
466
412
389
405
446
481
483
452
411
388
391
402
403
386
365
365
399
450
470
420
313
209
168
184
189
117
-16
-117
-108
-9
69
44
-49
-92
-11
138
225
204
167
238
426
608
661
598
543
589
715
821
845
806
769
783
841
894
885
783
628
505
469
491
490
440
404
451
567
665
689
687
739
859
976
1028
1041
1078
1148
1195
1175
1103
1026
967
907
826
729
630
535
443
364
299
238
169
98
36
-6
-25
-15
37
124
219
308
407
520
592
542
370
180
72
25
-69
-260
-464
-559
-523
-454
-457
-534
-614
-650
-665
-710
-786
-854
-911
-1029
-1277
-1591
-1764
-1615
-1195
-755
-487
-303
64
777
1700
2537
3091
3373
3501
3574
3628
3663
3635
3483
3208
2926
2790
2834
2914
2831
2513
2033
1490
919
334
-213
-642
-925
-1093
-1179
-1170
-1036
-796
-532
-338
-241
-197
-162
-134
-138
-176
-202
-163
-52
72
142
140
98
68
75
110
152
189
223
262
306
340
334
268
154
31
-61
-113
-136
-144
-132
-86
-12
54
68
15
-79
-165
-219
-266
-349
-489
-652
-775
-827
-843
-884
-976
-1087
-1156
-1152
-1090
-1002
-911
-827
-759
-719
-709
-715
-717
-710
-693
-665
-625
-573
-497
-356
-109
236
600
904
1120
1272
1367
1372
1271
1123
1010
955
898
795
696
692
793
901
906
790
624
480
367
259
139
15
-99
-186
-227
-220
-195
-201
-261
-352
-437
-503
-570
-652
-730
-770
-754
-706
-674
-686
-728
-759
-753
-717
-673
-631
-582
-521
-472
-462
-494
-534
-542
-516
-488
-499
-549
-595
-588
-514
-412
-338
-300
-258
-166
-38
75
137
174
235
323
402
456
509
583
644
641
591
583
681
832
921
903
857
889
1009
1139
1222
1279
1355
1435
1456
1396
1309
1251
1213
1133
989
840
768
812
946
1122
1293
1416
1452
1404
1322
1242
1134
922
590
216
-98
-315
-481
-650
-823
-971
-1105
-1300
-1636
-2104
-2577
-2892
-2959
-2831
-2644
-2484
-2299
-1962
-1387
-628
161
826
1305
1638
1889
2094
2233
2242
2070
1728
1290
861
524
301
157
33
-109
-251
-353
-388
-375
-366
-400
-480
-595
-729
-863
-974
-1033
-1049
-1062
-1092
-1113
-1081
-992
-894
-832
-793
-713
-558
-377
-265
-265
-318
-321
-236
-125
-70
-73
-57
34
166
265
302
324
386
486
583
646
681
720
779
859
936
976
948
857
746
654
586
510
406
283
158
31
-95
-217
-331
-463
-661
-940
-1246
-1492
-1636
-1709
-1784
-1897
-2016
-2071
-2031
-1936
-1861
-1855
-1894
-1924
-1917
-1893
-1880
-1864
-1809
-1703
-1569
-1434
-1300
-1159
-1014
-878
-753
-625
-496
-387
-306
-231
-127
-5
84
109
95
93
133
194
240
261
278
307
341
363
362
335
294
236
146
9
-172
-365
-528
-640
-721
-814
-941
-1081
-1182
-1206
-1172
-1147
-1196
-1325
-1476
-1588
-1641
-1669
-1715
-1790
-1871
-1920
-1913
-1856
-1775
-1702
-1651
-1614
-1572
-1508
-1419
-1315
-1212
-1121
-1036
-931
-783
-608
-451
-341
-261
-153
27
263
502
694
832
948
1081
1224
1320
1309
1197
1064
992
993
1004
987
968
1000
1081
1150
1158
1119
1063
991
887
767
680
643
621
572
513
486
488
463
374
252
150
62
-62
-229
-391
-518
-656
-892
-1242
-1629
-1960
-2227
-2517
-2925
-3466
-4031
-4438
-4539
-4341
-4005
-3686
-3360
-2822
-1892
-655
575
1510
2110
2525
2868
3094
3092
2847
2462
2031
1568
1078
644
391
354
418
425
336
248
269
388
492
479
349
179
44
-35
-91
-158
-235
-280
-260
-190
-130
-141
-212
-275
-275
-234
-223
-276
-339
-334
-249
-152
-126
-178
-245
-267
-256
-257
-295
-345
-366
-343
-287
-223
-198
-249
-375
-533
-665
-770
-892
-1050
-1187
-1222
-1132
-992
-906
-916
-975
-1010
-998
-976
-1001
-1081
-1168
-1209
-1211
-1231
-1313
-1424
-1504
-1561
-1673
-1884
-2131
-2302
-2363
-2399
-2483
-2568
-2527
-2295
-1949
-1614
-1340
-1094
-844
-611
-453
-404
-458
-579
-729
-869
-974
-1033
-1044
-1007
-924
-814
-701
-591
-468
-327
-195
-110
-74
-46
1
54
75
59
36
6
-69
-216
-390
-501
-504
-449
-428
-493
-613
-719
-768
-771
-769
-805
-890
-991
-1055
-1060
-1029
-996
-969
-931
-873
-801
-745
-704
-641
-540
-430
-361
-367
-428
-484
-479
-396
-272
-183
-184
-254
-316
-295
-201
-120
-123
-195
-255
-234
-128
16
145
221
243
228
212
230
279
332
370
405
458
530
610
684
740
762
720
598
427
266
155
82
0
-112
-209
-219
-122
20
113
138
185
333
546
694
687
590
541
599
669
606
369
57
-214
-410
-585
-792
-1043
-1333
-1679
-2082
-2465
-2699
-2719
-2598
-2486
-2437
-2315
-1907
-1147
-191
711
1410
1927
2331
2632
2779
2732
2491
2080
1532
913
331
-111
-377
-500
-529
-505
-465
-435
-404
-332
-201
-77
-57
-169
-328
-424
-430
-415
-436
-484
-515
-522
-539
-575
-594
-567
-519
-491
-477
-433
-343
-251
-207
-204
-197
-169
-154
-191
-267
-332
-362
-370
-372
-361
-314
-233
-152
-103
-101
-144
-222
-319
-413
-493
-562
-641
-732
-812
-858
-868
-863
-870
-891
-912
-923
-935
-965
-1013
-1051
-1051
-1024
-1013
-1049
-1109
-1134
-1089
-993
-897
-829
-779
-719
-654
-613
-619
-661
-698
-711
-717
-753
-827
-885
-862
-747
-617
-567
-612
-669
-645
-539
-441
-429
-472
-463
-332
-119
67
162
204
278
397
481
446
309
179
135
150
142
89
48
75
148
207
240
295
397
492
506
439
379
398
469
500
449
374
375
476
595
638
594
535
525
538
504
406
310
269
261
221
134
74
110
210
273
254
218
249
343
409
388
319
280
277
235
105
-56
-142
-108
-8
86
163
267
420
594
754
891
1006
1085
1103
1064
1020
1022
1078
1148
1187
1186
1184
1222
1301
1370
1379
1332
1289
1293
1321
1307
1218
1083
979
944
953
925
789
550
283
76
-75
-277
-636
-1105
-1493
-1648
-1631
-1664
-1899
-2233
-2393
-2198
-1741
-1288
-1001
-784
-387
327
1247
2101
2688
2989
3106
3133
3093
2955
2678
2254
1736
1222
822
575
417
231
-38
-343
-610
-829
-1054
-1322
-1578
-1698
-1599
-1325
-1022
-813
-696
-570
-356
-103
58
48
-68
-158
-178
-196
-297
-478
-666
-814
-956
-1133
-1338
-1526
-1669
-1740
-1676
-1413
-1008
-666
-577
-732
-912
-917
-789
-740
-885
-1097
-1143
-936
-606
-341
-227
-230
-315
-513
-844
-1244
-1596
-1854
-2089
-2390
-2748
-3054
-3210
-3216
-3169
-3152
-3184
-3227
-3234
-3181
-3075
-2948
-2846
-2785
-2747
-2699
-2623
-2522
-2384
-2191
-1949
-1700
-1494
-1346
-1232
-1147
-1108
-1117
-1136
-1106
-996
-818
-612
-417
-261
-179
-186
-250
-299
-290
-244
-204
-163
-68
112
315
422
362
165
-82
-320
-542
-751
-926
-1034
-1054
-987
-851
-696
-579
-529
-538
-576
-635
-738
-874
-983
-1009
-961
-901
-870
-850
-816
-779
-779
-829
-890
-919
-912
-889
-862
-826
-770
-686
-568
-420
-276
-185
-171
-200
-207
-155
-67
1
9
-25
-44
1
114
241
312
312
298
346
478
632
731
764
780
823
877
897
878
867
892
923
901
813
711
658
653
643
587
508
462
483
554
642
739
852
965
1034
1034
987
940
896
811
648
437
265
189
171
116
-40
-267
-481
-626
-725
-843
-1024
-1259
-1509
-1731
-1892
-1951
-1867
-1648
-1369
-1115
-884
-561
-29
688
1402
1913
2171
2284
2372
2443
2415
2235
1935
1576
1191
801
464
256
195
200
160
51
-47
-45
58
173
217
187
135
91
39
-39
-104
-99
-17
65
44
-86
-214
-221
-104
38
108
109
107
143
200
245
274
282
243
143
23
-44
-33
-7
-47
-152
-234
-215
-123
-63
-80
-124
-123
-85
-79
-126
-156
-106
-29
-64
-279
-582
-812
-921
-989
-1101
-1233
-1289
-1217
-1062
-909
-812
-781
-814
-893
-977
-1037
-1103
-1221
-1379
-1497
-1509
-1456
-1450
-1535
-1626
-1611
-1499
-1422
-1487
-1660
-1806
-1833
-1771
-1709
-1682
-1655
-1588
-1491
-1390
-1273
-1105
-888
-679
-545
-492
-466
-425
-381
-366
-375
-351
-246
-74
125
329
535
735
885
942
911
849
800
764
722
675
652
676
743
837
945
1052
1126
1130
1064
954
826
684
532
399
326
329
385
451
506
551
576
560
476
342
206
110
53
10
-25
-30
20
107
175
200
210
244
301
336
317
270
249
284
371
486
602
685
716
705
689
693
704
695
665
643
640
645
651
678
745
823
848
798
723
707
778
879
931
903
827
770
771
812
829
779
678
600
600
664
732
728
628
458
265
78
-111
-323
-582
-894
-1246
-1613
-1949
-2175
-2220
-2075
-1810
-1520
-1208
-770
-94
805
1761
2567
3110
3407
3547
3596
3554
3366
2976
2396
1733
1151
774
602
541
476
384
317
324
394
464
486
457
401
329
228
111
21
-11
-13
-40
-116
-197
-235
-247
-295
-407
-538
-619
-626
-609
-628
-682
-707
-651
-535
-437
-417
-452
-464
-421
-390
-470
-671
-891
-1016
-1039
-1053
-1130
-1243
-1309
-1294
-1245
-1226
-1248
-1276
-1279
-1252
-1195
-1116
-1043
-1011
-1028
-1058
-1055
-1017
-995
-1041
-1141
-1226
-1229
-1135
-996
-886
-839
-846
-858
-836
-771
-697
-664
-687
-732
-746
-700
-610
-516
-464
-492
-606
-759
-857
-845
-769
-731
-775
-827
-790
-675
-582
-566
-562
-481
-341
-246
-240
-223
-70
196
412
439
310
185
183
277
345
305
183
90
115
251
402
464
428
372
381
457
540
593
631
686
747
767
729
659
593
533
460
372
292
237
200
170
144
122
73
-50
-249
-447
-542
-507
-408
-340
-311
-241
-72
160
351
430
419
388
381
403
455
539
643
724
757
760
779
828
867
855
796
741
738
785
851
910
956
979
959
881
762
641
544
470
394
321
296
351
472
607
721
809
862
842
715
509
314
192
127
46
-97
-276
-425
-510
-558
-629
-760
-953
-1205
-1534
-1934
-2322
-2546
-2501
-2243
-1939
-1685
-1387
-853
-18
949
1778
2326
2648
2877
3072
3193
3179
3014
2717
2314
1846
1389
1023
784
624
464
275
103
13
20
69
105
116
129
154
155
95
-16
-124
-194
-243
-319
-442
-586
-705
-779
-817
-836
-843
-839
-830
-820
-808
-771
-709
-652
-642
-680
-722
-727
-706
-702
-724
-735
-697
-625
-552
-489
-420
-350
-318
-348
-398
-414
-412
-470
-620
-777
-809
-688
-527
-459
-498
-543
-516
-464
-501
-666
-885
-1061
-1186
-1320
-1482
-1606
-1621
-1545
-1478
-1488
-1548
-1573
-1525
-1449
-1409
-1425
-1471
-1506
-1498
-1424
-1282
-1112
-991
-961
-983
-969
-858
-679
-511
-413
-377
-359
-326
-282
-263
-295
-364
-414
-382
-262
-117
-20
14
35
83
134
119
20
-101
-174
-202
-238
-300
-331
-269
-149
-81
-119
-206
-241
-193
-127
-124
-193
-261
-240
-86
165
401
508
474
418
486
695
906
965
864
725
644
589
465
247
6
-159
-204
-144
-11
158
325
454
546
628
704
745
709
609
513
484
534
626
716
784
845
909
972
1015
1019
967
872
789
784
886
1039
1136
1133
1098
1135
1253
1335
1265
1074
917
892
914
805
503
155
-33
-26
41
20
-82
-146
-107
-28
-18
-109
-247
-386
-542
-751
-1025
-1377
-1849
-2448
-3039
-3401
-3379
-3026
-2492
-1825
-918
322
1763
3067
3951
4371
4458
4334
4009
3476
2800
2108
1505
1042
755
656
699
789
825
795
751
738
744
727
683
634
603
593
579
520
367
87
-281
-629
-839
-841
-661
-398
-161
1
132
318
578
811
866
690
392
133
-2
-47
-75
-127
-214
-341
-500
-623
-627
-488
-288
-165
-201
-347
-461
-416
-225
-38
-8
-136
-267
-255
-117
-16
-70
-221
-323
-308
-256
-278
-383
-480
-499
-473
-484
-561
-642
-663
-618
-563
-555
-590
-622
-601
-524
-430
-370
-348
-311
-205
-43
95
142
121
125
197
274
257
114
-89
-262
-378
-461
-519
-525
-458
-329
-171
-14
110
153
81
-80
-264
-427
-579
-735
-860
-902
-854
-778
-736
-723
-695
-650
-646
-718
-816
-857
-815
-761
-772
-833
-859
-794
-679
-596
-584
-605
-599
-545
-465
-381
-297
-218
-157
-120
-90
-45
21
86
133
173
231
315
398
453
483
524
609
738
882
1012
1126
1244
1374
1505
1614
1691
1743
1780
1801
1809
1823
1871
1948
2006
1996
1929
1864
1842
1839
1799
1701
1595
1541
1550
1583
1608
1622
1630
1607
1517
1360
1183
1021
856
657
446
296
255
274
253
131
-65
-269
-446
-615
-795
-984
-1168
-1352
-1550
-1748
-1899
-1963
-1931
-1826
-1657
-1432
-1151
-803
-343
274
1013
1728
2251
2527
2651
2744
2806
2724
2413
1933
1439
1059
829
722
695
690
645
543
450
464
595
728
736
616
507
534
671
779
759
658
612
697
855
947
901
773
683
691
740
746
702
684
745
840
878
841
805
849
939
958
832
607
404
294
254
224
188
182
243
354
471
549
573
559
516
444
342
227
149
143
203
277
324
337
327
302
263
215
158
71
-61
-203
-283
-276
-250
-315
-500
-711
-840
-875
-873
-865
-806
-655
-438
-215
4
243
478
618
580
400
196
64
10
-19
-56
-84
-67
9
143
313
465
549
552
510
489
537
650
775
835
776
608
407
247
149
73
-23
-128
-202
-218
-185
-121
-45
1
-26
-127
-231
-261
-229
-237
-349
-516
-635
-686
-751
-899
-1097
-1253
-1334
-1390
-1465
-1529
-1526
-1458
-1384
-1343
-1311
-1247
-1144
-1020
-870
-688
-496
-333
-215
-96
52
165
127
-92
-361
-493
-421
-246
-106
-21
119
407
806
1169
1383
1456
1470
1478
1455
1350
1162
955
803
730
698
660
606
568
572
619
682
730
757
774
791
807
804
769
710
659
644
656
654
590
448
263
90
-47
-178
-346
-544
-717
-838
-954
-1129
-1331
-1410
-1240
-875
-508
-258
-20
422
1148
1988
2675
3088
3301
3441
3528
3485
3252
2861
2388
1896
1413
977
641
445
373
370
370
349
320
312
344
403
460
490
464
357
181
-22
-199
-338
-475
-657
-879
-1087
-1224
-1287
-1315
-1353
-1408
-1465
-1505
-1523
-1527
-1529
-1545
-1568
-1565
-1506
-1401
-1297
-1224
-1162
-1069
-948
-852
-821
-825
-806
-745
-685
-667
-664
-622
-537
-464
-434
-414
-343
-224
-130
-110
-129
-114
-52
-7
-39
-129
-213
-269
-338
-453
-582
-662
-674
-661
-675
-712
-735
-717
-672
-629
-600
-597
-626
-679
-714
-693
-625
-569
-565
-582
-548
-435
-277
-138
-43
24
84
137
187
249
325
384
386
343
328
405
545
660
687
658
660
737
837
883
855
802
783
804
832
845
854
875
904
921
921
921
932
941
914
839
746
686
678
696
687
622
541
520
598
726
808
791
710
652
660
701
711
664
600
583
646
762
884
981
1058
1135
1218
1287
1317
1317
1311
1323
1350
1377
1403
1444
1506
1575
1630
1664
1689
1724
1774
1817
1829
1803
1769
1767
1806
1841
1822
1750
1682
1665
1671
1629
1520
1404
1337
1294
1201
1035
865
768
734
697
597
431
229
15
-192
-376
-541
-722
-970
-1296
-1650
-1951
-2124
-2121
-1944
-1661
-1364
-1080
-715
-126
722
1681
2510
3056
3336
3468
3543
3559
3457
3192
2773
2254
1735
1332
1119
1085
1134
1160
1127
1087
1126
1265
1443
1571
1606
1580
1542
1512
1479
1447
1442
1480
1534
1543
1472
1355
1267
1251
1271
1254
1174
1074
1013
1000
996
970
931
908
903
881
815
720
637
585
554
517
461
394
338
310
303
288
235
146
68
59
122
195
210
158
95
78
93
80
-2
-129
-240
-299
-318
-329
-340
-333
-297
-242
-197
-169
-153
-137
-124
-131
-165
-226
-295
-338
-322
-249
-165
-127
-141
-150
-100
-22
-10
-121
-300
-440
-500
-529
-573
-572
-424
-109
262
552
727
863
1028
1195
1272
1218
1079
952
890
886
898
899
888
883
889
895
879
836
791
784
825
885
914
898
874
883
912
903
813
668
544
501
520
542
531
506
508
538
553
511
415
311
243
218
221
238
270
317
374
438
515
609
707
782
822
846
882
936
988
1017
1028
1040
1061
1078
1073
1056
1049
1056
1054
1012
932
847
801
811
855
899
919
917
916
941
993
1043
1046
976
862
765
721
710
678
614
557
556
599
629
597
504
385
261
124
-39
-217
-382
-524
-657
-795
-939
-1059
-1100
-1012
-794
-513
-251
-24
261
729
1383
2063
2559
2795
2886
2994
3154
3247
3146
2848
2467
2105
1803
1561
1393
1299
1238
1139
986
842
783
815
848
797
654
489
380
354
378
394
363
295
236
216
213
172
59
-97
-231
-310
-362
-438
-544
-626
-625
-549
-468
-437
-449
-445
-398
-338
-322
-362
-412
-416
-350
-232
-102
8
76
104
115
121
116
81
15
-70
-160
-254
-335
-362
-312
-225
-187
-236
-324
-368
-350
-344
-420
-561
-687
-736
-719
-681
-649
-636
-655
-709
-774
-813
-812
-802
-834
-908
-976
-973
-874
-714
-555
-437
-353
-266
-152
-24
69
97
84
80
115
171
220
261
325
416
502
549
566
596
660
731
768
762
741
731
734
740
743
737
710
665
637
670
762
844
849
785
724
716
733
705
595
434
293
216
208
248
301
347
385
432
491
532
518
441
341
266
220
169
93
21
7
69
168
238
253
246
267
324
370
355
294
255
281
345
380
356
320
329
386
432
416
353
307
325
392
460
495
512
552
626
704
745
735
703
672
645
614
599
632
711
797
848
863
874
898
911
875
759
567
333
98
-111
-302
-500
-722
-971
-1256
-1582
-1910
-2126
-2123
-1920
-1670
-1494
-1319
-922
-174
801
1719
2387
2825
3166
3475
3703
3756
3592
3228
2724
2164
1649
1254
997
836
722
643
629
698
826
954
1033
1046
1004
913
760
547
325
167
102
95
84
40
-19
-60
-72
-65
-54
-50
-67
-110
-159
-169
-126
-66
-42
-68
-101
-98
-75
-82
-144
-215
-237
-209
-191
-245
-365
-486
-562
-618
-718
-882
-1059
-1175
-1208
-1184
-1142
-1097
-1064
-1070
-1132
-1205
-1221
-1167
-1111
-1123
-1180
-1174
-1036
-815
-630
-545
-516
-480
-433
-423
-470
-535
-570
-570
-555
-537
-495
-420
-344
-302
-292
-283
-260
-245
-259
-297
-329
-335
-311
-259
-175
-83
-46
-109
-233
-305
-245
-91
45
105
160
319
584
812
855
709
511
381
313
218
53
-131
-247
-253
-176
-71
16
51
50
69
149
253
269
104
-221
-563
-764
-770
-663
-569
-553
-577
-554
-461
-379
-406
-534
-634
-595
-447
-315
-248
-153
99
488
834
993
986
946
947
943
872
774
727
753
799
831
903
1062
1245
1309
1183
959
795
764
806
839
844
855
874
864
824
810
875
1003
1122
1185
1208
1235
1277
1314
1329
1321
1275
1176
1038
923
886
911
898
742
428
49
-268
-473
-628
-830
-1119
-1453
-1776
-2079
-2387
-2668
-2807
-2709
-2409
-2023
-1611
-1091
-324
697
1798
2742
3395
3767
3950
4019
3991
3831
3477
2923
2268
1686
1301
1093
948
796
684
690
813
962
1059
1114
1179
1255
1280
1193
1005
800
660
600
579
559
536
531
552
578
580
541
458
339
200
69
-37
-127
-221
-317
-388
-416
-421
-450
-522
-609
-675
-720
-775
-851
-913
-920
-889
-885
-956
-1072
-1153
-1150
-1103
-1100
-1190
-1333
-1438
-1455
-1417
-1394
-1421
-1473
-1505
-1504
-1479
-1436
-1361
-1252
-1133
-1035
-959
-889
-819
-768
-751
-758
-768
-775
-790
-804
-783
-701
-583
-489
-447
-429
-379
-277
-155
-57
2
35
72
120
166
179
138
61
-10
-47
-73
-127
-209
-263
-239
-138
-19
62
91
89
82
88
112
135
122
61
-13
-32
29
118
160
133
82
59
66
62
23
-32
-80
-123
-187
-285
-395
-487
-548
-595
-652
-723
-786
-810
-785
-729
-673
-617
-543
-438
-309
-180
-53
89
258
442
618
772
898
993
1062
1123
1198
1277
1317
1282
1209
1184
1246
1333
1334
1217
1070
1001
1011
994
868
694
620
713
871
928
836
729
758
915
1038
1012
913
906
1029
1133
1087
952
914
1045
1211
1237
1093
892
729
592
465
385
379
356
160
-257
-761
-1160
-1380
-1492
-1602
-1728
-1779
-1627
-1179
-451
413
1213
1811
2211
2477
2617
2592
2421
2211
2036
1827
1470
1000
627
505
540
496
283
42
-58
-25
19
75
305
786
1323
1605
1538
1334
1233
1233
1136
846
481
226
115
50
-29
-67
-3
102
109
-45
-284
-496
-635
-720
-773
-782
-742
-675
-608
-529
-415
-288
-221
-269
-406
-561
-688
-805
-935
-1061
-1133
-1130
-1081
-1032
-1016
-1027
-1053
-1074
-1078
-1074
-1091
-1153
-1245
-1325
-1364
-1374
-1392
-1440
-1510
-1588
-1661
-1706
-1705
-1671
-1650
-1679
-1741
-1774
-1737
-1664
-1626
-1663
-1743
-1803
-1803
-1763
-1728
-1723
-1721
-1673
-1553
-1388
-1238
-1129
-1036
-915
-762
-624
-550
-544
-555
-531
-464
-388
-349
-371
-445
-526
-558
-514
-429
-367
-357
-361
-308
-166
28
199
296
320
304
286
277
266
240
200
161
143
144
150
164
209
291
373
392
329
238
201
225
242
173
28
-107
-154
-122
-85
-102
-165
-218
-217
-162
-96
-69
-96
-147
-174
-162
-132
-122
-135
-139
-108
-58
-24
-21
-20
10
58
80
60
35
57
126
187
183
124
65
54
77
74
16
-76
-158
-216
-268
-329
-389
-446
-516
-614
-726
-820
-880
-925
-989
-1072
-1155
-1237
-1346
-1488
-1615
-1668
-1669
-1733
-1963
-2320
-2627
-2718
-2584
-2370
-2217
-2120
-1934
-1521
-864
-83
653
1224
1602
1842
2019
2164
2227
2128
1836
1416
993
662
435
263
103
-45
-156
-220
-248
-246
-211
-142
-62
-5
-4
-51
-105
-129
-120
-112
-136
-183
-211
-196
-155
-127
-126
-125
-98
-58
-45
-78
-132
-160
-151
-133
-141
-176
-208
-217
-212
-225
-273
-339
-391
-413
-417
-433
-469
-516
-556
-585
-614
-652
-699
-752
-805
-852
-882
-890
-876
-860
-864
-901
-966
-1039
-1092
-1119
-1141
-1191
-1272
-1353
-1390
-1381
-1365
-1377
-1404
-1405
-1360
-1294
-1249
-1237
-1232
-1202
-1141
-1074
-1030
-1012
-987
-934
-868
-829
-818
-779
-650
-432
-202
-25
110
263
457
639
747
785
807
841
858
821
752
713
736
786
811
802
801
851
955
1075
1168
1217
1229
1220
1206
1189
1164
1123
1061
966
835
686
547
447
383
327
241
110
-43
-176
-252
-280
-317
-427
-617
-824
-978
-1074
-1169
-1298
-1406
-1395
-1237
-1012
-821
-664
-463
-184
93
243
251
227
284
410
496
475
406
400
486
603
676
707
747
831
936
1022
1082
1137
1206
1282
1342
1371
1376
1383
1420
1492
1565
1604
1615
1642
1706
1760
1739
1630
1494
1390
1312
1205
1029
796
543
293
53
-167
-354
-524
-724
-987
-1290
-1551
-1679
-1633
-1452
-1223
-997
-735
-332
279
1045
1819
2457
2894
3132
3210
3172
3049
2843
2513
2026
1442
921
609
517
522
501
453
462
574
744
897
1007
1099
1182
1230
1211
1147
1097
1101
1130
1137
1106
1070
1064
1076
1063
1014
965
961
986
971
869
714
591
538
514
451
341
236
184
171
150
93
11
-70
-140
-199
-253
-313
-393
-492
-589
-666
-727
-785
-832
-846
-834
-827
-826
-762
-563
-252
49
235
306
326
295
137
-192
-610
-977
-1230
-1419
-1607
-1763
-1799
-1696
-1543
-1458
-1470
-1523
-1559
-1579
-1614
-1664
-1695
-1683
-1641
-1599
-1557
-1481
-1360
-1235
-1162
-1154
-1147
-1060
-882
-681
-529
-425
-315
-179
-73
-62
-144
-252
-329
-373
-404
-416
-403
-393
-429
-489
-491
-387
-248
-187
-213
-209
-84
99
183
117
13
23
157
296
336
289
241
249
310
390
455
463
395
293
239
272
332
321
236
184
274
482
678
785
845
952
1116
1252
1293
1280
1300
1373
1420
1364
1238
1160
1202
1310
1373
1339
1276
1293
1423
1586
1668
1629
1531
1462
1454
1461
1417
1312
1197
1136
1137
1161
1170
1164
1172
1213
1285
1369
1425
1406
1293
1129
1002
962
969
929
794
614
485
446
434
367
233
71
-116
-401
-835
-1324
-1646
-1639
-1354
-1005
-733
-448
77
941
1963
2832
3358
3586
3676
3718
3691
3539
3261
2889
2443
1962
1175
1031
972
862
657
438
307
276
267
218
146
107
107
105
73
37
34
48
33
-18
-63
-63
-45
-58
-107
-138
-107
-34
16
2
-58
-111
-124
-108
-84
-66
-55
-40
-13
34
97
159
201
209
183
140
102
88
100
125
144
148
139
129
119
102
76
41
1
-53
-127
-211
-280
-322
-365
-454
-596
-741
-828
-847
-857
-922
-1034
-1109
-1084
-980
-875
-820
-792
-732
-616
-476
-366
-309
-288
-263
-210
-137
-84
-75
-97
-101
-63
-11
6
-16
-26
21
104
169
198
233
319
445
558
626
668
718
788
860
912
939
939
915
880
852
840
824
774
685
586
506
443
369
268
160
84
57
51
31
-10
-29
16
109
172
139
20
-97
-140
-120
-120
-197
-316
-384
-343
-222
-88
30
144
264
363
404
401
413
475
551
573
527
480
502
584
644
630
574
552
595
652
668
642
623
637
668
681
678
684
712
749
779
811
862
929
995
1042
1062
1060
1057
1072
1099
1108
1070
993
902
799
647
420
146
-117
-346
-579
-856
-1173
-1473
-1692
-1800
-1797
-1713
-1603
-1505
-1375
-1088
-549
201
998
1683
2204
2606
2924
3145
3236
3187
3004
2689
2253
1765
1352
1115
1053
1069
1058
986
905
895
984
1123
1228
1238
1160
1048
955
889
835
790
783
838
913
928
861
792
824
949
1037
983
832
747
814
952
1013
961
896
915
988
992
863
651
463
339
237
107
-49
-191
-297
-380
-458
-533
-599
-665
-757
-879
-996
-1058
-1048
-1001
-976
-993
-1018
-996
-911
-790
-673
-574
-483
-378
-258
-146
-71
-48
-70
-120
-179
-237
-285
-318
-328
-320
-313
-332
-375
-408
-400
-380
-442
-664
-1009
-1320
-1447
-1367
-1172
-945
-681
-334
93
517
854
1076
1190
1181
1043
825
617
466
346
221
118
95
144
168
102
-16
-108
-175
-291
-456
-527
-358
-1
317
435
439
552
839
1106
1125
909
695
661
736
736
615
506
517
570
515
353
258
349
543
657
614
512
460
445
377
234
82
-18
-72
-97
-57
102
372
679
942
1127
1239
1307
1371
1477
1611
1709
1740
1764
1883
2094
2259
2226
2014
1796
1712
1716
1644
1422
1171
1082
1204
1394
1455
1331
1148
1058
1068
1040
863
593
405
423
596
744
725
546
328
171
69
-60
-284
-599
-964
-1353
-1751
-2110
-2338
-2349
-2145
-1823
-1484
-1127
-646
56
949
1857
2571
2986
3167
3257
3333
3330
3135
2734
2231
1751
1336
968
670
512
522
626
711
762
879
1152
1546
1917
2140
2207
2197
2188
2199
2188
2126
2028
1943
1892
1851
1784
1699
1644
1647
1673
1659
1582
1466
1333
1176
985
778
596
459
350
254
182
164
197
243
256
223
171
149
180
252
325
369
406
482
601
701
714
637
549
516
517
477
361
222
138
118
101
20
-114
-239
-317
-375
-449
-542
-633
-724
-860
-1084
-1358
-1576
-1653
-1597
-1493
-1411
-1338
-1197
-939
-598
-252
22
178
215
180
160
232
377
490
481
389
334
385
465
441
263
38
-86
-61
29
86
114
201
376
522
462
158
-230
-496
-571
-556
-574
-615
-559
-319
80
533
931
1217
1377
1433
1443
1455
1461
1400
1232
1007
823
735
692
602
404
137
-113
-284
-371
-402
-377
-277
-109
71
208
327
494
690
800
742
608
601
814
1130
1371
1486
1549
1599
1587
1482
1344
1242
1147
985
810
835
1232
1965
2800
3496
3942
4148
4157
4033
3822
3496
2977
2249
1447
771
284
-117
-520
-843
-915
-700
-349
-32
201
385
535
620
631
589
502
365
218
159
249
428
597
740
908
1098
1199
1134
987
940
1085
1347
1583
1735
1853
2007
2215
2439
2574
2475
2051
1375
697
260
119
137
156
147
188
319
484
588
592
525
430
305
123
-114
-348
-527
-653
-788
-968
-1159
-1271
-1236
-1064
-824
-579
-360
-179
-50
12
-1
-91
-265
-527
-860
-1225
-1578
-1888
-2146
-2346
-2466
-2504
-2486
-2438
-2358
-2207
-1975
-1714
-1505
-1366
-1227
-1022
-766
-550
-440
-418
-428
-441
-464
-484
-450
-330
-162
-21
43
55
78
155
274
395
495
595
728
901
1076
1206
1260
1246
1195
1133
1076
1024
974
920
870
854
896
978
1048
1077
1091
1133
1197
1226
1188
1134
1141
1219
1297
1308
1256
1201
1173
1128
1012
823
621
460
336
203
35
-144
-279
-346
-375
-443
-595
-813
-1029
-1202
-1350
-1519
-1717
-1906
-2055
-2177
-2299
-2406
-2446
-2419
-2407
-2496
-2648
-2719
-2611
-2383
-2193
-2121
-2097
-1999
-1796
-1565
-1388
-1260
-1123
-949
-770
-608
-448
-272
-104
2
33
37
65
107
122
104
103
154
218
222
154
79
59
65
28
-58
-123
-114
-70
-66
-113
-153
-147
-147
-225
-372
-504
-566
-583
-613
-656
-660
-612
-561
-554
-584
-606
-600
-593
-634
-750
-942
-1185
-1433
-1647
-1835
-2044
-2315
-2640
-2981
-3294
-3537
-3650
-3570
-3301
-2943
-2581
-2174
-1575
-700
328
1254
1898
2273
2505
2663
2693
2514
2110
1553
935
345
-122
-381
-407
-268
-85
45
90
64
-30
-221
-528
-928
-1358
-1755
-2070
-2266
-2294
-2128
-1808
-1447
-1148
-938
-762
-585
-451
-428
-500
-569
-565
-527
-537
-591
-587
-462
-297
-229
-297
-396
-411
-348
-299
-312
-333
-292
-204
-149
-174
-253
-338
-419
-524
-671
-839
-987
-1093
-1166
-1243
-1358
-1499
-1600
-1604
-1521
-1448
-1478
-1604
-1723
-1745
-1670
-1580
-1547
-1571
-1587
-1528
-1368
-1140
-936
-856
-939
-1129
-1329
-1499
-1680
-1927
-2226
-2487
-2633
-2655
-2585
-2438
-2219
-1966
-1747
-1611
-1549
-1522
-1516
-1539
-1571
-1561
-1458
-1272
-1054
-841
-631
-413
-204
-55
1
-20
-68
-101
-104
-86
-63
-57
-76
-105
-118
-98
-59
-39
-63
-122
-181
-220
-262
-342
-471
-615
-718
-760
-770
-794
-845
-886
-878
-830
-804
-848
-938
-997
-971
-882
-799
-763
-748
-696
-584
-441
-320
-245
-200
-157
-106
-54
-6
36
73
103
125
145
164
173
164
153
173
241
333
396
406
395
410
462
512
513
461
399
376
411
482
551
596
630
671
713
734
714
662
608
574
547
485
355
169
-18
-149
-206
-224
-263
-365
-524
-691
-810
-837
-757
-599
-424
-272
-105
180
670
1337
2034
2591
2931
3088
3148
3159
3115
2973
2684
2215
1592
934
408
113
1
-73
-203
-346
-388
-292
-155
-117
-231
-438
-647
-810
-907
-916
-823
-660
-496
-374
-285
-211
-178
-244
-438
-718
-1002
-1220
-1353
-1417
-1434
-1413
-1353
-1265
-1178
-1137
-1165
-1249
-1355
-1457
-1548
-1633
-1706
-1757
-1771
-1745
-1704
-1695
-1755
-1866
-1949
-1934
-1844
-1771
-1780
-1828
-1826
-1754
-1692
-1723
-1837
-1945
-1971
-1919
-1850
-1827
-1873
-1954
-2000
-1966
-1897
-1888
-1986
-2114
-2155
-2083
-1996
-1986
-2021
-2005
-1919
-1854
-1886
-1971
-2008
-1966
-1906
-1874
-1837
-1740
-1600
-1493
-1460
-1446
-1395
-1329
-1332
-1454
-1647
-1806
-1854
-1804
-1736
-1726
-1776
-1818
-1795
-1720
-1664
-1677
-1719
-1715
-1637
-1534
-1467
-1433
-1385
-1296
-1186
-1090
-1017
-963
-943
-981
-1059
-1115
-1096
-1020
-954
-931
-915
-834
-655
-425
-216
-69
27
104
174
222
236
215
169
112
59
29
43
112
234
397
578
744
857
902
890
845
783
692
558
392
237
132
81
66
72
97
137
176
184
150
94
52
51
87
129
147
138
133
163
220
260
238
150
42
-34
-61
-45
1
65
108
75
-64
-278
-491
-657
-796
-962
-1193
-1482
-1785
-2032
-2146
-2078
-1854
-1583
-1355
-1142
-816
-277
417
1068
1503
1713
1832
1979
2159
2279
2273
2155
1975
1757
1497
1218
978
809
676
513
300
92
-35
-51
4
56
42
-50
-178
-276
-316
-347
-443
-605
-731
-714
-557
-366
-228
-134
-21
127
260
330
336
296
212
81
-72
-200
-291
-380
-501
-643
-762
-847
-923
-1018
-1122
-1203
-1256
-1313
-1399
-1500
-1572
-1590
-1580
-1600
-1677
-1788
-1874
-1901
-1894
-1912
-1976
-2047
-2063
-2004
-1921
-1868
-1854
-1842
-1791
-1707
-1626
-1576
-1553
-1538
-1515
-1492
-1482
-1489
-1506
-1520
-1520
-1510
-1513
-1550
-1617
-1685
-1716
-1682
-1583
-1433
-1252
-1061
-886
-752
-692
-735
-889
-1113
-1321
-1444
-1480
-1470
-1431
-1323
-1098
-786
-500
-355
-381
-519
-695
-869
-1024
-1149
-1232
-1247
-1174
-1003
-765
-530
-367
-279
-211
-139
-112
-179
-295
-332
-235
-106
-107
-264
-420
-421
-305
-254
-377
-570
-648
-562
-437
-412
-468
-470
-341
-148
-2
79
167
311
472
573
583
548
523
515
499
452
384
321
292
311
368
429
445
407
359
357
413
486
533
549
562
583
592
577
557
561
582
576
529
486
490
521
501
399
271
185
128
4
-244
-541
-758
-868
-972
-1177
-1449
-1669
-1797
-1926
-2163
-2460
-2652
-2617
-2392
-2097
-1778
-1350
-717
103
958
1679
2203
2589
2924
3195
3264
2994
2413
1731
1176
814
558
336
199
248
489
825
1160
1459
1715
1870
1860
1701
1499
1355
1261
1152
997
833
702
603
497
366
221
83
-61
-226
-385
-462
-393
-219
-87
-103
-226
-313
-293
-262
-352
-538
-637
-515
-267
-119
-170
-297
-315
-201
-99
-139
-316
-534
-726
-887
-1028
-1154
-1280
-1431
-1605
-1747
-1795
-1757
-1711
-1710
-1732
-1719
-1665
-1629
-1664
-1730
-1734
-1640
-1514
-1447
-1446
-1417
-1278
-1055
-853
-745
-716
-695
-644
-576
-518
-486
-474
-466
-432
-355
-246
-145
-77
-22
43
99
88
-8
-134
-214
-227
-217
-225
-230
-202
-123
-8
124
247
297
222
46
-127
-230
-322
-499
-757
-958
-978
-850
-730
-723
-799
-854
-839
-795
-803
-920
-1152
-1442
-1693
-1831
-1881
-1937
-2030
-2067
-1937
-1656
-1380
-1226
-1150
-1012
-771
-540
-435
-436
-418
-299
-124
3
47
68
145
315
554
802
1013
1186
1342
1509
1666
1770
1801
1791
1791
1804
1775
1679
1557
1485
1493
1528
1514
1443
1365
1327
1327
1316
1254
1146
1040
990
1010
1075
1134
1141
1100
1043
1000
969
927
862
756
575
305
-25
-343
-594
-781
-950
-1141
-1368
-1625
-1887
-2092
-2156
-2036
-1789
-1515
-1229
-819
-155
760
1749
2593
3181
3539
3744
3836
3803
3612
3250
2748
2180
1650
1252
1015
906
861
831
790
740
709
743
856
978
993
841
578
346
246
269
337
404
506
707
1008
1329
1579
1725
1797
1834
1828
1748
1596
1433
1325
1283
1250
1173
1067
1000
1002
1016
950
780
590
489
494
514
443
269
76
-58
-162
-322
-583
-887
-1148
-1365
-1609
-1905
-2165
-2258
-2142
-1899
-1629
-1340
-977
-518
-39
337
537
562
460
287
83
-108
-257
-339
-346
-296
-215
-137
-90
-97
-173
-317
-485
-597
-607
-540
-470
-423
-359
-248
-148
-175
-368
-620
-760
-714
-544
-359
-200
-28
199
471
740
945
1046
1025
901
740
608
518
402
183
-110
-343
-395
-270
-82
74
224
443
698
852
790
556
285
37
-251
-618
-953
-1074
-933
-673
-454
-272
1
386
701
734
496
231
171
310
444
423
327
374
683
1156
1594
1885
2060
2204
2325
2356
2252
2018
1671
1220
680
147
-217
-296
-99
279
752
1286
1860
2394
2765
2883
2739
2377
1876
1330
851
542
438
497
644
832
1059
1316
1542
1646
1574
1368
1122
901
697
491
313
212
184
154
34
-174
-395
-575
-745
-983
-1316
-1678
-1945
-2043
-1977
-1822
-1652
-1484
-1250
-861
-299
328
858
1206
1431
1632
1821
1906
1815
1592
1339
1094
805
431
36
-257
-400
-472
-577
-729
-843
-820
-652
-425
-246
-165
-151
-144
-116
-100
-138
-233
-328
-371
-364
-348
-352
-357
-331
-265
-174
-87
-24
2
-13
-53
-94
-141
-221
-346
-479
-565
-579
-551
-532
-542
-564
-556
-501
-424
-375
-379
-407
-402
-347
-289
-288
-336
-357
-296
-181
-88
-62
-67
-51
-7
29
33
24
17
-7
-76
-164
-205
-162
-93
-92
-190
-304
-334
-282
-259
-381
-645
-936
-1143
-1248
-1328
-1453
-1615
-1745
-1783
-1730
-1648
-1601
-1608
-1636
-1637
-1598
-1553
-1552
-1598
-1644
-1637
-1585
-1543
-1541
-1540
-1477
-1360
-1276
-1301
-1402
-1464
-1403
-1254
-1130
-1113
-1184
-1260
-1269
-1209
-1134
-1104
-1123
-1130
-1058
-904
-741
-645
-618
-604
-578
-586
-687
-864
-1021
-1090
-1107
-1164
-1279
-1362
-1309
-1136
-971
-915
-942
-939
-846
-725
-664
-660
-623
-486
-283
-112
-17
36
105
214
353
488
580
603
578
581
672
807
868
796
682
671
798
944
974
891
813
820
878
899
855
786
731
691
646
595
543
482
416
378
396
446
484
492
490
470
379
174
-101
-349
-515
-648
-841
-1138
-1504
-1869
-2149
-2260
-2156
-1886
-1568
-1261
-882
-275
594
1553
2345
2837
3073
3173
3197
3120
2898
2545
2143
1760
1413
1082
767
507
324
122
-277
-952
-1732
-2283
-2395
-2165
-1855
-1585
-1226
-600
264
1111
1695
1966
2036
2006
1896
1705
1477
1267
1089
940
847
856
952
1029
979
804
602
448
330
191
29
-93
-126
-101
-84
-98
-116
-135
-191
-297
-387
-389
-324
-297
-376
-508
-597
-642
-740
-958
-1233
-1445
-1547
-1596
-1643
-1653
-1556
-1356
-1132
-965
-855
-766
-695
-689
-775
-921
-1061
-1151
-1197
-1218
-1226
-1207
-1153
-1068
-970
-884
-831
-810
-797
-766
-700
-606
-501
-403
-312
-212
-95
24
109
133
106
64
39
28
8
-29
-65
-88
-98
-111
-126
-140
-156
-186
-230
-260
-254
-230
-226
-248
-250
-192
-81
36
126
196
265
327
360
356
337
322
311
281
217
124
36
-12
-11
5
-9
-71
-151
-219
-271
-322
-376
-421
-439
-425
-375
-266
-80
156
360
445
371
167
-93
-324
-458
-457
-331
-116
155
477
864
1300
1712
1988
2038
1857
1529
1181
913
759
701
715
791
911
1050
1184
1300
1377
1369
1218
929
598
365
287
317
369
407
459
537
576
479
224
-98
-395
-674
-1017
-1459
-1925
-2308
-2578
-2797
-2990
-3085
-2976
-2661
-2237
-1763
-1166
-322
766
1916
2890
3569
3987
4232
4329
4240
3943
3463
2868
2256
1739
1396
1236
1171
1097
989
889
823
746
618
493
472
582
710
714
582
454
454
556
628
588
467
341
237
136
38
-22
-52
-125
-306
-563
-775
-852
-822
-786
-808
-865
-898
-880
-830
-772
-715
-664
-634
-632
-629
-598
-539
-479
-446
-435
-438
-470
-549
-646
-700
-686
-656
-683
-793
-959
-1155
-1385
-1636
-1822
-1840
-1673
-1413
-1174
-970
-730
-417
-100
94
101
-40
-244
-470
-713
-958
-1147
-1237
-1246
-1236
-1246
-1247
-1180
-1029
-851
-730
-711
-761
-793
-739
-605
-463
-373
-344
-339
-321
-283
-222
-128
-4
116
188
210
233
300
392
454
474
499
570
664
724
737
751
801
854
850
778
685
612
538
415
243
85
11
44
165
339
524
681
798
889
967
997
919
718
461
242
98
2
-76
-125
-112
-34
76
187
295
401
490
554
605
671
760
858
955
1051
1133
1164
1120
1023
932
874
818
716
579
475
458
512
577
624
678
774
897
992
1019
980
898
795
691
617
593
595
571
502
436
425
462
483
440
334
189
5
-233
-506
-759
-960
-1146
-1396
-1759
-2193
-2586
-2823
-2862
-2752
-2599
-2469
-2303
-1936
-1230
-220
871
1768
2339
2662
2902
3135
3280
3203
2857
2333
1773
1276
873
578
400
315
264
181
77
32
102
236
329
332
295
298
351
405
435
475
545
601
574
476
409
452
558
607
543
444
430
529
663
742
755
754
789
867
967
1052
1080
1020
889
763
717
760
823
836
791
730
688
667
646
611
555
470
356
243
168
140
127
92
37
-7
-25
-48
-115
-233
-380
-533
-678
-794
-851
-833
-771
-707
-650
-582
-522
-568
-828
-1285
-1770
-2082
-2145
-2011
-1746
-1338
-759
-88
495
850
988
1018
996
879
616
289
82
132
411
758
1023
1150
1169
1138
1085
1005
873
663
379
64
-208
-377
-433
-412
-363
-322
-299
-263
-160
70
421
780
990
960
732
432
151
-88
-271
-348
-286
-121
75
284
552
873
1101
1063
761
408
216
193
191
128
93
200
390
485
418
331
389
560
654
590
523
655
941
1244
1301
1215
1171
1222
1235
1102
908
833
925
1044
1056
1006
1055
1268
1512
1596
1480
1300
1205
1212
1217
1137
1017
983
1098
1299
1467
1554
1613
1689
1729
1639
1422
1204
1108
1097
1003
724
371
174
222
356
318
20
-360
-566
-507
-309
-149
-63
61
322
718
1189
1713
2293
2854
3257
3410
3372
3297
3262
3177
2891
2373
1763
1244
889
652
470
335
264
241
224
208
238
347
501
619
650
610
525
394
197
-43
-258
-416
-567
-764
-990
-1158
-1202
-1141
-1042
-962
-919
-916
-946
-978
-965
-894
-815
-786
-796
-775
-678
-544
-446
-414
-404
-366
-307
-271
-273
-269
-217
-137
-92
-110
-151
-163
-144
-133
-146
-155
-127
-85
-92
-175
-286
-352
-358
-354
-397
-475
-520
-496
-443
-443
-522
-628
-684
-666
-613
-561
-491
-364
-167
71
314
543
754
929
1052
1122
1151
1135
1064
954
857
824
851
885
885
869
885
948
1020
1053
1033
987
956
951
958
957
943
928
922
916
891
837
772
740
767
833
889
911
931
1000
1129
1262
1324
1290
1204
1130
1100
1105
1117
1114
1094
1066
1048
1049
1069
1089
1087
1040
924
736
520
353
280
258
189
18
-193
-316
-271
-102
76
184
255
387
633
957
1256
1457
1572
1664
1768
1849
1872
1858
1867
1927
1998
2028
2027
2050
2125
2214
2262
2261
2238
2204
2152
2077
1999
1944
1913
1897
1896
1910
1927
1926
1907
1897
1907
1893
1786
1574
1319
1098
944
821
682
511
322
136
-16
-86
-40
106
277
413
549
789
1201
1731
2219
2535
2665
2685
2666
2616
2489
2248
1886
1422
908
436
113
-20
-23
-2
-23
-49
15
238
607
1012
1309
1392
1279
1103
1008
1009
982
812
540
359
409
643
910
1134
1367
1660
1951
2122
2125
2011
1808
1469
954
355
-156
-492
-716
-922
-1085
-1105
-957
-735
-555
-448
-384
-370
-453
-632
-833
-990
-1129
-1310
-1521
-1666
-1681
-1617
-1577
-1596
-1621
-1612
-1606
-1658
-1753
-1820
-1820
-1791
-1802
-1875
-1973
-2053
-2100
-2100
-2036
-1918
-1785
-1686
-1626
-1578
-1532
-1501
-1493
-1490
-1473
-1452
-1456
-1468
-1435
-1331
-1209
-1146
-1154
-1164
-1116
-1038
-1009
-1050
-1092
-1052
-956
-907
-968
-1090
-1170
-1152
-1079
-1011
-941
-806
-564
-252
53
302
490
625
693
681
600
487
378
287
221
188
187
195
194
187
191
193
157
68
-39
-97
-79
-29
-5
-5
27
116
213
239
172
89
73
117
136
65
-55
-120
-70
51
152
193
221
307
458
610
691
690
666
683
750
829
888
938
1007
1093
1158
1175
1161
1155
1162
1154
1107
1037
971
907
827
733
643
546
400
187
-28
-141
-122
-70
-109
-260
-424
-506
-526
-582
-731
-943
-1174
-1419
-1684
-1927
-2085
-2156
-2227
-2384
-2612
-2826
-2970
-3056
-3097
-3047
-2854
-2537
-2164
-1752
-1213
-471
422
1290
1974
2429
2691
2791
2738
2556
2285
1928
1457
886
337
-36
-181
-190
-189
-227
-279
-332
-415
-539
-662
-733
-756
-773
-799
-772
-633
-404
-174
-21
47
50
0
-107
-250
-383
-477
-532
-563
-578
-571
-546
-522
-504
-485
-469
-474
-522
-614
-731
-844
-934
-995
-1039
-1093
-1169
-1250
-1300
-1301
-1278
-1266
-1262
-1238
-1188
-1159
-1204
-1315
-1435
-1512
-1546
-1564
-1574
-1563
-1511
-1417
-1280
-1108
-931
-810
-785
-854
-972
-1094
-1214
-1346
-1488
-1616
-1690
-1677
-1571
-1407
-1252
-1155
-1099
-1023
-895
-763
-708
-748
-804
-783
-687
-606
-606
-637
-600
-463
-290
-149
-32
106
268
397
483
600
825
1136
1416
1586
1668
1716
1702
1528
1162
697
268
-82
-418
-789
-1131
-1320
-1294
-1120
-933
-815
-759
-723
-699
-717
-788
-873
-921
-924
-927
-965
-1006
-973
-838
-672
-581
-605
-671
-656
-512
-303
-139
-65
-43
-9
48
96
122
166
256
368
444
466
479
528
583
580
500
412
403
470
521
488
413
416
556
772
957
1069
1159
1283
1427
1533
1570
1552
1495
1391
1251
1132
1110
1211
1379
1530
1621
1673
1725
1791
1836
1801
1659
1428
1150
861
569
271
-25
-309
-581
-862
-1173
-1520
-1884
-2219
-2445
-2481
-2320
-2043
-1746
-1428
-976
-293
565
1407
2054
2457
2674
2788
2839
2824
2711
2454
2042
1546
1116
876
826
852
843
783
738
769
874
999
1092
1134
1134
1101
1045
981
925
883
844
790
713
617
515
425
360
325
307
283
240
189
152
125
81
3
-90
-152
-166
-171
-216
-301
-370
-369
-308
-251
-256
-316
-382
-410
-405
-406
-448
-537
-643
-725
-767
-786
-811
-847
-874
-871
-846
-833
-849
-870
-857
-797
-719
-657
-636
-668
-754
-871
-968
-1012
-1022
-1060
-1144
-1201
-1143
-980
-822
-765
-790
-808
-790
-803
-905
-1049
-1127
-1101
-1055
-1092
-1203
-1277
-1226
-1086
-989
-1023
-1145
-1239
-1234
-1180
-1180
-1265
-1370
-1410
-1378
-1338
-1340
-1363
-1366
-1350
-1326
-1259
-1095
-842
-599
-462
-418
-364
-235
-83
5
14
11
62
159
236
247
200
152
152
182
159
5
-249
-456
-484
-358
-256
-312
-467
-535
-407
-166
22
72
34
5
22
66
119
169
198
180
120
61
44
66
93
95
80
65
55
43
27
12
12
34
77
134
195
263
359
500
670
819
902
926
954
1030
1132
1195
1195
1184
1220
1282
1291
1202
1071
978
929
845
656
388
124
-89
-280
-494
-715
-881
-972
-1046
-1170
-1332
-1433
-1381
-1182
-938
-738
-562
-304
129
728
1375
1940
2351
2610
2756
2824
2815
2706
2470
2107
1654
1191
797
524
370
293
234
148
35
-67
-114
-101
-63
-32
-2
45
96
131
163
225
316
358
250
-25
-373
-674
-878
-1008
-1087
-1105
-1043
-913
-744
-548
-343
-182
-137
-226
-386
-534
-646
-754
-871
-955
-961
-906
-850
-832
-837
-834
-841
-900
-1015
-1130
-1184
-1172
-1144
-1140
-1144
-1101
-997
-884
-832
-854
-894
-890
-836
-774
-746
-757
-779
-793
-804
-824
-859
-902
-947
-985
-1009
-1016
-1004
-981
-947
-900
-842
-788
-757
-755
-758
-737
-675
-592
-516
-451
-370
-246
-86
69
176
228
263
315
390
467
522
559
606
676
751
797
799
774
740
690
591
436
262
118
17
-61
-127
-173
-193
-210
-248
-301
-345
-386
-467
-622
-816
-977
-1076
-1153
-1266
-1419
-1546
-1585
-1533
-1445
-1368
-1311
-1252
-1183
-1124
-1099
-1104
-1113
-1109
-1095
-1077
-1028
-910
-723
-525
-377
-282
-181
-30
137
236
235
194
207
306
439
542
605
678
800
945
1048
1077
1048
1009
1002
1035
1088
1136
1165
1191
1252
1361
1465
1489
1417
1316
1246
1192
1089
925
770
696
680
624
467
250
61
-79
-226
-431
-691
-964
-1219
-1455
-1661
-1798
-1822
-1738
-1603
-1483
-1388
-1256
-991
-533
64
648
1071
1312
1491
1737
2047
2285
2331
2189
1960
1728
1519
1344
1222
1145
1054
899
714
599
609
689
737
725
700
700
701
655
558
438
312
169
-22
-262
-494
-626
-590
-405
-170
42
247
493
731
788
520
-28
-640
-1130
-1450
-1620
-1613
-1364
-872
-240
420
1053
1613
1990
2041
1736
1211
673
236
-123
-453
-726
-867
-857
-778
-728
-760
-877
-1052
-1258
-1475
-1685
-1885
-2070
-2218
-2300
-2293
-2205
-2072
-1959
-1942
-2079
-2340
-2608
-2773
-2823
-2818
-2766
-2583
-2210
-1699
-1163
-655
-176
204
316
63
-415
-843
-1065
-1157
-1239
-1283
-1151
-809
-407
-119
27
90
90
-3
-198
-417
-567
-606
-533
-368
-167
-19
1
-110
-299
-507
-694
-805
-779
-605
-373
-184
-37
141
372
567
617
533
434
391
364
289
198
171
201
171
27
-126
-129
12
100
-12
-227
-322
-230
-134
-230
-474
-640
-592
-444
-385
-448
-485
-376
-161
26
124
174
219
244
216
151
116
157
268
408
530
607
630
624
614
599
554
473
389
351
371
417
440
433
417
409
387
332
267
241
286
372
440
460
468
508
569
590
491
256
-56
-359
-610
-822
-1029
-1239
-1450
-1662
-1899
-2147
-2328
-2348
-2189
-1944
-1702
-1424
-950
-162
859
1876
2677
3208
3536
3728
3789
3688
3406
2955
2374
1748
1203
835
650
577
543
528
549
599
653
694
732
768
779
736
636
514
417
373
376
398
400
359
287
228
219
252
279
259
196
125
82
66
53
22
-16
-28
6
72
134
164
164
139
94
23
-65
-153
-226
-284
-323
-325
-279
-220
-218
-320
-493
-658
-775
-887
-1081
-1366
-1644
-1788
-1761
-1651
-1566
-1534
-1488
-1381
-1254
-1191
-1206
-1211
-1129
-1002
-949
-1010
-1085
-1040
-871
-725
-733
-867
-968
-919
-759
-609
-532
-478
-368
-206
-67
0
45
147
318
482
566
578
586
616
616
529
366
213
148
185
277
382
486
616
811
1070
1324
1487
1530
1521
1555
1630
1655
1585
1505
1528
1661
1793
1850
1891
2017
2218
2358
2340
2209
2097
2067
2056
1963
1747
1450
1148
902
738
613
451
227
22
-38
97
333
511
562
564
641
849
1125
1337
1389
1279
1111
1031
1120
1318
1486
1546
1572
1699
1956
2206
2294
2211
2090
2025
1959
1797
1576
1458
1534
1712
1828
1854
1920
2119
2372
2498
2396
2125
1806
1493
1167
808
434
83
-214
-447
-623
-755
-881
-1036
-1224
-1423
-1618
-1820
-2045
-2291
-2544
-2823
-3174
-3606
-4017
-4226
-4116
-3754
-3328
-2948
-2521
-1851
-883
192
1065
1562
1730
1737
1690
1587
1379
1047
634
211
-152
-408
-549
-600
-616
-648
-710
-794
-869
-904
-891
-858
-844
-871
-936
-1007
-1050
-1056
-1046
-1055
-1095
-1144
-1161
-1140
-1111
-1097
-1094
-1077
-1036
-977
-911
-843
-792
-779
-811
-859
-880
-870
-865
-899
-962
-1019
-1047
-1052
-1044
-1029
-1008
-988
-982
-991
-1014
-1048
-1087
-1122
-1152
-1193
-1261
-1342
-1397
-1402
-1382
-1390
-1447
-1513
-1533
-1503
-1473
-1503
-1595
-1696
-1747
-1734
-1698
-1689
-1721
-1769
-1795
-1787
-1760
-1742
-1760
-1825
-1926
-2021
-2065
-2047
-2014
-2022
-2085
-2157
-2178
-2136
-2071
-2034
-2048
-2095
-2145
-2181
-2205
-2237
-2294
-2356
-2387
-2362
-2289
-2195
-2092
-1977
-1858
-1756
-1698
-1693
-1717
-1745
-1768
-1788
-1816
-1855
-1890
-1885
-1814
-1694
-1577
-1507
-1483
-1471
-1452
-1445
-1477
-1539
-1587
-1594
-1577
-1578
-1620
-1673
-1688
-1649
-1588
-1549
-1537
-1521
-1493
-1483
-1528
-1607
-1661
-1660
-1637
-1645
-1670
-1642
-1523
-1356
-1216
-1126
-1054
-971
-901
-877
-890
-890
-846
-782
-749
-757
-757
-695
-576
-465
-433
-481
-544
-566
-545
-529
-552
-594
-626
-650
-695
-770
-840
-866
-849
-830
-836
-852
-850
-826
-820
-862
-943
-1047
-1183
-1386
-1655
-1922
-2101
-2168
-2193
-2270
-2430
-2615
-2739
-2755
-2672
-2530
-2372
-2232
-2099
-1895
-1509
-891
-142
528
959
1159
1274
1414
1535
1506
1268
896
505
135
-215
-498
-628
-595
-522
-555
-686
-751
-635
-410
-245
-198
-180
-113
-62
-124
-269
-345
-273
-166
-201
-399
-580
-574
-402
-244
-229
-329
-435
-486
-507
-534
-562
-584
-618
-684
-747
-747
-670
-593
-622
-788
-1016
-1212
-1349
-1459
-1572
-1666
-1708
-1705
-1706
-1731
-1750
-1719
-1644
-1583
-1585
-1635
-1673
-1659
-1606
-1554
-1537
-1569
-1643
-1733
-1803
-1826
-1817
-1831
-1902
-2003
-2071
-2061
-1990
-1917
-1892
-1912
-1931
-1893
-1792
-1677
-1607
-1589
-1570
-1484
-1325
-1156
-1040
-980
-942
-893
-832
-769
-699
-621
-562
-566
-635
-698
-687
-613
-561
-592
-658
-658
-568
-475
-483
-600
-759
-905
-1051
-1219
-1380
-1481
-1507
-1482
-1407
-1251
-1005
-731
-519
-401
-339
-302
-315
-419
-597
-773
-881
-927
-948
-962
-941
-870
-781
-723
-699
-677
-622
-550
-504
-506
-528
-532
-511
-478
-440
-386
-318
-263
-232
-189
-80
90
251
336
356
377
441
528
599
650
708
786
856
892
912
958
1033
1085
1065
983
908
894
925
939
899
831
774
722
636
512
401
355
361
364
334
299
296
323
332
279
150
-38
-263
-493
-696
-858
-1014
-1212
-1464
-1713
-1864
-1857
-1709
-1498
-1307
-1147
-945
-610
-114
458
959
1291
1463
1554
1621
1657
1603
1420
1120
759
397
73
-213
-472
-708
-893
-993
-1011
-983
-928
-848
-750
-667
-637
-657
-668
-631
-580
-592
-685
-783
-792
-723
-686
-767
-940
-1092
-1150
-1147
-1160
-1216
-1285
-1339
-1400
-1482
-1547
-1535
-1462
-1433
-1527
-1697
-1820
-1846
-1841
-1875
-1920
-1919
-1900
-1960
-2117
-2245
-2241
-2191
-2271
-2496
-2662
-2600
-2383
-2227
-2212
-2217
-2136
-2042
-2080
-2246
-2384
-2405
-2389
-2438
-2514
-2502
-2391
-2296
-2287
-2293
-2220
-2118
-2137
-2337
-2600
-2756
-2732
-2599
-2465
-2385
-2337
-2257
-2096
-1872
-1678
-1610
-1654
-1688
-1603
-1434
-1316
-1325
-1391
-1393
-1310
-1231
-1241
-1307
-1320
-1221
-1066
-961
-958
-1009
-1023
-963
-865
-803
-807
-835
-811
-713
-594
-538
-573
-642
-669
-625
-539
-468
-456
-505
-577
-615
-572
-457
-338
-286
-317
-379
-413
-407
-394
-410
-447
-475
-477
-462
-447
-430
-400
-348
-281
-209
-139
-71
-20
-18
-89
-202
-286
-288
-222
-136
-59
28
161
352
570
768
916
998
1017
1003
983
952
883
762
625
524
490
508
558
628
713
797
871
955
1073
1206
1277
1229
1083
919
769
579
287
-72
-372
-502
-475
-387
-324
-275
-179
-26
103
85
-143
-520
-897
-1156
-1296
-1417
-1588
-1728
-1636
-1172
-407
405
1032
1420
1665
1846
1928
1826
1514
1058
543
18
-477
-878
-1126
-1228
-1260
-1297
-1355
-1397
-1395
-1359
-1327
-1319
-1325
-1327
-1321
-1317
-1321
-1335
-1361
-1401
-1465
-1559
-1678
-1787
-1837
-1802
-1706
-1603
-1523
-1464
-1413
-1374
-1359
-1356
-1338
-1299
-1261
-1248
-1248
-1232
-1201
-1191
-1218
-1249
-1244
-1219
-1222
-1272
-1321
-1308
-1238
-1183
-1199
-1259
-1295
-1283
-1264
-1292
-1375
-1465
-1520
-1543
-1573
-1632
-1701
-1738
-1732
-1715
-1729
-1774
-1809
-1804
-1778
-1772
-1790
-1798
-1771
-1729
-1695
-1665
-1606
-1515
-1427
-1366
-1299
-1186
-1049
-961
-960
-983
-938
-810
-676
-602
-562
-473
-313
-152
-57
-16
30
93
116
61
-19
-40
7
46
14
-60
-99
-83
-76
-133
-243
-347
-415
-467
-521
-567
-581
-563
-540
-546
-605
-719
-865
-992
-1069
-1119
-1189
-1291
-1366
-1357
-1278
-1209
-1206
-1240
-1255
-1233
-1206
-1191
-1152
-1053
-901
-739
-586
-426
-243
-56
95
182
202
165
102
62
89
175
268
326
367
454
617
823
999
1099
1121
1102
1090
1105
1136
1138
1091
1024
983
982
986
938
815
646
487
369
285
198
101
27
6
-2
-113
-408
-824
-1194
-1405
-1507
-1637
-1838
-1979
-1914
-1685
-1505
-1572
-1878
-2215
-2374
-2299
-2093
-1867
-1619
-1227
-591
269
1208
2050
2686
3094
3283
3271
3080
2758
2340
1833
1249
674
235
-17
-160
-339
-615
-915
-1130
-1233
-1276
-1290
-1242
-1092
-857
-614
-417
-257
-122
-41
-52
-144
-274
-418
-596
-831
-1092
-1308
-1437
-1501
-1557
-1634
-1707
-1736
-1713
-1673
-1655
-1661
-1655
-1587
-1446
-1286
-1196
-1231
-1378
-1573
-1754
-1902
-2033
-2156
-2246
-2268
-2213
-2111
-2009
-1943
-1931
-1974
-2044
-2088
-2073
-2025
-2001
-2027
-2065
-2047
-1957
-1852
-1785
-1743
-1657
-1489
-1292
-1150
-1100
-1103
-1095
-1074
-1090
-1172
-1283
-1348
-1333
-1280
-1258
-1296
-1357
-1395
-1408
-1440
-1541
-1720
-1937
-2135
-2278
-2374
-2448
-2504
-2514
-2459
-2369
-2305
-2308
-2365
-2434
-2500
-2567
-2630
-2664
-2652
-2616
-2585
-2557
-2509
-2427
-2334
-2264
-2229
-2205
-2157
-2073
-1971
-1879
-1816
-1776
-1730
-1659
-1574
-1511
-1492
-1506
-1536
-1571
-1610
-1641
-1654
-1660
-1679
-1708
-1705
-1629
-1500
-1383
-1312
-1239
-1099
-897
-715
-620
-581
-508
-356
-167
-13
83
167
294
463
621
715
741
736
739
757
786
826
884
954
1000
987
917
837
787
758
702
584
422
281
221
249
315
353
335
284
237
198
139
38
-77
-154
-163
-126
-115
-197
-377
-604
-816
-1012
-1251
-1584
-1990
-2392
-2727
-2971
-3103
-3064
-2815
-2410
-1961
-1503
-940
-164
788
1726
2456
2913
3152
3239
3206
3071
2838
2477
1954
1310
711
323
160
72
-88
-301
-426
-393
-293
-274
-360
-432
-389
-287
-288
-476
-754
-942
-958
-889
-891
-1017
-1171
-1208
-1076
-869
-729
-706
-721
-670
-561
-504
-565
-666
-672
-547
-394
-313
-276
-181
-20
100
109
86
168
370
556
613
593
636
794
969
1038
991
921
919
1009
1165
1348
1509
1591
1538
1332
1010
630
230
-187
-631
-1079
-1441
-1612
-1553
-1342
-1116
-952
-829
-703
-598
-595
-730
-931
-1081
-1129
-1112
-1094
-1082
-1004
-786
-430
-44
228
324
314
307
331
290
105
-185
-460
-670
-883
-1155
-1403
-1494
-1416
-1311
-1310
-1384
-1398
-1287
-1104
-911
-704
-455
-183
71
320
626
1009
1391
1652
1742
1687
1531
1319
1101
922
772
590
353
154
138
356
707
1026
1241
1387
1501
1528
1387
1084
728
421
155
-133
-431
-635
-652
-513
-344
-236
-175
-101
-9
51
49
-10
-132
-373
-769
-1260
-1724
-2099
-2432
-2767
-3045
-3153
-3059
-2869
-2704
-2565
-2355
-2051
-1760
-1601
-1554
-1483
-1302
-1076
-930
-896
-876
-763
-551
-341
-230
-215
-231
-231
-246
-320
-444
-545
-582
-626
-804
-1138
-1470
-1601
-1501
-1353
-1343
-1469
-1541
-1407
-1103
-797
-604
-509
-416
-230
106
616
1250
1854
2268
2451
2521
2608
2699
2658
2391
1957
1488
1065
693
393
216
182
210
200
157
179
300
412
366
146
-118
-321
-485
-689
-932
-1121
-1198
-1220
-1267
-1331
-1327
-1223
-1095
-1054
-1113
-1189
-1209
-1193
-1223
-1335
-1480
-1577
-1593
-1567
-1565
-1610
-1675
-1717
-1731
-1749
-1788
-1821
-1807
-1745
-1693
-1708
-1790
-1884
-1939
-1958
-1968
-1974
-1961
-1931
-1917
-1940
-1972
-1957
-1882
-1807
-1823
-1965
-2170
-2308
-2288
-2131
-1948
-1826
-1746
-1611
-1373
-1096
-903
-855
-912
-991
-1054
-1122
-1212
-1303
-1356
-1352
-1299
-1213
-1115
-1033
-986
-965
-945
-916
-897
-908
-933
-924
-853
-740
-644
-600
-590
-579
-547
-517
-523
-572
-631
-652
-626
-584
-560
-559
-550
-514
-462
-423
-410
-420
-451
-506
-576
-622
-603
-523
-438
-405
-416
-407
-344
-282
-316
-466
-638
-715
-682
-626
-622
-648
-619
-505
-366
-277
-250
-244
-226
-198
-170
-119
-8
161
338
471
563
660
784
888
892
762
566
424
413
508
610
642
613
589
627
724
813
821
727
591
516
561
704
886
1077
1298
1577
1885
2150
2304
2329
2265
2158
2021
1843
1630
1436
1310
1243
1169
1023
806
575
365
153
-104
-413
-743
-1058
-1334
-1546
-1677
-1747
-1805
-1849
-1794
-1524
-1001
-310
399
1006
1461
1775
1963
2033
1964
1715
1279
742
253
-65
-202
-237
-240
-212
-142
-61
-24
-33
-39
0
57
74
33
-31
-73
-105
-167
-265
-357
-395
-372
-306
-195
-28
192
419
583
640
591
474
318
144
-29
-172
-254
-266
-228
-184
-165
-177
-209
-244
-276
-310
-348
-388
-420
-432
-417
-380
-333
-295
-277
-288
-328
-383
-429
-436
-401
-356
-347
-405
-520
-653
-782
-925
-1113
-1352
-1603
-1807
-1932
-1986
-1991
-1943
-1833
-1676
-1521
-1410
-1339
-1266
-1167
-1064
-996
-965
-930
-852
-739
-628
-538
-450
-350
-255
-202
-191
-173
-96
36
165
241
270
292
329
364
374
363
350
340
320
297
310
390
516
622
662
657
659
681
667
545
306
20
-231
-422
-595
-786
-969
-1079
-1092
-1055
-1033
-1045
-1065
-1079
-1113
-1190
-1281
-1325
-1289
-1185
-1048
-898
-742
-588
-440
-289
-135
-2
80
125
206
375
598
789
901
964
1035
1126
1212
1290
1379
1470
1503
1440
1323
1230
1176
1098
938
735
583
528
529
528
524
552
627
700
704
594
378
84
-257
-612
-936
-1192
-1371
-1494
-1571
-1583
-1513
-1399
-1338
-1410
-1590
-1757
-1826
-1858
-1997
-2326
-2760
-3127
-3309
-3297
-3151
-2935
-2683
-2403
-2036
-1468
-641
329
1184
1726
1994
2200
2485
2756
2784
2439
1829
1184
668
294
5
-214
-332
-342
-296
-249
-192
-83
76
209
240
162
45
-44
-82
-86
-73
-41
23
115
210
270
265
212
167
170
196
170
54
-101
-206
-234
-240
-273
-313
-311
-262
-225
-237
-265
-262
-246
-285
-415
-596
-763
-885
-959
-974
-923
-838
-779
-757
-716
-604
-468
-413
-482
-599
-658
-644
-638
-697
-787
-833
-803
-740
-702
-707
-725
-710
-639
-528
-434
-400
-410
-408
-364
-333
-405
-593
-808
-937
-956
-922
-879
-795
-618
-367
-131
33
159
316
503
625
603
479
380
396
495
594
660
730
838
946
975
894
742
573
396
202
20
-81
-53
80
252
420
583
754
916
1015
999
856
625
370
132
-99
-361
-653
-920
-1093
-1151
-1136
-1109
-1088
-1046
-957
-834
-715
-636
-629
-723
-919
-1184
-1453
-1671
-1815
-1871
-1808
-1602
-1285
-953
-690
-504
-340
-176
-64
-82
-226
-378
-422
-354
-284
-298
-370
-398
-340
-262
-253
-313
-351
-292
-147
18
168
316
486
673
845
981
1078
1137
1171
1205
1257
1320
1356
1336
1283
1245
1237
1199
1064
821
541
288
50
-228
-561
-913
-1257
-1628
-2060
-2489
-2743
-2711
-2475
-2235
-2077
-1841
-1286
-367
667
1491
1978
2246
2459
2638
2667
2451
2009
1436
817
219
-282
-622
-790
-853
-883
-909
-909
-865
-766
-600
-368
-137
-3
4
-24
51
249
430
452
335
230
246
330
352
265
162
144
198
237
209
173
227
382
532
565
487
410
414
424
265
-136
-643
-1015
-1105
-963
-721
-451
-143
217
571
841
1008
1072
997
726
284
-182
-499
-615
-623
-627
-654
-708
-859
-1204
-1717
-2176
-2329
-2124
-1740
-1375
-1036
-579
84
825
1370
1478
1093
367
-412
-979
-1224
-1218
-1092
-885
-548
-82
396
724
821
703
384
-123
-725
-1218
-1438
-1404
-1281
-1175
-1037
-790
-494
-300
-281
-355
-419
-481
-626
-849
-1021
-1018
-860
-666
-509
-338
-71
284
625
852
935
902
786
603
379
152
-40
-183
-279
-333
-340
-292
-189
-40
130
351
386
415
389
353
353
412
515
599
599
502
363
276
272
294
262
169
73
6
-63
-175
-290
-310
-202
-66
-21
-54
-15
205
532
781
855
839
884
1041
1242
1411
1543
1674
1796
1862
1858
1814
1766
1709
1626
1528
1453
1415
1373
1285
1173
1110
1136
1214
1257
1196
1050
894
787
702
547
258
-140
-552
-924
-1273
-1637
-1972
-2146
-2074
-1813
-1511
-1246
-923
-380
434
1370
2162
2638
2830
2915
3043
3197
3224
2994
2523
1963
1462
1067
739
443
192
9
-123
-239
-339
-383
-358
-321
-343
-429
-526
-596
-666
-769
-889
-965
-976
-970
-996
-1038
-1027
-926
-779
-647
-548
-452
-348
-272
-259
-295
-328
-338
-358
-436
-554
-630
-601
-487
-386
-373
-423
-438
-361
-246
-213
-326
-522
-660
-653
-539
-427
-382
-378
-342
-243
-121
-42
-35
-85
-163
-265
-400
-544
-647
-670
-632
-591
-585
-586
-539
-419
-265
-137
-57
-19
-28
-121
-325
-586
-793
-865
-806
-679
-529
-346
-102
190
466
660
747
749
701
615
481
311
151
63
51
49
-14
-125
-204
-215
-221
-323
-537
-770
-924
-1021
-1157
-1384
-1641
-1822
-1896
-1901
-1873
-1801
-1648
-1411
-1118
-804
-514
-284
-143
-78
-24
79
220
343
422
490
592
713
764
675
480
298
229
256
281
247
197
223
355
509
580
551
512
552
643
680
610
520
546
712
868
824
541
177
-58
-71
81
279
493
809
1295
1896
2464
2873
3114
3262
3363
3389
3288
3064
2788
2555
2438
2483
2687
2965
3191
3291
3283
3218
3067
2692
1955
875
-357
-1486
-2322
-2811
-3012
-3042
-3007
-2925
-2733
-2364
-1824
-1221
-695
-328
-110
34
214
521
974
1494
1943
2211
2287
2254
2190
2111
1961
1682
1273
793
314
-99
-413
-636
-825
-1042
-1299
-1520
-1590
-1462
-1198
-927
-750
-682
-675
-683
-687
-691
-687
-663
-621
-584
-582
-617
-667
-731
-837
-1018
-1244
-1441
-1541
-1544
-1490
-1398
-1257
-1069
-862
-662
-452
-210
23
149
109
-25
-111
-73
27
61
-18
-133
-170
-103
-8
31
11
9
80
191
278
332
405
522
626
629
515
360
251
200
161
106
54
30
34
52
80
115
138
136
130
161
233
295
294
248
233
297
412
510
566
618
699
786
831
814
778
770
790
804
798
795
820
849
835
759
661
593
542
447
267
30
-202
-392
-560
-745
-959
-1182
-1393
-1587
-1752
-1858
-1899
-1917
-1967
-2054
-2121
-2120
-2079
-2080
-2157
-2250
-2274
-2214
-2127
-2068
-2026
-1954
-1836
-1699
-1580
-1497
-1437
-1389
-1342
-1280
-1190
-1080
-970
-873
-781
-676
-540
-379
-210
-57
60
148
222
293
361
410
435
448
464
487
513
540
564
571
552
509
464
436
421
402
373
338
311
299
299
299
280
238
187
153
144
137
112
82
70
62
4
-116
-252
-344
-411
-541
-780
-1056
-1245
-1311
-1356
-1515
-1818
-2172
-2442
-2544
-2460
-2231
-1927
-1611
-1271
-801
-84
853
1806
2537
2959
3167
3302
3402
3384
3173
2785
2286
1725
1133
586
195
5
-63
-138
-246
-272
-99
228
542
720
803
900
1028
1096
1037
891
760
691
641
564
487
477
563
700
817
889
949
1038
1144
1196
1122
935
721
566
472
359
181
-22
-165
-212
-207
-202
-216
-234
-256
-303
-396
-518
-651
-807
-1016
-1290
-1590
-1838
-1994
-2113
-2331
-2728
-3210
-3548
-3556
-3255
-2826
-2412
-1999
-1489
-860
-211
305
572
547
263
-171
-611
-954
-1190
-1360
-1471
-1488
-1393
-1232
-1052
-856
-622
-384
-229
-192
-213
-193
-93
46
179
292
385
435
421
376
366
432
543
632
676
710
772
849
880
823
706
606
576
582
537
402
241
166
229
378
519
616
706
833
979
1079
1071
948
753
544
360
206
67
-67
-181
-239
-233
-207
-222
-295
-383
-432
-435
-431
-456
-492
-486
-403
-262
-110
17
120
222
336
456
576
701
844
1002
1149
1254
1310
1340
1373
1414
1450
1469
1474
1487
1518
1564
1610
1646
1660
1639
1577
1486
1395
1328
1278
1227
1169
1135
1158
1228
1296
1323
1310
1280
1235
1152
1024
855
637
360
35
-287
-575
-848
-1151
-1483
-1785
-2015
-2200
-2356
-2407
-2241
-1852
-1387
-991
-622
-94
678
1555
2303
2828
3211
3556
3855
4033
4051
3929
3677
3288
2802
2330
1976
1758
1618
1517
1446
1410
1417
1478
1600
1733
1770
1640
1392
1150
992
879
733
549
389
271
126
-106
-383
-603
-722
-803
-919
-1047
-1100
-1055
-990
-1002
-1101
-1227
-1348
-1491
-1682
-1878
-2008
-2050
-2066
-2116
-2170
-2142
-1978
-1730
-1526
-1451
-1486
-1539
-1534
-1469
-1403
-1390
-1411
-1397
-1297
-1132
-981
-906
-899
-903
-873
-824
-816
-881
-967
-977
-867
-717
-656
-722
-809
-804
-722
-701
-835
-1062
-1239
-1303
-1323
-1367
-1406
-1354
-1196
-1010
-887
-850
-858
-874
-901
-962
-1063
-1184
-1307
-1421
-1522
-1612
-1698
-1773
-1794
-1703
-1474
-1141
-776
-428
-99
234
575
889
1113
1203
1155
1025
898
841
859
907
946
988
1071
1196
1303
1323
1252
1147
1057
971
855
711
602
595
697
843
948
972
932
872
830
810
796
780
762
745
728
710
706
744
819
889
916
906
901
926
936
866
712
544
446
423
408
357
316
391
643
1030
1441
1765
1960
2052
2098
2132
2150
2117
2018
1889
1794
1783
1852
1964
2082
2174
2220
2232
2232
2237
2231
2169
2016
1774
1465
1122
769
430
134
-114
-348
-621
-946
-1264
-1485
-1562
-1540
-1509
-1516
-1508
-1388
-1108
-719
-333
-23
203
387
556
693
747
669
471
237
72
17
32
62
117
252
468
675
760
703
580
470
364
212
8
-193
-343
-440
-497
-501
-439
-332
-228
-154
-94
-25
37
66
70
99
181
282
347
365
378
426
505
579
621
627
600
537
436
308
153
-29
-232
-429
-587
-699
-781
-856
-931
-997
-1047
-1084
-1127
-1195
-1293
-1398
-1476
-1505
-1498
-1483
-1473
-1457
-1430
-1405
-1395
-1390
-1369
-1332
-1303
-1291
-1268
-1196
-1087
-988
-933
-900
-839
-725
-578
-435
-314
-228
-187
-191
-214
-224
-212
-194
-173
-117
-3
152
307
440
571
720
865
950
947
893
848
838
844
845
846
868
922
994
1063
1103
1097
1041
955
868
795
738
702
694
702
663
513
268
25
-128
-188
-211
-214
-156
-31
71
57
-48
-101
-9
158
254
247
258
435
770
1115
1324
1374
1347
1325
1301
1187
925
587
343
294
372
454
550
798
1235
1639
1710
1418
1076
991
1109
1102
787
379
281
663
1302
1846
2133
2265
2422
2665
2894
2962
2812
2499
2118
1742
1408
1153
1012
991
1012
961
801
623
527
490
362
27
-457
-903
-1157
-1217
-1211
-1262
-1376
-1464
-1431
-1251
-974
-690
-493
-436
-494
-531
-354
125
784
1378
1777
2068
2449
2985
3522
3827
3796
3483
3003
2457
1935
1515
1206
937
629
290
18
-101
-80
1
64
74
32
-30
-36
60
206
299
312
349
516
764
936
958
949
1077
1331
1508
1438
1178
953
929
1069
1197
1190
1085
1035
1152
1408
1658
1769
1716
1576
1426
1279
1112
918
713
495
243
-19
-206
-252
-196
-164
-239
-374
-469
-498
-523
-590
-642
-592
-439
-283
-218
-231
-228
-144
-15
81
103
75
40
14
-15
-51
-81
-107
-165
-290
-461
-605
-665
-669
-682
-733
-781
-786
-782
-846
-996
-1142
-1195
-1166
-1154
-1214
-1288
-1271
-1143
-984
-883
-863
-896
-959
-1035
-1088
-1067
-956
-795
-636
-485
-319
-148
-22
15
-27
-101
-182
-278
-397
-504
-553
-532
-480
-437
-416
-395
-357
-309
-281
-295
-353
-421
-453
-420
-339
-261
-220
-198
-144
-24
145
320
469
587
693
816
978
1177
1379
1535
1630
1700
1805
1956
2105
2196
2214
2199
2198
2218
2224
2199
2165
2162
2209
2275
2301
2252
2146
2027
1912
1766
1544
1241
919
658
502
438
409
379
352
351
377
408
407
361
287
212
140
29
-157
-400
-625
-774
-877
-1024
-1266
-1561
-1832
-2056
-2263
-2449
-2515
-2359
-1995
-1544
-1086
-548
215
1216
2259
3073
3525
3698
3767
3828
3822
3616
3146
2504
1877
1436
1224
1148
1088
998
920
918
1005
1144
1279
1379
1436
1455
1448
1423
1383
1318
1232
1150
1113
1135
1189
1241
1289
1369
1499
1635
1714
1708
1637
1530
1394
1222
1025
825
646
512
449
460
504
530
524
528
563
567
457
236
20
-86
-115
-187
-357
-539
-606
-557
-515
-566
-657
-677
-593
-496
-493
-596
-723
-815
-885
-981
-1114
-1221
-1208
-1027
-701
-300
139
640
1221
1807
2217
2305
2092
1760
1463
1192
834
365
-84
-348
-405
-379
-386
-443
-502
-546
-616
-739
-883
-1002
-1088
-1158
-1217
-1254
-1269
-1282
-1292
-1264
-1171
-1035
-911
-819
-715
-553
-354
-194
-119
-109
-126
-179
-314
-539
-786
-980
-1109
-1221
-1351
-1477
-1562
-1619
-1696
-1810
-1922
-1974
-1972
-1979
-2041
-2130
-2170
-2110
-1972
-1814
-1673
-1543
-1401
-1238
-1058
-868
-681
-512
-371
-242
-95
83
275
449
593
712
818
911
994
1072
1135
1164
1144
1101
1072
1063
1041
983
913
875
873
865
821
758
726
733
743
713
643
565
509
474
442
407
377
360
346
314
259
195
142
96
32
-86
-272
-509
-763
-1004
-1229
-1454
-1696
-1965
-2258
-2579
-2919
-3229
-3419
-3420
-3258
-3037
-2816
-2520
-1994
-1180
-228
601
1143
1434
1612
1748
1798
1673
1346
877
348
-173
-627
-963
-1161
-1267
-1358
-1482
-1599
-1623
-1507
-1302
-1130
-1079
-1130
-1197
-1218
-1206
-1219
-1295
-1411
-1524
-1607
-1657
-1670
-1638
-1575
-1525
-1534
-1601
-1662
-1650
-1562
-1466
-1435
-1466
-1496
-1470
-1404
-1369
-1409
-1495
-1567
-1604
-1631
-1670
-1705
-1712
-1693
-1667
-1638
-1607
-1586
-1601
-1648
-1682
-1673
-1648
-1665
-1729
-1781
-1770
-1716
-1678
-1660
-1615
-1523
-1453
-1481
-1582
-1646
-1603
-1518
-1510
-1608
-1719
-1735
-1656
-1581
-1591
-1663
-1711
-1683
-1600
-1521
-1472
-1435
-1378
-1286
-1175
-1080
-1028
-1014
-1004
-957
-872
-781
-710
-647
-556
-423
-279
-168
-100
-54
-18
1
-5
-15
-9
3
-20
-93
-179
-218
-193
-158
-178
-257
-327
-326
-256
-192
-193
-255
-312
-327
-323
-342
-368
-355
-292
-242
-280
-385
-454
-424
-356
-361
-439
-431
-154
407
1053
1521
1681
1586
1361
1067
666
111
-555
-1201
-1691
-1965
-2025
-1896
-1618
-1266
-949
-756
-699
-727
-777
-822
-867
-919
-960
-954
-878
-718
-509
-321
-230
-256
-350
-436
-461
-417
-329
-238
-167
-118
-70
3
82
105
25
-133
-282
-354
-355
-353
-409
-524
-654
-755
-826
-906
-1033
-1202
-1385
-1574
-1802
-2090
-2372
-2521
-2465
-2269
-2066
-1913
-1722
-1351
-757
-37
645
1175
1526
1732
1844
1899
1890
1770
1507
1124
701
328
60
-100
-174
-200
-216
-239
-252
-223
-150
-80
-53
-67
-84
-87
-94
-122
-155
-166
-149
-136
-156
-208
-265
-295
-298
-300
-326
-381
-444
-491
-525
-571
-649
-747
-829
-883
-936
-1026
-1154
-1270
-1328
-1334
-1340
-1381
-1445
-1501
-1538
-1582
-1655
-1747
-1828
-1883
-1919
-1953
-1994
-2038
-2074
-2087
-2074
-2057
-2068
-2102
-2100
-2004
-1824
-1636
-1502
-1411
-1307
-1184
-1105
-1145
-1303
-1508
-1687
-1818
-1920
-2006
-2065
-2069
-1996
-1854
-1688
-1546
-1448
-1381
-1333
-1313
-1318
-1309
-1248
-1165
-1146
-1222
-1303
-1267
-1114
-997
-1048
-1225
-1353
-1320
-1203
-1153
-1223
-1324
-1354
-1325
-1331
-1431
-1600
-1775
-1924
-2065
-2219
-2386
-2545
-2685
-2796
-2869
-2901
-2893
-2853
-2800
-2762
-2759
-2767
-2720
-2579
-2390
-2255
-2222
-2221
-2135
-1926
-1684
-1537
-1533
-1617
-1686
-1690
-1662
-1677
-1795
-1990
-2151
-2172
-2054
-1903
-1816
-1760
-1630
-1379
-1091
-890
-833
-877
-947
-1003
-1038
-1074
-1140
-1251
-1355
-1354
-1185
-907
-647
-482
-370
-227
-48
90
127
84
28
2
18
88
215
368
487
550
605
703
810
836
734
573
464
442
434
350
174
-40
-225
-350
-417
-459
-546
-742
-1040
-1324
-1443
-1336
-1075
-804
-616
-488
-303
61
637
1329
1951
2347
2512
2579
2692
2867
2974
2873
2535
2055
1570
1180
919
765
658
536
384
253
227
328
489
612
638
589
505
392
247
93
-29
-125
-240
-397
-545
-618
-630
-669
-776
-859
-790
-563
-338
-273
-353
-413
-334
-171
-76
-136
-291
-433
-515
-577
-668
-779
-876
-952
-1042
-1166
-1285
-1343
-1347
-1385
-1538
-1782
-2010
-2147
-2233
-2365
-2574
-2788
-2928
-2992
-3031
-3069
-3083
-3059
-3018
-2991
-2974
-2942
-2890
-2828
-2750
-2633
-2475
-2322
-2216
-2144
-2060
-1951
-1855
-1799
-1765
-1711
-1638
-1576
-1521
-1412
-1223
-1020
-918
-952
-1030
-1025
-919
-814
-802
-865
-898
-831
-698
-586
-545
-564
-598
-613
-599
-572
-561
-592
-656
-713
-720
-690
-681
-735
-832
-909
-930
-904
-873
-863
-868
-876
-885
-900
-929
-974
-1035
-1107
-1178
-1235
-1266
-1267
-1244
-1199
-1133
-1055
-983
-945
-955
-996
-1019
-989
-916
-845
-812
-794
-742
-634
-490
-340
-186
-17
162
324
444
526
587
633
660
664
650
624
577
519
491
532
630
706
684
572
460
441
506
560
514
381
262
244
314
382
386
357
363
418
466
449
380
322
294
247
128
-61
-269
-474
-689
-916
-1119
-1273
-1433
-1686
-2045
-2409
-2641
-2690
-2611
-2474
-2288
-1990
-1516
-845
-16
878
1711
2362
2769
2954
2993
2952
2839
2608
2220
1710
1195
803
567
424
301
194
149
177
223
243
268
364
540
712
786
762
728
765
870
966
983
913
802
694
589
476
361
295
317
395
438
393
315
308
404
498
450
228
-52
-242
-306
-349
-493
-748
-1012
-1181
-1253
-1313
-1434
-1601
-1746
-1830
-1882
-1935
-1967
-1934
-1840
-1756
-1746
-1791
-1801
-1719
-1606
-1572
-1666
-1816
-1905
-1887
-1834
-1850
-1962
-2098
-2169
-2158
-2121
-2110
-2133
-2157
-2168
-2183
-2216
-2248
-2247
-2207
-2152
-2109
-2079
-2037
-1960
-1843
-1696
-1543
-1406
-1288
-1187
-1095
-1007
-924
-859
-831
-862
-947
-1034
-1051
-980
-876
-810
-782
-711
-553
-368
-277
-323
-420
-457
-406
-331
-294
-289
-273
-221
-144
-58
25
82
78
7
-94
-174
-206
-209
-209
-220
-244
-270
-277
-251
-223
-257
-383
-544
-626
-579
-467
-398
-397
-372
-232
13
261
424
504
565
653
759
846
886
883
853
808
764
741
761
811
839
793
672
549
508
566
652
681
637
589
606
691
775
800
767
731
736
779
825
848
853
852
851
845
830
814
797
763
668
483
224
-53
-300
-526
-772
-1058
-1375
-1716
-2104
-2533
-2895
-3015
-2804
-2357
-1858
-1367
-754
135
1263
2396
3287
3838
4082
4065
3830
3462
3067
2676
2226
1677
1139
814
793
960
1104
1122
1058
998
970
947
924
910
899
857
764
651
570
524
476
408
338
299
295
316
355
412
482
542
568
552
496
401
277
159
94
100
144
169
139
70
1
-42
-81
-156
-286
-441
-556
-594
-578
-566
-595
-648
-693
-732
-810
-958
-1164
-1373
-1535
-1631
-1660
-1615
-1494
-1326
-1157
-1026
-961
-991
-1149
-1430
-1766
-2030
-2115
-1996
-1731
-1385
-983
-522
-33
416
748
933
985
916
729
464
223
118
173
302
399
452
521
638
743
737
603
435
326
277
229
166
146
217
328
362
274
146
83
95
86
-12
-167
-288
-341
-343
-295
-146
127
462
747
928
1048
1185
1355
1486
1493
1353
1138
976
951
1030
1074
969
742
542
474
481
407
183
-84
-236
-232
-159
-72
94
389
699
791
580
279
192
356
452
142
-526
-1117
-1202
-744
-60
547
1061
1660
2430
3238
3849
4118
4047
3710
3177
2513
1805
1171
708
438
307
231
162
113
137
248
383
443
375
203
0
-167
-280
-343
-374
-406
-490
-671
-928
-1186
-1384
-1522
-1642
-1746
-1806
-1832
-1917
-2145
-2467
-2700
-2679
-2421
-2099
-1865
-1694
-1414
-891
-176
519
992
1193
1212
1177
1145
1067
864
506
43
-429
-816
-1062
-1174
-1210
-1236
-1276
-1298
-1250
-1123
-954
-779
-595
-384
-178
-67
-106
-240
-334
-301
-181
-93
-108
-173
-151
58
423
813
1093
1229
1289
1359
1453
1522
1507
1406
1270
1154
1088
1074
1092
1113
1097
1025
923
839
794
763
714
646
594
581
584
561
498
409
317
228
132
19
-114
-264
-419
-551
-640
-704
-795
-944
-1123
-1261
-1328
-1371
-1465
-1618
-1763
-1844
-1883
-1959
-2108
-2275
-2379
-2415
-2455
-2554
-2683
-2762
-2749
-2687
-2636
-2601
-2530
-2381
-2158
-1909
-1675
-1469
-1280
-1100
-931
-783
-681
-657
-716
-813
-884
-885
-832
-783
-775
-790
-782
-727
-651
-602
-603
-626
-631
-600
-560
-540
-539
-534
-511
-499
-543
-656
-795
-887
-893
-836
-767
-714
-674
-638
-611
-608
-637
-693
-791
-949
-1152
-1322
-1362
-1246
-1048
-875
-765
-666
-520
-337
-183
-105
-86
-73
-34
30
108
204
323
450
557
628
676
724
782
839
873
872
856
862
909
962
956
864
737
665
691
765
814
820
842
939
1094
1225
1256
1181
1051
919
810
726
662
596
490
318
100
-103
-252
-368
-501
-672
-859
-1049
-1252
-1451
-1567
-1510
-1298
-1065
-921
-818
-579
-81
605
1270
1747
2015
2171
2305
2456
2626
2796
2931
2987
2922
2721
2399
1992
1543
1087
625
137
-364
-785
-976
-849
-469
-31
281
425
492
586
706
754
663
480
320
259
283
333
388
469
578
668
681
611
510
427
377
344
309
265
196
76
-92
-260
-371
-405
-396
-388
-395
-401
-392
-378
-383
-435
-542
-676
-782
-808
-761
-707
-715
-775
-813
-784
-736
-772
-929
-1140
-1298
-1363
-1391
-1456
-1561
-1637
-1608
-1467
-1293
-1176
-1133
-1092
-974
-775
-589
-505
-516
-522
-423
-206
72
354
609
822
971
1040
1028
941
784
566
322
112
-17
-53
-14
79
217
380
547
690
788
835
829
784
731
716
756
825
887
937
999
1091
1189
1232
1183
1054
896
760
672
642
666
721
776
819
858
891
889
823
710
610
543
463
319
142
43
90
238
387
495
604
746
877
917
853
740
627
509
369
227
140
132
181
251
335
437
546
636
700
756
821
892
963
1029
1080
1101
1101
1119
1191
1292
1355
1349
1330
1385
1540
1740
1931
2118
2311
2451
2432
2214
1873
1524
1209
881
492
79
-264
-469
-554
-586
-632
-715
-839
-1013
-1246
-1525
-1793
-1959
-1954
-1788
-1539
-1250
-864
-267
557
1455
2193
2636
2832
2909
2927
2827
2522
2014
1406
822
339
-16
-222
-267
-190
-82
-37
-85
-175
-256
-338
-472
-667
-839
-889
-802
-666
-580
-554
-515
-406
-271
-226
-339
-555
-733
-796
-790
-803
-854
-876
-832
-766
-740
-754
-787
-898
-1204
-1691
-2146
-2337
-2254
-2094
-1991
-1837
-1432
-774
-117
277
370
291
156
-23
-263
-533
-784
-994
-1143
-1180
-1059
-825
-619
-566
-668
-820
-925
-973
-1021
-1110
-1217
-1271
-1221
-1092
-963
-893
-891
-933
-982
-993
-915
-750
-595
-570
-672
-748
-650
-422
-254
-265
-364
-349
-142
138
311
318
239
181
175
199
229
267
317
371
419
458
490
513
509
457
353
232
142
104
98
90
79
101
173
251
268
217
161
144
128
45
-112
-263
-342
-360
-388
-449
-483
-421
-270
-111
-23
-13
-18
17
84
120
82
-2
-42
27
178
329
433
538
709
942
1148
1261
1306
1355
1430
1482
1462
1387
1322
1327
1412
1548
1692
1794
1827
1813
1798
1778
1701
1530
1307
1117
1002
925
857
838
903
989
967
801
633
634
789
889
754
446
197
145
196
133
-148
-546
-886
-1098
-1243
-1398
-1567
-1695
-1778
-1895
-2119
-2385
-2509
-2367
-2041
-1740
-1549
-1295
-718
225
1275
2100
2584
2866
3108
3305
3337
3159
2862
2547
2219
1839
1446
1144
993
913
790
613
480
491
635
822
978
1087
1151
1172
1166
1166
1168
1096
885
593
382
362
469
534
478
391
422
611
854
1016
1042
960
804
582
297
-18
-330
-623
-902
-1161
-1373
-1493
-1496
-1397
-1259
-1166
-1183
-1299
-1435
-1505
-1488
-1441
-1425
-1446
-1462
-1436
-1375
-1289
-1179
-1064
-996
-1029
-1149
-1256
-1254
-1156
-1065
-1076
-1163
-1210
-1132
-957
-801
-738
-741
-721
-625
-489
-391
-374
-411
-457
-496
-539
-576
-564
-469
-320
-186
-109
-62
21
145
244
261
224
228
315
432
494
503
539
643
738
718
588
468
444
453
372
178
-10
-69
-3
85
121
121
133
165
185
159
79
-40
-173
-286
-363
-425
-509
-604
-657
-633
-563
-502
-445
-335
-164
-4
68
68
100
221
366
423
375
317
331
400
440
418
394
440
558
682
759
794
817
836
842
845
872
937
1016
1081
1139
1208
1286
1339
1340
1301
1244
1161
1014
796
553
350
233
207
261
361
447
481
501
564
644
624
422
101
-178
-356
-563
-959
-1542
-2118
-2504
-2685
-2763
-2767
-2608
-2207
-1614
-998
-500
-152
124
440
873
1418
1991
2490
2881
3217
3566
3901
4102
4054
3739
3236
2644
2019
1410
881
500
300
262
316
396
476
564
662
718
666
513
371
358
473
594
588
458
309
207
115
-26
-189
-287
-271
-170
-35
112
250
336
353
345
377
431
399
234
24
-97
-112
-113
-158
-194
-144
-30
49
38
-12
-62
-168
-413
-783
-1152
-1419
-1587
-1702
-1764
-1727
-1569
-1311
-969
-548
-97
262
429
424
372
358
337
216
-13
-252
-402
-464
-500
-530
-516
-449
-395
-435
-563
-671
-654
-502
-311
-179
-118
-69
6
80
97
37
-65
-159
-228
-280
-299
-263
-186
-141
-198
-332
-451
-495
-511
-581
-698
-754
-665
-475
-313
-250
-239
-191
-83
21
60
39
12
21
60
98
117
115
102
73
12
-81
-176
-234
-261
-299
-379
-469
-513
-512
-539
-654
-817
-921
-918
-873
-876
-933
-973
-934
-838
-761
-754
-803
-860
-888
-886
-887
-920
-988
-1062
-1121
-1199
-1341
-1529
-1666
-1675
-1588
-1513
-1504
-1509
-1471
-1424
-1444
-1526
-1568
-1498
-1381
-1327
-1335
-1276
-1068
-796
-638
-676
-815
-922
-969
-1037
-1183
-1362
-1479
-1510
-1526
-1596
-1694
-1741
-1720
-1716
-1828
-2051
-2295
-2498
-2678
-2853
-2951
-2861
-2592
-2294
-2080
-1867
-1451
-751
64
733
1137
1356
1501
1576
1505
1245
832
317
-273
-870
-1353
-1622
-1689
-1671
-1668
-1678
-1632
-1490
-1289
-1079
-878
-676
-483
-330
-228
-146
-48
65
135
93
-86
-348
-590
-728
-772
-801
-875
-961
-977
-908
-811
-740
-685
-619
-580
-637
-786
-916
-926
-860
-852
-951
-1060
-1062
-991
-977
-1086
-1227
-1258
-1157
-1028
-969
-973
-972
-944
-918
-912
-908
-901
-923
-994
-1058
-1028
-925
-900
-1085
-1418
-1679
-1720
-1632
-1638
-1825
-2023
-1995
-1700
-1337
-1133
-1114
-1119
-1012
-826
-706
-740
-870
-953
-913
-783
-647
-541
-436
-300
-157
-61
-30
-30
-15
17
47
60
58
43
-8
-115
-251
-360
-423
-474
-568
-705
-830
-883
-861
-799
-741
-710
-718
-756
-788
-760
-666
-572
-574
-697
-862
-957
-953
-932
-998
-1169
-1345
-1410
-1340
-1216
-1142
-1133
-1110
-1008
-859
-753
-723
-714
-666
-593
-549
-541
-503
-378
-205
-65
25
127
284
440
504
471
426
440
474
432
281
84
-66
-147
-217
-336
-500
-645
-722
-738
-738
-766
-822
-877
-903
-889
-850
-806
-767
-712
-613
-467
-308
-189
-130
-99
-51
18
51
-6
-150
-326
-480
-611
-745
-897
-1062
-1252
-1503
-1822
-2129
-2280
-2190
-1927
-1655
-1461
-1247
-815
-62
884
1742
2293
2524
2592
2661
2750
2731
2460
1926
1282
736
405
247
143
6
-150
-273
-349
-412
-506
-631
-760
-874
-986
-1125
-1280
-1402
-1460
-1492
-1583
-1770
-1999
-2172
-2251
-2295
-2374
-2481
-2529
-2451
-2279
-2120
-2056
-2082
-2134
-2176
-2222
-2296
-2383
-2432
-2421
-2388
-2392
-2435
-2450
-2373
-2239
-2140
-2141
-2203
-2230
-2169
-2055
-1955
-1896
-1856
-1815
-1777
-1743
-1693
-1605
-1494
-1406
-1368
-1357
-1330
-1280
-1244
-1262
-1333
-1419
-1489
-1544
-1592
-1640
-1677
-1697
-1696
-1685
-1680
-1698
-1734
-1765
-1765
-1751
-1754
-1776
-1773
-1702
-1591
-1514
-1509
-1527
-1493
-1397
-1308
-1282
-1296
-1279
-1202
-1100
-1021
-969
-908
-821
-729
-679
-686
-723
-747
-743
-721
-700
-688
-678
-664
-641
-598
-528
-448
-405
-432
-507
-576
-614
-650
-727
-843
-948
-1001
-1010
-1001
-984
-952
-913
-889
-880
-859
-811
-763
-754
-783
-797
-752
-654
-549
-453
-351
-225
-83
51
169
273
356
407
433
467
535
631
729
808
874
937
992
1030
1040
1018
959
876
798
752
741
749
772
825
916
1011
1067
1075
1072
1083
1085
1037
933
826
774
784
794
724
546
304
72
-113
-291
-520
-818
-1146
-1476
-1834
-2238
-2600
-2763
-2656
-2370
-2052
-1705
-1145
-218
986
2151
2985
3422
3590
3621
3528
3251
2754
2085
1350
669
141
-190
-348
-412
-449
-476
-482
-457
-406
-338
-253
-155
-64
-3
31
60
98
135
145
126
96
69
50
32
15
-1
-18
-38
-59
-80
-114
-171
-237
-277
-266
-221
-191
-200
-229
-250
-257
-271
-299
-319
-314
-301
-302
-315
-314
-295
-287
-308
-340
-350
-347
-381
-474
-583
-641
-639
-632
-665
-719
-733
-682
-605
-557
-546
-534
-493
-437
-404
-409
-422
-404
-351
-295
-271
-283
-305
-309
-288
-255
-230
-220
-217
-197
-142
-53
45
129
202
283
374
445
468
451
432
427
412
362
295
272
320
401
449
438
409
409
440
452
410
331
264
232
217
192
162
166
221
292
321
279
205
169
199
254
268
228
191
230
352
490
577
607
625
665
725
785
846
916
993
1062
1133
1236
1380
1523
1599
1587
1534
1506
1525
1543
1504
1402
1293
1250
1284
1340
1339
1255
1140
1070
1061
1043
944
778
643
622
695
768
776
742
741
795
849
836
733
574
403
254
148
93
73
62
37
-2
-63
-181
-385
-652
-910
-1125
-1357
-1696
-2151
-2580
-2805
-2773
-2597
-2438
-2342
-2215
-1925
-1424
-750
13
772
1423
1877
2129
2287
2464
2640
2651
2372
1887
1421
1124
957
800
616
477
421
404
382
410
565
811
1005
1040
961
895
882
856
760
620
502
417
315
169
29
-41
-28
25
79
143
244
378
519
630
704
746
761
745
684
576
444
331
276
288
346
427
511
570
561
464
316
186
107
46
-37
-125
-140
-34
140
275
302
248
181
141
109
51
-33
-104
-125
-100
-63
-54
-86
-140
-187
-229
-288
-379
-475
-527
-513
-462
-426
-429
-450
-448
-417
-382
-368
-375
-382
-371
-347
-314
-245
-117
51
192
252
241
226
253
305
333
320
296
305
361
462
601
728
771
702
578
484
430
340
178
36
25
113
125
-44
-287
-404
-360
-332
-493
-799
-1041
-1085
-972
-823
-680
-517
-331
-173
-82
-39
4
58
86
54
-32
-129
-175
-128
19
213
370
459
530
657
856
1079
1266
1402
1513
1616
1717
1821
1949
2110
2270
2375
2390
2328
2224
2096
1944
1771
1592
1426
1281
1166
1099
1090
1122
1159
1176
1173
1156
1121
1061
985
914
864
811
711
550
363
193
47
-104
-273
-444
-598
-761
-983
-1256
-1467
-1488
-1309
-1067
-916
-851
-688
-242
485
1279
1904
2283
2507
2700
2884
2983
2913
2666
2301
1887
1476
1119
860
709
635
586
540
515
550
661
822
981
1094
1131
1096
1015
923
837
743
625
488
360
254
168
97
49
34
45
56
41
1
-48
-83
-90
-73
-52
-51
-85
-141
-186
-197
-192
-205
-252
-310
-337
-322
-300
-319
-392
-489
-574
-639
-708
-805
-920
-1023
-1090
-1131
-1165
-1190
-1186
-1147
-1104
-1105
-1175
-1280
-1350
-1333
-1237
-1124
-1050
-1012
-951
-818
-648
-521
-478
-470
-416
-308
-217
-182
-161
-83
54
177
238
259
280
301
310
340
429
542
571
468
336
330
475
626
640
528
413
359
313
223
151
193
316
336
99
-324
-686
-792
-670
-508
-435
-388
-202
218
795
1339
1690
1806
1745
1593
1400
1187
963
758
604
522
502
517
557
635
758
907
1020
1039
949
809
716
749
902
1092
1217
1246
1242
1289
1399
1514
1573
1578
1579
1608
1638
1632
1600
1592
1633
1670
1618
1461
1286
1212
1252
1294
1214
1021
852
834
949
1062
1062
969
888
882
915
901
808
679
588
569
595
616
586
487
320
104
-140
-390
-626
-852
-1103
-1413
-1751
-2012
-2072
-1898
-1585
-1283
-1056
-815
-383
353
1318
2277
2997
3406
3620
3799
3985
4062
3886
3418
2773
2123
1601
1250
1042
916
820
732
672
675
754
881
994
1027
966
856
764
724
719
710
676
640
630
646
665
662
634
584
514
431
322
152
-80
-301
-388
-279
-67
85
118
129
237
415
508
403
142
-154
-409
-626
-823
-991
-1112
-1201
-1281
-1344
-1371
-1380
-1415
-1497
-1606
-1707
-1785
-1844
-1881
-1897
-1922
-1996
-2128
-2266
-2337
-2317
-2240
-2133
-1980
-1727
-1355
-931
-574
-364
-289
-259
-204
-135
-125
-212
-332
-377
-282
-95
90
225
336
456
575
659
700
731
775
815
820
803
811
869
936
946
884
801
761
779
824
855
857
842
816
781
731
655
539
383
210
66
-18
-52
-83
-156
-275
-388
-442
-441
-442
-489
-551
-554
-468
-357
-317
-372
-459
-511
-529
-544
-561
-541
-462
-347
-203
9
321
669
920
1003
982
977
1016
1018
905
721
576
521
524
537
565
629
706
740
713
669
655
668
677
660
633
614
604
596
588
580
561
539
544
598
668
690
638
564
542
579
624
610
512
341
122
-96
-266
-380
-510
-755
-1131
-1546
-1873
-2045
-2069
-1959
-1723
-1376
-949
-427
263
1152
2127
2967
3512
3783
3914
3992
4001
3884
3619
3228
2748
2242
1822
1573
1477
1420
1324
1219
1175
1193
1183
1092
966
876
808
665
392
72
-163
-254
-248
-238
-293
-418
-564
-649
-626
-539
-491
-540
-621
-611
-488
-371
-384
-489
-521
-384
-166
-46
-84
-153
-84
152
429
626
737
845
981
1082
1068
930
716
463
152
-225
-617
-946
-1169
-1298
-1362
-1374
-1337
-1268
-1186
-1081
-934
-765
-644
-638
-735
-856
-936
-976
-1035
-1176
-1400
-1639
-1813
-1904
-1969
-2078
-2216
-2294
-2252
-2143
-2080
-2110
-2171
-2192
-2182
-2177
-2144
-1980
-1649
-1258
-963
-798
-662
-470
-275
-208
-316
-509
-658
-704
-683
-656
-661
-681
-663
-552
-355
-171
-123
-247
-442
-571
-573
-482
-353
-198
-11
188
362
507
647
774
821
744
593
473
453
502
553
586
621
676
730
765
790
827
863
879
887
934
1042
1194
1352
1485
1582
1640
1657
1651
1647
1633
1569
1457
1363
1359
1420
1439
1353
1228
1191
1280
1393
1394
1244
1024
837
733
717
773
884
1032
1217
1481
1855
2289
2652
2822
2793
2664
2529
2375
2112
1690
1176
702
337
47
-232
-526
-831
-1167
-1574
-2041
-2456
-2682
-2684
-2568
-2457
-2338
-2055
-1474
-641
216
860
1210
1360
1447
1514
1492
1292
909
437
-1
-321
-500
-558
-536
-486
-445
-424
-413
-404
-396
-390
-380
-360
-345
-360
-401
-421
-379
-281
-175
-97
-53
-40
-54
-68
-34
73
196
234
138
-21
-123
-117
-65
-67
-151
-266
-346
-375
-386
-415
-478
-568
-662
-734
-775
-807
-858
-929
-992
-1027
-1050
-1084
-1126
-1151
-1153
-1163
-1206
-1263
-1292
-1281
-1261
-1260
-1260
-1230
-1174
-1130
-1114
-1101
-1059
-991
-924
-868
-812
-752
-706
-687
-687
-684
-672
-650
-605
-521
-406
-296
-203
-96
61
262
458
619
748
855
928
947
928
907
892
854
763
639
547
524
549
575
583
590
619
669
718
747
746
716
667
623
611
627
637
610
552
505
499
517
521
498
476
487
530
579
626
678
734
773
779
766
755
736
679
588
509
479
485
483
475
531
720
1029
1360
1618
1788
1926
2079
2232
2325
2321
2250
2193
2214
2309
2420
2499
2536
2550
2545
2488
2354
2153
1917
1659
1379
1099
874
751
720
722
693
637
607
638
702
721
634
462
303
257
306
329
212
-25
-249
-349
-346
-354
-459
-651
-869
-1060
-1182
-1187
-1059
-861
-696
-592
-439
-79
527
1236
1830
2196
2377
2495
2622
2733
2746
2606
2322
1955
1570
1217
934
750
655
602
529
433
389
488
733
1020
1231
1333
1372
1389
1368
1277
1133
998
917
876
840
796
767
783
842
916
967
961
894
812
780
830
924
1011
1092
1209
1360
1451
1380
1160
915
757
659
522
311
109
19
45
90
61
-55
-213
-362
-479
-571
-641
-691
-722
-726
-698
-655
-621
-611
-625
-645
-656
-660
-658
-652
-630
-573
-471
-340
-225
-169
-180
-222
-254
-268
-284
-316
-351
-355
-299
-182
-35
101
205
288
391
545
738
918
1030
1055
1005
910
803
705
611
501
364
232
154
156
216
294
373
457
541
599
611
597
605
656
710
712
652
578
554
578
585
534
457
428
462
482
419
319
307
408
480
367
96
-130
-163
-75
-57
-178
-310
-305
-177
-69
-70
-122
-115
-31
54
79
64
67
102
133
128
103
101
121
115
61
14
61
193
303
305
233
192
223
242
164
22
-53
11
141
208
153
6
-186
-402
-610
-736
-720
-574
-348
-55
334
803
1256
1569
1688
1639
1464
1176
778
315
-131
-499
-769
-927
-936
-769
-460
-96
254
593
986
1476
2020
2498
2802
2915
2908
2861
2788
2629
2311
1840
1316
882
626
526
482
417
340
312
359
423
428
389
410
556
738
781
634
446
418
578
750
759
611
462
430
504
598
664
705
726
713
669
630
620
615
565
447
287
116
-49
-200
-314
-360
-339
-285
-229
-157
-43
105
226
263
226
180
175
186
143
10
-165
-300
-358
-369
-384
-425
-481
-537
-596
-664
-732
-792
-845
-901
-947
-952
-902
-826
-768
-746
-731
-683
-598
-504
-432
-377
-310
-206
-73
51
135
184
252
394
603
807
928
961
979
1052
1167
1245
1232
1150
1066
1019
990
943
873
808
771
747
697
591
442
294
184
97
-17
-176
-323
-368
-293
-182
-148
-218
-312
-339
-299
-276
-337
-463
-571
-589
-521
-424
-355
-325
-306
-274
-235
-209
-200
-186
-145
-94
-62
-51
-20
69
203
317
357
336
323
382
507
627
677
668
678
779
962
1145
1260
1323
1402
1529
1661
1728
1716
1683
1689
1726
1745
1714
1667
1650
1673
1700
1698
1673
1653
1643
1632
1610
1586
1562
1529
1472
1378
1232
1014
711
346
-19
-339
-626
-944
-1336
-1768
-2134
-2322
-2285
-2079
-1831
-1636
-1446
-1072
-350
676
1741
2577
3117
3493
3825
4073
4098
3841
3373
2813
2229
1665
1202
923
837
861
901
926
952
990
1028
1058
1081
1071
980
802
605
485
476
526
556
525
439
334
258
252
316
399
431
399
352
351
406
463
468
419
360
333
334
330
302
269
261
281
304
311
322
359
400
383
280
134
17
-58
-153
-320
-524
-668
-700
-661
-648
-704
-781
-794
-721
-625
-591
-636
-688
-673
-601
-550
-558
-571
-507
-386
-301
-306
-346
-331
-250
-167
-117
-68
6
71
82
82
164
331
461
440
314
248
334
481
522
418
291
278
387
512
554
509
444
413
411
404
362
280
186
106
62
57
72
89
97
116
173
263
343
367
325
258
207
172
121
50
-6
3
82
169
199
156
86
39
9
-44
-148
-277
-369
-387
-344
-272
-188
-85
30
123
174
203
254
334
394
384
321
305
432
689
948
1084
1100
1114
1228
1419
1554
1536
1408
1306
1316
1386
1394
1287
1133
1039
1032
1037
968
822
675
606
633
744
949
1267
1669
2037
2254
2295
2237
2132
1930
1554
1022
451
-64
-544
-1045
-1524
-1823
-1832
-1629
-1395
-1194
-879
-244
756
1899
2861
3471
3817
4094
4373
4521
4365
3903
3313
2749
2219
1666
1127
727
482
254
-80
-412
-493
-214
257
671
976
1310
1748
2161
2346
2263
2044
1804
1524
1151
743
450
368
433
499
483
415
369
369
366
305
174
14
-122
-196
-212
-213
-257
-377
-546
-698
-792
-842
-890
-937
-936
-857
-735
-642
-592
-535
-425
-290
-191
-146
-111
-57
-8
4
-1
16
31
-46
-267
-545
-721
-731
-676
-692
-787
-837
-725
-474
-208
-32
35
27
-10
-46
-58
-32
13
42
40
30
49
116
215
309
360
353
301
236
184
147
110
69
28
-11
-42
-59
-56
-48
-71
-151
-270
-384
-467
-521
-550
-535
-470
-368
-235
-63
115
192
50
-296
-671
-892
-937
-923
-928
-878
-649
-231
248
652
935
1109
1162
1076
877
654
492
408
375
378
423
520
664
828
970
1047
1034
960
889
871
902
945
972
993
1026
1084
1173
1283
1378
1403
1342
1240
1169
1165
1193
1194
1160
1128
1142
1217
1335
1472
1603
1703
1750
1738
1683
1625
1586
1557
1513
1437
1341
1244
1148
1020
831
595
365
194
70
-65
-262
-496
-673
-691
-525
-261
-33
84
172
410
915
1589
2182
2485
2486
2334
2168
1995
1736
1345
885
471
191
76
116
271
475
638
721
762
832
938
1003
968
874
846
941
1082
1136
1054
895
732
585
422
246
109
70
144
317
565
848
1106
1286
1364
1342
1217
988
680
361
98
-108
-322
-613
-978
-1327
-1548
-1588
-1501
-1398
-1340
-1270
-1050
-609
-24
518
892
1107
1259
1412
1525
1515
1343
1060
771
553
417
326
254
218
238
292
316
259
119
-63
-260
-497
-798
-1134
-1423
-1605
-1678
-1684
-1657
-1604
-1528
-1447
-1380
-1324
-1267
-1217
-1196
-1215
-1231
-1179
-1045
-877
-752
-685
-624
-522
-388
-280
-227
-194
-1
-40
15
5
-22
-6
52
81
30
-57
-85
-32
25
9
-53
-57
36
126
78
-114
-308
-377
-366
-452
-737
-1126
-1410
-1461
-1321
-1115
-921
-726
-480
-165
195
548
838
1021
1081
1047
977
929
940
994
1047
1072
1087
1145
1274
1428
1516
1484
1368
1237
1119
970
744
469
248
178
283
497
730
921
1047
1117
1150
1179
1230
1296
1341
1339
1341
1454
1733
2100
2382
2465
2376
2214
2025
1775
1434
1040
659
308
-36
-347
-542
-590
-614
-810
-1249
-1791
-2213
-2416
-2472
-2510
-2572
-2589
-2471
-2182
-1749
-1250
-806
-527
-427
-402
-315
-129
59
126
49
-93
-218
-307
-382
-453
-513
-578
-704
-920
-1172
-1321
-1254
-994
-690
-496
-440
-426
-358
-243
-173
-213
-345
-508
-677
-842
-968
-1018
-1017
-1048
-1152
-1271
-1316
-1295
-1315
-1436
-1578
-1612
-1523
-1426
-1421
-1482
-1512
-1472
-1415
-1401
-1422
-1431
-1419
-1424
-1466
-1524
-1571
-1607
-1649
-1688
-1704
-1710
-1737
-1784
-1792
-1716
-1603
-1558
-1634
-1764
-1832
-1797
-1734
-1731
-1796
-1850
-1828
-1733
-1621
-1533
-1468
-1404
-1323
-1228
-1132
-1051
-990
-950
-918
-883
-844
-820
-824
-842
-831
-757
-643
-563
-573
-644
-671
-576
-408
-290
-289
-351
-354
-248
-103
-32
-95
-270
-491
-691
-821
-864
-851
-842
-877
-934
-947
-869
-715
-544
-408
-319
-260
-205
-138
-45
66
153
153
36
-159
-351
-474
-526
-557
-608
-668
-682
-621
-516
-431
-402
-409
-411
-398
-381
-360
-296
-150
78
343
580
736
784
710
537
332
151
-4
-185
-429
-678
-807
-746
-579
-510
-701
-1126
-1590
-1888
-1948
-1848
-1686
-1484
-1182
-728
-151
437
915
1195
1233
1039
687
299
-24
-260
-441
-594
-708
-760
-761
-747
-761
-849
-1043
-1356
-1773
-2226
-2633
-2922
-3047
-3006
-2845
-2636
-2416
-2120
-1627
-886
1
832
1478
1935
2252
2425
2413
2212
1859
1394
812
125
-569
-1120
-1421
-1469
-1328
-1064
-727
-352
53
498
961
1337
1491
1373
1075
763
540
401
285
159
37
-55
-101
-103
-66
-20
-15
-85
-221
-368
-471
-515
-520
-513
-523
-557
-607
-657
-696
-730
-794
-930
-1131
-1320
-1395
-1332
-1220
-1178
-1227
-1273
-1214
-1065
-938
-918
-995
-1107
-1224
-1351
-1485
-1591
-1644
-1668
-1702
-1749
-1778
-1768
-1745
-1744
-1768
-1788
-1791
-1786
-1785
-1783
-1762
-1725
-1697
-1697
-1714
-1726
-1726
-1717
-1700
-1673
-1637
-1610
-1600
-1587
-1529
-1404
-1241
-1086
-956
-820
-649
-454
-289
-190
-140
-98
-49
-22
-40
-77
-90
-74
-71
-107
-157
-178
-157
-126
-97
-41
67
192
261
255
242
276
310
233
16
-222
-337
-326
-323
-423
-572
-633
-575
-500
-510
-575
-592
-528
-463
-471
-502
-460
-346
-266
-290
-354
-333
-201
-56
18
64
184
390
578
633
562
478
482
561
601
516
355
279
412
694
916
935
826
788
921
1105
1155
1041
918
936
1068
1177
1184
1128
1085
1072
1056
1022
975
903
768
551
292
56
-139
-342
-604
-898
-1145
-1296
-1410
-1591
-1863
-2096
-2113
-1883
-1566
-1337
-1173
-857
-204
708
1586
2177
2465
2605
2727
2815
2755
2478
2027
1514
1043
679
452
356
347
343
273
121
-61
-187
-214
-169
-119
-90
-48
61
251
480
676
782
772
651
454
243
71
-48
-144
-254
-375
-464
-482
-436
-381
-361
-378
-405
-424
-434
-429
-396
-337
-285
-280
-319
-364
-391
-430
-524
-653
-743
-741
-689
-671
-716
-776
-795
-791
-831
-941
-1079
-1185
-1253
-1324
-1425
-1533
-1609
-1648
-1684
-1745
-1819
-1857
-1827
-1746
-1673
-1652
-1674
-1687
-1646
-1558
-1458
-1368
-1282
-1196
-1121
-1070
-1035
-1007
-997
-1021
-1067
-1081
-1018
-888
-746
-639
-555
-448
-298
-146
-77
-148
-340
-567
-731
-806
-859
-967
-1139
-1298
-1359
-1323
-1271
-1287
-1384
-1507
-1597
-1639
-1663
-1711
-1799
-1917
-2044
-2172
-2308
-2452
-2584
-2666
-2669
-2590
-2444
-2245
-2007
-1752
-1511
-1302
-1137
-1026
-986
-1023
-1111
-1202
-1270
-1316
-1343
-1326
-1234
-1075
-906
-767
-644
-486
-280
-85
30
70
114
222
368
477
529
579
679
800
865
845
792
759
717
590
347
56
-183
-335
-439
-548
-662
-731
-715
-629
-540
-516
-568
-648
-691
-684
-690
-785
-972
-1181
-1347
-1481
-1647
-1863
-2080
-2242
-2371
-2532
-2736
-2893
-2904
-2763
-2567
-2404
-2248
-1974
-1480
-783
-10
682
1205
1565
1814
1987
2055
1958
1665
1224
733
278
-94
-357
-502
-550
-565
-612
-685
-708
-631
-500
-420
-431
-466
-436
-326
-211
-155
-149
-148
-138
-149
-200
-259
-283
-270
-256
-255
-245
-201
-143
-120
-151
-188
-172
-102
-39
-49
-125
-203
-228
-218
-238
-320
-428
-496
-515
-532
-586
-662
-717
-748
-801
-911
-1053
-1177
-1261
-1330
-1411
-1502
-1582
-1643
-1691
-1715
-1709
-1700
-1739
-1833
-1915
-1909
-1826
-1751
-1746
-1768
-1733
-1634
-1553
-1563
-1645
-1731
-1785
-1802
-1759
-1619
-1407
-1221
-1132
-1079
-937
-683
-434
-308
-265
-162
66
334
534
672
817
976
1049
961
762
577
467
385
274
132
6
-62
-65
-8
102
222
280
235
120
32
51
163
261
227
27
-283
-635
-1021
-1471
-1964
-2381
-2571
-2480
-2195
-1846
-1481
-1051
-523
21
410
533
429
232
46
-119
-307
-518
-689
-767
-757
-704
-647
-588
-509
-420
-355
-333
-320
-257
-109
85
240
303
308
334
425
549
642
684
715
793
936
1104
1248
1346
1403
1427
1426
1430
1494
1638
1783
1807
1637
1323
996
745
562
390
204
28
-114
-213
-233
-139
17
65
-159
-638
-1155
-1481
-1582
-1589
-1616
-1612
-1431
-984
-332
371
1010
1550
2001
2361
2589
2651
2574
2418
2200
1885
1463
1044
795
756
779
686
482
371
505
778
936
824
544
330
299
368
381
272
101
-16
-19
69
175
222
172
23
-202
-474
-742
-962
-1134
-1303
-1492
-1648
-1663
-1490
-1214
-989
-895
-885
-851
-751
-649
-639
-761
-975
-1202
-1382
-1493
-1547
-1559
-1543
-1504
-1455
-1413
-1388
-1378
-1358
-1308
-1229
-1137
-1052
-1003
-1013
-1080
-1175
-1266
-1350
-1444
-1551
-1637
-1664
-1625
-1551
-1470
-1386
-1296
-1209
-1133
-1055
-953
-834
-753
-763
-853
-946
-965
-908
-854
-871
-953
-1033
-1052
-1013
-963
-929
-872
-730
-489
-210
21
158
215
222
186
91
-56
-212
-340
-430
-500
-549
-552
-485
-365
-251
-203
-228
-277
-300
-300
-337
-450
-598
-691
-681
-624
-623
-716
-835
-880
-830
-757
-728
-727
-691
-593
-476
-404
-396
-414
-415
-381
-313
-206
-56
125
298
421
485
517
547
569
542
441
303
216
229
304
365
395
450
585
766
907
967
980
998
1030
1049
1042
1023
995
942
854
771
750
794
834
814
747
708
754
863
943
891
656
282
-115
-430
-655
-871
-1149
-1469
-1749
-1961
-2151
-2327
-2398
-2255
-1922
-1561
-1268
-904
-240
744
1782
2556
3015
3390
3895
4479
4852
4780
4292
3613
2949
2336
1698
997
311
-216
-505
-591
-566
-498
-388
-242
-96
-1
19
-28
-124
-237
-317
-313
-226
-104
11
130
265
385
427
369
271
218
226
239
207
161
160
214
258
208
53
-121
-202
-142
-5
85
64
-24
-81
-73
-51
-95
-220
-351
-417
-403
-340
-256
-153
-38
46
51
-42
-221
-470
-775
-1112
-1454
-1804
-2178
-2559
-2859
-2976
-2884
-2675
-2482
-2362
-2278
-2163
-1991
-1804
-1674
-1666
-1783
-1951
-2051
-2005
-1846
-1676
-1550
-1423
-1215
-920
-625
-418
-305
-230
-144
-57
-4
-4
-45
-98
-146
-175
-189
-212
-272
-369
-454
-469
-396
-291
-238
-268
-331
-350
-312
-286
-346
-489
-629
-703
-735
-803
-933
-1054
-1064
-925
-692
-441
-196
63
345
614
829
975
1070
1127
1127
1042
881
689
511
357
236
189
270
482
741
939
1058
1192
1426
1712
1874
1787
1522
1282
1206
1236
1214
1080
943
937
1052
1172
1233
1295
1423
1568
1608
1514
1416
1470
1691
1944
2102
2156
2184
2244
2314
2337
2261
2073
1796
1505
1274
1099
887
570
198
-97
-238
-297
-399
-616
-921
-1247
-1566
-1882
-2184
-2432
-2588
-2647
-2608
-2433
-2042
-1397
-607
71
413
414
303
302
389
340
1
-519
-961
-1170
-1206
-1205
-1214
-1200
-1159
-1150
-1201
-1239
-1157
-961
-773
-711
-752
-772
-686
-532
-425
-426
-491
-528
-499
-441
-396
-351
-287
-245
-301
-474
-676
-795
-815
-814
-854
-903
-880
-760
-609
-516
-521
-602
-713
-833
-971
-1136
-1320
-1506
-1678
-1825
-1927
-1943
-1837
-1635
-1438
-1343
-1358
-1386
-1340
-1245
-1214
-1317
-1496
-1628
-1653
-1626
-1636
-1698
-1739
-1694
-1587
-1512
-1524
-1574
-1563
-1455
-1318
-1240
-1233
-1226
-1161
-1047
-935
-849
-785
-762
-807
-892
-913
-794
-591
-456
-474
-568
-587
-465
-274
-136
-106
-139
-163
-143
-117
-155
-294
-492
-658
-732
-732
-720
-724
-714
-643
-495
-287
-42
199
378
465
489
518
572
595
519
359
204
122
96
59
-19
-104
-147
-142
-124
-129
-171
-242
-309
-331
-285
-199
-123
-96
-102
-95
-35
70
174
228
204
114
-9
-113
-155
-130
-79
-61
-96
-148
-153
-80
44
160
229
249
246
257
305
388
478
542
564
560
553
554
554
538
510
480
460
456
471
506
538
524
445
329
228
149
19
-249
-659
-1111
-1478
-1707
-1838
-1938
-2027
-2056
-1953
-1671
-1216
-676
-195
146
407
754
1271
1846
2266
2454
2550
2712
2900
2912
2647
2257
1970
1832
1676
1362
966
686
625
715
810
817
733
584
407
246
122
10
-139
-320
-459
-472
-340
-116
128
350
534
686
839
1006
1158
1230
1189
1073
944
831
713
570
417
291
208
152
99
35
-42
-134
-246
-376
-509
-640
-764
-886
-1024
-1178
-1318
-1396
-1391
-1325
-1235
-1139
-1036
-933
-860
-841
-866
-904
-936
-971
-1020
-1071
-1097
-1080
-1025
-952
-874
-801
-738
-683
-625
-561
-499
-459
-438
-417
-367
-283
-190
-118
-76
-46
-4
62
146
232
312
389
475
587
723
860
960
1002
989
941
879
803
709
591
450
291
130
-5
-83
-102
-96
-100
-116
-110
-64
-7
13
-17
-62
-95
-147
-278
-488
-692
-804
-837
-888
-1022
-1192
-1288
-1283
-1252
-1287
-1387
-1460
-1426
-1292
-1126
-969
-821
-671
-522
-379
-234
-93
8
41
31
54
157
304
419
473
513
607
762
912
1002
1036
1060
1109
1176
1248
1335
1443
1545
1582
1524
1405
1321
1346
1455
1548
1546
1464
1384
1361
1358
1286
1113
894
722
638
626
661
718
751
700
546
340
152
-7
-185
-431
-741
-1078
-1389
-1600
-1637
-1469
-1170
-851
-552
-194
322
987
1681
2280
2737
3047
3197
3178
3035
2834
2594
2276
1857
1401
1038
852
822
859
879
864
852
896
1006
1117
1147
1076
984
963
1008
1016
905
726
619
670
814
906
873
775
724
759
810
790
682
546
437
358
287
219
175
156
130
69
-8
-61
-79
-98
-165
-285
-430
-568
-679
-757
-810
-860
-931
-1007
-1032
-960
-814
-685
-642
-668
-676
-613
-516
-463
-481
-519
-517
-478
-463
-515
-605
-664
-668
-658
-684
-747
-795
-787
-734
-672
-625
-587
-563
-582
-665
-783
-860
-845
-764
-693
-674
-675
-632
-514
-363
-250
-219
-258
-316
-335
-301
-251
-238
-271
-300
-265
-172
-86
-58
-50
13
140
260
299
276
277
339
416
442
418
401
414
421
369
262
151
70
-6
-134
-340
-585
-798
-928
-981
-1004
-1039
-1078
-1075
-986
-814
-610
-422
-262
-122
9
132
249
370
495
601
652
650
640
678
773
877
941
962
983
1034
1101
1144
1141
1114
1097
1104
1114
1112
1108
1118
1135
1137
1108
1069
1056
1078
1099
1086
1057
1068
1142
1230
1257
1209
1150
1139
1155
1117
966
736
507
321
149
-50
-261
-438
-575
-744
-1024
-1382
-1659
-1697
-1499
-1228
-1020
-807
-368
425
1441
2383
3041
3427
3668
3821
3843
3688
3379
2970
2485
1955
1480
1182
1091
1098
1066
971
890
893
953
993
975
932
913
928
934
888
786
660
556
499
462
394
278
159
105
134
191
213
185
136
83
9
-96
-197
-256
-296
-377
-511
-623
-630
-559
-526
-612
-771
-898
-958
-1007
-1093
-1196
-1262
-1288
-1305
-1310
-1264
-1171
-1123
-1190
-1320
-1382
-1318
-1214
-1179
-1208
-1200
-1095
-938
-795
-672
-552
-470
-498
-663
-888
-1063
-1128
-1097
-1022
-970
-991
-1081
-1162
-1147
-1026
-885
-782
-659
-409
-22
386
699
922
1101
1202
1129
880
631
588
745
896
886
791
799
958
1119
1104
848
353
-388
-1321
-2205
-2695
-2623
-2155
-1629
-1217
-844
-401
48
323
350
228
89
-32
-133
-134
55
400
701
768
588
305
57
-143
-378
-690
-1028
-1292
-1395
-1323
-1133
-917
-741
-620
-546
-552
-675
-888
-1049
-990
-691
-320
-89
-51
-87
-85
-93
-254
-592
-908
-959
-705
-354
-135
-87
-61
74
290
455
500
483
498
568
662
754
861
1007
1158
1227
1159
967
715
467
240
17
-230
-508
-804
-1079
-1286
-1411
-1491
-1622
-1900
-2328
-2801
-3174
-3370
-3409
-3368
-3283
-3131
-2853
-2389
-1702
-814
157
1019
1623
1959
2144
2272
2292
2057
1506
774
91
-384
-644
-778
-858
-908
-923
-904
-864
-831
-837
-901
-1010
-1121
-1211
-1313
-1461
-1633
-1767
-1840
-1924
-2088
-2286
-2370
-2263
-2072
-1970
-1980
-1941
-1730
-1458
-1375
-1579
-1874
-1978
-1839
-1671
-1672
-1791
-1818
-1659
-1446
-1365
-1443
-1565
-1639
-1698
-1813
-1981
-2123
-2189
-2201
-2212
-2248
-2305
-2367
-2430
-2491
-2555
-2629
-2712
-2783
-2821
-2839
-2873
-2928
-2965
-2956
-2932
-2951
-3018
-3058
-3005
-2882
-2781
-2761
-2792
-2814
-2820
-2844
-2891
-2910
-2857
-2746
-2628
-2514
-2380
-2211
-2037
-1898
-1788
-1681
-1576
-1513
-1504
-1509
-1475
-1402
-1335
-1301
-1286
-1259
-1227
-1221
-1239
-1242
-1211
-1175
-1191
-1269
-1359
-1401
-1385
-1362
-1394
-1494
-1612
-1673
-1648
-1577
-1527
-1527
-1554
-1562
-1544
-1531
-1549
-1582
-1597
-1580
-1559
-1557
-1552
-1485
-1336
-1151
-1012
-954
-939
-906
-843
-793
-813
-912
-1053
-1177
-1239
-1224
-1164
-1129
-1158
-1215
-1217
-1125
-995
-927
-958
-1025
-1039
-974
-879
-796
-727
-662
-598
-525
-417
-270
-135
-95
-174
-294
-351
-320
-266
-260
-290
-290
-216
-88
46
143
196
194
127
16
-83
-136
-182
-307
-563
-901
-1189
-1316
-1284
-1208
-1241
-1449
-1768
-2036
-2128
-2055
-1943
-1910
-1942
-1900
-1635
-1111
-433
230
748
1093
1316
1456
1478
1289
831
183
-443
-872
-1072
-1120
-1071
-868
-452
88
503
573
295
-142
-537
-833
-1075
-1257
-1274
-1011
-475
198
858
1432
1900
2197
2211
1883
1295
638
66
-375
-711
-946
-1048
-1010
-889
-758
-656
-594
-587
-663
-825
-1011
-1146
-1207
-1235
-1286
-1365
-1444
-1488
-1493
-1478
-1459
-1442
-1425
-1403
-1385
-1396
-1454
-1539
-1608
-1653
-1723
-1889
-2160
-2470
-2736
-2926
-3066
-3179
-3253
-3253
-3138
-2879
-2459
-1907
-1313
-802
-454
-257
-144
-75
-74
-194
-442
-738
-960
-1036
-987
-889
-796
-699
-579
-465
-412
-438
-490
-505
-481
-469
-490
-505
-457
-346
-225
-134
-63
6
70
107
122
150
223
329
427
470
439
357
275
229
214
180
81
-70
-207
-278
-299
-328
-390
-445
-441
-394
-379
-436
-507
-490
-359
-222
-201
-303
-407
-398
-290
-215
-277
-448
-597
-620
-535
-451
-454
-530
-594
-596
-586
-654
-814
-974
-1033
-994
-941
-930
-917
-828
-668
-526
-475
-497
-523
-532
-558
-635
-727
-769
-722
-623
-547
-544
-599
-656
-660
-622
-612
-678
-777
-818
-763
-689
-701
-832
-1030
-1243
-1493
-1825
-2234
-2640
-2955
-3171
-3345
-3527
-3714
-3849
-3857
-3702
-3437
-3178
-3011
-2897
-2685
-2240
-1573
-852
-267
105
332
522
713
836
783
514
101
-328
-675
-930
-1138
-1323
-1453
-1495
-1466
-1425
-1413
-1412
-1372
-1283
-1194
-1167
-1218
-1293
-1309
-1222
-1063
-900
-790
-747
-732
-692
-609
-509
-444
-442
-487
-530
-548
-556
-591
-652
-697
-684
-609
-510
-436
-407
-418
-450
-487
-522
-564
-634
-740
-865
-975
-1057
-1135
-1244
-1381
-1500
-1555
-1535
-1464
-1378
-1308
-1269
-1259
-1252
-1232
-1218
-1254
-1347
-1434
-1436
-1336
-1193
-1075
-983
-867
-707
-556
-492
-543
-675
-823
-946
-1040
-1109
-1140
-1104
-989
-815
-633
-484
-380
-314
-276
-266
-288
-336
-406
-483
-541
-544
-478
-370
-277
-233
-222
-203
-146
-75
-34
-56
-141
-250
-329
-342
-312
-306
-367
-463
-520
-509
-486
-532
-658
-788
-851
-864
-914
-1055
-1244
-1385
-1430
-1409
-1375
-1348
-1320
-1294
-1283
-1280
-1258
-1208
-1167
-1180
-1240
-1286
-1263
-1173
-1059
-952
-856
-765
-669
-559
-438
-342
-312
-333
-341
-296
-247
-290
-456
-663
-800
-840
-843
-851
-839
-760
-620
-457
-275
-34
268
555
744
832
896
991
1095
1149
1130
1046
905
704
471
265
130
33
-110
-353
-653
-920
-1107
-1257
-1441
-1690
-1980
-2287
-2624
-2986
-3287
-3384
-3217
-2885
-2550
-2265
-1899
-1272
-363
636
1467
2001
2290
2463
2589
2628
2487
2116
1564
949
388
-66
-421
-699
-898
-997
-985
-878
-698
-475
-244
-41
114
217
259
213
75
-99
-223
-264
-264
-294
-361
-414
-413
-382
-376
-414
-466
-504
-540
-607
-699
-764
-768
-734
-732
-807
-941
-1075
-1161
-1198
-1221
-1263
-1314
-1347
-1348
-1340
-1367
-1452
-1578
-1710
-1823
-1921
-2009
-2078
-2110
-2114
-2120
-2152
-2207
-2261
-2293
-2297
-2290
-2295
-2324
-2347
-2332
-2279
-2239
-2256
-2307
-2330
-2306
-2298
-2359
-2443
-2442
-2322
-2182
-2136
-2158
-2108
-1903
-1630
-1437
-1365
-1313
-1178
-975
-803
-711
-668
-631
-614
-645
-688
-665
-571
-498
-532
-631
-666
-585
-471
-443
-497
-520
-448
-345
-319
-370
-377
-264
-110
-66
-166
-287
-302
-228
-199
-296
-440
-505
-493
-551
-800
-1166
-1429
-1440
-1272
-1119
-1076
-1055
-913
-623
-289
-34
103
146
126
72
44
108
265
435
543
606
705
883
1091
1230
1255
1215
1198
1248
1327
1360
1309
1213
1148
1134
1104
962
695
411
239
211
248
282
350
518
766
963
1020
994
1016
1119
1187
1109
920
756
705
733
760
747
672
498
205
-135
-394
-516
-590
-771
-1114
-1528
-1878
-2078
-2104
-1962
-1695
-1383
-1080
-710
-108
795
1829
2676
3138
3279
3310
3334
3264
2966
2443
1834
1279
825
467
227
142
193
284
317
278
229
229
270
299
284
236
179
124
83
78
127
217
303
340
328
299
279
259
218
169
144
158
191
212
226
259
313
348
320
240
156
95
38
-48
-149
-217
-237
-259
-341
-486
-624
-691
-710
-755
-863
-978
-1018
-971
-924
-960
-1065
-1144
-1137
-1095
-1116
-1226
-1341
-1351
-1244
-1108
-1037
-1038
-1036
-976
-880
-817
-809
-815
-788
-737
-704
-702
-677
-569
-392
-231
-150
-141
-146
-121
-76
-41
-34
-51
-85
-115
-115
-66
13
78
102
101
107
119
105
47
-36
-97
-117
-120
-134
-154
-146
-93
-14
57
100
125
144
150
131
95
62
40
30
39
86
172
265
317
311
281
276
298
300
231
89
-79
-204
-235
-172
-70
-8
-13
-37
-1
121
274
381
424
447
497
574
665
780
934
1097
1199
1208
1189
1239
1378
1522
1576
1551
1549
1640
1774
1849
1827
1766
1740
1736
1681
1543
1381
1276
1250
1257
1254
1244
1255
1290
1316
1300
1245
1163
1036
839
584
329
125
-40
-211
-405
-601
-788
-992
-1221
-1402
-1430
-1284
-1086
-969
-916
-751
-311
389
1160
1794
2215
2482
2687
2868
2998
3021
2897
2622
2230
1788
1384
1098
946
866
766
601
427
343
395
529
638
670
653
642
653
650
600
518
455
444
460
434
334
229
229
364
533
598
530
437
427
482
506
460
410
434
508
517
378
120
-154
-349
-435
-438
-409
-388
-382
-347
-228
-30
170
258
188
22
-143
-257
-337
-416
-497
-559
-619
-740
-969
-1267
-1536
-1681
-1681
-1598
-1519
-1518
-1621
-1771
-1859
-1779
-1517
-1180
-889
-650
-343
135
726
1227
1457
1405
1207
988
773
542
323
204
237
384
563
736
919
1106
1210
1132
882
597
414
352
312
214
112
131
290
435
359
29
-372
-635
-745
-883
-1137
-1348
-1269
-908
-592
-609
-843
-871
-421
298
818
900
754
752
1029
1402
1641
1692
1641
1559
1454
1351
1304
1325
1328
1232
1072
956
930
957
993
1054
1138
1168
1056
849
722
769
897
939
863
802
870
1005
1040
877
586
315
186
240
446
725
991
1207
1420
1690
2002
2264
2375
2319
2149
1940
1743
1590
1486
1403
1280
1074
801
533
339
227
125
-61
-362
-717
-1004
-1143
-1160
-1173
-1295
-1556
-1891
-2186
-2347
-2329
-2147
-1866
-1587
-1385
-1225
-972
-495
181
880
1429
1817
2159
2520
2828
2954
2863
2621
2275
1810
1247
732
446
421
492
470
343
266
351
525
621
564
422
299
210
97
-57
-180
-196
-116
-32
-18
-65
-124
-163
-182
-172
-117
-40
0
-30
-102
-154
-162
-150
-150
-167
-200
-263
-350
-411
-391
-315
-268
-297
-354
-356
-305
-279
-338
-443
-525
-580
-680
-866
-1087
-1260
-1362
-1440
-1527
-1578
-1524
-1360
-1159
-999
-878
-742
-554
-361
-248
-248
-315
-376
-403
-412
-403
-349
-252
-187
-219
-310
-330
-212
-46
-3
-134
-310
-359
-249
-100
-38
-78
-135
-134
-74
3
71
128
173
190
154
79
14
19
95
171
169
92
34
82
209
303
270
137
-5
-83
-91
-62
-37
-60
-162
-308
-413
-417
-361
-352
-444
-561
-578
-455
-269
-114
-1
124
288
436
498
481
454
467
485
450
367
322
385
518
616
627
617
694
871
1053
1154
1195
1282
1488
1771
2031
2207
2309
2370
2399
2377
2300
2187
2061
1929
1785
1650
1584
1636
1787
1919
1910
1748
1560
1476
1497
1519
1472
1409
1433
1554
1696
1788
1849
1910
1923
1778
1438
1005
625
327
-12
-523
-1169
-1733
-1990
-1895
-1598
-1271
-945
-516
101
846
1548
2058
2336
2417
2354
2195
1993
1781
1545
1244
879
545
362
364
458
489
380
204
120
234
497
735
809
723
599
536
522
481
379
264
198
192
227
301
434
616
789
882
880
836
819
846
886
906
898
877
841
784
712
648
594
521
393
213
20
-143
-258
-327
-358
-378
-435
-564
-724
-811
-760
-624
-521
-505
-502
-418
-258
-136
-151
-287
-447
-570
-668
-770
-853
-856
-766
-639
-540
-474
-400
-293
-185
-130
-151
-210
-254
-244
-177
-70
55
170
259
322
372
416
451
483
537
629
744
846
921
987
1054
1096
1087
1050
1056
1137
1242
1282
1232
1160
1156
1240
1354
1422
1403
1309
1199
1150
1202
1307
1347
1240
1027
828
722
672
580
403
175
-40
-215
-366
-502
-618
-719
-843
-1034
-1294
-1562
-1757
-1835
-1844
-1888
-2031
-2222
-2326
-2263
-2105
-2005
-2038
-2114
-2084
-1901
-1675
-1546
-1530
-1511
-1373
-1114
-832
-622
-502
-429
-350
-237
-89
56
145
148
93
59
108
219
316
348
347
389
504
640
725
743
720
685
631
551
473
442
460
464
384
224
63
-45
-134
-278
-511
-793
-1082
-1397
-1784
-2207
-2523
-2595
-2435
-2199
-1998
-1730
-1157
-172
1027
2072
2736
3092
3349
3598
3730
3595
3189
2641
2076
1550
1104
805
689
695
703
653
593
599
686
803
894
940
928
837
672
488
362
321
315
279
204
145
159
246
359
452
513
558
587
575
511
428
378
359
306
162
-44
-213
-280
-268
-249
-239
-204
-137
-89
-114
-211
-332
-458
-595
-711
-728
-609
-436
-350
-397
-474
-449
-310
-180
-178
-293
-400
-382
-228
-31
101
117
40
-70
-181
-326
-543
-808
-1028
-1111
-1052
-923
-800
-689
-546
-363
-191
-109
-160
-326
-541
-736
-868
-936
-965
-978
-985
-977
-934
-830
-639
-360
-27
299
561
751
896
1028
1146
1214
1197
1089
928
756
587
423
272
163
116
116
112
63
-17
-85
-117
-129
-139
-142
-124
-87
-54
-19
58
198
344
399
333
220
178
247
363
430
408
328
257
239
289
407
587
823
1102
1384
1607
1723
1741
1724
1734
1777
1813
1814
1815
1885
2055
2289
2504
2633
2648
2562
2406
2224
2056
1923
1829
1766
1736
1747
1802
1880
1947
1966
1919
1808
1661
1511
1382
1285
1228
1194
1135
991
740
423
115
-131
-301
-424
-543
-719
-988
-1312
-1572
-1645
-1517
-1292
-1068
-812
-377
331
1231
2111
2793
3238
3511
3667
3699
3569
3279
2879
2433
1989
1580
1244
1020
915
876
814
666
459
293
244
281
286
191
52
-3
83
238
338
333
285
291
389
549
722
870
959
975
941
910
913
913
849
710
553
450
427
456
500
541
571
579
560
514
443
349
240
131
45
-2
-5
25
73
132
204
283
320
245
46
-198
-381
-471
-539
-666
-845
-997
-1071
-1105
-1162
-1240
-1289
-1272
-1205
-1107
-969
-795
-641
-574
-598
-632
-601
-528
-505
-563
-617
-552
-349
-90
144
347
553
749
861
842
742
656
623
592
505
401
385
494
647
722
695
645
641
644
561
366
154
40
44
85
82
30
-21
-35
-19
-17
-71
-196
-356
-460
-437
-301
-153
-67
-1
156
429
688
775
693
614
685
879
1045
1107
1131
1222
1392
1569
1696
1785
1874
1962
2023
2050
2046
2003
1919
1828
1769
1717
1585
1351
1115
1017
1072
1143
1111
1005
940
950
961
911
841
827
868
906
944
1065
1292
1505
1545
1405
1239
1183
1208
1189
1083
992
1030
1176
1288
1259
1110
926
748
551
314
50
-223
-512
-809
-1033
-1068
-892
-617
-387
-229
-16
395
1011
1700
2298
2724
2986
3131
3201
3215
3159
2989
2654
2151
1565
1047
728
634
675
721
699
638
621
706
878
1076
1250
1376
1432
1406
1338
1311
1372
1463
1444
1234
909
632
506
482
442
330
205
154
194
263
301
300
286
259
190
72
-45
-91
-45
38
91
102
119
170
217
187
55
-123
-264
-336
-379
-429
-476
-472
-402
-305
-234
-206
-200
-198
-212
-268
-373
-500
-623
-719
-778
-794
-776
-758
-760
-760
-707
-583
-437
-344
-323
-323
-285
-212
-155
-148
-169
-170
-137
-86
-40
11
85
183
290
379
446
501
549
592
635
683
740
787
793
749
681
639
646
669
660
615
588
631
743
883
1018
1149
1271
1355
1360
1283
1154
1009
852
666
445
215
31
-56
-35
48
125
153
151
183
266
353
386
361
343
389
486
578
645
735
900
1108
1270
1331
1339
1389
1517
1663
1736
1725
1698
1725
1797
1851
1849
1813
1783
1759
1713
1645
1599
1618
1681
1725
1715
1685
1682
1713
1730
1691
1605
1512
1425
1340
1264
1222
1225
1248
1245
1187
1072
902
683
434
185
-57
-316
-614
-924
-1196
-1403
-1538
-1574
-1454
-1175
-841
-582
-400
-129
402
1168
1938
2478
2736
2835
2902
2958
2944
2815
2586
2306
2041
1867
1845
1983
2196
2355
2382
2318
2269
2302
2381
2415
2354
2202
1998
1781
1603
1508
1479
1423
1247
981
780
758
851
882
764
597
512
480
343
39
-265
-342
-177
-10
-56
-266
-394
-304
-118
-63
-202
-393
-465
-375
-181
79
394
705
908
942
874
825
830
793
594
247
-99
-303
-336
-291
-281
-354
-471
-542
-529
-474
-450
-492
-554
-560
-483
-399
-438
-680
-1069
-1475
-1800
-2053
-2289
-2486
-2516
-2266
-1754
-1103
-403
350
1167
1956
2558
2886
2984
2951
2824
2603
2340
2137
2032
1959
1867
1796
1815
1890
1882
1727
1534
1454
1476
1434
1226
959
805
759
612
198
-391
-856
-960
-704
-306
-17
70
68
182
521
994
1385
1558
1586
1640
1810
2042
2244
2384
2467
2467
2334
2079
1793
1577
1452
1338
1158
893
609
403
341
388
423
345
162
-34
-180
-278
-330
-288
-102
183
433
561
643
816
1119
1465
1738
1888
1926
1868
1743
1599
1473
1351
1195
1026
927
958
1068
1139
1117
1048
997
963
867
646
314
