-604
-343
-99
-52
50
-133
-168
-277
-92
-64
11
-229
-561
-160
45
113
11
-364
-359
-280
-297
-225
-446
-496
-581
-354
-277
-144
-579
-608
-181
47
-105
78
-308
-341
-277
-260
-372
-252
-246
-328
93
96
6
21
-45
182
524
209
133
331
-48
-280
-515
-590
-252
-178
-190
-199
-354
60
122
75
93
301
574
420
560
151
159
562
399
561
333
102
-304
-352
-334
-318
-363
-166
-351
-72
232
254
-94
-249
-553
78
222
226
103
-233
-179
-97
142
329
97
-294
-275
3
-345
-219
-231
-349
80
-116
49
-370
-237
-518
-216
-183
-209
-220
-369
123
360
198
152
352
363
137
332
-99
-304
-185
-213
-139
-268
93
117
83
100
-25
129
140
-54
-308
-155
-311
78
51
-156
-625
-404
-246
-306
51
66
91
-91
-37
-68
99
56
81
81
-270
-144
-166
-296
117
-65
-60
-17
376
530
573
227
352
292
324
136
197
515
592
397
405
626
615
415
492
768
467
411
625
572
241
205
518
593
527
266
-280
-131
-299
48
-258
-369
-382
-281
31
-332
-246
-544
-156
-267
-288
-190
-568
-536
-143
-295
-288
-312
-281
51
82
20
-327
-339
15
124
-97
-102
-47
350
235
549
565
407
658
985
1241
1615
1434
1885
2007
2484
3144
3350
3349
2958
2720
2600
1778
1310
559
-348
-857
-989
-1264
-1634
-1552
-1324
-1050
-800
-572
-367
9
-290
-223
-407
-455
-636
-568
-579
-608
-570
-216
-153
-160
-156
-311
102
-66
-99
90
95
-96
-55
-72
-101
-108
-124
81
46
119
303
242
604
614
595
599
629
405
421
408
626
599
622
434
490
474
400
616
418
804
653
669
870
813
797
813
842
890
712
1050
1081
1040
722
720
1043
1110
1111
1062
763
743
712
654
884
703
1100
927
1131
742
648
645
683
698
685
678
672
642
856
826
792
454
588
245
247
536
226
324
-45
276
215
608
577
196
360
311
-27
114
66
-107
260
-22
64
-324
-277
127
-84
38
-137
-178
-329
41
42
-301
-375
-378
-341
-317
-325
-347
-378
-176
-245
-534
-225
-371
-268
34
23
-280
-349
-180
-249
-252
-201
-165
-209
-559
-596
-521
-137
-302
-269
7
26
4
-334
-150
-129
-288
43
31
-281
-305
-285
-262
12
69
-82
258
261
-33
-32
267
284
-17
-78
-92
-70
-71
-120
86
65
56
56
109
-31
309
-6
84
-266
77
-22
276
-78
113
-52
342
342
-66
65
108
-15
282
-85
33
0
64
111
92
66
101
-84
-65
115
5
-301
-266
49
67
45
29
45
66
57
18
-262
18
84
-102
-61
-55
-77
-110
-109
-45
312
374
332
-48
102
87
-121
-82
-76
-48
309
182
226
128
-33
-103
262
198
545
180
-38
79
125
281
140
150
373
374
133
346
-14
-81
-41
310
352
309
258
274
327
339
309
331
200
592
597
192
284
258
367
219
214
130
337
362
144
383
337
357
217
601
393
627
619
405
429
387
604
421
845
697
882
460
401
783
695
714
821
392
566
543
224
344
-47
-99
-71
-41
-74
79
-294
-358
-337
-268
36
18
-290
-309
-278
19
24
1
-272
-275
-280
-300
-304
-259
72
116
95
63
106
-29
302
-44
-259
-130
-265
290
528
555
244
613
724
1162
1419
1454
1465
1917
2308
2481
3073
3055
3237
3599
3290
3029
2840
2019
1609
832
1
-721
-1400
-1217
-1325
-899
-1052
-703
-784
-533
-311
51
45
-273
-357
-213
-581
-389
-610
-234
-359
-297
-339
-201
-572
-604
-537
-168
-323
2
46
63
38
-262
-261
93
-6
353
337
262
-17
308
157
215
212
193
186
181
156
368
343
359
142
157
134
376
168
513
572
563
546
612
501
871
867
791
510
841
675
682
890
642
745
1100
1079
701
870
670
1090
967
993
954
913
1139
1096
1045
1040
1092
1124
1054
655
820
859
692
699
856
771
806
644
644
506
615
606
467
806
483
565
165
378
133
371
308
-7
-23
-19
-38
-71
-77
-41
264
273
-14
-33
-16
-19
-121
-298
-166
-141
-270
61
-262
-149
-247
-516
-238
-224
-202
-166
-165
-242
-614
-425
-404
-609
-574
-532
-197
-384
-143
-228
-526
-203
-377
-155
-547
-629
-550
-159
-149
-555
-431
-623
-138
50
50
-350
-223
-235
-161
-341
-303
-283
6
34
22
-271
-275
51
-99
-56
-119
31
-258
77
-62
-13
-64
121
120
-64
269
268
-72
87
72
-89
303
363
288
-111
76
-110
273
320
261
-64
-56
258
268
-57
119
110
-95
-53
-50
-60
-72
-115
49
-288
-265
108
-74
117
-286
-347
20
-64
257
-71
113
-103
-9
-24
47
-165
-206
-298
-100
-46
106
-274
-293
46
-121
-90
-109
124
108
90
69
57
67
110
-77
-1
294
-2
-113
35
2
64
-90
-30
-60
99
-261
-320
-312
15
108
-86
-82
-107
-90
261
128
191
174
147
182
527
599
613
579
539
513
523
598
467
798
473
547
166
230
426
833
847
799
797
838
835
506
436
424
426
606
181
272
-53
-27
271
267
-36
-83
-96
-79
-52
-39
-46
-69
-92
-110
-109
-83
-54
-65
-122
85
113
-53
259
-47
96
30
53
93
66
-262
-268
101
-18
261
-90
106
-24
543
644
915
1343
1229
1632
1505
1882
2094
2208
2903
3197
3195
2715
2473
2564
2350
1896
908
333
-636
-1143
-1229
-1444
-1499
-1616
-1353
-1092
-891
-456
-528
-149
-180
-591
-454
-407
-517
-195
-525
-589
-225
14
-86
110
-314
-133
-307
56
58
-257
27
-65
370
156
303
-64
-27
146
554
561
208
157
223
558
242
301
-105
-39
200
408
439
599
537
605
501
879
640
820
476
465
806
650
655
801
435
454
845
702
677
802
443
461
828
692
763
1032
744
676
859
816
823
878
700
756
741
644
786
502
841
673
889
476
604
614
453
501
470
470
835
709
702
783
556
150
334
264
-64
-77
-5
336
336
-16
-115
125
-64
256
-5
-78
97
63
90
-127
117
55
11
40
84
27
-165
-614
-630
-191
13
56
-300
-367
-297
71
61
-333
-198
-195
-136
-154
-519
-599
-559
-197
-137
-144
-141
-335
-267
-268
-336
-144
-150
-360
-307
-277
-292
-373
-233
-556
-241
-330
77
105
21
-325
-339
-296
5
43
106
-79
-75
89
-280
-289
73
-76
-89
47
-305
-283
70
124
76
-278
-330
-291
53
117
119
87
81
123
-58
276
336
368
343
-15
95
-262
0
73
108
66
8
8
64
103
95
93
-123
-80
-101
76
30
64
122
122
65
43
106
-61
-50
119
12
-280
41
-96
269
322
296
-43
-110
-94
265
371
380
283
-90
123
-90
-29
-19
-55
-57
286
157
214
141
263
-58
-11
324
343
310
310
360
139
369
354
197
386
785
783
443
412
474
800
806
772
510
773
448
522
295
-127
67
61
55
42
37
31
1
-295
-293
33
-127
-92
95
-285
-367
-363
-321
-307
-324
-321
-280
-258
-317
-172
-220
-378
61
-86
119
-283
-379
-351
-259
38
-271
-344
-326
66
-5
138
246
413
721
1372
1427
1794
1515
1531
1698
1953
2403
2201
2405
2041
2108
1509
1000
408
88
-420
-1102
-1169
-1601
-1615
-1250
-1338
-1128
-857
-537
0
-119
109
-259
-343
-362
-362
-384
-141
-315
-117
345
150
274
79
15
-125
289
318
-63
54
51
-90
269
290
288
354
218
544
253
180
183
545
406
429
615
543
542
594
627
608
580
615
455
774
464
573
206
243
411
822
843
497
428
470
827
867
816
509
801
888
650
817
484
803
715
1077
1034
682
686
1049
1116
1036
886
828
654
762
1038
720
658
890
879
855
843
882
698
739
712
889
798
474
462
768
818
778
622
185
369
164
231
226
189
215
549
544
379
-96
73
-99
263
-25
62
-366
-180
-150
-346
-305
-295
-307
-328
-338
-340
-357
-147
-196
-208
-171
-374
-342
-352
-156
-528
-408
-470
-405
-526
-209
-559
-467
-797
-463
-574
-214
-179
-173
-182
-230
-551
-551
-195
-337
-336
-200
-568
-556
-202
-150
-199
-252
-198
-319
23
-264
-329
-320
9
36
-288
-360
-332
15
28
-363
-533
-559
-149
41
110
45
-312
-356
-343
-305
-257
50
80
64
22
17
92
-42
312
351
357
359
360
350
316
-8
-94
106
-121
-5
361
370
282
-49
-30
300
329
292
266
309
358
318
-58
115
-106
-7
290
-16
-80
-93
-74
-71
-66
264
163
566
603
520
155
367
155
251
597
637
617
565
533
546
582
609
609
593
572
549
531
526
536
556
575
590
595
561
210
337
-31
-107
89
16
-304
-325
-313
-314
-346
-364
-327
0
45
40
10
-275
-310
-352
-353
-287
62
96
40
-289
-286
44
100
72
2
-275
40
110
112
36
-294
-271
-123
364
611
836
1028
942
1363
1267
1659
1506
1858
1736
2171
2309
2034
2102
1862
1435
1549
980
623
-189
-921
-1626
-1800
-1836
-1812
-1439
-1200
-1150
-877
-407
-203
9
-85
-57
88
-315
-381
-332
24
98
119
117
-117
-63
-16
-14
-58
-100
-70
305
188
513
225
139
330
316
344
138
202
515
531
237
185
170
195
220
228
236
522
544
520
216
215
548
385
405
607
566
601
413
433
398
384
469
889
762
761
640
503
448
494
828
843
511
410
632
437
797
883
692
1035
902
1005
1009
923
1090
1084
1150
938
1140
766
681
683
716
696
874
814
839
655
677
869
782
492
504
496
442
384
615
591
528
194
160
185
224
230
209
199
189
380
-6
-128
97
-90
-1
270
-60
93
42
69
-127
-115
73
-286
-355
-377
-145
-196
-238
-224
-178
-177
-253
-593
-597
-537
-521
-608
-448
-402
-197
-268
-310
-575
-820
-798
-253
27
32
-220
-467
-472
-251
-269
70
0
-356
-136
-368
-345
-355
-378
-370
-325
-287
-297
-331
-320
21
109
105
9
-321
-276
91
116
-267
-190
-517
-162
22
-96
-59
-92
-125
-115
-89
-86
-106
-105
-54
-5
-36
105
21
66
-60
277
259
-25
284
358
307
112
-289
49
286
146
-22
-327
-207
-302
-20
371
286
-112
124
-30
317
295
-54
-115
-108
-70
-37
-16
-3
-20
-60
-73
-17
326
362
326
282
278
278
-31
-99
-64
358
251
219
297
-63
316
570
459
387
248
247
397
769
451
533
181
243
603
588
177
-16
86
-293
-146
-190
-131
-277
24
-308
-150
-130
26
-56
266
-52
85
-283
-375
-174
-171
-369
-289
21
33
14
-269
-279
14
104
-45
268
-21
-110
85
102
-77
-22
-42
-94
-68
353
582
497
841
708
1001
1411
1701
1705
1534
1483
1728
2398
2678
2664
2212
2038
1930
1722
1236
488
-298
-878
-916
-1022
-1342
-1401
-1384
-944
-853
-217
42
110
48
-288
-335
-384
-221
-567
-544
-368
-124
286
270
-103
64
58
94
109
86
76
118
-68
-15
-2
-6
278
356
190
238
229
196
195
240
546
559
531
512
536
569
544
194
375
167
595
504
788
424
572
591
465
839
849
782
484
771
837
875
880
654
743
1104
1145
1078
696
864
863
656
698
714
724
747
1033
1063
1105
910
959
952
898
1109
1091
1053
694
816
487
773
844
867
821
510
499
771
511
480
463
484
510
477
621
223
133
141
212
527
521
203
383
322
271
-33
-53
-24
281
283
-55
60
-319
-356
-300
50
86
8
-155
-551
-574
-245
-188
-219
-547
-569
-532
-521
-598
-444
-453
-607
-246
-248
-596
-412
-401
-603
-582
-598
-595
-544
-238
-514
-607
-443
-463
-408
-594
-571
-588
-579
-245
-136
-338
-365
-152
-130
-310
-275
-333
-162
-170
-340
3
26
25
84
-53
269
-63
40
-280
93
291
136
315
-96
87
-103
266
306
-1
-59
-45
284
346
351
325
308
308
308
306
303
284
-46
92
16
71
-22
380
150
327
-13
-36
-19
-9
-7
263
276
-8
-82
102
81
105
-123
-109
-88
-46
-18
-42
-102
116
-120
-71
-51
-82
125
92
61
7
-312
-318
30
-89
-27
-111
-261
-320
43
-40
299
258
-52
-27
300
321
270
-33
-12
294
302
256
-51
-77
-96
-114
-93
-12
347
144
383
342
332
361
147
202
534
611
636
581
239
221
589
511
882
866
779
473
485
497
465
419
403
631
248
286
125
125
-63
-119
-321
-199
-332
-50
349
-55
-310
-369
90
323
347
-87
0
-262
99
-99
96
-263
-297
14
91
113
60
-273
-292
44
-74
286
300
-11
-74
-104
-99
-50
335
561
816
738
1078
906
1327
1273
1414
1500
1906
1925
2215
2592
2246
2328
2173
1709
1551
658
-44
-387
-1108
-1228
-1488
-1508
-1244
-1105
-821
-491
-496
-394
-159
52
82
-311
-215
-545
-547
-255
-171
-282
109
-128
18
-347
-321
75
-78
-108
68
98
268
182
201
329
-50
-27
144
583
391
587
242
209
234
518
529
558
628
447
468
439
418
442
476
476
461
492
827
875
827
474
447
809
721
1080
1075
767
754
1051
1101
1116
1110
1121
1146
1148
1108
1059
1041
1047
1033
727
690
713
756
724
837
427
392
502
647
712
686
894
860
828
796
801
860
650
843
419
533
521
603
406
636
580
578
611
581
194
303
-11
286
327
292
-45
-88
-81
-89
105
39
42
91
81
-304
-213
-528
-178
-303
2
-285
-293
26
83
32
-373
-247
-525
-207
-154
-167
-217
-246
-236
-212
-182
-383
-307
-263
-303
-153
-236
-230
-159
-355
-335
-310
10
62
34
-300
-308
68
-31
266
-95
20
-307
-317
-331
-358
-346
-281
25
2
-308
-296
67
-67
-25
-61
-97
-67
-6
256
-85
62
27
96
-56
-15
-60
112
33
-286
-320
-277
101
-51
-84
21
-340
-268
-88
262
-67
66
40
117
-88
116
21
-273
25
89
123
122
99
63
25
7
16
47
93
-94
-21
256
-66
89
62
-98
303
370
312
-57
-123
-111
-70
-33
258
293
295
-24
-116
115
-43
374
209
157
291
-21
291
362
322
-77
82
-102
349
236
208
318
-47
-35
288
305
257
-40
-25
269
278
270
305
142
232
237
146
276
-79
127
126
-83
263
372
197
210
152
329
291
324
130
142
326
-33
-82
-46
284
318
284
-19
-18
290
313
-19
104
57
-58
202
634
589
135
-12
274
140
176
331
-52
-71
269
345
344
321
362
215
555
551
240
213
242
527
246
197
205
551
407
470
479
479
489
487
469
478
809
885
854
451
550
245
555
615
611
558
224
372
-18
-113
-96
261
328
278
-108
47
29
58
84
111
-82
263
306
-11
113
9
20
-113
271
284
-96
16
-263
88
-83
-104
75
79
-62
293
267
-81
-77
348
587
507
872
1026
1280
1543
1422
1423
1449
1678
2378
2842
3084
2762
2518
2293
2382
2122
1605
864
110
-465
-1090
-1335
-1244
-1545
-1157
-1147
-856
-630
-244
-190
-168
-149
-142
-175
-516
-600
-606
-520
-165
-383
-129
-352
-265
53
14
-339
-379
-304
68
-116
-87
-38
306
377
128
369
138
220
569
630
403
388
583
512
512
628
803
655
643
830
789
782
510
480
482
799
876
649
887
870
881
642
646
659
703
758
1024
716
894
856
650
1040
927
977
1146
747
686
754
1117
1142
1089
1063
1112
896
1101
758
752
1091
1138
1051
651
853
654
689
851
429
595
637
466
481
407
567
251
228
211
190
165
140
373
345
291
-48
-118
-98
292
195
244
373
-103
9
35
-89
-15
-79
36
-308
-289
38
84
101
-128
-98
-121
35
-333
-377
-357
-343
-367
-381
-330
0
-257
-358
-217
-245
-181
-352
-308
-306
-324
-361
-166
-208
-183
-347
-263
0
-321
-377
-361
-285
38
49
23
9
26
41
17
-303
-360
-352
-259
-123
-19
-1
-52
-96
-66
282
358
361
317
281
267
-18
-87
91
65
109
-74
-33
-58
120
54
73
-67
325
367
273
118
12
-268
-257
-257
-260
24
68
86
66
59
109
-79
-69
119
35
22
76
110
54
-307
-367
-329
25
107
-119
-118
120
65
-279
-344
-316
51
-108
-109
60
-286
-315
-286
31
106
-81
-56
-89
-128
-112
-37
290
300
273
266
292
300
-20
-127
70
-123
292
179
199
336
-83
89
125
-38
272
-13
-86
118
123
-79
-12
292
311
313
307
288
-14
-76
-105
-70
259
306
307
295
308
331
321
284
285
350
159
143
305
-37
-54
-23
262
278
305
337
335
284
-27
-42
-24
-22
-56
-85
-72
-43
-55
-122
61
43
97
-80
-40
-57
-99
-123
-111
-76
-29
293
377
177
146
271
123
73
-105
267
321
309
314
383
193
182
379
139
546
460
472
553
359
340
518
476
816
501
408
632
412
472
771
794
816
839
849
821
496
427
403
412
631
232
287
-104
-118
-97
114
25
2
95
-44
-21
-61
-36
338
148
289
70
-287
85
276
316
-115
-338
-158
-309
116
-33
-27
-96
54
-303
-343
-270
-95
343
156
333
-51
-76
324
572
805
718
1126
1308
1223
1553
1563
1408
1733
2231
2943
3162
3145
2784
2706
2871
2616
2082
1291
152
-604
-1096
-1355
-1249
-1619
-1647
-1239
-916
-820
-587
-245
-233
-241
-533
-604
-390
-583
-176
-313
-317
-148
-178
-331
76
-113
89
-258
-277
48
-117
-62
-44
-33
-7
292
322
313
276
274
377
561
420
589
348
-81
-14
208
604
552
191
232
423
826
787
387
582
431
855
691
671
856
804
801
849
671
735
742
699
657
657
675
651
855
867
756
970
1342
995
764
842
850
744
1127
1105
682
483
386
445
860
740
751
640
511
449
456
457
399
555
206
145
379
141
187
214
177
354
318
379
231
532
195
283
-121
82
-113
272
366
323
-89
39
52
-99
-63
95
-291
-325
-287
-304
-156
-233
-163
-258
89
41
-315
-356
-343
-358
-179
-520
-549
-253
-175
-361
-335
-377
-205
-254
-212
-360
-269
11
-270
-303
-311
-294
8
86
-105
123
-280
-216
-589
-565
-186
-322
-280
-302
-310
14
125
-77
117
2
-308
-265
48
17
-346
-154
-345
40
125
-115
-95
-21
294
-15
106
14
43
112
102
11
-314
-286
46
69
32
27
113
-19
286
-37
101
18
2
33
80
117
123
88
28
-273
-281
-260
22
34
38
13
-314
-156
-212
-152
18
-75
-35
-127
12
-274
30
61
22
-267
70
-22
327
265
-89
-46
138
252
152
-43
-87
299
355
-106
-156
-218
61
131
164
-85
-302
-271
-93
261
-31
-71
-32
269
-33
127
105
-47
341
129
327
-4
-21
270
305
307
294
311
379
199
202
354
-32
-67
268
346
307
-74
107
-115
-62
-87
101
123
267
132
328
122
-298
-290
87
-70
-41
-20
295
353
352
306
286
313
337
312
-9
-72
-118
96
60
64
-128
-51
-31
-83
107
91
120
-115
124
98
117
-70
-15
-33
-95
-120
-80
-18
277
285
286
278
-11
-54
-59
264
377
223
538
564
570
559
551
576
386
451
463
422
633
630
421
496
844
675
719
694
881
817
775
482
436
396
634
625
589
255
164
329
-32
116
54
72
126
120
15
-366
-131
-274
-114
-24
-52
100
-262
-320
-319
-270
48
81
77
55
51
85
-119
-76
-69
-109
70
5
-263
6
-270
-326
-330
66
344
397
643
1094
1290
1223
1608
1439
1863
1949
2661
2795
2986
3010
2966
3141
2691
2299
1692
918
316
-500
-1356
-1611
-1556
-1381
-1012
-976
-911
-742
-782
-635
-581
-562
-542
-557
-614
-638
-535
-325
93
89
-297
-152
-168
-137
-134
-146
-360
27
-61
327
379
354
289
-23
-45
-38
-19
262
306
365
138
362
308
316
167
567
393
629
557
515
548
620
398
613
538
537
403
813
846
469
588
599
501
653
679
856
774
494
791
641
1045
1143
1086
885
443
419
783
865
848
817
866
714
1027
740
685
667
679
682
666
889
813
434
605
396
806
656
841
397
253
217
192
347
-30
-47
329
216
252
169
302
-44
-91
-112
-124
102
25
-338
-159
-146
-304
73
-80
256
308
314
262
-84
87
35
11
-265
-284
-311
-359
-154
-163
-349
20
94
82
28
17
60
73
-261
-138
-220
-197
-384
-363
-161
-222
-221
-170
-379
-360
-343
-296
8
-263
-353
-194
-213
-381
4
81
71
19
-272
-264
18
37
64
119
-85
-106
27
-368
-133
1
-69
271
-41
-127
-119
-17
323
303
-47
-114
-122
123
42
-343
-166
-131
-280
61
75
51
42
61
77
70
58
78
-128
-103
101
-268
-363
-372
-305
33
76
84
82
73
41
-263
-281
13
85
-110
-77
-61
-56
-64
-73
-47
291
374
373
281
-68
-79
-21
272
-12
-44
-3
346
129
307
-85
87
106
-64
272
301
264
-65
-120
-102
-26
299
304
266
-8
265
259
-59
-107
-48
345
163
344
-59
127
-71
264
258
-63
-81
-22
286
-5
-103
85
95
-108
-61
-32
-31
-69
124
99
-91
288
375
372
326
300
287
-15
-91
119
-126
-102
127
70
65
-125
-53
-47
-82
-88
-36
277
287
-5
-42
-47
-23
275
325
373
149
152
381
343
324
356
191
557
614
586
255
211
239
569
390
462
793
861
872
804
452
403
429
474
472
412
585
229
343
-75
85
112
-53
-40
80
-365
-190
-354
77
-52
-26
-69
-120
107
104
110
87
7
-351
-375
-262
-87
-8
-93
21
0
-100
345
373
-56
-279
-374
-300
100
-41
311
209
453
725
958
1156
1620
1840
1773
1927
2385
2446
2809
3042
3036
3110
2880
2613
1920
1223
615
-207
-1102
-1555
-1852
-1693
-1801
-1228
-922
-744
-887
-464
-243
-363
-162
-590
-457
-462
-432
-452
-477
-396
-206
-298
-295
-180
-570
-571
-191
-287
103
-50
275
295
261
-37
-34
285
368
158
155
136
131
148
175
209
255
570
628
416
448
476
493
485
460
457
480
499
470
402
607
604
635
435
798
707
1108
1124
741
867
883
1036
906
1128
720
865
893
759
1103
1081
734
680
732
1099
1135
757
813
467
843
1066
926
1093
895
502
489
790
798
489
413
612
585
571
550
513
205
163
157
181
203
179
343
-46
99
83
-91
259
267
-91
30
-301
-303
-286
-297
-321
-322
-308
-328
-136
-185
-153
-303
45
45
-292
-380
-177
-234
-594
-449
-469
-624
-244
-228
-577
-630
-533
-361
-282
-354
-209
-237
-208
-236
-604
-426
-622
-223
-151
-200
-515
-215
-360
-314
-369
-165
-378
-280
-257
-341
-161
-379
-271
32
-276
-321
2
-125
-86
56
-360
-147
-293
114
-74
-111
81
68
113
-80
-34
-12
-8
-11
-29
-80
80
-285
-344
-318
12
52
7
-345
-159
-140
-289
93
-79
-69
-126
45
-279
-314
-338
-364
-369
-318
39
123
126
62
16
54
-100
-13
-21
112
-338
-252
-557
-200
-282
90
73
-278
-335
-291
67
-124
112
48
18
68
-84
-15
-45
121
83
-92
295
345
263
-106
-125
-57
-28
-100
64
82
-47
314
288
-77
115
-103
-5
346
172
233
229
140
298
314
216
390
425
557
140
332
129
209
233
196
155
180
548
445
814
837
801
780
804
826
786
418
529
130
269
-44
-12
330
366
269
83
-317
-325
17
95
111
99
97
90
53
13
26
91
-124
82
-291
-380
-130
-353
-348
-369
-350
-275
53
54
-257
-299
-295
-273
0
44
-120
-10
329
160
590
867
909
1396
1547
1415
1797
1667
2066
1999
2205
2585
2562
2420
1969
1692
1215
499
-322
-766
-1217
-1460
-1853
-1680
-1669
-1522
-1237
-1103
-428
-343
80
49
-350
-208
-203
-358
-263
19
17
57
122
126
30
-341
-349
21
-123
-117
89
112
256
153
190
133
354
145
205
194
383
346
372
149
151
161
229
581
604
252
138
156
586
509
784
385
236
221
584
435
459
431
427
468
495
466
408
637
413
475
783
807
807
799
796
808
838
872
642
659
658
877
787
430
401
493
650
746
715
881
844
890
680
641
793
478
780
874
889
778
624
569
417
844
672
850
421
540
254
532
255
170
343
318
325
292
-47
-105
-71
286
351
315
-42
-124
102
86
39
-285
-330
-336
-335
-362
-158
-197
-204
-190
-185
-196
-228
-539
-594
-610
-575
-525
-251
-517
-233
-139
-313
-360
-546
-471
-476
-546
-344
-307
-195
-628
-429
-612
-247
-189
-193
-228
-530
-576
-594
-547
-187
-338
-287
-291
-315
-328
-330
-327
-319
-318
-336
-348
-309
47
-116
-127
8
-362
-352
13
83
24
-356
-166
-137
-329
-273
56
-95
-24
-68
51
-319
-327
-268
32
48
85
-106
-78
118
35
35
-128
-45
-68
83
4
1
25
19
10
64
-69
298
303
-52
94
74
-104
257
318
319
295
269
-12
-32
-32
-1
296
311
302
299
310
313
305
322
137
217
226
152
332
327
375
146
142
166
250
597
625
598
580
597
601
545
204
145
375
318
-57
64
-260
19
79
104
58
-295
-381
-151
-376
-331
-307
-301
-288
-270
-278
-323
-367
-362
-316
-300
-355
-195
-252
-226
-158
-380
-169
-513
-557
-253
-160
-377
-184
-543
-563
-180
38
-9
143
541
467
685
911
1388
1611
1812
1696
1757
1778
2062
2101
2118
2077
1674
1619
1110
215
-150
-648
-1298
-1650
-1682
-2052
-1673
-1647
-1345
-1083
-826
-541
-263
-59
285
-11
97
-355
-229
-203
-300
121
-71
-102
111
117
-106
-76
-45
256
307
348
379
151
168
166
167
220
588
435
442
617
551
570
619
599
251
188
224
552
538
174
361
189
394
827
872
826
789
794
805
794
791
837
651
661
826
444
407
769
686
1051
1044
733
709
706
667
855
863
752
940
988
1096
892
830
697
1115
918
1125
1054
1028
1038
1057
1082
1099
1084
1031
728
727
739
679
787
394
637
472
783
459
598
566
632
425
621
253
221
543
598
537
139
282
-7
-3
-20
-62
-107
89
-264
-355
-379
-333
-293
-328
-145
-170
-134
-382
-221
-610
-640
-533
-159
-183
-596
-480
-488
-406
-611
-633
-412
-408
-388
-404
-445
-449
-395
-589
-562
-554
-528
-237
-254
-597
-422
-411
-563
-200
-168
-203
-241
-250
-254
-532
-544
-239
-138
-318
-336
-173
-246
-218
-360
7
42
9
-284
-283
3
39
84
-98
-6
306
278
-79
75
38
63
100
118
-126
-87
-39
-28
-55
-71
-31
303
345
302
-40
-81
-51
-2
257
-29
-35
262
293
-4
-97
94
112
-67
267
327
381
153
355
-29
125
-115
-11
319
300
-6
267
347
133
353
332
161
557
605
246
374
375
241
600
597
556
575
384
639
526
145
148
554
476
806
497
384
549
514
516
253
196
348
-19
-98
97
20
-324
-379
-366
-316
-292
-319
-356
-361
-330
-283
27
89
-127
108
23
-337
-164
-217
-243
-235
-190
-143
-145
-196
-224
-164
-288
91
-106
-105
-119
-109
-53
319
216
614
485
664
950
1276
1472
1470
1411
1531
2166
2630
2921
2923
2481
2278
2373
2167
1530
925
178
-551
-1120
-1224
-1659
-1443
-1602
-1368
-1046
-479
-516
-143
-343
-318
-323
-352
-375
-354
-288
28
42
29
48
124
-62
-95
7
-158
-197
-341
64
120
88
87
-69
310
327
-35
117
-114
288
169
199
153
135
190
518
525
208
161
197
551
626
615
528
181
175
545
470
867
882
792
447
460
826
671
675
844
488
439
434
438
439
458
781
643
1040
1140
1146
1082
1042
1092
946
1000
941
1112
1119
945
967
1122
753
1035
934
1298
974
1044
641
865
643
669
661
882
828
782
779
819
837
782
443
423
468
463
575
367
262
326
191
232
178
358
301
-15
-93
103
99
122
117
78
51
55
61
50
38
36
20
-300
-146
-247
-580
-639
-413
-634
-527
-163
-150
-246
-607
-617
-536
-208
-217
-532
-572
-576
-601
-420
-484
-452
-575
-198
-178
-229
-243
-174
-349
-349
-161
-198
-152
-343
-343
-143
-174
-138
-339
-320
-313
-266
67
95
34
-304
-300
69
-38
316
334
292
-43
-126
85
111
-73
-27
-51
-121
99
-123
-48
272
304
318
330
317
-15
119
20
12
79
-110
-104
114
99
-127
-91
-83
-66
277
155
220
135
-41
103
-123
-35
-12
-78
115
126
-79
-63
-94
-118
-100
-68
-67
-92
-115
112
48
-286
-312
6
114
-50
268
324
374
378
321
271
304
138
169
317
-124
10
22
125
-26
290
320
350
135
196
527
591
613
590
561
555
560
545
252
250
581
441
498
444
595
534
533
528
207
376
352
136
141
287
115
10
35
125
-81
-91
-112
-114
-125
101
99
-86
285
358
339
261
-74
119
64
23
25
79
-115
-98
119
63
32
45
102
-69
272
329
344
330
336
145
520
634
450
776
674
929
1179
1545
1270
1558
1814
2013
2465
2742
3103
3148
3168
3079
2530
2031
1651
678
-74
-505
-985
-1184
-1156
-1022
-1121
-692
-492
-549
-144
-321
-293
-294
-326
-130
-201
-246
-236
-157
-279
117
-48
-37
-95
72
-267
-319
-312
24
-100
260
261
-82
112
-92
289
367
345
309
368
231
513
377
-45
-39
170
394
453
635
598
427
802
838
797
781
836
650
675
679
698
700
891
800
804
686
1076
1032
828
432
787
1049
974
943
1062
758
1099
922
1120
730
705
1124
1333
1374
945
734
691
1090
977
954
1064
726
1037
1109
1071
721
713
1082
905
1054
816
394
399
469
437
554
197
243
618
384
243
300
-44
301
209
528
161
-26
-113
-27
376
152
278
110
54
107
-128
9
-188
-544
-217
-333
-272
-322
-138
-154
-137
-148
-187
-185
-377
-325
-130
-546
-425
-429
-578
-211
-161
-147
-368
-301
10
11
-288
-315
-286
45
100
79
-267
-352
-338
49
-27
350
337
-48
54
-283
4
93
-112
114
62
77
-79
277
297
264
265
341
164
140
272
-92
-86
266
338
330
291
287
305
284
-35
-71
-42
-1
-11
-42
-1
371
185
377
256
-22
336
159
352
-49
118
109
89
30
45
-46
151
180
268
100
108
-25
267
-100
40
59
-87
-38
-95
115
-85
277
319
272
-33
-17
274
-15
-109
92
-112
-14
266
-78
64
22
59
122
-83
-30
286
310
259
-99
67
24
17
35
87
-93
-68
-128
65
118
298
199
175
256
104
89
-94
-53
-66
-49
300
137
133
290
-55
-58
-2
284
260
-17
278
370
194
196
383
319
343
210
587
586
187
278
-32
310
178
227
196
149
373
347
348
176
606
508
782
417
587
631
470
459
577
219
558
509
892
829
411
586
394
506
795
454
557
151
296
-19
-26
-9
-11
-56
-128
76
80
124
-109
91
-285
-377
-336
85
-33
-77
-298
-251
-256
-319
-128
-116
-263
-144
-148
-310
21
40
64
-123
-63
-98
40
-298
15
-78
315
343
332
158
631
641
1108
1020
1211
1420
1817
1857
1666
2175
2626
3073
3063
3366
3337
3008
2755
2188
1626
790
120
-636
-1056
-1402
-1585
-1539
-1310
-759
-483
-242
-291
100
121
28
-375
-244
-551
-242
-359
55
-115
107
6
-326
-328
-282
20
54
97
-110
-86
-96
-108
-87
-38
259
267
-3
-21
-24
259
324
149
209
227
227
238
234
185
368
350
173
536
572
532
512
573
407
433
389
608
633
425
442
437
456
496
511
494
772
878
737
728
815
385
391
838
1039
1084
733
655
695
1049
1081
767
712
745
1089
1116
765
871
779
791
860
647
874
790
442
385
389
441
500
783
497
405
524
129
310
338
166
203
140
299
282
339
348
-20
92
47
100
122
35
-323
-313
37
77
26
-258
85
-61
-116
-361
-587
-597
-180
-325
-139
-549
-609
-531
-172
-174
-544
-413
-448
-632
-518
-200
-240
-619
-478
-488
-618
-187
-367
-205
-390
-771
-480
-599
-247
-516
-567
-554
-227
-194
-248
-566
-522
-380
-257
15
-295
-333
-324
-308
-308
-299
-257
34
8
-323
-379
-356
-268
90
-75
258
300
268
-86
92
104
-63
274
279
-32
-86
-114
122
98
108
-77
267
292
-27
-107
-125
-82
-46
-61
-96
-108
-98
-111
101
81
127
-61
-41
-77
-112
-103
-88
113
-263
-353
-318
78
-58
-47
-101
-100
-4
337
293
-105
74
-99
289
278
94
-346
-348
65
-54
-49
-119
92
84
54
-258
-272
48
125
127
56
-271
-285
-260
20
48
92
122
99
37
12
69
-105
-93
88
16
28
83
55
-351
-250
-252
-341
90
98
-306
-182
-149
20
-78
-44
-106
100
123
-72
-57
-123
39
8
81
-48
287
-1
-111
47
11
43
119
-59
-16
-48
103
-271
-313
21
-77
308
328
-7
-103
127
-79
-29
-47
-114
103
117
121
54
-302
-327
15
-119
-56
-51
-42
-4
269
-20
-57
-54
-39
-63
-115
-114
-19
355
145
371
344
364
137
372
304
-29
-98
91
55
117
291
244
629
635
584
571
632
486
834
843
477
528
327
-18
279
339
290
113
-336
-169
-150
-364
-370
-153
-161
-367
-286
23
14
-307
-381
-145
-319
91
-41
-39
97
-294
-333
-263
86
109
51
-281
-322
-325
-309
-285
16
85
-101
-67
-71
-91
-104
-98
-75
-15
364
560
781
705
1098
987
1197
1457
1724
1996
2585
2726
3335
3248
3448
3003
2761
2663
2074
988
345
-414
-945
-1547
-1490
-1509
-1580
-1019
-745
-832
-452
-557
-138
-317
-131
-545
-412
-427
-631
-594
-585
-558
-202
-313
28
-290
-215
-632
-640
-166
-260
120
96
-266
-331
-284
101
-33
272
257
-23
-15
-5
-54
90
-258
25
-86
324
131
369
356
141
194
212
215
249
540
245
378
284
343
526
420
438
392
413
508
815
497
415
453
870
732
668
480
625
439
848
657
859
813
879
736
745
875
494
508
878
660
793
622
574
411
488
429
562
543
405
507
450
531
157
185
532
549
229
191
228
247
135
-78
23
36
-94
-17
-73
54
-286
-291
-274
-293
-336
-348
-327
-332
-152
-515
-553
-216
-345
-289
-347
-191
-233
-209
-205
-540
-394
-426
-597
-220
-165
-223
-607
-451
-459
-636
-553
-565
-437
-852
-663
-856
-485
-425
-439
-464
-446
-399
-629
-385
-407
-403
-629
-589
-556
-542
-555
-581
-591
-565
-514
-212
-182
-159
-143
-160
-210
-250
-204
-313
107
-68
-102
75
52
112
-72
-69
-126
100
-94
272
317
-9
-123
98
-87
-1
-23
97
-301
-345
-289
56
-119
-38
299
328
273
-90
94
92
-127
-107
-123
94
49
20
50
-105
259
275
-86
44
18
86
123
36
-374
-190
-370
20
71
-261
-132
-202
-173
-335
16
73
74
28
-302
-359
-348
-262
113
-55
-34
-68
-115
111
97
89
93
95
65
-266
-364
-169
-162
-130
-380
-138
-380
-325
-295
-361
-226
-526
-156
38
-115
78
-309
-362
-297
60
107
106
111
-113
-84
-74
-77
-83
-104
106
69
89
-101
-55
-82
111
99
-87
-3
-3
-91
86
91
-103
-84
89
-291
-342
-269
127
-46
-98
16
-346
-324
62
-71
-51
-118
78
86
-110
-50
-3
311
382
179
178
128
325
294
306
353
151
180
181
188
238
566
607
606
621
449
796
503
545
268
93
73
113
95
-257
-367
-166
-147
-335
-259
46
57
48
47
41
-273
-149
-543
-584
-250
-137
-353
-138
-185
-180
-147
-381
-358
-297
32
24
-352
-227
-234
-359
38
67
-258
-313
-281
40
61
33
41
-86
154
416
868
741
1123
1305
1275
1485
1912
2089
2333
2632
2882
2725
2913
2491
2272
1941
1409
674
124
-836
-1339
-1624
-1452
-1616
-1404
-906
-700
-778
-578
-360
66
111
26
-129
-541
-398
-431
-620
-234
-143
-158
-228
-251
-201
-147
-148
-165
-366
26
-108
-88
104
53
69
121
-93
-53
282
135
199
162
321
278
346
214
531
230
153
132
163
177
159
184
561
451
498
413
552
522
590
416
433
385
575
538
552
619
440
475
472
500
868
745
1028
663
794
777
858
668
662
645
677
706
643
511
455
825
1024
1124
1054
665
873
671
725
697
875
827
827
809
472
621
573
631
496
829
771
582
358
-35
-39
270
-6
111
-311
-371
-292
86
-115
120
96
112
-126
105
43
-279
-343
-168
-514
-553
-251
-174
-164
-516
-388
-449
-415
-604
-573
-591
-618
-632
-390
-411
-428
-413
-625
-590
-593
-627
-415
-457
-492
-496
-438
-585
-241
-240
-569
-631
-616
-550
-250
-519
-550
-543
-246
-220
-234
-252
-221
-136
-309
-279
-302
-328
-312
-261
53
103
-104
-45
259
262
-37
-87
-105
-88
-56
-4
331
147
152
342
277
288
352
346
-51
18
-325
-279
41
19
-300
-267
-92
366
178
347
-36
-81
-30
307
355
347
291
-50
127
103
-108
-45
-21
-45
-72
-63
-44
-59
-103
127
-106
-57
-40
-95
51
-306
-336
-272
103
-68
-78
120
98
-121
-99
94
1
4
125
-23
-52
81
25
108
-37
-36
111
14
-262
-267
-342
-202
-250
-170
-275
94
121
103
100
-127
-99
-101
-121
-118
-91
-100
63
-318
-368
-289
95
-112
96
61
123
-38
-32
-119
98
-63
320
308
-117
-264
15
-118
-76
112
91
-20
165
167
-42
29
83
301
153
262
18
-339
8
-123
-115
72
73
-67
326
374
321
-5
-30
-6
298
345
369
358
337
345
131
169
163
132
141
205
249
188
296
-69
-39
358
240
563
582
606
392
429
457
490
780
787
509
468
402
546
141
294
293
322
-7
51
-371
-349
63
-124
-262
-204
-229
-303
-120
120
-317
-203
-184
-314
40
47
-268
-362
-216
-552
-536
-152
10
104
90
11
-299
-269
102
-17
311
272
-94
73
77
-78
347
574
855
897
1402
1556
1625
1419
1518
1707
1997
2589
2872
2770
2796
2758
2924
2680
1936
1253
814
-12
-234
-725
-1198
-1468
-1650
-1324
-740
-816
-461
-584
-182
-144
-248
-605
-557
-140
-302
-358
-184
-131
41
-103
95
-295
-334
4
63
-264
-141
-170
-296
127
-81
86
-277
-297
22
97
-106
-45
298
371
371
304
-5
285
144
512
546
240
157
353
343
376
170
216
512
552
598
386
412
418
411
404
411
435
463
468
440
413
437
785
646
716
717
689
673
672
659
880
849
856
652
711
732
693
877
825
834
892
690
706
701
695
679
882
810
788
846
650
861
437
248
148
151
194
235
530
555
528
177
324
277
303
338
293
-93
32
1
78
-87
-90
68
-272
9
96
103
-290
-211
-534
-218
-146
-168
-514
-578
-597
-625
-430
-477
-449
-617
-542
-531
-587
-424
-509
-783
-442
-563
-246
-575
-449
-488
-402
-564
-587
-437
-486
-406
-548
-541
-398
-506
-493
-632
-520
-224
-230
-241
-518
-565
-613
-597
-234
-352
-270
-261
-264
26
85
105
73
48
94
-74
-46
125
-260
-292
81
-13
295
-47
102
106
-48
287
270
-39
-20
339
156
358
-49
96
127
257
347
302
-90
69
88
-91
-74
115
75
-94
335
176
353
-74
101
-68
346
160
343
-58
91
63
77
95
99
100
108
119
-120
-89
-66
-81
110
41
43
116
-81
-116
40
-265
50
-122
-128
40
1
90
-45
-54
42
-361
-319
-108
337
340
-73
13
-307
-262
73
-126
-119
101
36
-285
-304
1
92
-71
-17
-28
-98
68
19
45
118
-76
-54
-50
-32
-5
259
-21
-53
-69
-69
-64
-63
-82
124
57
26
70
-77
287
341
338
304
259
-49
-89
-88
-48
-10
-8
-41
-79
-88
-60
-14
275
278
-1
-24
-41
-65
-97
-96
-35
301
302
-67
43
-275
33
121
-90
-78
-41
294
364
373
322
258
-29
-13
282
296
260
-52
-63
-7
333
132
158
182
211
214
175
135
134
172
214
244
546
632
463
497
467
415
385
631
608
565
513
189
324
-107
2
-267
116
-2
-9
79
-348
-354
66
-17
261
-118
11
-275
13
2
-329
-371
-284
-102
278
-17
91
-266
23
-115
-32
-40
-104
81
0
-337
-369
-293
117
-27
-23
-50
276
206
395
775
654
917
1272
1527
1827
1534
1664
2042
2501
3072
3192
2960
2949
3073
2463
2173
1559
686
299
-607
-1136
-1170
-1239
-1216
-1181
-1327
-1071
-476
-225
-164
-229
-554
-571
-564
-560
-543
-242
-194
-186
-219
-248
-239
-199
-151
-356
-295
35
99
119
85
29
-257
27
78
77
1
-339
-334
40
-67
276
296
312
358
141
141
377
131
188
516
566
584
574
539
250
523
616
475
777
466
635
604
393
458
506
814
883
681
678
889
861
877
643
648
674
750
1068
1024
889
798
854
745
1081
767
662
880
653
673
659
668
742
1084
1104
1045
728
705
673
838
472
435
485
786
475
609
545
607
473
784
457
566
173
333
-10
-110
58
21
28
25
-276
-335
-352
-324
-310
-361
-192
-234
-197
-144
-158
-236
-548
-520
-189
-157
-200
-525
-575
-621
-444
-773
-499
-630
-250
-252
-637
-510
-784
-458
-411
-441
-500
-775
-497
-473
-463
-443
-395
-586
-513
-164
-320
-279
-349
-212
-223
-310
-89
-21
94
-346
-383
-280
57
25
-293
-257
115
-89
73
-330
-371
-262
-109
-40
-77
111
78
85
99
90
62
48
70
117
-103
-109
106
69
72
-124
-13
353
129
294
-124
28
82
-19
321
-27
54
-272
90
-11
274
-98
42
53
-95
-32
-96
30
-299
-261
89
-101
-91
-100
-95
-79
-88
114
52
38
83
-119
-116
72
-274
-315
-273
78
-101
-114
36
-342
-131
-334
17
67
50
21
30
59
44
-287
-354
-338
12
106
-115
-126
110
92
68
57
105
-44
293
-5
93
-312
-333
22
-128
-102
119
109
-97
-45
-63
111
40
40
91
117
84
21
-277
-269
45
-113
-5
305
260
-113
51
63
-108
-66
119
9
1
-123
285
309
-54
106
-108
303
165
131
-22
101
88
-90
-32
-67
93
31
62
-114
-77
-114
96
125
-32
309
297
-60
79
7
-259
46
-114
-18
256
-92
26
-293
18
105
120
61
29
95
-55
-16
-68
120
125
-49
288
294
-45
103
57
110
-38
304
326
325
371
208
527
255
220
528
420
804
810
462
394
418
492
813
879
711
1041
755
868
474
446
506
777
413
245
379
310
-15
-99
111
-121
-85
-111
87
88
-79
260
-9
-84
-99
-13
333
296
-128
-300
-364
-321
20
93
-112
-76
-64
-81
-118
102
100
-118
-52
-8
-31
-95
-108
268
230
441
854
761
988
1230
1627
1652
1458
1724
2415
2554
2744
2766
2759
2757
2904
2574
1785
1160
772
109
-803
-1336
-1623
-1631
-1190
-936
-706
-801
-444
-613
-241
-132
-138
-574
-826
-684
-819
-592
-203
-214
-236
-141
31
124
53
-368
-241
-529
-223
-374
28
-87
-22
-49
-102
-93
-11
337
128
145
171
192
158
322
256
301
179
541
534
178
338
327
148
517
608
387
637
389
445
507
498
406
586
630
776
641
653
869
888
723
1038
746
682
690
760
1025
642
467
413
807
1037
935
925
1064
689
895
659
692
686
880
794
478
460
469
477
485
777
842
881
823
401
225
155
208
541
527
173
359
132
206
206
335
-95
62
61
80
34
-323
-142
-380
-287
72
-119
-96
-105
98
-268
-153
-533
-606
-636
-633
-593
-516
-184
-158
-189
-224
-209
-141
-339
-354
-180
-522
-553
-250
-153
-317
-273
-283
-327
-130
-198
-518
-542
-236
-144
-355
-145
-228
-239
-143
-276
43
40
23
19
6
-290
-326
-340
-345
-357
-346
-288
26
13
-303
-294
104
277
320
-57
59
39
105
102
-288
-179
-183
-281
-103
-52
106
-285
-331
-261
112
-79
-95
98
47
34
50
85
-111
-40
263
261
-38
-96
110
86
100
-105
-44
-15
-43
-105
112
124
-120
71
-327
-167
-337
-105
295
-95
-154
-554
-306
128
558
272
-194
-390
-200
89
-94
23
-343
-282
117
-79
-127
75
92
-96
-37
-14
-28
-75
-126
122
-77
257
287
-15
-113
43
-272
-263
73
-74
-11
-39
-115
117
-60
319
365
280
-108
101
-90
-28
-85
32
-276
117
332
151
277
118
-116
308
371
-85
-144
-528
-354
-81
-1
80
-137
-151
57
293
361
-10
85
14
38
71
44
-264
4
107
-26
265
-68
74
20
51
121
-76
-45
-35
-75
77
-278
-258
-81
383
183
301
108
21
53
92
74
49
65
85
46
-265
30
-73
320
319
-32
-75
-18
284
-37
90
36
112
-19
306
306
286
285
316
374
185
228
234
232
522
581
596
541
213
191
221
516
547
595
399
401
578
518
607
828
728
650
400
220
540
779
721
747
659
858
640
714
720
876
469
593
239
137
268
-91
-108
-53
-20
-71
105
114
-21
341
288
98
-304
-266
-101
256
-77
-258
-382
-129
-343
-336
-356
-338
-264
55
35
-294
-328
-258
-117
-18
-32
117
6
-279
36
-107
298
248
768
1041
1003
1393
1227
1591
1508
1765
2357
2458
2729
3072
2721
2539
2605
2374
1735
1157
460
27
-822
-1015
-1277
-1567
-1153
-930
-762
-669
-831
-417
-217
-316
-261
-297
-367
-166
-197
-219
-245
-519
-238
-161
-329
-294
-327
-359
-308
91
-20
275
-58
103
82
125
-99
-115
-123
-54
329
166
170
377
350
364
380
382
144
196
248
244
181
131
147
210
513
520
531
582
385
395
618
615
434
783
772
617
172
366
222
393
488
493
774
646
1072
1138
1036
850
467
462
769
786
502
469
467
489
790
882
752
1089
1033
856
426
626
404
424
391
633
464
857
641
773
585
251
601
505
818
433
198
293
309
175
245
184
322
269
297
315
281
266
350
205
189
269
79
36
104
93
-350
-571
-616
-193
3
27
-384
-568
-387
-591
-228
-142
-376
-181
-551
-631
-592
-192
-327
-334
-169
-221
-174
-354
-354
-178
-220
-138
8
78
6
-132
-212
-182
-367
-346
-146
-223
-247
-206
-163
-191
-536
-592
-532
-381
-268
-295
-174
-535
-236
-317
119
-85
65
-368
-241
-513
-179
-342
-299
-306
-306
23
-87
308
349
271
-102
111
-83
-8
-44
43
-132
-156
4
-53
-5
127
0
48
-17
360
261
45
-309
65
-7
296
-85
13
-322
-325
-297
26
-103
264
-24
43
-137
-373
107
334
377
261
-98
-60
339
192
178
318
-67
112
76
25
-312
-357
-287
-103
347
183
156
348
317
302
-24
98
-285
-328
-293
8
15
5
21
94
-49
311
345
275
125
-288
-378
-133
-375
-381
-382
-327
29
96
75
30
77
-29
340
282
91
-318
-323
12
35
-287
-327
8
-119
-93
59
-288
26
-72
263
-71
59
47
-105
-49
113
-289
-293
-125
316
368
325
337
197
559
545
193
130
383
357
-10
121
101
-48
353
201
513
534
227
348
-37
-28
371
242
219
338
-9
299
176
531
558
543
245
156
300
-4
311
147
155
338
336
517
788
669
827
393
626
813
1027
1056
643
481
450
510
783
450
622
617
399
625
224
299
-61
-70
-56
-82
126
108
-125
-106
-127
89
83
-126
-79
-100
58
-303
-321
26
-109
-57
-97
95
74
80
40
-320
-164
-167
-320
58
121
114
91
95
-127
-70
274
133
246
603
475
696
1005
1547
1431
1443
1508
1772
2409
2631
2260
1954
1788
2152
2029
2058
1367
234
-201
-845
-1087
-1331
-1542
-1596
-1208
-989
-766
-815
-613
-187
-357
-352
-369
-371
-377
-148
-164
-368
8
114
-117
88
24
-268
-288
-319
-348
-320
45
-75
-6
-40
-106
-93
308
254
634
614
232
359
308
342
141
144
337
264
-1
331
163
161
332
296
150
591
415
562
136
354
237
404
457
422
431
771
814
454
530
208
594
800
891
805
403
598
394
485
797
814
811
780
454
631
605
404
492
807
832
861
647
658
867
804
808
653
1042
1110
1089
1037
759
762
737
658
828
788
786
505
416
549
216
235
579
398
400
581
209
360
304
293
303
309
305
294
256
-90
48
-278
5
59
13
-159
-571
-550
-374
21
-270
-146
-192
-356
4
-275
-154
-538
-593
-608
-620
-614
-581
-547
-549
-579
-587
-553
-513
-232
-203
-160
-143
-199
-546
-581
-253
-382
-286
5
5
-281
-350
-178
-201
-135
-327
-130
-561
-460
-474
-624
-244
-157
-340
-268
23
-265
-325
-329
-264
56
60
12
-295
-332
-361
-369
-328
7
58
48
27
72
-91
-48
-102
80
103
-28
334
313
-62
97
74
80
65
60
-123
263
341
280
-125
30
51
-127
-107
99
65
92
118
66
-291
-323
28
-85
-18
-42
-82
-90
-119
45
-281
47
-16
355
-22
-271
-377
44
315
171
308
-122
81
126
-128
44
-275
19
96
100
39
31
127
-32
-53
89
28
96
-69
-117
-314
-228
-218
-312
81
68
-300
-367
-326
3
-258
-342
-134
-307
112
-56
-127
-276
-338
17
-61
293
-24
69
-322
-337
22
-85
284
306
256
-36
274
130
172
306
97
1
121
341
176
310
-113
-100
368
582
608
212
334
320
368
357
266
-60
-11
143
546
600
583
570
609
425
489
782
782
479
388
541
224
231
514
229
148
362
154
212
151
-38
52
64
-37
337
292
-105
72
113
-73
-84
87
17
17
55
61
7
-325
-369
-341
9
106
-125
70
-263
-276
26
56
34
26
105
-33
258
-54
-47
164
769
1042
1139
928
1340
1574
1433
1596
1202
1253
1489
1912
1517
1361
683
442
580
380
-264
-496
-934
-1261
-1481
-1825
-1465
-1193
-915
-1044
-1042
-723
-480
-163
1
-326
-211
-195
21
-17
-12
41
-153
-377
-123
381
143
-68
-286
-283
-65
154
194
344
273
345
233
553
221
354
311
136
539
394
636
236
316
-7
363
579
475
465
605
523
563
421
494
468
401
390
459
783
500
626
240
231
608
485
501
396
553
582
464
826
805
457
425
493
827
809
450
634
412
511
832
819
774
510
817
894
690
686
886
809
492
466
445
392
592
613
489
645
692
864
771
787
874
876
458
242
150
226
589
583
206
358
129
536
437
484
632
162
-40
-108
-10
153
219
372
-72
39
-281
-322
-136
-192
-169
-347
-314
-382
-230
-515
-192
-367
-354
-141
-177
-183
-211
-547
-616
-565
-130
51
84
-297
-192
-225
-382
-260
30
-291
-383
-172
-157
-377
-374
-164
-220
-238
-213
-184
-188
-209
-204
-155
-356
-343
-360
-346
-276
39
-262
-131
-216
-163
-277
68
26
-330
-373
-342
-323
-358
-381
-319
50
95
23
-327
-335
-274
4
-310
-360
-314
31
28
-359
-227
-189
9
-50
261
-82
55
-266
-275
-268
9
58
-121
-63
-88
71
-263
32
-66
352
377
-27
24
-322
29
-42
329
287
-101
64
80
-108
-91
108
37
25
80
-117
-103
126
99
88
82
60
40
61
-121
-43
-27
-88
87
76
-85
310
374
296
119
-282
-298
47
-111
-82
-103
-100
-30
316
340
262
-110
103
-85
277
302
-57
45
-299
-264
114
268
155
245
217
320
-108
112
-10
149
157
271
-102
-57
360
224
242
223
229
225
154
301
-13
-5
-11
-73
-121
-71
274
-1
69
-153
-216
-348
60
84
2
-299
27
-100
-18
-21
-45
-33
-23
-74
86
38
90
-85
-78
120
123
-4
383
322
45
-233
-522
-296
-36
301
-39
-97
284
582
656
899
1286
1347
1406
1231
1562
1578
1268
1207
1201
1222
1154
905
775
148
-128
-381
-460
-1127
-1222
-1633
-1590
-1221
-1404
-1358
-968
-676
-567
-320
-308
-193
-526
-151
78
-49
-122
-290
-367
-278
-128
-70
105
-279
-307
85
306
188
137
-42
82
119
262
346
291
-84
104
115
-95
-33
328
206
534
237
141
351
362
359
307
272
329
190
531
535
245
227
243
549
389
507
814
470
552
208
564
776
658
886
775
462
502
812
794
461
421
474
835
886
816
419
585
628
776
668
719
670
844
798
828
664
764
1065
1029
701
672
701
719
648
504
398
409
502
812
481
575
194
210
608
490
485
572
368
302
148
521
219
265
72
58
-82
-33
104
-332
-139
-309
51
40
-325
-166
-196
-198
-210
-186
-348
7
-263
-155
-557
-564
-214
-182
-571
-774
-863
-782
-391
-602
-409
-472
-435
-551
-137
-312
-362
-515
-416
-467
-637
-228
-373
-344
-351
-346
-315
-284
-281
-297
-313
-305
-266
42
55
-265
-359
-132
-302
93
-102
76
-339
-217
-251
-188
-324
58
-123
124
50
-266
16
127
-12
289
-9
-81
-118
-101
-68
-59
-79
-87
-51
266
301
272
-46
-78
-49
279
336
324
-7
-93
118
119
116
74
21
9
41
48
-280
-382
-155
-329
52
-125
-98
-80
-55
-53
-97
108
108
-89
-33
-33
-92
95
72
108
-78
-23
-20
-64
-115
109
85
43
4
28
127
-24
-10
-91
72
35
41
24
-278
-291
30
116
-124
61
-261
39
-64
346
130
306
-59
-103
-70
-13
268
263
278
335
129
367
292
-5
323
215
563
523
159
361
138
186
195
210
560
445
507
425
539
209
229
520
237
160
339
264
-88
80
61
122
-72
-101
41
-320
-344
-312
-290
-284
8
104
-35
286
257
-89
70
-283
-131
-205
-201
-133
-351
-160
-248
-194
51
306
340
-119
-323
-306
-115
274
-36
110
-94
178
778
767
1126
903
938
979
988
963
947
985
1298
993
740
609
298
-58
-53
37
-456
-1366
-1829
-1903
-1433
-1178
-1290
-983
-922
-1042
-815
-533
-271
-119
-125
15
-327
-287
93
-88
118
23
38
-50
130
150
259
107
93
-65
283
319
358
177
218
138
-6
-50
330
239
538
187
326
293
335
141
217
578
409
395
539
178
190
558
399
415
392
407
470
786
802
789
771
494
464
441
446
465
461
426
405
440
768
808
777
456
405
626
587
565
616
477
820
801
459
435
786
651
669
834
504
803
644
656
786
630
579
412
800
867
840
505
425
620
582
568
586
619
621
560
206
138
143
199
233
208
159
140
141
367
279
-74
-104
-67
-28
-53
116
16
-322
-381
-160
-140
-303
69
101
-267
-198
-576
-550
-185
-133
-216
-616
-434
-638
-527
-202
-193
-169
-342
1
-260
-130
-546
-621
-565
-196
-132
-165
-253
-565
-532
-168
-308
-259
-298
-371
-139
-356
-324
-374
-223
-524
-183
-304
-286
-177
-593
-569
-360
83
68
-350
-187
-350
72
104
-297
-204
-223
-361
3
1
-321
-365
-376
-144
-181
-156
-289
96
88
-336
-515
-536
-135
29
87
63
62
117
-98
-125
89
122
-23
325
314
-29
-81
-43
281
279
-60
105
72
97
121
94
39
12
49
-120
-24
304
334
317
-4
-94
106
-127
-42
285
276
-62
113
96
-124
-79
-46
-16
276
291
-3
-84
127
-85
258
276
-83
19
-319
-291
26
61
112
-22
382
173
316
-100
112
-66
-20
-128
-328
-175
-343
97
-48
-77
101
98
-58
314
340
-27
40
-371
-151
-321
56
106
56
-273
-276
65
-96
-71
-111
115
-115
-81
-125
2
-376
-377
13
-77
266
-19
-104
106
-112
-27
275
-14
-80
-99
-50
257
-13
-62
-44
339
239
562
513
162
348
320
315
324
357
152
204
249
561
625
417
431
415
389
596
235
339
-52
-99
-56
259
271
-14
-35
-37
-65
109
8
-294
-260
53
53
-265
-324
-311
30
125
-80
-77
-83
-79
-93
104
18
-289
-260
80
-122
97
-270
-371
-140
-353
-304
-277
18
120
290
224
389
784
666
1094
1312
1279
1408
1614
1186
1347
1215
1463
1815
1602
974
714
874
458
284
-580
-1074
-1287
-1331
-1156
-1557
-1628
-1541
-1363
-932
-750
-507
-232
-309
-288
-333
-322
6
44
-264
-357
-164
-205
-514
-549
-223
-274
-24
145
193
186
198
227
219
158
347
335
382
171
162
378
135
243
630
408
565
195
196
546
581
228
372
148
569
429
616
183
353
186
618
493
797
796
774
469
407
631
396
442
462
450
444
477
793
843
878
657
691
698
660
861
831
824
791
456
393
416
768
850
850
790
488
492
787
844
674
754
727
794
549
178
518
408
418
253
331
306
170
544
550
228
212
548
390
389
514
342
-15
-16
276
267
-58
114
56
21
-262
-271
24
101
-110
111
29
-281
-273
2
-285
-345
-356
-310
-302
-162
-602
-453
-396
-232
-354
-326
-375
-181
-225
-239
-220
-167
-363
-328
-344
-151
-232
-541
-519
-151
-268
44
-304
-214
-566
-250
-342
47
67
-259
-330
-332
-281
13
-261
-315
-340
-301
24
61
29
-310
-138
-182
-168
-368
-322
-325
-372
-154
-149
-375
-360
-348
-286
70
115
46
-331
-366
-273
103
-125
72
24
38
67
41
-297
-370
-376
-307
65
-77
-37
-104
33
-278
55
-59
-1
-110
-305
-155
-342
76
-89
124
46
70
-52
302
-23
42
-362
-350
37
-96
-54
-78
-122
109
-108
275
188
547
242
325
-106
73
105
-58
296
334
266
124
20
54
-59
305
278
-83
-127
-54
322
133
369
296
-32
-52
-4
322
331
-27
81
12
63
-97
-48
-40
-12
275
-25
122
83
-40
165
234
353
-92
110
-65
-9
-70
91
79
-115
-92
93
-260
-278
53
-109
-62
-55
-47
-26
-16
-38
-80
-114
-123
-114
-110
119
47
-307
-368
-320
86
-42
-61
62
-274
62
-59
-63
29
-343
22
258
343
-83
-302
-313
-117
319
330
-3
-24
270
-1
-98
96
-98
271
289
-69
79
62
105
114
70
55
121
-35
266
-21
-59
-40
295
383
175
173
152
142
149
150
382
347
356
187
566
616
526
371
313
177
631
468
390
515
240
603
440
418
600
598
427
484
420
540
191
166
136
315
-24
-71
-115
32
-372
-199
-165
-328
-259
38
87
112
38
-372
-208
-138
11
55
-320
-205
-221
-384
-305
-293
-280
43
100
58
-314
-134
-358
-273
14
-289
-336
-307
47
-116
-82
-75
259
221
802
1109
1300
1389
1205
1565
1420
1500
1833
1689
1788
1760
1816
1560
1399
1346
987
665
138
-163
-832
-1056
-905
-965
-985
-932
-1047
-849
-400
-254
-150
-322
-266
-265
-317
-377
-154
-169
-187
-202
-164
-309
74
-127
99
59
92
-55
303
325
275
-35
-50
-39
-31
-37
-51
-69
-87
-76
259
374
158
296
94
-259
-124
150
588
543
379
299
377
237
253
191
170
221
241
159
324
371
558
465
466
617
566
617
395
550
379
324
219
445
791
436
561
592
802
759
1051
647
478
428
475
483
632
230
197
584
774
865
804
423
621
432
825
672
667
811
400
531
224
241
546
588
602
587
546
224
142
321
280
290
319
316
262
-63
-103
-106
-92
-69
-24
282
278
-71
53
-270
15
66
56
-273
-332
-334
-319
-350
-175
-254
-532
-241
-190
-158
-167
-207
-250
-517
-222
-148
-344
-338
-145
-248
-591
-618
-594
-555
-538
-546
-558
-571
-597
-625
-612
-530
-167
-360
-375
-176
-221
-240
-255
-523
-230
-381
-267
10
-339
-181
-166
-298
78
85
-263
-361
-146
-148
-155
-167
-145
-335
-276
-262
-271
9
90
-80
-55
-98
115
-101
263
333
272
124
43
121
276
353
301
-48
-95
125
32
-335
-340
61
-39
-33
92
-257
66
-21
363
378
325
273
-19
-38
-38
-24
-2
282
327
378
380
295
-98
73
92
-100
-83
-119
122
-91
-39
-59
111
51
86
-73
-21
-84
34
-319
-287
112
261
314
-9
120
23
-263
6
28
51
83
113
119
96
78
105
-91
-59
-93
94
55
58
48
-260
-282
71
-5
349
-5
46
-306
48
-69
-84
1
-379
-297
-70
342
294
114
-281
-279
86
-73
-75
84
-277
-291
56
-79
-7
273
305
358
356
-15
79
1
54
-117
-120
60
22
85
-70
-26
-43
-41
286
373
381
289
-80
120
125
-123
117
114
-86
-7
258
-96
44
41
-87
296
290
-89
52
38
80
101
116
-57
343
156
309
-125
67
-86
293
275
-108
78
-126
-71
121
-262
-294
62
-90
-103
65
17
30
14
-314
-330
62
261
343
257
-109
-91
274
331
283
-31
-16
270
-34
119
86
-73
331
161
163
133
368
362
370
145
188
201
166
375
365
135
165
196
246
552
540
197
365
358
148
132
-1
91
24
77
-98
-87
94
-263
-326
-312
50
-44
334
326
-64
34
-291
15
119
-70
-86
86
-259
-294
1
68
105
94
77
85
89
46
-295
-356
-340
-277
29
51
83
-101
-25
289
367
545
834
1135
1327
1376
1363
1375
1174
1241
1581
1460
1883
1730
1682
1517
1607
1225
1282
864
-11
-625
-1033
-968
-1334
-1191
-1243
-1374
-1067
-472
-529
-522
-615
-419
-391
-563
-517
-562
-409
-475
-428
-535
-371
-280
-288
-347
-130
-370
-324
-307
-338
-369
-327
56
-72
-28
-76
122
125
-64
275
345
133
132
324
-27
-65
268
162
532
545
243
220
252
544
518
171
345
351
192
547
566
250
195
222
584
450
795
840
831
494
631
574
397
806
882
810
431
400
470
778
475
400
412
499
796
466
606
570
639
474
510
509
780
813
814
499
422
390
423
479
494
440
588
210
367
311
299
329
380
160
143
329
258
-3
331
182
224
146
-32
32
-329
-312
16
34
-309
-184
-244
-193
-364
-331
-338
-304
60
-87
-69
118
48
20
-270
-349
-168
-163
-347
-312
-382
-236
-528
-205
-366
-321
-322
-315
-291
-296
-365
-197
-216
-380
15
96
52
-340
-211
-239
-156
-302
-260
-307
-371
-377
-322
-262
16
11
24
58
75
50
1
-288
-290
-277
3
52
118
-105
124
71
54
96
-108
-98
-125
110
103
77
14
-281
29
-112
-62
92
-346
-196
-153
-299
7
-288
-330
-290
63
114
69
-275
-319
-290
27
68
80
60
5
-322
-367
-343
-257
102
-79
-54
-84
105
45
41
96
-105
-113
80
36
52
84
81
75
-125
-19
289
-53
38
-321
-305
7
14
-263
35
-112
-42
-86
80
81
-59
299
267
-117
47
51
72
24
-308
-294
103
262
296
-59
97
111
-49
261
-43
-122
117
-97
-89
85
-280
-304
39
-105
-64
-117
48
-275
-291
10
111
-32
287
268
-53
-100
-112
-126
85
42
41
68
62
8
-291
4
112
-53
-39
-83
-125
107
78
21
-300
-324
-285
39
80
62
4
-299
-291
28
110
-86
-77
-124
67
31
50
103
-108
-99
-108
-110
-124
77
-260
-293
33
-104
-55
125
13
-264
86
-68
-54
-97
-84
285
158
191
377
290
258
285
332
374
140
370
291
-49
-49
329
515
392
405
580
230
183
206
543
390
457
445
631
574
588
392
421
395
616
618
627
576
219
183
548
484
857
828
482
448
470
427
515
306
-80
-111
123
45
-300
-317
-270
9
-289
-334
-298
54
89
-270
-186
-537
-223
-334
29
48
18
-273
-317
-378
-160
-381
-290
17
-304
-173
-216
-366
42
69
-314
-200
-200
-298
-124
-48
-32
305
529
862
948
1201
1549
1218
1334
1321
1547
1892
2081
1703
1414
1223
1199
1379
767
184
-351
-406
-840
-1082
-1157
-1645
-1619
-1373
-1080
-859
-450
-586
-239
-193
-171
-379
-300
4
-285
-374
-189
-193
-148
-358
-333
-306
-263
32
37
4
-293
-307
-285
13
58
95
125
-108
-88
-67
-37
271
348
166
186
372
-9
-87
-36
370
238
234
383
289
289
345
371
357
375
214
589
388
611
557
547
565
555
518
250
546
584
560
241
222
544
639
425
399
609
583
578
580
596
392
470
792
820
800
484
407
607
614
428
503
778
479
434
439
495
830
651
691
655
783
617
512
517
569
567
244
202
246
563
520
352
-67
-95
-4
333
312
-36
-103
-108
-81
-49
256
314
321
-28
63
-336
-138
-381
-343
-300
-257
17
-270
-326
-346
-307
3
14
-273
-305
-326
-362
-173
-242
-529
-524
-249
-227
-204
-189
-200
-221
-209
-163
-131
-162
-237
-550
-563
-569
-595
-596
-253
-361
-261
-277
-357
-383
-318
3
-290
-159
-245
-187
-288
46
-311
-232
-526
-334
-71
264
92
-144
-223
-134
-310
-346
-163
-139
-281
30
-292
-363
-293
-97
322
331
-34
113
70
70
81
103
-118
-90
-75
-50
-4
267
-70
32
-325
-281
112
-69
115
-278
-318
53
-28
329
321
273
-11
-29
-82
92
51
89
-102
-95
86
-260
-296
-264
44
86
125
-92
-80
-105
109
85
90
102
111
117
119
99
45
-272
-306
-301
-274
20
74
-118
-84
-107
85
34
37
77
101
69
-266
-337
-353
-325
-297
-274
45
-79
314
329
-80
-278
-347
10
-125
111
-296
-166
-171
-373
-356
-359
-289
120
-21
-55
55
-315
-318
-262
4
-310
-372
-378
-326
-257
64
124
-74
-18
299
357
383
343
261
-52
-31
310
381
133
354
325
314
302
281
277
315
368
374
313
-18
-44
-23
-10
-37
-65
-52
-27
-71
61
-288
31
-22
154
160
285
-78
-62
277
311
265
-39
-10
339
171
209
214
206
177
135
369
148
221
248
174
317
293
160
628
801
844
777
427
633
631
634
596
253
168
147
183
197
129
283
272
144
559
597
241
134
383
154
339
-102
-258
-267
42
-267
-184
-558
-208
33
-47
-45
-125
77
38
-312
-170
-180
-309
75
64
-305
-362
-292
61
63
-257
-265
74
-117
77
-334
-184
-146
8
-98
-49
-103
77
97
264
549
859
1125
1351
1551
1441
1506
1792
1872
1774
1926
1955
2093
1898
1438
1196
1101
616
72
-431
-1098
-1165
-1425
-1872
-1687
-1842
-1575
-976
-674
-469
-580
-198
-373
-144
-251
-559
-212
-315
-265
-362
-213
-188
-313
19
-285
-353
-306
83
-101
91
-268
-270
104
-28
-1
-69
105
74
90
-123
-59
279
335
321
-7
-62
-33
314
374
359
321
336
132
380
275
-88
-62
357
524
585
576
599
429
504
775
776
831
655
656
799
413
395
492
844
853
820
845
686
762
735
640
844
642
739
765
685
836
802
851
648
895
850
847
649
710
712
659
860
834
810
509
471
477
501
465
597
216
205
575
444
465
385
542
217
158
349
316
353
146
346
-103
-318
-138
-284
-95
271
-22
115
14
-282
-296
-344
-189
-547
-585
-544
-224
-199
-224
-253
-232
-158
-345
-353
-209
-631
-493
-488
-398
-600
-397
-501
-775
-399
-253
-231
-600
-457
-445
-562
-151
-343
-144
-524
-385
-427
-633
-532
-195
-177
-214
-515
-520
-205
-344
38
108
87
-260
-351
-135
-371
-311
20
65
43
-280
-331
-329
-315
-357
-175
-180
-328
64
113
71
46
108
-54
-29
-73
-98
-72
-67
96
-296
-337
25
-93
-74
70
-286
-261
86
99
12
-291
69
-30
-28
26
-177
-161
36
-89
78
-364
-155
-271
-127
108
-284
-351
-266
116
-118
41
-328
-382
-136
-140
-370
-259
-93
258
-62
29
-326
-273
96
105
-278
-152
-164
-346
-314
-375
-176
-367
48
-98
-127
17
-307
-289
8
13
0
28
100
-104
-125
59
13
44
-123
-41
-13
-48
-118
79
68
104
-92
-38
-8
-19
-76
105
76
-120
-10
304
264
-68
-87
-44
-24
-82
107
-110
295
156
370
-44
102
-117
-2
321
298
-2
256
271
-36
101
25
91
267
140
373
-3
-67
261
142
209
154
300
-22
-8
307
357
360
329
315
374
244
597
573
192
351
380
239
575
572
548
559
567
241
367
299
369
244
548
232
168
188
252
251
175
376
133
129
-6
16
-154
-149
-294
25
-267
-306
2
102
-128
42
-314
-317
26
97
75
-265
-330
-341
-323
-315
-307
-268
50
78
26
-340
-169
-160
-320
36
56
-260
-322
-298
80
-24
350
187
570
511
743
927
1017
1294
1310
1381
1270
1446
1819
1794
1618
1375
918
1034
853
249
-283
-890
-1161
-1503
-1891
-1867
-1511
-1656
-1268
-1318
-1030
-494
-597
-581
-581
-229
-341
-306
-177
-580
-560
-359
113
-64
-104
109
114
108
54
17
68
-88
-52
-119
66
96
-61
-21
-96
77
127
299
183
156
256
-127
-116
259
381
186
189
171
144
374
130
211
588
405
631
551
528
591
404
634
539
247
605
505
823
483
625
638
805
748
1085
766
666
886
667
688
889
804
788
871
717
742
689
642
653
686
681
646
646
701
750
715
867
797
841
706
1052
1035
661
508
389
589
603
424
774
811
484
597
238
517
635
457
398
236
342
268
-8
-20
-26
-6
269
-33
111
13
-264
23
2
-380
-529
-583
-514
-173
-183
-525
-570
-240
-365
-290
-307
-367
-177
-523
-385
-467
-440
-591
-535
-590
-428
-441
-620
-555
-568
-621
-633
-592
-545
-528
-526
-530
-547
-554
-243
-367
15
16
-141
-596
-424
-593
-165
-289
5
-272
-296
-290
-262
27
62
96
103
52
-302
-137
-176
-153
-339
26
-94
268
268
-97
50
47
-120
-60
-114
35
-270
23
70
69
55
94
-74
-13
-40
116
7
-314
-313
9
104
-83
-72
-104
119
99
72
24
-267
12
69
83
17
-312
-295
68
-91
-81
-121
-125
-100
123
-271
-161
-172
-279
-118
-107
23
-336
-285
-124
-25
-87
29
-282
55
-116
84
-352
-226
-155
57
-54
-107
-266
-353
-307
22
18
-291
-275
93
-79
123
8
21
-37
185
219
318
-85
-73
288
300
-83
69
-118
304
369
265
-119
-119
-25
273
-49
-117
-81
276
334
319
284
273
265
259
286
350
145
370
273
-51
-21
346
208
535
523
162
274
-50
284
186
535
251
195
220
563
606
561
519
573
415
420
549
141
341
134
201
217
207
223
520
522
196
357
307
321
340
296
-78
49
-273
-265
14
2
-285
-259
106
-40
-61
10
-208
-527
-142
8
-257
-160
-539
-225
-317
18
-313
-153
-375
18
95
8
-156
-225
-130
28
104
69
10
31
-104
321
227
384
840
1104
1369
1262
1228
1341
996
1301
1405
1387
908
832
560
134
-43
-357
-805
-989
-1539
-1413
-1457
-1482
-1470
-1628
-1159
-1120
-817
-569
-156
-351
-356
-369
-344
-285
30
59
68
94
-99
-30
-5
-34
-73
-64
259
329
328
-11
-103
-123
-54
288
311
261
-63
-97
-82
-15
354
234
582
571
216
379
363
145
172
163
149
154
163
156
145
161
190
199
194
222
549
602
568
213
138
160
514
609
398
397
632
612
614
410
511
874
676
656
824
465
402
422
774
641
725
735
693
648
645
706
1048
1088
1029
640
788
768
800
800
501
496
818
871
801
633
528
578
428
423
554
221
567
475
768
616
168
356
163
245
527
255
227
164
304
-73
-114
-60
261
-13
-126
-271
-365
-374
-316
12
45
20
-302
-373
-177
-234
-545
-565
-532
-241
-532
-633
-435
-626
-232
-161
-191
-208
-366
17
-263
-200
-609
-534
-317
29
-129
-626
-449
-591
-203
-186
-236
-234
-174
-130
-130
-383
-360
-366
-184
-249
-214
-356
-296
-365
-223
-247
-146
-266
61
55
32
33
33
-268
-353
-151
-354
50
-77
-75
72
-273
24
-108
-55
107
-294
-329
34
-89
-70
100
54
-117
289
365
298
-93
62
20
-259
-265
48
-84
272
-23
70
-314
-275
-104
283
261
-117
39
12
7
-266
-263
58
-105
-77
111
14
-282
22
114
-64
-22
-18
-64
105
16
-293
-313
-327
-339
-318
8
73
63
-266
-302
32
-74
272
-22
-127
54
45
52
33
18
50
90
53
-346
-253
-557
-199
-300
37
12
-300
-300
22
97
-117
-102
-88
-61
-23
270
296
311
321
339
375
168
216
243
226
163
334
271
281
375
251
607
632
595
548
539
588
417
475
450
600
220
148
134
131
374
136
233
626
439
622
200
326
312
366
373
279
-121
32
15
62
124
-82
-43
-18
-30
-78
120
93
109
-125
126
87
29
-290
-348
-129
-377
-320
-257
9
-288
-320
-306
-271
-263
-293
-322
-308
-257
59
-124
-18
351
172
233
628
643
938
1319
941
730
661
1044
953
963
1043
792
560
332
54
-535
-873
-920
-1177
-1624
-1462
-1459
-1654
-1583
-1224
-1289
-748
-453
-255
-183
-163
-355
13
103
126
109
118
-92
-63
-108
56
14
82
-43
302
290
-28
-53
-13
303
340
366
150
175
136
299
-19
273
378
195
199
189
215
243
210
129
356
190
582
632
551
159
327
322
363
165
241
578
619
604
567
562
620
449
501
482
392
542
251
576
434
484
424
592
605
494
663
700
830
393
563
633
780
862
791
612
217
230
620
494
796
786
781
510
422
536
199
521
412
471
621
186
324
306
319
317
334
153
252
557
539
515
537
582
592
548
232
169
317
-119
-302
-360
13
-57
289
-27
115
80
-104
-31
-69
42
-352
-383
-327
-283
-313
-374
-129
-335
-292
-311
-360
-363
-306
-273
-329
-172
-187
-322
98
-109
25
-177
-560
-537
-159
-314
-321
-159
-240
-225
-374
2
67
89
114
-119
104
-268
-135
-158
-327
16
-269
-146
-248
-213
-336
4
-300
-146
-145
6
-71
-44
51
-159
-235
-382
56
-92
-110
57
-271
-286
-260
30
44
28
-257
-264
14
38
26
-265
-270
37
101
108
49
-274
-288
-261
10
0
21
109
-30
280
-29
117
42
48
107
-105
-105
122
98
79
56
49
107
-20
340
295
77
-166
-235
-331
-101
-4
-86
61
80
-44
315
298
-41
-79
-49
-21
-61
99
13
-267
40
-110
-2
295
-13
-98
-127
-81
-35
-61
-118
-105
-13
306
-10
116
55
104
-90
-116
57
21
36
-258
-141
-254
-178
65
-3
-34
45
-311
35
-56
261
-63
114
108
127
94
28
29
-117
271
307
-19
-93
-75
278
352
327
-18
-48
320
512
618
542
131
349
229
388
386
238
136
181
521
235
376
357
251
412
402
253
177
549
471
508
386
536
570
409
638
176
-74
68
-117
285
348
266
101
-286
-297
55
-86
-34
-57
-94
-108
-117
102
51
59
-105
-3
-7
114
-301
-348
-268
78
72
-258
-281
59
-84
-48
-98
105
119
-69
270
376
537
483
668
1057
928
1359
1543
1631
1580
1210
1154
1178
1172
1022
742
473
580
232
-1
-226
-1063
-1177
-1177
-968
-1129
-1287
-1243
-1210
-1138
-503
-574
-577
-577
-216
-341
-307
-352
-365
-292
71
-126
118
70
18
-286
-315
-306
14
-127
275
153
214
166
312
-1
318
195
531
241
150
350
362
155
205
520
585
617
577
234
170
165
186
207
246
596
457
501
426
577
584
474
880
883
489
608
588
389
428
424
437
497
794
504
431
399
422
442
447
493
862
712
711
874
812
842
885
837
462
399
445
501
449
582
552
441
648
723
866
441
628
429
502
489
418
628
634
631
561
204
146
152
168
146
364
347
330
-4
114
13
43
-88
265
-11
-125
5
-330
-344
-281
97
-54
-58
79
-307
-329
20
126
-115
53
-314
-372
-377
-382
-165
-225
-245
-180
-315
29
16
-328
-133
-358
-261
72
79
34
-259
0
10
-273
-338
-383
-356
-275
25
-282
-375
-139
-308
53
77
31
9
44
47
-305
-157
-382
60
-29
-38
88
33
-115
276
256
85
-304
1
-88
257
-88
-268
-374
-326
70
-75
-61
-123
74
71
119
-89
-81
-94
-73
-20
-7
-83
54
-257
57
-114
-118
51
-265
27
113
-97
-109
-119
-102
-98
117
55
20
3
-291
-334
-307
71
-59
-39
122
18
-265
27
72
112
-101
-71
-92
110
97
-82
284
333
295
-47
116
27
-301
-305
44
-82
-11
-23
-46
-15
312
350
316
-12
-68
-94
-101
-98
-85
-71
-75
-98
-110
-73
273
357
343
-61
-258
-343
26
-12
381
351
-17
-66
-18
302
319
309
305
280
-74
41
-291
17
-114
-34
-41
-92
-121
-116
-104
-123
80
42
81
-60
295
260
91
-340
-379
-269
121
-98
97
18
-262
41
-109
278
366
355
279
-18
287
343
288
-121
46
-102
131
535
214
277
-100
-45
382
544
617
601
528
199
191
525
634
418
618
536
253
534
540
233
185
218
563
603
541
189
157
187
187
358
-1
-26
271
281
-63
65
-261
3
21
3
-273
12
59
52
-271
-311
1
115
-79
-128
23
-299
-294
-272
-273
-277
11
81
-110
-89
-120
69
-260
-300
-263
117
267
347
324
296
160
489
909
1200
1229
1345
986
1309
1224
1590
1557
1187
1351
1287
896
870
231
94
-527
-870
-914
-1372
-1198
-1208
-1188
-1366
-918
-894
-403
-576
-605
-612
-550
-252
-579
-452
-475
-574
-342
34
-278
-141
-183
-379
-297
-262
10
56
105
92
31
37
-64
162
528
165
-59
52
87
-28
335
346
312
311
353
130
130
375
146
233
591
623
554
188
129
160
233
545
574
605
387
398
618
557
526
558
627
421
423
393
609
576
556
566
621
452
510
498
442
411
446
496
489
422
637
422
485
457
580
200
211
611
499
787
454
627
612
385
636
557
188
380
146
204
206
382
306
345
239
608
554
362
-67
-116
-101
115
11
-318
-303
-264
-293
-382
-165
-346
30
81
35
-293
-322
-310
-295
-291
-296
-324
-379
-168
-161
-377
-382
-210
-551
-520
-364
48
77
-282
-159
-231
-232
-211
-211
-236
-252
-231
-173
-367
-342
-350
-328
20
-124
-93
69
-344
-204
-230
-186
-368
-295
11
18
-275
-329
-354
-335
-285
23
48
27
-287
-331
-313
6
43
14
-302
-318
-271
39
42
4
-279
4
84
-81
-55
114
-303
-164
-147
-282
78
80
25
8
46
81
78
91
-91
-20
-59
34
-383
-159
-334
-265
-288
-342
-313
65
-103
94
-325
-171
-352
91
-51
-124
-327
-227
-210
-311
102
-97
122
72
62
84
109
121
118
105
88
94
-124
-89
-116
35
-339
-367
-270
-121
-41
-76
88
48
110
-25
320
299
-85
20
-309
-278
42
53
4
-276
55
-60
280
-31
80
-281
-274
71
-103
-87
122
37
-302
-337
-286
92
-44
258
-33
-90
-105
-73
-49
-86
76
-273
-312
-299
-284
-312
-360
-360
-259
-102
259
-10
-94
97
82
71
24
-290
-306
-274
6
-275
-331
-359
-325
3
56
59
33
24
45
65
43
-264
-273
47
111
53
-135
-557
-537
-339
116
-100
62
-269
30
-106
-10
266
-9
-26
-39
-59
-82
-97
-104
-96
-59
283
146
253
560
540
224
175
197
569
447
479
615
168
322
379
250
559
253
211
523
638
435
636
560
569
401
462
416
535
372
-26
121
65
81
-126
-121
67
-275
-294
22
85
83
30
-261
15
38
6
-346
-197
-246
-211
-379
-291
-266
-327
-182
-254
-230
-131
-288
4
-271
-294
-302
-306
-308
-275
64
-95
-39
-35
261
176
468
1027
962
1010
995
1281
1390
1260
1568
1249
1375
1013
971
938
1056
485
283
-196
-834
-1065
-925
-999
-1343
-1185
-1223
-1376
-1129
-830
-598
-235
-218
-231
-252
-538
-555
-516
-155
-299
-273
-352
-201
-224
-141
-289
17
6
6
59
111
81
-277
-330
25
-28
363
311
-119
19
47
-115
-81
-123
109
-79
296
370
383
148
226
581
627
607
563
251
165
316
256
311
195
563
560
214
130
361
373
129
149
207
549
600
565
225
193
531
413
479
401
239
137
168
524
575
538
228
243
583
405
422
398
639
398
407
633
572
524
248
228
171
342
293
339
187
242
178
308
-5
328
202
250
184
358
368
178
168
278
106
73
-65
289
-42
12
-371
-309
97
-105
73
-258
25
79
15
-163
-547
-244
-342
6
-289
-360
-367
-343
-135
-519
-614
-577
-192
-365
-148
-248
-546
-220
-340
27
48
-278
-139
-239
-544
-544
-528
-521
-520
-243
-187
-134
-145
-235
-593
-608
-518
-153
-378
-180
-238
-224
-164
-133
-147
-143
-334
2
16
-308
-381
-130
-327
-270
-265
-303
-350
-131
-164
-196
-214
-188
-359
8
73
41
-307
-357
-305
52
90
38
-278
-272
14
-277
-362
-375
10
-91
-81
24
-381
-377
0
86
80
55
75
102
70
4
-263
60
126
123
74
48
49
12
-343
-180
-174
-312
94
-72
-76
114
48
29
60
102
109
74
29
-263
-292
-315
-307
18
124
-60
-67
125
70
53
44
14
-271
-260
45
80
48
-290
-353
-352
-315
-307
-355
-158
-167
-376
-321
-291
-266
48
127
-85
-117
54
-288
-341
-356
-346
-313
-265
22
10
-288
-327
-338
-325
-290
19
66
57
-287
-149
-194
-371
24
104
63
-291
-349
-331
-286
-264
-257
38
112
-78
-71
-123
74
57
96
-86
-22
261
258
-9
-7
264
278
279
-2
-69
79
-286
-337
-310
15
75
123
-61
300
383
129
325
274
276
301
304
287
279
270
-35
-127
76
-111
313
194
201
357
269
283
143
552
413
449
404
576
524
544
602
625
592
555
573
636
415
619
255
180
195
533
622
409
393
588
516
219
226
245
213
351
-72
46
-273
-281
-296
-347
-137
-379
-311
-275
-335
-188
-229
-159
-330
-355
-220
-551
-230
-366
-352
-206
-533
-172
37
-111
40
-161
-517
-209
-367
-336
-364
-366
-312
-258
0
-273
32
-72
133
569
443
806
684
1120
1320
1228
1574
1607
1647
1484
1841
1853
1469
1271
1367
984
757
580
8
-508
-1090
-999
-1359
-1164
-1383
-992
-1107
-766
-685
-776
-551
-155
-198
-590
-394
-587
-517
-543
-602
-549
-372
39
38
-339
-163
-357
32
109
111
120
-82
-48
-117
-272
-144
-140
-262
-98
-6
-18
-82
-105
-41
307
317
-44
95
103
-5
142
151
303
-11
351
549
403
577
380
-18
-24
300
335
313
306
381
241
556
534
251
555
410
480
433
567
225
244
599
445
505
785
812
850
867
827
498
471
808
695
763
676
505
413
484
874
654
818
466
482
821
822
424
251
203
563
427
424
557
169
370
370
354
309
282
297
317
295
-22
-75
-84
-59
-30
-12
-5
-12
-47
-118
44
-298
-349
-357
-335
-319
-355
-188
-540
-586
-562
-231
-144
-334
-329
-144
-251
-563
-513
-133
-294
-296
-373
-190
-223
-234
-239
-217
-160
-373
-155
-531
-388
-410
-605
-537
-249
-239
-231
-231
-247
-518
-246
-209
-200
-224
-222
-156
-346
-373
-218
-513
-140
53
-116
55
-341
-374
-282
54
13
-355
-144
-324
48
87
26
-304
-296
57
-85
-34
-62
123
62
42
70
-113
-19
291
257
-101
71
75
-114
-89
90
-283
-322
5
89
79
-272
-336
-289
93
-64
-41
-59
-74
-98
95
20
20
117
-37
-50
57
-364
-153
-318
68
-118
126
69
-258
-320
-351
-341
-299
2
31
58
96
118
89
15
-305
-313
-273
21
13
-303
-372
-144
-359
-259
91
110
49
-283
-309
-298
-316
-371
-383
-290
94
99
-329
-541
-584
-158
44
87
-269
-328
22
-76
-22
-114
45
69
-80
-32
-90
85
75
-119
-50
-8
282
318
317
256
-82
122
103
82
56
68
-119
-47
-50
-125
75
110
-37
324
362
325
-15
-98
118
-123
-90
-77
-77
-59
-27
-27
-70
-100
-62
279
317
265
-76
-124
112
69
18
46
-56
128
185
327
-83
-118
-8
135
193
149
334
297
290
279
256
258
302
358
131
135
155
213
528
541
529
556
624
394
542
338
-58
-21
143
526
523
187
157
224
563
549
173
301
-3
269
-10
122
-307
-169
-180
-383
-339
-327
-324
-303
-281
-288
-313
-301
23
88
51
-359
-524
-562
-195
-315
-272
-306
-297
67
-71
-72
52
-357
-171
-161
-132
-364
-332
-293
-259
48
-73
183
493
730
1092
1129
933
1296
1402
1230
1584
1472
1877
1679
1838
1642
1196
1304
1114
502
-32
-612
-1079
-1367
-1271
-1625
-1661
-1594
-1163
-945
-761
-888
-786
-437
-613
-568
-548
-523
-226
-194
-199
-215
-196
-384
-317
-311
-362
-147
-132
-342
-308
-279
46
-97
-8
-26
99
-309
-375
-315
77
-64
-43
-99
108
-119
-32
278
-2
-42
-1
370
187
138
300
319
246
465
816
773
453
451
466
409
544
209
242
596
395
624
585
627
505
651
724
707
642
828
777
494
485
484
489
507
808
876
668
658
861
822
834
866
860
815
785
794
792
484
441
507
671
766
657
415
515
567
451
465
573
184
212
572
545
345
-87
-51
147
517
142
-115
-288
-276
77
114
67
20
32
69
67
16
-292
-302
-274
8
-262
-317
-132
-189
-226
-256
-552
-594
-611
-582
-518
-199
-179
-216
-543
-587
-554
-187
-335
-339
-223
-387
-430
-558
-364
4
-288
-154
-242
-230
-150
-343
-356
-161
-199
-177
-380
-359
-137
-176
-146
-294
75
110
56
-278
-306
-263
68
-128
-106
-120
84
-265
-377
-191
-153
-266
-115
-62
-124
52
67
-74
293
298
-43
-121
-126
-98
-128
21
-339
-346
14
-114
-54
-87
85
16
-264
6
34
46
33
20
46
105
-114
109
42
31
108
-70
-104
6
-373
-367
-264
65
51
25
80
-61
-9
-88
37
-262
81
-46
-7
-104
-271
-152
-191
-131
-281
51
42
-305
-150
-178
-376
-298
-273
-297
-306
0
67
80
28
-266
52
-52
347
377
276
127
35
55
-91
290
355
330
263
-27
261
301
259
117
-280
-289
107
-7
-24
75
-287
78
352
564
538
330
-119
90
-99
-26
262
276
288
276
-26
-67
-65
-34
-28
-60
-74
-32
282
279
-43
-94
-64
262
281
-35
-114
108
109
103
100
-121
-70
-67
-124
92
125
-74
-96
78
84
261
231
564
198
320
314
148
193
146
338
345
160
229
530
569
615
404
451
499
502
399
216
319
290
369
213
530
555
556
520
209
202
540
384
632
221
282
-85
-96
-101
94
21
11
57
82
40
-284
-303
8
90
-121
121
80
34
-277
-354
-173
-194
-140
-311
-268
-303
-363
-361
-280
61
79
58
86
-70
260
-53
50
-288
85
353
592
435
446
504
689
948
1165
1278
1581
1651
1528
1669
1709
1855
1423
1551
1220
1317
660
278
-404
-913
-1171
-1272
-1606
-1442
-1470
-1615
-1369
-1072
-809
-608
-198
-346
-315
-369
-207
-516
-251
-227
-231
-239
-198
-372
-327
-371
-180
-157
-292
85
124
107
114
-98
-87
123
101
-59
383
521
525
190
142
161
190
182
168
196
254
535
247
208
225
561
385
411
398
394
416
433
420
402
430
511
840
849
806
509
498
482
438
412
471
847
667
884
785
489
816
682
763
1025
727
667
859
814
820
892
740
1070
1080
1044
747
731
734
730
698
880
775
421
610
578
563
552
553
585
386
425
398
552
169
331
288
265
-19
-41
-26
261
-3
-62
-101
-39
357
195
380
-97
-316
-142
-340
-259
-270
-366
-198
-207
-151
-367
-145
-219
-240
-158
-287
26
-308
-202
-548
-252
-137
-323
-356
-182
-230
-232
-229
-238
-219
-133
-267
50
2
-360
-175
-162
-362
-341
-376
-161
-150
-350
-307
-317
-353
-346
2
-121
-39
-66
89
10
14
90
-89
-74
124
43
-257
10
38
41
31
62
-111
-39
-62
89
20
70
-69
259
-6
-30
-12
265
-29
-105
-122
-53
259
-54
69
-261
43
125
121
31
-289
9
109
-96
117
22
-298
-275
95
-15
321
283
-77
119
-112
-73
-107
77
73
-99
-55
81
-133
-239
-131
76
-75
114
-266
-310
-260
64
99
117
-116
-106
124
82
79
-121
-47
258
272
281
312
364
145
383
302
-55
-95
-19
132
245
222
345
-32
-40
317
180
220
165
324
-18
-65
-59
257
343
137
362
274
-55
-56
259
325
359
366
368
368
349
309
263
-21
-6
314
137
176
140
321
299
131
541
630
573
168
304
282
311
305
-23
-97
-100
-35
294
321
296
-8
-40
-26
292
373
170
170
139
362
343
347
128
208
549
560
196
293
-33
315
233
603
606
579
620
462
781
769
474
479
778
790
476
627
532
226
233
551
385
459
477
461
469
778
832
822
490
395
576
512
166
299
-76
102
79
93
-124
-67
-20
-21
-78
113
106
-73
288
328
-4
107
0
8
113
-28
267
-39
-107
-118
-76
-50
-90
102
102
-86
-28
-64
88
20
72
-9
240
509
759
948
1336
1204
1611
1502
1845
1891
1733
2167
2039
1969
1727
1500
1655
1557
976
627
-320
-853
-907
-1359
-1269
-1603
-1245
-989
-720
-810
-454
-568
-352
77
69
-373
-574
-623
-520
-158
-162
-230
-229
-351
94
-42
-31
-77
-113
-122
-110
-85
-57
-53
-91
114
113
-59
342
230
591
400
424
407
619
573
546
532
531
561
633
443
428
593
537
633
858
1034
759
848
471
776
665
745
689
843
825
652
732
711
856
504
783
679
1108
907
1057
894
833
690
1129
961
907
1075
1075
1140
1142
1032
667
696
1103
956
896
715
828
812
885
708
758
1028
728
877
499
444
490
822
826
475
603
523
242
219
166
368
363
160
216
212
150
335
292
258
-60
118
89
-123
-63
-80
65
-301
-299
79
-38
-4
-114
-307
-206
-231
-379
21
86
38
-303
-323
-273
24
-269
-358
-155
-137
-343
-317
-316
-312
-287
3
28
45
51
29
-285
-365
-163
-163
-369
-283
76
-89
-53
-101
61
-257
21
111
-64
-58
-122
54
12
27
78
-119
-77
-64
-69
-72
-52
-20
262
282
310
339
323
-25
99
14
17
57
62
33
44
-121
-26
-26
-112
89
-107
269
335
309
-8
-49
-81
119
81
123
-39
-14
-126
-286
-341
14
-90
-8
-25
-94
92
50
43
62
64
23
-291
-292
59
-68
-4
-21
-47
-17
309
356
356
337
316
269
-70
114
-128
-19
359
132
307
-62
-106
-59
261
270
-16
-1
350
184
152
-1
-124
-81
341
193
136
-7
-77
-24
319
344
327
348
170
226
187
332
-23
-50
-3
340
171
208
159
296
-66
-69
298
183
240
175
311
-15
271
353
135
349
285
275
321
349
310
-7
257
346
173
177
129
355
361
363
329
311
129
537
407
431
392
392
472
831
872
837
781
496
467
393
531
180
182
532
629
390
581
515
253
548
567
529
210
162
371
287
-107
9
-306
-263
61
68
-259
-336
-342
-276
50
63
39
41
92
-106
-105
86
19
21
100
-50
284
299
-6
-95
73
33
71
-99
-47
-93
54
-268
53
-31
130
213
527
422
705
1015
1209
1260
1275
1635
1838
2052
2175
2149
1713
1433
1152
954
1050
487
-115
-667
-1632
-1744
-2061
-1782
-2062
-1773
-1794
-1390
-751
-510
-601
-145
72
-89
78
-344
-170
-376
-279
20
6
0
45
127
-58
-43
-93
85
49
98
-53
284
278
-58
113
85
126
-58
264
308
341
128
169
172
381
327
351
216
601
384
594
567
635
496
830
852
877
670
678
858
505
488
823
640
883
839
877
737
1044
670
471
396
794
761
1097
701
481
639
469
640
1024
1072
1084
1085
1056
741
699
722
1045
1072
757
655
853
872
672
708
707
692
701
734
762
742
666
837
803
826
837
770
395
569
559
565
522
198
177
205
199
359
-31
-101
-83
-39
-32
-50
-68
-93
110
50
24
19
-279
-369
-174
-141
-327
-358
-525
-431
-422
-248
-341
-344
-226
-608
-636
-602
-582
-585
-573
-540
-543
-618
-462
-492
-422
-562
-219
-168
-368
-308
-301
-368
-179
-162
-322
-258
-303
-148
-190
-140
-329
-321
-338
-293
67
-122
82
-323
-199
-226
-147
-291
25
-260
-357
-185
-184
-336
62
-99
-90
125
93
98
125
-121
114
103
-120
-65
-51
-114
54
32
94
-99
-113
76
50
96
-118
106
29
-263
36
105
-117
-126
103
59
-260
-302
-270
89
-77
-77
101
30
16
31
13
-298
-335
-317
-271
-258
-296
-347
-353
-280
95
-65
-45
-98
76
21
34
98
-116
102
-262
-361
-130
-351
-325
-337
-348
-310
25
86
96
84
96
-124
-88
-58
-9
311
343
310
-11
-39
256
327
379
382
332
-3
-61
-52
285
381
165
146
129
144
149
367
336
383
240
582
580
536
534
577
599
567
529
543
601
392
397
624
580
524
242
560
457
863
887
493
552
174
178
223
193
294
75
-349
-144
-371
-344
-346
-333
-264
86
122
59
-304
-367
-351
-289
20
32
4
-286
-287
14
79
-121
-89
-69
-73
-128
28
-304
-296
33
73
19
-337
-359
9
-68
338
189
594
849
909
1400
1204
1383
1288
1008
1316
1395
1195
1178
1308
1077
804
557
310
-296
-806
-1375
-1817
-1773
-2063
-1770
-1677
-1453
-1344
-691
-401
-248
-148
-286
69
79
21
-259
80
-55
-28
117
-266
10
-67
364
377
-1
-85
-20
376
188
154
133
206
557
539
144
283
314
196
565
607
634
413
634
211
269
-17
168
631
386
215
339
143
550
603
529
225
580
490
798
427
530
230
573
439
505
486
400
541
218
518
395
509
774
456
438
496
799
502
415
393
466
801
805
502
489
779
806
790
773
805
857
866
827
791
794
818
827
824
843
866
834
477
629
601
391
442
454
443
439
416
586
194
353
362
176
191
351
-36
-86
-22
336
132
379
352
319
-10
121
10
-276
15
31
-287
-381
-144
-320
14
-281
-166
-525
-226
-345
-273
-352
-251
-589
-535
-166
-365
-141
-201
-227
-219
-214
-230
-248
-232
-169
-347
-298
-321
-155
-254
-542
-239
-181
-194
-524
-563
-253
-173
-168
-210
-165
17
-65
-84
-289
-213
-213
-365
-338
-174
-252
-203
-348
-318
-131
-181
-133
-302
-277
-311
-319
-279
6
-280
-322
-291
66
-112
-123
65
20
25
31
10
9
83
-52
263
-54
86
43
119
-41
-38
126
47
45
76
63
13
13
101
-50
-22
-94
67
41
94
-94
-79
-121
87
71
82
77
26
-299
-319
4
125
-45
-58
-128
102
-81
281
300
-56
79
64
-103
-34
-80
77
71
-41
158
521
223
346
-51
99
57
97
-58
278
263
-81
-128
-49
366
222
229
189
191
238
246
169
319
272
301
339
310
-43
94
-270
-362
-154
-358
51
-65
-86
-284
-240
-529
-361
82
96
-313
-194
-160
11
-96
-71
-124
107
-105
-56
-79
64
-338
-165
-377
40
-41
266
-105
-275
-335
22
-99
-85
71
27
-80
193
404
485
815
1028
1347
1588
1613
1218
1325
988
946
907
1132
1091
689
624
-55
-164
-406
-643
-1019
-1472
-1770
-1758
-1529
-1572
-1218
-1380
-1142
-773
-182
-275
-261
-279
4
36
17
-303
-334
-268
121
-37
-54
99
18
44
-93
286
334
311
278
273
272
-11
-38
-4
354
187
164
292
-80
-75
287
377
377
333
329
372
128
333
296
360
253
606
566
187
372
166
535
600
576
521
249
535
553
514
194
191
548
446
798
777
442
405
443
771
826
862
886
890
855
803
785
814
849
852
828
805
782
481
434
434
497
830
867
871
876
873
825
492
469
795
880
853
439
521
185
187
187
144
367
147
228
531
240
149
315
257
-35
-80
103
13
-317
-347
-337
-322
-327
-336
-327
-316
-340
-149
-220
-515
-519
-251
-213
-139
-327
-341
-193
-564
-594
-553
-546
-622
-453
-464
-426
-440
-789
-852
-778
-610
-248
-559
-455
-801
-497
-625
-519
-221
-214
-198
-175
-184
-227
-529
-537
-253
-231
-242
-514
-243
-200
-164
-144
-349
18
-109
-50
-105
25
-341
-130
-355
-272
58
54
-300
-160
-188
-352
51
-84
-13
280
264
-80
76
75
-64
308
282
-126
10
28
120
-104
96
44
70
-125
-113
100
67
88
-122
-94
-84
-64
-37
-47
-119
43
-273
-291
-307
-349
-384
-344
25
125
114
2
-340
-296
104
-54
-114
-304
-229
-537
-196
-319
29
58
68
98
-104
-49
-24
-25
-44
-79
121
60
23
15
8
-273
-268
92
274
151
135
273
-58
-14
327
348
313
321
142
175
340
-29
286
557
827
840
586
313
-3
132
241
155
-72
12
9
112
-89
95
-301
-384
-342
25
87
39
-330
-159
-157
-338
21
105
-125
86
7
-298
-293
-274
-281
-299
-275
54
95
28
-365
-192
-143
-266
91
103
68
38
18
12
59
-60
130
527
571
584
432
655
1138
979
938
1127
897
1280
1155
1186
1333
1113
838
568
316
34
-611
-1126
-1643
-1711
-1735
-1802
-1601
-1243
-1178
-1010
-712
-406
-233
-206
-218
-180
-129
-165
-561
-423
-613
-368
121
-101
12
-353
-262
-56
293
-62
78
-103
377
237
337
65
-275
-75
210
591
550
517
581
386
574
167
359
204
611
387
535
157
383
177
232
519
548
574
577
551
551
621
468
772
482
441
475
804
795
397
233
219
390
841
879
496
629
397
784
874
851
794
792
818
770
387
580
422
847
644
783
396
424
822
889
800
432
454
834
884
772
593
239
247
530
254
216
206
235
522
514
190
327
-37
-43
333
204
172
-38
10
-264
-102
307
296
-95
48
5
-291
-383
-215
-213
-371
0
50
20
-314
-138
-171
-376
-272
28
-321
-248
-388
-394
-569
-252
-236
-227
-204
-203
-244
-518
-190
-335
-317
-169
-529
-239
-369
-331
-199
-595
-562
-354
92
103
-273
-358
-326
30
88
55
-292
-383
-165
-129
-299
8
-293
-141
-192
-367
46
-121
72
-344
-213
-205
-348
20
45
-275
-343
-327
28
116
120
70
57
124
-69
115
-346
-540
-575
-169
31
-110
-123
47
-259
23
93
-117
117
55
13
11
3
-314
-130
-356
90
328
146
-25
-286
-164
-365
-257
-263
-366
-149
-297
-126
-30
-28
-22
323
162
379
-50
53
74
-33
304
-51
32
11
-46
179
184
-45
-275
-275
-74
347
307
-101
102
-63
282
-20
122
121
275
150
351
-110
-266
32
-26
178
530
513
173
342
312
361
180
184
332
-68
-104
276
198
254
136
-19
-21
174
403
455
548
342
280
369
218
239
219
252
597
393
619
562
563
624
431
444
412
603
244
364
-28
-115
112
96
34
-359
-521
-586
-203
63
263
-40
-282
-204
-133
92
-38
-127
-292
-320
85
-21
-52
0
-204
-516
-183
-370
-166
-546
-593
-208
21
-103
77
-356
-134
86
149
535
343
16
-330
279
882
1327
1382
924
1056
930
1183
1607
1645
1410
1471
1490
1631
1168
988
1097
865
230
42
-591
-877
-1123
-1304
-1320
-1147
-668
-809
-795
-478
-555
-350
-259
-292
-331
-283
44
23
-349
-193
-173
-303
54
22
-367
-211
-160
34
-33
256
125
-277
-264
-83
343
310
107
-290
74
353
530
192
-28
117
-66
281
-34
73
50
-18
211
516
370
-18
279
159
200
336
-57
-30
160
593
618
535
518
414
643
743
867
605
167
203
414
880
712
687
887
859
864
861
814
478
412
406
469
793
786
446
395
464
855
649
794
617
534
587
399
620
524
242
592
465
503
426
580
549
622
497
836
787
619
178
336
343
368
321
-16
-30
282
295
-64
45
9
126
257
-48
-272
-218
-222
-300
121
112
-311
-224
-515
-180
-384
-206
-640
-771
-472
-530
-324
-263
-364
-252
-592
-615
-616
-603
-557
-239
-219
-544
-639
-632
-220
-283
26
-374
-583
-422
-594
-190
-146
-242
-611
-601
-198
-304
-282
-382
-224
-232
-167
-357
-319
-288
-270
-318
-180
-530
-234
-333
51
17
-382
-209
-146
-274
62
68
70
116
-89
-92
101
42
42
97
-89
-35
-13
-35
-98
95
85
-122
-77
-109
44
-304
-329
-320
-333
-337
19
-17
176
149
-99
-339
-332
-114
296
-99
-179
-404
-570
-294
-127
54
-361
-383
8
119
77
-308
-375
-334
-265
28
65
-117
-59
-111
13
-310
16
-128
-98
118
101
121
66
-378
-561
-569
-142
23
41
-307
-374
-355
-293
20
69
111
122
66
-303
-186
-575
-398
-620
-219
-330
-304
-144
-236
-198
-289
-85
323
380
330
-65
64
58
-83
263
-54
38
-300
63
263
362
305
-38
-27
317
345
-21
67
-263
79
-16
324
272
-71
-66
285
343
271
117
26
78
-48
304
313
272
-23
-28
299
182
581
633
569
222
216
537
548
180
302
303
180
559
550
195
154
246
389
452
397
554
236
214
166
326
-35
-76
-13
341
347
-38
48
-281
27
88
39
-340
-132
-304
41
-280
-230
-403
-407
-550
-226
-527
-623
-410
-627
-531
-142
2
86
41
-359
-219
-201
-349
-259
37
87
-68
291
303
-27
-65
260
143
540
400
508
875
723
1101
1327
1415
1776
1995
2012
1931
2130
2096
1697
1595
1073
512
2
-433
-1045
-1287
-1394
-1153
-1390
-1335
-923
-665
-404
-252
-191
-369
-257
30
-364
-552
-579
-161
-298
-192
-499
-860
-592
48
-99
-369
-422
-391
-298
260
-12
32
-301
113
278
-52
-297
-379
123
197
244
-45
-351
-375
88
-16
-53
117
-80
357
207
136
267
260
369
189
140
300
284
375
201
146
-2
-70
297
512
391
601
207
131
156
210
227
253
602
453
459
614
551
389
828
889
484
528
218
607
506
782
451
445
838
745
766
879
472
456
798
840
506
394
608
628
596
198
303
264
323
359
312
-1
270
336
368
369
159
525
581
212
-28
27
-298
-266
52
125
-43
-3
-81
24
-316
-264
105
-113
76
-299
-155
-237
-520
-208
-349
-272
-287
-357
-159
-201
-540
-397
-437
-614
-526
-573
-496
-889
-854
-434
-560
-547
-579
-539
-157
-284
19
-296
-163
-531
-581
-574
-550
-552
-585
-619
-598
-520
-158
-335
-325
-133
-217
-524
-530
-519
-226
-380
47
-60
-30
-119
40
39
101
118
35
-335
-384
-346
-274
31
63
100
-123
-115
114
65
20
-263
-270
14
88
-60
285
285
-64
82
70
-89
263
-12
-103
118
-77
-18
-82
15
-322
9
-128
125
-268
-141
-137
-277
79
80
31
23
82
-128
51
-136
-524
-207
6
-88
-117
8
-299
28
93
34
-310
-279
90
88
-356
-542
-230
31
-47
-120
-308
-380
-287
94
-100
-71
-44
-87
13
-135
-369
52
110
-359
-448
-871
-471
-211
-358
-215
-617
-595
-149
69
-78
-80
-81
-15
313
303
-50
116
121
-62
-23
-74
81
15
7
35
101
-43
326
355
274
-85
-122
-103
-116
93
100
-48
325
307
-117
-307
-381
-330
21
92
105
72
31
41
-114
300
162
182
137
339
267
-104
40
39
-89
325
378
300
-65
-94
-30
318
379
363
-2
96
7
73
-22
329
273
-86
-82
284
336
-39
17
-336
-275
93
-108
-85
-14
353
159
382
334
129
537
420
431
569
159
335
378
248
615
625
541
176
361
335
326
321
326
327
294
-31
-89
-100
-104
87
-282
-345
-298
52
70
-291
-189
-524
-222
-372
-290
-287
-359
-186
-196
-352
73
-43
-2
-49
-107
-112
-71
-60
-121
46
-259
7
39
57
54
41
25
18
70
-35
185
638
769
659
1151
1406
1269
1245
1277
1534
2153
2028
2052
1456
1589
1408
1573
1077
362
-191
-450
-893
-967
-1577
-1657
-1397
-1049
-894
-685
-696
-772
-243
-352
-158
-561
-630
-602
-588
-401
-459
-611
-348
-125
110
-133
-607
-559
-297
-86
-114
-298
-153
-344
36
44
-342
-213
-195
-283
-82
269
-56
69
38
-78
152
544
252
157
142
195
190
328
-47
-29
363
214
204
152
169
253
574
607
394
466
773
487
417
404
459
497
470
447
770
883
651
775
608
592
494
652
889
463
591
404
858
735
687
785
414
411
449
418
572
251
562
445
812
816
483
421
411
394
579
237
222
540
572
226
316
-42
-4
334
333
-22
-117
-119
-55
272
333
131
144
329
-62
83
19
-346
-581
-853
-674
-458
-370
81
20
-147
-217
-159
-369
-182
-577
-428
-463
-461
-432
-611
-238
-131
-332
-319
-324
-374
-232
-618
-422
-385
-580
-575
-591
-534
-132
7
41
-268
-326
-346
-363
-162
-234
-546
-596
-398
-427
-612
-189
-283
20
-302
-373
-367
-293
24
26
-271
-323
-371
-151
-145
-319
60
-127
93
31
56
-87
-16
-76
73
93
267
140
313
70
-370
-369
-282
-262
-315
-329
-264
48
11
-336
-383
-335
8
66
75
41
-292
-379
-149
-325
63
-123
94
29
34
91
111
59
11
57
-87
-31
-114
-278
-131
-132
-338
-306
-304
-301
-294
-317
-381
-182
-178
-377
-329
-316
-331
-355
-384
-161
-167
-362
7
83
68
-264
-309
-263
91
-107
126
58
19
39
82
105
109
115
-123
-98
-53
275
336
324
-25
-109
-72
337
197
141
-46
71
89
-53
256
-79
36
-311
-292
61
-118
119
24
-278
66
-29
301
-43
64
4
48
94
94
-121
284
172
129
-95
-261
71
287
375
-28
16
-305
28
71
-274
-378
-326
-123
306
286
84
-133
-191
-323
-128
-9
-37
97
15
86
286
206
198
-9
13
-313
57
-69
-111
-329
-524
-517
-333
94
105
-268
-352
-289
-123
281
322
288
262
276
280
-46
69
-293
-262
127
-24
-27
-78
-57
323
167
131
282
276
152
536
524
139
313
132
573
491
828
811
460
572
194
184
565
446
459
582
152
303
267
-3
259
293
315
-14
79
-283
70
306
186
330
83
-298
21
77
-324
-610
-783
-453
-252
-129
-138
-175
-156
-367
-369
-147
-148
-363
-349
-170
-544
-590
-240
-299
119
-106
71
6
51
-93
-44
-91
-88
372
494
1105
1021
1297
1326
1223
1472
1708
2102
2115
1744
1533
1560
1343
1103
776
351
-356
-771
-1132
-1166
-1577
-1538
-1342
-1129
-751
-698
-861
-418
-212
-368
-141
-201
-176
-318
18
-288
-152
-203
-383
-274
7
-289
2
-89
331
316
-122
16
-118
169
609
246
-62
-307
-305
-112
326
360
272
-76
-94
-65
-31
278
380
243
551
242
170
189
553
630
607
563
583
618
551
136
315
162
555
251
295
-61
375
415
779
638
230
537
466
823
776
465
500
810
774
425
405
493
833
810
457
393
397
400
619
604
432
821
842
417
164
286
352
244
568
520
197
205
513
527
230
212
517
548
193
-41
-274
-358
-265
-83
318
336
-29
104
103
-27
317
-36
9
-353
-272
76
-276
-233
-546
-375
40
-290
-239
-528
-323
100
0
-232
-540
-339
117
82
-130
-558
-602
-611
-638
-615
-234
-363
-364
-216
-532
-209
-368
-375
-225
-567
-568
-518
-235
-519
-574
-593
-516
-361
25
12
-142
-557
-607
-571
-538
-520
-201
-355
-322
-151
-220
-358
-117
-26
26
-252
-526
-271
-83
20
-571
-442
-211
118
-38
72
-343
-348
-277
-275
-331
-339
-279
1
-335
-193
-216
-380
-264
45
18
-292
-349
-151
-182
-153
-308
65
104
34
-322
-342
2
120
-86
-125
76
80
-109
-46
-23
-25
-40
-76
121
85
117
-72
-69
76
-318
-342
35
-67
-29
105
-329
-150
-325
113
258
266
-87
91
123
-20
313
273
-108
27
-296
-312
-292
5
26
-267
-331
-321
74
260
333
-10
111
58
71
50
-270
-270
103
-16
-29
37
-142
-130
59
-4
297
-58
62
-293
-344
-347
-281
105
-36
-54
23
-183
-237
-337
-117
-41
92
-325
-341
50
-98
103
-311
-134
-315
69
111
45
-286
-289
21
76
111
126
116
72
-258
-321
-328
-262
107
-56
-47
-127
44
48
-114
-35
-69
60
-301
-306
13
58
42
9
20
97
-41
327
128
368
304
-1
276
371
229
559
553
223
140
366
167
529
602
584
237
143
359
129
208
546
588
582
567
589
393
416
599
218
142
166
233
254
215
176
171
132
-12
31
-375
-130
-358
-192
-415
-834
-491
-193
77
-128
13
-329
-295
20
-286
-178
-538
-521
-181
-148
-209
-569
-628
-611
-543
-219
-200
-235
-537
-554
-525
-206
-372
-268
73
93
36
-274
28
-71
130
596
867
960
1250
1582
1259
1575
1898
2003
2033
1680
1560
1222
1565
1397
792
50
-406
-782
-874
-924
-1579
-1519
-1417
-1183
-1003
-1140
-722
-499
-568
-250
-533
-532
-185
-310
23
10
-316
-377
-377
-319
15
62
71
87
-126
-83
-83
-118
-110
258
153
191
304
109
69
-36
134
138
-9
-112
-42
132
233
183
327
295
149
584
450
432
547
380
285
284
329
350
348
356
378
378
328
275
312
228
454
850
801
631
521
594
780
882
787
589
207
214
250
211
140
177
624
838
646
803
441
464
834
876
506
596
549
410
813
837
491
432
504
642
704
892
495
619
242
371
276
292
166
559
561
148
-37
-88
279
175
198
304
98
-276
3
107
-63
-37
-47
-62
-49
-9
258
-73
11
-172
-255
-229
-196
-514
-636
-457
-433
-598
-236
-137
-340
-138
-553
-434
-419
-534
-184
-249
-631
-630
-227
-356
-139
-538
-614
-555
-218
-256
-412
-813
-857
-838
-822
-790
-423
-236
-346
-350
-199
-241
-136
-276
-329
-544
-458
-429
-559
-564
-491
-895
-802
-519
-297
-284
-135
-177
-362
-270
6
-289
-302
21
121
-97
102
2
-291
55
-56
-5
-100
31
26
-112
260
262
-67
-102
-67
-49
-123
9
-317
-280
75
-88
-31
260
270
-18
-70
-92
-72
-47
-62
-117
93
75
63
55
104
-27
365
134
258
84
22
95
-82
-113
26
-316
-299
34
87
88
84
121
-47
309
352
284
113
-318
-383
-311
54
68
-285
-380
-364
6
104
95
11
-301
-276
46
66
-262
-357
-365
-260
122
-101
85
18
27
62
33
-319
-359
-267
124
-104
38
-336
-326
29
77
29
-265
69
-38
293
-37
78
16
93
-20
313
262
-125
32
34
106
-85
-59
-54
-41
-48
-108
107
-65
148
594
602
198
336
373
232
244
361
-41
-12
211
452
778
391
198
377
214
636
465
395
227
352
361
248
421
510
448
522
328
-39
-63
-88
73
-298
-327
2
72
33
-347
-167
-135
-333
-358
-197
-248
-187
-327
-260
-262
-282
-288
-292
-311
-326
-324
-347
-182
-563
-627
-550
-358
66
88
-308
-218
-246
-353
105
-58
-84
-94
282
250
476
673
904
1164
1586
1576
1227
1216
1560
1583
1154
1130
672
843
465
158
-294
-469
-1026
-934
-990
-968
-924
-932
-983
-929
-670
-567
-349
-363
-188
-140
25
113
28
-360
-359
29
120
59
-328
-381
-325
7
55
114
-21
366
151
333
-36
-105
-122
-118
-104
-75
-46
-51
-75
-53
306
189
514
223
141
354
365
376
347
298
295
128
534
636
598
207
378
196
623
447
592
133
286
331
165
199
216
563
436
473
623
232
212
558
629
595
246
188
207
547
403
491
491
631
207
137
243
428
777
454
588
559
386
484
776
491
426
577
176
311
329
253
478
832
468
235
298
258
353
216
246
160
294
-14
311
183
515
231
130
270
-98
33
-365
-229
-523
-209
-358
-268
17
-265
-297
-306
-294
-304
-357
-160
-175
-157
-170
-256
-621
-633
-222
19
-90
111
-353
-550
-606
-536
-203
-223
-588
-437
-474
-439
-608
-235
-373
-303
-315
-376
-154
-368
-309
-330
-192
-557
-537
-150
-306
-358
-521
-622
-555
-151
-344
-169
-542
-557
-199
-367
-149
-524
-568
-192
9
121
63
-350
-213
-220
-142
-310
-265
-282
-360
-211
-533
-230
-320
-128
-24
-25
-64
-71
-42
-34
-56
-60
-44
-54
-118
54
38
104
-96
-121
84
121
261
375
356
261
-30
285
333
273
-114
64
82
114
88
48
76
-89
-47
-113
54
76
-47
313
269
-126
64
-97
310
343
-50
24
-276
102
268
337
274
-95
99
98
101
71
32
57
-100
-16
-63
13
-150
-379
96
320
356
-49
41
10
99
-70
-44
-39
-5
290
258
-116
1
-326
-297
55
-100
-55
-88
93
66
-108
305
166
157
301
-74
-100
-9
142
249
238
144
342
174
631
770
440
194
-10
-9
154
553
535
132
-5
-27
332
239
390
485
507
453
586
176
324
324
142
157
-5
-300
-513
-231
-298
87
38
-328
-294
-98
311
-12
17
-147
-372
17
77
8
-343
-354
-287
29
21
-275
-285
18
99
-100
-104
90
21
1
56
-110
-23
304
369
167
221
590
852
1003
1608
1663
1164
901
940
1557
1903
1884
1245
1077
642
645
800
150
-171
-657
-911
-1001
-1324
-1395
-1397
-1288
-1125
-719
-839
-432
-570
-590
-474
-820
-437
-150
58
33
-355
-368
29
127
19
-205
-574
-246
-371
-302
-262
106
270
354
324
307
149
539
539
377
-39
-34
361
211
202
178
252
394
455
610
183
375
237
432
509
397
221
165
555
507
868
815
433
596
553
515
221
234
571
423
511
814
816
787
507
792
645
763
1024
884
469
447
831
715
733
658
868
658
721
686
805
433
440
794
853
802
449
413
460
494
448
385
427
831
681
886
478
628
617
598
232
374
146
551
616
205
-43
-124
317
582
405
231
-38
59
47
72
28
-324
-381
-345
-262
40
25
-258
35
-124
-51
-70
95
-265
-346
-148
-171
-131
-318
-313
-153
-253
-222
-347
-282
-374
-229
-162
70
-51
56
-234
-624
-246
-333
-341
-217
-255
-381
4
-277
-355
-278
-39
373
-17
-333
-244
-362
-114
-47
60
-324
25
-4
367
267
100
62
-99
-12
-31
-118
83
77
78
77
96
125
123
75
30
36
64
63
22
-271
-272
9
43
88
-119
-104
124
100
-112
-26
-4
-101
23
-289
-265
-269
-338
-358
37
259
339
-88
-330
-379
84
336
136
-10
91
85
-72
-23
-78
115
-105
256
313
274
-42
-17
348
175
172
381
357
341
277
-82
110
-119
-50
-41
-90
-109
-56
-10
-79
29
-301
50
-20
335
275
-88
-98
-3
338
347
328
363
151
341
-98
15
75
306
231
199
291
-53
311
528
425
434
610
541
533
569
584
251
322
-122
90
-24
164
213
369
295
133
588
444
389
516
203
236
535
515
202
190
252
604
401
636
574
535
536
528
202
347
300
363
191
144
-73
-308
-355
85
329
153
257
3
-159
-374
55
-81
113
-345
-248
-226
-318
55
21
-334
-332
66
-42
-37
76
-342
-143
-333
37
120
-118
115
106
127
-101
-102
-105
-15
205
443
795
489
479
698
1348
1654
1428
1252
1361
1385
1275
1429
1527
1811
1508
1623
1167
937
643
228
-277
-482
-1039
-929
-999
-1284
-979
-1104
-698
-828
-411
-159
97
-84
-262
-515
-578
-133
109
-75
71
-305
-315
-274
-293
-364
-362
34
-42
282
-43
-125
-84
319
181
155
-12
51
-294
36
-57
318
303
-68
121
-50
143
544
521
359
-64
-103
274
221
636
387
233
296
-33
324
514
389
400
594
557
584
392
465
806
652
744
1026
702
839
506
796
649
737
722
875
776
509
841
679
719
703
675
693
1029
1123
1149
1048
862
470
486
874
722
682
785
399
394
489
858
662
646
820
444
597
563
602
412
453
448
412
607
525
195
169
177
156
311
-86
80
76
82
18
-326
-318
61
-100
76
-139
-549
-524
-154
-129
-218
-531
-184
-286
-262
-139
-515
-225
-366
-361
-523
-421
-388
-228
-147
-222
-557
-216
-291
22
-383
-564
-563
-145
-293
-375
-523
-521
-332
98
66
-130
-519
-193
-273
59
-285
-156
-171
-322
35
59
41
45
67
42
-302
-372
-353
-265
105
-39
306
333
276
-87
100
107
-124
109
48
15
37
71
87
115
-80
-25
-20
-31
-7
270
-50
62
-281
50
-48
276
-61
83
67
121
-115
102
69
95
-116
-118
100
90
126
-85
-50
-11
289
293
-44
73
-277
-262
84
-105
-119
86
79
-126
-78
-86
126
105
124
119
40
-337
-152
-382
-323
-296
-281
46
-104
-80
63
-345
-383
-296
44
17
-316
-292
113
-10
-30
80
-288
-262
108
-84
119
13
-279
74
257
161
215
168
337
273
-2
-14
-42
-63
-33
319
165
201
136
300
290
144
535
547
154
258
267
199
384
391
515
197
582
510
773
551
317
306
512
444
426
522
160
202
548
547
208
176
538
439
475
587
137
339
212
617
587
372
-95
118
-64
-71
17
-169
-188
-296
94
78
-286
-322
12
92
70
-274
-317
-293
-282
-364
-245
-569
-245
-361
-259
1
-316
-369
-378
-342
-289
5
-257
-316
-139
-202
-235
-233
-170
-273
-50
178
620
797
1039
1329
1542
1592
1547
1568
1453
1845
1832
1444
1599
1581
1544
1371
1053
394
-60
-555
-735
-959
-935
-1079
-1050
-1085
-766
-810
-602
-541
-560
-239
-348
-308
-217
-411
-389
-153
44
11
-141
-180
-321
24
-291
-154
-164
-281
-93
313
158
187
339
-110
41
-104
374
202
313
118
111
287
174
134
263
-20
330
139
318
-91
82
109
-72
-8
320
161
245
248
183
134
156
226
539
545
251
203
186
227
563
623
615
572
579
423
786
773
614
193
187
606
776
790
402
535
554
453
883
729
761
746
692
844
477
424
456
505
474
620
530
554
421
783
792
489
486
805
835
474
521
365
363
204
238
143
269
-12
331
142
344
-21
-48
290
365
329
-48
96
54
66
92
120
-124
99
23
-299
-296
25
85
74
-258
-363
-221
-581
-388
-633
-584
-575
-640
-440
-385
-237
-147
-224
-387
-431
-524
-287
41
-384
-631
-471
-614
-176
-358
-172
-531
-546
-227
-184
-225
-551
-522
-344
-124
-55
46
-215
-617
-521
-282
-122
80
-373
-517
-226
-315
91
124
53
-294
-343
-349
-344
-347
-358
-371
-379
-367
-317
16
83
115
118
124
127
100
41
2
21
66
67
16
-269
37
-112
-25
271
277
-19
-118
12
-289
74
-12
293
-95
-266
-286
110
-19
-54
64
7
119
285
309
-117
-331
-129
32
-7
314
-91
-308
-144
-317
81
-107
-122
117
-119
-121
75
-261
-280
20
56
38
-263
-296
-302
-273
44
-125
-57
-63
124
66
74
118
-112
-127
89
47
2
-271
35
123
-102
72
-299
-309
61
-96
103
-331
-207
-188
-338
-274
-277
-283
14
60
58
35
67
-68
338
180
191
138
336
298
284
284
306
342
373
377
337
287
285
366
241
587
570
219
383
353
364
365
367
158
247
560
551
526
560
631
637
569
542
392
790
508
538
321
342
569
493
457
552
203
232
549
569
599
411
428
534
259
52
43
-102
-55
105
-285
-319
24
-119
-68
-94
68
-319
-168
-187
-378
-322
-377
-531
-397
-624
-217
-324
-269
-299
-335
-335
-311
-295
-292
-312
-348
-382
-147
-155
-157
-139
-306
-126
344
520
397
814
1043
1009
1364
1338
1346
1551
1892
2109
1748
1426
1198
1241
1656
1579
1081
349
-254
-794
-864
-701
-907
-1358
-1382
-971
-760
-871
-796
-454
-577
-191
-139
-169
-211
-218
-210
-231
-522
-245
-147
-282
44
43
14
3
-260
-273
2
84
-64
-37
111
-297
-323
109
129
560
251
298
-110
-62
376
233
163
266
-42
320
193
196
341
-13
-10
299
319
306
311
349
129
140
153
208
566
419
476
422
255
318
-14
348
530
609
527
152
151
537
434
784
833
864
846
501
390
601
633
406
624
548
528
597
450
784
789
489
449
453
486
501
448
573
180
376
168
547
411
455
410
583
532
533
539
232
378
278
-21
-29
-73
90
20
68
-23
138
168
302
123
0
-287
-270
6
21
19
-293
-153
-249
-226
-342
33
-258
-158
-521
-229
-130
-372
-206
-519
-178
-268
65
-280
-176
-240
-173
-355
-159
-592
-470
-437
-571
-560
-469
-882
-804
-247
7
-261
-202
-579
-252
-135
-143
-242
-513
-138
-299
-371
-534
-587
-198
-277
21
-321
-382
-325
13
-266
-137
-236
-210
-370
-318
-325
-315
3
37
-291
-146
-142
14
-101
76
-196
-408
-607
-349
97
72
-304
-303
101
-52
125
-299
-331
97
278
-11
6
-199
-176
28
-66
-95
-258
-145
-172
-362
-284
9
-260
-282
19
-119
-20
-50
56
-313
8
-76
261
-96
2
-272
120
-30
-105
-280
-350
7
-118
-128
-281
-155
-147
-293
57
86
83
90
78
17
-309
-320
-266
42
18
-316
-370
-383
-377
-374
-360
-296
47
87
48
-284
-330
-323
-289
8
47
63
14
-353
-188
-185
-353
-267
7
-271
-262
38
38
-290
-372
-358
12
106
73
-315
-144
-359
-287
-319
-179
-227
-367
67
115
18
-300
73
279
360
258
-100
-32
145
229
144
290
317
193
249
156
286
283
141
220
184
365
138
559
474
501
619
170
306
318
186
595
416
610
195
335
380
563
459
432
249
332
295
345
377
131
191
563
614
233
-4
98
113
-73
-126
-320
-223
-197
-283
115
115
37
13
73
-125
97
-270
-368
-152
-161
-194
-518
-580
-584
-526
-187
-152
-212
-598
-426
-600
-374
69
35
-208
-425
-390
-368
-66
333
351
163
618
861
760
1088
928
1365
1573
1456
1519
1812
1871
1684
1723
1675
1482
1368
858
306
-196
-862
-929
-1406
-1261
-1260
-1161
-981
-727
-453
-525
-224
-518
-517
-187
-149
-250
-436
-808
-496
-599
-228
-202
-224
-235
-217
-170
-347
7
78
96
82
84
108
113
82
64
115
-36
288
-7
-100
113
-104
-51
-49
-54
274
161
239
144
-61
88
-59
164
549
228
335
274
372
558
435
431
571
180
372
364
332
-23
-125
-114
302
252
388
438
459
477
445
602
248
236
534
512
129
273
306
209
632
477
790
836
835
494
637
622
481
848
804
633
255
548
420
462
614
233
248
399
494
617
311
88
-107
162
612
538
298
-91
261
174
181
-2
78
81
-47
256
122
-334
-168
-356
20
73
21
-330
-139
-145
-371
-357
-374
-134
-358
-285
4
-328
-210
-541
-234
-383
-346
-163
-513
-533
-231
-181
-161
-144
-368
-362
-155
-234
-544
-560
-565
-568
-546
-242
-211
-230
-528
-529
-240
-252
-591
-413
-638
-516
-182
-229
-580
-576
-173
5
77
13
-370
-230
-557
-569
-250
-382
-261
39
9
-271
51
-66
284
-36
17
-168
-174
-271
115
32
-243
-475
-443
-170
116
-60
62
-375
-186
-362
36
-113
-91
100
-275
-377
-142
-339
-260
48
73
92
99
59
-276
-316
19
-56
362
370
-39
25
-310
31
-59
295
-9
112
39
113
276
372
308
-112
24
17
52
35
-300
-367
-366
-329
-298
-274
22
57
23
-352
-216
-234
-154
-330
-322
-351
-315
48
115
41
-371
-166
-285
-102
-84
-261
-164
-362
105
-45
93
-334
-305
-104
-19
41
-246
-539
-258
286
267
-272
-237
-172
48
-101
74
-293
-280
71
80
-308
-207
-248
-153
-275
43
16
-311
-375
-139
-352
5
103
118
41
-316
-360
-339
-327
-364
-153
-139
-312
39
113
-62
303
140
154
374
144
524
627
566
366
-30
300
520
425
420
615
397
777
819
431
251
219
608
462
393
204
342
141
531
604
612
404
774
833
456
227
353
185
619
385
150
56
-174
-179
-310
34
6
-353
-160
-376
-288
4
-327
-181
-186
-317
67
43
-364
-215
-168
-306
-284
-375
-186
-144
-332
-378
-520
-588
-236
-359
-355
-212
-532
-196
-326
-295
-352
-348
76
328
237
253
233
591
859
911
1336
1318
1007
1377
1445
2048
1946
2125
1721
1901
1836
1607
1124
231
-355
-512
-1028
-947
-1337
-1166
-1156
-1283
-1068
-846
-426
-582
-237
-133
-316
-353
-255
-440
-777
-440
-241
-312
-264
-381
-551
-594
-178
78
-34
-94
21
-258
126
261
258
-120
54
103
-46
-24
-124
13
-291
-271
11
41
126
256
338
303
-43
-57
304
165
197
172
199
542
581
249
131
346
130
157
365
296
276
298
310
330
159
563
427
433
585
213
174
236
602
433
437
619
558
597
446
493
429
611
390
770
839
774
425
456
874
746
701
777
630
613
406
398
555
201
199
532
596
596
561
542
535
512
235
512
553
519
352
-117
43
110
-48
-57
112
87
-83
265
-16
-125
82
-101
-2
-14
112
-289
-367
-138
-155
-165
-150
-376
-381
-188
-521
-545
-513
-229
-519
-607
-404
-632
-561
-538
-595
-634
-552
-382
-272
-328
-245
-392
-446
-454
-462
-436
-595
-240
-247
-599
-619
-207
2
56
-342
-249
-530
-213
-215
-563
-613
-515
-347
18
37
27
29
3
-335
-151
-142
-337
-332
-162
-522
-542
-207
-346
20
113
-83
-86
104
25
-269
-271
-283
-328
-370
-367
-335
-303
-265
75
-64
-6
-74
48
-268
71
-78
-128
-356
-551
-223
93
359
320
46
-163
-368
106
-13
-68
66
20
33
16
-294
-292
77
-46
-20
-118
0
-344
-352
-291
63
-116
-111
105
117
-39
311
260
68
-350
-360
-287
-308
-220
-402
-453
-611
-195
-303
54
79
15
-340
-375
-305
48
62
-258
-281
47
126
102
2
-280
93
-20
-30
34
-182
-245
-140
-264
26
-288
-343
-343
-315
-295
-280
9
47
64
69
100
-102
-85
103
-263
-311
15
-116
-50
-78
118
96
-127
-60
267
323
350
351
345
348
354
356
368
164
247
545
247
168
133
161
190
188
216
598
510
839
783
446
451
768
504
397
547
521
538
255
201
228
632
792
834
505
417
620
543
383
-64
72
37
9
-335
-190
-220
-140
-280
38
41
31
28
2
-322
-139
-158
-382
-352
-359
-143
-182
-200
-195
-146
-296
79
126
63
-308
-137
-180
-225
-541
-564
-247
-141
-342
-372
-161
-368
73
326
547
434
800
708
933
1398
1253
1562
1430
1689
1970
2319
2163
1664
1515
1434
1219
760
180
-316
-406
-712
-1329
-1410
-1801
-1416
-1403
-913
-1029
-672
-784
-588
-152
-315
-324
-134
-180
-166
-376
-351
-384
-187
-213
-163
-311
32
42
-279
-334
-298
88
-24
300
265
-79
120
-125
-72
-29
-8
271
321
372
366
281
-79
-112
-57
263
261
-39
-42
278
335
335
363
531
781
875
392
-14
21
-74
517
393
197
-64
-53
514
837
894
465
563
586
453
490
633
214
372
377
205
606
770
862
800
639
545
631
823
682
879
481
417
488
869
685
662
857
818
825
836
781
638
219
148
207
560
587
535
240
517
533
205
333
275
321
357
268
99
7
54
-100
-63
-95
-121
-113
-117
106
96
-114
-66
-100
45
-303
-313
-302
-378
-544
-430
-434
-558
-137
-304
-316
-371
-144
-377
-356
-155
-552
-439
-500
-482
-452
-446
-421
-582
-189
-359
-382
-214
-553
-594
-593
-568
-546
-550
-578
-599
-590
-576
-604
-409
-425
-604
-241
-196
-211
-195
-371
-315
-354
-142
-303
-104
-35
-259
-628
-798
-610
-274
-120
21
-155
-165
-281
79
48
-266
39
-93
-54
81
-344
-129
-281
70
37
-308
-294
89
-103
20
-207
-551
-146
87
-75
79
-339
-147
-319
93
-34
262
-61
69
-272
2
69
70
-284
-375
-326
93
-43
-76
65
48
-54
145
190
268
4
-161
-160
-329
-267
-257
7
59
123
-111
106
62
68
111
127
53
-344
-198
-189
-322
61
78
-258
-317
-270
84
87
-327
-536
-629
-550
-379
20
83
93
69
19
-286
-306
-290
-270
-273
-288
-290
-297
-328
-347
-265
-55
166
231
351
-85
-108
311
234
513
148
316
349
196
241
195
149
194
569
402
409
630
628
426
472
440
598
247
224
522
559
529
177
340
303
313
317
265
-102
26
-316
-336
-300
-262
-265
-299
-313
-284
9
0
-315
-334
19
-77
-12
104
-149
-563
-254
-359
-307
-142
-219
-130
72
-68
119
-264
7
-77
314
-34
-316
-558
-544
-262
368
639
507
850
1029
1297
1263
1578
1257
1230
1582
1467
1518
1435
1539
1373
917
641
561
-68
-225
-676
-1335
-1544
-1243
-1329
-955
-941
-915
-1029
-799
-626
-596
-410
-469
-441
-587
-194
-351
-331
-135
-200
-168
-275
-113
-92
-265
-243
-584
-184
75
-11
-7
-69
-65
268
330
326
315
382
239
541
228
130
329
306
274
-17
258
338
130
326
-43
-68
311
225
565
526
171
351
332
356
145
184
187
163
171
248
612
399
590
245
244
606
480
791
484
637
561
564
395
492
771
442
603
564
574
574
554
587
469
889
689
868
794
850
705
679
460
221
148
222
246
347
120
34
-93
364
208
171
340
284
-6
-43
-79
-87
-70
-66
-103
97
64
64
61
17
-303
-327
-294
-279
-365
-523
-607
-251
-277
-110
114
-320
-226
-514
-184
-342
-272
16
5
-295
-335
-323
-272
8
-295
-376
-152
-366
-314
-343
-213
-608
-397
-578
-209
-178
-540
-450
-785
-453
-543
-164
-144
-194
-243
-520
-253
-203
-374
-296
-278
-314
-340
-303
18
27
-308
-143
-158
-333
42
125
-115
99
37
-263
-259
49
94
51
-349
-252
-552
-182
-269
70
39
-265
34
-123
-96
49
-359
-152
-325
16
-280
-158
-514
-229
-353
46
-124
-115
80
1
-282
16
56
8
-369
-187
-382
-257
44
-293
-384
-349
69
-24
287
-30
125
70
103
-61
257
-22
-85
-85
-15
-17
42
-248
-629
-200
77
-103
-285
-211
-142
-124
343
334
-41
-78
-9
278
-84
-257
-327
32
-36
337
323
257
259
350
178
164
349
328
374
138
332
269
324
212
518
370
-74
-42
233
458
598
-45
-324
32
129
612
248
-50
25
82
-26
268
-98
11
-331
-372
-164
-226
-523
-519
-209
-360
29
116
70
-352
-245
-513
-156
-342
-147
-533
-587
-520
-144
-290
56
111
89
-279
-148
-205
-210
-514
-631
-440
-586
-338
106
98
-278
-295
-93
236
773
663
723
1042
901
1305
1155
1187
1183
1219
1567
1612
1240
982
758
696
700
781
319
-241
-876
-741
-1031
-899
-1344
-1181
-1323
-1050
-773
-584
-233
-186
-137
-301
84
-83
-106
33
-314
-286
84
-98
-114
114
-125
-107
105
42
68
-67
278
-28
109
83
-70
270
-48
76
52
-69
352
154
368
299
-11
-52
-70
-31
301
339
303
-7
259
322
383
189
557
427
434
513
279
-59
313
215
516
225
241
594
406
624
566
618
511
828
411
142
260
363
544
562
133
-14
317
575
785
786
389
557
625
510
842
814
771
791
835
800
409
543
559
458
845
791
564
338
283
152
558
593
250
148
128
178
208
170
363
354
145
156
286
59
-366
-357
30
93
-281
-224
-574
-246
-144
-150
-221
-204
-317
43
-334
-620
-810
-470
-224
-361
-251
-503
-858
-463
-518
-205
-574
-445
-424
-524
-151
-208
-394
-771
-444
-254
-141
-211
-621
-433
-618
-516
-244
-573
-405
-449
-427
-587
-195
-376
-221
-461
-889
-812
-556
-383
-189
-629
-442
-592
-216
-214
-521
-230
-380
-365
-521
-447
-452
-236
29
-97
-125
77
95
-105
-98
104
69
118
-49
-15
-84
54
-266
28
126
-55
-58
126
29
-297
-297
40
-86
275
317
329
362
144
376
260
118
58
96
119
18
-171
-554
-254
-343
73
-114
-109
-95
-42
274
286
-27
-111
108
-109
-45
-40
-114
69
86
-84
-38
-104
44
21
101
-77
-90
100
86
-94
267
338
356
311
-44
101
76
-83
300
314
-34
-67
332
545
631
551
227
574
481
491
519
-42
37
33
94
116
79
2
-353
-172
-162
-323
29
46
17
5
-268
-357
-239
-538
-145
53
105
-280
-150
-374
5
32
-334
-199
-213
-158
-144
-186
-199
-152
-346
-307
0
114
-9
292
-46
94
80
-47
383
237
538
610
783
754
913
923
1092
1034
1094
985
1355
1339
940
755
873
789
408
361
-143
-716
-1172
-1663
-1457
-1409
-1555
-1387
-925
-717
-772
-564
-371
1
3
-330
-163
-232
-549
-597
-585
-244
-384
-280
79
-62
271
-41
38
-364
-324
-118
311
288
99
-347
-145
-316
65
-102
-81
-123
62
19
34
107
-48
302
373
139
354
289
290
141
520
531
162
331
174
414
825
500
563
214
568
463
506
451
418
449
456
388
603
465
683
1041
642
387
255
579
452
506
508
825
685
717
864
484
778
719
1131
1082
872
426
639
451
786
823
839
858
856
809
487
454
484
782
486
598
160
303
298
338
341
296
260
269
298
295
264
257
291
319
274
-104
34
-270
-265
-291
-139
-526
-596
-582
-541
-538
-556
-549
-527
-546
-633
-475
-490
-414
-576
-527
-547
-620
-448
-473
-628
-181
-300
-352
-536
-399
-598
-226
-218
-570
-615
-540
-222
-573
-500
-828
-450
-256
-148
-136
-130
-362
-354
-349
-288
78
126
40
-357
-177
-206
-546
-419
-417
-197
60
81
-148
-583
-222
50
-87
16
-206
-249
-372
0
7
-273
25
95
92
20
-262
76
-75
-84
29
-370
-359
75
286
351
-64
-349
-581
-631
-528
-165
-164
-520
-604
-582
-215
-353
-294
-276
12
82
-127
87
-279
-346
-278
122
-77
61
-134
-234
-197
-145
-178
-254
-513
-166
-325
-298
-321
-331
-327
-348
-145
-163
-362
-284
-259
-289
-296
19
95
116
80
53
64
59
-294
-205
-562
-231
-271
-82
-58
93
17
94
280
181
218
154
331
289
277
289
325
366
383
139
194
556
638
620
531
231
561
434
480
391
523
239
569
633
593
211
360
325
294
-91
-326
-549
-629
-531
-364
-266
-278
-333
-347
-297
48
-101
-11
269
-57
79
-267
-292
-311
-133
-223
-233
-163
-141
-249
-393
-386
-190
34
105
31
-290
4
78
87
47
81
-22
155
227
185
166
559
827
1059
1110
754
683
1040
1002
1401
1360
965
1136
1121
1044
817
245
-40
-286
-582
-693
-989
-1324
-966
-1125
-1149
-942
-1087
-771
-163
18
-267
-379
-179
-165
-153
-180
-216
-197
-370
-273
44
50
19
-264
-262
9
11
-257
8
63
-127
-120
63
-269
18
-73
378
189
322
106
-282
58
318
573
393
516
297
-84
-35
380
529
588
551
212
128
340
358
166
221
221
167
378
143
220
559
616
385
631
590
529
214
177
163
166
198
515
590
399
426
416
634
556
184
342
331
176
568
637
628
613
415
788
889
671
648
843
493
629
519
193
160
142
142
188
538
609
602
547
536
617
474
777
461
583
183
321
-26
-92
125
94
37
-305
-384
-161
-150
-384
-355
-316
-292
-325
-176
-553
-593
-516
-130
-322
-369
-211
-513
-216
-144
-129
-178
-204
-155
-344
-378
-529
-412
-394
-237
-129
-200
-620
-426
-591
-232
-523
-409
-494
-429
-553
-239
-554
-403
-459
-437
-615
-521
-196
-176
-190
-181
-379
-321
-335
-154
-196
-379
10
52
-317
-233
-542
-152
51
-119
28
-169
-536
-235
-129
-355
-183
-545
-556
-208
-369
-358
-154
-174
-373
-285
29
41
20
-298
-159
-539
-566
-174
40
-101
73
-356
-173
-319
127
-33
-86
46
-286
-272
39
56
7
-326
-361
-301
87
-63
-76
50
-342
-365
-290
11
-316
-180
-199
-346
21
12
-328
-318
113
320
350
-95
-337
-169
-316
117
-65
121
12
-257
97
-57
-51
-126
81
110
-109
96
-298
-165
-175
-340
22
76
63
-261
-352
-152
-137
-342
-319
-339
-343
-296
-265
-330
-187
-201
-306
-121
-85
45
-340
-337
5
54
34
26
75
117
86
0
-317
-302
13
78
-118
-56
-4
268
-9
-26
-10
283
304
283
-29
-74
-71
-26
280
313
350
187
602
499
800
448
543
202
517
402
473
628
138
-75
-127
-53
-16
125
-331
-181
-380
-282
-296
-147
-173
-273
-48
305
-28
99
51
79
71
-267
-346
-360
-351
-143
-241
-537
-186
-265
121
-115
111
107
120
80
-297
-172
-225
-205
-175
-170
-159
-327
125
130
627
804
680
1073
962
1293
975
1070
742
919
1538
1828
1844
1634
1169
1338
1009
765
568
43
-411
-766
-1303
-1242
-1559
-1246
-1153
-1316
-915
-669
-386
-220
-513
-402
-466
-612
-183
-135
-537
-470
-477
-244
52
-75
107
17
86
278
383
273
63
-294
40
-91
-74
91
30
92
-20
350
358
297
-2
266
308
334
327
304
310
365
206
566
630
631
556
182
369
161
552
638
568
131
268
336
520
397
390
565
527
561
601
596
578
624
487
848
824
412
251
232
634
801
818
428
574
385
841
710
868
386
522
623
817
861
429
193
374
244
416
464
385
557
531
245
138
263
-14
373
547
626
586
517
228
195
359
-34
114
64
17
-339
-207
-535
-253
-163
-341
-302
-275
27
80
88
17
-349
-157
-381
-291
11
-304
-171
-513
-227
-367
-270
-267
-343
-152
-159
-144
-172
-247
-560
-529
-170
-337
-335
-151
-236
-535
-529
-223
-167
-183
-578
-775
-859
-462
-191
-279
-326
-200
-202
-307
71
18
-131
-176
-307
96
90
-314
-188
-198
-132
-344
-337
-304
13
15
-345
-213
-213
-322
80
87
1
-277
85
-57
-72
76
53
-59
364
337
91
-175
-514
-165
-317
-322
-158
-240
-529
-514
-196
-338
34
63
-277
-149
-206
-153
-328
-314
-374
-182
-181
-370
-283
52
-127
-71
-85
73
-285
-270
-127
260
-45
-273
-216
-194
16
-68
-94
22
-283
73
-85
109
-314
-369
41
-4
283
81
-158
-232
-134
-271
21
11
16
19
-300
-140
-152
-288
116
-108
53
-295
-277
61
93
47
21
82
-87
-92
46
-334
-336
42
-93
-86
77
2
25
104
121
35
-318
-313
54
-103
-118
43
-275
6
54
44
-267
-301
-292
-294
-347
-139
-365
-276
24
-292
-139
-179
-132
-329
-336
-383
-378
-272
-119
-11
258
-62
98
7
-302
-282
64
-95
-52
-86
103
78
-126
-29
321
380
140
349
268
-34
281
183
608
429
409
618
592
587
590
632
471
813
793
391
220
133
377
353
283
-37
-45
-24
-41
-96
-109
-48
262
-38
98
12
16
33
-301
-182
-219
-314
-43
138
373
-48
67
42
73
55
-301
-157
-215
-225
-249
-548
-526
-373
100
-40
-112
-292
-148
-370
-280
-257
-289
-258
-86
180
417
827
723
964
1257
1451
1450
1614
1624
1807
1744
1732
1505
1271
1177
1373
1099
536
-343
-482
-859
-657
-1087
-1335
-1218
-1155
-954
-758
-896
-846
-809
-472
-578
-158
-346
-172
-581
-633
-253
-330
-270
-369
-247
-539
-229
-165
-374
-293
93
-73
-101
67
44
118
-65
-74
-96
-7
169
519
177
287
275
149
244
178
303
267
343
139
345
286
336
217
561
542
244
515
551
521
185
151
193
218
162
357
157
547
599
523
228
396
670
749
508
195
153
415
673
647
396
224
553
478
806
479
415
460
781
472
545
374
347
183
537
576
583
593
596
569
548
590
425
451
582
372
-18
257
329
300
-89
75
-123
258
268
118
-316
-359
-273
65
68
55
99
-86
-64
-91
-102
-74
-62
-110
91
82
63
-320
-529
-387
-527
-299
35
-130
-618
-442
-621
-546
-567
-600
-536
-172
-170
-569
-446
-391
-180
-257
-258
-141
-519
-532
-220
-187
-207
-253
-539
-539
-243
-145
-274
58
19
-343
-382
-286
106
105
-342
-576
-425
-625
-247
-166
-138
-368
-324
-292
-297
-317
-307
1
60
92
68
-264
-329
-312
51
-78
-37
-107
36
-315
-375
-164
-186
-144
-315
-289
-138
-552
-593
-185
35
-119
69
-286
-265
94
-124
49
-319
-335
-286
-296
-157
-534
-546
-213
-174
-210
-218
-369
50
-97
-92
122
91
63
42
79
-61
296
-26
1
-191
-166
35
-67
-109
-272
-370
-316
63
120
72
-269
-308
-269
60
98
72
12
-280
-260
42
70
67
46
9
-320
-172
-528
-546
-203
-333
3
-257
-292
-283
57
-87
-11
262
-18
-62
123
23
-322
-341
-291
11
-270
-340
-366
-325
-288
-315
-377
-140
-352
-314
-334
-377
-380
-335
-291
4
72
-75
263
-35
77
-316
-348
-310
-305
-373
-207
-247
-217
-157
-361
-310
17
96
-119
122
73
31
22
37
62
97
-104
-30
315
131
156
135
358
373
201
551
525
321
53
-319
93
161
420
470
639
574
612
463
811
833
784
438
609
559
533
250
233
535
409
778
479
532
330
273
314
278
102
-339
-136
-343
-327
-136
-194
-161
-348
-337
-377
-358
11
110
87
-296
-383
-339
28
63
-300
-210
-563
-554
-251
-243
-513
-204
-319
50
14
-142
-251
-199
-320
-258
-304
-320
80
341
572
452
848
1093
1363
1216
1347
913
939
1217
1531
1904
1816
1451
1435
1650
1379
857
275
-162
-452
-743
-1347
-1619
-1410
-1234
-989
-1059
-654
-467
-517
-137
-166
-521
-551
-224
-148
-153
-194
-169
-345
-330
-183
-538
-186
86
290
-9
48
-307
61
-20
278
-87
41
5
56
120
-100
-92
-91
-65
261
366
198
199
381
326
355
200
550
573
541
237
176
361
300
281
303
309
267
-28
282
189
608
413
403
426
777
845
506
569
186
228
601
617
243
146
214
395
500
437
575
569
432
797
774
387
512
189
166
164
207
559
392
400
586
530
562
635
399
609
559
538
233
349
-73
-100
322
538
598
193
-7
-86
-29
285
-6
-84
-93
-19
296
264
-74
-111
-102
-123
50
-279
0
76
80
-294
-185
-215
-350
45
77
-264
-384
-192
-189
-152
-378
-382
-180
-516
-565
-534
-198
-172
-239
-577
-543
-134
-276
-355
-592
-776
-486
-539
-367
-349
-177
-239
-218
-161
-131
-140
-163
-194
-236
-554
-609
-613
-551
-181
-318
10
13
-289
-351
-139
-149
-374
-321
-300
-363
-230
-573
-538
-156
-326
-348
-148
-360
56
-81
101
-370
-255
-178
29
-114
72
-320
-361
-284
45
36
1
15
52
6
-145
-535
-254
-337
80
90
-268
-326
1
117
126
-260
-134
-363
73
-25
-38
78
-288
-284
20
21
-273
-279
8
5
-311
-342
-272
107
-92
-125
98
109
84
-324
-520
-568
-149
62
109
-257
-326
18
-89
-38
-104
97
121
-103
99
-269
-305
25
107
114
93
-125
-60
-110
-314
-256
-529
-378
-266
-322
-194
-211
-352
3
-270
-337
-325
2
22
-299
-354
-318
-257
-278
-344
-325
49
124
33
-138
-198
-366
-285
-350
-200
-143
80
-26
113
-181
-612
-253
-270
105
21
-378
-140
-262
-86
297
363
135
135
345
278
-12
268
329
134
177
201
195
163
135
129
380
364
364
156
223
234
175
153
540
509
862
454
199
358
218
597
534
371
354
564
790
799
610
184
145
135
267
65
-306
-273
44
-258
-131
-194
-369
37
127
118
60
20
16
8
-277
-317
-338
-322
-299
-330
-194
-616
-466
-431
-562
-228
-514
-589
-608
-548
-218
-174
-134
-320
-263
-290
-133
-180
-322
-65
213
425
840
764
986
1168
1218
1156
1375
1229
1469
1682
1727
1857
1417
1263
1366
1121
467
-55
-622
-1138
-1256
-1431
-1421
-1570
-1205
-1374
-987
-754
-475
-539
-527
-390
-480
-419
-237
-339
-331
-188
-547
-525
-136
-260
31
-292
-376
-147
-363
-284
57
-127
-79
-60
-75
-116
96
75
91
-121
-70
-33
-33
-77
-127
-124
-22
152
563
621
592
547
543
544
234
379
302
342
195
243
171
328
329
165
219
156
313
318
181
529
246
175
195
578
444
479
479
772
809
505
629
529
571
453
794
476
571
190
198
591
768
860
794
633
534
580
420
402
244
372
182
629
458
591
178
226
474
649
777
197
-2
339
529
519
256
5
30
293
236
144
113
-334
-268
-62
303
-25
86
-261
-287
-315
-361
-374
-318
16
27
-316
-209
-605
-398
-578
-180
-372
-227
-428
-772
-395
-202
-148
-524
-630
-548
-356
-288
-188
-418
-490
-610
-183
-141
-196
-208
-382
-317
-139
-567
-401
-564
-146
-364
-514
-441
-467
-560
-362
-291
-377
-515
-586
-536
-157
-342
-160
-576
-388
-236
40
-75
61
-168
-522
-190
-353
-376
-199
-198
-379
-359
-171
-195
-328
107
-110
-262
-188
-220
-379
-307
-330
-359
-307
49
73
-276
-135
-157
-318
91
-17
326
316
-42
87
16
13
0
-353
-513
-640
-413
-616
-520
-153
-294
59
-128
-74
-34
-60
52
-168
-574
-556
-168
-325
-325
-350
-308
50
-123
-89
-69
-42
-54
118
13
-296
-307
-339
-142
-139
-282
100
95
-284
-341
67
339
223
355
85
-362
-135
-376
-189
-585
-409
-618
-246
-171
-171
-184
-150
-341
-281
10
25
8
-316
-161
-221
-180
-339
-282
-294
-314
-270
64
89
24
-304
-293
35
47
-315
-196
-235
-158
-327
-300
-264
-121
345
184
325
-119
111
287
194
380
-124
-283
56
259
364
322
277
344
210
535
541
550
575
569
520
245
572
414
427
605
536
548
607
635
610
562
240
132
260
-77
-69
-32
-61
103
44
76
-125
80
-358
-540
-570
-183
-279
23
-330
-222
-556
-227
-281
-68
259
121
-375
-513
-187
-278
5
-197
-466
-819
-407
-159
-300
-132
-524
-247
-275
-12
319
-88
-260
49
352
436
881
700
1080
1294
1206
1239
1254
1410
1914
1782
1683
1509
1418
1565
933
249
-204
-890
-1062
-990
-1602
-1712
-1790
-1494
-1289
-681
-796
-769
-485
-435
-417
-467
-794
-804
-462
-571
-171
-342
-320
-325
-325
-299
-259
17
-260
-303
-317
-284
21
42
38
61
-111
-28
-39
113
35
96
277
160
128
-14
-94
-18
372
156
342
301
136
533
559
182
320
363
538
414
391
546
521
599
406
604
211
139
216
627
457
407
564
533
594
417
444
424
422
443
434
622
541
540
387
498
772
437
607
607
433
497
480
433
450
813
667
660
781
632
588
386
429
629
238
373
330
346
381
160
211
526
560
527
170
296
-58
-94
-86
-84
120
26
-292
-270
64
112
93
52
48
70
51
-297
-155
-230
-521
-531
-256
-192
-369
-364
-198
-540
-254
-382
-289
-336
-225
-606
-386
-628
-616
-610
-588
-562
-554
-539
-229
-145
-364
-164
-251
-515
-165
-328
-362
-523
-421
-441
-572
-151
-332
-135
-520
-611
-603
-532
-221
-225
-514
-524
-243
-234
-529
-576
-559
-196
-317
23
31
-265
-313
-359
-156
-180
-129
-257
106
86
-324
-215
-188
30
262
284
87
-364
-351
91
-38
121
-366
-252
-213
-356
-314
-367
-167
-172
-133
-344
-308
-266
34
62
55
-263
-366
-181
-134
44
-46
-67
-287
-230
-190
63
279
262
79
-316
-299
43
92
112
-91
-29
-31
-104
83
74
79
32
-296
-302
34
97
52
-303
-335
-277
27
-259
-292
37
-89
-61
58
-359
-343
119
299
264
63
-344
-306
92
-99
81
-268
8
110
-110
23
-152
-193
-311
122
-81
115
108
-11
173
237
142
259
-67
-67
-83
92
-282
-135
-203
-194
-327
-103
359
168
347
-4
-4
352
208
255
230
175
377
327
292
268
288
366
215
539
523
195
138
134
154
159
154
164
156
333
-63
93
118
-33
262
-105
-291
-165
-190
-170
-163
-153
-365
-314
-313
-376
-176
-155
-339
-300
-332
-140
-157
-369
-318
-315
-365
-149
-375
-275
82
117
86
55
78
-100
-3
369
545
800
1079
1299
1164
1218
1266
1606
1480
1877
1697
1894
1447
1215
1297
909
693
569
97
-581
-895
-907
-1181
-1637
-1629
-1406
-1135
-718
-662
-833
-390
-184
-356
-168
-526
-540
-207
-131
-383
-163
-173
-130
-325
-290
-300
-346
-160
-221
-213
-362
46
-107
-113
74
50
-128
256
341
349
335
362
156
151
306
-79
-110
261
169
241
176
316
-6
-2
281
289
294
315
348
367
360
366
169
521
604
392
397
392
395
399
409
433
481
793
833
850
855
851
811
480
420
429
496
791
493
416
390
431
469
462
459
771
866
650
848
503
480
791
852
838
502
431
419
458
485
440
589
238
232
555
593
524
372
-11
-40
260
293
262
-83
46
-343
-163
-380
11
-121
-116
36
-323
-342
-318
-364
-241
-606
-579
-183
-342
-148
-577
-453
-431
-558
-210
-240
-610
-464
-780
-803
-792
-462
-591
-237
-244
-588
-398
-632
-556
-241
-198
-139
-340
-366
-240
-623
-622
-252
-139
-346
-313
5
53
19
-310
-305
72
-80
112
-362
-563
-589
-201
-317
-286
-355
-160
-378
-266
62
24
-325
-342
16
-124
-115
63
23
78
127
66
-294
-282
126
264
-18
79
-306
-319
-264
56
122
-66
-53
123
31
51
-59
318
262
51
-134
-148
-288
72
73
8
-282
18
95
124
76
-269
-353
-159
-205
-203
-365
44
-123
70
-327
-133
-296
101
-121
44
-325
-375
-140
-198
-254
-208
-305
116
-98
66
-284
-266
109
-25
271
-9
-25
-20
-47
99
-297
-355
-269
-114
-40
-94
80
95
-39
330
347
296
284
338
358
256
83
3
114
334
226
206
352
313
156
566
630
552
171
136
219
556
255
363
262
324
232
574
238
335
263
325
169
204
175
129
327
-42
58
-326
-380
-140
-185
-248
-241
-374
33
75
-286
-165
-181
-317
57
30
-147
-578
-597
-208
-324
-305
-383
-168
-377
-331
-137
-562
-431
-390
-223
-334
-324
-154
-189
-343
110
270
315
285
311
245
820
1109
959
1135
1032
1101
1379
1435
1804
1636
1327
1102
1057
1097
1044
787
340
-185
-646
-920
-978
-911
-1114
-901
-970
-904
-657
-608
-153
-356
-343
-276
70
82
9
-329
-339
-274
44
53
32
38
88
-108
-81
-89
-80
-9
358
162
355
-48
120
-71
337
176
149
330
306
334
346
324
315
355
134
357
295
314
177
519
192
284
-33
365
560
587
154
-28
262
229
407
628
203
376
220
622
631
237
366
139
554
463
798
792
488
423
623
633
486
888
675
795
558
142
185
399
882
720
657
790
472
510
851
655
667
892
824
455
590
533
558
607
606
556
523
533
535
222
129
346
163
540
589
246
332
-45
-56
-26
-86
-268
-172
-153
14
119
21
-168
-207
-291
-98
-89
29
-323
-312
-318
-182
-576
-568
-161
-322
-172
-635
-486
-427
-562
-244
-238
-233
-241
-584
-485
-844
-795
-385
-540
-597
-479
-775
-397
-241
-223
-602
-435
-609
-183
-138
-560
-506
-801
-419
-553
-534
-535
-195
-343
-362
-521
-386
-591
-192
-142
-239
-609
-608
-252
-163
-131
-362
-297
42
72
21
-327
-144
-161
-381
-324
-281
-263
8
32
56
64
76
107
-112
-118
68
-272
-289
33
-128
-75
-60
-24
317
131
363
-15
119
103
-67
-7
-78
4
-382
-373
-265
90
-117
-70
262
319
292
-63
101
66
74
85
96
117
-122
113
61
37
79
-102
-64
-91
112
74
36
-286
-358
-370
-279
124
-43
-84
56
-263
51
-73
271
-20
118
22
11
60
105
-123
-70
290
136
156
339
256
264
357
164
331
111
-318
-285
-68
378
349
-100
54
-39
532
464
392
202
383
205
523
171
-10
-114
-109
122
-288
-220
-253
-339
-127
-76
38
-148
-208
-377
9
75
53
-263
-298
-292
-277
-302
-381
-217
-243
-175
-333
-311
-132
-213
-189
-325
39
47
-258
-273
14
16
-308
-376
-336
63
-43
304
376
249
441
894
1064
960
1359
1207
1242
1241
1266
1572
1588
1266
1158
1330
999
1064
639
28
-805
-1128
-921
-899
-1012
-1238
-1603
-1157
-752
-397
-248
-228
-184
-359
-355
-217
-590
-571
-183
-338
-338
-373
-365
-328
-339
-158
-216
-178
-311
68
119
79
0
-275
72
-46
276
-25
-87
-69
-4
-24
88
-298
-262
-104
-17
-117
-295
-334
85
322
219
244
211
184
189
223
537
598
611
565
532
579
427
482
425
583
590
490
659
671
768
597
579
449
817
783
392
580
411
816
856
460
517
197
606
853
727
659
774
482
852
723
707
813
433
455
815
826
415
226
200
625
811
819
397
235
193
205
144
291
284
168
545
187
-95
-281
69
296
339
90
-225
-572
-150
60
124
52
-283
-311
-330
-378
-174
-225
-571
-462
-835
-801
-632
-228
-240
-623
-452
-420
-598
-587
-398
-463
-479
-491
-806
-887
-890
-498
-541
-383
-370
-223
-603
-638
-576
-241
-231
-546
-614
-638
-630
-616
-592
-525
-141
-259
55
0
-384
-215
-187
-325
17
-283
-175
-557
-547
-182
-368
-164
-233
-136
-113
139
382
114
-145
-167
-267
64
-332
-558
-401
-575
-183
-360
-307
49
-100
-101
23
-380
-176
-154
-170
-253
-562
-225
-298
115
-99
95
-266
-355
-143
-130
-324
-258
9
-293
-332
-318
-267
9
-298
-384
-195
-224
-243
-517
-251
-199
-133
-357
-372
-133
-377
-355
-362
-141
-158
-372
-264
114
-85
126
20
-312
-286
78
-92
-118
6
-376
-130
-273
-118
-22
-11
-55
123
30
-303
-312
20
120
-92
-118
105
125
-96
-104
-121
-57
349
188
356
-108
35
-117
349
209
181
134
168
229
192
301
-75
-64
280
319
276
-14
315
219
600
600
516
225
566
429
433
542
374
337
182
542
531
166
315
-8
-88
42
-330
-359
-307
3
-279
-129
-245
-550
-244
-384
-297
-330
-199
-549
-518
-154
-362
-170
