8685
8680
9026
8913
9253
8916
8657
8344
8145
8166
8378
8638
9037
8979
8773
8547
8139
8066
8310
8125
8569
8801
8646
8756
8470
8316
8466
8582
8935
9096
9303
8847
8790
8157
7860
7820
8311
8341
8365
8291
7604
7697
7954
8158
8708
8423
8491
8125
8118
8306
7832
7654
8046
8513
8992
8876
8677
8447
8428
8809
8609
8790
8736
8811
8620
8710
8083
7839
8269
8755
8900
8908
8579
8482
8076
8131
8543
8725
8649
9043
8838
9047
8654
8437
8188
8280
8311
8529
8753
8790
8363
8145
8064
8177
8398
8630
9074
8900
9072
8814
8510
8095
8189
8447
8649
8615
8326
7908
7804
7397
7772
7849
8482
8436
8357
8315
8003
7601
7631
7944
7651
7553
7786
7626
7981
7947
7563
7806
8043
8151
8341
8165
7970
7495
7170
6993
6641
6593
6605
6642
6636
6582
6577
6994
7074
7744
7869
8133
8462
8284
7628
7439
7178
7189
7084
7152
7286
6793
6609
6582
6968
7213
7513
7790
7954
7980
7958
8021
8282
8774
9473
10327
11264
11932
12763
13662
13767
13786
13490
13178
12031
10624
8804
6225
3691
1822
640
455
869
896
1626
2185
3588
4604
6013
6652
7532
7640
7954
7421
7174
6711
6293
6771
7237
7705
8002
7838
7823
7843
8267
8331
8669
8842
9024
8784
8544
8140
8088
8123
8499
8400
8732
8372
8125
7874
7982
7939
7975
7840
8277
8129
8259
7641
7504
7045
7065
7159
7453
7165
7063
6860
6562
6329
6368
6948
7065
7490
7425
7295
7242
7243
7214
6894
6876
7205
7056
7091
7237
6996
6718
6304
6384
6931
7259
7429
7141
7276
7192
6898
6857
6804
6794
6835
6826
6917
6379
6434
6492
6554
7236
7367
7659
7844
7870
7944
7399
7487
7331
7581
7676
7690
7254
6959
7015
7096
7732
7974
8038
7678
7683
7080
7015
6598
6623
6973
6995
6627
6676
6450
6249
5860
5847
6217
6125
6454
6079
5791
5710
5460
5117
5446
5352
5731
5706
5268
5025
4824
4970
4947
4758
5168
5058
5031
4765
4654
4456
4305
4594
4844
5190
5159
4831
4750
4952
4748
5205
5458
5341
5270
5060
4848
4957
4874
4871
4989
5242
5262
5656
5308
5062
4858
4863
5088
5369
5748
5363
5074
4810
4966
4792
5244
5470
5641
5688
5328
5386
5198
4843
4854
5226
5434
5675
5565
5523
5327
5412
5434
5647
5893
6015
5972
5574
5647
5447
5028
5008
5450
5515
5780
5828
5955
5580
5617
5776
6182
6253
6045
6118
6143
6263
5985
5535
5902
6030
6663
6760
6304
6024
5887
6193
6080
6510
6731
7004
7230
7274
6870
6955
6950
6887
7120
7452
7054
6790
6543
6384
6334
6396
6577
6841
7078
7144
7225
6632
6321
6466
6316
6755
6573
6708
6475
6027
6215
6244
6044
6104
6469
6379
6751
6675
6121
5786
5946
6181
6296
6762
6679
6436
6260
6230
6018
6064
6137
6275
6658
6371
6139
5850
5970
5813
6060
6305
6715
6776
6778
6760
6531
6929
7194
7505
7743
7796
7388
7124
7211
7095
7602
8570
9267
9624
10559
11217
12560
13295
14184
14385
13974
13508
12900
11244
9530
7189
4890
3078
1725
1238
1324
1014
1372
1800
2641
3533
4768
5878
6950
7123
7450
7065
7192
7185
7054
7525
7772
7955
7970
7797
7317
7520
7729
7833
8127
8473
8098
7869
7651
7553
7621
8055
8217
8275
8250
8217
8207
8201
8209
8290
8461
8378
8415
8531
8313
7895
7842
7875
8232
8150
8366
8771
8763
8368
8496
8505
8389
8806
8626
8585
8718
8562
8154
8074
8137
8369
8684
8898
8877
8642
8367
8494
8565
8745
8665
9049
8869
8862
8984
8770
8386
8737
9010
9258
9311
8927
9030
8964
8987
9061
8955
9473
9753
9849
9384
9247
8698
8685
8883
9091
9186
9198
9187
9127
9230
9044
8978
8863
9090
9168
9248
8682
8443
8364
8372
8366
8337
8336
8333
8474
7931
7575
7333
7303
7415
7776
7773
7380
7137
6853
6623
6528
6565
6640
6645
6547
6375
6405
5882
5890
5540
5949
6017
6525
6486
6169
5560
5689
5606
6183
6433
6499
6135
6186
5956
5518
5727
5610
5867
6093
6408
6037
5853
5974
5952
5784
6203
6126
6484
6433
6225
5963
5551
5617
6155
6506
6738
6740
6295
6052
6155
5885
6229
6109
6515
6378
6670
6345
6484
6441
6297
6773
6975
6786
6934
6701
6444
6029
6053
6522
6581
6857
7237
7186
7020
6591
6763
6548
6922
7031
6819
6799
7000
6916
6561
6781
6913
7212
7511
7334
7125
7038
6542
6532
6972
7227
7449
7304
7523
7113
7214
7191
7092
7333
7766
7793
7699
7316
7485
7437
7140
7094
7077
7118
7435
7166
7269
6787
6653
6989
7251
7527
7384
7528
7266
6973
6742
6357
6343
6701
6621
7017
6990
6763
6473
6086
6481
6774
6993
6980
6532
6323
6451
6410
6446
6324
6551
7008
7010
6754
6132
6153
6173
6101
6525
6338
6355
6361
6307
6402
6239
6022
6338
7005
7238
7202
6786
6939
6926
6959
6798
7277
7332
7579
7678
7991
8195
8360
8958
9725
10674
11675
12431
12712
12838
12570
12299
11864
11010
9397
7658
5979
3770
2322
933
785
697
1364
1809
2321
2748
3842
4702
5473
5870
6393
6971
7022
6587
6358
6283
6697
6988
7242
7110
7142
7159
7440
7435
7145
7157
7529
7708
7569
7804
7408
7478
7068
7275
7148
7718
7814
8224
7821
7788
7366
7695
7619
7965
7674
7629
7628
7593
7695
7511
7499
7742
7840
8310
8263
8036
7798
7419
7710
7616
7826
8240
8272
8197
7839
8026
7983
7967
8023
7915
8065
8315
7831
7772
7356
7732
8043
8100
8549
8338
8521
8117
8225
8198
8099
8364
8577
8616
8755
8328
8448
8136
8188
8356
8586
9017
9043
8679
8796
8722
8757
8638
8849
9319
9144
9239
8640
8320
8476
8342
8753
8784
8444
8350
8543
8175
8225
8038
8047
8291
8568
8333
8253
7737
7080
7207
7258
7286
7175
6962
6729
6500
6248
5763
5933
5795
6021
6419
6109
6177
5983
5601
5551
5576
5945
5847
6171
5793
5530
5307
5270
5662
5597
5765
6161
6253
6229
5784
5532
5677
5567
5856
6045
6240
5995
5756
5647
5660
5736
5603
5776
6199
6255
6146
5936
5519
5530
5967
6213
6128
6404
6039
6144
5791
5806
6188
6133
6339
6699
6368
6134
5881
5784
6161
6143
6321
6357
6302
6508
6494
6483
6468
6493
6356
6533
6634
6537
6514
6218
5837
6197
6437
6669
6547
6571
6769
6663
6309
6316
6734
6982
6895
6845
6589
6277
6083
6098
6294
6567
6792
6865
7009
6531
6322
6482
6522
6396
6556
6931
6921
6707
6082
6007
5910
5811
6040
6130
6267
5774
5559
5695
5699
5566
6015
6170
6174
6015
5537
5364
5282
5264
5313
5727
5971
6156
5847
5527
5406
5247
5390
5659
5551
5739
5314
5453
5431
5453
5492
5319
5732
5920
5773
5966
5751
5263
5454
5644
6014
6109
6516
6451
6068
6081
6352
6849
7702
8278
8810
9105
9727
10387
10970
11641
11865
11880
11609
10687
9837
8112
6673
4895
2970
1914
1136
838
505
447
471
1086
1694
3184
4436
5103
5546
5597
5757
5516
6014
6123
6683
6579
6627
6644
6625
6529
6661
6389
6560
6825
7229
6870
6592
6351
6318
6772
6817
7073
7457
7446
7071
6890
6957
6594
6654
6869
7121
7497
7165
7245
6874
6887
7241
7103
7474
7316
7333
7443
6892
6610
6541
6996
7061
7529
7513
7083
7170
6866
7184
7269
7086
7436
7314
7411
7350
7111
6854
6796
7267
7367
7632
7675
7806
7401
7330
7365
7731
7629
8059
8198
8226
7854
7625
7406
7353
7803
7922
8512
8326
8092
8010
7612
8061
8182
8441
8411
8191
8247
7887
8042
7605
7423
7399
7562
7992
7989
7788
7542
7140
7109
7120
7126
7131
7107
7222
6654
6513
6229
6198
6115
6279
6506
6258
5918
5364
5428
5081
5067
5108
5415
5392
5238
4981
4735
4637
4489
4736
5223
5023
4856
4570
4343
4281
4623
4495
4587
4897
4913
4605
4704
4239
4374
4455
4705
4944
4989
4533
4477
3999
4005
4467
4480
4946
4811
5131
5149
4845
4750
4956
4793
5020
5478
5491
5042
4806
4973
4833
5056
5254
5640
5720
5750
5692
5274
5100
5061
5469
5706
5595
5559
5653
5484
5107
5041
5059
5460
5701
5896
5631
5673
5429
5116
5308
5617
5857
6186
5851
5949
5532
5691
5705
5574
5767
6204
6034
6244
5828
5901
5588
5998
6048
6315
6368
6431
5861
5586
5710
5505
5962
6218
6120
6057
5798
5759
5313
5498
5447
5099
5010
5245
5013
5240
4849
4948
4920
4826
5076
5484
5420
5171
4871
4659
4621
4509
4778
5026
5101
5209
4932
4691
4608
4687
4605
4796
5163
4853
4890
4634
4272
4648
4887
4817
5124
4821
4990
4880
4518
4501
4903
5172
5425
5281
5487
5111
5079
5293
5814
6541
7513
7815
8540
8863
9628
10399
10916
11350
11294
11101
10411
9753
8232
6246
4170
2387
1089
-23
-603
-756
-934
-735
-336
708
1952
3436
4434
4770
5157
4964
4732
4688
4580
4990
4742
4882
4519
4509
4553
4584
4879
4762
5040
5334
5684
5491
5148
4927
4745
5042
5339
5724
5671
5277
5403
5065
5045
5107
5501
5663
5743
5667
5454
5214
4819
4842
5004
5486
5684
5512
5680
5467
5020
4993
5392
5321
5681
5702
5702
5686
5337
5444
5383
5296
5630
5885
5880
5936
5752
5718
5542
5907
5785
6223
6139
6437
6055
5869
5786
6147
6405
6708
6946
7033
6951
6780
6663
6703
6614
6796
6902
6888
7000
6759
6520
6442
6359
6948
7232
7059
7212
6795
6922
6576
6777
6530
6623
7001
7024
6589
6502
6183
5828
6247
6497
6326
6111
5953
5308
5074
5212
4860
4770
4744
4790
4794
4874
4278
3975
4173
4361
4343
4681
4310
4352
4137
3946
3545
3507
3872
3786
3827
3893
3308
3040
2956
3038
3451
3617
3512
3857
3576
3705
3592
3616
3524
3718
3819
3783
3899
3709
3258
3388
3419
3623
3878
3743
3911
3465
3601
3620
3704
3511
3572
3957
4122
4187
3801
3554
3633
3645
3551
3743
4133
4186
4141
3722
3490
3599
3698
3779
4389
4230
3974
3553
3281
3590
3875
4166
4059
4081
4056
4011
4183
3839
4108
4029
4285
4702
4653
4436
4209
4104
4162
4075
4277
4690
4497
4722
4639
4302
4267
4313
4708
4890
4745
4928
4671
4366
4190
3969
4399
4311
4642
4617
4250
4066
4100
3932
3915
3794
4193
4160
3894
3277
3031
2996
3375
3283
3671
3510
3553
3502
3606
3427
3332
3388
3321
3552
3934
3572
3242
3126
2712
3134
3453
3632
3276
3025
3107
3086
3113
3094
3075
3168
3376
3300
3296
3360
3144
3115
3352
3489
3830
4208
4123
3718
3880
3878
3748
4089
4932
5372
6193
6313
7008
7591
8847
10125
10966
11243
11158
10891
10602
9535
7627
5905
3742
2430
967
263
-486
-913
-1095
-179
709
2341
3674
4495
5439
5699
5640
5495
5492
5675
5630
5936
5550
5663
5668
5589
5858
6131
6362
6766
6781
6656
6475
6097
6098
6463
6381
6592
6784
6842
6941
6392
6449
6514
6783
7027
6810
6655
6705
6303
6494
6477
6501
6330
6734
6624
6637
6696
6105
5875
6211
6288
6579
6565
6295
6045
6257
6085
6133
6125
6440
6333
6663
6487
5857
5535
5731
5915
6172
6099
6440
6467
6464
6418
6069
6228
6202
6044
6472
6291
6118
5985
5360
5280
5546
6209
6451
6132
5872
5894
5573
5911
5768
5849
6177
6270
6076
6260
5771
5757
5644
5508
5989
5848
5989
5707
5420
5235
5149
4863
5123
5154
5158
4782
4491
4368
3819
3743
4103
3969
4208
3741
3652
3039
2788
2713
2795
3177
2968
3156
2770
2902
2559
2535
2888
3130
3413
3276
3368
2777
2497
2657
2444
2543
2714
2994
3285
3649
3237
2947
2699
2471
2029
1216
376
-1028
-2096
-3105
-3805
-4574
-5213
-5136
-4728
-4217
-3503
-3359
-2907
-2035
-1265
-782
-312
42
-378
-586
-455
-499
-473
-567
41
231
803
855
492
450
818
695
664
447
175
-62
-314
-415
-1079
-1347
-1333
-1106
-893
-884
-1068
-1000
-983
-667
-348
620
1308
1816
1791
1771
1914
1909
2075
2038
2392
2310
2143
1743
1880
1499
1435
1840
1982
2682
2897
2818
2647
2639
2859
3179
3209
3692
3844
3849
3678
3201
3401
3605
3947
4222
4077
4074
4040
4014
4029
4399
4622
4600
4946
4583
4638
4232
4440
4457
4260
4643
4575
4985
4987
4584
4689
4694
4889
5182
5440
5310
5272
5114
5191
4858
5195
5090
5430
5401
5086
5080
5085
4999
4835
4784
5005
5670
5964
5903
5306
4992
5213
5439
5724
5939
5835
6233
6090
6106
6021
6195
6248
6503
6933
7155
7790
8022
8251
8753
9462
11051
12372
13011
13271
12943
12208
11216
10269
8807
7018
4968
2926
1003
-72
-617
-813
-459
62
1077
2381
3310
4064
4666
4607
4863
5439
5698
5549
5518
5668
5271
5377
5024
5074
5304
5614
5807
5761
5560
5651
5654
5557
5771
6220
6089
6090
6200
5968
5543
5550
5967
6156
6022
6059
6032
6200
5797
5917
5901
5782
6220
6028
6148
5896
5682
5343
5368
5690
5519
5899
5786
5852
6013
5545
5643
5679
5904
6181
6110
6403
6062
6164
5766
5998
6172
6488
6753
6778
6300
6017
6154
6021
6286
6537
6964
6817
6862
6791
6580
6349
6300
6772
6851
7048
7242
7036
6633
6632
6975
6812
7170
7048
7164
7146
7208
6938
6757
6757
6641
6817
7179
6870
6626
6512
6200
5884
6099
6393
6753
6292
6149
5517
5294
5488
5266
5334
5370
5284
5033
4954
4688
4314
4284
4472
4081
4209
4124
3751
3510
3445
2969
2982
3409
3282
3240
3329
3164
2809
2773
2797
3161
3343
3249
3275
3370
3092
2844
2492
2854
3115
3407
3597
3619
3256
3372
3038
3062
3432
3325
3661
3314
3034
2936
2451
2482
2745
3334
3318
3639
3284
3336
3119
2760
3114
3383
3662
3519
3677
3222
3060
3002
3059
3234
3500
3738
3769
3527
3431
2986
3351
3636
3879
3724
3724
3932
3573
3686
3620
3493
3766
3987
4010
4133
3738
3904
3552
3694
3677
3870
4182
4094
4205
3869
3639
3687
3918
4130
3982
4038
4062
3976
3734
3474
3683
3920
3991
4375
4209
3900
3659
3599
3463
3716
4029
4267
4293
4353
3826
3916
3910
3967
3733
3720
3719
3717
3889
3693
3249
3243
3469
3774
4170
3766
3668
3036
2767
2883
2846
2889
2719
2767
2702
2537
2637
2604
2449
2859
2725
2766
2714
2825
2627
2214
2190
2585
2826
2800
3173
3132
2707
2513
2676
2502
2738
3024
3233
3279
3408
3189
2760
2751
3179
3432
3628
3685
3609
3220
3393
3451
3664
3939
4140
4198
4135
3765
3951
3791
4433
5161
5845
7017
7764
8155
8891
10005
10775
10921
11090
10600
9805
8399
7013
4883
2303
253
-911
-1917
-1976
-2384
-2186
-1988
-1577
-158
984
2215
3000
3323
3617
3289
3444
3357
3353
3238
3488
3719
3798
3960
3540
3690
3474
3928
4214
4453
4252
4360
4138
3760
3809
4219
4375
4472
4231
4397
4215
3760
3927
3772
4017
4280
4703
4725
4614
4427
3985
4148
4213
4423
4688
4869
4867
4692
4473
4401
4326
4933
5232
5031
4832
4554
4659
4719
4940
5206
5422
5283
5273
5392
5185
4768
4750
5149
5111
5283
5339
5292
5476
5437
5451
5252
5337
5698
5530
5530
5642
5391
5191
5221
5277
5989
6086
6418
6247
5999
5564
5738
5710
5714
5519
5600
5572
5350
5039
5150
5068
5680
5925
5909
5720
5257
5066
4828
4568
4675
4707
4546
4522
4333
4095
4175
3787
3893
3505
3473
3516
3707
3385
2889
2247
2183
2639
2858
2909
2527
2587
2406
2000
2145
2098
2125
1942
1995
1979
2130
1701
1794
1501
1665
1970
2235
2291
2391
1927
2086
2146
2307
2237
2666
2532
2539
2664
2207
2337
2398
2627
2888
2785
2765
2865
2659
2250
2239
2673
2731
3037
3423
3067
3095
2901
2855
2699
3135
3057
3414
3379
2958
2759
2912
2711
3135
3337
3250
3591
3284
3353
3127
2780
3170
3442
3675
3495
3685
3293
3381
2963
3159
3035
3314
3544
3545
3598
3381
3062
3405
3254
3290
3280
3282
3278
3202
3029
3107
2798
3169
3380
3308
3636
3589
3219
3366
3067
3381
3284
3473
3571
3496
3268
3006
3099
3105
3006
3246
3477
3843
3504
3272
3050
3024
3244
3572
3784
3748
3504
3454
2971
3159
2980
3405
3588
3698
3661
3453
3142
2902
2911
3181
3265
3670
3249
3145
2816
2664
2436
2835
2788
2996
3331
3185
2873
2615
2613
2858
3133
2982
3162
2778
2702
2927
2902
2912
2773
2987
3432
3220
3372
2954
2808
2693
2875
2910
3094
3058
3369
3177
2885
2505
2930
3017
3591
3520
3579
3539
3659
3214
3356
3205
3566
4078
4576
5223
5291
5948
6356
7369
8609
10006
10422
10402
10012
9022
7959
6609
5285
3529
1417
-637
-2162
-2730
-3047
-3388
-3016
-2497
-1483
-234
805
1385
1641
1892
2028
2433
2924
2705
2922
2895
2840
2449
2562
2579
2841
2967
3214
3445
2981
2793
2776
2952
3243
3550
3768
3804
3904
3655
3231
3262
3459
3952
4113
4153
3827
3947
3561
3535
3939
4213
4224
4609
4323
4455
4058
4202
4154
4221
4414
4641
4496
4660
4441
4027
4057
4260
4526
4763
5165
5179
4795
4585
4710
4546
4844
5418
5295
5459
5003
4837
4774
4804
5164
5077
5278
5691
5725
5340
5097
5146
5138
5384
5736
5913
5747
5107
4810
4793
5230
5399
5469
5266
5346
5340
5376
4778
4598
4767
5411
5686
5647
5386
5138
4761
4951
4594
4498
4500
4586
4573
4286
3780
3587
3208
3662
3920
3722
3541
3277
3066
3170
2762
2880
2834
2891
2926
2528
2189
2068
1848
1861
1772
1955
2312
2037
2149
1905
1644
1245
1565
1533
1771
2132
2066
1669
1825
1824
1911
1791
1943
2328
2380
2307
2106
1870
1504
1886
1953
2277
2632
2179
2097
1859
1865
2088
2396
2674
2862
2914
2557
2614
2187
2415
2279
2439
2521
2474
2587
2408
2006
1958
2028
2185
2619
2488
2510
2662
2200
1993
2173
2040
2288
2473
2446
2205
2135
1895
1856
1769
2312
2574
2432
2641
2256
2393
2333
2351
2194
2597
2441
2644
2178
1940
2077
2116
1974
2328
2379
2379
2041
2113
1886
1515
1900
1995
2640
2850
2527
2271
2023
1925
1973
2317
2368
2391
2407
2406
2355
2030
2308
2255
2863
2969
3435
3421
2968
2705
2533
2822
2797
3337
3211
3336
2781
2529
2482
2886
3090
2963
2984
3174
2782
2838
2602
2398
2041
2319
2183
2600
2447
2645
2406
2136
2059
2011
2619
2847
2533
2260
1960
1777
1750
2106
2038
2248
2647
2658
2279
2336
2167
2132
2012
2243
2659
2595
2308
1693
1453
1450
1668
1988
2256
2620
2567
2199
2383
2382
2192
2575
2501
2938
2786
3078
3179
3251
4098
4606
5701
6304
7114
7987
8269
8208
7664
7511
6953
5844
4556
3077
1047
-979
-2890
-3911
-4022
-4198
-3931
-3614
-3199
-2575
-1457
-458
224
926
1604
1811
1896
1897
1811
1436
1420
1856
2162
2399
2176
2310
1920
2124
2167
2039
2260
2540
2748
2744
2523
2253
2388
2235
2486
2738
3132
3087
2861
2569
2411
2258
2544
2783
2810
2927
2553
2555
2873
2910
2691
3075
3032
3439
3374
3100
2530
2620
2682
2917
3188
3344
3052
3128
2688
2892
2744
2946
3419
3614
3489
3474
3283
3011
3109
3185
3410
3320
3303
3416
3024
2947
3158
3148
2997
3256
3539
3894
3471
3437
3002
3040
3220
3652
3498
3529
3488
3613
3396
3174
2815
3144
3337
3256
3283
3379
3108
2878
2821
2690
3143
3018
3001
3096
2846
2583
2385
2327
2423
2580
2637
2222
2135
1516
1561
1565
1442
1812
1814
1435
1225
967
712
802
793
663
1057
1058
646
429
517
181
179
254
414
848
646
476
143
113
64
260
541
492
818
781
428
556
203
229
421
704
1148
1090
811
239
341
155
612
842
695
739
673
770
605
574
499
1068
1334
1156
1304
1110
671
814
811
683
902
1347
1378
974
751
852
842
692
1088
937
954
1109
895
386
211
212
397
668
1131
899
734
494
597
621
768
658
721
704
885
498
583
208
536
834
967
1228
1240
1317
1107
744
1044
955
1163
1551
1253
1307
1079
726
1061
983
1158
1556
1420
1482
1431
1268
1376
1393
1585
1804
1870
1482
1266
1347
980
911
911
1301
1547
1476
1409
1338
711
815
695
949
1355
1320
921
1025
894
768
423
452
890
1129
986
1120
836
586
524
634
787
885
644
828
396
148
-23
313
399
1050
970
1093
803
575
513
584
447
807
860
853
802
464
609
253
521
484
1109
1388
1374
1136
701
1041
1349
1473
2148
2681
3045
3847
3992
4707
5252
6383
7693
8223
7861
7330
6557
5738
4222
2318
327
-1429
-2811
-4113
-4875
-5064
-5106
-4943
-3815
-2849
-1259
-380
563
784
772
812
750
995
1406
1171
1374
1317
1019
997
1287
1158
1622
1842
1721
1696
1505
1251
1387
1557
1707
2349
2210
2021
1718
1525
1519
1889
1765
2138
1989
2321
2306
1925
1750
1908
1746
2011
2290
2659
2295
2327
2151
2119
1966
2396
2590
2489
2526
2657
2417
1938
2121
1978
2215
2457
2838
2539
2632
2219
2206
2630
2883
3083
3150
3088
2694
2548
2469
2530
2750
3049
3268
3276
3334
2802
2867
2843
2703
3140
3069
3222
3301
3272
3396
3002
3003
3438
3685
3550
3702
3210
3035
3029
3398
3265
3606
3679
3487
3474
3295
2962
2882
2458
2516
2698
2814
2695
2577
2087
1433
1275
1602
1497
1822
1483
1538
1311
1138
1071
1104
934
993
954
1056
815
545
335
286
182
456
649
836
513
-118
-328
-313
72
-56
302
137
180
377
-21
-113
-39
181
406
508
457
561
371
-54
-126
-44
156
604
396
516
261
12
-353
23
333
405
818
477
515
357
371
518
429
794
828
808
485
638
535
242
573
494
697
1072
1030
858
411
571
615
508
690
1084
1118
1027
842
410
626
785
1086
1370
1218
1358
1129
695
694
1119
1351
1276
1614
1575
1163
935
742
713
1145
1177
1422
1516
1445
1274
1353
1296
1180
1474
1752
2092
1684
1428
1232
1166
1221
1621
1802
1683
1696
1840
1446
1652
1470
1891
2115
2369
2581
2645
2263
2014
2054
1737
2085
1975
2037
2163
1854
1258
1343
1189
1466
1719
2061
1721
1800
1586
1367
946
897
963
1327
1381
1354
1288
973
941
951
1283
1165
1541
1270
1314
719
421
572
441
736
1329
1556
1551
1308
722
800
655
951
1181
1169
970
1028
699
735
1076
933
1325
1182
1209
1402
1328
1313
1351
1173
1594
1889
1958
2371
2317
2009
2241
3084
3848
4634
5467
6416
7110
8041
8260
7869
7601
7539
7004
5965
4000
1749
-634
-2627
-3883
-4447
-4653
-4524
-4572
-4325
-3904
-2898
-1534
-774
301
881
925
956
1060
850
450
447
852
1095
1304
1378
1307
914
1092
1150
1340
1580
1487
1494
1619
1173
1013
950
1019
1211
1444
1835
1519
1564
1356
1317
1219
1472
1671
1727
1890
1456
1269
1152
1160
1566
1814
2058
1927
2141
1720
1797
1452
1510
1703
1942
2357
2340
2166
1722
1688
2118
2406
2663
2555
2854
2833
2521
2457
2687
2497
2934
3194
3437
3285
3446
2973
3076
3137
3381
3633
3491
3463
3649
3612
3603
3608
3664
3560
3783
4198
4150
3885
3307
3409
3278
3580
4102
4196
4142
3786
3925
3505
3316
3221
3304
3481
3540
3606
2992
2930
2556
2898
3074
3198
3166
2688
2586
1952
1680
1836
1876
1700
1707
1838
1596
1312
1087
742
1060
951
1315
1022
1079
801
549
379
308
349
517
481
849
478
205
-1
278
224
423
493
457
632
513
344
-44
270
570
687
1119
725
422
206
187
525
584
623
487
692
1068
684
625
149
247
862
951
1307
906
690
822
841
706
1114
976
1281
996
901
761
868
802
667
995
1628
1809
1409
1326
1072
1070
991
1152
1200
1180
1177
1183
1384
1014
961
1335
1574
1486
1427
1175
922
1078
1126
972
1344
1267
1503
1904
1531
1166
1074
1044
1380
1839
2090
1753
1479
1235
1394
1174
1546
1461
1919
2062
1763
1509
1195
1295
1161
1474
1756
2094
1713
1504
1600
1546
1594
1452
1847
1696
1697
1817
1600
1167
1387
1238
1657
1529
1822
1478
1257
955
703
886
747
915
978
916
1093
1083
1103
1081
1042
1090
1280
1228
1247
1018
694
784
662
1284
1440
1718
1766
1852
1567
1334
1310
1246
1499
1861
1479
1214
990
918
999
1181
1415
1914
2090
2111
1718
1807
1523
1708
2010
2263
2645
2679
2448
2512
2916
2965
3459
4074
4937
5490
5836
6614
7776
8331
8843
9279
8939
8823
8019
6662
4558
2450
624
-1214
-2909
-3852
-4040
-4089
-4135
-3473
-2811
-2073
-827
400
1541
1671
1904
1435
1221
1362
1398
1595
1867
1784
1737
1816
1474
1864
2129
2364
2264
2630
2672
2293
1998
1717
1672
2143
2425
2572
2294
2194
2340
1978
1930
2028
2562
2912
3146
3134
2887
2282
2029
2038
2568
2914
3077
2698
2432
2258
2290
2480
2734
2997
3202
3246
3069
2773
2833
2866
2812
3027
3428
3259
3312
3305
3223
3398
3429
3608
3863
3795
3802
3880
3624
3205
3263
3506
3763
4142
4128
3828
3830
3832
3770
3951
3741
3972
4258
4621
4437
3836
3840
3858
4098
4363
4230
4430
4019
4120
3766
3733
3756
3814
4129
4150
3835
3910
3607
3018
2800
2800
2961
3341
3004
2732
2682
2213
2351
1995
2143
2065
1751
1881
1612
1006
729
893
707
1088
909
1150
752
483
162
-37
275
542
816
889
473
225
324
343
253
482
696
1084
1098
737
823
423
408
822
1087
1315
1380
1286
1148
1081
1112
947
1329
1229
1611
1581
1340
765
865
753
1340
1631
1498
1501
1475
1426
1573
1193
1181
1610
1866
1748
1903
1633
1388
1333
1238
1507
1740
2106
2087
1733
1870
1518
1489
1826
1748
1945
2036
1944
1715
1485
1643
1460
1888
1783
2082
1745
1839
1659
1270
1257
1645
1869
2065
2124
1754
1535
1572
1183
1187
1586
1802
1697
1671
1493
1575
1569
1501
1756
1937
1993
1938
2055
1861
1421
1614
1476
1719
1952
2309
1997
2111
1728
1704
2056
1972
2402
2240
2220
2355
1925
1761
1683
1739
2160
2344
2415
2032
1745
1454
1592
1451
1699
2162
1967
2136
1708
1504
1576
1246
1616
1877
2097
2087
1850
1580
1221
1568
1480
1881
1744
2101
2107
1683
1654
1200
1256
1525
2051
2146
2053
1883
1484
1415
1444
1818
1712
2058
1784
1687
1829
1475
1413
1449
1912
2010
2598
2446
2560
2359
2045
2427
2657
2701
3357
3576
3995
4302
4928
5655
6572
7910
8943
9362
9164
8787
7627
6783
5481
3929
2103
119
-1734
-3403
-3987
-4334
-4300
-4144
-3067
-1947
-1053
106
428
1028
1280
1267
1509
1711
2052
1717
1535
1416
1485
1717
1975
2416
2269
2568
2248
2304
1777
1855
1890
2126
2196
2493
2931
2708
2881
2530
2556
2734
2961
3352
3070
3172
2705
2506
2682
2823
3177
3307
3477
3594
3051
3112
3124
3018
3444
3593
3472
3543
3477
3280
3365
3401
3656
3943
3791
3921
3705
3311
3298
3605
3661
3478
3864
3776
4140
4105
3941
3513
3481
3908
4206
4450
4236
4068
3838
3715
3769
4199
4408
4608
4508
4550
4672
4402
4179
4192
4447
4482
4575
4678
4441
4033
3996
3995
3987
4015
4368
4440
4072
3745
3629
3448
3275
3483
3863
3550
3606
3343
2794
2500
2280
2210
2272
2588
2231
1944
1851
1617
1589
1451
1831
1861
1531
1658
1262
1360
927
1050
1057
965
1156
1181
962
872
634
405
887
1121
961
924
1098
1024
676
809
472
806
1053
1312
1382
941
894
446
494
727
978
1381
1404
1343
983
1124
1076
908
1378
1605
1462
1435
1590
1215
1338
964
972
1181
1478
1845
1608
918
875
643
1145
1384
1256
1562
1552
1192
1021
928
1303
1572
1526
1521
1602
1154
1289
970
949
1006
1174
1644
1501
1662
1399
1132
1026
1130
1354
1543
1591
1239
1340
963
942
1020
1405
1262
1575
1556
1208
1309
1145
1100
1306
1498
1986
2233
2377
2063
1832
1846
1767
2153
2126
1748
1913
1908
1690
1717
1751
2106
2040
2263
2658
2622
2415
2130
1917
1902
2103
2391
2582
2561
2366
2136
1734
1711
1781
2153
2003
2027
1927
1732
1529
1663
1414
1798
1732
2113
1784
1495
1396
945
1022
1540
1799
1674
1665
1822
1442
1611
1624
1499
1676
1785
1747
1829
1596
1384
1008
1023
1166
1638
1829
1900
1819
1659
1571
1661
1905
2160
2037
2027
1942
2099
1755
1692
1684
2049
2331
2516
3006
3662
3939
4016
4968
6163
7355
8795
9295
9081
8182
7398
6548
5505
4371
2606
605
-1614
-2979
-4040
-4497
-4708
-4050
-3644
-2512
-1501
-503
307
841
923
1237
1864
1936
2043
2138
1866
1450
1499
1692
1922
2392
2294
2574
2186
1996
2165
1993
2176
2595
2437
2485
2477
2642
2238
2408
2237
2478
2741
3151
3146
2758
2825
2670
2645
2535
2782
2963
2947
2767
2832
2506
2840
2750
2951
3402
3263
3235
3063
3114
2776
3138
3362
3325
3693
3641
3421
3112
2875
2861
3075
3363
3294
3586
3285
3242
3227
3256
3613
3520
3929
3723
3907
3509
3616
3236
3423
3202
3627
3850
3716
3894
3663
3438
3374
3286
3888
3999
4457
4393
4131
3861
3492
3556
3950
3782
3760
3885
3691
3265
3208
3293
3705
3570
3866
3577
3710
3438
2779
2682
2595
2543
2814
3123
2865
2195
2122
1757
2086
1952
1992
2149
1685
1463
1562
1222
1170
1376
1347
1369
1156
1384
971
732
810
839
1091
1171
1641
1613
1404
925
1071
1088
912
998
1332
1399
1170
1397
1347
1331
1394
1266
1661
1480
1417
1201
898
645
822
696
968
1253
1428
1414
1224
981
1105
933
1187
1437
1514
1633
1393
967
974
1386
1592
1511
1873
1882
1498
1221
896
724
1098
1169
1461
1505
1565
1321
953
1017
1188
1645
1824
1674
1901
1480
1274
1163
1219
1650
1835
1691
1698
1852
1413
1228
1164
1559
1836
2068
2106
1708
1806
1512
1839
1667
1711
1753
2096
1936
1946
2093
1700
1919
1790
2043
2583
2531
2816
2632
2044
1745
1916
2067
2035
2386
2028
2084
1919
1847
1867
1734
1979
2270
2660
2210
1748
1550
1365
1212
1651
1466
1657
1543
1181
1328
982
994
1156
1632
1500
1453
1547
1381
1012
961
992
1376
1555
1408
1614
1178
994
921
994
1162
1592
1421
1613
1166
952
1077
1076
922
1325
1203
1278
1274
1236
1237
1555
1640
1465
1837
1789
2043
2219
2270
2609
2731
3534
4886
5998
6916
7320
7984
7873
7992
7347
7032
6257
4856
3436
1304
-1139
-2855
-3554
-4129
-4145
-3808
-3852
-3393
-2679
-1826
-677
-51
726
1253
1436
1630
1551
1604
1502
1910
1783
1941
2397
2561
2600
2257
2392
2356
2203
2654
2852
2723
2749
2696
2868
2555
2835
2708
3158
3036
2973
2705
2639
2232
2606
2880
3113
3190
3131
2748
2840
2667
2573
2654
2902
3161
3002
3153
2713
2836
2544
2833
2929
3100
3045
3406
3067
3107
2935
2697
3153
3401
3311
3591
3221
3018
3079
2753
3111
3335
3304
3678
3656
3266
3357
2995
3010
3410
3622
3558
3907
3854
3673
3200
3337
3404
3609
3544
3855
3521
3662
3589
3325
3643
3526
3732
4176
4204
3737
3610
2999
3119
2986
3229
3644
3595
3359
2798
2533
2608
2263
2254
2296
2561
2185
1922
1876
1429
1409
1492
1804
1512
1645
1193
918
831
522
139
232
416
474
565
270
25
-315
1
-104
348
538
622
512
-18
-290
-366
51
306
198
145
-39
50
-266
15
66
-125
-10
150
246
163
-79
-303
-323
-122
149
574
583
216
303
-119
55
-111
145
427
818
478
521
330
261
322
209
633
509
813
769
432
634
391
458
805
645
709
684
795
580
175
213
435
716
908
941
1100
693
820
792
663
918
1178
1548
1203
1002
1078
753
1075
996
1225
1652
1640
1165
1133
727
1084
1330
1274
1575
1240
1394
1315
988
938
977
1166
1457
1677
1917
1648
1285
1047
1041
946
1376
1174
1327
1124
658
511
457
486
821
655
700
893
447
200
316
158
446
708
737
776
220
262
-97
103
75
-118
315
253
577
223
320
-18
278
131
233
525
200
256
-286
-256
-517
-264
376
424
485
566
302
109
65
-102
331
571
819
701
894
438
571
461
1125
1611
1730
1936
2318
2296
2815
3962
4861
6237
6989
7213
6983
6456
5720
4487
3450
1822
-309
-1956
-3863
-4798
-5756
-5825
-5862
-5559
-4806
-3923
-2454
-1793
-1319
-1124
-667
-583
45
277
308
-40
117
48
-261
17
-36
612
736
1082
791
334
54
126
189
497
876
812
397
238
372
308
327
180
610
771
823
473
546
146
154
582
834
1046
1126
1024
506
200
284
360
610
817
801
583
348
-2
299
137
226
579
438
784
798
472
625
578
399
876
908
1359
1338
1139
685
671
1105
1332
1221
1262
1250
1216
1405
1318
1294
1404
1624
1846
1714
1726
1685
1900
1875
1876
1915
1737
2053
1743
1535
1255
1319
1335
1540
1797
1701
1689
1511
1225
912
674
839
649
1035
1078
664
594
261
98
-106
288
330
-66
-342
-393
-679
-940
-1393
-1190
-1328
-1148
-1106
-1313
-1426
-1767
-1940
-1946
-2102
-1687
-1530
-1498
-1694
-2309
-2587
-2566
-2044
-2064
-2068
-2005
-2204
-2588
-2457
-2843
-2842
-2592
-1967
-1785
-1949
-2285
-2483
-2682
-2256
-2393
-2327
-1970
-2114
-2122
-2309
-2292
-2638
-2260
-2043
-2157
-2157
-1999
-2371
-2196
-2214
-2399
-1993
-2068
-1679
-1917
-1755
-2159
-2008
-1992
-2111
-1920
-1511
-1467
-1817
-1770
-2015
-2422
-2377
-2153
-1890
-1497
-1804
-1718
-2153
-2016
-2310
-2000
-2113
-1682
-1844
-1903
-2078
-1979
-1987
-2091
-1882
-1471
-1440
-1799
-1752
-1990
-2377
-2024
-1709
-1598
-1382
-1392
-1550
-1476
-1864
-1669
-1890
-1485
-1557
-1230
-1604
-1806
-1897
-1531
-1572
-1157
-1371
-1158
-1265
-1456
-1717
-1942
-2021
-1943
-2053
-1682
-1893
-1667
-1780
-1960
-2374
-2397
-2009
-2085
-1760
-2150
-2189
-2523
-2757
-2791
-2881
-2625
-2192
-2203
-2634
-2849
-2733
-2753
-2925
-2529
-2651
-2614
-2477
-2709
-3174
-2966
-3083
-2855
-2670
-2606
-2656
-2516
-2904
-2759
-2811
-2760
-2833
-2570
-2355
-2313
-2199
-2655
-2474
-2593
-2047
-1766
-1894
-1698
-2120
-1991
-1973
-2059
-1793
-1198
-1025
-542
-126
148
420
988
2010
3280
4611
5184
5007
4760
4260
3458
2584
942
-636
-2419
-4386
-6058
-7578
-8418
-8824
-8461
-7759
-6574
-5534
-4546
-3736
-3361
-2837
-2389
-2082
-1725
-2067
-1999
-2204
-2636
-2469
-2669
-2201
-2164
-1665
-1830
-1901
-1791
-2173
-1953
-2121
-1683
-1496
-1410
-1480
-1917
-2099
-1935
-2162
-1782
-1870
-1470
-1658
-1426
-1509
-1853
-1894
-1856
-1480
-1580
-1227
-1270
-1469
-1730
-2159
-2135
-1920
-1629
-1165
-1406
-1568
-1518
-1874
-1805
-1635
-1222
-1380
-1332
-1325
-1390
-1263
-1612
-1277
-1012
-708
-804
-848
-765
-955
-1342
-1358
-963
-693
-443
-632
-781
-750
-1117
-1028
-775
-211
29
94
-315
-600
-831
-867
-468
-534
-142
-318
-282
-317
-196
-610
-385
-225
2
101
-280
-564
-855
-1057
-907
-945
-935
-1149
-1113
-1146
-1312
-1611
-1692
-2175
-1945
-2095
-1787
-1950
-2597
-3075
-3450
-3593
-3255
-3340
-2996
-3347
-3591
-3858
-3790
-4142
-4185
-4184
-4122
-3776
-3759
-4153
-4399
-4345
-4615
-4435
-4180
-3745
-3726
-4119
-4076
-4248
-4301
-4229
-4083
-4186
-3830
-3826
-4191
-4373
-4260
-4239
-4016
-3938
-3658
-3311
-3675
-3865
-3728
-3942
-3515
-3319
-3436
-3382
-3421
-3281
-3682
-3496
-3670
-3210
-2989
-3100
-2796
-3084
-3199
-3381
-3263
-3205
-3176
-2829
-2651
-2491
-2760
-3004
-3067
-3157
-2841
-2300
-2233
-2687
-2739
-3182
-3150
-2741
-2870
-2535
-2436
-2568
-2258
-2607
-2524
-2872
-2558
-2666
-2279
-2209
-2194
-2245
-2637
-2536
-2822
-2627
-2031
-1785
-2073
-2354
-2674
-2840
-2549
-2643
-2192
-2017
-2154
-2138
-1973
-2357
-2415
-2357
-1979
-2132
-2090
-2108
-1922
-2033
-2389
-2394
-2002
-1771
-1816
-1468
-1532
-1732
-1985
-2412
-2383
-2171
-1692
-1896
-1791
-2015
-2422
-2215
-2185
-2323
-2099
-1860
-1804
-1780
-2424
-2456
-2492
-2605
-2206
-2421
-2216
-2572
-2435
-2528
-2521
-2643
-2198
-2315
-2011
-2028
-2342
-2200
-2629
-2520
-2508
-2567
-2313
-1929
-1998
-2429
-2583
-2634
-2301
-2352
-2061
-1825
-1846
-2175
-2593
-2521
-2620
-2324
-2156
-2163
-2176
-2064
-1903
-1831
-1833
-1496
-1251
-953
-1041
-1077
-971
-1326
-971
-857
5
472
1184
2120
2848
3674
4244
5130
5427
5389
4809
4439
3398
1836
-212
-2475
-4512
-6218
-7015
-7141
-7414
-7645
-7599
-7276
-6178
-4607
-3692
-2859
-2363
-2119
-2065
-2131
-1940
-2130
-1913
-1656
-1261
-1562
-1469
-1879
-1678
-1854
-1657
-1407
-957
-917
-1024
-1158
-1190
-1351
-939
-1036
-881
-503
-511
-709
-1015
-1218
-1159
-1133
-801
-579
-530
-616
-494
-822
-487
-253
31
-32
267
-46
-123
72
43
87
-7
244
451
485
605
178
369
195
604
487
835
866
820
428
519
205
611
680
1021
1212
1211
1359
1012
1012
1358
1245
1655
1499
1473
1544
1018
1071
1067
1016
1563
1525
1838
1485
1584
1222
1237
1617
1510
1852
1847
1525
1426
1277
1341
945
987
1226
1491
1810
1588
970
695
864
649
698
699
659
811
581
-39
-157
-609
-558
-141
-356
-558
-657
-991
-1198
-1543
-1563
-1275
-1195
-1387
-1186
-1652
-1674
-2122
-2131
-1736
-1821
-1468
-1495
-1876
-1775
-2134
-2115
-1698
-1449
-1206
-1329
-1370
-1567
-1801
-1916
-1834
-1614
-1405
-1325
-1372
-1220
-1575
-1627
-1584
-1395
-1088
-803
-446
-839
-1108
-1323
-1352
-932
-667
-430
-597
-449
-689
-915
-984
-1128
-669
-495
-428
-482
-878
-1026
-1097
-1041
-869
-399
-222
-130
-157
-566
-791
-714
-717
-782
-513
-349
-137
-606
-860
-761
-738
-796
-518
-316
-311
-241
-473
-835
-502
-590
-212
-198
-516
-604
-445
-826
-690
-732
-643
-456
-542
-256
-635
-809
-648
-858
-459
-573
-226
-175
-146
-162
-518
-390
-394
-176
-86
150
374
-109
-327
-134
-307
96
276
231
417
488
424
576
557
395
781
856
834
453
212
-103
-341
-348
-100
247
478
484
586
145
258
-72
-67
279
159
233
163
-20
72
42
-110
298
172
515
531
168
-72
-323
-144
32
353
628
475
421
536
365
-26
-46
332
254
599
513
295
76
-278
50
275
580
823
862
409
364
-84
-32
217
488
895
663
650
658
663
665
1037
1162
2060
2500
3037
3704
3969
4767
6002
6632
7459
7376
7132
6705
5334
4125
2179
626
-1179
-2808
-4354
-5007
-5607
-6183
-5869
-5314
-4314
-3348
-2171
-955
-560
14
70
47
-120
379
398
815
833
770
438
405
470
657
903
1320
1281
1076
860
783
887
1114
1364
1554
1649
1651
1592
1250
1176
1160
1243
1430
1892
1713
1823
1270
1016
974
1406
1657
1828
1853
1517
1421
1637
1435
1833
1760
2171
1993
1983
2151
1751
1859
1534
1866
2075
2309
2427
2364
2171
1722
1912
1778
2314
2622
2540
2487
2256
2019
1938
2310
2290
2538
2709
2749
2894
2687
2259
2250
2678
2917
3075
3092
2743
2854
2436
2580
2614
2827
3111
2994
3123
2829
2610
2632
2837
2775
3094
2813
2800
2786
2914
2622
2038
2144
2001
2239
2616
2235
1934
1883
1433
1630
1660
1455
1457
1598
1345
761
492
419
832
1114
1320
1298
1064
770
574
254
246
244
526
602
400
592
166
277
295
223
437
807
781
637
163
-54
100
-49
248
853
1065
1049
861
639
521
561
456
866
671
877
771
435
421
471
832
730
901
999
935
716
464
586
636
832
1098
1354
1256
1247
1318
1064
666
743
968
1162
1186
1304
1115
727
700
767
1149
1017
1317
971
1025
816
474
835
1089
1366
1537
1544
1166
992
1089
739
741
1101
992
1331
1014
1087
657
868
721
910
1328
1160
1186
1170
1370
1022
950
979
1398
1618
1483
1658
1176
982
971
1397
1619
1529
1891
1706
1703
1797
1239
975
967
1258
1910
2148
2128
1704
1817
1802
1682
1925
2177
2286
2384
1745
1602
1164
1279
1824
2092
1961
2175
1747
1512
1565
1227
1267
1594
1594
1241
1347
936
1047
692
704
1128
1378
1547
1245
1004
728
840
868
743
1149
1015
1340
1332
965
1049
674
714
911
1386
1210
1349
1122
671
870
714
915
1371
1220
1194
1323
907
767
684
721
946
1593
1712
2098
1696
1485
1463
1695
2038
2624
2695
3068
3706
3802
4232
5213
6049
7501
8126
8445
8514
8002
7256
6248
4962
3200
1828
-103
-1472
-3134
-4122
-4311
-4480
-3726
-2961
-2041
-1320
-132
402
969
1572
1510
1901
1787
1922
1975
2144
1698
1801
1840
2117
2257
2829
2928
2826
2641
2228
2426
2240
2435
2688
3105
2784
2501
2185
2318
2213
2504
2719
2749
2911
2823
2539
2538
2547
2886
3095
3351
3204
3036
2933
2632
2597
2558
3092
2980
3197
2809
2700
2913
2913
2925
2693
2764
3161
3064
3397
3064
3134
2728
2761
2993
3283
3701
3643
3407
3125
2694
2743
3022
3651
3897
3873
3653
3202
3450
3608
3543
3936
3779
4112
4110
3716
3513
3666
3508
3736
4174
4196
3833
3966
3880
3568
3524
3521
3867
3796
4208
4173
3899
3260
3003
3025
3255
3460
3705
3213
3145
2870
2685
2585
2582
2666
2479
2612
1964
1456
1355
1305
1206
1604
1602
1224
1300
1081
833
386
603
456
850
647
856
498
630
512
205
552
499
653
846
569
262
112
-103
293
186
602
791
702
736
845
616
233
554
454
500
592
322
-102
-57
140
619
821
1028
966
1299
909
860
571
227
637
657
1142
964
908
1076
1059
1142
1282
1169
1537
1585
1259
1308
1057
688
1100
1193
1513
1899
1857
1496
1643
1270
1193
1255
1481
1730
2050
1866
1575
1368
1333
1185
1626
1824
1681
1884
1445
1536
1252
1613
1499
1885
1746
2058
1710
1473
1275
1570
1832
2096
1922
2107
1769
1715
1862
1423
1559
1648
1682
1983
2351
1964
1693
1470
1458
1675
1962
2354
2003
2052
1914
1903
1707
2055
1959
2199
2641
2598
2047
1669
1414
1608
1417
1510
1833
1847
1533
1422
1586
1589
1430
1794
1826
1499
1597
1371
1108
641
843
739
1021
1266
1589
1214
1006
1092
1043
1133
1315
1234
1549
1176
927
682
848
716
981
1224
1540
1374
1102
656
647
1032
937
1344
1227
1564
1241
1011
1034
747
955
1231
1653
1449
1484
1503
1408
1226
1186
1482
1995
2653
2530
2850
3131
3664
4018
4892
5670
6719
7567
8563
8721
8190
8021
7540
6590
5737
4119
2060
-212
-2579
-4137
-4970
-5206
-4833
-4731
-4097
-3194
-1936
-1285
-522
161
763
1167
1266
1374
897
737
667
675
1027
954
1172
1575
1564
1403
949
1125
967
1183
1641
1472
1435
1584
1214
1399
1154
1277
1472
1895
1669
1526
1550
1392
1183
1443
1787
2024
2039
2133
1689
1848
1858
1677
1790
1945
2363
2184
2371
1953
2101
2174
2180
2527
2806
3140
2729
2451
2248
2274
2514
2804
2981
2984
3115
2943
2530
2456
2516
2717
2992
3216
3288
3201
3052
2978
3059
3265
3486
3878
3903
3867
3553
3465
3615
3311
3668
3901
4104
4098
3879
3622
3265
3619
3550
3966
3807
3839
3760
3529
3206
2963
3189
3337
3217
3436
2946
2868
2291
2309
1934
1927
1978
1978
2087
1794
1201
953
1135
964
1358
1407
1021
726
631
332
-116
50
49
123
-48
-58
36
-212
-398
-388
-187
78
-3
-10
80
-139
-543
-548
-181
-302
51
108
-117
126
28
-383
-205
-332
-16
554
395
232
-31
71
118
287
179
229
204
154
349
262
-81
-80
342
639
651
723
826
573
135
375
521
499
717
1070
734
792
625
625
778
700
1046
1031
697
840
427
255
167
516
794
1138
1358
1313
757
385
190
557
862
1088
1032
464
131
-17
317
525
493
681
1066
1096
745
818
386
573
392
826
758
1106
1033
817
582
227
594
835
1043
1097
757
644
834
809
807
857
1026
1302
1542
1573
1364
1090
732
1135
1407
1592
1553
1318
1031
830
784
883
1071
1288
1217
1559
1225
981
693
803
642
1138
1314
1018
1057
812
411
408
783
714
1143
955
1143
736
847
787
847
1028
1281
1232
1258
1323
1047
878
642
754
1083
1118
952
1372
1213
1341
1036
820
663
1009
1536
1211
1122
822
838
903
1563
1857
1770
2160
2027
2309
1945
2088
1941
2605
3166
3694
4170
4481
5484
6045
6992
7450
7411
7347
6882
6193
4566
3144
1003
-698
-2454
-3938
-4303
-4578
-4825
-5049
-5169
-4382
-2790
-1599
-218
167
411
437
406
424
786
666
739
695
831
463
411
436
819
1061
1385
1413
1490
1571
1297
916
1326
1646
1909
1742
1711
1919
1876
1803
1450
1663
1475
1870
1724
1719
1842
1638
1227
1256
1497
2069
2009
1999
2122
1745
1664
1843
1528
1836
1784
2015
2350
1977
2055
1721
1791
1947
2386
2579
2466
2446
2209
2148
1759
1957
2625
2716
2806
2932
2490
2615
2287
2280
2643
2862
2809
3083
2892
2653
2301
2656
2861
3078
3010
3378
3059
2782
2684
2250
2632
2931
3156
3165
2756
2834
2437
2596
2574
2654
2527
2823
2664
2327
1691
1661
1278
1557
1661
1494
1459
1259
963
683
493
395
604
562
224
311
48
-247
-474
-811
-489
-595
-193
-148
-523
-790
-1101
-1300
-1286
-1094
-860
-476
-769
-656
-1038
-1041
-643
-444
-546
-211
-184
-200
-553
-482
-649
-882
-613
28
300
325
-109
-346
-243
-228
-300
-45
366
295
55
-162
-201
-334
84
-13
183
398
487
581
-1
25
79
349
597
386
519
378
328
370
196
551
429
866
754
728
468
339
66
84
350
637
480
618
164
298
325
222
433
881
722
672
480
236
308
258
333
209
588
409
411
585
188
324
323
216
436
843
830
426
515
187
522
461
694
1136
944
1118
678
465
566
539
416
682
964
1350
989
737
817
891
919
1189
1241
1311
1031
803
406
589
619
803
1094
1303
1001
728
448
608
422
500
485
420
629
573
175
-34
100
-62
219
507
878
768
517
279
-72
272
217
406
479
406
225
267
115
112
270
236
618
560
378
-45
-119
125
123
-118
-35
371
221
168
-38
32
69
373
786
1063
1058
842
593
182
161
561
664
1223
2065
2206
2668
2717
3705
4880
5875
7014
7071
6892
6374
5576
4486
3380
1805
81
-1699
-3626
-4981
-5615
-6020
-6244
-5552
-4737
-3895
-2449
-1639
-852
-133
70
-106
258
219
469
837
469
236
351
210
822
995
1552
1607
1171
1130
872
503
802
668
1043
1114
1135
1127
1097
1055
1058
919
1165
1451
1858
1514
1265
1324
1350
1571
1804
1908
1889
1840
1795
1451
1560
1199
1257
1469
1670
1688
1510
1271
1367
1341
1178
1618
1863
2072
2117
1694
1426
1260
1565
1503
1689
1774
1779
1748
1686
1874
1892
2092
2182
2478
2530
2590
2320
2158
2145
1950
2032
2410
2583
2467
2457
2270
2038
1958
2379
2673
2878
2856
2662
2196
2325
2009
1970
1962
2031
2395
2413
1988
1698
1469
1444
1862
2065
2164
2090
1855
1269
934
687
832
828
833
477
211
82
-540
-480
-443
-239
-259
-118
112
-323
-580
-784
-823
-444
-561
-576
-790
-1067
-980
-1001
-963
-945
-907
-764
-805
-449
-850
-906
-1154
-1163
-963
-707
-769
-413
-427
-826
-1052
-950
-1138
-862
-573
-228
-392
-676
-901
-972
-897
-720
-502
-578
-527
-399
-653
-1143
-941
-1026
-480
-513
-231
-639
-833
-678
-643
-784
-396
-538
-226
-544
-496
-1027
-944
-1150
-676
-459
-619
-614
-597
-558
-596
-485
-847
-475
-150
123
86
-222
-508
-786
-563
-297
-116
260
362
132
-5
7
-140
-308
-60
128
374
-50
18
-333
-297
-126
163
488
707
711
774
513
337
315
170
610
787
890
879
781
437
471
648
1145
1317
1320
906
677
475
602
568
393
835
1046
1140
763
480
213
381
234
424
801
509
562
256
-262
-335
65
303
190
151
265
-99
121
84
-280
-151
-170
-276
-53
298
-102
-368
-515
-138
-93
150
180
301
-111
25
-371
-551
-388
-250
76
317
-32
-172
-801
-826
-230
-79
343
-28
61
58
-51
343
151
515
786
1151
1157
1249
1559
1509
1939
2825
3634
4615
5647
6484
6931
7000
6590
6311
5839
5031
3786
2337
259
-1943
-4105
-5078
-5535
-5730
-5495
-5208
-4502
-3778
-3101
-2155
-1336
-412
114
194
529
358
77
-366
-336
-107
183
387
444
385
518
381
305
379
629
678
1092
727
456
515
553
781
756
1107
1077
765
743
732
674
835
782
849
759
1147
1106
870
591
224
631
701
1016
1179
1396
946
692
510
772
732
1294
1254
1537
1162
1023
946
961
1314
1216
1639
1453
1604
1372
927
955
1219
1843
2164
2366
2200
2189
2336
2167
2056
2128
2383
2662
2517
2671
2227
2377
2421
2561
2475
2905
2794
3085
2699
2455
2264
2269
2470
2748
2959
3013
3131
2829
2236
2321
2179
2481
2699
2879
2281
2157
1694
1669
1680
1844
1659
1223
1361
1001
1072
785
252
150
521
439
441
172
-259
-387
-844
-862
-500
-592
-196
-174
-565
-773
-641
-859
-475
-395
-425
-789
-685
-1135
-1340
-1197
-1363
-1107
-859
-769
-833
-687
-1036
-1119
-921
-1111
-854
-521
-366
-544
-675
-981
-1005
-1040
-780
-390
-413
-790
-679
-1039
-1043
-659
-432
-194
-301
-295
-155
-585
-470
-501
-391
-195
-277
19
-366
-588
-510
-788
-628
-379
75
-123
57
-332
-204
-558
-605
-556
-367
-86
136
147
-68
-357
-247
-136
-100
174
254
348
42
-235
-595
-240
-257
262
182
192
289
47
-130
-361
122
156
599
600
194
-9
91
80
-11
255
451
450
544
373
311
332
361
136
237
428
855
875
485
587
543
625
485
805
777
387
145
113
-337
-310
-78
201
608
579
189
307
-70
53
-335
-145
-364
-286
-320
-555
-893
-1097
-735
-629
-266
117
-283
-544
-772
-647
-662
-787
-256
56
-40
-125
-355
-256
-203
22
-1
361
310
-85
43
-282
-303
-293
29
-57
187
610
563
325
98
95
361
494
1048
1127
753
825
459
502
715
1348
1872
2217
2784
3267
3743
4635
5254
6487
7269
7343
7146
6768
5586
4720
3418
1900
-88
-1880
-3217
-4657
-5415
-5607
-5798
-5628
-5210
-3809
-2459
-1264
-481
-145
-333
-274
-61
522
775
801
618
378
-19
266
201
483
753
898
1118
685
462
530
186
248
466
742
918
904
748
856
842
723
921
1338
1394
1304
1077
772
240
137
526
830
1132
1012
961
1102
1064
1151
1312
1215
1593
1642
1565
1341
1071
680
1045
1324
1582
1429
1658
1614
1619
1640
1632
1634
1479
1690
2129
2097
1808
1191
1304
1248
1914
2024
2187
2180
2387
2358
2347
2356
2420
2561
2460
2498
2607
2345
2135
2115
2040
2573
2823
2714
2722
2831
2566
2308
1955
2312
2215
2249
2361
2149
1728
1863
1473
1606
1595
1453
1518
1578
1108
582
267
-9
156
586
633
237
-77
-194
-455
-510
-419
-600
-397
-820
-757
-920
-1303
-1390
-1405
-1337
-967
-1142
-899
-1284
-1246
-1465
-1805
-1658
-1330
-1031
-729
-971
-1543
-1658
-1228
-922
-701
-891
-657
-697
-768
-903
-1292
-1294
-1105
-812
-586
-543
-408
-834
-664
-845
-388
-187
-344
-365
-197
-566
-454
-854
-885
-439
-333
-1
375
282
-122
73
-116
307
520
438
450
237
-101
-339
-333
119
346
514
622
393
521
-22
-291
-301
-7
610
496
618
145
278
-4
-6
272
138
589
426
528
-55
-322
-365
29
-65
297
367
148
362
-35
68
43
-61
179
612
625
210
-55
-316
-181
-341
-90
144
214
374
-17
-91
-95
-61
277
169
581
620
235
292
-79
-53
316
202
637
827
894
454
344
76
-115
221
787
830
633
148
288
265
-2
265
362
529
618
212
83
-579
-490
-587
-265
-46
-80
-312
-549
-639
-555
-131
14
87
107
97
45
-335
-247
-612
-565
-375
109
260
292
-35
72
-361
-204
-364
-91
162
164
-113
-187
-556
-359
264
587
510
823
796
425
231
327
343
541
510
642
734
947
1601
2107
2671
3421
4237
5746
6753
6895
6970
6525
5783
5417
4411
2922
1069
-942
-3172
-4904
-6150
-6722
-6372
-5818
-5068
-4290
-3514
-2707
-2134
-1358
-484
-331
-103
-12
-41
61
-154
-530
-162
-119
178
579
556
196
349
271
266
139
412
714
1126
1053
829
616
546
397
877
1103
947
1130
706
851
644
1073
998
1379
1204
1247
1197
1007
757
650
1069
1396
1637
1618
1405
954
905
979
1351
1223
1662
1883
1760
1695
1473
1539
1548
1485
1694
1763
1673
1532
1438
1658
1648
1424
1822
2083
2336
2405
1987
1731
1836
1887
2077
2029
2423
2201
2389
1992
2120
2103
1967
2406
2291
2591
2293
2427
1968
1737
1867
1698
1944
2376
2018
1909
1262
1348
1195
1412
1805
1528
1654
1233
1320
1124
889
399
530
591
511
820
552
25
-426
-502
-248
-267
-327
-638
-704
-1150
-1012
-1378
-1404
-992
-742
-644
-1095
-1194
-1450
-1482
-1628
-1254
-1158
-1306
-959
-982
-1161
-1661
-1530
-1433
-1174
-923
-1089
-940
-1401
-1560
-1572
-1170
-941
-738
-893
-670
-1074
-994
-1337
-991
-749
-483
-578
-590
-498
-745
-981
-1355
-1292
-1084
-848
-440
-415
-478
-830
-646
-889
-508
-572
-211
-584
-891
-940
-1315
-954
-747
-826
-453
-629
-600
-423
-887
-1124
-951
-1060
-783
-574
-584
-804
-1088
-996
-917
-884
-557
-143
-240
-498
-735
-1100
-1091
-768
-671
-818
-492
-785
-666
-1060
-1102
-1031
-893
-471
-573
-514
-626
-874
-1089
-1120
-721
-787
-640
-537
-202
-195
-576
-503
-811
-625
-315
124
39
-211
-637
-561
-289
265
215
611
489
835
768
242
-75
65
-14
535
400
233
-69
-261
11
-118
256
338
160
209
128
-125
-183
-621
-568
-348
124
-66
78
-131
-594
-458
-441
-539
-298
-95
-56
34
-232
-431
-461
-617
-244
-175
-159
-213
-392
-682
-909
-1121
-787
-150
-259
-150
-390
-510
-493
-455
-436
-613
-181
-285
-330
-583
-826
-811
-520
85
270
273
-31
-56
-77
-52
201
1059
1870
2303
2731
3395
4111
5134
5835
6378
6759
6659
6091
5320
4150
1942
110
-1785
-3627
-4901
-5585
-6422
-6657
-6310
-5854
-5235
-3757
-2435
-1572
-855
-557
-572
-490
-650
-653
-479
-240
-351
-363
-216
-549
-252
-337
-71
233
490
845
458
181
-19
299
588
869
677
785
602
247
171
280
108
98
351
451
860
404
266
14
120
516
670
1101
727
463
513
213
545
634
430
481
814
856
777
585
171
205
427
685
1085
1094
1033
685
836
780
873
1134
1156
1241
1339
1100
722
764
1118
938
1281
1158
1253
1183
960
1037
1096
1391
1484
1730
2124
1968
2035
1997
2091
1682
1698
2137
2032
1941
1861
1240
1342
1205
1482
1770
1988
2344
2013
1741
1635
1373
1320
1400
1176
1294
748
408
379
-26
265
183
608
616
150
64
-540
-830
-1038
-1134
-1085
-667
-782
-802
-747
-1005
-1153
-1358
-901
-710
-694
-903
-1233
-1490
-1797
-1661
-1190
-984
-1081
-1029
-903
-1192
-1455
-1484
-1269
-1296
-1023
-1192
-1595
-1598
-1562
-1621
-1442
-1588
-976
-867
-798
-1055
-1361
-1200
-1347
-967
-940
-940
-1138
-1090
-930
-1407
-1545
-1401
-761
-394
-539
-460
-765
-999
-1328
-1018
-929
-1110
-1041
-723
-716
-1070
-981
-1311
-904
-830
-524
-159
-232
-611
-464
-848
-743
-1073
-706
-476
-615
-501
-1038
-913
-732
-627
-357
-315
-158
-513
-585
-459
-680
-1103
-1030
-454
-367
-263
-201
-503
-680
-656
-512
-602
-184
-300
-263
-145
-393
-793
-413
-332
-23
304
115
-180
-404
-479
-408
-236
-279
-110
-61
99
-343
-248
-521
-363
-113
347
129
-16
8
-185
-530
-521
-215
-179
-187
-239
-575
-410
-498
-798
-489
-582
-144
-340
-241
-820
-1147
-1314
-1286
-1135
-707
-853
-859
-736
-936
-1334
-1309
-1105
-838
-412
-426
-850
-1056
-931
-927
-1048
-839
-387
-551
-613
-794
-730
-1067
-725
-769
-526
-339
-267
-328
-238
-426
-506
-638
-345
-30
142
367
-53
49
28
-79
175
416
813
866
684
906
1584
1939
2718
3905
4920
5580
6427
6315
6068
5598
5043
4651
3504
2430
597
-1519
-3462
-4794
-5658
-5526
-5741
-5375
-5065
-4681
-3532
-2861
-2068
-1181
-676
-544
-314
-272
-136
-587
-462
-401
-132
-36
211
250
130
-21
-107
-100
-12
146
597
489
497
596
375
269
134
421
665
679
448
143
-40
-22
130
552
428
778
822
773
621
208
207
425
754
995
1284
901
747
650
861
858
668
1078
1005
1348
1017
1092
698
735
953
1235
1429
1447
1569
1387
986
919
939
1327
1557
1535
1880
1499
1270
1405
1263
1801
2083
1984
1992
2146
1729
1842
1809
1680
2161
2351
2403
2309
2138
1711
1863
1867
1730
2167
2041
2027
2136
1690
1809
1526
1865
1750
2096
1735
1632
1124
416
184
166
237
536
255
170
274
56
-166
-546
-533
-197
-186
-609
-686
-1311
-1561
-1599
-1196
-998
-1142
-927
-1357
-1611
-1881
-2096
-1928
-2117
-1691
-1798
-1519
-1890
-2061
-1924
-1929
-2078
-1899
-1467
-1629
-1658
-1534
-1678
-1735
-1904
-1433
-1170
-973
-934
-1328
-1555
-1439
-1618
-1352
-1047
-844
-791
-853
-727
-1144
-996
-943
-717
-448
-576
-397
-818
-660
-886
-505
-575
-341
-120
-35
96
-168
-399
-474
-399
-253
-359
-269
-322
-526
-492
-770
-236
-54
518
552
366
114
-372
-555
-386
-558
-311
-70
-35
38
-184
-516
-167
-276
86
-115
-110
59
-132
-582
-635
-252
-315
69
121
-78
-3
-23
40
-219
-585
-176
106
-6
108
-217
-499
-829
-431
-181
55
-68
-80
36
-154
-534
-254
-324
-47
184
241
341
68
-146
-172
-300
102
-81
-70
-87
95
-332
-530
-575
-356
-19
144
-26
-139
-439
-797
-783
-771
-504
-420
-533
-200
-535
-450
-803
-461
-234
-260
103
33
-194
-486
-727
-1071
-729
-791
-610
-530
-579
-447
-797
-777
-628
-159
29
-125
115
-276
-241
-460
-808
-448
-200
46
-115
55
-368
-208
-376
-99
244
475
482
598
527
443
1107
1634
1988
2792
4100
5202
5997
6031
6209
5786
5599
5426
4249
2788
934
-1113
-3132
-4572
-5924
-6117
-6412
-6072
-6174
-5527
-4794
-3823
-2807
-2122
-1313
-487
-542
-431
-689
-1067
-752
-894
-808
-454
-547
-377
-318
-380
-183
-378
53
-15
358
383
331
-29
120
107
-2
521
773
865
498
525
331
290
168
393
847
688
684
888
835
798
807
650
1112
1354
1224
1374
1094
855
861
1123
1188
1602
1539
1361
955
1127
1066
1029
1103
1354
1429
1875
1793
1538
1358
1152
1629
1843
1694
1708
1911
1527
1594
1209
1557
1884
2008
2211
2404
1933
1748
1689
1750
2131
2015
2384
2416
2322
2110
1865
1461
1510
1741
2023
2180
2372
2132
1857
1425
1662
1498
1866
1901
1793
1549
979
700
821
864
733
1026
853
228
71
-245
-425
-498
-486
-402
-564
-577
-770
-1075
-1334
-1167
-1353
-976
-914
-973
-1408
-1638
-1809
-1833
-1466
-1573
-1227
-1238
-1582
-1464
-1865
-1689
-1895
-1454
-1212
-1002
-1137
-1115
-935
-1352
-1262
-1566
-1187
-973
-1101
-928
-1169
-1638
-1658
-1192
-1127
-857
-483
-775
-655
-1100
-1302
-1187
-1165
-944
-883
-426
-498
-1060
-1371
-1210
-1305
-1042
-875
-890
-1041
-968
-1351
-1368
-984
-736
-454
-514
-217
-557
-437
-826
-669
-704
-646
-778
-444
-776
-736
-967
-1335
-1284
-1116
-651
-476
-426
-822
-1100
-1338
-1347
-1112
-813
-409
-479
-678
-1127
-990
-1019
-955
-1057
-862
-475
-495
-644
-1054
-1083
-683
-443
-227
-382
-162
-552
-464
-852
-879
-494
-207
-114
380
376
-86
-294
-299
-80
174
533
213
368
314
-8
97
-326
-329
-83
517
423
527
-57
-300
-321
55
-101
-88
-110
-115
113
-282
-254
-399
-562
-262
269
300
78
-207
-618
-597
-215
-323
57
106
37
-140
-596
-469
-499
-468
-404
-576
-514
-541
-427
-838
-838
-627
-315
-93
-65
57
-141
-588
-464
-477
-585
-320
-87
-37
63
-170
-558
-217
59
373
547
523
186
545
692
1557
1935
2821
3326
4296
5296
6251
6455
6029
5995
5678
5188
4009
2504
478
-1526
-3857
-5101
-5874
-6054
-6183
-5946
-5337
-4751
-4145
-3120
-2126
-1324
-777
-221
-379
-170
-550
-411
-431
-548
-262
308
232
196
257
40
-323
-271
-98
359
245
542
221
343
-36
-52
355
385
655
730
800
224
-7
-1
194
428
843
655
647
828
447
603
636
831
1076
945
1109
848
570
176
515
510
1040
942
944
1112
759
678
881
668
1106
1349
1221
1373
1114
652
888
1025
944
1346
1212
1566
1589
1236
1309
912
948
1181
1473
1865
1472
1154
1145
1120
1340
1661
1914
1762
1714
1810
1616
1241
1544
1487
1731
2167
1975
1952
2144
2063
1725
1677
1685
1735
1748
1880
1577
912
830
471
870
1100
954
1094
808
241
263
-127
63
25
-262
-318
-190
-404
-660
-1114
-1151
-759
-818
-466
-824
-1095
-1408
-1625
-1413
-1547
-1322
-1100
-742
-1075
-1009
-1163
-1164
-1020
-1082
-666
-824
-825
-720
-1019
-1570
-1632
-1382
-743
-774
-856
-1137
-1384
-1196
-1364
-949
-1045
-671
-895
-717
-1114
-975
-1012
-972
-1133
-738
-832
-466
-495
-659
-1093
-1147
-1065
-689
-866
-840
-859
-697
-1129
-1282
-992
-729
-399
-232
-567
-780
-729
-1123
-930
-1137
-678
-637
-188
-244
-477
-664
-641
-437
-219
-381
-178
-576
-488
-888
-701
-644
-457
-207
-274
-261
-185
-455
-655
-662
-472
-192
48
-100
114
-282
-178
-514
-207
-279
-44
359
301
37
-545
-472
-410
-184
34
125
62
-345
-221
-253
-159
12
-86
275
365
194
200
287
-258
-172
-293
325
626
389
168
-85
22
-280
-257
89
-17
328
-42
-347
-392
-466
-530
24
-33
-30
57
-199
-453
-876
-647
-812
-428
-619
-406
-776
-645
-751
-1089
-1119
-1035
-821
-594
-561
-817
-960
-1201
-1349
-745
-450
-402
-798
-662
-661
-851
-807
-511
-403
-238
-134
-190
-385
-848
-687
-875
-401
-353
-97
-30
87
-363
-167
-294
-83
342
211
582
637
571
227
390
981
2106
2910
3233
3771
4541
5535
6715
7275
7425
7263
6554
5966
4646
2881
793
-1646
-3585
-4925
-5298
-5719
-5555
-5940
-5568
-5132
-3894
-2261
-1408
-450
-333
51
-291
-242
-625
-527
-267
-45
-8
112
-319
-162
-140
-276
-110
298
379
369
285
-74
-127
-74
354
597
805
877
774
536
275
-120
-47
213
781
712
690
773
600
572
479
765
1289
1402
1310
1084
856
480
769
681
934
1182
1575
1278
1363
967
993
1190
1424
1810
1821
1806
1840
1908
1690
1709
2049
1986
2422
2358
1686
1318
792
582
388
773
825
808
815
882
719
1066
928
1372
1592
1477
1451
1550
1153
1407
1549
1487
1675
2146
2411
2645
2463
2624
2290
2434
2781
3343
3383
3170
2889
2672
2257
2379
2323
2412
2569
2590
2374
2055
1870
1915
2089
2000
2394
2281
2636
2577
2339
2089
2049
2009
2296
2668
2285
2039
2100
1772
1788
2090
2129
2117
1722
1661
968
804
254
338
-51
60
-326
-169
-566
-830
-1145
-1302
-903
-824
-571
-571
-472
-825
-779
-425
-610
-253
-301
-54
305
-66
5
-300
96
307
212
545
543
179
-35
13
-281
-103
167
615
396
574
196
327
261
317
238
443
812
794
436
571
220
185
233
595
437
438
567
363
-99
17
-264
96
285
199
231
338
107
-291
22
-22
185
251
177
311
-42
122
11
-306
60
328
570
592
142
-69
-112
281
221
384
489
497
579
-73
-567
-678
-1055
-1027
-1091
-1187
-2064
-2478
-2963
-3419
-3414
-3358
-3335
-3057
-2994
-3184
-3190
-3004
-3011
-3122
-2905
-2559
-2719
-3063
-3674
-3929
-3804
-3820
-3717
-3542
-3666
-3675
-3551
-3938
-3965
-3879
-3484
-3605
-3248
-3219
-3300
-3471
-3900
-3722
-3945
-3855
-3537
-3571
-3719
-4221
-4237
-4683
-4697
-4267
-3991
-3744
-3864
-3582
-3854
-3551
-3615
-3030
-2929
-2686
-2635
-2478
-2868
-2925
-2835
-2588
-1977
-1863
-1582
-1182
-1396
-1386
-1357
-1293
-928
-739
-482
-251
-161
-214
-242
-311
371
858
936
1298
982
1119
1041
1116
1196
2065
2837
3612
4077
4811
5610
6656
7274
7343
7364
7106
6533
5534
4033
2376
348
-1662
-2889
-3328
-3935
-4127
-4198
-3797
-3305
-2657
-1407
-68
978
1451
1421
1253
1275
1499
1707
1776
2055
2112
2119
1721
1842
2083
2894
3783
4829
5550
6073
6631
7525
7835
8187
8572
8543
8135
7837
7408
7200
6576
6380
6332
6329
6527
6113
5864
5564
5254
5240
4806
4978
4912
4502
4476
4109
3459
3332
2727
2464
2603
2603
2579
2382
1746
1570
980
1061
748
737
712
855
605
-8
-338
-221
-142
14
42
-167
-810
-958
-1242
-1612
-1578
-1209
-1360
-1355
-1247
-1520
-2072
-2015
-2325
-2020
-1958
-1933
-1943
-1990
-2354
-2265
-2652
-2627
-2430
-1957
-1935
-2198
-2873
-2970
-3380
-3376
-3337
-3071
-3350
-3414
-3315
-3841
-4122
-3977
-3835
-3572
-3706
-3883
-4008
-4620
-4554
-4877
-4926
-4976
-4977
-4959
-4808
-5118
-5759
-5949
-5559
-5285
-5493
-5917
-6748
-7709
-8538
-8876
-9545
-9677
-10213
-11007
-12309
-13231
-14634
-15638
-16510
-17119
-18151
-19732
-21331
-22771
-24314
-25526
-26646
-27245
-27385
-27544
-27380
-26832
-26153
-24872
-23299
-21514
-19389
-17588
-16231
-14864
-13500
-12889
-11958
-11632
-11012
-10284
-9508
-8579
-8111
-8059
-7785
-7499
-7284
-7219
-7211
-7024
-6502
-5751
-4813
-4692
-4615
-4619
-4461
-3777
-3426
-2878
-2649
-2826
-2966
-3217
-3062
-2532
-2146
-1652
-1391
-1306
-1320
-1358
-1315
-1084
-398
77
160
558
606
457
702
1327
1504
1932
2278
2486
2827
2864
2690
3110
3346
3628
3896
3791
3747
3556
3688
3840
4006
4703
4891
4536
4621
4336
4727
4901
4784
5211
5481
5755
5597
5723
5272
5486
5669
5954
6190
6058
6082
6266
5849
5937
5917
5867
6461
6723
6769
6368
6426
6043
6035
6120
6510
6371
6398
6286
6051
5781
5592
5561
5948
6175
6134
6476
6113
5843
5540
5634
5695
5903
5813
5780
5539
5476
5242
5187
5043
5498
5679
5753
5658
5409
4846
4886
4603
4742
5180
5031
5016
5166
4754
4552
4347
4246
4332
4527
4875
4714
4399
4178
4213
4452
4483
4988
5172
5241
5147
4988
4737
5068
5902
6285
7185
7677
8808
9587
9717
9657
9383
9114
9030
8302
6930
4958
2484
768
-844
-1264
-1482
-1817
-1893
-1836
-1184
-397
633
1430
2583
2956
3261
3283
3427
3331
3045
3059
3360
3224
3677
3860
3916
3577
3707
3632
3634
3693
3524
3572
3483
3230
3192
3081
3016
3650
3717
3827
3744
3581
3658
3230
3376
3401
3310
3495
3526
3588
3022
2790
2793
3037
3630
3863
3861
3636
3331
3106
2776
3090
2975
3417
3590
3657
3299
3339
3164
3156
3038
3206
3313
3588
3260
3358
3163
2803
3173
3240
3582
3960
3527
3446
3177
3103
3175
3008
3071
3419
3312
3683
3622
3375
3143
3170
3226
3853
3761
3900
3643
3442
3395
3239
3697
3931
3823
3771
3512
3434
2951
3177
3041
3455
3305
3304
3425
3185
2914
2453
2628
2634
2632
2293
2375
2141
1877
1607
1399
1332
1171
1578
1582
1308
829
379
-80
269
251
430
434
528
279
40
-362
-355
44
-35
296
-60
-294
-537
-414
-638
-216
15
-36
311
-13
57
-143
-243
-184
-261
-61
302
263
105
-354
-250
-535
-165
64
321
214
155
-90
-363
-202
-294
283
562
385
243
-27
-299
-193
-154
49
310
235
525
168
-3
73
-299
-267
-49
523
457
604
256
-312
-336
-54
575
813
843
463
249
-23
-273
-336
-81
440
995
1621
1515
1821
1887
1748
2170
2403
2671
2559
2639
2122
1265
909
921
1372
1228
1162
1004
1131
1039
685
863
641
1083
1325
1186
1324
1034
504
415
781
698
1054
1058
1036
1049
1055
720
836
507
866
1099
1020
969
687
598
173
579
752
1549
1770
2359
2297
2636
2632
2595
2636
2832
3092
3188
2690
2422
1886
1615
1434
1729
2032
2416
2020
1889
1397
756
642
1055
1330
1269
1258
1311
754
486
602
619
506
699
1086
1052
810
192
-97
-124
130
490
697
857
513
123
-369
-367
85
344
528
548
380
77
-231
-630
-234
-97
604
843
503
214
-39
-62
210
724
1580
1773
2148
1758
1754
2569
3521
5236
6097
6769
6522
5605
4737
3716
2504
1303
-412
-2302
-4414
-5965
-6999
-7466
-7427
-6955
-5846
-4969
-3522
-2560
-2002
-1786
-1671
-1455
-1396
-1139
-1050
-1093
-915
-999
-1380
-1254
-1239
-976
-834
-554
-569
-841
-932
-1190
-1261
-1363
-1035
-444
-562
-430
-689
-1147
-945
-1133
-714
-484
-535
-523
-789
-928
-1167
-1341
-1027
-451
-515
-197
-232
-624
-834
-730
-683
-458
-246
-236
-439
-701
-1110
-1074
-857
-525
70
295
323
-87
-328
-538
-622
-522
5
322
245
178
-45
36
63
286
585
840
712
657
432
158
287
170
507
1092
994
971
1127
1043
739
737
1079
1281
1537
1447
1658
1166
906
1041
1089
939
986
955
1135
754
788
220
-36
-60
172
461
797
566
-100
-217
-429
-501
-504
-490
-778
-704
-1342
-1834
-1964
-2329
-1937
-1743
-1920
-1741
-2174
-2391
-2607
-2503
-2502
-2582
-2320
-2156
-1984
-2565
-2702
-3167
-2790
-2687
-2354
-2019
-2199
-2454
-2876
-2935
-2941
-2879
-2671
-2339
-2078
-2104
-2419
-2525
-2922
-2526
-2255
-2024
-2146
-2097
-2124
-1965
-2045
-1957
-1899
-1244
-1003
-1321
-1613
-1678
-2136
-1930
-2117
-1691
-1446
-1208
-1348
-1396
-1274
-1611
-1564
-1158
-981
-1099
-1054
-904
-1161
-1453
-1840
-1433
-1331
-724
-823
-646
-1140
-1408
-1563
-1240
-956
-873
-449
-818
-1102
-1347
-1175
-1368
-973
-1054
-875
-770
-828
-1038
-1015
-1364
-982
-694
-389
-233
-583
-882
-953
-1353
-965
-648
-589
-170
-193
-608
-818
-747
-1101
-1074
-670
-471
-599
-402
-656
-970
-1394
-1292
-726
-391
-218
-540
-782
-1057
-956
-1150
-647
-602
-132
-323
-370
-213
-590
-438
-453
-568
-300
-62
-38
-291
-446
-1049
-903
-760
-492
-544
-525
-434
-676
-1122
-910
-1039
-800
-578
-523
-470
-1114
-1227
-1635
-1263
-996
-746
-872
-891
-1038
-1006
-1204
-1252
-1354
-1080
-858
-827
-736
-984
-1167
-1180
-1007
-743
-797
-770
-672
-925
-1161
-1537
-1228
-1004
-703
-495
-509
-725
-986
-1391
-1371
-963
-737
-482
-539
-246
-398
-876
-692
-475
-318
297
169
128
152
395
1059
1256
1778
2551
3908
4850
5995
6082
6247
5996
5706
4995
4398
2736
1041
-1537
-3882
-5571
-6809
-7317
-7309
-7275
-6562
-6212
-5476
-4648
-3510
-2876
-2068
-1230
-985
-1328
-1612
-1917
-2085
-1775
-1525
-1201
-969
-941
-1371
-1627
-1524
-1423
-1328
-642
-605
-542
-620
-446
-474
-463
-405
-521
-313
99
66
-153
-394
-470
-577
-285
271
210
228
319
66
-381
-135
50
342
613
500
487
620
204
310
-76
89
127
141
888
1403
1427
1620
1341
1102
1123
1270
2323
3340
4143
4171
2949
1493
872
1175
3032
4998
5962
4925
2885
947
852
1875
3285
4892
4994
4229
2767
1411
930
1850
2984
4231
4577
3831
2662
1291
616
886
1887
2800
3485
3300
2599
1387
562
247
900
2099
2518
2499
1713
500
-545
-645
-167
828
1486
1754
1407
-95
-1393
-2074
-1807
-802
550
1036
605
-501
-1671
-2268
-1983
-971
-30
706
825
-356
-1549
-2341
-2314
-1266
-166
388
490
121
-1102
-1845
-1674
-1300
-282
872
972
640
81
-1041
-1255
-1344
-613
605
1354
1278
1048
-128
-731
-1281
-802
226
1243
1917
1212
368
-1048
-1623
-1281
75
1360
2152
1759
764
-556
-1236
-1540
-441
817
1817
1782
1378
-62
-1147
-1278
-726
243
1479
2019
1521
245
-1100
-1508
-1403
-265
988
1674
1453
473
-510
-1410
-1803
-1094
139
1277
1694
1361
77
-1158
-1856
-997
281
1253
2061
1454
442
-447
-1392
-970
39
1395
2341
2305
1302
-338
-1336
-1194
-428
805
1910
2358
1913
811
-584
-1087
-389
499
1713
2618
2377
1369
91
-1076
-1132
-280
1293
2364
2603
1891
635
-483
-1104
-515
711
2158
2668
1972
1103
-350
-745
-774
237
1803
2480
2490
1515
333
-1026
-943
-157
1105
2166
2238
1908
419
-846
-1201
-1062
363
1626
2019
1703
841
-778
-1452
-1450
-464
753
2138
1989
998
-232
-1622
-1820
-1055
236
1445
2035
1701
823
-782
-1545
-946
277
2052
2617
1757
844
-299
-985
-943
-433
1104
2934
3251
1270
-817
-1598
-271
1263
897
-1770
-4542
-6612
-8000
-7469
-4609
140
5654
7209
4107
-1640
-5679
-6528
-3496
494
4144
4917
2801
-36
-1714
-4204
-5448
-5794
-3581
-558
1296
-942
-2882
100
3289
2258
-2695
-5252
1566
11673
15131
6927
-1530
-1165
6322
10134
4098
-4771
-7026
-1193
4410
4075
-1730
-8324
-12260
-12200
-7941
-1748
-676
-7620
-16622
-18092
-8662
1408
3736
-1977
-7079
-5886
-2186
-2145
-4537
-3156
4144
10173
8461
-2799
-16467
-25503
-27197
-22297
-12610
-721
7353
8195
2043
-4007
-5317
-1157
1672
-1584
-11816
-21508
-20473
-8160
6701
11399
4180
-8508
-14083
-10540
-3038
1272
6363
15379
25917
29733
22245
8439
-1461
-6034
-9630
-16900
-22994
-20917
-7003
11333
21167
17635
5454
-6949
-10404
-8552
-3575
-1243
102
1475
3067
1964
-601
-1534
514
2505
1010
-4001
-6708
-3883
628
-796
-5627
-9221
-5006
2212
6359
5761
6609
11890
19618
25534
27600
27396
25372
19417
11912
8095
11960
20465
26020
23048
15060
9296
8324
9312
8453
6855
8308
12413
15279
14772
12663
12730
16414
16756
7431
-9849
-24124
-27252
-20786
-13493
-12176
-14801
-16262
-14789
-12894
-12359
-12226
-10423
-6746
-3670
-4338
-10629
-18475
-22791
-19397
-11776
-5473
-5396
-8886
-9741
-4369
1214
-1590
-12443
-21916
-20743
-9822
560
3233
1080
1097
5191
7037
-326
-11494
-15392
-3988
15155
26818
25016
14166
3845
-1496
-5510
-8922
-7351
1521
11732
13060
5008
1115
7354
17707
15073
-1454
-17286
-16547
-2134
7868
1726
-12988
-21335
-16096
-5978
1017
2937
3667
3393
869
-1083
5419
19199
30614
28034
12489
-1181
-2409
7840
16113
13172
3766
140
7046
18771
24416
21425
13476
6278
2282
841
-317
767
3106
6361
10282
16033
24473
30565
25678
6833
-16469
-30314
-29413
-24107
-24607
-28816
-24835
-6976
12023
15666
3078
-9203
-5716
9011
17428
8287
-11291
-25915
-28585
-23763
-16497
-6311
5558
13074
8584
-6250
-19977
-20079
-6698
10260
16768
10404
-2102
-11623
-13485
-10518
-3849
5463
14059
15591
5825
-10264
-20067
-15548
-833
13771
21285
21201
18390
13491
8206
2950
3022
7557
13182
16694
17805
17386
13055
6958
4510
9590
16056
12928
-4024
-26327
29312
-27972
-9896
1490
1454
-2815
-1296
8085
16506
12689
-2154
-16600
-18091
-6726
5845
7163
-876
-6838
-5563
-2674
-4819
-10130
-9035
2380
16979
24801
21512
11178
-226
-6953
-5739
3651
15419
19982
13970
1588
-7508
-8605
-4344
86
2473
3411
1320
-4054
-9269
-7357
2478
14284
17905
9908
-1859
-5947
2215
15487
20796
11665
-6055
-21704
-27606
-23582
-14417
-5373
-257
1484
-1270
-6878
-12789
-16163
-14522
-10215
-6425
-7815
-15231
-22822
-24053
-13578
5451
20714
21716
7174
-11548
-15307
-402
20766
28268
14826
-6159
-14385
-5685
7367
10457
4460
1310
8224
17410
16649
1615
-15077
-19094
-7953
7677
14352
8991
-267
-993
7056
14943
10630
-4434
-17246
-15687
611
15932
17028
3470
-13024
-20384
-14270
-3440
2843
-1086
-10453
-18274
-17295
-9364
3079
15710
24242
25993
20523
11185
5197
3377
3961
2985
3023
7165
12809
11312
-1657
-16214
-20347
-10114
3472
8092
620
-12297
-21468
-25786
-27741
-27516
-24605
-19509
-13795
-9137
-5899
-4646
-7558
-14248
-19098
-17693
-10373
-3515
-1011
-1550
-2080
-2983
-6478
-9990
-10065
-6074
-4983
-11117
-22320
-26955
-17370
-1109
8860
3458
-7828
-10833
-317
12030
12167
350
-9638
-3288
13240
22770
13546
-6858
-21600
-18130
-4681
6654
8569
4397
734
-125
-3047
-8956
-13725
-12059
-3611
5344
7518
3313
-1659
-3522
-3009
-3084
-4164
-4711
-1266
2895
4316
-465
-10452
-19090
-20764
-14150
-4635
1971
2505
1296
1158
2958
2907
-1558
-8073
-9850
-1853
13002
24927
24853
12501
-496
-5963
-85
8550
11609
6362
1429
1632
3805
2586
-6410
-15443
-14397
-3242
5032
2127
-9829
-17210
-11883
-1716
1852
-2723
-4729
1524
8956
6784
-3524
-11416
-9521
-1228
3361
1018
-4460
-9540
-12657
-11696
-6080
1148
4059
806
-1358
4496
15563
20849
13752
1714
-6552
-12332
-20257
-27425
-21465
2539
29727
-29102
17710
-9330
-19347
-9053
8721
17030
16702
14185
12553
8486
1893
-347
6228
16559
21149
16964
10502
10756
17641
25708
27346
25217
24822
25445
21269
8850
-5519
-13695
-11194
-4789
-5104
-11718
-17443
-11300
4213
15348
13410
1759
-5104
-2405
6350
12074
12066
10269
8941
6895
2479
-1570
-2408
-701
-4431
-13351
-22370
-22453
-12507
42
3116
-7096
-24078
30606
-28899
-9095
11289
17615
8432
-6111
-14746
-12657
-6432
-2348
-2155
-3635
-5809
-10400
-15962
-18595
-16196
-11036
-6943
-5460
-5578
-7441
-7807
-7437
-6646
-9613
-15168
-17752
-12270
-1711
3896
-1921
-13888
-20339
-19753
-17118
-17986
-16770
-9143
668
2825
-4405
-11071
-7816
674
4117
-2604
-8722
-6233
2274
7370
6067
3577
6299
10074
8118
-261
-8852
-10123
-4269
2566
4895
2993
2
-935
-225
-977
-2675
-2293
1282
4528
3623
-5066
-14068
-14868
-5955
3339
3249
-6438
-15255
-15633
-7648
-541
1585
-2724
-8367
-11963
-11550
-4581
8361
21188
26245
17817
2774
-7624
-6283
3447
13663
16051
11711
5701
2051
2110
7355
16317
23974
22727
9664
-6851
-12343
396
19793
25697
11160
-8364
-12730
1962
18854
18852
1619
-18288
-26898
-24238
-18461
-12635
-6815
-3697
-5610
-12460
-15184
-8912
1151
4853
623
-5416
-6727
-8430
-17323
-28643
-29857
-17288
-3480
-3911
-16244
-22912
-10707
12714
26880
19058
-969
-14794
-11621
3566
15781
15566
5788
-1740
1828
14354
23419
18313
1765
-14275
-20633
-18198
-13619
-11366
-8686
-2780
5586
13780
20017
23791
26412
26069
23620
18834
13317
7754
6061
12087
21826
26258
18115
2190
-7154
-1937
14146
27433
28488
19359
8700
1461
-2292
-4396
-3695
514
6379
12533
17874
22273
22702
17668
6655
-2615
-5399
-958
2952
4090
5548
11036
15050
9568
-7160
-23470
-28422
-23773
-21648
-25281
-25468
-13599
2529
7355
-2253
-11850
-5959
10796
19269
9139
-9426
-20430
-18713
-11217
-7118
-6086
-4542
-3085
-3542
-4262
-2002
1469
-2156
-14182
-26611
-28997
-22147
-19165
-24143
-27687
-17849
1303
13362
8521
-3944
-6573
3183
10929
6249
-6168
-11074
-4528
2713
1068
-6845
-9340
-1426
7313
5048
-7054
-17527
-14487
-1905
8397
8791
1900
-1957
918
5010
2500
-5509
-9140
-3220
7373
11609
3291
-9964
-19593
-20831
-14131
-2959
7237
8791
-1854
-18034
-27677
-23852
-12663
-5410
-6185
-7207
-942
7035
4615
-11107
-27111
-30057
-17132
-1947
938
-8169
-21411
-25596
-17898
-3148
11855
20329
19170
10618
-837
-9501
-7793
3920
19218
25945
18187
-4
-12579
-10969
1511
11406
10237
1046
-5941
-6190
-3276
-3624
-6119
-7673
-5239
-100
1787
-1060
-5756
-7334
-4058
3367
9259
10533
7196
2513
664
1762
2782
2226
635
-603
-1764
-7837
-16313
-21364
-14645
2500
22319
31253
23681
3529
-17849
-28368
-21764
-5725
6347
5716
-3301
-6868
285
9014
6226
-9557
-21703
-18295
835
18658
25132
21393
16556
12434
5700
-3561
-7331
-649
10349
13729
6501
-2302
-2516
4457
9203
6594
3205
9847
24036
-32353
24685
3513
-10375
-5304
11217
18642
8736
-5262
-5729
7029
14477
6622
-4712
-3259
9158
11956
-5189
-26059
-27723
-7153
11937
11791
-1634
-7628
-845
7432
4399
-6412
-15459
-19055
-21225
-23726
-22732
-19030
-18242
-20288
-17534
-3281
14776
21781
12436
-2561
-7760
-2284
3606
3400
2603
4885
8373
9511
8379
12080
19472
24783
21873
12623
5502
1861
-381
-2762
-3446
-282
2284
-2037
-12590
-17091
-10057
4024
11255
3988
-8320
-12221
-3773
4321
490
-12605
-19700
-11988
2297
6513
-3029
-11897
-3706
15743
25632
13877
-8020
-16328
-7161
6459
8542
661
-3634
-1083
1636
-2835
-7011
-1548
10260
12671
455
-13393
-11672
2234
11826
2693
-12721
-17901
-9632
-5171
-14080
-26030
-24399
-4931
13572
13522
454
-10295
-10083
-4516
-1656
941
8279
16746
15100
1277
-13788
-17041
-6325
6478
9068
439
-11278
-17538
-18074
-15788
-14023
-13925
-14495
-16006
-14424
-11570
-9157
-11366
-15322
-15213
-5669
8919
16072
8374
-8714
-20035
-17301
-9256
-6578
-10339
-11607
-5264
844
-1921
-9513
-9589
3409
17037
19212
10569
1561
-338
-40
-4636
-13466
-18089
-15428
-6540
1678
9014
14024
11338
-826
-14861
-18028
-7415
5374
7086
-3031
-13368
-10935
-732
5729
1713
-6724
-11629
-12473
-13612
-15657
-13966
-8081
-2286
-775
383
6917
17442
19051
7239
-7858
-9708
3644
15608
12669
-691
-9673
-6348
2208
5070
1964
1467
8050
16819
21561
18576
14394
15484
21257
23815
16637
983
-11913
-13831
-6426
-823
-6481
-16989
-19155
-7581
6576
10413
2880
-3305
735
12130
16801
11068
1126
-4168
-2116
2478
5735
8118
10078
8452
2459
-2823
-2194
4930
12237
12317
4988
-2661
-2312
7433
16802
16867
6561
-5113
-8806
-634
11611
20689
22770
19691
13344
3588
-6117
-8994
-1048
12925
20861
19484
15148
16722
21132
21523
12650
3606
1404
4529
4891
-456
-3632
3115
14154
16624
7115
-6336
-11475
-5678
2694
5767
5433
7806
13515
17948
16121
14355
17841
25082
25631
11745
-8924
-21842
-19757
-11796
-10455
-17477
-22159
-15086
-1204
9910
11449
8667
5924
2969
-2868
-10027
-12042
-6056
972
1120
-8820
-19105
-19394
-6593
9322
15874
8047
-5455
-10578
-1999
8473
8466
-3654
-15089
-11519
5657
22724
29173
25350
18194
13002
7321
-2292
-10176
-10764
-2979
3211
3711
-1977
-4734
-2173
1780
794
-4876
-9259
-8417
-4076
151
2695
2392
-3031
-12283
-20524
-20051
-12148
-2179
2154
2504
3464
4626
1569
-5836
-8633
331
15177
17969
2807
-18033
-25688
-15245
-3825
-3036
-8452
-5870
4462
9855
311
-12811
-11085
8046
21636
14005
-8552
-22536
-15795
-932
4294
-831
-5278
-2005
13
-6724
-17153
-17866
-6320
6939
10147
7142
8032
13753
15096
5015
-10582
-19287
-16878
-10731
-9806
-9763
-6173
1965
8291
6623
361
-5474
-5823
-4660
-4530
-5135
-4119
-601
5153
8266
6629
2071
-3127
-3752
-3281
-4117
-8821
-13853
-13236
-4783
5495
12646
11587
3820
-4775
-8762
-6497
-1163
1225
-2294
-9398
-12529
-8864
-397
7392
9360
5281
-1324
-4494
-3978
-379
462
-4337
-12358
-14663
-9340
1481
9164
9609
5139
-543
-3556
-4946
-4069
-1721
1180
3236
3354
1001
-1384
-2274
-2007
-697
-103
1587
1165
837
94
-630
-1339
-560
-360
316
613
471
-291
-45
-254
-550
-334
293
-317
523
-73
40
19
-100
-578
284
71
80
-94
316
-221
291
2
-273
87
293
-193
347
52
6
77
261
-227
327
85
-380
-69
207
-136
94
-547
21
252
327
-510
77
-50
842
70
-1338
-1006
1124
2366
1691
-1010
-3424
-2815
-643
386
1219
1176
1562
620
-973
-2942
-2566
-948
423
371
196
370
-13
-236
-1192
-1776
-247
-42
-771
-1160
-1288
-795
-1
-652
-1057
-481
335
-221
-1283
-1629
-594
-58
275
-861
-617
250
630
-1123
-1560
-684
1004
1450
47
-2187
-1972
-1034
1813
2606
1890
473
-554
-1756
-1917
-1502
-429
1126
1899
1003
1056
-160
-1143
-1010
-797
-470
636
426
399
226
310
-477
-313
-539
-146
124
181
-281
215
99
-274
14
-63
-532
307
58
41
121
295
-211
326
42
8
87
269
-195
-83
-126
-53
-66
63
-800
368
278
294
-345
-548
-139
1034
-53
-1073
-1002
197
1720
1786
-234
-3332
-3589
-958
1520
2905
769
-1465
-2255
-1869
-357
126
-2928
-6581
-7393
-3022
5545
12422
10126
-156
-9666
-8906
-535
7217
3233
-7740
-15318
-12525
-2430
5060
4738
230
-3570
-5223
-4338
-1584
3640
8816
10124
4699
-5304
-12831
-11794
-4312
3345
5496
1359
-6685
-11354
-8612
-1366
6005
7594
1978
-6814
-12690
-10838
-2538
5526
8678
4171
-4788
-11568
-10528
-3259
4229
7752
3694
-4646
-10622
-9595
-2737
4321
7389
3594
-4660
-10234
-8935
-1972
5329
8573
4160
-4458
-10141
-8969
-1893
5543
8471
3542
-4555
-10499
-8784
-1570
5826
8388
3884
-4535
-10559
-8673
-1468
5819
8640
4352
-4068
-10348
-9084
-2134
5370
8322
4180
-4461
-10566
-9164
-2282
5241
8269
3715
-4273
-10199
-8909
-2039
5025
8041
3607
-4568
-10559
-8845
-2154
5420
7854
3301
-4962
-10411
-9050
-1672
5713
8122
3536
-4489
-10234
-8650
-1428
6257
9275
4864
-3481
-9368
-7837
-857
6800
10017
5639
-2836
-8436
-7135
-513
7210
10282
6154
-2155
-7953
-6313
421
7887
10749
6331
-1879
-7403
-6251
880
7846
10449
5851
-2424
-7863
-6476
679
8070
10682
6265
-2338
-7853
-6328
466
7895
10681
6110
-2417
-8378
-7543
-637
7227
10309
5943
-2528
-8990
-7584
-866
6955
9611
5088
-3332
-9302
-7995
-913
6031
8698
4282
-3555
-9531
-7929
-1407
5789
8438
4101
-4288
-10190
-8976
-1863
5595
8497
3687
-5193
-10947
-9457
-2249
5089
7886
3208
-5105
-11178
-10103
-3082
4640
7441
2901
-5742
-11454
-10145
-3445
4059
7065
2805
-5392
-11361
-9969
-3272
3964
6726
2031
-6220
-12063
-10381
-3615
3810
6528
2138
-6294
-12167
-10671
-3887
3684
6258
1556
-6844
-12691
-11210
-4362
3449
6067
1471
-6885
-13359
-12121
-4773
2854
5734
1124
-7384
-13655
-12323
-5387
1996
4856
820
-7497
-12982
-11900
-4838
2405
5129
432
-7722
-13418
-11686
-4810
2347
4901
335
-7844
-13499
-11936
-5182
2371
4943
-60
-8561
-14233
-12742
-5580
1746
4878
350
-8086
-14370
-13072
-5829
1409
4284
41
-8402
-14508
-13591
-6704
1033
3967
-455
-9067
-14788
-13475
-6571
456
3363
-1158
-9556
-15181
-14089
-6273
1497
4590
-166
-9500
-15284
-14386
-7068
-209
2673
-471
-7693
-14602
-17030
-11757
696
17413
29151
31483
24192
11459
-824
-8720
-8136
-325
12587
23189
26181
19607
8686
2358
4245
14608
26641
-32559
30743
21202
11797
8053
11761
19604
24809
23229
16228
8547
5981
9883
17316
22181
21076
14322
7557
5973
10542
17794
22622
20427
13672
6593
5431
10229
17838
22378
19899
13162
6319
5099
10502
18252
22787
20742
13671
6595
5272
10802
18702
22921
20644
13663
6621
5681
11037
19005
23647
21600
14451
7450
5593
10639
18808
23552
21566
14357
7273
5662
10491
18694
23241
21444
14576
7814
6293
11193
18833
23647
21450
14478
7663
6470
11566
19123
23928
21828
14480
7969
6686
11665
19760
23975
21706
14618
7325
5878
11138
19148
23804
21640
14318
7492
5931
11032
18663
23606
21390
14317
7370
5780
11019
18570
23260
21610
14603
7725
6198
10952
18974
23595
21457
14921
8137
6911
12006
19631
24003
22125
15106
8129
6795
11930
19700
24437
22275
15116
8271
6646
12077
19681
24273
22175
15179
8040
6084
11383
19115
24185
21935
14894
7693
5964
10668
18711
23310
21272
14151
7186
5298
10142
17921
21999
20089
12797
6086
4970
9679
17450
21492
19577
12275
5505
4353
9147
16836
21231
19209
11896
4864
3064
8133
16219
20823
18722
11190
4049
2645
7730
15711
20484
18492
11282
4195
2266
7469
14980
19601
17632
10865
3770
2294
7300
15221
19401
17285
10223
3670
1953
7197
14858
19304
17164
10051
2997
1708
7224
14812
19478
16867
9762
2543
1167
6382
14230
18984
16553
9376
2463
950
6219
13766
18754
16927
9649
2556
690
5708
13212
18284
16093
9274
2430
1078
5768
13330
17384
15981
9564
2581
-347
4159
12845
19245
16886
7294
-1973
-1744
8550
20318
24216
19890
13390
8652
5539
1763
-285
3976
14088
21693
20677
12703
6482
6074
8700
8583
6020
6674
11732
16636
14988
8355
4548
8031
13436
13384
7485
3303
7755
17008
22263
19883
14163
10874
10729
10191
7455
5508
9213
16993
21392
18620
11106
5232
5886
13148
21762
27497
28182
23843
16091
9024
5135
6138
11662
18691
23580
24490
21939
17526
12758
10537
10787
13160
16250
18396
19564
18963
17143
15658
14448
14134
14637
15276
16066
16706
16645
16237
15627
14769
14690
14501
14785
14847
14638
13517
12907
12027
11497
11016
10018
9024
8074
8017
8025
8125
9219
10614
12199
14246
16509
18272
19355
20175
20799
20628
20779
20144
19338
18104
16950
15740
14749
14517
14860
14764
14846
14836
14779
14948
14558
14668
14330
14604
14645
14311
14066
13757
13539
13493
13841
13729
13815
13744
13479
13368
13095
13060
12976
13426
13246
13218
13190
13204
13199
13374
13020
13026
13185
13659
13512
13673
13193
13002
12969
13337
13214
13266
13218
13366
12963
12772
12845
12538
12707
13028
13301
13622
13240
13328
12988
13003
13323
13389
13434
13411
13036
13110
12699
12905
12702
12790
13121
13166
13170
13103
12686
12481
12593
12585
12439
12817
12839
12473
12287
12366
12005
12011
12378
12285
12650
12621
12211
12296
11963
12000
12351
12210
12600
12449
12665
12167
12118
11759
11991
12660
12694
12709
12823
12481
12539
12685
13112
13316
13569
13552
13946
13707
13926
13922
13737
14141
14345
14295
14668
14646
14278
14450
14230
14659
14932
14996
15281
15673
15341
15396
15006
15066
15259
15668
15680
15343
15256
15444
15381
15089
15404
15320
15521
15875
15562
15664
15251
15415
15407
15472
15313
15627
15322
15405
15178
14755
14736
15130
15098
15305
15659
15358
15448
14979
14823
14808
15190
15367
15459
15378
15163
14949
14864
14961
15186
15395
15445
15040
14793
14859
14535
14528
14492
14699
14480
14880
14737
14914
14658
14426
14403
14303
14705
14695
14284
14348
14186
13810
13743
13779
14193
14402
14260
14444
13975
13780
13750
14156
14361
14213
14416
13985
13789
13901
13828
13567
13873
13946
13737
13727
13921
13566
13444
13596
13308
13636
13502
13561
13478
13279
13324
12953
12974
13368
13579
13524
13851
13466
13185
13174
13089
12972
13226
13685
13471
13607
13406
12970
13148
12947
13354
13251
13288
13411
13170
12701
12885
12710
13118
12998
13324
13315
12967
13064
12881
12488
12449
12515
12895
12728
12691
12517
12565
12221
12568
12508
12686
12781
13063
12774
12915
12484
12639
12507
13105
13193
13292
13350
13057
12674
13059
13049
13192
13391
12957
13067
12759
12739
12680
12871
12908
13093
13319
13403
13013
12752
12529
12450
12494
12838
12910
12672
12859
12449
12287
12218
12279
12650
12456
12430
12612
12278
12182
12290
12137
12078
12156
12019
12018
12085
11787
11528
11164
11210
11591
11451
11503
11439
11187
10693
10286
9383
8904
8784
8246
7083
6177
5150
4628
4715
5003
5806
6789
8248
9737
11257
13437
15001
16704
17381
17866
18285
17878
17301
16264
15231
13796
13009
12901
12527
12452
12577
12395
11965
12141
11942
12337
12168
12350
12121
11852
11416
11640
11474
11868
11728
11771
11732
11897
11799
11457
11630
11573
11607
11503
11682
11719
11512
11155
11123
11055
10918
11322
11374
11307
10925
11065
10726
10683
10696
11025
11120
10891
11025
10773
10523
10168
10510
10421
10781
10754
10616
10164
9951
10008
9623
9615
9725
9874
9940
9857
9653
9427
9552
9569
9436
9828
9653
9640
9781
9577
9107
9279
9162
9450
9656
9836
9496
8847
8629
8666
8885
9148
9571
9547
9328
9038
8611
8664
8854
9239
8944
9062
8975
8997
9051
9044
8988
8986
8859
9324
9207
9166
9236
9065
9084
9341
9442
9719
10093
10108
9861
9902
9969
10345
10582
10674
11271
11201
11199
11371
11343
11173
11600
11802
11715
12039
11722
11858
11809
11661
12132
12322
12399
12365
12003
12110
11677
11780
11456
11494
11866
11740
12080
12072
11704
11790
11419
11445
11838
11710
11704
11787
11523
11278
10889
10887
10963
11290
11297
10988
10923
11131
11092
11069
11111
11003
11204
11558
11179
11129
10809
10391
10436
10853
10736
11030
10719
10628
10814
10783
10795
10847
10692
11069
11135
11079
10640
10435
10612
10461
10680
11131
10940
11132
11008
10634
10810
10776
10815
10685
11097
10897
11017
10491
10551
10608
10631
10933
11327
11270
11125
10742
10644
10808
10480
10479
10822
10700
11048
11020
10877
10460
10420
10830
11108
11329
11343
10891
10872
10433
10424
10797
10676
10739
10696
10821
10393
10229
10119
10352
10156
10510
10572
10554
10192
10282
10105
9723
9697
10030
9883
9931
9873
10009
9637
9826
9832
9662
10053
9872
10012
9437
9334
8899
9235
9203
9399
9766
9830
9850
9773
9354
9511
9366
9643
9863
10109
9662
9465
9376
9374
9433
9838
10061
9967
9927
9712
9781
9779
9668
10059
10111
9885
9947
9979
9885
9682
9772
9779
9677
10087
9857
9997
9838
9741
9745
9816
9642
9721
10074
9921
9950
10076
9824
9372
9396
9606
10056
10075
9691
9801
9431
9556
9154
9099
9198
9577
9507
8923
8743
8124
7847
7803
7155
6925
6033
5393
3995
3133
2431
2336
2455
3036
3946
4489
5593
7103
9232
10967
12705
14155
14526
14773
14795
14549
14181
12984
11971
11356
10410
10104
9414
9148
9272
8900
9011
8687
9056
9289
9160
9268
8631
8494
8296
8090
8523
8381
8566
8096
7887
8056
7818
7844
7843
7888
8292
8456
8451
8212
7644
7761
7620
7847
8243
8231
7900
7862
7863
7855
7837
7866
8238
8106
8070
8052
7394
7101
7090
7329
7611
8003
7963
7589
7759
7739
7758
7789
7576
7616
7591
7684
7133
6835
6967
6838
7109
7328
7375
7551
7464
7162
7116
7284
7189
6893
6891
6839
6942
6747
6353
6325
6381
6731
6589
6942
6939
6777
6505
6269
6196
6026
6417
6502
6495
6419
6052
6213
6197
6047
6496
6680
6783
6551
6533
6759
6746
6556
7027
7128
7719
7580
7689
7445
7083
7462
7727
7993
7931
8294
8071
8311
8071
8466
8749
9073
9285
9323
9248
8892
9060
8988
8961
9035
9224
9181
9533
9198
9290
8954
9299
9500
9428
9772
9779
9755
9452
9368
9532
9507
9354
9817
10006
10035
9853
9540
9270
8927
9295
9486
9351
9574
9159
9228
8852
8848
8940
9305
9091
9298
8949
8853
8999
8601
8733
8716
8581
9004
9066
8963
8791
8709
8792
8968
8838
9065
8633
8401
8465
8090
8274
8242
8303
8508
8806
9030
9026
8790
8486
8318
8112
8538
8382
8542
8283
8028
7944
7821
8073
8544
8375
8341
8499
8116
8208
8016
7614
7616
8039
8243
8296
7878
7640
7783
7616
8050
7920
8236
8289
8297
7903
7620
7369
7340
7780
7970
8000
7638
7783
7726
7704
7731
7632
7922
8182
8476
8281
8047
7959
8013
8063
8016
7667
7604
7557
7706
7522
7107
7093
7499
7713
7606
7638
7590
7771
7704
7694
7788
7974
7893
7930
8048
7593
7759
7583
8011
7919
8064
8480
8355
8358
8458
8260
8208
8093
8552
8399
8369
8551
8507
8474
8163
8130
8456
8353
8440
8322
8298
8061
8022
7878
8226
8223
8209
8277
8103
8285
8020
7774
7554
7876
8449
8476
8212
7652
7756
7728
7686
7346
7328
7419
7746
7378
7084
6787
6934
7038
7207
7226
6939
6091
5370
4979
4473
3957
2971
2017
1311
598
-17
-39
519
943
2046
3563
5698
7801
9842
11199
12169
12889
13165
13386
13338
12468
11543
9889
8678
7852
7414
7550
7410
7606
7676
7795
7324
7492
7339
7732
7697
7445
6868
6927
6650
6963
6996
7014
6839
7259
7139
7111
6901
6623
6692
6665
6753
6623
6982
7010
6932
6759
6309
6464
6511
6396
6768
6765
6388
6486
6112
6080
6125
6469
6303
6342
6527
6060
6008
5732
5361
5691
5605
5975
5943
5546
5660
5340
5353
5656
5706
5750
5516
5729
5340
5385
5170
4780
4784
5160
5029
5017
4819
4524
4298
4246
4325
4668
4679
4631
4314
4258
4431
4067
3997
4026
4403
4274
4308
4462
4027
4141
4130
4007
4461
4350
4626
4293
4476
4235
4343
4493
4895
4775
5162
5005
5025
5230
5201
5068
5653
5833
6455
6373
6387
6369
6672
6531
6915
7030
6889
7261
7086
7081
7252
7203
7088
7709
7889
8169
8187
8306
8218
8263
8119
8459
8514
8344
8441
8435
8523
8279
7874
7897
8288
8174
8529
8555
8458
8219
7677
7792
7649
7923
8121
8083
7859
7647
7606
7993
7919
8285
8289
8220
7853
7948
7736
7535
7451
7524
7689
7554
7780
7362
7428
7060
7076
7439
7542
7307
7483
7087
7211
6878
6859
6895
7248
7150
7307
7354
7478
7226
7025
7020
7192
7125
7450
7134
7290
7207
6870
6795
6793
7172
7101
7447
7090
6861
6922
6619
6944
6786
6876
7219
7261
7180
6955
6699
6335
6691
6602
6645
6778
6360
6300
6345
6385
6370
6379
6759
6958
6810
6969
6720
6508
6473
6341
6751
6560
6759
6381
6524
6464
6467
6275
6671
6634
6864
7210
7038
6672
6123
6140
6674
6921
6624
6336
6087
6099
6312
6758
6541
6746
6738
6542
6563
6704
6469
6241
6148
6239
6428
6297
6504
6047
5820
5937
5894
5896
5932
6011
5832
5808
5631
5653
5289
5668
5937
6155
6185
5801
5906
5582
5604
5924
6000
5837
6207
6033
6020
6166
5770
5957
5775
6254
6306
6567
6637
6754
6300
6520
6738
6812
7279
7266
6846
6651
6748
6389
6380
6748
6918
7009
6948
6556
6725
6719
6733
6743
6541
6916
6995
6643
6394
6439
6431
6344
6771
6569
6555
6561
6580
6768
6324
6132
6071
6418
6274
6498
6025
5992
5516
5642
5483
5167
4710
3975
3479
2780
1715
418
-423
-951
-926
-645
-570
-90
1047
2184
3995
6025
8068
9896
11257
11990
12389
12118
11587
10857
9705
8976
8019
7205
6335
6180
5960
5920
5789
6029
6282
6672
6344
6096
5782
5518
5372
5348
5667
5728
5693
5285
5095
5234
5247
5102
5501
5357
5649
5324
5429
5021
5210
4992
5089
5451
5263
5488
5055
4788
4590
4872
4843
5064
5085
5161
4952
4870
4909
4955
4936
4894
4923
4787
5153
4850
4876
4617
4301
4526
5127
5042
5140
4514
4445
4050
4058
4356
4402
4462
4241
4422
3988
4105
4136
4042
4413
4368
3981
4150
4122
3796
3899
3515
3546
3724
4143
4122
3872
3249
3195
3087
2952
3430
3308
3268
3390
3054
3331
3379
3400
3447
3603
3542
3869
3478
3265
3433
3281
3458
3569
3849
3855
3881
3899
3891
3930
4125
4248
4953
5045
5449
5445
5419
5467
5351
5533
5955
5818
5874
5868
5826
5808
5873
6041
6282
6533
6966
7002
6644
6769
6746
6622
6827
7221
7227
6883
7023
6921
6591
6562
6605
6971
6849
7183
6869
6915
6389
6488
6313
6584
6854
7203
6855
6962
6620
6610
6631
6651
6916
6646
6580
6711
6317
6481
6474
6305
6726
6926
6831
6855
6956
6693
6471
6408
6492
6354
6390
6307
6408
6250
5874
5829
5879
6265
6408
6457
6090
5864
5908
5584
5942
5857
6221
6197
5829
5966
5622
5565
5544
5585
5934
6012
6001
5908
5547
5741
5722
5739
5577
5766
6207
6221
6011
5724
5328
5670
5605
5998
5762
5954
5576
5651
5463
5377
5457
5635
5505
5750
5663
5340
5324
5332
5367
5724
5625
5990
5948
5519
5343
5262
5273
5323
5650
5747
5564
5519
5328
5100
5239
5024
5415
5299
5653
5680
5355
5480
5397
5455
5356
5722
5687
5299
5424
5065
5209
4846
4850
5032
5288
5663
5274
5230
4949
4559
4575
4921
4763
4818
4789
4927
4523
4711
4551
4783
5008
5085
5231
4754
4542
4679
4674
4517
4945
5128
5237
5219
5120
4799
4857
5011
5418
5250
5282
5287
5496
5098
5146
4751
4806
5032
5256
5300
5400
5182
4795
4786
4845
5174
5002
5087
5110
5006
4790
4589
4565
4757
5026
5435
5388
5224
4842
4842
5195
5046
5387
5479
5317
5331
5426
4858
4560
4709
4567
4748
4809
4943
4707
4417
3805
3643
2979
2900
2289
1677
660
-578
-1611
-2083
-1720
-1277
-722
-309
659
2360
4001
6095
8290
9799
10799
11384
11398
11587
11104
9976
8917
7934
7439
6649
6492
6144
5630
5748
5698
5672
5652
5671
5747
5553
5737
5485
5171
4743
4804
4996
5388
5105
5195
4974
4499
4329
4266
4342
4506
4880
4601
4710
4275
4411
4394
4463
4304
4613
4313
4441
4045
4212
4188
4217
4039
4402
4459
4367
4135
3898
3545
3852
3935
3962
3957
3714
3712
3866
3669
3252
3253
3655
3544
3557
3677
3220
3061
3009
3067
3437
3273
3281
3455
3055
3138
2728
2924
2749
3174
3048
3045
3191
3076
2747
2934
2852
2835
2715
3198
3052
3150
2555
2567
2618
2907
3176
2963
2762
2457
2210
2358
2412
2593
2837
2805
3198
2985
2972
2956
2969
3027
3392
3281
3672
3485
3472
3681
3698
3861
4168
4266
4544
4931
4942
4929
4967
4806
5185
5064
5477
5644
5758
5749
5357
5472
5482
5698
6002
6190
6145
5928
5706
5350
5375
5707
5522
5573
5598
5578
5507
5683
5660
5723
5577
5925
5945
5605
5682
5462
5047
5044
5447
5632
5736
5734
5689
5665
5655
5374
5355
5665
5543
5910
5613
5656
5398
4999
5035
5438
5325
5657
5669
5639
5326
5248
5433
5425
5259
5676
5561
5587
5726
5288
5423
5453
5358
5528
5558
5651
5118
5135
4779
4810
5170
5057
5468
5314
5263
5050
4825
4778
5216
5488
5674
5719
5690
5649
5339
5269
5500
5322
5710
5748
5324
5003
4965
4597
4950
5168
5386
5277
5337
5326
5279
5468
5390
5065
5024
5022
5028
4993
5146
4745
4873
4550
4552
4871
4981
4820
4795
4586
4270
4048
4068
4285
4496
4540
4679
4265
4404
4072
4024
4032
4367
4445
4414
3996
3806
3724
3801
3978
4427
4326
4665
4655
4284
4370
3991
4008
4422
4618
4480
4491
4731
4524
4897
4991
4755
4755
4825
5200
5219
4789
4528
4670
4572
5138
5114
5406
5041
5145
4736
4606
4564
4925
4861
5226
5145
4949
4556
4545
4574
4564
4570
4937
4845
5138
4963
4728
4680
4880
5123
5171
4742
4514
4612
4225
4014
3750
3841
3874
3779
4140
3790
3466
2978
2448
1979
1813
1283
194
-712
-1965
-3190
-3620
-3248
-2726
-2173
-1095
531
1933
3813
6000
7723
9008
9788
9917
10260
9994
9261
7861
6614
5631
5042
4968
4699
4417
4177
3786
3766
4099
3987
4393
4463
4410
4013
4105
3960
3850
3548
3861
3753
4160
4197
3810
3576
3636
3605
3491
3958
3831
3790
3871
3667
3266
3219
3261
3611
3707
3489
3691
3297
3367
3187
3089
3129
3035
3207
3240
3363
2945
3173
3060
3259
3634
3636
3295
3401
2944
2743
2882
2900
2746
3096
3124
3079
2712
2547
2631
2287
2580
2433
2495
2432
2271
2355
1976
2169
2143
2124
2108
2095
2062
1711
1528
1570
1188
1226
1644
1529
1792
1414
1244
1351
1000
991
1354
1276
1639
1567
1364
958
1005
1209
1423
1812
1869
1897
1897
1858
1819
1857
1759
2002
2251
2677
2480
2452
2671
2467
2912
2949
3258
3484
3576
3558
3526
3855
3819
4370
4349
4705
4694
4645
4339
4283
4265
4627
4888
5196
5113
5068
5140
4965
4876
4607
4899
4976
4791
4768
4874
4689
4626
4486
4941
4837
5157
5156
4833
4928
4708
4308
4350
4533
4954
4978
4886
4525
4708
4647
4329
4297
4326
4631
4631
4308
4464
4378
4089
4405
4313
4510
4585
4676
4072
3740
3858
3933
4106
3992
4039
3982
3825
3868
3704
3689
3561
3719
3775
3950
3536
3643
3296
3289
3615
3472
3562
3567
3486
3633
3278
3445
3371
3367
3226
3658
3474
3317
3004
2761
2766
2985
3221
3322
3305
3276
3265
3209
3337
2981
3020
3401
3426
2991
2719
2823
2882
2782
3142
3195
3030
3424
3230
3362
3121
2709
2765
2951
3334
3033
3117
2706
2925
2745
3120
2971
3066
3424
3236
3443
2991
2738
2851
2901
2800
3147
3090
2695
2835
2525
2511
2548
2928
3109
2985
2978
3108
2718
2932
2725
2814
3158
2978
3032
3056
3054
3041
3053
3380
3266
3461
3879
3883
3684
3393
2947
2954
3339
3454
3245
3263
3277
3234
3358
2969
2968
3385
3326
3648
3283
3341
3157
2786
2764
3112
3017
3367
3014
2765
2554
2531
2902
2738
2760
2807
3187
3007
3106
2484
2177
2404
2586
2472
2668
2215
2030
2149
1722
1451
1373
765
592
-297
-932
-1988
-3029
-4141
-4709
-4930
-4514
-3994
-3445
-2414
-1119
792
2543
4928
6540
7841
8753
8632
8399
7893
7437
6341
5723
4883
4125
3242
2790
2522
2661
2675
2816
2779
3191
3135
2856
2278
2374
2424
2291
2581
2238
2391
2362
2360
2003
1754
1495
1434
1887
2153
1958
1718
1607
1407
1247
1517
1725
1734
1836
1625
1188
1347
1363
1216
1589
1614
1249
1313
1114
679
775
407
402
788
727
1108
1073
662
791
826
761
936
899
860
205
-89
57
38
-259
-317
-303
73
-63
-74
25
-145
-173
-291
-101
257
-49
45
-133
-243
-252
-176
-330
-282
-337
-236
-437
-883
-753
-1033
-682
-503
-587
-530
-636
-838
-729
-685
-429
-335
-80
-61
-259
-247
-594
-198
84
352
254
544
230
137
353
212
506
1116
1360
1189
1213
1555
1459
1855
1681
1770
1944
2430
2591
2594
2210
2313
1986
2308
2241
2479
2909
2688
2873
2551
2822
2883
2909
2879
2833
2527
2435
2282
2398
2386
2251
2649
2446
2662
2593
2275
2176
2017
2125
2110
2015
2242
2615
2284
2340
2155
2074
2075
2089
2085
2071
2061
1780
1721
1918
1674
2060
2003
2394
2348
2119
1816
1590
1544
1424
1916
2128
1948
2107
1897
1441
1605
1633
1467
1807
1819
1459
1256
1307
964
1294
1202
1595
1646
1631
1584
1259
1192
1188
1545
1449
1821
1836
1792
1495
1451
1625
1545
1570
1477
1903
1901
1433
1401
954
944
1322
1238
1659
1499
1462
1538
1315
948
1007
1399
1195
1332
1086
830
403
612
426
809
645
640
809
463
418
391
614
616
464
651
1032
704
457
182
271
-36
-34
-15
261
256
-76
39
-312
24
295
626
847
876
491
533
317
-66
-38
133
586
431
424
405
451
791
842
869
713
917
1339
1298
1045
781
470
641
1138
1289
1303
943
760
821
463
792
742
937
1011
981
915
1096
754
701
1035
996
1216
1262
1346
1078
864
507
486
496
771
508
434
550
153
353
156
536
606
214
33
-660
-1443
-2183
-3139
-3891
-4714
-5453
-5924
-5814
-5948
-5352
-4992
-3731
-2289
-477
1261
3390
4564
5643
5987
6156
6055
6066
5917
4744
3526
2623
1529
1326
899
1128
1102
729
768
541
147
375
139
128
317
-19
-71
-96
96
-302
-214
-548
-226
-363
-350
-253
-491
-659
-686
-854
-455
-568
-230
-519
-414
-846
-683
-671
-867
-807
-483
-425
-459
-645
-907
-1303
-947
-701
-778
-790
-679
-1068
-1121
-1123
-1113
-1097
-1065
-1046
-1091
-947
-1335
-1180
-1232
-1224
-1395
-981
-1087
-1081
-1283
-1610
-1874
-1686
-1837
-1436
-1616
-1643
-1490
-1882
-1734
-1743
-1889
-1474
-1644
-1450
-1903
-2168
-2180
-2629
-2655
-2231
-1969
-2066
-2128
-2341
-2257
-2265
-2419
-2337
-2352
-2420
-2226
-2271
-2584
-2652
-2662
-2275
-1990
-1911
-1416
-1602
-1647
-1427
-1629
-1233
-1308
-1110
-667
-820
-875
-1058
-954
-1151
-853
-209
83
-69
-104
100
-115
313
571
807
691
747
1037
1078
1090
1053
1024
1087
993
1153
1189
1331
1146
732
658
695
1096
1310
1251
1586
1252
1333
935
941
1350
1540
1619
1257
1292
1083
728
749
1101
958
1285
1007
1134
682
486
596
532
570
439
838
885
793
391
583
396
787
644
718
751
684
452
356
98
119
377
618
619
134
-117
27
49
97
-128
-81
267
337
289
122
-300
-335
40
-45
313
292
-86
8
-139
-218
-183
-293
-106
260
-43
38
-167
-561
-605
-585
-522
-175
-346
-329
-145
-241
-516
-160
-264
93
80
-313
-551
-843
-1082
-1122
-656
-583
-365
-129
-561
-460
-494
-423
-584
-254
-204
-206
-546
-447
-863
-684
-883
-453
-246
-131
-188
-389
-836
-854
-413
-157
7
48
51
86
124
82
-284
-343
25
297
571
417
561
352
-15
359
419
726
1064
876
568
350
300
352
151
200
551
418
471
638
218
132
222
416
806
782
633
205
335
262
-8
319
220
388
447
595
136
-29
-77
-44
-9
-18
-82
42
-157
-415
-715
-1306
-1419
-2067
-2234
-2779
-3578
-4912
-5798
-6628
-6892
-6645
-6404
-5584
-5144
-4111
-2615
-472
1574
3242
4793
5811
6524
6509
6148
5271
4704
3517
2882
2157
1615
941
877
452
486
673
1133
1002
1290
1003
906
708
460
568
390
653
1150
906
681
391
227
252
387
504
796
776
508
786
800
503
420
622
399
482
505
399
209
319
319
207
406
815
850
493
549
336
-49
-44
322
186
226
162
290
-102
49
-265
-276
18
66
33
-159
-487
-1050
-899
-752
-492
-575
-588
-479
-652
-1035
-1092
-1073
-745
-681
-696
-1074
-1000
-1178
-1581
-1430
-1460
-1634
-1220
-1374
-1195
-1428
-1911
-1718
-1875
-1499
-1463
-1501
-1806
-1867
-1737
-2155
-1941
-1719
-1550
-921
-1065
-927
-1325
-1335
-971
-1092
-706
-802
-620
-254
-552
-424
-443
-215
-57
601
830
884
890
704
1098
1004
1182
1654
1895
2050
1753
1795
1587
1576
1521
1776
1924
1956
1966
2016
2307
1992
2138
2120
2007
2215
2285
2377
2085
1879
1912
2159
2197
2619
2578
2384
2164
1758
1707
1718
1748
2050
2109
2148
2130
1781
1912
1838
1860
1692
1760
1744
1897
1501
1644
1612
1425
1840
1781
2163
2118
1907
1643
1216
1204
1555
1657
1447
1421
1589
1198
1315
995
1319
1236
1420
1519
1500
1657
1545
1219
1231
1584
1484
1879
1907
1528
1586
1216
1562
1814
2051
2129
2063
1719
1679
1902
1834
1523
1862
2114
2379
2190
1995
1684
1504
1831
2069
2018
2037
2117
1869
1439
1415
1528
1695
2080
2135
2139
2126
2089
1735
1828
1441
1449
1868
2060
2120
1759
1863
1820
1690
2174
2399
2303
2634
2615
2247
2336
1946
1939
2346
2569
2466
2449
2564
2180
2184
2579
2499
2896
2739
2808
3083
2756
2861
2460
2672
2504
2930
3076
3095
2694
2457
2301
2620
2860
3088
3140
2766
2874
2535
2482
2660
2616
2467
2726
2944
3168
2898
2637
2619
2824
2775
3075
2729
2880
2530
2616
2356
2165
1951
2178
2599
2266
1990
1666
1586
922
444
261
-382
-673
-1879
-3161
-4093
-4740
-4747
-4342
-3743
-3190
-1772
-190
1455
3492
5731
7464
8747
9194
9584
9263
8360
7727
6678
5358
4725
4147
3857
3694
3252
3046
3197
3029
3245
3673
3670
3259
3057
3136
2734
2881
2841
2891
2737
2793
2720
2504
2219
1994
1935
2309
2254
2678
2486
2445
2599
2245
2227
2588
2524
2941
2693
2529
2286
2337
1967
1946
2001
2364
2217
2250
2414
1979
2067
1751
2082
1974
2322
1996
1762
1488
1602
1662
1835
1714
1749
1733
1734
1738
1670
1509
1594
1260
1545
1608
1614
1267
1369
962
1150
971
1186
1454
1893
1899
1477
1215
975
1123
939
1382
1255
1173
900
642
872
1100
1184
1505
1775
1983
2305
1920
1697
1857
1748
2020
2201
2195
2329
2171
1748
1875
1916
1965
2681
2776
3098
2751
2781
3056
3700
3964
3758
3927
3842
3572
3899
3779
4176
4008
4053
4405
4670
4849
5265
5661
5430
4766
4541
4756
5279
5895
5679
4958
4003
3818
4415
4596
4755
4919
4577
4873
4930
4925
4971
5193
5470
5491
4860
4325
3997
3972
4092
4430
4442
4427
4371
3976
3810
3742
3803
4130
4101
3741
3956
3800
4210
4007
4126
3577
3254
3059
3340
3250
3306
3037
2517
2390
2234
2758
3288
3462
3263
2946
2705
2825
2517
2847
3082
3333
3382
3190
2713
2699
3190
3246
3692
3699
3604
3225
3360
2980
3119
2793
2798
3154
3339
3269
3323
3444
3198
2779
3098
3060
3443
3043
2691
2651
2592
2464
2845
2907
2774
3052
3601
3642
3344
2692
2518
2887
2797
2755
2494
2234
2178
2582
2531
2937
2800
2982
3227
3675
3685
3246
3008
3149
2965
3408
3318
3611
3248
3039
2789
2858
2859
3106
3231
3492
3704
3427
3185
3186
3378
3308
3638
3659
3698
3685
3250
2997
2947
3277
3813
4433
4410
4161
3740
3769
4113
4111
3823
4189
4479
4733
4703
4379
3771
3951
4223
4647
4931
4903
4324
4125
3517
3707
3944
4015
4358
3814
3607
3066
3067
3369
2955
2885
2593
2332
1814
863
-538
-1161
-1839
-1733
-1758
-1506
-745
180
1471
2781
4631
6389
8400
9725
10113
9967
10058
9658
9203
8553
7476
6366
5852
5516
5450
5145
4892
4701
4348
4684
4914
4818
4940
4297
3973
3986
4255
4712
4628
4062
3721
3695
3421
3139
2697
2719
3170
3384
3279
3640
3458
3695
3284
3363
3368
3587
3543
3493
3434
3106
2743
3128
3360
3607
3863
3815
4102
3925
3709
3686
3889
4109
4133
3943
3647
3039
2872
2210
2047
2257
2936
2990
3008
3113
2746
2712
2900
2492
2608
2583
2598
2212
2174
1698
2109
2450
3219
3764
4135
3931
3666
3442
3153
2676
2095
1419
1559
1595
1260
998
1028
1085
1173
1853
1930
2395
2232
2420
2175
1916
1898
1939
2588
2508
2639
2396
2007
2304
2177
2576
2494
2732
2979
3402
3220
3282
3651
3529
3897
3746
4162
4375
4257
4235
4420
4267
4894
5074
5255
5064
4941
4647
4282
4291
4619
4546
5124
5448
5308
5431
5008
5083
5734
6243
6292
6462
5790
5302
5234
5137
5139
4826
4946
4591
4868
4947
4981
4977
4814
5116
5563
6209
6111
6269
5774
5522
5290
5059
4836
4945
4918
4950
4902
4711
4239
4465
4706
4824
5101
5423
5103
5063
5378
5453
5399
5186
4944
4583
4881
4889
4703
4403
4012
4478
4906
5241
5045
5163
4979
4528
4267
3992
4134
4029
4286
4347
4089
3965
3535
3964
4052
4283
4286
4428
4359
4363
4083
3997
3983
4434
4538
4820
4765
4341
3736
3222
2997
3361
3669
3925
3917
3683
3255
3680
4164
4619
4717
4474
4215
4183
4015
4163
3506
3334
2984
3281
3922
3831
3782
3748
4123
4051
4403
4421
4460
4244
4382
3763
3296
3018
3336
3627
3912
3765
3937
3510
3656
3477
3766
4387
4638
4683
4334
4467
4075
4147
3727
3727
4161
4093
4384
4046
4005
4043
4052
3999
4055
4642
4842
5010
4887
4183
3662
3636
3954
4216
4151
3563
3208
2983
3088
2854
2234
2113
1842
1572
755
-269
-1548
-2600
-2800
-2917
-2207
-1675
-1342
-539
658
2579
4342
6383
8286
9288
9453
9798
9450
9098
8364
7330
6280
5749
5009
4898
4225
3776
3462
3669
3845
3812
4170
4101
3949
3850
3878
3717
3745
3897
3508
3485
3523
3660
2970
2641
2046
2193
2899
2973
2957
2733
2853
2694
3170
3071
3357
3067
3020
3192
2760
2511
2603
2450
3093
3298
3563
3521
3265
2971
2754
2913
2704
3096
3145
2700
2580
1995
2147
1940
1947
2142
2156
2327
2254
2262
2356
2173
2106
1940
2185
2533
2786
2934
2420
1824
1564
1482
2085
2308
2304
2127
1827
1205
955
1014
1569
1528
1442
1164
953
929
1011
1405
1417
2064
2357
2315
1698
1571
1168
1242
1585
1263
1333
924
937
1388
1421
1681
2114
2028
2267
2546
2733
2756
2688
2899
2897
2909
2734
2982
3614
3869
3539
3262
3432
3548
4444
4893
4940
4532
4506
4896
4940
4497
4274
4281
4539
4740
4604
4444
4107
4165
4339
4805
5203
4961
4618
4291
4552
4795
4912
4445
4104
3988
4664
4547
4385
3477
3428
3710
4030
4709
4541
4699
4614
4333
4328
4328
4613
4688
4509
4710
4431
3941
3453
3017
3256
3936
4170
3827
3902
3917
4133
4015
4143
3878
3507
3848
3899
3469
3403
2949
3067
3679
3780
4221
4200
3785
3559
3308
3338
2960
3009
3429
3290
3234
3064
3001
3447
3515
3956
3882
3699
3590
3273
3338
2709
2624
2577
2828
3128
2980
3124
2918
2464
2300
2183
2417
2257
2598
2267
2031
2059
1786
2038
2445
3104
3384
3222
3335
2742
2644
2251
2684
2774
3036
3341
3011
2989
3066
3412
3440
3205
3585
3551
3948
3579
3275
3055
3417
3555
4218
4359
4182
3845
3294
3428
3223
3606
3704
3467
3700
3706
3493
3502
3680
3586
3322
3670
3512
3521
3707
3651
3633
3602
3299
3587
3547
4161
4436
4391
3739
3244
2961
2990
3365
3002
2837
2032
1873
1614
1339
672
192
-294
-650
-1840
-2749
-3714
-4074
-3825
-3268
-2821
-1520
-102
2393
4698
6280
7776
8388
9128
9656
9854
8685
7064
5278
4165
3431
3148
2753
2896
2861
2933
2756
2760
2803
3023
3601
3479
3206
2863
2017
1760
1928
2606
2752
2976
2991
3142
2722
2818
2550
3132
3528
4380
4412
3531
2762
2677
2517
2476
2111
901
551
450
1405
2118
2239
2564
2303
2479
3178
3645
3601
2437
985
113
-313
229
657
770
211
416
1401
1767
1758
1613
1206
1799
2170
1781
1176
890
818
1066
983
936
1123
949
1342
1332
901
729
710
1090
976
1006
1102
777
165
-23
296
211
551
524
250
545
566
237
171
535
781
675
804
249
280
-15
299
353
169
600
858
1066
1109
740
878
680
992
1443
1772
1771
1492
1214
1186
1415
1741
2319
2654
2733
2958
2971
3095
2779
2947
3287
3868
3768
3950
3698
3395
2982
3380
3527
4206
4387
3980
3903
3620
3288
3674
3867
3951
3859
3708
3706
3952
4029
4444
4087
4182
3968
4241
4720
4309
3759
3395
3104
3013
3630
3543
3613
2964
2891
2511
2511
2526
2853
3081
3437
3472
3493
3232
3188
3172
3289
3826
4095
4122
3616
3343
3295
3934
3735
3631
3033
3348
3594
3249
2724
2255
2625
3188
3603
3280
2998
3194
3369
3394
2806
2615
2423
2574
2554
2856
2681
2186
2030
2029
2206
2464
2840
2636
1936
1860
1915
1996
2225
2417
2305
2230
2932
2962
2762
2278
2005
2418
2505
2870
2607
2174
1816
1655
1465
1734
2328
2209
1980
1794
1229
1238
1661
1492
1510
1680
2334
2450
2486
2190
2160
1936
2280
2872
2899
2589
2172
1688
2084
2259
2716
2965
2995
3007
3434
3690
3503
3261
3158
2733
2808
3095
2535
1945
1439
1576
1800
2118
2398
2440
2780
3011
2944
2889
2676
2817
3171
3069
2805
2574
2023
2318
2208
2188
2029
1988
2192
2681
2569
1759
1355
1033
900
1385
1023
462
-320
-1055
-1452
-2400
-3184
-3963
-4622
-5122
-5415
-5405
-4984
-4124
-2862
-952
1086
3053
5069
6777
7329
7660
7965
7792
7128
6746
5630
4545
3588
2278
1701
1687
1938
2312
1929
1751
1766
1963
2355
2006
2051
1731
1970
2644
2912
2532
2354
1735
2079
2615
3165
3197
2585
1492
1281
1387
1455
1528
1569
1402
1274
1800
1897
1530
1508
1784
2185
2631
2204
2098
1814
1438
1657
1591
1200
1293
908
1100
1078
1038
746
1129
1264
1775
2325
1948
1847
1587
1260
1175
899
779
571
435
766
1013
988
720
416
581
771
1030
749
576
10
-562
-239
8
-67
308
236
457
794
387
144
279
321
140
156
130
301
13
-798
-1332
-1386
-801
-11
538
92
-852
-1032
-199
411
1114
875
359
-112
162
855
1064
732
646
1050
1364
1567
1272
1377
1293
1323
1391
1538
1918
2256
2726
2721
2279
2144
1976
2442
2810
2776
2529
2434
2522
2524
2590
2235
2558
3210
3899
3678
2728
2183
2239
2744
3398
3332
2705
2454
2507
2887
2491
2341
1742
1728
1933
2004
1761
1413
1575
1841
1989
2249
2270
2409
2041
1986
1939
2096
1685
1832
1917
1951
2223
2425
1699
1360
1076
983
1550
1617
1366
1069
733
1130
1315
1157
1197
1231
1225
1405
1315
1022
993
1113
889
780
721
1358
1547
1313
820
219
546
690
1389
1629
1570
1280
691
780
879
907
1191
1618
1450
1508
1478
1260
920
697
759
974
1005
644
318
-310
78
612
897
1386
1315
1147
1031
670
775
444
887
1318
1461
1803
1614
1163
1399
1239
1561
1603
1487
1704
2056
1917
1451
1443
1703
2035
2213
2205
2384
2307
1966
2159
1985
2264
2831
2931
2493
2192
1998
1951
1928
2079
1700
1723
1935
2208
2611
2299
2400
2324
2413
2599
2460
2646
2410
2133
1689
1901
1715
2103
1987
2320
2009
2094
1903
1801
1822
1876
1891
1904
1707
1733
1825
1170
706
384
215
-5
-228
-1017
-2011
-3070
-4062
-4818
-5458
-5468
-5224
-4563
-4199
-2995
-1686
-294
1692
4185
6052
7730
7839
7694
7247
6911
6868
6487
4863
3636
2533
2449
2831
2626
2162
1686
1999
2834
3118
2559
2167
1413
1621
1904
2164
2138
1840
1247
1370
1195
1573
1559
1161
1319
1397
1589
1469
1430
1245
1304
959
1284
1227
1459
1823
1437
1354
1048
1074
1250
1779
1945
1828
965
866
666
905
1295
1328
1176
1597
1553
899
392
188
639
673
731
818
407
429
794
878
691
1060
905
1115
873
536
-9
56
-308
-335
-271
92
-105
109
17
-327
-145
-222
-541
-247
-338
95
88
-195
-853
-1045
-851
-149
-58
-81
-200
-650
-1122
-730
-397
-143
-161
-610
-425
-165
299
612
565
300
-95
304
547
589
331
-294
-202
28
385
1183
2118
2413
2012
1684
1794
1752
2185
2530
2823
2604
2345
2000
2390
2439
2811
3399
3598
3591
3375
3096
2709
3098
3379
3315
3286
3395
3067
3352
3041
2779
2464
2649
2920
3011
3046
2924
2420
1945
2185
2930
3013
2986
2708
2473
2446
2538
2528
2623
2230
2568
2550
2689
2858
2679
2594
2634
2651
2301
2177
2402
2202
2191
2009
1745
1857
1709
1997
2221
2424
2084
1661
1173
1232
1464
1688
2063
2087
1790
1692
1833
1532
1859
1724
1779
1703
1518
1537
1290
1091
1041
959
1565
1884
1700
1470
1363
1146
980
1552
1813
1793
1271
1014
941
973
914
723
847
704
985
1160
1309
755
785
511
894
1034
1106
1061
860
540
-9
-81
369
392
509
625
337
73
-347
-189
-252
-523
-211
-368
-295
-267
3
44
114
-59
308
190
530
204
-53
-366
-515
-140
-103
159
530
521
206
383
304
285
129
591
770
509
539
-45
-317
-190
-177
-325
101
299
180
149
-95
-146
-531
-353
-11
161
-65
-584
-1038
-1120
-843
-215
14
67
91
-72
281
-12
72
-329
-290
-114
-34
17
-390
-741
-1113
-1115
-1293
-1797
-2261
-3039
-4156
-5048
-6568
-8186
-9434
-9979
-9891
-9464
-8915
-8451
-7083
-5672
-3271
-954
897
2493
3684
3729
3557
3372
2855
2375
1908
1332
595
-171
-721
-916
-1084
-888
-394
-349
-39
338
-93
-383
-205
26
314
142
315
306
161
187
257
96
312
872
1297
945
490
204
626
742
902
764
888
1030
1348
1263
1386
1104
704
1067
1298
1210
1240
1212
1244
1595
1423
1460
1496
1852
1726
1761
1866
1577
1328
1291
1237
1818
2082
2147
1773
1871
1818
1891
1745
2054
2056
1776
1678
1446
1399
950
995
1192
1602
1642
1645
1662
1624
1231
1383
1258
1875
1934
2175
1865
1558
1222
1579
1416
1415
1646
1421
1470
1457
1604
1205
1395
1240
1796
1966
2571
2638
2375
1721
1490
1862
1987
2642
2850
2829
2455
2656
2498
2745
3348
3488
4108
4037
4190
3863
3320
3612
3746
4460
4630
4429
4112
3733
4135
4389
4305
4636
4485
4952
5186
5027
5156
4893
4696
4730
4966
5196
5215
4740
4707
4270
4254
4336
4699
4536
4575
4502
4331
4432
4402
4242
4618
4683
4702
4685
4306
4000
3561
3216
3400
3300
3711
3674
3232
3338
3063
3384
3212
3304
3694
3850
3919
3850
3694
3276
3438
3209
3624
3842
3956
3851
3636
3308
3504
3800
4188
4144
4126
3986
4046
3786
3243
2784
2701
3187
3423
3218
3384
3027
2982
3040
3287
3754
4268
4484
4470
3867
3043
3077
2956
3202
3323
3245
3069
2952
2946
2993
3049
3412
3596
3494
3663
3012
2512
2207
2199
2580
2644
2674
2818
3090
3017
3154
2823
2587
2650
2903
2796
2916
2579
2002
2121
1952
2218
2556
3084
3159
2764
2531
2636
2657
2547
2700
2801
3135
2967
3014
3189
2718
2492
2671
2524
2928
2931
2466
2414
1951
1998
2290
2929
3171
3124
2835
2271
2391
2416
2194
2421
2200
2457
3130
3398
3034
2940
2492
2701
3363
3284
3012
2482
2310
2154
2162
1920
2136
1778
1832
1200
646
-10
-482
-1548
-2413
-3182
-3674
-3847
-3558
-3667
-3052
-2280
-1011
409
2580
4297
6087
7407
8074
8462
8147
8088
7881
7498
6124
4826
3732
2986
2531
2578
2644
2931
3166
2804
2613
2110
1836
1816
1883
1677
1736
1790
1705
1419
1370
1321
1565
1809
1486
1386
747
805
771
817
707
987
1541
1625
1403
1035
483
588
535
548
404
836
692
660
836
866
765
909
940
898
1108
1026
841
597
220
594
837
732
696
815
415
246
-18
-311
-209
-380
-126
371
215
159
257
98
78
288
637
824
579
-277
-819
-678
-606
59
-58
46
-149
-178
-330
-267
-315
-368
-295
111
-116
-347
-492
-1078
-918
-1077
-682
-836
-489
-628
-256
-186
-146
-317
82
-28
334
133
134
333
-14
-3
231
891
1287
1272
1413
1848
2064
2157
1777
1842
1853
2146
2248
2612
2379
1743
1519
1877
2018
2496
2814
3091
2879
2665
2642
2538
2688
2717
2918
2866
2523
2279
2130
1794
1520
2084
2422
2226
1986
1670
1502
1522
1896
2060
2036
2568
2468
2589
1937
1803
1442
1902
2165
1949
1685
1259
905
1052
995
1438
1923
2187
2351
1760
1441
1275
1181
1285
1085
734
1067
956
1287
1022
1016
1325
1167
1555
1492
1706
1779
1830
1203
984
1351
1612
1442
1270
1332
1359
1544
1613
1207
1321
1209
1860
2149
1747
1186
836
549
617
774
482
205
-112
-261
30
115
-99
-67
335
389
719
1075
801
317
13
-108
541
492
576
335
204
678
1002
1074
393
560
696
1324
1150
512
-280
-309
352
875
1324
1642
1509
1655
1178
1319
1374
1177
1340
1145
731
840
579
288
-2
634
938
1272
1235
1347
1395
1579
1600
1325
686
475
467
424
186
-110
92
152
670
1156
1515
1762
2081
1821
1295
858
651
1190
1683
1520
661
-261
-542
118
542
300
-856
-1501
-2136
-1942
-2608
-3650
-4878
-5296
-5418
-4925
-4612
-4251
-4158
-3138
-1403
757
2963
5122
6442
6859
7113
7507
7320
7040
6426
5124
3881
3072
2603
2137
1214
491
314
149
685
1536
1501
1196
886
541
422
1132
1190
1328
863
138
-52
312
573
845
1049
1138
1064
841
554
270
28
-371
-306
-11
565
629
379
110
-100
245
771
441
177
315
144
152
-119
-202
-193
257
504
895
628
311
263
229
467
770
390
243
148
257
-373
-699
-1188
-1273
-951
-853
-809
-1027
-897
-701
-388
-589
-846
-1073
-684
-599
-519
-677
-1222
-1580
-1101
-206
-125
117
-268
-139
-628
-719
-935
-1087
-868
-700
-1201
-1752
-1927
-1698
-1614
-1361
-900
-684
-825
-676
-907
-1302
-981
-1044
-887
-832
-884
-762
-1102
-742
-459
-195
-322
96
531
1143
1542
1237
1011
1338
1518
2140
1775
1538
1117
1055
1013
1253
1651
1502
1686
1977
2268
2652
2253
2135
1493
1624
1868
2311
2617
2292
2111
1578
1339
1616
2016
2883
2776
2665
2108
1495
1522
2100
2226
2435
2613
2041
1665
1447
1517
2094
2249
2524
2530
2584
2370
2310
2388
2210
2194
2370
2306
2043
2304
2035
2009
1944
2075
1686
1670
2079
2000
2025
2135
1721
1707
2071
1943
2016
2005
2149
1666
1621
1373
1291
1381
1541
1651
1609
1399
1094
870
645
915
1195
1253
1331
1089
688
888
842
812
650
919
1183
1185
1126
426
376
293
321
337
276
-125
-317
-218
-217
-276
-3
156
150
351
354
371
278
98
-259
112
162
487
701
1043
1029
892
405
213
222
461
734
758
441
298
-41
602
966
1640
1622
1290
668
459
430
770
658
1046
1095
1046
699
811
581
322
-23
192
783
858
524
83
-263
381
693
1347
1279
1655
1470
1610
958
396
-105
-154
-543
-579
-583
-631
-794
-1079
-1365
-1254
-1248
-1537
-1666
-2895
-4402
-5790
-7270
-7737
-7551
-6867
-6704
-5857
-4957
-3095
-850
1548
3339
4552
5993
6743
6595
6060
5389
4088
3334
2414
1649
1101
472
177
-67
93
-9
589
665
1049
667
612
-25
-374
-627
-774
-862
-654
-647
-843
-794
-813
-826
-415
-356
-114
91
-204
-462
-777
-774
-896
-1032
-890
-152
301
295
-162
-870
-679
-451
-562
-416
-874
-734
-1091
-1313
-1564
-1570
-1009
-684
-653
-1144
-1338
-1316
-959
-968
-1314
-1317
-940
-1104
-1139
-960
-962
-931
-1014
-1200
-1272
-1325
-1027
-751
-1169
-1768
-2369
-1972
-1511
-1347
-981
-1194
-1817
-2137
-2004
-2151
-1909
-1461
-1465
-1899
-2064
-2071
-1704
-1897
-1715
-2087
-2114
-2098
-1948
-2217
-2475
-2470
-2392
-1674
-1584
-1206
-1272
-1652
-1459
-1652
-1252
-1390
-1336
-995
-1040
-500
-589
-612
-421
-530
-116
612
653
728
702
657
838
508
829
1110
1204
1609
1213
986
968
1206
1471
1810
1503
1506
1886
1736
1694
1861
1665
1946
2302
2537
2830
2440
2418
2054
1505
1474
1705
1940
2160
1892
1442
1514
1745
2155
1939
2307
2560
2505
2660
2033
1727
1731
1966
2392
2304
1750
1408
1358
1106
718
1074
1403
1497
1862
1661
1371
1009
1155
1602
1626
1266
1225
1278
1217
1141
473
633
703
1355
1405
1151
1040
1297
1622
1564
1149
878
1097
1577
1512
1153
774
317
280
598
747
919
687
204
-111
265
614
464
168
80
103
166
562
-24
-566
-834
-612
-109
557
420
536
309
-57
323
384
710
1150
1144
737
506
557
534
779
896
1382
1344
906
1042
744
888
395
203
254
771
732
713
504
593
400
718
1398
1457
1523
1624
1406
1009
934
1126
1087
1123
954
968
1088
851
395
548
513
545
387
433
211
-320
-854
-716
-616
89
-24
103
29
-102
-12
46
-575
-484
-571
-144
-445
-1251
-2365
-2873
-3084
-3408
-4108
-4766
-5553
-6126
-6930
-7519
-7805
-7043
-5627
-3737
-2135
-176
1557
3370
4957
5969
6108
6103
5846
5499
4475
2954
2056
987
502
246
174
232
527
378
83
-372
-314
126
-86
20
-355
40
352
218
-26
-382
-208
66
133
170
-78
-342
-169
-372
-312
-281
4
-276
-188
-506
-1070
-928
-1063
-796
-253
-326
-338
-527
-490
-507
-223
-82
378
-25
-373
-632
-439
-451
-863
-922
-1184
-1214
-1320
-972
-1345
-1587
-1437
-1201
-668
-377
-124
-328
-837
-1334
-1560
-1262
-1184
-1232
-1601
-1621
-1555
-1611
-1674
-2355
-2302
-2341
-1843
-1394
-990
-1209
-1920
-2315
-2362
-1789
-1471
-1878
-2599
-3439
-3551
-3304
-2792
-2435
-2248
-1970
-1794
-1251
-1662
-1926
-2656
-2817
-2515
-2514
-2845
-2503
-2379
-1855
-1406
-1064
-446
-308
-55
-87
-355
-406
-886
-716
-838
-178
343
441
782
795
719
1288
1239
1224
1406
1403
1375
908
868
774
722
1009
1165
1241
1660
1914
2077
1783
1900
1817
1822
1876
1726
2092
2053
1476
1009
1040
1311
1914
2419
2296
2364
1785
1495
1560
1544
1449
1888
1864
1568
934
751
1143
1249
1867
2074
2114
2060
1715
1833
1611
1324
1112
1132
1380
1650
1434
1155
714
387
603
832
909
1380
1286
645
254
199
795
980
1403
1015
1112
1121
913
745
393
175
559
856
686
410
-18
-290
-290
-93
179
421
814
782
607
141
-26
99
-286
-381
-133
-318
-287
-142
-604
-476
-399
-129
-77
335
-29
-359
-428
-502
-544
21
-49
-37
-97
104
12
-171
-580
-514
27
303
352
-45
-125
-28
366
150
164
585
863
730
489
284
-313
-328
-108
373
229
247
194
360
289
294
142
564
479
867
881
453
157
-65
-65
335
153
312
-93
118
119
-280
-611
-641
-862
-253
92
105
-234
-890
-1074
-753
-669
-1076
-1267
-2126
-2469
-3054
-3719
-4694
-6203
-6380
-6542
-6696
-6088
-5760
-4915
-3709
-2053
-40
2012
3921
4892
5220
5171
4776
4894
4348
3949
2876
1609
531
-355
-561
-555
-232
-356
103
-21
-126
-171
-416
-400
-195
-302
-339
-209
-569
-450
-713
-988
-1287
-748
-622
-212
-630
-869
-690
-866
-806
-888
-742
-730
-652
-709
-1014
-1639
-1485
-1182
-687
-611
-615
-872
-1151
-1291
-983
-764
-471
-254
-242
-415
-867
-694
-679
-671
-698
-712
-725
-1063
-987
-1390
-1380
-1024
-1306
-1273
-1464
-1659
-1195
-1207
-1865
-2358
-2221
-2103
-1602
-1159
-1596
-1854
-1710
-1756
-2151
-2325
-2035
-1702
-1588
-1558
-1688
-2185
-2673
-2274
-1959
-1762
-2067
-2048
-2580
-2482
-2439
-2199
-2140
-1887
-1531
-1854
-1764
-2169
-1933
-2062
-1887
-1819
-1872
-1871
-1630
-947
-641
-710
-1284
-1157
-765
3
588
562
61
-612
-225
145
1071
1407
1385
954
1049
690
665
1034
1002
1179
1404
966
1117
964
1397
1163
1013
945
1182
1878
1927
2115
1510
1195
1391
1587
1887
2122
2171
1726
1588
915
736
903
1563
1906
1664
1573
1091
790
861
981
1617
1450
1195
1065
831
839
694
747
747
1040
1099
761
440
267
-278
-308
92
268
161
539
580
255
203
627
759
1321
953
437
-80
-262
24
-371
-788
-1133
-755
-230
-57
-93
-204
-462
-621
-336
111
122
62
-257
-138
-412
-696
-764
-809
-245
-325
-347
-192
-249
-516
-513
-202
26
211
683
915
1031
414
136
138
620
825
810
560
-12
59
113
143
837
1285
1608
1458
1594
1343
1093
669
849
840
880
695
747
715
854
768
866
901
1225
1641
1568
1348
1127
752
1031
959
1244
1498
1828
1441
1245
1400
1208
1628
1502
1508
1618
1319
661
241
-78
48
104
-9
362
148
174
236
244
287
-184
-740
-1201
-1672
-2465
-3724
-5431
-6299
-6791
-6987
-6356
-5777
-5220
-4111
-2439
-718
980
3171
4521
5889
6298
6591
6691
5989
4904
3841
3111
2442
2359
1671
1177
721
385
238
613
667
896
757
244
-323
-555
-322
146
492
773
565
332
-65
81
-331
-229
-519
-183
-165
-565
-494
-499
-577
-188
-524
-432
-427
-223
-309
-365
-583
-490
-505
-434
-610
-558
-594
-775
-1065
-1282
-1286
-1146
-1036
-729
-842
-543
-307
-144
-500
-755
-650
-618
-557
-657
-1223
-1892
-1759
-1736
-1742
-1775
-1717
-1531
-1605
-1595
-1527
-1729
-1720
-1455
-1398
-1309
-1556
-1759
-2204
-2472
-2513
-2609
-2330
-2075
-1747
-2159
-2430
-2652
-2469
-2673
-2583
-2277
-2564
-2684
-2836
-2936
-2906
-2454
-2370
-1702
-1605
-1209
-1581
-1802
-1872
-1663
-1282
-674
-441
-529
-139
-374
-544
-775
-809
-530
122
311
-41
53
75
341
460
1081
1169
1455
1805
1607
970
697
754
1297
1270
1536
1195
1253
1498
1726
1732
1864
1919
2039
2481
2541
2305
1582
1128
896
1196
1430
1451
1584
1402
938
762
725
1124
1336
1174
1358
968
1143
1110
1081
1075
1143
1004
1314
1010
912
1079
748
673
649
748
945
1319
936
851
518
154
537
477
811
458
542
207
558
489
856
813
475
788
743
1123
651
131
-363
-521
-340
-87
-18
63
-528
-881
-1098
-1039
-457
-343
41
-142
-403
-464
-542
-322
19
14
80
-15
311
88
-389
-1079
-913
-846
-351
-10
279
115
-285
-286
58
122
118
84
54
18
-294
-327
-269
-105
354
525
388
453
410
182
52
-550
-622
-130
-82
-24
-276
-602
-431
-175
-23
536
637
630
632
400
620
219
297
-11
132
384
806
501
552
363
312
131
541
479
875
807
176
-379
-809
-895
-457
-518
-535
-830
-1319
-1529
-1690
-1451
-1331
-1285
-1822
-2456
-3273
-4138
-4549
-5526
-6936
-7571
-7874
-7620
-7042
-6297
-5648
-4469
-2885
-855
1452
3881
5480
6032
6409
5854
5358
4790
4438
3460
2498
1573
199
-202
-530
-291
-126
101
56
116
119
-154
-874
-1150
-704
-190
-62
-102
-153
-588
-212
-260
-284
-562
-814
-784
-548
-168
-606
-688
-1069
-506
71
233
177
-271
-459
-827
-640
-184
-194
-626
-786
-885
-766
-996
-1201
-1197
-956
-881
-396
-631
-785
-765
-977
-1342
-1319
-940
-1072
-1069
-990
-1262
-1429
-1568
-950
-874
-818
-751
-974
-1374
-1551
-1875
-1963
-2329
-2172
-1748
-2060
-2027
-2427
-2410
-2384
-2195
-2244
-2368
-2135
-2077
-2336
-2469
-2921
-2825
-2612
-2206
-2411
-2415
-2223
-2662
-2920
-3074
-2720
-2674
-2376
-1980
-1975
-1972
-2147
-1736
-1821
-1660
-1237
-1328
-960
-980
-1405
-1604
-1616
-1303
-511
-296
108
-317
-546
-603
-188
59
289
515
500
704
1044
1031
1060
978
1260
1498
1819
1429
1172
913
740
715
1096
1304
1215
1232
1310
723
635
188
520
837
956
1176
1157
1005
1143
1118
1116
1061
739
728
729
867
589
317
273
222
486
875
869
819
493
596
131
301
207
511
703
642
415
192
274
-123
68
-104
350
202
325
40
-178
-230
-180
-132
-331
33
127
98
-312
-206
-220
-379
-290
-265
-273
-315
-203
-474
-738
-1037
-510
-337
-46
-89
-145
-494
-641
-506
-205
88
-2
268
-83
6
-192
-590
-592
-225
-132
-239
-816
-901
-1016
-1067
-418
-327
121
-70
-54
-66
109
-299
-187
-240
-173
-280
-118
-13
-30
85
-296
80
539
1120
1167
971
476
363
358
567
429
613
248
254
594
592
224
165
561
823
745
709
499
229
-26
34
-301
49
277
231
543
190
300
-57
-108
127
-84
311
160
277
-165
-699
-996
-933
-689
-801
-849
-762
-1006
-1628
-2119
-2582
-2882
-3153
-3487
-4595
-6252
-7453
-7832
-7868
-7750
-6811
-5768
-4283
-2654
-565
1466
3232
4868
5584
6410
6290
6195
5382
4015
3130
2170
1208
734
439
532
169
287
85
-342
-348
87
297
354
-26
75
15
3
-341
-244
-550
-139
50
-292
-490
-1291
-1278
-1351
-694
-391
-587
-469
-676
-1107
-904
-1069
-653
-792
-505
-794
-892
-1076
-1311
-1183
-1303
-725
-488
-512
-714
-1133
-950
-1310
-1229
-1576
-1165
-1131
-1032
-1312
-1529
-2079
-1768
-1508
-1562
-1566
-1460
-1893
-1775
-2149
-2012
-2345
-2034
-2102
-1665
-1703
-2025
-2452
-2938
-2822
-2258
-2046
-2327
-2241
-2635
-2677
-2436
-2467
-2471
-2637
-2217
-2338
-2326
-2189
-2646
-2835
-2889
-2474
-2424
-1950
-2048
-2437
-2793
-2789
-2654
-2165
-1875
-1819
-1807
-1421
-1243
-1195
-1583
-1475
-1414
-1373
-1060
-709
-1074
-1133
-646
-162
301
531
598
457
676
1071
701
464
424
744
1221
1492
1422
1207
1351
1153
1271
1619
1461
1852
1671
1801
1215
897
1103
1386
1531
1739
1882
1608
1174
1180
1205
1319
1066
692
1097
1334
1354
1084
786
499
758
1336
1247
1221
1302
754
391
375
356
592
875
710
816
585
188
195
547
397
494
835
879
813
595
290
77
103
340
584
632
182
-109
-313
-344
27
-60
335
128
290
45
-532
-794
-854
-423
-381
96
101
-328
-513
-575
-525
-205
-168
-353
39
-90
-102
-277
-226
-529
-351
-57
148
367
68
-620
-718
-1077
-644
-568
2
-65
-28
-107
11
-354
-359
-281
13
-358
-605
-836
-674
-889
-770
-583
-312
-27
362
272
73
-288
34
-52
157
387
823
820
593
306
-93
-86
-108
22
-258
-22
532
241
78
-238
25
474
936
686
-29
-550
-560
-308
58
-325
-217
-221
-144
-153
-573
-824
-1027
-1067
-659
-422
-558
-439
-766
-1302
-1356
-957
-1090
-933
-1565
-2124
-2453
-2979
-3480
-4066
-4797
-5558
-6104
-6502
-6265
-5585
-5392
-4603
-3738
-2562
-591
1806
3324
4617
4961
4771
5233
5345
5742
5238
3824
2437
1566
892
556
138
344
140
197
143
-33
63
48
-112
-45
-82
82
2
-342
-214
-569
-242
34
363
521
140
69
-539
-790
-896
-854
-469
-627
-410
-840
-1030
-1134
-911
-938
-960
-900
-733
-841
-885
-1135
-1390
-1156
-900
-832
-458
-885
-942
-1183
-1547
-1628
-1489
-1535
-1610
-1007
-1058
-949
-1540
-1417
-1212
-967
-992
-1209
-1570
-1231
-1258
-1916
-2241
-2533
-2601
-1971
-2089
-2017
-2265
-2594
-2215
-2017
-2095
-1709
-1880
-1860
-1699
-1955
-2606
-2722
-3086
-2836
-2181
-1977
-2359
-2608
-2437
-2561
-2415
-2406
-2179
-2321
-2087
-1734
-1946
-2282
-2586
-2140
-1186
-705
-706
-1001
-1188
-1314
-732
-466
-616
-580
-242
-353
29
35
-346
-238
-226
73
572
732
1058
813
585
431
1107
1538
1444
1592
1164
1329
1286
963
915
999
1236
1459
1471
1249
957
1036
759
1095
968
1370
1215
1162
906
812
598
418
724
1018
1329
1119
798
565
520
608
445
468
429
631
575
247
148
330
339
180
549
562
137
82
-215
-598
-526
-368
5
74
-122
-87
104
-332
-221
-173
69
316
145
333
-32
121
-258
-364
-327
-104
381
380
113
-184
-255
-341
118
-51
-61
-81
-118
24
-157
-529
-231
-319
119
-16
282
-39
14
-525
-447
-631
-363
115
107
-355
-583
-448
-435
-539
27
196
788
814
519
-103
12
-93
164
553
241
347
-32
-85
-90
-38
128
438
1062
1307
1010
709
601
140
161
531
571
218
278
37
-201
-609
-551
35
515
891
693
448
371
-70
-35
339
367
-20
28
-143
-223
-240
-213
-134
-273
76
81
-281
-223
-495
-1059
-1011
-961
-699
-806
-1102
-1805
-2278
-2777
-3226
-4004
-5423
-6525
-6835
-6868
-6996
-6935
-6720
-5942
-4433
-2393
66
2087
3666
4702
5031
5670
5984
5826
5672
4674
3371
1942
1379
843
176
-127
49
-7
558
440
518
-94
-310
54
358
543
166
78
-521
-465
-798
-835
-878
-657
-654
-887
-647
-1026
-982
-1354
-1147
-607
-87
-24
-215
-752
-943
-1041
-642
-737
-1145
-1084
-641
-680
-1340
-1535
-1881
-1585
-978
-1115
-958
-1386
-1576
-1510
-1814
-1578
-907
-892
-748
-1377
-1461
-1911
-1792
-1936
-2019
-1967
-2150
-2007
-2581
-2871
-2882
-2611
-2024
-2096
-2076
-2092
-2051
-1767
-2142
-2415
-2651
-2637
-2391
-1922
-1985
-2294
-2839
-2879
-2435
-2199
-2029
-1924
-2138
-1971
-2219
-2486
-2542
-2563
-1931
-1678
-1692
-2157
-2360
-2413
-2037
-2079
-1861
-1423
-1247
-1317
-903
-1088
-1095
-1072
-653
-620
-330
71
49
-282
-281
92
324
393
1024
1368
1557
1247
1007
1049
1059
1309
1611
1476
1591
1307
1065
717
1028
909
1322
1206
1561
1611
1631
1628
1580
1236
1165
1178
1250
1248
1333
1053
826
504
809
645
1037
957
