-113
-2
305
150
593
506
774
616
383
-84
68
-107
133
585
227
84
-523
-194
282
502
848
562
-12
-75
316
143
277
79
22
-69
185
577
211
-91
-150
-529
-352
317
452
841
442
219
151
561
837
1136
1407
1536
1329
473
25
-552
7
384
1039
670
551
366
556
653
1122
1106
719
856
507
409
564
230
182
176
219
549
613
628
567
193
302
-86
-107
303
557
473
469
634
623
463
806
830
881
759
1093
646
237
-47
363
877
1346
1186
933
840
617
570
632
437
400
238
297
-85
-104
-59
259
375
582
792
848
445
208
291
-14
279
376
537
475
866
864
481
582
243
539
433
860
645
470
159
-90
120
259
193
586
628
550
351
117
-267
39
-49
331
343
272
-126
-338
-560
-421
-621
-228
-168
-238
-585
-599
-568
-576
-628
-400
-615
-560
-555
-593
-632
-387
-638
-604
-229
11
322
560
561
280
-375
-596
-178
257
587
249
90
-518
-204
260
833
976
1160
1245
1595
1460
1825
1904
1714
2080
2006
2184
2197
2162
1653
966
1099
946
915
480
0
-671
-996
-1016
-955
-938
-914
-1050
-845
-413
-595
-595
-616
-610
-537
-368
-125
352
166
311
-100
-126
289
515
628
556
365
-104
-268
-340
-278
-86
133
245
217
134
335
288
-47
-80
316
597
797
460
158
-94
-104
341
571
502
885
885
420
340
-115
274
628
866
794
548
142
176
514
526
531
398
867
758
750
656
875
692
1079
970
1375
1239
1246
1333
1074
665
744
996
1238
1604
1607
1588
1569
1247
1377
1015
1020
1374
1179
1344
1138
723
730
1129
1316
1232
1610
1629
1215
919
670
880
764
923
973
934
1127
1026
853
400
575
446
674
1047
680
399
363
-47
-17
141
569
400
384
561
187
287
-124
80
-48
172
240
-2
-176
-479
-481
-549
-147
-137
-160
-374
-320
-361
-226
-560
-521
-147
-312
-289
-321
-151
-548
-431
-461
-586
-138
-295
-352
-246
-387
-467
-470
-636
-217
-329
-297
-376
-230
-540
-532
-232
-141
16
-79
-22
-107
29
9
119
281
159
517
605
620
231
-19
30
32
-16
216
544
175
263
-85
-70
277
176
391
849
648
475
162
-83
-125
260
167
520
530
215
340
-73
110
-51
180
413
769
451
533
318
-103
-113
327
598
490
631
348
125
98
-47
326
157
518
631
386
239
282
-106
-117
-84
-59
-19
293
269
94
-370
-135
101
137
234
375
-20
-76
-121
4
-384
-332
-72
181
202
-16
-294
-194
-188
-334
73
-51
-4
-90
-263
-371
-298
-74
151
236
177
362
370
161
142
321
356
625
749
939
1029
417
214
583
878
1119
951
964
978
952
1091
690
655
1052
1010
1376
1286
1053
835
768
881
1100
1290
1359
1304
906
741
875
815
800
803
810
813
775
638
146
-80
115
272
251
622
562
176
361
349
335
323
379
514
613
548
333
122
42
84
-99
-27
336
209
239
324
43
-352
75
189
459
439
216
284
273
138
556
506
1070
1180
1449
1515
1432
1629
1481
1770
2374
2609
2597
2336
1707
1660
1231
1339
1075
406
-72
-527
-684
-1297
-1264
-1274
-1326
-765
-482
-528
-142
-343
-333
-301
80
296
238
555
207
306
-56
-61
269
380
227
533
242
138
289
287
156
589
468
799
869
695
707
823
596
239
433
1081
1370
1312
712
389
598
814
1092
1008
1314
1317
1292
940
1038
679
740
929
1335
1307
1121
671
854
672
1088
1010
1159
1236
1210
1342
930
1084
1068
1110
916
972
997
960
1119
1031
1031
1139
1295
1172
1270
1598
1614
1268
1341
936
964
1173
1640
1656
1173
1085
805
441
499
663
1100
938
1127
661
450
397
788
747
1147
1150
1031
838
634
245
515
422
641
1049
1075
749
886
501
403
400
768
663
730
667
793
425
609
561
553
614
448
455
562
316
-118
126
-14
132
513
613
394
554
324
99
68
270
526
604
197
-23
110
85
57
36
-112
156
403
405
162
-88
-119
329
574
462
469
623
182
-19
124
-106
257
340
360
344
290
-100
-276
-352
46
339
580
634
597
182
332
-46
105
122
292
223
245
315
69
-300
48
264
207
537
206
305
-100
53
-286
-345
-297
-77
240
426
570
270
82
-65
222
409
617
199
360
371
133
354
342
201
424
875
653
773
588
227
517
407
833
684
683
846
459
599
519
233
535
404
792
810
412
213
138
532
777
682
663
782
638
532
202
190
558
794
1032
1127
1042
872
476
405
398
450
820
670
657
488
526
178
550
803
1043
907
1142
755
820
635
538
592
783
757
1145
1096
888
407
584
465
733
962
1014
1150
710
846
860
719
1093
900
936
997
1315
1009
1053
813
495
661
1117
1124
643
612
197
216
582
426
471
477
508
869
742
1025
641
504
838
899
1186
1397
758
593
154
220
609
426
460
507
782
446
549
184
225
425
674
1068
724
445
169
368
568
846
724
663
779
416
620
610
426
655
1299
1474
2057
1958
1980
1921
2105
2108
2020
2593
2871
2877
2299
2097
1512
1659
1619
1155
681
305
-567
-1039
-1313
-1376
-1001
-764
-507
-573
-228
-203
-180
-374
-271
99
-61
257
277
-16
-98
92
105
-28
174
603
400
570
159
307
319
180
573
390
634
562
198
331
-30
-54
302
238
422
769
478
605
210
153
238
452
693
1092
1069
669
769
444
768
695
912
1327
1351
973
1037
887
872
753
959
1352
1341
957
1067
735
739
1053
906
1314
1199
1246
1405
964
1066
1040
900
1347
1239
1243
1345
1134
754
1058
978
1182
1585
1637
1597
1229
1340
978
968
1301
1388
1397
1283
1071
844
443
434
790
651
708
699
649
820
453
616
615
473
879
684
858
417
200
272
-81
-50
350
244
527
372
114
-352
-153
-302
-107
305
332
-19
109
31
3
-272
2
-121
369
253
351
-311
-631
-594
-275
-5
258
108
11
-272
-358
-517
-567
-357
-15
156
294
93
76
-2
150
373
268
303
231
603
216
-59
44
-123
327
168
152
156
228
248
366
-80
-67
237
871
747
788
170
-69
-84
316
515
444
793
464
240
277
-13
160
398
785
483
585
171
338
338
150
512
621
458
509
465
549
302
113
105
284
512
614
528
333
-82
-96
275
161
237
234
208
195
154
281
108
51
-23
570
798
474
190
-45
-71
282
333
301
288
323
285
69
-216
-576
-377
-30
208
242
161
321
-30
-128
96
-37
188
594
553
133
279
335
242
388
467
497
484
394
204
-4
-93
270
247
455
796
775
459
635
529
191
238
449
693
764
849
581
177
229
400
826
686
737
686
769
561
215
583
817
749
1048
713
823
385
216
159
553
837
1074
1091
644
416
575
621
439
441
624
536
212
138
274
116
-271
-285
105
294
376
-16
-324
-611
-428
-524
-278
-114
-101
77
-265
-327
-350
-324
28
-79
299
309
-92
-346
-578
-639
-221
63
-1
-45
-269
-213
-219
-285
-22
213
401
827
730
1117
969
1320
1384
1159
1227
1654
1873
1677
1431
1007
700
680
1061
1033
469
274
-142
-471
-738
-1146
-1068
-774
-224
-132
-233
-565
-191
72
321
219
574
402
430
608
205
379
200
409
872
697
871
417
213
380
207
404
840
894
815
435
594
530
220
214
602
869
1119
897
670
627
512
392
872
729
675
798
421
583
521
535
398
833
699
696
861
505
412
572
248
553
506
1029
907
1059
795
584
574
492
692
1029
706
831
485
467
494
802
655
1093
1015
1309
1136
856
433
509
754
974
1312
1298
1010
961
1106
698
891
757
972
1324
922
879
390
631
799
1025
932
974
1148
714
496
584
521
556
629
404
611
236
352
258
261
364
520
630
616
226
302
-99
80
51
71
-93
304
141
329
112
-365
-190
-360
58
-60
267
262
-81
30
-340
-322
99
309
154
319
70
-209
-630
-613
-199
-261
124
-97
-126
65
-283
-378
-162
-357
24
108
51
-148
-635
-500
-433
-207
62
-14
270
-86
21
-366
-179
-159
-287
-113
-16
-70
22
-368
-376
-290
61
-127
-68
-23
-56
71
-294
19
257
540
449
475
437
618
210
261
-100
299
625
875
853
625
182
200
618
773
859
643
654
835
400
234
219
625
818
658
893
813
445
538
353
268
376
624
829
828
626
131
276
335
236
401
779
828
773
608
159
337
202
451
645
649
467
207
-14
121
100
-99
-22
272
-3
-56
-95
-104
-92
-34
357
556
461
487
623
175
256
-101
-105
-3
143
197
305
18
-196
-175
34
257
369
380
348
275
-103
42
62
-4
227
584
514
379
307
332
152
234
583
433
781
818
501
603
172
358
244
807
1063
1066
827
587
583
827
1110
973
909
1034
659
784
602
169
375
512
483
873
826
430
606
398
510
854
648
699
738
665
400
270
-273
-280
-42
212
525
346
92
-292
47
266
230
612
620
525
356
-90
31
-257
57
-103
-34
-22
-75
58
-343
-153
-314
-89
377
187
349
-79
23
-324
-328
47
286
552
450
429
585
579
769
1089
1365
1193
1334
1141
746
703
710
709
690
675
894
496
175
-304
-834
-1020
-1263
-1537
-1155
-1286
-1024
-1373
-1153
-963
-784
-272
359
255
233
131
267
-86
-118
-47
372
531
576
215
301
-48
276
235
506
714
1049
744
858
430
544
232
544
424
794
779
616
154
325
194
468
734
1120
1095
715
815
439
408
494
660
1063
1116
1072
719
871
802
806
659
1086
943
913
1025
885
828
826
823
837
667
1061
1119
732
481
574
384
878
1096
922
898
1095
752
882
777
813
1025
1017
1363
966
705
492
412
465
864
1024
1101
753
507
516
174
543
493
647
686
644
817
442
553
192
224
410
874
664
488
223
326
354
212
560
611
393
392
518
266
49
25
-61
150
523
516
177
302
-116
10
-262
109
257
299
-80
-314
-523
-578
-201
5
-92
-36
-28
-18
-45
93
-317
-347
70
278
309
97
-191
-598
-562
-174
-287
112
-11
318
281
-90
54
-270
-293
-259
103
-31
-24
53
-178
-229
-280
269
138
287
102
-265
-317
-171
-618
-486
-392
-361
-93
-48
10
-252
-597
-159
-71
210
524
380
-83
32
-274
0
84
-35
326
298
-112
-265
-297
35
-124
-31
367
541
585
377
25
-191
-344
-12
552
411
599
209
357
337
167
585
483
780
431
518
348
-22
-54
273
167
562
600
513
360
-29
-99
-105
-38
360
528
627
570
383
-54
-79
338
574
465
447
562
138
267
-48
-24
357
544
437
457
602
210
152
182
248
557
594
604
529
331
92
-286
56
279
198
207
348
-25
-82
-86
-116
-68
270
315
268
-108
33
-271
24
-109
330
242
542
146
-98
-270
9
-76
335
370
298
-81
32
-364
-180
-355
119
336
146
292
120
25
51
-100
311
250
442
782
423
181
-30
-61
347
534
603
519
349
-79
59
26
97
-1
159
220
133
-53
28
-288
66
287
535
442
458
603
194
350
337
143
241
583
611
552
154
-7
-99
-50
145
396
807
498
520
-2
122
-75
361
527
607
624
617
590
513
163
145
512
418
470
572
292
70
27
-118
312
224
603
632
545
155
359
181
560
621
637
449
828
854
405
339
-113
-31
212
607
244
-7
58
52
-30
226
450
798
458
512
295
127
0
-351
-361
8
-76
-13
115
-358
-197
-339
-112
336
198
540
571
207
-18
83
-71
234
464
394
350
91
38
127
-49
263
147
633
795
463
191
-43
-58
370
551
613
575
526
514
533
592
486
1032
1157
1491
1898
1824
1611
1163
1384
1544
1809
1751
1745
1512
1169
1151
1035
753
671
416
260
-205
-880
-932
-1337
-1294
-1081
-806
-596
-244
-219
-194
-154
-377
-347
-288
60
-122
123
32
-315
-336
-277
91
-34
344
147
335
-108
-295
-327
114
153
620
621
179
-47
79
87
-60
356
527
401
423
565
141
335
211
437
822
511
633
575
607
608
512
182
562
878
906
935
723
495
448
841
763
1128
903
1137
1050
889
461
401
779
758
954
1013
950
1105
1034
755
1049
917
1355
1235
1197
956
642
457
770
766
1296
1168
1349
1139
680
849
889
732
1081
1137
1143
1062
869
622
206
235
419
861
654
793
578
360
-44
-77
262
151
523
549
217
332
-77
80
96
-24
138
188
312
77
-362
-152
-342
23
-125
-50
-60
61
-155
-583
-620
-556
-234
-207
-173
-369
-364
-240
-450
-817
-442
-169
44
48
-383
-579
-408
-589
-382
-113
376
214
132
-58
43
25
-119
287
382
137
362
322
262
-81
109
-84
145
404
467
224
92
-139
-305
-9
234
535
199
145
164
179
369
-5
-55
299
232
605
526
287
82
92
319
593
486
477
639
517
133
295
321
246
463
796
413
183
259
-73
-70
257
150
579
390
512
-25
-260
-304
94
303
194
217
132
-6
-124
93
-115
-4
373
184
152
-3
22
-171
-215
-348
101
-24
-19
-114
13
-357
-170
-143
15
259
189
182
-23
-268
-382
-326
68
-73
-20
-19
-72
72
-300
-330
35
-18
168
515
253
182
346
274
261
321
168
512
533
201
285
88
-258
114
130
623
392
208
-19
119
-125
-51
297
158
536
586
243
319
-84
-105
260
178
592
397
553
302
34
-309
-123
212
439
407
195
258
-53
-25
-27
-63
-31
363
223
144
-120
-338
-293
-16
514
591
247
137
310
-55
47
-309
22
-17
175
205
343
-60
-120
-65
332
249
625
604
168
-96
-318
-168
-164
-348
5
82
88
4
-362
-131
-278
-75
138
564
418
437
601
203
139
244
459
877
882
504
618
513
183
150
207
618
785
835
455
241
330
294
142
589
780
871
793
579
364
289
150
630
814
855
494
579
190
157
226
609
470
506
433
540
143
337
366
196
564
429
788
822
495
613
255
524
639
781
886
673
891
498
542
373
128
586
823
651
800
629
550
603
480
648
1095
992
983
744
409
229
576
815
722
722
661
650
647
795
584
176
239
465
888
809
250
-77
18
66
-33
370
175
376
-48
-290
-244
-550
-146
101
271
273
-94
55
24
63
-112
274
192
587
564
342
69
-295
97
346
244
229
158
149
163
331
125
-297
-257
-35
170
229
211
542
774
1080
1366
1622
1852
1742
1710
1522
1595
1594
1805
2093
2025
2025
2095
1506
1322
821
332
-312
-563
-483
-691
-970
-1221
-1551
-1391
-1072
-475
-213
-338
-356
-252
-434
-772
-453
-555
-142
-274
67
75
-277
-146
-140
73
365
254
157
-58
46
25
81
-95
298
251
444
472
526
-39
21
66
285
222
241
378
279
303
160
252
558
638
787
651
854
622
140
128
612
660
1134
982
1289
1300
964
1047
894
657
1122
1358
1177
1308
1106
731
752
1126
1283
1173
1262
1229
1300
1040
870
662
908
1179
1560
1251
1380
1295
1022
1290
1312
1379
1232
1546
1190
931
658
800
894
1114
1319
1399
1315
1096
845
422
391
465
812
844
798
420
231
289
-68
256
178
553
235
288
81
-298
-339
-328
3
-103
298
316
-82
-280
-134
-367
-273
83
-89
-27
-36
86
-133
-563
-577
-175
15
112
63
-332
-197
-239
-206
-140
-320
26
110
103
-339
-398
-892
-842
-247
-122
288
-93
-319
-174
-365
54
-25
379
206
171
278
124
77
-111
-24
287
339
158
181
306
49
-153
-143
68
322
199
174
311
-62
-80
292
213
567
255
366
262
-22
-69
73
-258
114
150
401
427
246
296
-30
314
227
401
769
508
630
162
-10
-62
-4
343
132
352
-12
90
-327
-181
-174
6
299
513
229
-19
-272
-322
71
-47
-9
-5
343
246
567
231
137
169
547
574
148
-107
-300
-187
-394
-667
-1059
-846
-304
531
797
620
-67
-137
-367
-46
247
211
75
-401
-864
-424
-262
132
610
402
606
249
377
-3
-68
262
226
479
853
494
528
174
573
829
701
859
405
527
188
275
21
-384
0
325
579
604
239
195
522
608
625
631
452
802
494
218
-126
-300
42
269
196
519
534
567
601
588
528
232
522
627
467
443
254
-42
-309
-149
-276
-36
133
370
-61
13
-294
70
275
237
402
447
584
340
112
39
-112
306
383
345
259
-65
-105
-115
-79
279
149
211
153
260
91
-295
-352
-312
102
339
523
251
287
40
-281
-103
168
575
539
177
129
381
339
-14
-32
380
613
453
570
327
-63
-26
345
181
243
568
622
586
168
-47
82
-99
174
497
669
825
540
310
322
544
785
881
826
454
604
522
222
518
388
789
877
859
490
579
167
382
533
825
1094
925
1086
684
841
793
500
484
777
836
842
507
396
590
620
495
714
944
1298
1135
772
212
204
462
743
1095
746
869
775
418
527
141
128
253
413
450
548
263
34
-265
-120
340
171
309
50
-197
-554
-209
16
267
196
540
559
527
173
266
104
63
-63
382
204
362
-63
125
-44
129
564
478
876
663
797
560
129
171
419
720
937
1298
1357
1189
1592
1526
1728
1941
2192
2492
2777
3153
2728
2590
1952
1776
1719
1476
1083
120
-1041
-1562
-1419
-1588
-1238
-1155
-989
-729
-504
-418
-390
-237
117
232
601
133
46
-158
-131
11
-105
290
209
623
631
198
-9
-32
189
494
645
782
231
-27
-88
294
222
599
403
486
875
677
769
170
-92
-45
514
769
493
514
323
339
237
639
492
889
1051
1098
682
414
520
612
853
1054
1121
1085
764
697
887
866
685
1109
1023
1341
1022
906
1101
1123
928
982
1294
1399
1546
1620
1249
975
741
750
1018
1597
1485
1609
1285
707
833
704
992
1231
1242
1280
747
841
837
658
743
1068
1084
726
490
217
318
352
518
456
872
711
715
869
463
608
573
546
183
256
89
-263
-325
-165
-525
-252
-294
-1
144
287
21
-193
-513
-239
-215
-148
14
-65
-58
-276
-525
-551
-314
-38
310
-64
-271
-218
-405
-803
-802
-610
-324
127
-121
20
-336
-338
5
124
-54
-51
-113
42
-347
-232
-555
-159
-35
404
875
492
178
-62
-106
-3
143
524
601
606
568
570
411
801
882
682
1062
977
999
713
254
-32
330
414
650
856
396
513
255
565
562
253
236
520
244
344
91
-365
-138
-260
-57
182
471
764
1120
874
175
-67
145
839
744
390
61
-513
-151
86
-106
84
-97
186
424
593
266
36
-110
517
847
680
770
201
-87
78
263
629
675
733
813
575
128
-25
91
25
88
-74
-110
-318
-521
-243
-258
-32
257
-77
-47
367
170
-60
-194
-413
-530
63
291
281
126
-267
-315
-290
18
61
108
-30
189
399
601
-47
-208
-193
314
827
823
341
-350
-331
278
595
482
870
1094
987
1124
818
584
541
556
245
187
211
243
374
103
-301
-80
455
941
1290
717
249
-81
71
86
104
89
70
28
-332
-207
-241
-322
257
241
243
357
268
270
-62
-325
-589
-522
-64
635
610
-124
-549
-220
-41
254
379
46
-361
-298
-297
-256
-478
-633
25
374
382
125
-339
-323
64
120
66
47
-107
273
-10
11
-545
-413
-242
120
175
237
275
-309
-216
-333
-5
544
422
465
796
640
890
467
582
459
1150
1601
1447
1379
893
609
441
1030
1322
1375
950
734
864
819
488
595
238
558
467
781
586
-31
-293
-258
282
576
425
587
153
273
-45
-98
80
72
-9
528
415
236
90
-180
-311
349
384
531
118
-251
-577
-146
43
121
-117
-61
298
336
-24
27
-169
-520
-206
-269
261
536
455
488
479
891
1311
1828
2146
2115
1905
1845
2069
2380
2267
2238
2195
2402
2104
1342
268
-679
-1183
-1606
-1481
-1720
-1946
-1981
-2051
-1509
-1220
-920
-804
-349
349
609
555
-30
-161
-609
-253
6
-54
-53
35
-170
-234
-289
129
798
705
812
252
-9
90
-278
-357
-310
-93
185
627
401
602
565
591
426
806
887
855
498
456
812
707
766
747
1062
991
1361
915
478
148
202
810
1142
993
936
1104
756
895
812
880
1098
1284
1008
1027
469
529
253
631
824
751
1126
1147
1070
667
807
835
1041
1297
1392
1005
1058
722
1026
1055
733
674
735
1105
1073
823
255
343
365
223
592
445
819
866
499
516
305
281
197
397
429
215
-124
-354
-317
-44
552
772
830
796
457
566
353
-71
-30
513
824
857
540
-99
58
292
555
550
321
-108
-81
-16
118
-138
-228
46
242
495
627
298
49
3
81
-91
-26
301
341
294
-58
-87
-10
327
270
81
-314
-272
102
62
-193
-424
-595
93
602
858
497
181
-100
90
-2
523
428
627
192
340
138
513
582
402
847
1074
1097
492
-87
-568
-770
-794
-787
-502
-419
-617
-451
-865
-800
-369
184
448
574
340
296
383
335
101
-294
-93
558
484
252
108
-312
119
131
233
183
196
613
495
442
516
196
626
872
679
778
579
233
227
222
525
478
1034
902
668
231
-64
-52
363
174
372
339
153
247
531
525
569
411
473
452
397
618
579
239
144
147
565
796
680
889
416
144
-63
106
-115
282
241
471
873
833
629
192
239
497
695
808
347
-365
-518
-368
102
-40
282
166
624
476
396
211
336
328
134
205
526
557
255
130
277
320
540
796
652
810
585
380
276
293
137
515
590
592
537
189
335
260
331
625
1048
1333
1019
702
437
456
690
1129
1106
708
887
673
722
684
861
876
1055
1324
1251
1220
1010
1056
767
934
1403
1223
1347
1106
887
475
592
163
273
272
198
433
508
604
382
353
583
865
682
778
598
571
613
522
280
-119
303
402
834
632
266
-106
188
883
1087
704
473
637
420
400
246
379
252
642
1343
1630
1469
1481
1508
1828
1681
2131
2380
2268
2378
1705
1240
925
721
442
-19
-588
-1144
-1639
-1781
-1958
-1790
-1599
-1141
-889
-795
-421
-256
-186
-530
-625
-529
-271
-54
288
352
235
608
557
155
164
418
669
861
248
-30
347
788
944
1347
1293
963
918
1090
681
847
710
984
1196
1181
986
1080
1073
910
1022
1155
1616
1847
1914
1439
1319
1063
1076
994
1367
1329
944
1055
672
875
734
1297
1632
1516
1654
1165
1005
981
1299
1161
1563
1421
1419
1276
1341
936
1104
1071
1114
1010
1190
1257
1184
1373
1186
1610
1477
1482
1422
1610
1260
1356
920
1061
1035
1076
910
1310
1179
1388
1101
472
551
453
1054
1283
943
838
181
-20
335
631
642
707
846
451
396
410
419
417
444
502
768
408
246
153
193
549
629
443
816
707
735
808
551
200
617
835
823
574
132
212
392
585
269
83
356
893
1108
411
-353
-786
-600
-123
379
-25
-290
-348
74
-7
300
295
381
567
451
430
556
195
160
148
172
553
794
758
1028
834
612
529
609
768
687
1092
1146
745
410
352
258
324
315
-120
-293
-290
24
-353
-598
-568
-11
708
947
505
-121
-284
302
613
530
-39
81
-5
540
769
879
850
427
515
577
649
1127
784
-323
-765
-691
72
788
853
136
33
-37
783
956
914
503
371
290
162
191
-96
-558
-510
-169
588
985
1333
654
189
378
464
1080
1091
504
142
268
375
526
571
548
602
797
1041
1148
748
452
516
569
490
807
423
527
518
575
236
274
-45
538
1100
1185
1291
851
547
581
799
709
738
694
879
769
389
582
386
783
658
748
1073
1090
741
819
430
452
844
669
831
571
-24
-351
-553
-530
-263
354
579
543
324
123
98
-1
202
548
203
-4
63
4
40
49
-277
-335
-270
-95
291
-6
81
-314
-306
87
-4
364
136
333
-53
76
71
262
602
681
917
1330
1200
1561
1630
1456
1903
1941
2418
2387
2116
1528
1561
1189
1333
921
728
464
261
-422
-1384
-1816
-1850
-1638
-1168
-1296
-935
-1069
-699
-840
-631
-275
346
520
208
344
300
293
268
338
627
737
1089
809
249
557
850
878
210
58
-67
474
696
178
-584
-445
337
1321
1649
959
626
168
538
560
364
-47
304
234
224
296
266
586
728
1062
821
405
819
1042
649
158
50
-68
425
1056
1074
659
807
503
386
514
594
659
955
935
892
405
788
969
1655
1821
1464
1270
1357
932
717
483
598
623
768
665
754
1042
1053
1081
1122
905
938
954
909
1033
841
424
396
825
1119
1349
1342
1076
494
608
446
813
450
157
-37
322
572
610
302
-344
-192
62
173
405
483
498
454
552
357
343
605
665
697
606
118
-164
-372
-125
382
239
165
-52
-286
-161
-155
-328
43
-17
547
809
497
309
-224
-420
-142
287
147
71
-423
-685
-839
-562
-352
-275
9
19
-310
-247
-463
-807
-448
-219
26
-43
311
271
111
-278
65
371
412
451
240
300
329
543
506
882
657
877
498
556
130
331
334
263
-122
103
302
395
647
861
575
300
283
554
869
654
583
-121
-303
-67
427
915
1255
1416
1601
986
439
258
-108
262
309
-107
-302
-289
-60
194
569
553
235
160
347
-4
112
-329
-222
-175
-92
400
744
1041
869
442
589
205
275
121
118
-31
321
346
336
354
137
206
558
626
556
300
-272
-218
-535
-546
-253
-290
380
428
579
-94
-321
-14
834
901
725
593
372
371
357
-22
-99
263
169
169
-41
-269
-294
118
-10
-35
-120
-62
136
214
-85
-392
-692
-573
216
663
568
-206
-834
-214
128
515
120
-249
-152
256
232
337
21
-139
-303
-60
164
215
-2
-384
-400
-573
46
352
365
-60
124
264
246
459
685
984
1553
1462
1648
1194
1294
991
1298
1406
1272
1622
1630
1243
952
488
-89
-626
-758
-1298
-1638
-2088
-2213
-2237
-2096
-1275
-1107
-893
-457
-194
35
-257
-615
-1058
-1002
-1092
-481
-213
-179
-601
-827
-704
-882
-568
107
373
271
-130
-498
-507
-129
344
597
517
-50
-368
-245
-372
-75
173
190
266
113
-125
-12
-5
86
-141
-532
-532
-221
-163
-357
-281
17
-257
17
-66
531
883
727
469
294
85
345
862
908
747
428
432
1061
1309
1046
576
551
1127
1640
1389
519
-348
-124
813
901
666
600
428
1031
896
649
403
778
1126
1287
1075
455
234
215
557
416
826
712
735
652
832
826
798
397
217
202
616
424
163
-323
-399
-609
-336
93
52
-282
23
120
66
-173
-398
-633
-131
74
-294
-471
-933
-1326
-1039
-559
58
-83
-94
-109
111
-273
-197
-540
-220
-135
-165
-547
-626
-599
-538
-522
-245
-370
95
-94
-345
-806
-1134
-1049
-596
-104
352
-36
-279
-148
-132
-383
-241
-410
-490
-447
-620
-613
-435
-511
-461
-209
-49
618
813
436
369
99
66
-15
178
213
319
94
-347
-140
-295
-119
273
334
368
151
131
-43
-334
-514
-378
-8
512
159
69
-178
-378
76
-127
-271
-141
-323
107
-125
-336
-600
-395
-172
117
-30
77
-204
-429
-459
-551
-283
-62
292
329
131
191
160
257
71
5
90
-87
95
-384
-603
-437
-630
-183
106
151
540
366
-275
-562
-516
36
276
264
93
-265
75
-29
287
-34
-101
-37
168
623
401
236
270
-54
369
389
819
795
388
201
272
110
77
283
411
707
719
792
406
470
885
734
1038
1083
1084
694
456
574
417
866
887
410
147
317
377
372
-55
-272
-320
115
368
224
362
118
-314
-317
53
-97
-77
-108
116
36
-155
-416
-830
-478
-207
-261
-278
-200
-606
-598
-210
-295
-114
354
559
621
166
48
-197
-321
129
812
659
473
553
612
873
1141
1291
1337
1343
1351
1389
1237
1618
1612
1401
1112
683
879
418
76
-1081
-1895
-2010
-2163
-1864
-1410
-1635
-1605
-1387
-700
-245
0
-264
-330
3
-107
70
-588
-741
-706
-134
544
801
550
-111
-301
25
-103
-42
-12
297
331
289
-45
-73
-38
282
375
524
420
426
212
-79
51
-55
254
779
664
702
656
770
582
219
532
442
840
894
866
506
598
215
532
811
1086
1072
459
275
87
-49
138
171
354
364
528
444
443
554
208
555
475
819
769
429
387
587
214
134
246
798
1072
1125
709
774
436
456
772
865
702
699
773
234
311
351
523
636
615
543
524
552
559
253
172
139
215
393
835
859
601
-86
-142
-374
-79
165
381
-113
-273
46
-25
365
167
515
418
506
618
277
-299
-168
-366
-258
54
64
60
14
-360
-513
-588
-234
-263
-90
126
-367
-594
-615
-167
62
-123
23
-380
-196
-216
-516
-598
-391
-592
-203
-331
-262
-282
-129
-539
-425
-455
-575
-323
-96
-52
19
-250
-624
-220
60
-43
114
-375
-576
-457
-833
-854
-583
-30
431
392
-108
-595
-418
-180
1
-291
-354
-297
-274
-228
-804
-862
-519
-101
-24
-296
-561
-567
-176
-152
-523
-562
-150
85
-42
-88
35
-300
-264
-121
328
191
146
-13
-122
-87
-14
-68
45
36
293
392
510
535
-58
66
-63
374
145
260
70
-328
-142
-131
-282
-103
328
158
144
311
-93
-306
-524
-619
-526
-330
24
-362
-602
-420
-168
283
629
430
536
138
356
307
104
-187
-593
-203
113
343
300
24
-228
-209
98
200
582
150
116
-327
-352
-320
10
261
441
765
866
-28
-430
-641
-427
-214
-574
-887
-1061
-682
-411
-196
-330
33
-111
-43
-43
-62
-73
121
-281
-177
-153
122
237
479
456
239
315
337
525
447
497
481
770
870
674
859
501
841
901
1202
1156
712
203
258
147
605
610
216
157
255
615
587
252
545
438
507
637
159
-2
-67
118
30
74
316
598
433
522
272
-122
-128
-117
123
-66
141
590
543
-30
-366
-162
110
170
208
-74
-161
-538
-149
47
-123
-127
-96
-2
299
-81
-338
-540
-537
-335
-59
172
566
638
463
858
1107
1208
1806
1718
1683
1843
1846
1699
1753
1894
1458
1642
1651
1218
652
69
-682
-1357
-1229
-1279
-1655
-1839
-1732
-1743
-1799
-1406
-701
-622
-220
-187
-169
-176
-545
-488
-888
-858
-411
-201
-368
-154
-520
-603
-569
-382
-111
359
165
345
-13
-54
-31
287
144
587
812
675
824
540
293
294
547
833
655
497
539
185
224
591
467
883
1035
1094
765
887
776
444
396
453
694
1015
1386
1105
605
304
176
790
736
866
579
140
144
227
543
582
414
828
706
698
777
546
203
599
863
1055
1064
708
884
829
464
572
527
406
852
888
474
534
202
206
168
362
145
558
392
246
-44
70
-51
164
200
295
-75
-15
301
-103
-382
-202
114
571
491
524
-45
-97
339
169
262
62
105
347
216
294
-260
-349
126
172
543
172
-44
1
-173
-557
-571
-181
18
-116
123
17
-341
-144
-178
-184
-365
80
285
304
33
-623
-823
-393
-272
-55
65
-530
-507
-481
-563
-158
-326
32
-91
-19
-101
-313
-522
-603
-523
-354
53
99
36
-327
-156
-192
-214
-240
-238
-170
-318
-269
-335
-173
-149
48
299
157
315
93
-365
-212
-249
-543
-589
-585
-236
-361
-301
-379
-535
-635
-574
-375
99
-34
-58
38
-179
-582
-537
-290
260
135
279
52
-345
-312
70
-79
-16
321
166
171
-16
-282
-351
-66
386
859
391
-54
-359
-363
-260
-290
-174
-195
15
292
382
-25
6
-363
-299
-107
369
206
293
-375
-773
-829
-217
266
254
148
-100
23
40
57
-257
-279
93
267
317
-68
50
67
-58
276
-1
290
219
630
208
-278
-463
-485
-382
-75
92
-547
-809
-440
-368
73
8
-312
-126
200
549
-48
-549
-483
-226
-119
-60
-320
-557
-251
-294
40
-331
-380
109
249
468
582
-42
-337
-139
-258
-81
265
-42
65
-308
2
-9
552
478
471
634
576
551
202
259
59
2
-128
325
203
217
150
316
262
299
204
425
813
487
521
307
-18
318
194
535
562
548
234
381
282
300
228
470
846
792
442
454
788
499
563
149
254
831
1072
726
398
162
235
777
1027
1108
1082
1043
730
858
421
565
389
864
758
665
595
-72
-374
-209
-340
-124
-10
120
-181
-388
-549
16
-11
-12
-101
-52
342
295
-301
-428
-506
-241
74
-77
109
41
5
-349
-232
-247
-309
-65
-12
63
-164
-254
-210
-374
28
-6
210
518
146
320
215
846
1002
1574
1821
1768
2102
1747
1871
1692
2022
2610
2670
2214
1995
2130
1685
1209
466
-270
-508
-1039
-1011
-1559
-1874
-1785
-1914
-1230
-687
-551
-159
-184
-201
-164
-157
-193
-134
126
190
534
269
-133
-580
-192
66
-63
-88
-94
299
234
565
210
342
379
584
492
400
318
-278
-377
28
-14
355
366
379
163
160
317
-60
-54
143
437
876
810
548
300
257
175
416
839
889
854
501
625
548
630
845
743
688
503
425
820
767
1088
1036
1089
1345
1620
1630
1327
699
778
845
1042
1001
1184
1537
1216
1011
1092
1096
994
1377
1351
960
1078
713
876
821
870
1033
963
1319
1308
961
1040
797
598
603
845
1113
1140
882
561
157
202
528
250
193
205
529
543
188
307
-5
301
377
142
338
-33
78
-325
-151
-338
-117
142
517
146
-124
-379
-253
-540
-545
-534
-219
-379
-350
-190
-576
-584
-148
111
268
-20
66
-143
-566
-635
-576
-147
40
-126
97
-258
-361
-190
-248
-234
-367
68
-74
-111
-269
-161
-181
-308
-106
310
337
-28
57
-340
-153
-145
-309
-128
337
187
353
-108
39
-98
157
589
567
169
310
265
-32
-109
94
-94
349
530
581
218
296
-88
-104
-11
132
244
522
187
310
-39
-42
293
155
519
564
252
348
-108
27
65
-12
219
412
509
459
239
-76
-303
-289
-68
147
149
-74
-344
-211
-129
61
-34
277
-10
-68
-127
48
-323
-150
-363
74
284
369
267
72
-331
-358
-280
107
-42
-18
-74
113
120
-57
256
-36
-99
-88
-25
-75
-351
-449
-843
-394
-307
-107
109
-278
-328
-287
2
-266
13
-104
335
163
343
-70
99
-102
302
205
589
423
455
390
218
-3
-98
324
421
681
856
218
112
39
-33
182
564
433
893
1027
850
133
14
64
196
482
611
-51
-350
-317
-61
191
630
793
667
647
432
151
265
334
242
581
524
136
280
-18
257
310
375
192
517
550
521
153
-13
95
30
77
-76
-5
-22
-108
61
42
107
-38
323
137
170
160
345
-49
56
-264
79
269
171
196
358
-32
118
60
57
126
-6
355
346
-59
11
-324
32
262
245
637
607
188
268
-44
325
529
435
488
436
568
160
313
349
517
417
418
544
219
596
793
852
461
598
459
1032
1301
1305
1057
506
614
413
860
1060
1136
751
425
290
29
-259
-111
321
134
302
121
-291
-308
105
364
582
406
626
562
226
334
106
-362
-148
3
-81
-102
-349
-385
-508
-393
-138
68
104
-265
-148
-203
-162
-360
-325
-262
-109
364
528
564
541
615
867
1002
1411
1699
1781
1698
1878
1714
1930
2328
2026
2160
2109
1744
1267
634
-514
-700
-708
-751
-1405
-1683
-2149
-1665
-1593
-1208
-1398
-1081
-533
91
-274
-407
-861
-402
-273
-34
256
260
350
182
136
-27
107
-113
310
226
559
513
137
310
362
557
801
703
712
858
442
548
203
220
614
798
646
825
625
210
215
627
837
758
1119
1111
710
498
397
789
1066
949
1045
500
396
799
669
772
205
133
484
997
1243
1343
1040
888
677
1031
1077
1078
1045
664
447
513
237
635
827
743
897
1015
992
761
444
539
408
678
1085
730
492
560
255
564
394
486
821
840
487
549
354
267
303
132
181
177
161
154
363
-40
42
12
-36
535
440
562
268
71
86
-46
294
299
298
321
308
-47
72
8
77
-43
291
-22
59
-135
-513
-542
-521
-219
-384
26
-74
-42
52
-211
-638
-589
-367
91
114
-297
-235
-563
-190
31
-41
265
-38
-103
82
-292
-192
-524
-155
92
279
-6
47
-152
-207
-384
-283
32
63
117
-80
-93
49
-346
-379
15
-49
258
103
-162
-630
-454
-412
-240
63
142
569
183
109
-158
-175
-257
-109
-119
26
-321
-356
-137
-204
-239
-142
86
306
336
109
-222
-387
-235
111
372
371
-49
97
-115
-3
312
334
155
564
464
808
814
461
224
-102
-318
10
303
253
141
81
-337
125
567
678
1029
890
390
136
-83
23
-278
48
-58
355
183
146
285
-56
-36
319
173
252
553
543
186
301
261
138
608
441
591
155
301
-16
-124
1
12
-7
555
423
546
320
-70
-100
116
29
-260
92
-47
-87
-298
-210
-359
260
597
400
189
-68
72
78
84
69
120
263
379
310
74
-147
-197
-361
-265
16
34
127
-4
293
-40
114
124
273
191
242
348
66
-197
-542
-150
127
139
534
512
136
268
-44
-7
353
210
533
520
176
304
-67
-108
-44
348
211
248
207
131
304
-30
-79
-41
347
225
235
330
92
-327
-315
110
357
578
419
611
196
323
328
195
591
406
387
560
197
351
288
298
157
615
816
643
802
580
148
168
618
817
880
825
489
425
597
219
130
168
574
458
476
630
228
128
377
199
589
439
449
588
361
83
-152
-236
-379
64
124
-277
-231
-549
-184
-329
-322
-315
89
303
312
-263
-423
-808
-545
95
266
-98
-291
-378
-340
-273
16
72
-57
356
199
174
318
-51
-90
-20
141
589
468
480
407
395
855
1018
1464
1728
1759
1691
1908
1907
1910
1693
2101
2352
2299
2578
2429
1930
1839
1287
536
-220
-746
-1005
-1193
-1484
-2065
-1931
-1687
-1396
-769
-274
-31
-54
-263
-234
-558
-151
108
270
-18
78
-328
-378
-332
25
-90
320
182
215
155
309
-28
-61
-44
273
359
156
362
-50
50
48
257
575
800
798
599
361
-30
-47
-37
-45
-13
129
594
449
617
162
313
160
638
807
840
772
414
566
236
516
421
893
752
694
793
423
418
495
878
1062
1285
1209
1245
1366
1150
733
704
1054
934
1019
973
1048
816
415
456
665
899
992
1129
877
405
620
495
684
1071
1092
758
864
412
220
370
141
245
565
525
165
358
373
142
346
-9
-24
372
568
624
198
-60
75
-84
350
149
271
40
-178
-613
-504
-834
-508
-537
11
-42
-28
77
-352
-161
-349
21
66
3
-368
-229
-599
-438
-449
-564
-307
-107
-121
-334
-575
-415
-601
-205
-345
-291
-295
-355
-200
-558
-606
-571
-199
-298
112
-35
-9
-69
106
101
-21
206
639
384
214
260
-101
-64
314
199
584
433
478
426
531
369
326
203
411
769
424
234
358
337
349
356
209
502
1070
1077
404
126
-327
-83
248
537
287
79
104
-32
-15
-46
343
412
665
864
583
371
360
152
341
-39
-34
373
215
350
98
-290
68
269
130
147
167
197
362
116
-355
-321
-77
370
346
-38
-97
-103
83
5
-88
628
1035
678
311
-576
-468
-171
121
95
-129
-245
-173
-332
-321
-309
83
300
179
167
370
128
174
139
274
-36
358
592
449
583
334
-90
-81
289
140
206
518
553
532
191
343
283
307
173
604
467
423
238
329
334
236
407
775
875
692
848
249
126
51
347
434
459
191
-29
287
241
624
432
893
999
1225
1309
866
555
616
893
1069
1026
872
472
600
220
171
515
412
454
587
180
165
253
251
327
118
96
267
152
329
55
-194
-243
-363
65
-103
-103
120
75
-268
-157
-537
-515
-304
-41
306
123
-203
-421
-387
-165
81
-28
-3
-72
69
-294
-327
2
-82
142
611
489
505
453
482
718
1394
1817
1788
1791
1706
1687
1763
2111
2139
2096
1771
1678
1484
1337
469
42
-781
-1139
-1335
-1205
-1279
-1537
-1213
-1383
-1292
-1129
-803
-369
-38
-14
-286
-598
-402
-133
271
550
613
584
606
407
610
146
-55
-31
211
419
624
358
-94
-18
242
440
446
603
538
512
177
285
-58
309
586
838
658
804
628
231
166
192
569
484
850
794
594
150
147
616
659
1131
903
759
793
599
242
231
521
549
558
570
579
541
212
182
538
498
695
753
685
863
834
802
465
414
777
1029
976
935
669
411
638
833
1073
946
948
905
1121
1066
721
894
892
737
1120
901
1046
840
413
627
463
835
872
819
473
391
541
374
-32
256
529
851
653
597
-107
-336
22
-18
299
-84
31
-269
-287
-376
-228
-214
-287
-75
256
-90
14
-354
-160
-201
-200
-376
7
65
-298
-542
-787
-878
-509
-526
-295
62
9
-139
-518
-531
-185
-326
-269
-288
-344
-130
-159
-203
-517
-523
-150
57
-69
109
-130
-574
-545
-338
-120
-33
-90
17
-160
-547
-561
-214
-383
-133
-164
-324
-73
140
374
-93
28
-111
163
620
622
228
318
-69
124
-57
184
467
842
443
147
-62
-47
156
402
812
825
456
547
161
133
211
586
406
406
594
227
339
-62
114
-89
353
575
458
451
568
368
-44
-54
370
605
459
567
-36
-354
-182
-270
265
218
514
141
-49
44
-273
42
-87
297
136
181
143
-3
56
-315
-268
-113
277
333
363
136
379
289
-46
282
232
385
578
346
-121
56
57
83
-85
369
608
480
431
545
190
172
205
252
534
236
348
-104
21
38
-70
132
580
463
499
394
210
351
152
599
777
827
492
616
240
155
357
327
321
338
351
312
-77
-264
-364
-264
263
255
558
137
-113
-302
-371
-326
74
291
224
519
378
-80
66
83
-126
109
35
15
81
-116
88
-290
-309
-96
537
850
670
799
408
431
885
913
1173
1585
1622
1565
1209
1375
1318
1283
999
958
1114
883
213
-339
-878
-1014
-1261
-1432
-1810
-1822
-1457
-1591
-1575
-1586
-1387
-847
70
178
291
-131
-399
-586
-367
-274
-336
-358
32
-62
-70
8
-353
89
519
658
1036
891
410
542
571
429
802
862
847
793
494
489
503
774
814
681
1120
986
919
675
427
608
463
876
688
661
869
836
793
462
414
500
751
1282
1352
1109
436
168
513
862
918
970
1066
655
879
652
642
858
890
1033
934
976
1130
739
698
1034
918
1014
996
1114
656
470
617
596
636
451
801
668
1044
1070
693
494
617
637
499
841
836
778
459
396
582
571
446
660
741
787
366
1
-370
-270
123
-63
-34
-15
-44
94
-314
-135
-351
-270
11
-292
-371
-204
-561
-632
-588
-376
-74
157
204
325
117
-286
-292
107
296
137
313
113
-300
-300
49
87
22
-308
-304
-260
-301
-189
-532
-147
-103
136
145
-31
40
-321
-145
-525
-632
-606
-170
44
-122
52
-361
-186
-361
111
328
147
288
87
-296
-280
58
-123
-22
145
554
521
-15
-378
-562
-187
-125
170
253
345
74
-327
50
313
174
-2
-292
-378
61
-25
98
-517
-469
-526
-61
553
556
267
-322
-234
-171
43
-9
301
-80
-289
-171
-163
-301
115
277
131
377
-31
4
-138
-369
33
-77
-2
306
146
518
570
255
162
168
562
460
481
561
263
4
-340
27
260
217
554
242
371
-7
-83
-84
281
232
436
503
386
216
178
589
817
692
669
818
435
554
146
319
150
639
843
864
475
616
623
412
618
231
203
400
702
1072
846
202
258
176
827
1101
1046
494
206
328
318
342
383
216
569
557
377
-127
-274
17
-111
-3
307
329
286
122
-365
-226
-362
-94
355
355
-6
-82
-116
63
-316
-355
49
285
382
-33
-316
-208
-352
-90
351
326
-111
-290
-369
-361
-325
-270
104
315
562
506
867
648
676
749
901
1386
1625
1517
1506
1640
1553
1608
1514
1900
1880
1437
1386
735
515
-284
-819
-975
-1163
-1400
-1315
-1313
-1153
-1205
-1312
-700
-539
35
-44
279
-10
110
-315
-349
122
242
787
799
565
275
90
57
122
-42
294
341
342
289
-66
97
110
309
394
666
646
576
-47
107
315
594
423
537
358
303
355
135
363
356
201
634
502
496
635
237
156
187
591
785
871
506
543
177
546
494
792
606
140
147
620
779
426
184
358
608
1054
1404
1216
1289
1028
870
643
1077
1022
1376
1333
952
1088
752
708
733
1142
1380
1555
1271
1299
1030
644
705
1126
1284
1356
1309
1139
887
389
255
548
476
694
1057
720
500
553
240
572
401
408
612
570
531
187
310
-16
311
214
558
227
285
79
-314
-135
-168
-380
5
-102
-49
87
-142
-577
-588
-189
-277
38
-303
-211
-621
-446
-437
-590
-156
30
-109
-119
13
-384
-211
-208
-377
9
102
46
-207
-796
-704
-798
-150
-82
-26
79
-328
-383
-170
-549
-432
-446
-574
-172
-375
-144
-145
-348
-276
72
-34
138
193
308
85
-284
48
-62
283
353
247
422
422
143
14
-163
7
351
557
218
-61
-333
-183
-349
126
359
245
252
154
275
-97
106
-91
334
252
532
361
-121
66
-48
131
169
350
341
223
614
539
265
12
-267
-71
151
230
140
-50
27
-288
94
355
561
524
-1
-305
-208
-211
-165
-376
-301
74
-89
-96
78
33
65
104
82
30
51
-113
-94
-269
-551
-426
-213
257
407
461
149
-277
-517
-214
-258
-75
-32
-95
113
-89
302
163
203
216
560
478
856
792
586
164
176
560
622
573
551
391
482
614
293
55
-108
246
794
774
250
258
-36
361
538
388
413
415
433
453
411
523
362
365
596
875
653
596
-77
20
-20
591
791
504
637
550
216
342
-44
-42
135
623
489
446
567
187
137
162
246
620
453
434
543
349
-10
308
224
635
432
395
581
246
158
355
146
572
510
842
499
593
225
196
194
194
242
619
467
407
149
122
37
-53
209
611
553
376
-49
114
83
67
61
75
112
-112
109
-280
-188
-245
-335
272
598
437
514
-48
-286
-365
-308
71
-60
268
-10
-119
10
-293
28
-101
259
295
286
260
-55
110
32
64
272
579
817
881
816
792
665
925
1225
1486
1670
1747
1688
1805
1467
1809
1768
1941
2152
1847
1360
802
-4
-514
-706
-1315
-1561
-1443
-1479
-1446
-1649
-1598
-1246
-1284
-681
-584
-130
-169
-619
-773
-497
-564
-329
102
-50
257
-31
60
-175
-538
-364
-1
528
517
297
90
4
-286
-333
-328
66
-3
278
69
-166
-140
-71
560
442
555
349
264
293
318
304
356
540
772
644
885
828
834
876
891
662
1036
942
954
692
585
202
432
1049
979
926
1067
1043
1080
1088
1072
1081
1106
1087
1037
756
742
646
450
580
459
1070
1366
1384
919
713
647
666
693
747
1121
969
930
747
838
838
724
1139
984
1317
1369
1289
737
602
369
175
406
795
451
233
299
-54
-73
-4
172
389
464
532
-83
-366
-162
-298
91
-105
-102
105
-271
-158
-189
-303
-89
264
-77
46
5
18
-318
-254
-397
-590
-382
25
14
-354
-193
-253
-572
-604
-254
-285
-85
-102
-350
-620
-424
-235
33
-85
113
-320
-517
-430
-796
-783
-586
-262
263
319
-73
22
-280
36
121
-45
322
152
361
-105
-311
-301
-50
251
387
583
195
347
263
-84
110
-116
273
175
513
198
275
71
-293
25
-50
368
156
341
-26
-112
113
-104
273
171
241
160
-24
62
-289
-338
-347
-263
-65
140
154
-60
-301
-356
45
-45
256
-32
-39
-35
-128
-332
-237
-192
65
363
239
128
105
-175
-549
-202
-263
101
9
-231
-470
-821
-470
-218
102
358
179
339
-45
-95
-90
119
3
-300
96
325
187
376
-6
263
184
626
439
421
412
391
514
273
110
-24
603
678
696
415
360
-2
337
161
379
281
-22
257
-7
-107
6
-308
70
326
568
400
550
340
-73
-88
267
154
533
608
616
512
306
-128
-117
368
385
488
621
157
281
259
285
338
199
612
422
512
-100
-161
-228
-290
-24
364
302
-107
46
55
-126
-67
-51
-40
-3
290
-6
99
-339
-165
-334
-122
333
157
343
-67
65
43
113
-57
-10
283
362
191
176
272
79
34
-62
160
245
136
-63
20
-333
-322
108
181
504
843
623
312
-50
378
617
415
513
311
-66
113
-265
-136
-372
-125
229
458
423
189
-41
-103
266
174
521
247
159
301
-56
-93
-16
157
605
481
787
772
416
195
-70
90
306
434
887
450
335
-123
-10
221
560
204
339
306
288
-71
23
-326
-274
-111
328
207
240
140
-30
126
-71
349
230
542
570
590
532
363
-37
297
616
690
1033
879
431
602
589
581
620
509
656
866
561
-80
-266
104
372
582
638
588
535
533
577
611
584
255
212
234
253
155
-72
-300
-377
-268
-54
139
221
154
-40
6
-330
29
-34
332
291
-72
107
80
70
92
-36
190
621
578
322
53
-283
80
-42
256
-6
307
147
130
-57
-267
-270
268
422
716
1049
739
717
1096
1370
1468
2051
2012
2363
2359
2034
1925
2088
2102
1962
1997
1718
1327
517
-145
-780
-729
-907
-1334
-1160
-1380
-1289
-928
-1036
-816
-555
-319
114
-21
266
-116
-363
-570
-574
-359
-90
317
298
-108
-331
-537
-582
-353
326
389
602
-7
-339
-368
115
338
139
356
374
200
223
128
288
352
597
875
763
739
878
777
485
508
832
692
1081
916
1141
733
819
774
679
964
1171
1155
951
730
646
711
1060
1079
1032
737
748
758
693
803
397
612
485
719
917
947
1027
506
604
431
702
948
990
1110
701
640
878
816
491
801
758
961
941
687
396
521
563
408
484
781
770
637
136
-67
-61
148
629
446
602
152
-60
11
-333
2
-64
316
257
100
3
7
-289
-235
-475
-508
-538
-298
-347
-444
-1039
-756
-611
85
-48
-291
-391
-835
-772
-592
-202
-161
-139
-292
-94
339
328
70
-533
-425
-222
-104
319
97
-561
-470
-219
-14
549
555
166
342
302
-91
-341
-240
-338
339
433
438
141
100
38
-89
303
357
128
161
132
-33
27
17
282
385
810
440
206
320
309
318
269
-15
334
520
635
546
273
-278
-162
-346
107
269
277
-123
-310
-144
-348
49
-77
-12
-2
-13
-16
-2
272
257
-42
-41
324
229
539
353
-270
-565
-550
25
147
577
214
-21
88
-126
275
362
326
-6
-5
309
271
52
-213
-525
-269
375
588
234
-31
36
33
-110
273
135
242
535
166
-50
69
-113
365
553
608
595
599
585
200
-8
-115
267
521
399
569
130
288
327
164
233
528
549
254
366
-102
-275
-327
-258
-122
306
225
600
601
232
366
361
513
463
812
450
216
258
-99
-107
-87
-49
289
142
199
128
-28
121
-75
140
605
386
227
-1
106
91
-105
-32
316
188
534
221
260
11
-372
-344
23
-113
-6
307
-16
48
-376
-335
-76
169
150
109
-244
-429
-414
-585
-543
-254
-143
53
-50
-73
6
-142
-353
117
334
205
563
448
776
622
297
104
285
420
832
532
46
-173
18
358
536
539
557
403
425
232
-47
110
289
575
468
433
600
566
552
240
182
226
632
485
424
226
316
306
175
605
770
884
890
495
540
180
541
498
884
861
776
468
392
193
-69
78
259
588
776
430
196
309
320
353
310
267
351
532
607
175
-127
-266
-81
539
772
475
530
354
-7
-88
-125
-18
232
434
400
162
-62
125
-109
-106
-100
271
208
540
374
105
11
-60
243
447
494
459
385
523
140
364
245
473
881
854
438
525
186
222
612
802
730
1102
1106
729
768
566
535
470
731
1070
867
536
331
325
365
308
-61
-83
269
349
290
-103
112
-3
230
405
454
399
537
368
-68
76
104
-21
352
361
261
112
-261
-269
119
346
539
575
205
315
-34
-99
81
65
-18
580
867
678
888
745
1394
1904
2039
2278
2473
2897
2906
2462
2287
2639
2754
3360
3398
3099
2649
1934
1471
952
393
108
-631
-1047
-1391
-1664
-1841
-1856
-1641
-976
-806
-562
-542
-623
-399
-613
-570
-543
-201
-286
-116
-55
-123
32
-261
54
-69
342
186
151
-15
77
51
-91
309
150
238
611
415
543
261
64
-78
549
867
873
595
286
-86
278
237
427
785
798
481
628
519
215
245
606
508
682
1068
1080
698
511
395
445
640
1121
970
1120
834
519
368
209
461
665
694
852
496
449
408
598
571
412
853
716
653
447
253
213
600
825
762
1096
1036
886
493
436
449
471
475
488
778
778
400
181
280
345
622
885
893
631
304
-122
-116
-75
-112
57
8
24
40
-258
-338
-380
-307
-110
375
230
356
27
-538
-602
-131
-81
343
309
-70
94
49
0
-328
-364
-300
90
-66
-99
11
-364
-342
88
308
181
156
259
50
-131
-244
-523
-211
-362
40
-65
274
-38
37
-137
-149
19
-45
-14
72
-167
-555
-518
-371
48
-80
258
281
-49
28
-176
-524
-180
24
-51
265
-61
51
-361
-211
-190
11
302
210
350
26
-244
-525
-352
83
-81
-17
322
330
-81
-308
-373
86
372
201
266
-269
-180
-226
-529
-595
-566
-374
118
-48
89
-369
-206
-367
103
307
162
194
200
213
202
134
343
192
465
711
684
613
-1
-110
282
183
204
154
162
208
148
-44
61
-109
180
419
390
132
120
8
27
61
78
-120
-9
316
-33
-258
-165
-354
-93
151
221
142
313
297
307
287
288
134
577
463
436
535
141
359
356
314
266
300
155
199
320
101
8
-110
151
580
581
204
275
45
-178
-521
-380
-109
334
313
-80
87
107
-95
-83
-93
-63
-29
-104
-342
-630
-498
-623
-356
115
-68
-76
-96
95
-309
-208
-178
86
376
168
-66
-325
-340
-109
165
596
446
793
789
568
-71
-368
-375
116
345
135
304
261
337
212
553
573
601
422
496
456
251
-12
109
-35
523
809
895
509
564
204
225
525
518
241
558
452
801
438
191
300
172
488
723
718
819
457
470
494
424
577
578
433
493
590
-13
-318
-358
-108
244
476
497
629
231
154
128
372
381
195
576
401
598
164
272
294
224
433
784
485
600
149
-57
54
55
-37
188
586
582
198
285
-120
39
32
-127
277
359
272
43
-154
-384
-87
583
883
687
817
395
559
556
612
465
861
714
715
862
492
505
674
1146
1020
1282
965
900
1072
680
505
388
395
471
489
628
187
319
322
153
519
629
466
500
403
165
-114
-290
-272
-99
340
140
308
-77
117
-119
-78
-42
277
366
147
286
37
-178
-200
-278
-25
150
164
293
119
20
66
-9
253
812
1138
1158
1265
1201
1367
1171
1662
1678
2124
2007
2386
2428
2039
1789
1878
1865
1526
1312
161
-842
-1585
-1682
-1764
-1712
-1831
-1635
-1189
-1325
-978
-1091
-875
-394
-227
-371
-291
-266
-310
-359
-316
105
284
341
280
-64
-122
75
-274
-310
93
148
424
464
551
165
545
878
949
1389
1211
1546
1616
1559
1335
1073
684
704
1027
1057
1064
1069
1031
656
809
880
1119
1292
919
825
528
221
611
496
846
696
1060
1061
650
468
428
769
801
435
591
411
842
862
612
313
286
583
659
744
860
478
500
825
808
485
511
892
693
823
631
563
388
467
453
424
482
803
435
380
76
6
-79
148
539
570
529
153
-26
111
-92
366
548
568
170
-13
-128
118
-57
339
229
552
204
-51
-340
-214
-329
-8
250
249
280
47
-266
79
-110
94
2
-258
97
-78
-125
-286
-191
-238
-145
7
102
91
15
-325
-157
-521
-588
-220
116
224
560
259
-168
-590
-373
-9
177
343
-127
-292
-365
-380
-339
30
-56
347
129
284
116
10
32
-127
-76
-117
104
-59
352
348
73
-524
-580
-257
136
192
103
-569
-442
-225
124
131
227
180
296
-111
87
-103
-14
-32
113
43
94
-96
86
-362
-213
-336
-47
191
514
192
335
-67
5
-381
-300
-1
537
513
-103
-229
-542
15
380
535
213
367
333
294
-75
76
-117
128
623
416
529
338
-30
-45
256
335
170
224
196
360
269
-37
-31
296
180
572
581
147
-104
54
-37
514
435
630
183
309
290
279
-92
-264
-341
8
-76
282
268
-38
-37
262
292
308
360
195
224
338
55
-185
-198
28
318
201
356
102
-384
-201
-368
50
-81
-41
-73
122
57
-263
-337
-380
-322
116
318
357
-106
-142
-230
2
348
211
-3
-307
-142
-270
86
-282
-235
-255
8
344
214
321
87
-260
98
300
232
596
580
159
-84
44
-84
221
458
459
570
250
599
430
585
360
272
198
457
494
247
-37
-90
346
554
636
625
631
386
552
340
-106
-106
345
575
413
592
183
322
299
354
212
624
773
832
455
175
-94
114
354
423
786
569
-15
94
-67
315
276
-124
88
-37
363
333
-93
40
88
-9
377
163
166
166
363
-54
23
-263
-60
239
398
555
309
-103
-76
293
362
365
373
150
137
290
-99
107
-77
319
205
591
423
395
225
295
278
211
447
787
432
546
246
562
409
796
730
949
1336
1010
758
477
588
384
797
647
836
612
365
-13
284
140
207
212
213
225
189
310
-114
73
-104
273
300
-44
99
24
-289
-352
-358
18
-38
349
322
-69
64
0
-302
-336
-289
115
-14
-67
-309
-544
-561
-339
-19
240
393
494
850
716
1138
1359
1610
1837
1769
1933
2338
2428
2186
2427
2184
2187
2306
1907
1020
553
-131
-713
-1164
-1447
-1534
-1456
-1568
-1204
-1162
-1377
-959
-852
-361
263
286
-274
-618
-442
-243
-262
65
21
66
259
165
363
-91
97
317
441
699
691
504
570
230
249
589
462
859
710
755
744
690
863
790
791
889
733
692
478
515
222
623
802
663
1034
952
1335
987
686
431
443
657
1051
717
823
797
640
701
662
662
1094
1344
1156
942
893
508
875
1064
935
1018
1367
1159
1306
1077
672
765
1016
1191
1397
939
752
646
829
495
465
797
673
727
885
465
403
772
698
1026
659
458
572
513
183
278
91
21
-126
316
172
139
257
90
-291
-305
84
301
172
334
58
-202
-536
-194
-329
-275
-291
-325
-376
-194
-238
-173
18
-21
337
275
100
-359
-540
-412
-431
-554
-317
126
-114
7
-138
-181
-150
-139
-177
-215
-210
-197
-235
-564
-581
-207
8
-59
269
-35
96
-313
-198
-254
-170
33
-22
297
-74
-263
-373
-329
65
-50
296
348
358
281
112
-324
-380
-273
-111
-56
98
-329
-184
-197
-158
-360
-272
101
-92
83
-133
-600
-405
-546
-341
82
-104
-124
40
-334
-144
-337
-121
150
587
602
251
162
135
134
365
344
382
190
176
272
62
-275
103
326
209
186
331
-14
-33
-8
291
362
206
558
608
585
241
376
271
258
363
537
423
453
639
542
237
531
391
799
649
643
786
626
236
167
184
550
438
497
389
171
272
286
161
532
579
608
402
405
523
273
78
82
271
232
582
513
345
-69
-119
-8
231
491
880
783
215
115
-320
20
-1
147
326
-123
32
114
259
301
-14
-26
352
248
229
-23
-349
-256
-163
87
328
200
204
366
-24
-108
-61
363
524
551
179
281
-83
102
40
23
126
324
212
171
-12
104
-124
263
338
317
298
371
210
190
296
-61
311
589
792
507
557
366
306
310
261
-93
-107
311
558
404
231
-86
0
-113
210
399
558
308
-108
-99
-32
261
323
230
425
491
616
168
353
190
609
491
837
876
830
420
223
131
234
473
681
720
850
434
629
401
420
386
634
494
659
670
426
340
-64
358
403
797
404
134
-40
-28
320
352
287
-50
-70
-75
70
-192
-462
-780
-558
39
-7
-12
-111
88
79
45
-272
-276
55
113
63
-319
-169
-211
-218
-177
-272
-20
138
277
-306
-531
-147
-19
561
409
410
487
894
725
755
935
1411
1986
2265
2347
1749
1917
1923
2217
2214
1935
1909
1520
1608
1148
143
-625
-1149
-1406
-1546
-1427
-1812
-1866
-1796
-1565
-916
-442
-310
-121
-70
-14
321
292
84
-150
-368
282
466
787
153
-289
-370
-63
548
406
578
520
554
570
250
222
598
510
776
583
378
339
150
143
283
-7
186
491
885
465
170
301
216
794
758
750
868
501
482
768
511
477
488
841
711
740
853
604
168
218
501
1104
1285
939
667
415
581
391
771
872
673
715
761
1060
1071
1030
736
1055
991
1195
1216
987
664
486
800
722
1118
933
993
1286
954
740
782
777
1028
1325
1388
1142
790
606
406
786
788
441
434
838
710
854
532
292
133
471
704
852
244
-69
90
-86
300
150
216
221
136
-20
93
23
3
-268
-285
-275
-258
-334
-548
-774
-799
-565
-265
96
-307
-253
-592
-607
-451
-891
-709
-816
-587
-534
-446
-880
-870
-451
-556
-232
-181
-354
-322
-191
-414
-808
-478
-524
-362
-356
-227
-404
-823
-674
-671
-769
-253
-302
-281
-178
-639
-500
-496
-413
-560
-211
-173
-214
-544
-551
-181
11
-79
-1
278
309
344
324
-38
95
95
289
592
804
785
589
149
354
382
380
356
156
551
593
138
77
-319
-104
554
816
788
587
149
320
299
313
128
247
583
547
150
-4
-89
-71
302
210
606
391
533
290
37
-331
34
297
522
532
304
10
-380
-263
-3
212
531
229
163
356
-12
84
-274
62
293
216
166
-86
-321
-365
4
-115
-17
320
358
-16
-327
-400
-779
-418
-542
-538
-579
-229
-290
33
-380
-544
-170
-38
541
516
-44
-320
-364
12
-121
-42
290
382
200
218
162
295
-97
-124
319
394
863
480
357
53
53
270
197
227
193
173
360
-63
59
-82
537
841
781
159
107
126
360
224
354
-75
-28
255
503
479
247
340
172
429
874
868
501
426
406
622
543
514
636
864
747
667
433
250
518
418
814
850
821
796
491
588
313
60
23
-33
189
161
86
-538
-623
-359
260
166
331
-87
94
68
-280
-176
-251
-162
12
117
99
10
-338
-132
-131
-324
42
-118
-70
-43
-40
-102
4
-353
62
241
680
1056
844
632
493
928
1660
1703
2090
2163
1930
2077
1850
1421
1480
1749
1974
2151
1483
928
449
352
9
-431
-928
-1605
-1853
-1683
-1909
-1510
-1238
-1104
-423
-309
-42
361
383
284
116
-267
13
-53
211
389
614
156
-38
-35
203
507
648
774
206
-85
83
-39
186
592
575
192
344
327
345
328
292
344
528
491
835
469
530
159
185
543
629
408
397
604
528
205
189
246
619
772
648
678
813
591
159
153
577
796
674
674
821
414
566
581
461
640
744
728
651
855
846
849
860
661
1043
930
1006
986
910
1076
744
732
1092
1295
1202
1159
1130
783
612
444
693
904
955
1103
664
492
627
573
606
472
877
682
829
609
209
536
490
863
495
518
366
340
290
95
-380
-137
111
143
214
293
68
-271
32
94
112
111
111
56
-357
-560
-436
-431
-583
-191
-310
41
-267
-529
-888
-1074
-652
-533
-313
-204
-805
-738
-863
-586
-176
-197
-219
-384
-294
-166
-780
-1115
-900
-880
-527
-343
-374
-237
-567
-565
-529
-227
-155
-292
86
122
20
-154
-226
-309
304
613
398
176
-93
57
124
-60
-107
50
59
-25
170
163
-95
-132
-140
-17
488
718
768
353
101
-95
375
247
228
164
148
145
335
-18
-39
325
514
429
509
471
565
334
-89
-60
175
447
780
585
259
37
34
-107
-37
-55
-82
-51
-17
-73
50
-287
39
-48
327
302
-83
32
-313
-326
5
-98
307
344
-6
126
75
86
51
-320
-142
-298
-57
351
-18
-307
-251
-188
69
296
351
264
126
4
-319
-300
52
-97
-71
108
0
-333
-382
-160
-371
91
155
391
634
178
258
-37
-26
-56
-75
278
188
223
289
55
41
285
566
411
591
219
383
294
-48
-37
132
636
827
647
890
831
470
588
246
545
419
476
588
278
-271
-368
12
-25
133
172
131
303
-86
-258
-377
-322
-105
348
350
-91
-290
-360
-321
-270
6
23
48
22
-361
-547
-417
-387
-196
69
282
328
-73
-308
-215
-204
-308
121
-21
280
290
302
364
553
654
1355
1430
1498
1604
1179
1162
1272
1612
1595
1277
1254
1230
1321
680
153
-365
-799
-916
-1239
-1458
-1802
-1840
-1666
-1735
-1857
-1404
-510
8
-48
-118
4
-283
77
270
219
600
568
135
-74
65
69
-120
-27
366
546
430
438
578
202
193
553
418
473
446
633
554
236
210
524
437
680
1137
1142
889
519
295
371
393
889
665
789
389
589
617
433
787
648
767
1111
1137
1068
886
387
215
238
426
858
864
462
578
587
476
665
1080
933
953
1101
886
427
629
494
685
1080
1144
914
1145
757
781
596
635
646
907
901
858
255
140
573
853
754
708
803
408
612
620
630
632
420
780
871
823
602
334
-43
271
377
144
369
143
240
521
382
-71
119
-22
378
381
-21
51
-354
-210
-519
-188
11
-62
-45
66
-349
-154
-140
-370
-319
60
-64
-78
-305
-596
-454
-578
-350
40
40
-260
-292
-361
-254
-409
-414
-214
50
-101
3
-541
-482
-464
-563
-164
-379
-150
-203
-550
-436
-832
-846
-414
-381
116
-64
96
-353
-529
-590
-231
-278
-121
118
-317
-527
-639
-624
-524
-377
33
120
64
-363
-240
-206
-318
18
-310
-172
-163
-282
55
-332
-594
-459
-528
120
180
217
270
28
-340
-288
-126
341
528
620
549
352
-72
-63
371
556
590
233
135
371
375
340
322
179
397
785
428
169
-36
-75
-27
-9
-6
326
223
599
572
153
-28
-113
-50
129
569
620
201
-58
51
-125
352
525
572
554
512
144
-47
71
-106
182
449
463
201
113
-349
-348
42
-60
304
359
128
383
356
311
266
-12
-2
275
277
-30
98
-316
-148
-330
-110
358
168
333
-76
48
-305
-365
-315
-124
352
157
256
33
-307
28
113
110
86
-111
-13
-37
17
-202
-231
-275
304
551
614
239
282
109
97
275
523
393
564
338
-114
101
-48
372
249
570
596
617
630
585
187
258
-71
326
593
769
441
199
277
325
556
800
660
888
774
634
525
234
536
634
464
495
460
632
520
144
307
277
331
192
556
557
150
-74
40
65
-60
287
277
-24
-49
-106
-279
-235
-537
-327
-31
319
112
-194
-589
-517
-144
-371
-134
-339
31
70
-332
-587
-479
-628
-334
-78
-54
-275
-554
-638
-174
-49
545
502
695
963
1252
1632
1271
1396
1253
1886
1986
2036
1783
1489
1637
1445
1506
1436
1191
740
319
-486
-1173
-1520
-1533
-1655
-1268
-1396
-948
-719
-781
-632
-198
35
-39
-32
65
-375
-203
-173
-340
23
-103
313
205
525
198
262
36
-327
46
324
558
583
178
319
135
578
455
456
407
396
618
186
-108
-326
-277
268
580
463
413
544
190
136
366
133
217
572
604
537
170
358
375
208
590
457
510
438
530
148
158
539
412
487
812
662
746
686
481
542
529
445
883
641
468
239
365
367
193
551
414
831
735
1032
874
603
204
609
687
902
1045
440
377
287
139
563
442
790
858
883
828
444
548
190
205
592
487
778
631
362
119
25
117
323
251
524
317
-274
-552
-622
-248
-326
62
111
93
7
-137
-514
-513
-130
2
21
-341
-219
-552
-581
-613
-635
-588
-190
-285
15
-380
-602
-472
-388
-141
88
-117
-277
-540
-497
-826
-795
-497
-485
-481
-442
-640
-627
-412
-443
-391
-516
-383
-320
-332
-143
-525
-431
-780
-427
-150
113
-125
-367
-386
-460
-588
-194
-183
-226
-188
-332
-281
-355
-196
-172
-278
-128
-68
-73
-107
53
-143
-591
-588
-323
294
237
195
293
-63
-43
313
206
631
478
416
204
-15
-87
-6
377
209
528
595
631
575
177
298
282
159
623
503
450
202
-92
20
122
382
611
413
573
173
310
-5
-10
292
355
376
336
281
-15
-63
98
-257
21
-35
225
584
175
-117
-321
-306
-121
348
215
199
323
-102
56
86
-70
-10
-23
-46
-16
266
-92
-327
-248
-166
-114
160
151
-120
-148
-237
-379
39
112
84
37
38
71
48
-341
-518
-560
-333
311
547
383
-325
-639
-253
-54
576
584
317
74
5
42
69
84
-100
279
360
351
297
-2
-33
-81
-121
-91
275
380
366
-44
17
-312
73
337
555
587
200
298
-31
-27
-16
257
326
186
239
129
-87
15
22
-113
265
342
143
175
383
-11
-128
-84
142
385
433
232
-58
17
-261
21
-266
-306
34
-16
374
259
-288
-216
-348
-14
241
246
313
96
-307
-369
-343
46
264
194
222
329
100
-314
-314
50
-121
-124
112
-96
-34
-104
-319
-202
-295
341
565
129
-279
-535
-217
-265
116
-98
-3
141
181
296
112
67
-73
337
192
526
589
585
222
349
327
209
427
845
854
435
185
271
318
551
497
480
571
216
253
523
368
-81
-29
571
881
846
548
355
217
440
452
252
134
532
480
430
368
93
-110
227
816
678
864
478
635
595
637
787
738
1124
1069
866
409
569
569
602
401
510
644
668
480
166
-44
258
231
425
439
562
128
-23
-117
-116
262
163
206
323
111
-282
-327
-137
-524
-591
-190
126
342
-28
-144
-443
-399
-303
312
137
-79
-373
-532
-520
-197
-169
-132
-268
-120
-100
-262
-174
-372
-60
534
424
388
581
557
248
375
264
342
629
702
913
990
1297
1166
1650
1694
1999
2238
2628
2675
2673
2607
2203
2034
1967
2010
1948
1508
652
-314
-707
-905
-900
-1004
-1256
-1412
-1248
-1080
-399
-167
-333
26
-45
148
222
376
-107
-361
-539
-557
-147
64
-96
35
-250
-504
-806
-613
-297
-52
-6
126
-266
-272
100
-51
-49
-107
-104
-6
314
-35
21
-364
-288
-61
154
231
179
344
281
-8
-18
260
324
163
243
237
374
-65
64
126
146
495
697
644
452
596
411
833
699
750
1054
1105
1060
859
616
547
487
1045
956
1147
709
841
848
660
709
762
1142
1314
1394
1013
747
811
871
1134
1367
1372
913
678
799
491
439
638
395
497
842
798
393
552
612
508
858
827
487
415
577
383
124
-290
33
-7
163
162
297
-77
110
47
-279
-287
77
-36
-28
14
-538
-411
-513
49
-10
-71
-309
-536
-395
-434
-451
-427
-576
-178
-142
-543
-775
-663
-894
-778
-436
-396
-582
-191
-342
-139
-598
-779
-508
-571
-130
-368
-240
-624
-403
-608
-247
-332
-103
354
381
-70
-358
-528
-225
-286
-88
273
283
-40
75
-357
-236
-243
-348
112
-62
69
-151
-226
-288
302
245
186
273
-36
306
340
-72
-300
-362
81
338
197
148
308
-20
-65
-82
-1
177
561
239
273
96
91
-85
-52
-52
283
173
191
-15
-263
-289
-77
373
365
-16
-54
-1
-44
-274
-250
-216
87
368
342
19
-560
-603
-345
-7
174
382
-10
-67
-48
-88
-262
-201
-215
-276
-66
-34
76
-326
-337
23
-103
259
346
129
306
82
-175
-552
-190
74
312
369
258
-121
-115
-5
340
355
377
243
413
474
601
383
-13
277
199
417
826
800
539
-92
-312
69
176
445
409
192
342
191
590
584
228
239
437
892
852
565
270
-54
378
607
448
393
547
228
187
377
315
364
567
812
652
773
520
331
290
359
209
562
600
250
277
57
25
-53
177
536
251
204
186
130
-7
123
-116
288
148
367
-33
98
47
38
41
104
287
530
394
522
-41
-298
-312
-90
171
525
162
-31
96
84
-112
-23
332
160
167
292
51
-174
-250
-144
64
-1
368
149
130
326
-9
-51
286
245
461
498
549
-15
68
-119
322
186
209
218
515
514
156
294
291
168
579
405
421
404
569
368
-109
90
264
244
584
204
-4
102
67
-109
318
243
564
184
-46
44
32
113
-50
308
179
532
245
340
-70
-84
283
156
207
177
349
-35
96
60
-94
339
205
200
377
304
-7
-91
58
18
-124
364
560
574
131
-120
-260
57
276
246
611
583
216
340
-34
-124
119
-32
147
523
202
-22
34
50
317
428
702
1064
1053
735
885
488
632
406
845
752
703
432
141
295
381
242
534
551
389
481
398
370
108
-121
175
425
630
358
-81
-6
179
232
378
298
377
234
151
87
-249
-619
-222
23
-50
284
297
281
256
-16
256
331
202
592
410
396
596
617
811
900
1271
1816
1750
2115
2118
1737
1864
1696
2331
2547
2789
2919
2568
1949
1881
1256
1061
583
118
-638
-941
-1453
-1767
-2106
-1780
-1851
-1269
-1103
-780
-465
-856
-688
-837
-617
-198
-145
-146
-189
-567
-462
-483
-537
17
-87
101
-284
-312
2
39
24
48
-93
307
374
350
307
297
320
371
217
626
493
470
546
353
319
204
389
470
426
597
526
191
333
256
334
583
866
742
671
507
408
446
832
703
1025
1046
1034
710
805
594
233
634
736
1303
1303
737
405
606
837
1104
926
1102
1051
1091
1086
668
445
394
879
963
1391
1284
1035
843
508
459
637
577
581
611
570
173
286
267
144
602
506
808
465
523
291
-126
110
-52
294
289
-70
56
-300
-369
-155
-149
-311
117
267
260
67
-191
-570
-198
51
-53
-127
-330
-205
-177
-355
-347
-352
38
302
188
-2
-146
-400
-573
-328
56
25
22
-108
-6
-110
-349
-205
-324
-93
-10
-120
-294
-158
-211
-210
-133
48
-16
313
-28
69
-317
-129
-130
-308
93
-29
260
-62
121
117
-108
-99
-97
-57
-13
-71
6
-144
-364
101
301
350
280
-31
-32
-52
123
40
35
99
-98
-75
-82
-118
19
-160
-238
-324
278
527
220
-52
-264
7
-91
307
376
177
231
181
-62
-158
-389
-588
-302
-20
300
106
-203
-406
-633
-153
107
-2
-18
109
-319
-215
-539
-227
-324
104
-58
-52
-81
-116
86
17
2
83
-47
-3
-113
-314
-200
-190
-304
-107
327
183
218
171
328
-9
-13
321
168
209
152
295
-65
-116
119
122
-80
300
193
519
203
338
276
313
141
204
221
187
328
120
-356
-203
-363
111
301
138
170
173
366
-45
47
30
-56
154
194
259
-259
-377
-290
-90
344
201
239
188
292
79
-334
-331
91
301
148
322
107
-340
-355
85
328
182
355
-72
95
111
106
-287
-221
-525
-345
-79
279
111
-178
-586
-213
78
324
135
318
-11
-3
322
135
202
575
495
889
858
633
355
-54
258
202
389
437
593
185
355
378
183
221
530
407
824
841
597
-13
63
-70
177
530
164
276
-1
313
321
275
303
213
405
458
590
134
-19
-76
-33
340
238
610
620
514
364
282
339
518
446
491
616
149
267
259
303
330
358
173
239
192
271
110
124
316
535
401
435
443
406
242
-43
-273
2
271
570
385
168
102
-320
47
331
560
579
174
289
282
134
245
560
618
478
892
731
675
483
512
379
166
633
644
1058
767
850
428
614
630
410
413
606
205
267
104
52
110
-33
368
541
408
584
263
-343
-171
57
331
363
-102
-314
-360
-303
-273
-269
58
-49
320
310
-55
84
28
53
-95
312
178
193
355
-25
-96
-60
381
454
1098
1152
1568
1640
1469
1838
1673
1761
1941
2214
2663
2602
2329
2073
1697
1825
1220
646
293
-222
-716
-1555
-2117
-2368
-2146
-1638
-964
-1102
-914
-915
-731
-466
-552
-530
-566
-575
-558
-571
-619
-631
-568
-208
-130
-338
-284
21
-265
-383
-191
-282
339
636
631
141
-47
-25
353
158
208
390
672
1065
894
588
223
423
714
1087
753
652
879
864
808
773
846
736
1067
738
838
455
396
631
634
453
640
1136
1302
1288
1120
696
667
1049
961
1304
1284
956
1138
1052
707
681
1046
989
1385
1351
921
753
709
1051
925
1305
1400
1165
1292
763
499
427
824
741
1024
685
684
1079
914
753
429
531
465
1024
1031
611
79
-136
78
195
408
622
198
314
-22
-81
122
111
-102
-42
-33
-95
41
-349
-201
-251
-220
-133
-319
-358
-530
-482
-821
-450
-204
15
103
88
48
16
-293
-380
-173
-360
49
-111
79
-357
-242
-516
-211
-181
-170
-372
-288
-278
-153
-591
-393
-521
-313
105
-65
-27
-74
-271
-558
-457
-559
63
332
270
-300
-570
-586
-383
114
-6
258
-65
107
42
6
-268
-267
33
-110
293
368
286
91
-323
-327
65
-35
280
-27
108
-291
-157
-234
-249
-197
-341
49
-122
99
-299
-153
-336
-75
201
540
139
-81
53
50
56
2
-325
-313
23
70
13
-360
-151
-325
69
-101
-98
-118
-119
-119
96
42
73
-10
226
624
571
372
-76
99
112
-106
-80
-42
277
306
-10
127
73
-67
192
435
511
403
192
266
-54
282
216
399
442
564
339
-77
-89
261
380
214
514
222
350
-51
-97
-14
362
174
220
577
445
423
171
119
39
263
549
599
380
113
18
89
-67
-10
301
382
166
345
-94
-290
-144
-131
-263
-89
296
289
-122
-323
-165
-340
125
325
133
288
98
-309
-319
45
-86
-20
260
299
329
263
106
0
85
292
353
119
-236
-637
-219
-267
-312
-559
-385
-338
140
606
363
-308
-226
-289
277
136
262
64
-290
-291
-291
-305
16
-36
207
556
156
-118
-308
-296
111
262
364
197
525
242
314
86
22
-25
562
478
600
283
52
56
-25
153
234
254
255
211
308
49
-165
-177
38
327
216
134
-70
59
116
294
197
238
163
296
-70
109
78
105
-73
268
311
312
305
310
300
-10
-60
-22
381
545
599
253
345
-29
-24
129
637
861
656
486
230
365
218
429
779
418
242
157
177
179
338
-59
-118
-45
336
140
331
-96
-291
-158
-134
18
-76
-15
-70
94
38
31
77
-43
178
629
387
179
-87
47
-127
301
170
212
212
192
378
262
-89
-100
-31
303
330
291
-39
-90
-64
318
547
870
996
1587
1489
1465
1419
1809
2147
2237
2660
2671
2437
2526
2535
2575
1931
1803
1233
1116
527
-244
-1000
-1795
-1772
-1711
-1440
-1366
-1111
-728
-655
-784
-586
-164
-374
-189
-565
-418
-484
-485
-407
-533
-146
-279
118
264
321
-60
-307
-213
-133
-110
133
166
268
99
38
100
-29
374
248
560
252
377
282
293
380
208
253
553
634
436
635
201
282
266
199
473
894
849
419
547
584
480
873
676
697
728
710
812
556
129
209
491
727
723
783
612
616
488
849
869
875
696
1074
1122
1036
646
866
713
1139
995
1005
949
1133
1063
737
685
714
1075
928
944
1064
820
580
212
543
495
685
725
851
389
218
377
341
342
350
306
-101
-323
-223
-197
-261
-42
327
316
-8
-115
-282
-235
-395
-415
-563
-178
-129
-182
-525
-561
-542
-255
-235
-218
-194
-195
-526
-406
-784
-812
-467
-565
-136
-265
-257
-172
-454
-641
-821
-546
-343
-160
-436
-659
-671
-793
-408
-571
-201
-311
57
70
-263
-341
-338
28
-59
327
313
-107
-260
31
-26
359
257
53
20
-46
362
-36
-365
-238
47
521
511
638
370
-11
276
270
-115
15
35
-89
-10
-88
14
-315
40
284
527
611
229
265
-102
-6
183
533
236
193
514
612
550
272
-311
-201
-341
-85
356
351
-50
88
-116
327
211
155
-19
-88
291
161
292
-328
-604
-247
-119
174
363
39
-209
-173
64
276
342
316
289
278
-36
86
-320
-368
0
-66
304
257
102
-258
52
-20
174
543
583
594
567
195
-5
90
112
315
249
231
-2
22
-257
-82
375
217
247
563
385
601
380
113
8
-116
378
522
245
132
293
-1
274
372
535
396
595
365
-115
87
-80
-13
-46
-75
285
213
550
195
290
-11
343
203
244
233
222
179
304
126
52
-85
378
233
158
-17
103
74
-127
-34
321
383
364
-22
31
-138
-176
-333
85
-62
-70
118
119
-4
168
203
311
-103
-73
356
140
120
-567
-783
-592
80
140
207
371
-4
-101
109
-78
363
524
226
-16
18
32
256
236
601
616
639
432
415
546
148
363
181
541
607
387
412
403
602
541
554
397
769
849
655
724
736
875
429
600
474
699
1041
895
384
211
205
593
823
1085
995
961
1037
642
645
710
724
723
1074
975
996
1046
798
495
870
865
576
-46
56
102
78
-150
-609
-233
-99
199
178
-17
-116
-85
-111
3
-313
-125
141
150
90
-226
-224
53
288
309
-23
-30
-11
-112
-334
-222
-151
40
-118
57
-353
-154
-278
291
456
1125
1192
1433
1912
2097
2118
1671
1460
1531
1924
2295
2267
2115
1462
1613
1633
1394
510
16
-784
-1097
-1391
-1503
-1771
-1715
-1613
-928
-881
-450
-568
-180
-368
-154
-237
-240
-376
45
117
27
-141
-216
-341
-62
182
245
128
-62
40
-285
5
-111
339
217
202
332
-34
-46
297
174
563
409
432
601
170
257
-59
285
212
384
460
424
577
235
222
515
550
552
531
248
225
212
232
549
631
461
817
675
758
759
665
776
633
538
551
435
868
643
438
165
370
637
726
1082
894
410
612
423
422
586
575
777
1109
1340
1325
1144
742
748
1127
962
917
1030
892
808
493
441
460
874
1100
935
1038
771
630
436
789
487
592
526
629
498
448
208
-31
-73
350
562
404
583
129
-88
31
25
123
-12
293
-37
42
-142
-228
-162
28
-35
288
-68
2
-141
-163
-352
-287
-278
-317
-352
-357
-364
-160
-526
-393
-442
-620
-205
-352
-132
-529
-631
-583
-162
-259
70
85
91
52
-354
-585
-486
-430
-204
-265
5
-378
-232
-239
-169
-331
24
100
79
-329
-523
-595
-241
-347
-287
-292
29
-75
-2
96
-202
-629
-250
67
326
378
269
-114
97
-100
288
158
185
345
-55
104
79
75
87
-50
235
795
852
585
-46
47
-91
348
129
295
-29
-25
-19
-35
278
193
604
583
173
320
335
347
-42
11
-294
-104
154
516
170
275
-48
-15
305
345
365
382
132
324
-95
-287
-377
-276
-60
348
331
-46
-114
-90
-74
108
9
19
-106
-13
-115
-377
-550
-179
-90
224
533
343
-117
97
-107
99
-370
-581
-581
-360
112
102
-378
-590
-571
-289
319
246
151
-125
-369
-172
-300
-119
-3
294
297
300
308
334
165
591
781
874
797
597
135
274
-4
264
272
307
152
548
611
248
281
-120
-31
240
455
422
186
-15
-23
359
207
236
517
597
395
569
362
-67
-54
144
637
491
435
546
143
324
329
130
208
548
630
412
595
152
-35
-59
129
633
458
534
-40
-279
-305
95
279
146
163
340
-27
-81
-44
278
292
-17
-55
261
377
159
328
-41
-32
150
634
500
466
582
152
-3
-95
-70
347
584
494
486
605
241
529
398
484
469
438
481
801
508
626
553
431
688
1079
676
597
302
-78
-81
-82
-122
100
123
-64
-5
-14
-78
106
82
126
-56
-27
-79
52
-341
-162
-382
17
-79
-43
77
-374
-202
-374
22
79
63
105
256
128
316
80
-355
-301
-77
352
376
351
178
405
691
985
1578
1690
1961
2018
2159
2078
1927
2412
2580
2581
2182
1945
1846
1324
434
77
-444
-908
-1622
-1745
-2171
-2114
-1697
-1812
-1410
-1403
-758
-392
-218
-536
-453
-849
-874
-790
-394
-519
-201
-227
-568
-393
-437
-430
-616
-231
-332
47
88
43
-279
-287
76
286
219
517
138
-7
261
189
387
453
434
492
653
741
814
190
-40
342
451
720
695
473
539
239
570
471
691
899
943
746
448
553
402
870
738
731
713
1034
1119
1121
1044
752
1100
1007
1371
1336
921
726
838
802
872
743
1096
1118
1099
1096
1114
1109
1054
746
1024
1110
1148
1030
781
549
197
236
586
396
430
429
625
243
136
157
581
773
833
458
253
334
-23
-73
-80
-15
360
176
342
87
-187
-557
-194
25
-100
60
-250
-856
-1031
-691
-463
-560
-584
-429
-431
-554
-145
-361
-184
-543
-585
-566
-518
-209
-186
-226
-573
-599
-196
85
305
299
89
-151
-530
-547
-537
-249
-133
65
-46
-100
-333
-548
-554
-367
61
21
-215
-452
-503
-607
-382
40
115
-98
-61
-77
65
-359
-211
-176
-281
-119
-53
-96
81
56
124
-9
359
137
345
274
-24
-41
-83
98
50
107
257
376
323
80
-215
-631
-563
-356
65
77
-276
-355
-358
-334
-335
-310
92
331
230
133
97
-136
-373
90
-7
-49
41
-343
-380
-160
-254
-570
-194
96
339
345
-83
55
123
-4
-15
111
85
275
234
180
107
-174
-364
-29
241
224
260
52
-284
0
100
269
191
523
213
380
368
161
173
131
380
206
551
533
155
307
311
381
188
243
580
393
610
175
-17
-66
317
218
245
371
-55
101
99
-119
-93
-49
332
548
474
458
216
-67
106
277
237
250
289
45
-290
42
126
-106
-53
349
253
552
198
332
298
330
351
346
380
214
517
176
265
-82
268
228
402
427
564
372
-84
35
33
-62
168
562
519
381
331
194
635
462
406
572
549
549
205
304
-18
143
449
661
653
780
453
457
400
229
334
358
250
552
383
-119
25
92
-43
286
338
160
195
357
-62
-128
-19
144
190
362
277
274
284
-54
45
-299
33
-47
321
269
94
-328
-378
-294
121
283
133
147
326
-34
-36
157
775
907
1179
1562
1614
1649
1659
1646
1411
1523
1686
1766
1895
1576
960
696
782
585
-12
-247
-1031
-1230
-1830
-2086
-1983
-1943
-1920
-1251
-923
-1075
-1114
-1093
-660
-429
-541
-239
-191
-348
-272
-302
-137
-163
-322
74
-117
103
20
-315
-375
-357
79
150
475
874
789
602
217
198
512
609
472
823
816
439
557
518
587
413
438
427
432
442
402
574
514
539
387
777
641
717
703
818
603
216
572
864
1114
1126
686
784
820
744
896
928
916
957
991
1122
832
610
434
751
969
1116
850
791
1051
1334
1292
702
452
803
1091
934
670
528
330
187
452
652
701
883
476
556
178
195
612
800
844
403
335
87
73
270
227
531
163
310
305
325
-19
54
-316
-269
100
121
37
-274
44
-121
121
17
-295
27
100
2
-545
-865
-766
-705
-769
-545
-350
13
-293
-227
-402
-387
-178
37
84
-271
-351
-331
-310
-378
-200
-377
121
296
-74
-177
-497
-820
-420
-513
-190
-183
-162
-381
-378
-158
-175
-351
118
144
589
528
-57
-209
-416
-556
-277
108
-312
-600
-440
-233
66
-90
36
-325
52
258
-31
-369
-427
-606
79
183
163
-97
21
126
-17
-127
-132
-517
-145
57
-17
102
72
121
-69
-55
-59
-37
-33
127
-296
-134
-332
27
29
-311
-299
-104
344
-6
-151
-781
-774
-131
258
273
-340
-484
-891
-504
-246
4
-71
282
274
-77
105
-87
367
570
384
545
133
294
293
317
288
-25
-16
357
230
232
366
-7
-8
328
140
195
546
394
616
128
-115
119
331
527
252
362
320
164
218
352
-59
-20
206
632
575
381
268
321
174
223
230
539
638
424
580
128
-22
258
218
499
651
809
530
268
-71
292
212
565
546
205
148
169
516
616
435
484
772
498
610
327
26
-377
-315
109
-43
-69
100
26
-276
-318
-361
-129
-133
-375
-358
-348
-374
-180
-221
-154
30
-27
295
-53
60
-289
-329
-366
-377
-304
81
-105
101
27
68
-30
378
179
187
240
566
566
255
559
834
996
1613
1792
1806
1457
1553
1387
1319
1401
1253
1206
978
711
509
561
-47
-533
-717
-998
-1209
-1471
-1734
-2056
-1850
-1254
-947
-653
-517
-99
338
116
-569
-778
-544
-83
196
135
-64
126
-24
346
346
276
-18
-12
-27
-88
101
69
79
-100
325
547
420
586
339
-97
-46
166
587
573
184
344
356
176
220
193
154
188
546
600
249
307
-82
-38
374
236
535
589
427
442
527
276
-67
383
422
811
461
576
570
438
845
733
931
1182
1595
1239
928
666
668
1143
1320
1280
1119
1030
1055
1054
670
789
850
1120
1392
1211
1348
925
1073
1030
1036
1101
909
1125
682
451
587
605
402
422
449
773
818
494
589
221
232
558
596
611
403
434
585
338
-112
-67
149
539
170
-112
-361
-242
-566
-583
-233
-281
-111
103
-137
-617
-389
-531
-198
-235
-533
-211
-365
-140
-581
-476
-418
-204
-331
-165
-607
-434
-396
-401
-797
-669
-834
-544
-328
-146
-433
-641
-841
-618
-186
-140
-144
-131
-167
-563
-470
-482
-543
-297
22
-142
-602
-638
-241
-336
-263
35
-112
286
321
-52
71
70
-71
257
-49
118
88
73
-306
-254
-595
-151
-57
168
362
115
-343
-129
-329
-261
58
-117
-37
-19
-101
50
29
114
-24
307
325
303
-16
-109
82
117
-26
296
-22
118
112
-28
285
-112
-315
-303
-21
244
168
17
-623
-441
-527
-134
-152
-171
-277
-38
298
116
-132
-148
117
136
374
51
-559
-419
-528
-315
40
32
31
98
-95
124
-276
-160
-169
-284
-104
-24
-75
90
55
70
90
-111
321
592
503
637
315
113
-28
521
424
567
336
-55
-51
-8
271
322
199
630
487
483
393
552
245
242
521
556
597
635
399
635
590
575
631
470
793
803
785
509
478
447
487
644
1096
918
1044
779
522
327
-86
61
64
-71
297
265
102
-286
-263
-124
-5
277
-15
-60
-108
89
31
29
-122
325
232
243
318
24
-232
-596
-528
-343
100
-82
102
-293
-356
-271
127
-76
122
78
-122
-75
72
-155
-242
24
549
765
971
963
923
958
1299
1391
1242
1627
1476
1506
1476
1444
1426
1637
1261
1287
679
188
-156
-753
-1203
-1433
-1469
-1632
-1187
-912
-864
-616
-218
-144
-303
100
-16
285
-63
-265
-231
-597
-246
24
304
159
329
-77
106
-128
-75
-9
364
513
573
200
-6
-111
-31
376
190
193
512
409
495
384
156
286
372
562
407
601
184
291
-31
-2
355
229
585
388
424
413
567
137
272
331
542
454
423
240
332
301
367
191
520
591
385
633
591
594
421
782
824
816
832
883
869
466
254
134
194
628
796
887
654
890
839
775
502
842
730
1073
740
782
586
547
412
833
671
685
675
662
871
770
392
585
628
469
778
471
592
192
371
382
186
244
252
204
377
282
-73
94
74
-64
181
397
395
131
48
-371
-286
-115
-69
75
-307
-339
-329
-382
-223
-219
-304
-96
-56
24
-205
-550
-225
-370
-313
-301
-293
-290
-358
-513
-417
-457
-585
-366
35
-265
-196
-627
-390
-253
-340
-258
-279
-341
-140
-205
-567
-429
-481
-414
-540
-207
-240
-590
-637
-583
-230
-187
-211
-215
-384
-260
6
-156
-633
-466
-596
-371
36
33
-355
-525
-628
-578
-331
272
512
518
359
-30
-38
-17
-89
38
-272
44
103
48
-320
-344
47
-3
154
235
255
193
281
74
-280
58
-42
285
-25
-121
69
17
-281
-261
-126
311
134
312
-63
-86
-30
258
-6
297
186
548
159
70
-223
-242
-281
-56
262
-58
126
100
87
87
108
-94
-33
-11
-45
103
-326
-233
-522
-374
99
-40
-63
-124
123
119
19
-144
-200
-310
-91
-44
1
-540
-388
-217
84
295
306
-76
47
-278
-322
-382
-189
-171
-301
109
-106
31
-131
-170
-268
260
223
517
377
-65
118
-50
354
170
137
352
373
155
379
288
-3
339
216
546
549
553
581
564
203
350
377
562
492
768
612
158
329
129
252
615
396
618
546
212
140
322
-2
-18
319
213
592
593
212
336
319
184
620
486
501
428
552
140
267
-10
382
581
392
227
-51
39
67
-107
-115
100
-64
168
569
163
69
-145
-268
338
580
543
332
-99
110
-111
-50
298
147
190
355
-103
-282
-320
28
127
-100
-103
-40
347
172
382
275
262
158
627
496
489
418
611
591
619
436
801
879
858
483
574
188
159
253
417
777
470
570
201
190
165
258
43
19
266
542
244
102
-553
-587
3
361
175
-26
3
-329
-281
24
40
97
-20
364
364
-52
20
-279
92
-19
313
356
187
532
222
-3
33
36
266
243
531
152
337
211
776
897
1240
1484
1821
1465
1265
1390
1184
1645
1888
2050
2089
1780
1688
1823
1605
927
549
-131
-880
-1113
-983
-1193
-1483
-1889
-1472
-1333
-682
-466
-408
-390
-629
-406
-504
-811
-415
-355
-71
-51
-307
-590
-388
-194
25
75
-262
-295
75
-6
349
372
191
628
788
769
579
128
312
308
-16
-118
-75
182
470
768
551
372
240
849
1093
759
505
614
393
438
610
237
527
475
656
663
819
508
801
852
641
756
949
1315
904
806
559
384
685
1136
1046
828
498
879
1026
756
854
481
780
664
733
883
409
252
543
507
749
1099
754
840
439
579
180
279
-26
375
619
494
401
201
372
512
508
658
880
498
636
244
271
-257
-383
10
278
156
277
10
-140
-338
61
-105
-80
-63
-78
51
-180
-606
-580
-169
-328
-366
-166
-359
29
46
-367
-517
-188
72
-2
-104
-158
-413
-425
-231
0
113
80
-288
-141
-195
-184
-146
-377
-371
-359
-330
-315
-351
-179
-251
-256
-153
33
-48
272
-82
-269
-141
-376
26
-61
295
278
-121
-328
-227
-224
-325
104
-85
-120
94
98
79
-302
-225
-565
-212
-279
61
-321
-558
-431
-567
-266
-7
294
-92
34
0
2
-323
-182
-202
-321
-124
-27
-63
124
101
93
51
11
39
102
67
-131
-614
-401
-191
-122
359
130
266
98
-320
-171
-184
-361
-263
7
-335
-170
-160
-296
126
282
169
559
400
397
536
366
-16
-42
262
314
311
-3
-59
-58
-20
-3
-12
277
155
582
633
224
-34
43
64
261
244
385
609
183
-2
-84
-39
306
351
334
293
-19
-112
44
32
-81
148
545
241
324
-83
-123
-84
-42
-24
267
328
376
342
-56
12
-379
-363
47
-49
-34
66
-368
-383
51
261
317
-28
-92
-18
343
285
50
-131
-293
264
210
369
65
-177
-219
-384
-274
94
-43
285
-10
126
50
79
-107
-93
117
101
-128
112
-258
-143
-185
-325
-113
347
211
219
372
-25
-74
305
252
605
252
318
-60
-72
-67
-126
71
-101
143
385
417
211
-38
-118
266
196
516
158
-11
125
88
113
-90
-26
306
155
520
560
204
-3
104
-79
174
625
554
279
55
47
-77
267
270
314
240
447
453
217
-43
-72
157
404
404
140
98
-267
78
-53
257
296
158
595
470
473
385
571
577
388
476
805
822
494
596
177
362
166
568
452
510
455
561
140
308
353
235
600
606
519
132
-16
86
-295
-316
20
89
48
-330
-145
-345
29
111
-94
258
136
182
302
68
-328
-270
-92
317
370
353
310
-4
-70
-108
-69
293
381
359
-23
108
86
-97
-19
290
138
584
464
611
314
-74
244
1126
1584
1601
1155
1175
1475
1754
1780
1710
2115
2255
2834
2546
2229
2165
1700
1448
979
603
13
-422
-1031
-1174
-1844
-2101
-1780
-1422
-996
-746
-726
-1035
-721
-791
-612
-529
-217
-330
121
-81
-272
-558
-419
-518
-270
73
-317
-531
-393
-625
-255
-367
36
-105
-61
-103
47
-322
-367
-294
-110
338
142
285
-123
116
268
187
247
220
245
624
466
399
205
331
151
613
493
451
571
236
512
547
533
520
607
806
733
766
894
463
609
596
396
479
805
819
507
438
454
839
761
1145
931
914
1108
714
507
579
556
483
754
917
1135
699
777
456
781
680
1080
1097
668
621
361
292
136
512
531
220
199
221
195
340
-6
296
178
238
372
-97
19
-263
-273
-349
-155
-350
85
-12
-9
93
-349
-183
-139
-273
79
53
-356
-537
-637
-625
-553
-240
-216
-203
-216
-557
-461
-880
-696
-643
-784
-433
-637
-610
-606
-621
-622
-557
-149
32
-116
98
-312
-191
-207
-354
61
-72
-28
-43
-98
78
-268
-339
-341
34
270
518
632
529
275
53
5
126
286
365
304
120
-364
-241
-149
-85
526
399
227
-64
45
127
301
142
139
371
370
360
311
261
-2
279
290
277
272
277
-7
-112
-257
-346
-326
26
-118
-19
313
348
321
-5
-33
300
178
239
135
-108
-355
-238
-239
-139
30
-34
360
361
-47
-264
-132
-318
-116
288
-15
30
-186
-539
-528
-254
-244
-163
14
-88
-112
-309
-216
-161
83
328
183
160
315
-79
59
46
-74
363
174
361
286
310
352
277
106
28
-74
185
554
164
-77
43
97
260
140
165
353
260
-54
-70
-89
-128
-118
265
209
576
222
-5
121
-44
171
560
250
356
271
293
325
261
126
85
-10
513
396
230
110
-170
-136
-111
134
140
-39
46
-258
50
-122
-25
327
363
298
-85
77
52
28
-290
-328
0
-96
276
-21
65
-366
-184
-375
55
-8
324
-61
-326
-526
-529
-373
36
88
67
46
43
52
95
-79
-9
-2
-30
-10
314
327
-52
34
-261
-84
210
431
465
572
350
-64
-71
315
199
235
179
130
139
151
364
320
131
566
447
393
177
-22
-74
271
156
530
603
626
575
217
138
150
528
452
861
658
837
425
567
588
486
668
749
698
843
771
772
799
799
779
789
841
872
808
638
202
144
246
416
770
476
617
512
183
357
270
-11
325
168
383
-98
-368
-248
-206
-351
-276
15
50
50
-295
-173
-227
-141
1
72
57
27
-258
-353
-519
-629
-553
-342
36
-324
-583
-805
-872
-806
-410
-238
-329
39
92
120
-104
-81
-55
322
622
767
1319
1372
1308
1376
1412
1756
1941
1959
1983
2351
2182
2356
2143
1715
1919
1835
1245
876
123
-797
-1283
-1615
-1815
-1859
-1490
-1277
-1300
-1101
-685
-802
-392
-199
-261
97
11
-242
-508
-860
-447
-140
124
-71
48
-136
-205
-383
-257
68
90
-104
256
-7
30
-523
-625
-169
124
-18
-108
88
-30
189
255
379
264
337
250
512
275
-285
-154
-292
-72
351
177
223
520
520
215
164
185
553
430
484
427
566
214
183
211
528
620
493
648
1037
1086
1039
704
700
1089
1295
1161
1333
1103
894
841
661
1024
1122
970
1301
978
736
498
770
1068
1388
1189
986
1034
753
1083
1042
853
457
784
727
1074
687
481
415
786
657
895
775
459
511
782
602
306
-107
292
583
444
238
125
-375
-370
16
90
47
-288
-317
-318
-361
-202
-543
-541
-200
-343
-263
3
-317
-169
-252
-246
-140
-275
1
-359
-520
-414
-774
-816
-511
-628
-229
-183
-253
-604
-630
-598
-573
-553
-222
-346
-284
-132
-583
-441
-398
-554
-526
-560
-560
-242
-210
-529
-614
-572
-349
-61
367
316
95
-141
-252
-196
-303
84
-92
-12
337
366
269
-119
-103
358
547
222
-100
-152
-212
-335
31
39
74
-43
331
-6
15
-380
-262
-6
142
361
-1
-59
-90
95
19
37
-82
314
337
261
-70
-76
-18
310
376
155
137
318
-62
56
-319
-132
-379
-282
-123
279
344
302
-96
-295
-194
-194
-277
-93
-115
-133
-438
-467
-166
-49
359
260
116
69
38
-367
-591
-424
-522
-270
93
-269
-165
-176
-307
64
68
10
-262
48
77
-273
-194
-555
-211
40
269
332
-13
-101
-65
325
175
183
143
153
220
220
318
84
-262
-64
575
850
799
226
-83
88
-64
311
330
285
-3
256
259
265
304
381
197
231
239
243
202
327
-114
37
109
313
239
547
227
137
328
287
269
286
353
170
188
382
301
270
289
310
330
160
567
409
565
278
7
-278
-58
179
190
-51
-363
-550
-552
-183
-312
35
81
115
-82
257
313
284
-55
-79
273
383
331
65
-228
-556
-360
-81
320
305
270
301
326
-13
82
7
127
341
176
291
44
-331
13
-59
339
172
531
391
415
562
186
240
491
733
745
772
231
312
-5
-19
-4
325
179
251
230
178
199
573
463
828
640
710
1026
753
889
471
395
470
882
744
750
657
785
409
594
615
487
651
685
493
180
-38
-55
290
315
-33
114
88
115
79
-317
-202
-224
-133
-300
-322
-181
-550
-607
-631
-401
-400
-568
-150
-293
-337
-255
-392
-599
-381
110
-42
-101
9
-143
-255
-556
-527
-182
-315
61
-74
311
208
393
871
1145
1209
1499
1906
1862
1462
1437
1670
2327
2629
2627
2380
2092
1826
1170
488
-349
-753
-1310
-1404
-1572
-1873
-2076
-1697
-1545
-1093
-511
-556
-138
-290
-321
-210
-597
-583
-175
3
112
-126
83
24
8
67
-61
335
164
162
355
292
-1
-17
259
337
211
581
583
209
342
366
558
508
817
472
406
460
782
425
153
-58
-1
244
386
247
-36
82
-49
200
624
406
414
446
427
536
326
-29
347
618
841
863
456
553
535
419
865
726
734
688
647
851
482
590
517
609
813
700
663
769
426
491
872
668
887
860
889
872
439
158
-24
286
253
453
783
507
451
618
254
194
255
388
428
536
287
-122
-82
316
139
368
330
379
219
207
258
-289
-204
-355
-65
154
368
102
-157
-185
33
304
160
338
-42
-90
-109
23
-208
-615
-526
-290
60
-134
-440
-816
-415
-209
-152
-213
-219
-129
-353
-235
-428
-461
-555
-129
-138
-529
-614
-573
-517
-582
-480
-804
-433
-223
-340
-369
-523
-425
-475
-640
-199
-299
-294
-173
-554
-253
-324
61
-264
-174
-204
-285
-117
31
-609
-705
-708
-619
25
-96
17
-203
-560
-236
-314
-90
377
232
157
-93
-348
-141
71
128
562
244
307
-108
104
-110
-58
-21
278
336
360
317
-23
-76
-46
311
178
527
562
534
213
149
360
301
-34
-64
282
178
184
-99
-255
-427
-159
311
537
352
29
-320
107
266
-39
81
76
-34
335
281
-114
78
103
124
115
-108
-20
272
-107
-338
-244
-210
-269
-43
328
263
56
-154
-212
-349
69
122
70
21
23
-259
-363
-189
-367
96
-48
79
-178
-578
-544
-236
-561
-419
-399
-216
-299
-317
-242
-637
-591
-147
24
62
-266
-352
-157
-200
-219
-168
-262
-34
133
155
323
-41
-109
125
-99
-3
370
148
290
103
-268
6
85
-127
-113
-68
-11
-37
81
-308
-273
-50
189
522
167
272
-88
103
26
-296
-276
94
-48
-30
-115
53
57
-112
-15
290
290
268
-35
-119
32
-268
81
283
198
203
302
117
25
39
67
59
66
-106
-6
-17
80
-347
-349
114
379
527
513
152
307
265
286
361
184
185
334
-70
96
103
-95
-31
330
533
783
665
811
249
-24
-53
139
587
582
145
-21
-30
343
207
530
590
432
789
799
421
216
282
-68
-46
291
336
259
72
-360
-156
-331
63
-50
367
533
613
512
274
58
-259
85
-51
-18
-107
-288
-226
-567
-202
62
319
165
359
-16
-90
-117
-127
-116
-60
288
373
171
241
390
654
1003
1628
1706
1931
1995
1930
2126
1966
2210
2676
2433
2268
2331
2173
1906
1359
575
-198
-749
-1345
-1620
-1904
-2125
-1932
-2109
-1693
-1455
-1375
-757
-775
-482
-816
-869
-834
-495
-386
-225
-289
66
-315
-604
-823
-788
-550
-328
-278
-346
-139
-361
-277
55
124
-51
287
330
315
-11
-109
84
-118
337
583
461
639
178
291
319
221
623
413
629
575
567
588
582
537
247
543
399
492
488
400
562
241
193
188
553
794
1026
1045
808
530
219
437
724
1106
767
851
464
406
416
494
886
766
1066
753
650
842
849
889
684
761
1095
1097
686
403
181
194
397
811
491
533
380
376
146
305
120
35
-105
344
162
304
121
19
34
98
-102
-70
-54
-80
79
-318
-182
-205
-375
17
88
-257
-250
-786
-686
-668
-798
-401
-544
-194
-138
-164
-251
-565
-525
-176
-383
-143
-163
-171
-223
-614
-468
-393
-129
116
-128
-353
-592
-388
-250
-329
27
32
-261
-311
-382
-200
-231
-181
-305
119
-13
-1
-101
19
-323
-348
-331
-309
-302
-331
-164
-534
-573
-220
-280
-90
289
382
211
204
261
-330
-558
-223
82
300
-50
-374
-612
-536
26
285
313
-103
-266
-330
-334
-347
-370
-358
-289
54
126
-78
-50
-73
94
-265
-298
8
89
-115
-100
-109
98
-270
-136
-150
-257
-56
-9
53
-252
-424
-590
-341
112
-99
121
112
119
58
-317
-352
42
-29
-48
-335
-408
-511
-626
-207
-178
-182
-306
-79
276
-117
-320
-333
-123
351
134
280
-86
-126
101
43
1
66
-18
131
383
-40
27
-265
-94
157
569
565
228
166
361
-31
42
-275
-113
133
196
-25
-362
-556
-523
-380
0
92
-81
-35
-77
87
61
-91
341
220
247
178
315
-73
91
73
98
102
66
21
14
28
11
-307
-347
-288
-124
308
363
-19
20
-380
-353
48
-86
-53
-37
314
195
227
350
-59
-31
187
615
513
-62
-297
26
290
199
133
262
327
583
499
638
364
274
531
670
1101
685
413
559
396
776
784
457
440
510
800
423
182
-16
-12
181
624
615
154
-70
111
-85
-23
-27
-24
313
147
351
120
-384
-206
-348
81
-64
-23
-32
-125
-315
-232
-192
101
173
249
277
-287
-171
-360
49
-67
319
214
607
410
417
474
662
952
1255
1482
1823
1494
1580
1200
1250
1448
1874
1831
1568
965
645
571
126
-447
-1013
-1423
-1888
-1735
-2081
-2168
-2174
-1759
-1427
-1009
-896
-428
-630
-405
-443
-474
-774
-808
-507
-604
-134
-265
-308
-177
-220
-346
-114
318
326
-65
33
-297
-279
34
96
-64
354
519
558
153
-49
-85
376
397
485
602
187
193
559
570
197
137
541
780
833
605
304
-48
364
597
489
783
500
417
536
170
188
589
476
508
450
411
438
485
498
492
786
891
745
1035
695
798
424
414
777
692
1098
908
1122
704
473
569
616
840
764
694
407
164
191
446
669
670
494
603
608
413
600
341
60
2
-21
556
427
526
276
-73
280
371
279
62
-315
16
123
43
-233
-477
-456
-176
-124
-18
88
-194
-439
-786
-429
-210
-284
-264
-132
-248
-227
-337
59
106
103
-121
-54
-49
72
-150
-581
-600
-203
-277
41
-328
-534
-417
-386
-214
-279
80
70
3
-303
-299
-265
-275
-366
-201
-153
42
-67
83
-226
-429
-543
87
328
-28
-297
-180
-359
10
-266
-337
3
260
213
151
123
-374
-143
-265
114
-111
-119
-111
110
-294
-239
-591
-212
26
-93
90
-365
-254
-250
-381
39
-76
265
274
-50
92
-266
-325
-337
-304
29
93
41
-167
-390
-405
-161
-123
-43
60
-343
-286
-109
-71
-266
-246
-525
-317
-98
-91
-294
-514
-562
-148
91
259
291
-25
-100
91
16
-323
-352
-274
118
-64
-117
4
-354
-352
-259
120
-28
296
293
-59
32
-375
-169
-333
104
-8
-10
104
-321
-135
-329
71
-24
370
185
143
261
-124
116
-65
-16
-53
-116
-121
-99
113
22
28
-44
208
545
375
122
-267
-274
-314
-203
-565
-202
87
315
305
-106
103
262
211
526
174
329
325
345
270
-128
75
-38
209
639
390
527
137
311
294
331
153
238
533
195
-29
-302
-198
-353
-56
195
192
-41
-287
-382
-367
-384
-206
-228
-142
-314
-134
-591
-426
-241
-119
190
512
130
-20
-104
105
46
1
27
115
-74
-82
94
-264
-331
-330
22
-60
366
183
375
-7
-51
351
409
745
955
1013
1293
1381
1249
1543
1228
1264
1841
2345
2659
2255
2058
1463
1430
1474
1224
862
-116
-431
-1109
-1233
-1804
-1898
-1464
-1183
-991
-905
-1073
-688
-855
-852
-836
-422
-154
24
-285
-237
-620
-522
-280
-95
-87
51
-334
-158
-200
-206
-143
-266
106
111
4
-376
-175
-163
-134
-326
81
298
198
175
-8
60
0
76
-56
279
288
265
-7
266
324
168
568
471
843
859
771
385
551
529
563
630
478
839
869
511
576
185
232
455
718
1113
1060
892
510
785
644
724
697
871
848
871
807
579
311
259
525
677
919
1101
850
443
796
1046
976
956
1032
841
491
448
609
203
131
524
798
717
874
572
320
278
379
204
198
155
350
-31
22
-149
-158
-263
-118
-121
2
-130
-178
-161
-380
-329
19
118
-117
30
-190
-437
-881
-725
-738
-678
-824
-460
-423
-480
-815
-823
-461
-543
-156
-162
-578
-836
-1057
-1087
-896
-629
-225
-235
-251
-130
43
41
-173
-576
-371
319
531
-11
-530
-482
-192
-18
331
23
-555
-564
-350
7
-155
-388
-427
-243
-269
109
103
32
-326
-180
-189
16
371
602
225
68
-565
-601
-312
272
137
296
-107
77
73
77
105
-28
168
551
233
269
84
69
-74
268
-14
-84
-85
-17
-9
96
-158
-602
-597
-175
13
97
48
-350
-248
-563
-178
-120
201
545
321
-289
-225
-150
30
102
40
-272
23
65
-282
-200
-517
-363
-122
-5
-48
117
58
-263
-354
-350
108
131
207
-33
-130
-569
-531
-172
-336
92
361
521
374
33
-134
43
317
331
52
-214
-227
-323
48
67
-119
356
612
466
387
223
349
258
-86
118
-79
352
525
563
216
144
233
455
894
655
816
487
459
393
253
133
162
574
458
505
503
779
789
443
540
207
539
636
526
-105
-540
-498
-393
-370
110
-91
93
-279
-137
-239
-563
-537
-145
8
46
-330
-518
-639
-620
-228
-316
38
8
-149
-593
-416
-573
-131
-279
-329
-182
-216
-193
-243
-405
-797
-475
-206
69
-80
-127
94
-56
192
787
909
1256
1474
1500
1650
1575
1652
1871
2133
2331
2391
2038
2060
1500
1161
761
245
-352
-884
-959
-1384
-1552
-1534
-1705
-1850
-1159
-890
-555
-223
-521
-523
-229
-238
-541
-228
24
336
195
275
12
-307
-110
131
188
315
-93
102
111
114
112
-96
266
130
218
252
231
175
128
378
141
131
331
265
-40
-127
-301
-203
-153
-86
570
495
598
281
91
-78
200
449
499
597
137
312
129
251
586
403
811
723
730
506
223
138
542
443
426
559
550
444
820
484
540
213
630
869
699
841
424
630
429
508
843
700
1106
936
1110
879
405
598
440
849
683
669
847
508
475
500
798
818
810
813
837
802
621
333
127
-93
141
599
596
191
323
290
275
-47
-99
-38
327
285
3
-596
-454
-515
35
-91
84
-304
-347
-320
-320
-380
-184
-185
-145
-366
-375
-190
-590
-507
-850
-491
-244
-308
-340
-568
-782
-814
-433
-554
-239
-232
-235
-250
-579
-429
-478
-393
-200
-281
11
-366
-541
-631
-590
-252
-236
-531
-250
-129
-316
-210
-776
-706
-818
-215
12
-295
-220
-559
-253
-198
-200
-155
12
-67
-51
54
-337
-298
116
-18
265
269
311
325
-19
92
38
-96
129
572
387
634
581
223
329
-56
-73
289
150
158
305
-79
-120
-57
331
250
429
780
417
376
82
-271
88
-46
-48
-118
-116
-40
-15
-96
112
-1
525
431
618
170
281
-38
-127
3
-295
87
258
268
62
-166
-196
-262
-42
274
-99
3
-300
35
-119
-97
-114
-53
379
534
236
266
66
60
-62
287
285
297
130
185
324
88
-301
60
288
164
131
292
-7
277
345
197
610
498
791
445
559
199
149
377
369
153
249
585
559
162
-30
72
9
46
-112
-20
-25
87
-129
-525
-214
14
267
379
301
119
-291
-352
-333
-277
21
10
-319
-174
-530
-582
-570
-251
-151
-290
70
-126
121
48
-302
-337
-259
-76
373
207
165
354
138
612
694
1304
1619
1848
1679
1853
1442
1409
1854
2129
1970
1764
1646
1312
1040
413
108
-508
-961
-1227
-1446
-1711
-1934
-1977
-2078
-1824
-1549
-1012
-757
-859
-820
-826
-816
-817
-870
-881
-460
-164
-271
-217
-850
-731
-433
51
298
-83
-332
-150
-284
86
55
-290
-276
116
-5
266
-68
-108
-10
221
490
669
679
790
570
143
357
160
232
516
522
560
625
386
580
541
413
698
935
915
646
636
597
496
878
845
481
461
804
859
787
418
421
832
766
1127
1148
899
902
1120
1036
728
762
1095
1128
1068
687
816
484
496
857
758
1135
1147
1053
654
509
403
634
462
859
645
471
154
-81
-74
379
576
633
578
249
186
359
265
-40
256
335
346
-38
-270
-236
-597
-566
-206
-380
-357
-360
-343
-331
-132
-521
-385
-385
-256
-372
-352
-227
-426
-831
-852
-472
-242
-277
43
-362
-611
-487
-400
-202
-360
-174
-524
-238
-143
-177
-399
-859
-796
-224
45
-260
-582
-887
-687
-771
-542
-135
-342
-352
-383
-165
-217
-550
-620
-606
-225
-352
-375
-555
-431
-574
-286
-72
-80
72
69
-108
103
-146
-401
-396
-371
-73
-13
75
-380
-199
-177
-160
-176
-166
-343
-267
-311
-214
-605
-572
-369
107
-71
110
-282
-131
-181
-192
-181
-161
-146
-380
-325
2
-262
-172
-407
-479
-518
72
-53
-268
-386
-854
-787
-583
-168
-354
-322
-316
-360
-158
-377
32
-60
267
290
363
196
148
-82
-283
76
197
490
393
273
14
88
327
165
303
-55
304
520
601
197
-20
-77
353
620
793
796
428
574
558
398
792
876
871
814
493
409
522
340
-40
-16
378
241
223
319
115
-282
-328
-290
52
-110
-54
-83
49
-355
-160
-328
94
-68
109
-342
-513
-580
-574
-558
-533
-205
-355
-286
-312
-165
-535
-584
-516
-322
-83
291
-92
-135
-614
-582
-366
72
-125
-60
153
468
700
1054
902
1385
1657
1802
1799
1535
1867
1915
1518
1216
984
937
1142
772
-263
-922
-1830
-1786
-1695
-1823
-1794
-1812
-1501
-1574
-1317
-1067
-853
-389
-181
-292
-286
-158
-546
-550
-162
-266
46
8
-292
-279
13
6
-281
13
-63
189
596
535
321
-90
-41
137
512
228
158
198
577
601
171
-54
-80
150
422
492
606
199
192
558
417
494
811
838
772
610
186
371
144
199
252
576
401
438
397
586
572
636
477
809
855
854
504
586
188
217
428
662
734
873
441
596
593
632
421
485
834
671
717
698
891
811
498
511
867
748
1063
685
433
250
581
642
968
1311
1126
875
782
877
727
687
791
429
436
458
616
151
-31
-89
-42
288
368
210
529
197
-18
51
78
301
244
209
-50
-346
-521
-551
-233
-372
11
76
13
-144
-529
-526
-167
-320
-262
44
95
72
-354
-595
-446
-547
5
-92
38
-253
-452
-420
-517
-150
-146
-164
-381
-318
-327
-174
-552
-613
-602
-543
-200
-361
-323
-149
-577
-436
-615
-132
45
11
-182
-610
-387
-579
-524
-235
-382
90
286
293
75
-206
-595
-254
-331
30
-269
-135
-219
-195
-341
32
94
114
-113
-64
-66
69
-129
-240
-142
115
331
360
-18
101
47
61
108
-69
296
141
186
159
346
260
-95
101
-96
333
199
332
-273
-580
-574
1
356
217
322
95
-284
-266
81
-77
256
296
286
258
-5
268
264
-47
-97
-55
341
217
219
339
-74
-119
-18
145
517
543
243
163
328
-5
-35
263
369
233
557
553
512
223
225
526
608
450
775
495
594
355
-103
93
-69
320
358
-16
14
-210
-617
-421
-395
-557
-181
-384
-200
-611
-452
-393
-202
-270
56
-262
-143
-542
-632
-636
-572
-223
-381
-281
79
-108
-117
82
59
-118
317
236
557
210
273
100
50
-109
337
555
773
729
905
1001
1315
1188
1431
1682
2052
1766
1736
2061
2144
2110
1719
1871
1834
1429
953
176
-625
-939
-1257
-1456
-1868
-1918
-1798
-1577
-1374
-963
-766
-448
-351
102
59
-364
-217
-207
-173
-191
-198
-361
62
-73
-71
121
75
49
17
6
72
-73
-51
53
-163
-246
-380
94
271
375
180
165
282
89
29
-33
549
477
619
336
-111
-92
291
364
324
256
266
362
196
184
361
356
534
838
1047
731
462
220
172
535
402
485
851
763
1134
1062
834
390
415
881
1080
1097
672
452
588
612
462
828
656
733
1060
1092
1048
697
641
678
1039
1123
1113
754
849
442
616
627
456
818
888
652
883
811
440
596
575
633
439
427
608
531
219
147
314
286
367
203
373
54
-567
-467
-603
-362
69
-113
-64
-27
-92
-289
-515
-607
-545
-220
-542
-476
-661
-727
-671
-799
-635
-225
-153
-217
-395
-851
-712
-718
-655
-832
-508
-454
-432
-469
-809
-862
-795
-612
-177
-146
-542
-450
-461
-565
-160
-159
-517
-532
-374
83
120
-323
-559
-603
-376
-21
229
212
-41
-347
-250
-177
33
-54
-41
103
-285
-348
-311
57
-52
329
133
373
309
-49
100
43
68
-106
-30
-6
-13
-25
-62
107
33
107
372
391
413
135
43
-367
-288
104
-114
89
35
5
-274
0
106
276
146
145
320
-7
-63
78
-379
-592
-433
-637
-517
-170
-153
-197
-251
-254
-165
10
-49
332
327
-69
-277
-185
-218
-379
3
53
10
-311
-340
-357
-135
-142
-308
93
-104
28
-183
-538
-208
-335
-280
-303
-313
-281
-270
-333
-175
-233
-213
-352
-115
181
610
217
87
-227
-173
-68
224
168
127
-332
-267
-49
381
220
589
492
841
770
591
200
187
252
559
578
598
622
601
243
355
261
283
137
223
187
281
89
-269
1
53
80
73
78
108
111
42
-323
-379
-334
20
81
69
4
-353
-227
-607
-394
-568
-181
-150
-553
-789
-680
-891
-442
-222
-317
23
45
8
-332
-163
-173
-300
-68
156
535
576
406
884
943
1216
1629
1470
1871
2070
1940
2138
1697
1824
1865
1709
1852
1325
193
-484
-1174
-1793
-1685
-1768
-2081
-2050
-1890
-1643
-1361
-1048
-440
-352
-121
-73
78
-325
-179
-228
-230
-168
-291
113
-73
-128
-259
-355
-325
100
343
566
438
444
610
250
219
527
597
614
564
239
185
146
383
155
517
427
820
849
508
385
571
596
432
806
646
682
894
795
448
428
474
778
775
490
503
811
809
410
187
325
163
619
456
614
184
367
168
534
402
816
745
1111
1038
839
446
485
890
744
754
705
878
489
582
221
247
630
490
788
787
784
498
395
514
198
535
424
480
607
346
121
92
274
519
394
589
158
-11
-126
52
24
95
-6
369
321
120
-329
-353
34
-96
-100
54
-270
23
93
82
-283
-364
-284
-67
352
276
-277
-594
-474
-412
-539
-203
-192
-193
-184
-206
-520
-564
-523
-148
-293
-293
-167
-621
-772
-782
-393
-200
-311
-269
-295
-328
-347
-376
-164
-174
-360
18
86
28
-370
-244
-566
-593
-605
-581
-251
-194
-256
-422
-783
-413
-357
-69
256
-126
-263
-278
29
1
-133
-242
-212
-330
12
-321
-243
-608
-547
-377
15
16
-346
-204
-522
-547
-564
-540
-141
-123
133
188
-1
12
-297
-111
380
187
332
-34
-23
275
-62
21
-279
-41
566
437
196
64
-379
-260
-48
286
-25
-41
300
339
-66
-322
-182
-267
313
253
171
-78
-261
8
-118
-22
-8
-4
299
315
-47
34
-283
-112
169
568
219
280
-98
-94
-42
-13
-3
266
-1
-54
123
40
-287
-318
1
-105
279
266
-126
25
58
-112
117
-282
-373
-293
123
-114
-317
-586
-423
-240
92
351
134
-30
10
-359
-328
37
-122
-78
-67
-63
-76
-115
92
58
61
127
268
186
539
209
278
-77
330
407
666
666
461
518
209
248
255
207
190
241
551
254
348
125
-331
-190
-187
-327
75
93
-355
-628
-468
-245
-105
153
341
42
-239
-582
-237
-355
-258
47
83
111
122
99
51
8
19
101
-53
-28
118
-339
-214
-165
25
-44
287
277
283
350
187
522
627
826
1110
1368
1231
1207
1392
1384
1199
1542
1573
1544
1213
1301
700
149
-239
-1074
-1235
-1514
-1730
-2167
-2020
-2026
-1936
-1771
-1506
-1408
-1040
-788
-458
-504
-811
-788
-420
-228
16
-16
336
-1
72
-323
-348
-294
41
-107
284
133
142
356
154
635
648
749
863
621
219
213
238
205
160
205
613
504
792
439
570
534
638
841
767
1070
707
807
461
469
501
501
505
821
647
642
501
594
577
497
738
1123
1094
760
734
751
741
692
693
1074
1014
1376
1285
1052
858
832
686
1029
724
839
488
510
849
878
829
794
868
755
1081
707
435
192
141
557
780
645
874
774
424
596
244
182
219
577
596
167
-116
-294
15
-67
284
-13
-69
-35
261
-87
-289
-138
2
275
159
294
44
-381
-143
-369
-375
-361
7
-80
-23
83
-167
-555
-222
-312
7
-336
-184
-176
-347
-333
-179
-530
-220
-281
-120
94
-382
-602
-406
-548
-375
1
49
72
103
104
24
-366
-178
-332
-100
313
-35
-332
-585
-561
-268
309
158
281
100
54
-112
-50
-122
5
-273
83
-112
23
-225
-634
-550
-325
95
119
77
59
32
-330
-218
-516
-363
-114
264
-93
-291
-372
-257
-80
-11
-66
-116
-73
-1
-40
42
-142
-198
-369
25
-125
-76
-93
69
-329
-175
-137
52
276
372
-10
-292
-541
-577
-351
257
254
539
382
-67
96
123
-44
306
364
376
353
308
257
-37
-35
309
210
578
553
150
258
-42
261
330
146
231
548
225
267
46
-269
96
-34
260
270
342
168
138
-1
-94
-30
362
154
348
284
267
-35
93
8
-116
190
398
559
274
108
-75
325
334
-23
-43
363
514
185
-112
-377
-373
-118
140
174
-4
70
61
-51
357
160
166
237
616
635
171
107
-306
120
222
465
419
191
261
-8
368
254
600
598
220
264
60
-288
-293
-316
-130
-145
-280
-115
-104
-293
-241
-517
-375
-258
-263
-296
27
-123
116
-287
-358
60
332
174
258
-258
-379
-340
-297
-317
-299
105
301
370
260
100
23
20
23
41
-101
371
565
632
388
780
1114
1257
1519
1802
1634
1387
933
1147
1305
1550
1649
1201
1069
468
535
336
-365
-1037
-1632
-1873
-1827
-1812
-1756
-1986
-2148
-1619
-675
-240
-200
-612
-432
-601
-216
-170
-183
-159
-321
21
17
-343
-211
-528
-241
-147
-288
63
101
82
50
69
-76
350
242
556
251
369
-59
76
87
-6
209
568
224
283
-104
-76
302
148
200
243
563
629
400
388
621
611
617
635
422
480
504
448
575
221
533
510
1051
943
1130
689
815
831
686
1044
1089
1100
1092
1048
688
801
451
509
741
1014
1361
897
795
603
477
762
904
1053
858
769
788
787
482
487
863
740
759
674
852
819
491
586
174
166
538
606
250
300
-81
-52
308
381
152
167
158
307
95
-368
-184
-351
70
-44
285
269
-118
-343
-553
-609
-232
-342
-344
-515
-445
-499
-424
-580
-255
-186
-352
-299
-380
-600
-829
-650
-775
-557
-167
-202
-599
-460
-472
-404
-555
-186
-331
-257
-277
-142
-530
-553
-175
16
-123
95
-305
-177
-192
-354
17
75
68
47
47
56
45
7
-298
-314
-265
105
-26
274
-76
-265
-148
-130
16
-94
-39
-58
-84
-117
71
-266
-283
51
-88
258
289
271
-68
35
-347
-281
259
541
548
257
-321
-147
-261
125
92
-272
-277
102
-53
-109
-285
-160
-367
88
272
266
39
-253
-392
-539
-271
-32
305
-13
120
2
-337
-366
-348
-320
-315
-329
-348
-359
-361
-360
-341
-290
38
101
123
89
8
-339
-378
-301
-111
350
188
142
282
-62
-87
-71
-9
147
634
797
477
203
-54
-58
184
410
622
332
55
-258
-121
296
356
340
349
175
531
565
230
326
-75
-102
267
174
249
165
256
-96
-54
340
212
520
516
241
195
338
-76
86
-102
342
224
195
297
-88
-103
-48
266
316
375
162
368
-53
8
-351
-324
40
-91
-4
-16
96
-366
-213
-364
105
-28
-57
-104
-25
382
149
-20
69
-126
375
522
370
25
-231
-246
-362
27
108
-60
306
344
-17
67
8
-104
151
581
581
222
378
326
310
332
176
589
427
612
155
-1
292
240
450
803
807
795
786
486
638
248
157
155
211
239
158
-43
-268
-379
-311
119
262
295
-3
-65
-127
56
5
51
-49
342
309
100
-377
-174
-315
76
105
52
19
41
54
-263
-356
-131
-320
54
-117
-117
65
-285
-338
-315
50
-24
207
448
641
740
1026
1071
920
1304
1389
1177
1259
1633
1419
1548
1338
984
1285
990
868
-99
-869
-1192
-1808
-2055
-1951
-1931
-1724
-1458
-1273
-1402
-945
-882
-561
-379
-364
-181
-528
-636
-497
-819
-494
-526
21
-15
293
-60
87
111
292
246
597
563
516
538
572
519
135
323
162
611
484
454
563
159
370
209
403
848
670
865
479
638
600
555
234
227
619
840
691
805
537
176
392
1025
979
1104
780
541
516
610
433
482
806
881
872
500
637
617
407
416
639
413
811
679
857
587
364
170
471
727
704
438
183
133
514
620
615
583
404
840
679
795
254
337
166
639
477
596
381
279
297
288
-100
6
4
-97
295
-12
28
-168
-189
-295
-106
259
-20
106
-325
-220
-542
-242
-384
-293
-286
-349
-155
-153
-356
-318
-324
-323
1
105
105
-348
-634
-777
-402
-137
33
-258
-143
-247
-537
-542
-515
-147
18
83
-304
-541
-433
-407
-565
-246
-203
-363
4
21
-346
-211
-223
-135
-312
-313
-347
-331
-268
24
-275
-352
-368
-267
-107
-3
-55
0
-226
-611
-610
-521
-149
-304
2
-276
-338
-347
13
-57
351
382
287
119
-329
-255
-622
-615
-233
-302
105
-89
-117
66
5
-259
36
73
50
-306
-206
-617
-428
-603
-381
106
-73
67
-377
-231
-214
-136
-315
47
-32
176
552
520
128
-4
-67
-66
-47
-44
-52
-54
-50
-38
-28
264
380
575
484
463
217
-99
-260
90
318
230
250
172
331
259
-46
-64
-19
360
255
593
532
345
-92
-119
284
222
547
182
-4
124
89
97
111
-102
-3
382
200
150
-5
96
47
126
260
333
274
107
-333
-175
-384
59
293
182
146
-23
86
88
-48
271
-82
115
-275
-86
148
180
-48
-310
-330
-77
179
165
-106
-371
-166
-312
19
-267
-283
82
-4
310
-69
6
-329
-263
122
-32
262
-26
-128
-259
-344
-318
66
-51
275
-3
-79
91
23
10
91
271
210
549
194
-22
46
4
125
331
239
518
143
-8
-31
373
567
386
572
246
545
619
544
276
1
-320
99
311
140
319
-88
62
67
-77
348
230
535
247
170
335
256
-32
279
148
513
524
186
330
-22
-101
114
-100
284
152
154
268
89
24
125
337
555
435
450
606
198
353
128
534
438
500
433
559
198
154
138
377
348
296
-35
120
-271
-164
-529
-560
-513
-188
-175
-215
-218
-131
-294
-322
-204
-522
-363
-75
330
-65
-337
-216
-383
49
-101
-85
-81
-68
-107
42
-314
-302
107
320
203
192
321
-75
-109
275
521
780
730
1126
963
1292
1387
1537
1483
1690
2093
2163
1924
2165
2114
1777
1706
1686
1693
1848
1217
783
-284
-661
-949
-983
-998
-1369
-1225
-1182
-980
-759
-869
-487
-547
-342
-304
-232
-490
-863
-777
-615
-251
-200
-136
-288
42
23
-326
-141
-353
87
326
235
214
274
73
57
-16
204
535
184
292
-60
-105
117
108
-67
353
226
221
360
-1
-14
275
279
274
359
555
473
454
516
136
581
1024
1375
1331
701
605
536
405
454
585
188
225
415
800
482
602
606
816
1075
914
1069
676
660
738
722
772
521
221
450
733
1035
807
551
254
433
655
1029
1036
718
845
408
517
514
409
846
654
805
607
177
360
137
203
202
349
-60
96
69
39
-306
-139
-377
14
-108
-99
32
-129
-226
-217
-361
61
-52
-37
60
-195
-391
-419
-573
-219
-214
-537
-599
-628
-395
-426
-437
-630
-245
-152
-190
-597
-496
-793
-448
-571
-214
-165
-151
-161
-239
-387
-773
-779
-634
-182
-321
-306
-313
-283
15
28
52
-103
299
343
-78
-354
-248
-140
114
284
271
-61
-41
327
133
290
93
4
-114
148
559
199
-84
-299
-294
-109
341
159
377
280
-106
14
-297
81
360
610
632
165
-55
-98
257
300
-64
67
104
291
164
348
-83
108
-13
202
545
162
-101
-352
-233
-255
-233
-222
-198
-357
71
-46
-61
47
-338
-317
84
-58
-66
94
-273
-374
-201
-228
-380
80
-31
-103
-373
-628
-425
-538
-362
-280
-276
-258
44
69
58
56
121
-41
-10
-79
63
-283
-347
-156
-197
-140
25
-32
346
317
-99
-289
-382
-293
-72
366
357
-80
5
-257
-112
297
362
382
158
172
340
-86
47
87
-4
379
366
-4
-108
102
79
42
18
71
-59
309
316
-33
108
58
119
256
148
237
233
148
272
-100
107
-124
-64
-34
-70
105
21
-303
-354
-358
-273
-109
281
257
53
-198
-588
-548
-145
7
112
-92
-97
95
18
-263
36
102
-126
105
54
-277
-131
-247
-548
-209
-301
80
85
-271
-131
-177
-379
0
103
112
25
-318
-315
18
57
12
-268
118
369
549
251
323
-29
333
540
415
408
589
524
222
173
138
165
522
390
478
498
429
568
236
542
463
667
1045
1060
1026
734
697
651
877
888
646
850
457
547
171
378
146
515
462
687
1052
715
770
583
249
253
516
214
358
-46
69
-294
-361
-370
-290
-114
335
378
-81
-150
-593
-250
-281
90
4
-159
-515
-548
-580
-603
-540
-381
17
48
-280
-377
-185
-194
-134
-264
-124
-82
84
-300
-342
3
-96
332
543
814
1100
1310
1394
1391
1399
1267
1799
2167
2214
2292
2352
1760
1493
1619
1213
1073
146
-575
-1081
-1320
-1224
-1456
-1919
-1854
-1184
-672
-419
-776
-715
-680
-628
-295
75
-272
-358
-315
37
41
-315
-365
12
-23
345
-16
23
-333
63
341
545
549
160
289
-22
-58
125
51
73
-30
159
512
235
196
222
534
550
544
605
480
798
385
322
94
-80
520
847
660
485
538
237
601
439
397
525
202
526
626
612
212
342
135
619
873
744
696
793
636
565
597
413
455
447
430
444
439
611
226
216
410
664
741
827
593
517
618
506
866
712
1105
949
903
726
817
505
781
801
797
775
449
553
358
-26
257
150
562
624
551
359
-117
33
104
279
130
333
-52
-117
-97
-88
114
84
-83
341
153
276
42
-379
-145
-339
-274
34
94
120
45
-363
-208
-156
-272
51
-257
-309
13
112
47
-198
-386
-547
-267
-127
-322
-438
-676
-651
-475
-552
-136
19
105
47
-373
-236
-223
-156
-144
-215
-551
-574
-540
-231
-169
-358
-285
57
-95
-9
-35
33
-225
-634
-584
-140
18
56
-266
-377
-228
-521
-175
31
-7
331
-25
32
-381
-154
-326
58
-96
-66
-111
62
19
77
-28
383
181
352
-68
54
-257
-279
-345
-192
-211
-306
-19
198
184
-11
86
107
-24
275
-98
2
-279
72
-114
79
-286
7
-4
538
615
146
53
-178
-145
80
304
364
-9
79
2
59
-102
-82
112
73
-124
-37
-68
-273
-517
-608
-221
8
-117
80
-360
-544
-392
-403
-558
-354
118
-74
12
-517
-390
-533
-317
34
-287
-342
13
-80
-63
8
-198
-212
-287
-101
-73
47
-163
-626
-769
-782
-627
-139
0
-323
-519
-388
-564
-340
-126
-53
123
-293
-177
-222
-187
-151
-182
-244
-198
13
269
361
-27
62
105
136
437
775
632
188
369
146
211
525
579
623
384
614
531
137
-3
-47
335
569
473
399
130
111
-260
67
-9
170
245
153
-58
26
52
268
248
611
600
577
567
245
343
-86
99
-96
284
133
186
188
153
381
168
573
498
823
472
570
249
578
427
436
622
597
429
786
485
534
333
318
234
426
488
418
569
237
182
377
338
131
519
386
385
226
272
-81
277
237
388
620
183
-50
4
-137
-201
-159
-278
106
108
-287
-191
-217
-324
-103
304
336
308
285
-17
91
-139
-545
-188
124
376
334
40
-203
-180
19
-124
44
-345
-319
108
-30
-65
-124
-16
539
892
913
1355
1229
1543
1261
1237
1651
2048
2240
2448
2303
1967
1731
1719
1749
1518
1140
274
-769
-1318
-1451
-2077
-2380
-2415
-2094
-1624
-1322
-1023
-1296
-1139
-838
-613
-591
-403
-389
-548
-520
-612
-432
-599
-377
49
49
-315
-155
-203
-207
-155
-266
-73
294
257
-109
65
8
-337
-178
-151
59
307
372
-60
-288
-334
101
364
542
584
530
188
129
151
245
608
410
419
435
486
792
800
775
777
858
742
1118
1144
1046
878
507
792
687
1105
924
922
1149
1089
712
812
489
856
1059
901
1052
864
789
888
1042
1117
1102
1059
767
696
829
451
408
489
671
1127
968
1118
823
515
371
140
181
360
-46
-127
-96
-47
-63
-86
258
191
574
244
265
41
-306
-293
-268
6
53
-115
-54
-111
-258
-360
-321
55
104
33
-300
-276
32
-326
-599
-805
-451
-382
72
-351
-463
-647
-476
-164
-271
-341
-184
-165
-373
-190
-618
-447
-577
-333
90
91
5
-318
-345
-370
-381
-327
54
-92
-102
15
-147
-206
-384
20
-104
-35
-30
-85
75
-271
-290
39
-97
-10
-3
-69
88
-261
-307
-266
122
279
362
325
-43
116
89
113
-105
-64
-21
263
-11
-83
89
51
91
-58
316
376
329
-66
33
-317
-318
0
74
124
-121
90
-263
-363
-139
-316
88
-48
-25
-100
38
-324
-379
-363
-277
94
-86
-105
42
-344
-166
-169
-366
-272
81
-125
78
-329
-228
-528
-174
-271
101
-116
-116
119
64
0
22
-47
229
391
559
309
-119
-75
347
186
135
301
299
378
173
130
308
282
344
198
543
557
218
325
-77
124
-71
310
176
254
535
236
149
328
319
147
515
551
199
-5
25
-130
-161
-335
59
-50
332
147
364
-58
-263
-339
62
306
161
265
-295
-238
-178
72
316
168
145
342
302
-20
115
-272
-295
89
267
337
-33
27
-324
32
271
521
392
582
350
76
-345
-350
-290
-296
-132
-209
-194
-129
-367
-159
-182
-350
75
-41
-24
-121
0
-341
-338
-267
91
-74
262
324
320
-45
61
21
-84
149
538
534
548
444
877
852
596
377
195
469
831
549
75
-185
-293
352
437
851
883
874
856
846
875
699
1035
1046
707
810
632
225
170
514
442
844
845
480
639
623
394
395
638
413
470
468
603
167
287
-40
-92
122
-96
296
141
281
-309
-627
-422
-191
94
-49
112
-330
-237
-596
-633
-574
-180
-326
-353
-246
-629
-623
-527
-187
-140
-314
77
-98
74
-364
-189
-314
-62
145
536
455
728
998
1391
1401
1176
1615
1667
1980
2424
2425
2003
1776
1860
1491
1550
1115
196
-239
-1032
-1403
-1428
-1870
-1860
-1620
-1297
-1088
-1053
-1067
-714
-482
-194
36
-112
-121
65
14
13
50
104
-73
303
142
356
-75
47
-118
156
632
609
181
348
156
213
369
-66
-90
137
455
879
814
635
241
198
234
587
468
829
786
584
365
318
236
488
883
839
431
532
162
352
359
204
601
405
598
225
179
220
535
583
422
855
1047
1134
1080
698
843
794
830
718
905
965
1028
408
142
162
626
784
768
414
625
638
637
626
430
833
693
652
471
552
220
187
132
334
370
249
384
438
437
451
486
472
636
543
531
570
522
306
-263
-245
-525
-342
-94
304
-16
29
-133
-341
-112
353
354
-76
11
-302
-309
-381
-239
-255
-352
109
-95
6
-203
-544
-213
-328
37
100
-112
-116
6
-530
-831
-693
-790
-234
-318
-184
-483
-673
-836
-558
-338
-312
-169
-559
-430
-811
-893
-848
-406
-190
-321
-303
-313
-311
-327
-136
-226
-530
-237
-141
-307
-296
-134
-551
-422
-399
-212
12
116
29
-158
-533
-216
-257
-35
294
-81
-291
-183
-209
-197
-256
-627
-403
-241
41
-22
-51
29
-343
-258
-21
192
248
142
-42
68
34
-120
323
235
554
233
360
-9
-77
-108
-92
258
148
248
207
298
-102
-91
312
201
232
156
295
-85
30
-354
-132
-268
-46
141
195
132
287
-38
-47
-15
278
288
262
-53
105
-288
-154
-177
-319
109
-67
117
-286
-132
-163
-169
-152
-303
-106
314
305
-124
-291
-287
-127
300
349
268
-123
23
-275
-257
44
93
-121
-100
-110
92
-257
-342
-377
-341
7
111
-91
127
-260
-163
-518
-256
-185
-372
-335
-309
-286
-289
-328
-354
-271
-42
228
624
540
317
-113
-121
-16
330
339
306
277
-37
94
-305
-353
29
-10
158
199
137
293
-26
-28
268
302
288
-8
-24
-25
-60
114
83
-53
161
539
186
-57
6
-277
69
-96
-56
-26
301
147
226
238
182
377
132
224
572
552
156
256
-63
-18
360
530
471
882
892
484
546
199
239
572
607
608
593
549
213
167
224
614
459
457
399
610
543
372
127
-287
2
120
94
-167
-499
-660
-855
-479
-446
-469
-406
-216
-303
-306
-189
-525
-144
114
303
308
-76
53
-262
-286
-286
54
-5
204
238
276
-291
-164
8
336
556
549
170
365
183
609
827
1098
1404
1413
1826
1883
1906
1694
1774
2175
2411
2652
2467
2260
2114
1458
1380
720
369
-592
-1123
-1354
-1183
-1604
-1859
-1732
-1800
-1331
-819
-232
-150
-234
-593
-615
-534
-156
-330
-298
-280
-264
-316
-191
-547
-229
-294
107
98
34
74
-62
-29
-121
96
268
519
552
256
-377
-253
-352
127
-39
-63
-82
-56
-26
-22
-29
-29
-16
295
168
563
589
196
288
278
210
436
784
485
411
609
557
527
608
848
1135
1003
1127
858
414
406
495
812
822
869
729
1073
1039
669
867
685
1075
1139
1081
686
794
443
461
872
1084
938
1115
675
795
496
449
579
204
236
432
885
643
472
547
516
632
501
776
434
579
250
198
365
-4
-57
281
201
547
146
63
-513
-606
-202
18
114
41
-357
-217
-546
-588
-564
-178
-261
40
-150
-466
-670
-891
-461
-599
-596
-583
-183
16
71
-361
-621
-484
-639
-205
-175
-623
-658
-1097
-1056
-841
-593
-177
-141
-187
-516
-578
-629
-416
-419
-604
-214
-343
-291
-323
-374
-381
-307
101
292
180
187
292
78
-317
-308
59
-99
-87
100
-259
-351
-379
-326
38
-103
-16
301
332
310
-26
-111
-109
274
199
571
557
175
264
-111
-125
-22
366
164
342
-62
75
37
54
99
-81
-3
275
-27
-58
-1
335
275
39
-175
-381
-95
352
-112
-615
-699
-783
35
237
219
88
-248
-256
-298
-119
-75
-61
262
290
-107
-360
-248
-155
50
-122
34
-355
-364
-268
46
-265
-357
-354
28
-88
-77
23
-202
-595
-569
-173
-288
40
42
-259
-341
-158
-154
-279
-67
360
145
340
260
-70
91
-267
-295
61
-24
333
271
113
28
111
287
142
365
-15
-125
65
6
-321
-348
1
-68
338
348
-13
-124
103
-115
-66
-34
-9
264
-5
-67
115
80
105
-67
316
183
219
370
-85
38
90
265
137
134
343
320
262
79
-158
-222
-261
293
375
-59
18
71
266
347
-13
-110
-45
333
269
-294
-611
-407
-161
-70
143
142
-8
94
69
-71
318
338
267
-17
315
374
270
45
-320
90
383
577
572
219
179
217
519
558
621
452
503
450
555
143
353
231
510
1047
903
1069
641
790
510
484
407
588
553
239
327
74
-370
-382
-257
-115
-14
309
341
314
256
-15
320
166
166
300
-90
119
-125
73
-341
-211
-142
-120
156
200
-15
-276
-329
119
373
240
212
170
206
534
571
611
785
1119
1226
1439
1447
1602
1549
1661
1690
2043
2293
2581
2189
2020
2087
1473
1089
298
-621
-1048
-1164
-1693
-2289
-2867
-2462
-2004
-1795
-1209
-949
-696
-500
-416
-389
-569
-173
-304
0
-291
-381
-527
-438
-504
-389
-161
12
29
-282
-268
114
261
347
159
533
415
439
248
-67
-281
20
-11
166
151
269
-74
-23
349
172
220
584
783
702
701
773
560
215
243
537
548
602
497
643
874
415
238
555
823
1039
737
478
249
222
610
495
815
855
702
1118
958
900
744
649
699
1073
1101
708
493
593
551
597
429
802
671
745
704
817
399
559
560
622
427
427
615
550
554
603
607
540
244
580
457
443
177
54
-178
-143
37
-97
-103
79
-270
-373
-205
-200
-306
-94
260
-97
-327
-522
-578
-515
-154
-298
76
-76
-34
-85
70
1
15
110
-31
284
-20
84
-351
-194
-160
-304
20
-281
-382
-189
-198
-223
-538
-540
-137
106
274
-8
101
-259
-271
-258
-281
-306
-277
38
30
-329
-179
-183
-330
81
-49
276
257
123
-335
-222
-182
30
265
359
282
-93
-110
-21
301
-13
108
43
109
-72
110
-359
-521
-217
-261
-71
-35
-124
8
-368
-219
-520
-189
-271
-115
-77
111
39
28
50
74
118
-51
288
280
-117
-310
-163
-382
5
117
-126
46
-334
-189
-250
-253
-198
-358
14
111
-126
41
-362
-186
-370
84
283
360
305
-67
85
39
74
-68
329
162
139
276
-123
42
23
65
-120
-62
-51
-95
89
14
-302
-312
36
-36
139
165
264
53
-285
78
-3
336
281
-70
-103
-79
-72
112
-278
-373
-331
106
308
355
-70
-307
-376
99
199
414
590
290
-280
-197
-201
-368
-273
30
27
25
64
126
-96
-104
-90
-7
341
326
-84
-269
-339
-278
79
-88
267
136
211
155
275
-53
263
369
146
375
129
177
155
267
125
-85
164
395
402
207
283
297
190
561
574
571
386
474
428
192
-108
-275
21
-69
338
140
333
-88
-285
-379
-257
297
529
216
-112
-187
-518
-332
-90
287
297
314
378
138
285
106
15
99
276
383
336
-62
86
85
-91
273
148
587
793
682
726
741
1117
1386
1416
1818
1822
1849
1752
1930
1920
1680
1417
1594
1617
1189
878
40
-741
-1238
-1478
-1872
-1739
-2070
-1779
-1902
-1468
-1278
-1312
-766
-445
-212
-169
-546
-427
-433
-570
-205
-180
-176
-350
30
52
-353
-540
-565
-363
-87
329
334
-1
-95
69
1
11
-114
343
226
206
318
-75
-80
327
547
442
430
517
300
-77
-31
377
251
538
254
528
628
458
401
192
-8
-12
182
390
419
537
163
218
428
656
1047
1080
1055
728
862
476
410
445
808
670
746
762
723
661
874
871
667
761
1089
1076
697
792
432
434
510
839
883
665
698
668
772
522
312
286
197
402
434
209
127
-311
56
360
596
601
178
266
-83
121
69
64
-103
272
304
-54
45
-306
-325
-332
-356
-345
-283
11
-305
-209
-623
-415
-568
-374
54
87
-313
-531
-614
-195
91
-20
-125
-293
-273
-71
288
99
-231
-586
-316
305
372
51
-627
-812
-439
-213
-332
-314
-322
-294
-261
-277
-322
-319
48
-39
310
-19
48
-369
-135
-287
104
-50
268
291
-2
-103
63
71
-77
302
344
302
-37
125
33
-296
-320
-271
99
-27
323
328
-18
124
80
121
-74
-49
-57
-81
88
-367
-597
-404
-209
84
-48
100
-316
-338
20
94
101
-114
258
332
-27
-257
-167
-170
-358
-331
-317
35
-74
-39
60
-174
-534
-181
-278
32
-289
-363
-376
-355
-365
-135
-332
116
350
190
303
15
-202
-199
-257
-33
313
-8
-127
47
26
37
81
-80
297
373
326
-94
-268
-320
62
299
251
556
163
-70
3
-298
28
-120
-54
-46
-64
-79
-84
-72
-34
301
154
514
571
552
193
302
-58
-11
219
488
820
607
271
87
-95
341
169
130
358
187
566
594
518
183
172
195
195
182
175
143
284
112
7
75
265
149
380
-27
68
-286
-336
-371
-376
-308
70
-109
57
-197
-444
-475
-253
19
88
-351
-600
-435
-614
-521
-252
-517
-193
-341
-336
-234
-398
-638
-184
18
89
91
-97
301
137
359
288
333
247
423
772
821
652
1033
896
1280
1213
1437
1842
1853
1825
1891
1758
1769
1846
1618
1234
1358
697
-72
-682
-1269
-1426
-1581
-1225
-1237
-1561
-1566
-1153
-1065
-634
-314
26
-305
-346
-277
27
-324
-223
-210
68
160
562
170
-75
43
74
-82
-15
281
321
339
260
77
-346
-336
-127
365
176
334
-13
276
345
305
-58
-90
337
537
544
356
-68
-65
301
374
136
175
226
174
-11
98
-87
163
622
631
543
540
616
628
516
152
214
425
835
792
622
251
537
409
825
737
1148
955
1099
877
484
820
760
1107
750
860
849
685
696
807
405
467
713
900
1104
871
398
565
567
603
414
505
806
480
580
215
219
551
621
411
451
459
617
149
-73
96
-68
365
230
211
315
105
-308
-335
19
-116
-88
90
-281
-356
-371
-368
-371
-367
-356
-358
-141
-229
-611
-485
-803
-474
-535
-333
-264
-365
-544
-409
-432
-405
-634
-626
-635
-416
-498
-845
-884
-855
-789
-485
-469
-461
-450
-451
-478
-776
-792
-481
-605
-199
-141
-244
-455
-869
-817
-542
77
336
378
-13
79
14
66
-95
-43
-56
-104
106
81
98
-92
282
178
583
421
389
190
-99
-303
-296
-116
305
340
301
305
371
154
378
350
150
237
216
315
-125
48
69
109
-112
-27
369
207
142
-42
79
113
280
174
183
322
-62
-112
-111
90
-300
-154
-379
27
-124
81
-300
-320
75
-19
272
-71
106
94
64
-317
-231
-552
-191
12
-69
-6
-78
11
-147
-163
7
-20
326
-47
-262
-156
-198
-195
-175
-346
78
-25
-23
62
-145
-225
-384
63
-45
-14
-82
73
2
-266
58
-49
129
228
170
-3
108
91
-113
-103
121
-71
161
635
568
-55
-129
-344
-8
187
-26
-159
-541
-288
260
-12
-257
-353
-104
249
584
313
-285
-151
-292
-114
256
309
347
343
260
-124
67
-121
296
183
213
378
-25
-125
-97
328
561
473
484
605
184
348
338
338
306
284
335
179
206
334
-111
87
-13
223
589
242
315
-58
-57
-14
264
284
351
190
246
203
328
-82
65
43
116
-32
-7
103
-167
-389
-418
-533
-379
-334
-348
-323
-264
-269
-367
-160
8
360
634
603
297
-279
-372
14
-80
-39
-97
92
47
-266
-332
-323
90
330
229
196
308
-54
-73
-73
-114
-117
289
598
684
926
1333
1222
1646
1532
1889
1763
1986
2211
2250
2306
1787
1688
1759
1749
1442
1121
211
-136
-675
-1391
-1663
-1655
-1196
-1016
-964
-947
-1074
-842
-628
-246
-162
-349
-383
-573
-787
-797
-542
9
74
-345
-236
-225
-157
-190
-540
-249
-291
-77
-44
122
106
-54
-19
91
-361
-384
43
-50
-66
37
-344
-360
-277
-88
218
776
844
566
-99
-270
-72
513
633
224
289
268
380
189
155
153
555
773
879
790
604
229
240
586
431
509
808
805
508
465
447
443
467
826
762
931
1150
871
567
254
486
762
1071
895
448
418
509
836
847
870
694
765
739
864
463
636
614
627
409
460
474
402
514
379
332
379
211
519
234
374
-39
89
41
45
34
-278
-329
-326
-309
-361
-242
-629
-640
-252
-321
55
38
-356
-520
-602
-538
-358
81
-92
116
-282
-218
-410
-810
-846
-769
-408
-395
-773
-695
-1038
-706
-773
-579
-198
-148
-143
-176
-523
-396
-489
-464
-570
-384
-285
-343
-250
-628
-593
-144
82
-66
-114
48
22
59
78
52
68
-62
351
131
270
-109
-96
276
364
371
133
224
529
133
115
-320
-259
-83
-34
83
-313
-286
108
-98
55
-292
68
334
530
211
-57
-301
-342
78
315
215
208
326
-118
-260
-294
27
-125
-50
-29
-62
-118
79
19
-260
57
-60
325
322
-106
-328
-164
-331
96
-48
-52
-100
-115
-104
116
-266
-168
-226
-367
91
-77
49
-180
-529
-168
-266
31
-280
-280
79
-114
32
-161
-221
-317
-74
314
287
-67
82
-286
-358
-293
-65
188
254
328
84
12
-100
332
338
-77
55
119
259
-26
-267
-206
-332
294
522
366
50
-262
278
528
155
64
-321
-46
555
531
110
-543
-536
80
189
553
176
264
-81
-68
269
354
375
317
-15
-40
-36
-69
109
90
-39
154
238
133
-58
75
53
52
20
13
117
295
383
-8
-311
-533
-204
-124
186
183
-109
-139
-165
17
-110
92
-265
17
-114
-99
-298
-561
-396
-234
40
-21
263
-99
26
-292
13
117
-69
-73
-92
-61
258
-10
112
-278
31
311
389
805
437
165
-47
-71
321
224
540
226
378
319
335
382
155
175
223
552
590
534
136
257
-32
303
191
586
420
432
607
207
336
306
376
231
558
536
162
-3
-119
-75
130
604
393
232
274
-70
260
132
204
218
228
523
568
561
208
296
-107
-113
297
209
199
-34
-313
-147
6
-11
383
371
304
283
301
296
-13
-66
-35
343
216
238
368
-71
79
92
-90
-26
270
291
260
-117
-283
-382
-337
73
-34
284
270
-36
-86
-95
-27
358
210
213
383
297
286
325
336
311
321
174
621
791
850
779
399
600
439
647
1079
1074
886
421
614
453
833
889
660
724
767
662
410
181
149
548
412
632
240
371
264
114
-287
-273
-59
148
349
28
-538
-582
-138
41
86
107
-13
170
184
-49
-329
-130
70
289
269
-263
-584
-483
-424
-517
-376
-305
-281
2
36
51
12
-319
-336
35
-24
365
351
290
356
593
892
1148
1382
1644
1874
1673
1807
1494
1713
2359
2585
2224
1998
1952
2040
2143
1258
392
24
-185
-530
-865
-1195
-1683
-1788
-1804
-1196
-1127
-812
-256
-321
-312
-153
-208
-155
-294
62
98
57
-310
-184
-229
-380
74
-29
279
289
322
354
326
-5
-33
302
177
242
187
310
-70
-127
-82
315
238
599
558
167
336
129
523
639
422
414
391
586
202
313
-4
311
178
529
576
621
425
446
384
557
570
456
874
652
509
546
151
167
564
486
872
649
857
787
476
435
407
406
459
780
772
405
528
226
539
628
434
479
770
475
566
346
-18
316
210
520
209
170
211
249
162
-11
-101
-14
149
207
352
-78
96
-101
288
164
515
556
522
149
-12
103
44
79
-91
-15
257
-69
47
-352
-155
-339
96
278
349
-7
20
-209
-572
-254
-345
61
90
-279
-209
-596
-582
-200
-346
-347
-166
-188
-375
-310
-359
-229
-519
-364
124
-44
77
-141
-513
-220
-370
-289
4
16
21
15
-280
-369
-239
-582
-536
-353
98
-114
-262
-207
-542
-188
0
-96
-34
-85
29
-142
-238
-188
-290
110
-120
39
-359
-214
-521
-532
-515
-192
-329
47
87
-260
-151
-208
-369
54
-114
112
76
119
-84
89
-382
-523
-154
-118
345
306
-128
47
-88
376
532
589
573
512
151
292
-27
-27
263
325
185
593
419
581
348
-102
-101
336
521
551
157
-42
85
92
-49
348
179
193
167
372
292
-54
-91
-32
348
180
164
326
-19
-48
-35
-7
289
353
169
209
185
351
-44
54
-321
-337
16
-106
-54
110
-316
-173
-375
84
305
163
374
-34
41
-346
-372
-271
-77
365
155
262
13
-136
-302
-28
219
515
334
77
-361
-158
-377
-312
3
49
79
101
-127
-104
-112
106
93
-102
-5
283
-55
68
1
45
-117
-28
321
189
548
521
338
-128
62
-63
151
548
565
243
146
292
-68
-99
256
170
249
133
-112
-283
10
-52
147
238
224
163
333
-19
-95
-115
-91
-46
256
319
130
373
266
-102
-95
297
184
237
230
235
233
162
315
309
182
546
196
-78
-312
-356
-274
41
60
-117
306
161
334
103
-346
-364
26
-78
-22
-86
31
-337
-334
19
-124
-78
-86
-85
-81
114
-273
-377
-344
73
-26
259
-92
45
-275
-284
-269
16
84
-59
312
338
-17
83
5
68
-36
357
190
244
515
199
323
-22
315
546
484
463
248
284
-46
280
142
240
572
629
633
563
199
359
310
311
348
136
155
371
269
-101
116
-36
201
473
892
821
539
-25
123
296
596
779
474
561
205
241
584
621
384
473
861
888
452
174
277
