777
424
616
574
524
204
136
321
-13
-87
121
98
61
-258
-307
-291
37
88
66
-268
-346
-152
-203
-223
-173
-336
-296
-373
-240
-538
-199
-347
-323
-359
-355
-279
35
-260
-344
-351
5
123
-81
-100
-127
-127
-96
-13
152
403
681
924
1360
1227
1574
1430
1898
1976
2603
2855
2904
2551
2666
2246
1970
1498
1100
370
-568
-1121
-1260
-1501
-1853
-1798
-1591
-1011
-675
-441
-605
-592
-559
-224
-147
-360
-328
-285
-261
-272
-266
80
-38
273
-84
16
-274
117
276
304
-28
-61
280
144
178
369
284
-10
261
317
155
515
550
214
329
-12
275
368
183
227
540
616
405
389
613
628
437
483
454
620
531
249
555
393
480
783
802
810
819
814
775
472
459
495
788
777
470
447
484
793
806
788
798
851
878
808
407
551
549
620
420
416
386
387
424
448
412
582
252
242
539
548
206
302
-72
-71
272
335
302
-41
-91
-69
-36
-63
102
17
6
77
-97
-84
90
-288
-359
-333
7
71
73
28
-291
-361
-177
-215
-189
-374
-335
-383
-232
-565
-567
-519
-221
-216
-241
-531
-572
-608
-615
-582
-536
-255
-247
-221
-168
-133
-174
-530
-599
-565
-206
-144
-187
-545
-608
-576
-225
-139
-361
-371
-139
-155
-165
-181
-208
-225
-199
-376
-287
6
-292
-370
-169
-166
-373
-309
-263
-261
-313
-136
-186
-169
-361
-302
-284
-299
-322
-345
-366
-374
-359
-320
-275
18
43
42
-259
-334
-378
-333
27
87
41
-317
-365
-320
-259
-266
-329
-352
-288
52
59
-272
-335
-306
46
109
85
6
-318
-352
-371
-135
-135
-354
-293
16
41
41
25
-257
-268
19
92
-107
119
-257
-381
-162
-367
-314
-324
-367
-362
-290
29
12
-306
-316
16
104
120
68
28
32
35
-264
-313
-282
92
-61
-73
69
-301
-331
-284
39
84
94
67
7
-305
-302
26
109
-125
83
21
-260
-261
-281
-321
-332
-280
59
108
95
49
12
3
8
20
39
59
56
23
-267
-259
46
96
112
106
109
109
65
-292
-142
-173
-356
29
-114
-67
-85
118
80
95
-94
-27
-23
-87
94
72
113
-77
-20
282
316
319
274
-55
-111
-118
-90
-56
-16
297
365
154
155
136
154
226
561
590
557
255
242
254
514
251
528
607
451
490
450
396
407
480
799
798
498
454
404
561
164
300
-10
-15
-34
-94
82
11
-307
-365
-133
-353
-273
45
48
9
-283
-292
-282
-267
2
11
4
-284
-328
-360
-359
-337
-313
-294
-272
3
6
-276
-316
-330
-289
51
-124
-81
-72
-50
288
195
425
699
988
1238
1653
1470
1804
1741
2326
2678
2910
2723
2704
2918
2545
2227
1673
994
598
36
-472
-943
-1567
-1479
-1426
-1227
-965
-683
-405
-184
-331
-335
-136
-180
-186
-174
-154
-383
-359
-354
-369
-371
-325
15
91
118
104
84
96
-97
265
378
189
172
360
322
361
171
177
373
335
141
514
560
227
373
359
212
596
637
598
559
570
595
574
526
524
610
485
822
801
469
420
437
501
827
880
652
892
831
510
505
837
677
705
648
830
812
840
858
840
822
843
887
655
646
885
874
856
819
790
814
880
650
827
415
548
551
394
479
467
627
531
237
244
246
212
157
370
342
306
-7
-77
120
79
44
15
7
28
51
25
-310
-378
-354
16
126
-113
74
-260
-291
-285
-288
-308
-318
-311
-318
-359
-152
-174
-171
-169
-174
-159
-373
-346
-383
-214
-534
-522
-201
-154
-161
-196
-209
-188
-158
-150
-150
-381
-327
-286
-317
-168
-535
-558
-211
-332
5
4
-286
-297
-277
2
-257
-283
-313
-336
-346
-336
-310
-274
22
75
-118
-60
-35
-57
-120
63
5
-270
19
99
-67
-22
-56
115
54
79
-73
288
316
258
-79
-116
-102
-80
-84
-96
-83
-48
-37
-80
103
55
69
125
-72
-38
-37
-75
112
40
7
41
119
-68
-61
-116
73
51
87
-111
-83
-103
110
86
95
110
103
88
105
-79
268
316
290
-30
-83
-107
121
83
69
99
-117
122
40
-284
4
118
-46
-45
-101
113
97
71
31
37
127
-12
287
-18
-66
-36
295
305
-33
-116
-110
-45
-46
81
-346
-153
-314
103
-61
-79
115
93
-128
-79
-57
-54
-43
-31
-53
-120
60
29
65
-122
-66
-39
-24
-18
-32
-57
-56
-6
326
371
351
293
-13
-35
-41
-29
280
377
206
204
371
283
280
352
158
151
356
332
358
140
147
135
147
208
546
606
616
584
535
244
253
574
409
478
496
473
441
425
423
427
435
435
398
554
152
275
-55
-75
-82
-102
124
92
48
0
-268
47
-112
-65
-114
47
-257
25
55
19
-319
-360
-309
42
90
56
-268
-296
2
82
-106
-76
-85
-127
77
49
83
-69
320
183
551
450
669
918
1395
1561
1436
1817
1708
2150
2371
2565
2638
2300
2380
1948
1758
1417
1062
-13
-817
-1402
-1465
-1865
-1914
-1873
-1451
-1166
-1094
-807
-592
-170
-278
84
92
-278
-188
-537
-232
-334
67
124
105
73
67
77
84
97
-112
-16
348
158
158
382
367
132
159
167
168
183
210
212
183
164
202
552
636
393
596
533
254
529
557
572
583
604
384
423
443
428
396
389
441
792
860
844
509
445
452
769
823
843
848
864
871
841
790
511
801
866
659
676
671
652
872
826
804
831
886
668
657
862
796
476
430
425
464
502
480
392
559
538
583
624
608
559
533
531
241
141
282
-12
302
368
355
259
-96
119
113
97
64
38
23
-261
-314
-363
-380
-371
-358
-342
-307
-265
-259
-317
-151
-212
-216
-184
-161
-172
-223
-553
-618
-640
-618
-589
-588
-603
-598
-561
-534
-559
-620
-398
-620
-543
-230
-235
-544
-599
-622
-606
-561
-250
-200
-166
-162
-188
-220
-222
-179
-132
-379
-156
-184
-166
-379
-367
-146
-172
-378
5
119
-119
58
-296
-333
-300
-258
-258
-294
-323
-329
-340
-373
-137
-345
22
110
97
5
-331
-342
-304
-275
-268
6
40
49
2
-319
-333
-279
50
81
67
48
50
59
61
58
58
62
64
69
81
84
53
-258
-284
23
-127
-58
-96
37
-324
-329
-261
44
29
1
29
97
115
46
-286
-258
121
-38
-69
66
-281
-288
0
14
14
36
76
87
53
8
-264
1
13
31
72
108
91
19
-293
-276
56
118
-122
-121
-93
-62
-81
102
34
35
99
-93
-87
120
59
27
21
18
22
55
126
-69
-81
84
-265
-266
100
-18
291
-28
126
93
-99
-6
285
-2
-28
269
349
130
343
278
281
370
219
519
239
199
184
194
225
537
610
398
624
535
207
196
216
192
359
268
-22
-22
-65
84
-282
-316
-267
43
32
-293
-354
-369
-364
-372
-383
-358
-285
50
73
27
-299
-330
-293
44
111
120
61
-284
-350
-363
-338
-322
-333
-351
-341
-295
18
69
-112
301
565
883
905
1323
1370
1354
1344
1382
1216
1577
1621
1550
1372
1142
645
634
285
-165
-669
-1401
-1793
-2069
-1952
-1932
-1760
-1491
-1195
-908
-890
-387
-214
-151
-174
-204
-184
-375
-316
-296
-293
-270
42
103
-127
109
72
60
82
108
109
108
-100
273
147
200
155
324
279
304
363
166
221
532
566
549
232
191
226
580
417
435
628
542
237
246
552
610
404
444
467
461
420
623
604
389
472
800
824
806
790
810
858
890
873
828
805
829
861
847
783
472
496
857
714
758
711
869
782
487
505
812
855
847
786
459
424
424
419
384
585
547
534
255
194
368
325
352
164
207
189
132
332
289
-16
-67
-96
-89
-77
-117
38
-323
-370
-355
-333
-355
-154
-196
-198
-179
-166
-169
-171
-165
-159
-167
-204
-527
-620
-460
-782
-792
-491
-435
-401
-398
-409
-424
-459
-769
-810
-793
-469
-432
-492
-863
-658
-825
-398
-533
-527
-587
-628
-628
-626
-386
-405
-400
-622
-565
-240
-187
-195
-526
-595
-555
-145
0
3
-133
-524
-547
-221
-162
-164
-179
-153
-361
-358
-159
-210
-184
-350
-273
-270
-330
-141
-164
-134
-334
-289
-277
-294
-313
-315
-318
-354
-161
-196
-151
-302
28
5
-343
-159
-161
-376
-352
-363
-130
-147
-162
-183
-187
-157
-359
-313
-293
-291
-297
-314
-341
-355
-337
-294
7
30
25
-265
-317
-364
-377
-354
-321
-302
-291
-275
-262
-277
-319
-344
-315
-257
25
-268
-328
-348
-308
18
79
118
-111
-94
-105
93
0
-332
-340
-277
62
95
56
-271
-319
-315
-277
17
33
7
-312
-371
-376
-314
20
47
23
25
108
-31
265
-80
47
13
119
267
314
-28
102
39
49
73
79
103
-84
-11
-1
-60
-102
-49
327
159
161
380
381
168
197
167
366
334
337
335
297
-27
-98
95
38
-263
-279
-270
-263
-290
-350
-158
-196
-195
-151
-330
1
24
-290
-129
-182
-153
-344
-322
-370
-191
-239
-244
-234
-220
-184
-368
-283
28
35
9
-277
-304
-321
-318
-278
59
-94
265
375
525
490
760
1019
1190
1228
1163
1343
1345
1191
1586
1661
1621
1244
1357
930
650
193
-149
-747
-1196
-1450
-1823
-1879
-1892
-1825
-1635
-1330
-714
-386
-179
-381
-185
-529
-565
-529
-203
-145
-363
-332
-307
-310
-335
-350
-321
-258
55
79
84
103
-121
-109
-120
-112
-55
281
314
273
-39
-34
304
142
177
153
379
379
137
132
366
371
178
528
589
582
536
253
532
578
601
589
570
567
567
546
519
541
637
510
855
868
836
812
811
812
801
800
829
870
886
869
842
833
846
868
882
884
872
840
791
486
453
441
457
500
809
827
772
406
575
571
633
431
419
606
532
231
203
158
349
298
298
344
370
313
-77
56
34
99
-112
74
-343
-219
-240
-189
-172
-230
-561
-568
-254
-219
-529
-385
-465
-458
-399
-618
-632
-419
-457
-484
-507
-774
-501
-459
-432
-461
-793
-867
-652
-658
-644
-861
-783
-432
-625
-628
-415
-441
-422
-390
-636
-391
-396
-388
-394
-433
-466
-425
-545
-133
-324
-138
-527
-609
-588
-254
-199
-197
-217
-221
-212
-218
-243
-250
-213
-150
-375
-146
-197
-211
-170
-374
-350
-348
-324
-276
1
-306
-141
-182
-381
-284
17
-267
-310
-312
-292
-313
-384
-184
-167
-356
-322
-374
-222
-550
-539
-207
-383
-344
-348
-364
-369
-358
-343
-330
-315
-298
-285
-282
-285
-295
-322
-374
-173
-185
-132
-318
-308
-384
-232
-534
-234
-148
-340
-323
-332
-351
-378
-150
-159
-384
-330
-293
-302
-352
-149
-170
-148
-349
-289
3
4
-274
-304
-336
-370
-142
-143
-358
-290
25
52
53
48
52
72
102
-127
-127
83
7
-312
-320
-274
44
84
97
97
89
69
35
0
-271
-257
40
87
105
71
-259
-313
-282
80
-77
-67
112
36
32
94
-105
-100
120
80
49
21
-263
-288
-304
-307
-287
21
87
118
85
9
-296
-281
28
67
77
78
88
93
73
37
23
60
-128
-72
-68
-115
82
57
84
-109
-42
-1
-4
-43
-95
-126
-104
-29
321
134
161
165
172
188
202
202
196
203
229
245
211
371
263
-40
-5
311
309
-47
68
-286
-313
-308
-319
-348
-362
-342
-316
-326
-379
-170
-165
-357
-286
-266
-313
-383
-175
-189
-180
-165
-144
-377
-363
-371
-149
-189
-209
-190
-132
-310
13
47
54
66
-123
282
245
495
719
1131
953
973
972
999
1367
1592
1887
2138
1988
1951
2116
1776
1885
1278
673
-63
-466
-931
-1240
-1474
-1887
-1888
-1425
-1328
-714
-468
-615
-584
-562
-533
-522
-551
-602
-631
-621
-591
-563
-535
-233
-176
-148
-169
-202
-181
-350
5
57
76
111
-86
-64
124
9
-309
-270
84
-92
-48
-1
314
342
304
-15
-18
329
191
235
177
335
291
336
176
518
566
581
578
570
565
570
595
626
387
634
609
599
616
634
623
597
608
430
789
828
773
432
404
453
768
783
768
768
785
781
485
454
477
794
831
812
499
435
628
578
568
610
409
402
573
211
140
358
320
280
278
316
332
272
-98
72
72
-123
-76
-88
107
39
-263
-289
-320
-366
-151
-153
-373
-350
-146
-528
-391
-422
-624
-559
-554
-607
-408
-432
-426
-420
-434
-454
-458
-436
-416
-440
-778
-868
-891
-824
-467
-407
-418
-459
-483
-480
-453
-410
-627
-623
-409
-453
-441
-640
-620
-422
-492
-468
-595
-227
-239
-599
-414
-638
-540
-205
-163
-135
-380
-153
-213
-242
-196
-368
-322
-346
-147
-184
-188
-178
-175
-182
-181
-155
-365
-325
-333
-134
-178
-144
-299
28
-260
-360
-165
-144
-361
-381
-187
-198
-371
-276
-278
-378
-213
-202
-371
-313
-327
-355
-332
-285
-303
-153
-240
-196
-301
61
1
-171
-541
-247
-383
-315
-343
-141
-143
-359
-341
-375
-167
-172
-384
-328
-300
-313
-350
-131
-148
-135
-353
-303
8
56
85
78
31
-285
-316
-296
5
17
-291
-372
-160
-381
-297
24
30
3
-267
4
7
-299
-378
-162
-368
-257
81
68
-272
-346
-342
-272
53
63
21
-280
-285
-267
-271
-301
-313
-263
80
124
69
-300
-376
-360
-282
43
70
71
67
56
33
17
26
61
90
92
71
40
3
-293
-322
-318
-277
37
85
105
87
36
-283
-315
-287
48
111
93
15
-301
-278
57
106
82
30
25
67
73
-266
-378
-150
-312
75
125
72
-262
-281
24
84
110
105
96
87
70
45
23
7
-264
-275
-263
42
110
-105
-114
114
117
-73
291
378
130
309
-59
125
-113
-19
351
165
169
136
370
131
183
240
538
570
610
400
415
631
561
525
560
632
421
401
590
522
228
230
528
576
574
223
314
-96
72
26
-294
-378
-158
-353
-257
16
-337
-199
-206
-339
47
55
-317
-180
-204
-154
-380
-154
-195
-188
-146
-135
-181
-242
-255
-205
-145
-372
-363
-338
-295
-278
-314
-370
-379
-303
94
-7
377
225
602
789
1053
1328
1247
1278
1260
1623
1677
2321
2571
2599
2262
2207
2395
2133
1567
798
49
-792
-959
-1280
-1505
-1848
-1524
-1601
-1366
-1101
-822
-575
-160
-369
-153
-217
-518
-534
-527
-242
-176
-334
4
17
-304
-137
-170
-369
7
-126
-46
-28
-64
-124
95
127
-27
344
146
378
316
283
309
372
175
215
242
516
521
249
233
250
561
622
396
633
593
570
578
596
602
605
637
461
804
825
498
386
590
388
502
833
810
467
408
434
790
643
712
733
737
744
737
692
880
838
858
661
694
661
849
792
510
501
499
769
792
784
459
616
549
550
589
614
603
576
543
243
182
376
338
325
327
331
321
282
-46
126
75
88
-112
-73
-100
65
-302
-374
-381
-343
-308
-307
-329
-349
-355
-366
-139
-162
-150
-364
-335
-358
-163
-213
-233
-242
-521
-548
-539
-237
-202
-235
-583
-408
-410
-591
-246
-210
-245
-569
-620
-622
-584
-529
-223
-179
-151
-153
-190
-234
-233
-178
-376
-375
-159
-157
-328
15
-267
-150
-516
-200
-264
-123
96
-322
-180
-142
4
-126
-92
122
54
-260
-302
-322
-314
-284
12
53
90
112
105
81
67
91
-110
-67
-75
125
65
46
81
-106
-32
273
278
-11
-63
-108
115
88
69
73
109
-107
-104
108
61
75
-94
258
283
-36
-125
88
103
125
110
76
76
-123
-52
-30
-71
-124
117
-107
-59
-26
-11
-10
-24
-54
-82
-77
-31
274
282
-17
-78
-121
121
124
-127
-122
-111
-85
-53
-36
-66
114
47
61
-88
288
314
-36
98
61
-123
-20
289
276
-23
-71
-128
72
60
112
-60
-1
261
-18
-38
-43
-38
-26
-8
263
258
-23
-59
-91
-119
117
117
-110
-63
-22
-6
-14
-39
-67
-74
-42
279
332
322
-4
-74
-86
-44
-13
-26
-51
-27
307
374
373
317
271
275
311
336
327
284
-35
-94
-108
-43
337
193
229
184
369
319
303
315
355
152
172
377
277
-42
-8
347
161
153
361
339
347
345
328
342
175
556
627
604
539
518
557
594
581
547
571
421
790
820
506
448
478
844
694
720
667
857
836
851
850
797
469
444
494
816
804
444
599
613
485
868
890
806
436
600
254
144
299
-11
-25
-62
102
7
-275
42
-123
-73
-77
-101
-106
-92
-91
-125
86
85
-109
-33
-22
-95
69
32
57
98
119
-119
-82
-48
-54
-86
-81
-9
333
364
349
367
220
391
818
730
953
1254
1808
1726
1764
2059
1998
2611
2710
3152
3161
3104
2770
2556
2313
1546
457
24
-474
-1124
-1213
-1456
-1506
-1610
-1331
-752
-438
-174
-258
63
50
11
-280
-308
-319
-289
46
-122
-83
-115
72
20
23
80
-94
-18
286
296
280
263
267
309
380
190
219
202
173
177
234
563
591
556
243
225
516
563
587
610
415
769
842
846
806
789
823
878
662
695
744
1047
1049
743
691
688
727
755
755
761
1053
1088
1078
1037
1040
1118
957
975
906
1086
1077
1116
1144
1144
903
953
1003
1003
955
902
1129
1108
1078
1052
1046
1033
715
862
769
494
803
868
894
876
836
790
486
439
408
405
427
438
394
539
149
324
329
376
136
348
272
-48
-91
-125
108
116
-103
-72
-84
118
52
3
-277
-278
-263
20
44
45
13
-297
-344
-358
-336
-304
-297
-341
-167
-246
-536
-516
-213
-180
-176
-187
-191
-178
-166
-164
-155
-370
-299
17
25
-280
-337
-356
-333
-302
-286
-267
34
90
113
85
46
54
120
-66
-50
-84
-118
-123
-116
-119
-115
-75
256
314
308
-7
-65
-80
-55
-19
268
296
313
304
261
-54
-91
-80
-31
273
283
-13
-75
-108
-69
283
370
131
336
264
-38
-61
-86
-111
-113
-88
-70
-89
-127
115
-123
-101
-97
-88
-53
-20
-40
-120
58
57
-121
-34
-3
-29
-70
-96
-113
118
86
79
112
-93
-71
-100
96
51
52
85
122
-108
-99
-114
108
81
89
-127
-94
-86
-84
-65
-47
-75
113
74
120
-42
259
-44
127
88
104
121
102
74
91
-102
-55
-74
119
86
-124
-26
302
304
257
-45
-69
-79
-82
-60
-8
299
294
-27
-103
124
-105
-70
-62
-71
-63
-29
256
-7
-49
-90
-91
-41
287
327
304
-20
-84
-101
-69
-24
259
258
-27
-84
108
77
100
-109
-90
-111
-119
-69
259
261
-92
64
82
-39
335
313
-74
81
104
-55
263
256
-24
-22
-26
-71
127
124
-59
293
345
346
338
348
358
357
361
134
181
213
211
187
171
187
248
603
459
799
838
846
850
850
831
801
779
769
485
418
589
541
556
619
444
784
859
887
839
481
386
582
518
144
-12
125
85
76
31
-301
-332
-271
92
-96
-99
113
66
13
-296
-315
-270
62
92
44
-284
-302
1
56
70
56
58
81
88
52
2
-262
51
-107
-26
-10
-55
-104
-80
309
521
496
726
971
1226
1442
1844
1727
1970
2603
2739
2971
2974
3074
2856
2577
2151
1270
506
-260
-674
-1222
-1906
-1922
-1978
-2063
-1492
-1153
-1117
-876
-426
-561
-531
-556
-563
-519
-217
-224
-517
-249
-154
-295
11
-270
-291
8
92
-113
-121
115
-108
-22
317
333
280
-44
-72
-58
-32
-10
284
357
177
200
163
379
141
218
557
603
623
635
633
612
591
603
391
429
432
423
436
466
479
466
464
510
850
666
692
669
873
816
781
794
850
641
876
790
447
428
488
840
670
724
734
696
889
849
862
653
675
643
848
815
801
771
452
385
613
633
411
422
394
590
518
202
174
177
184
159
339
-29
121
70
94
-92
-42
-60
123
54
27
21
-267
-338
-147
-155
-369
-334
-349
-150
-194
-189
-147
-364
-361
-144
-204
-513
-542
-550
-557
-571
-582
-583
-587
-623
-436
-493
-482
-401
-570
-546
-596
-419
-479
-509
-770
-488
-428
-621
-609
-413
-494
-769
-440
-584
-518
-522
-550
-542
-244
-219
-237
-513
-222
-132
-319
-347
-198
-547
-545
-208
-379
-348
-357
-363
-354
-350
-364
-376
-368
-349
-342
-349
-356
-361
-373
-134
-384
-339
-280
4
-269
-297
-314
-331
-371
-160
-171
-147
-139
-180
-233
-241
-200
-171
-185
-192
-136
-310
-298
-130
-226
-225
-135
-322
-337
-383
-384
-352
-366
-185
-233
-174
-304
20
-289
-143
-201
-169
-363
-334
-340
-342
-322
-303
-309
-338
-370
-129
-372
-334
-296
-293
-341
-153
-182
-148
-336
-289
-283
-289
-289
-297
-337
-132
-137
-327
21
51
-268
-369
-169
-152
-365
-345
-345
-331
-297
-287
-328
-132
-144
-345
-279
-263
-303
-347
-360
-362
-378
-138
-371
-314
-285
-325
-142
-177
-154
-379
-382
-134
-351
-276
9
-309
-143
-152
-316
39
59
22
20
91
-89
-95
95
71
-116
-15
267
-65
91
49
82
-95
263
370
185
173
355
305
344
176
215
170
366
360
140
143
353
338
157
531
578
249
379
289
-6
-42
-118
40
-287
-317
-334
-363
-152
-194
-205
-171
-365
-316
-323
-131
-210
-516
-522
-249
-222
-187
-146
-379
-135
-176
-202
-178
-369
-315
-324
-135
-205
-227
-194
-149
-381
-355
-271
-109
342
244
620
778
1034
1344
1575
1636
1584
1581
1478
1726
2159
2158
1771
1880
1481
1222
720
-1
-497
-1346
-1468
-1706
-2146
-2012
-2002
-2082
-1517
-1160
-1081
-815
-392
-590
-614
-410
-440
-434
-403
-613
-545
-214
-171
-192
-513
-561
-543
-214
-136
-339
-306
-283
-274
-284
-293
-267
58
-121
-75
-69
-80
-82
-56
-1
318
350
326
265
-37
-32
269
322
371
175
248
546
524
204
165
199
527
564
534
223
205
237
535
560
593
406
489
784
498
446
439
479
510
497
472
489
795
814
497
389
574
594
420
492
509
470
412
626
631
427
496
783
486
398
583
568
587
580
524
211
217
532
561
228
325
-64
-88
-28
279
-3
-81
108
81
74
59
35
16
9
-267
-324
-159
-248
-549
-546
-523
-528
-575
-640
-430
-452
-462
-471
-465
-429
-635
-608
-630
-432
-488
-777
-796
-811
-819
-816
-812
-838
-651
-721
-726
-894
-510
-433
-448
-508
-792
-498
-433
-399
-403
-411
-401
-402
-445
-770
-800
-487
-620
-247
-196
-221
-547
-615
-387
-609
-535
-218
-223
-540
-587
-565
-224
-141
-362
-359
-346
-323
-327
-379
-188
-208
-175
-382
-356
-349
-345
-344
-361
-136
-156
-149
-383
-364
-354
-358
-132
-191
-237
-211
-367
-271
-261
-337
-160
-172
-136
-376
-138
-150
-380
-352
-372
-175
-210
-182
-371
-317
-293
-286
-291
-319
-372
-166
-183
-165
-140
-132
-148
-173
-187
-172
-379
-312
1
26
20
-265
-310
-363
-147
-145
-362
-327
-329
-357
-366
-341
-310
-307
-332
-348
-325
-283
-269
-307
-380
-181
-177
-369
-295
-266
-294
-345
-376
-381
-369
-340
-282
56
115
116
69
27
36
93
-98
-60
-64
-103
98
60
70
-118
-28
293
316
314
310
305
300
309
343
130
152
134
347
312
287
263
-10
265
329
135
380
282
-88
124
-104
-87
102
-292
-163
-228
-514
-562
-629
-409
-626
-531
-197
-194
-519
-597
-613
-550
-207
-170
-214
-550
-598
-590
-563
-556
-562
-540
-217
-158
-167
-240
-557
-541
-205
-134
-367
-369
-340
1
125
268
177
632
863
1098
1290
1380
1347
995
977
1383
1631
1525
1448
1209
974
1063
853
206
-353
-662
-1355
-1413
-1666
-2111
-2158
-1760
-1480
-1154
-1102
-839
-389
-543
-516
-252
-229
-210
-224
-513
-518
-214
-153
-381
-384
-378
-346
-316
-317
-334
-328
-293
-259
15
42
109
-56
-2
-21
-80
-107
-74
-11
290
298
277
-13
-41
-34
285
383
205
220
193
180
191
187
140
350
373
212
555
558
243
206
238
557
600
623
398
425
398
567
235
514
628
479
497
446
411
442
503
789
776
499
510
804
837
840
811
778
777
828
659
727
727
663
837
782
504
490
467
451
457
470
455
389
555
235
217
217
185
356
-1
-66
-88
-95
-108
-111
-72
-9
266
-64
52
-321
-356
-325
-298
-318
-376
-191
-531
-626
-444
-446
-628
-549
-557
-411
-797
-850
-807
-486
-478
-785
-842
-872
-894
-684
-737
-745
-682
-849
-803
-827
-882
-650
-881
-840
-814
-806
-796
-777
-511
-781
-812
-834
-825
-796
-769
-502
-493
-468
-433
-406
-393
-628
-582
-529
-253
-533
-562
-549
-237
-189
-186
-198
-169
-356
-311
-351
-193
-253
-217
-378
-313
-323
-377
-160
-168
-173
-185
-181
-133
-323
-306
-375
-223
-529
-230
-144
-345
-338
-350
-358
-378
-157
-163
-348
20
77
26
-329
-376
-350
-326
-370
-189
-196
-364
-276
-298
-175
-556
-556
-179
-314
-299
-130
-227
-248
-196
-137
-376
-133
-133
-357
-323
-321
-353
-383
-377
-336
-290
-276
-319
-149
-229
-247
-197
-140
-144
-204
-246
-221
-170
-174
-243
-554
-256
-139
-295
-270
-290
-299
-291
-292
-309
-316
-304
-306
-353
-168
-207
-181
-365
-282
58
-113
-43
-18
-42
-77
-82
-49
-1
301
335
347
322
271
-11
293
150
251
515
176
338
308
341
378
135
143
172
199
182
376
309
268
-18
-72
110
39
-288
-131
-247
-566
-525
-174
-131
-185
-516
-253
-169
-368
-152
-241
-528
-215
-144
-146
-218
-547
-567
-546
-525
-523
-528
-530
-524
-520
-523
-523
-251
-214
-171
-144
-145
-160
-163
-133
-300
122
369
400
644
1046
1101
1118
898
993
1171
1414
1884
1699
1869
1498
1492
1810
1464
1295
593
-140
-713
-1378
-1445
-1684
-1762
-1902
-1413
-1164
-927
-679
-433
-248
-164
-165
-198
-239
-531
-549
-538
-244
-201
-156
-353
-291
-286
-368
-223
-246
-133
34
124
93
28
34
117
-65
-56
-77
-50
295
379
138
346
292
277
301
343
138
192
223
207
157
381
149
210
250
240
205
193
214
241
516
537
576
628
420
449
449
413
606
549
557
408
823
677
668
827
496
781
886
708
688
850
511
486
501
777
804
868
708
1037
1033
706
892
868
875
865
828
791
510
472
397
565
516
536
590
618
598
541
215
147
351
330
333
328
280
-64
107
64
63
67
45
-258
-296
-296
-267
-258
-314
-164
-254
-527
-224
-187
-227
-595
-458
-772
-496
-434
-633
-615
-386
-440
-494
-789
-809
-818
-820
-810
-790
-769
-500
-497
-498
-483
-448
-405
-629
-628
-408
-474
-799
-827
-775
-402
-546
-513
-564
-632
-392
-610
-573
-571
-580
-567
-545
-554
-601
-636
-607
-526
-196
-176
-210
-516
-549
-554
-538
-515
-243
-227
-199
-155
-374
-381
-171
-207
-190
-132
-347
-362
-159
-203
-211
-186
-149
-367
-341
-339
-364
-142
-164
-166
-155
-133
-344
-282
28
42
12
-287
-304
-280
27
74
76
20
-323
-381
-364
-295
15
9
-286
-301
-275
2
-282
-334
-340
-262
106
-98
104
-263
-336
-320
4
48
33
-268
-296
-299
-310
-352
-139
-139
-350
-308
-311
-336
-335
-298
-268
-278
-292
11
112
-92
83
-352
-228
-205
-321
62
88
34
-279
-292
-270
21
51
62
38
-274
-330
-357
-354
-333
-302
-258
46
63
30
-280
-313
-312
-308
-320
-322
-279
43
64
16
-297
-283
57
118
81
-280
-350
-328
-258
33
7
-286
-275
45
109
120
67
-266
-300
5
112
-51
-35
-85
117
114
-101
-58
-35
-22
-3
270
272
267
279
317
367
154
194
232
254
246
213
187
193
232
534
560
550
244
178
135
145
203
524
551
526
203
360
-22
105
11
-285
-296
-325
-141
-227
-533
-517
-198
-384
-337
-315
-323
-369
-186
-241
-235
-179
-135
-159
-241
-571
-587
-553
-255
-230
-218
-200
-162
-380
-381
-188
-538
-573
-240
-359
-285
-334
-159
-382
73
333
529
401
813
1050
1295
1169
1164
1153
1553
1879
1985
2201
2213
2368
2005
2122
1823
1300
394
48
-441
-1130
-1554
-1890
-1739
-1836
-1541
-1007
-1053
-865
-415
-520
-218
-527
-602
-624
-572
-239
-203
-226
-515
-240
-158
-330
-309
-355
-150
-137
-311
37
82
81
85
-115
-31
257
-73
65
40
-86
366
211
159
306
267
325
159
220
512
546
558
519
186
131
139
197
512
538
539
540
574
387
452
466
419
627
390
466
769
472
639
594
638
477
823
890
675
673
875
802
772
808
861
871
831
791
787
805
812
811
832
883
672
656
830
475
417
406
400
632
606
608
626
615
567
529
549
605
624
567
214
141
355
308
-19
-81
-94
-68
-54
-83
113
44
-276
-321
-323
-279
18
-265
-378
-513
-575
-525
-163
-353
-135
-252
-624
-419
-414
-399
-393
-628
-577
-539
-568
-393
-451
-440
-397
-391
-431
-469
-480
-494
-792
-817
-772
-418
-611
-631
-429
-445
-425
-432
-488
-785
-489
-393
-584
-599
-397
-414
-625
-553
-242
-209
-182
-156
-141
-151
-180
-207
-211
-189
-158
-147
-164
-199
-231
-242
-220
-158
-326
-260
-262
-331
-151
-174
-131
-323
-277
6
18
14
-265
-289
-289
-264
9
-261
-289
-302
-301
-309
-329
-327
-282
41
83
77
42
7
-279
-312
-336
-322
-261
66
89
44
-279
-297
23
122
-81
-115
53
-275
-296
-284
-278
-284
-280
3
27
15
-292
-350
-372
-338
-266
60
85
56
2
-287
-278
10
26
19
6
-262
-288
-340
-130
-369
-288
44
53
13
-257
31
41
-281
-366
-357
17
120
86
-309
-147
-368
-270
32
9
-268
7
26
-260
-314
-322
-268
53
74
41
-269
-310
-322
-304
-277
-272
-295
-315
-298
-262
-259
-315
-381
-381
-292
81
-115
112
35
-276
-268
47
110
-119
122
87
59
49
53
67
92
119
-124
120
85
39
-257
-270
5
45
79
89
83
79
81
79
65
57
80
-116
-50
-32
-88
76
27
69
-97
-59
-122
35
1
57
-120
-80
-66
-22
315
374
369
317
265
-17
-25
-14
282
342
381
377
365
142
239
611
435
462
447
403
590
513
214
230
529
548
519
216
198
222
254
518
248
232
225
208
155
314
-53
122
96
105
95
21
-356
-212
-521
-519
-245
-230
-193
-379
-317
-319
-135
-208
-216
-164
-371
-381
-190
-525
-578
-573
-251
-158
-347
-338
-364
-378
-364
-356
-373
-382
-329
39
-124
-118
87
77
-86
330
239
399
852
1105
1353
1248
1552
1615
1824
1935
2574
2547
2822
2457
2573
2390
2061
1274
864
-58
-391
-908
-1610
-1915
-1733
-1846
-1596
-1343
-1110
-881
-422
-559
-529
-534
-523
-251
-526
-571
-594
-565
-256
-217
-188
-147
-363
-349
-356
-349
-310
-259
39
79
-126
-97
115
13
-314
-280
89
-62
-17
-7
266
291
304
311
342
141
190
205
197
184
160
379
358
132
196
234
218
195
229
575
388
391
635
437
831
698
709
863
489
446
486
809
850
851
829
807
799
804
824
861
654
696
707
676
877
836
836
874
667
702
708
681
884
818
506
478
484
508
784
768
440
583
223
178
194
217
195
381
305
257
-20
-32
-31
-9
270
-4
-79
80
11
-265
-263
-269
-286
-294
-298
-337
-172
-528
-568
-523
-194
-174
-220
-528
-531
-253
-526
-587
-630
-606
-560
-577
-411
-502
-779
-493
-478
-486
-471
-417
-640
-432
-778
-804
-467
-609
-569
-612
-398
-639
-611
-639
-447
-443
-571
-145
-338
-173
-561
-587
-233
-381
-367
-173
-215
-187
-139
-137
-167
-163
-346
0
33
-264
-323
-343
-310
-259
37
65
86
100
94
60
8
-296
-310
-277
42
93
96
61
29
30
52
55
24
-270
-281
-262
8
-260
-290
-307
-286
23
79
96
37
-335
-172
-162
-316
40
59
9
-293
-302
-304
-329
-347
-315
12
56
26
-305
-365
-372
-331
-261
66
94
46
-315
-142
-139
-323
-268
-292
-357
-131
-359
-327
-350
-157
-175
-351
40
116
64
-319
-149
-376
-280
36
12
-307
-343
-338
-327
-335
-339
-307
11
52
40
-267
-312
-322
-309
-303
-311
-311
-277
38
78
61
8
-277
7
70
116
111
69
21
-272
-294
-299
-282
6
38
44
17
-293
-348
-371
-338
-265
60
79
51
15
2
13
30
50
74
90
76
28
-281
-304
-283
24
75
101
87
44
1
-268
8
37
58
69
68
46
2
-295
-292
20
88
118
96
57
38
42
50
47
41
50
80
110
108
60
-274
-337
-340
-276
73
127
104
26
-295
-283
59
-100
-60
-79
-105
-103
-95
-118
90
66
98
-105
-98
109
56
54
109
-68
263
332
136
172
176
154
379
360
369
155
206
218
172
367
375
230
632
461
464
461
779
875
643
800
395
567
593
402
407
578
202
133
164
523
628
414
633
548
201
373
286
-59
-122
114
109
71
-272
-367
-160
-146
-356
-324
-317
-322
-329
-343
-367
-132
-381
-338
-281
10
1
-301
-355
-379
-364
-333
-311
-313
-333
-363
-144
-170
-160
-366
-300
0
10
5
24
81
-79
314
242
474
731
979
1180
1565
1645
1505
1758
2410
2550
2749
2688
2493
2581
2431
2115
1239
401
-158
-1039
-1231
-1845
-2117
-1963
-2098
-1812
-1220
-918
-678
-503
-385
-565
-255
-215
-199
-217
-245
-242
-192
-381
-343
-344
-345
-313
2
40
23
-271
-262
75
-90
-77
99
9
-261
48
83
59
45
-127
292
144
356
-35
-103
-17
153
518
514
205
190
214
219
181
156
207
562
620
580
239
209
525
607
633
611
623
457
820
841
498
403
410
780
895
648
814
462
432
462
501
780
809
859
642
887
831
785
793
834
851
823
775
484
458
423
389
394
450
774
797
503
434
625
569
519
223
202
194
177
139
350
325
323
332
346
360
359
316
-37
101
14
-263
26
75
95
60
-281
-383
-188
-181
-136
-372
-151
-211
-248
-254
-520
-547
-566
-548
-516
-518
-565
-620
-392
-397
-397
-394
-628
-595
-591
-639
-452
-494
-488
-458
-432
-406
-624
-585
-566
-575
-596
-591
-540
-199
-378
-358
-154
-244
-563
-556
-245
-200
-211
-521
-569
-567
-520
-212
-180
-157
-368
-301
-259
-289
-376
-197
-202
-145
-339
-309
-301
-296
-297
-322
-352
-350
-298
21
30
-292
-376
-146
-338
29
114
126
83
43
48
81
88
36
-300
-341
-307
22
54
8
-336
-132
-361
-280
52
84
72
37
-262
-292
-292
-260
34
48
28
-263
-297
-324
-338
-320
-265
43
42
-273
-326
-318
-269
8
-283
-326
-313
9
71
76
24
-303
-347
-338
-282
38
50
-270
-365
-165
-146
-331
3
73
122
118
38
-339
-158
-131
-303
0
-301
-141
-211
-211
-148
-309
38
89
76
7
-327
-367
-372
-375
-131
-378
-328
-267
6
-285
-316
-290
38
85
70
22
0
18
35
13
-285
-290
17
85
102
56
-273
-311
-292
25
98
-106
-95
-127
80
58
86
-119
-98
-128
80
61
72
68
20
-292
-296
22
101
-121
118
94
91
98
102
119
-90
-44
-54
124
38
17
66
-120
-71
-44
-29
-37
-71
-100
-76
-3
313
320
301
314
352
350
274
-78
-96
-11
355
133
314
-55
-103
-27
135
536
579
518
178
154
200
250
246
201
173
200
251
521
217
146
367
128
160
162
368
284
-71
94
42
47
81
88
37
-303
-355
-350
-326
-326
-346
-343
-298
12
25
-271
-332
-373
-372
-337
-296
-286
-328
-142
-191
-191
-150
-352
-310
-296
-319
-371
-162
-171
-148
-377
-354
-318
-257
70
-121
-37
371
589
820
767
960
1155
1556
1587
1550
1598
1820
2109
1999
2167
1701
1512
1585
1010
476
82
-774
-999
-1656
-1737
-1939
-1923
-1704
-1644
-1330
-1045
-789
-584
-222
-226
-544
-584
-563
-251
-218
-231
-251
-233
-165
-341
-292
-288
-304
-310
-300
-279
6
48
101
-105
-73
-62
-64
-72
-82
-88
-81
-51
266
337
378
357
282
-43
-42
294
140
194
184
149
131
139
169
215
535
597
616
579
532
526
572
632
410
419
430
444
430
631
579
591
413
494
787
795
823
872
643
887
883
675
743
745
656
809
776
807
828
805
786
816
859
835
476
387
392
468
783
508
434
620
584
556
246
172
374
379
174
210
161
285
-92
-117
-55
-1
-29
-126
33
-275
-298
-317
-333
-334
-336
-359
-143
-182
-214
-253
-556
-580
-551
-236
-211
-517
-616
-444
-483
-497
-510
-776
-775
-776
-806
-854
-876
-838
-510
-471
-496
-799
-811
-795
-806
-864
-660
-881
-494
-616
-583
-403
-499
-769
-434
-599
-572
-604
-630
-617
-599
-610
-627
-590
-236
-157
-175
-529
-612
-613
-562
-519
-241
-212
-176
-171
-219
-531
-535
-234
-193
-181
-177
-156
-379
-353
-324
-274
37
60
40
10
-265
-299
-374
-199
-210
-378
-263
40
-262
-337
-366
-331
-268
39
59
51
31
11
-268
-310
-368
-150
-133
-333
-302
-338
-149
-179
-150
-361
-343
-334
-296
8
0
-337
-166
-167
-339
-258
9
-287
-315
-320
-347
-155
-207
-192
-384
-344
-367
-157
-164
-379
-334
-324
-337
-351
-350
-338
-334
-349
-375
-381
-338
20
-128
-83
-125
39
-292
-308
-274
25
50
53
39
17
-257
0
37
104
-84
-64
-122
26
-324
-345
-298
19
47
34
2
-286
-304
-294
-261
30
35
14
-257
10
19
-267
-318
-332
-276
62
95
54
-271
-309
-303
-287
-279
-265
25
62
62
9
-312
-317
25
-103
-33
-69
96
57
113
-69
-74
109
78
-92
291
316
-50
78
70
-80
274
284
-8
-1
315
367
370
359
132
191
224
192
364
281
-23
-26
261
310
364
154
167
373
-4
115
57
114
-62
-100
-287
-224
-521
-155
-302
-308
-379
-136
-332
-297
-360
-204
-224
-142
-305
-294
-360
-176
-205
-191
-166
-155
-170
-192
-185
-137
-340
-346
-160
-209
-151
-266
109
-115
-107
-8
209
448
873
742
922
1167
1599
1575
1159
1353
1551
1897
2106
1767
1517
1578
1217
1010
788
107
-801
-1008
-1562
-1533
-1704
-1754
-1904
-1417
-1371
-1039
-473
-526
-218
-526
-577
-564
-252
-212
-194
-171
-129
-352
-347
-360
-360
-335
-298
-263
23
48
67
78
97
-126
-87
-55
-41
-45
-61
-77
-70
-19
330
171
217
187
369
311
312
370
196
517
541
527
245
236
254
540
573
607
390
420
413
621
566
545
567
612
405
445
472
485
490
508
807
849
863
855
861
642
679
673
887
866
648
721
762
734
660
838
785
773
803
863
665
689
672
880
823
777
506
779
796
769
433
603
566
574
576
545
512
244
218
380
-26
114
110
-66
-5
-27
-120
38
-279
-300
-300
-302
-321
-354
-380
-129
-133
-174
-251
-573
-582
-552
-539
-576
-393
-464
-771
-799
-795
-503
-453
-430
-454
-508
-813
-825
-795
-481
-424
-404
-439
-500
-785
-491
-416
-627
-385
-416
-408
-614
-585
-633
-475
-784
-470
-593
-227
-213
-521
-560
-539
-222
-178
-180
-216
-254
-530
-527
-253
-231
-209
-176
-381
-327
-306
-344
-158
-200
-181
-129
-353
-348
-331
-292
-274
-315
-377
-377
-281
93
-126
61
-284
-315
-288
-262
-262
-258
25
53
34
-282
-335
-337
-296
10
33
17
-289
-349
-379
-347
-269
47
41
-264
-292
-273
3
-290
-372
-162
-366
0
60
6
-373
-203
-195
-136
-352
-356
-379
-138
-143
-141
-377
-315
27
92
95
43
-271
-292
-280
-260
7
19
50
87
96
55
-270
-314
-306
-272
7
13
20
28
12
-289
-320
-288
47
101
87
35
12
34
65
85
108
-106
-77
-105
73
-257
-287
-293
-303
-301
3
83
127
87
7
-280
36
-121
-70
-102
77
14
-264
12
61
114
-120
112
62
29
19
7
-278
-285
38
-102
-34
-81
61
-261
29
100
114
66
22
22
30
-257
-303
-296
35
108
113
63
35
71
-124
-97
-101
-73
283
149
205
163
335
290
313
369
157
176
177
163
144
142
181
513
586
621
623
609
577
518
196
169
204
525
557
532
233
216
225
235
240
512
535
254
139
-38
74
32
63
78
21
-330
-140
-151
-137
-383
-367
-326
-271
16
10
-259
4
21
14
-273
-285
0
38
27
-307
-143
-184
-156
-354
-306
-281
-278
-297
-336
-362
-338
-259
99
-58
301
185
635
856
1070
1013
1193
1594
1434
1509
1877
1787
1938
1984
2173
2082
1758
1875
1246
848
67
-850
-1010
-1236
-1662
-1821
-1900
-1808
-1544
-941
-879
-394
-250
-173
-157
-199
-525
-571
-555
-236
-157
-343
-296
-282
-311
-371
-157
-133
-300
57
116
127
125
-109
-57
-5
276
268
-6
-6
265
274
263
-2
281
347
154
177
163
148
155
180
215
519
579
633
407
411
396
627
599
599
408
784
877
870
775
432
431
502
821
824
782
480
457
459
486
798
877
702
761
1032
729
881
510
451
482
814
863
847
801
783
814
864
642
648
885
845
787
470
424
402
390
639
638
392
397
633
579
250
190
163
155
139
358
304
-12
-77
121
92
102
-128
-122
98
39
-271
-318
-367
-146
-133
-330
-293
-346
-225
-604
-385
-614
-600
-639
-433
-451
-449
-476
-786
-805
-493
-412
-389
-438
-492
-492
-469
-483
-781
-772
-423
-576
-563
-391
-474
-475
-429
-418
-456
-472
-426
-631
-394
-472
-771
-460
-601
-249
-207
-201
-203
-211
-217
-192
-380
-310
-309
-138
-254
-568
-536
-199
-141
-142
-185
-231
-245
-219
-180
-175
-219
-528
-518
-160
-279
49
0
-375
-199
-185
-368
-321
-345
-156
-217
-239
-214
-148
-313
20
44
2
-327
-134
-174
-193
-184
-131
-301
11
0
-297
-293
32
100
100
44
-257
-263
-270
-317
-374
-370
-296
39
61
38
19
23
19
-265
-282
-258
39
53
35
18
13
-257
-288
-292
30
-125
-86
95
-287
-345
-294
53
103
97
62
16
-294
-333
-321
8
89
-128
127
123
-127
121
91
69
84
111
99
36
-288
-313
-303
-296
-295
-270
43
93
89
45
23
58
119
-112
119
94
117
-96
-111
45
-330
-367
-299
52
74
4
-339
-369
-328
-257
62
110
-113
-115
97
36
-257
6
36
53
51
39
27
10
-276
-295
-266
78
-76
-38
-108
22
-312
-282
68
119
74
-262
-282
36
101
90
25
0
69
-75
-17
-47
-114
101
105
-126
-104
-75
-33
260
268
-12
-38
-29
291
132
218
253
239
215
217
249
543
573
607
397
437
425
605
513
217
245
551
567
540
239
200
168
150
170
228
532
252
139
-7
-118
86
59
24
-274
-310
-349
-152
-220
-252
-208
-380
-327
-343
-138
-159
-140
-132
-172
-226
-224
-154
-344
-361
-199
-545
-565
-525
-219
-191
-188
-211
-254
-539
-514
-176
-351
-324
-330
-287
110
300
209
607
799
1083
1379
1546
1550
1266
1641
1690
2034
2231
2243
2429
2354
1954
1860
1008
538
-152
-719
-1164
-1492
-1679
-1705
-1850
-1651
-1392
-1076
-476
-185
-288
-299
-165
-556
-625
-604
-526
-192
-143
-381
-383
-145
-171
-183
-152
-339
-275
4
-262
-266
11
41
70
114
-62
286
337
332
308
314
349
381
138
152
172
173
134
349
372
214
574
606
565
518
514
535
542
535
551
606
407
417
631
585
590
404
502
834
867
869
859
836
794
493
479
510
811
825
799
775
793
845
894
666
686
703
682
861
507
462
503
839
880
863
835
839
857
834
500
421
404
449
494
469
623
236
147
141
202
515
242
145
293
-12
-4
-5
-61
-121
-118
-62
-50
107
-304
-142
-381
-313
-282
-320
-137
-205
-247
-517
-514
-515
-535
-561
-564
-547
-553
-621
-459
-494
-435
-602
-577
-388
-483
-789
-783
-499
-478
-467
-465
-474
-488
-486
-465
-443
-431
-415
-630
-586
-597
-422
-770
-784
-448
-601
-548
-546
-551
-542
-544
-580
-624
-633
-592
-534
-252
-530
-573
-597
-562
-216
-377
-337
-373
-183
-210
-176
-381
-362
-370
-369
-334
-282
14
20
-272
-341
-149
-151
-321
49
87
1
-138
-202
-133
0
90
96
59
39
46
51
43
44
69
97
85
9
-348
-143
-354
7
82
76
31
23
68
90
23
-345
-134
-323
32
47
-292
-380
-133
-330
-267
31
69
107
109
53
-286
-333
-318
-272
16
14
-269
-297
-315
-321
-320
-319
-311
-276
45
93
62
-308
-152
-378
39
-58
-48
61
-364
-165
-356
-272
3
-287
-308
-290
-261
-262
-288
-306
-303
-297
-307
-326
-334
-325
-317
-325
-330
-299
27
92
93
23
-326
-378
-366
-324
-296
-294
-301
-295
-279
-269
-274
-278
3
70
-106
-65
-100
73
11
10
42
57
41
20
24
42
49
48
68
123
-68
-32
-43
-93
97
48
38
67
106
124
111
88
70
54
42
50
86
125
-121
119
116
-107
-62
-39
-32
259
338
153
150
331
259
256
325
161
229
519
528
518
243
238
527
596
402
397
558
164
324
322
143
227
519
513
514
550
591
581
247
139
309
-10
-97
16
-151
-526
-561
-541
-256
-230
-192
-144
-372
-133
-181
-219
-219
-189
-157
-145
-160
-198
-244
-526
-249
-185
-367
-332
-360
-166
-213
-207
-150
-331
-279
-269
-290
-320
-334
-318
-262
101
265
231
493
763
1011
1199
1565
1628
1478
1715
2322
2646
2527
2450
2275
2380
1961
1882
1284
523
-202
-1038
-1244
-1880
-2105
-2078
-1818
-1229
-967
-1044
-883
-461
-584
-517
-234
-213
-216
-524
-592
-597
-248
-383
-330
-372
-195
-241
-238
-213
-181
-380
-288
76
-101
-87
-123
84
53
53
83
127
-78
-38
-24
-36
-48
-29
279
341
137
170
185
173
383
329
311
349
159
213
246
532
569
600
624
409
488
834
876
838
497
433
429
470
774
805
812
811
820
839
856
862
874
662
733
1037
763
699
648
650
672
664
874
837
839
850
813
468
394
407
504
858
879
806
438
611
584
586
580
551
252
203
146
342
294
270
261
-4
-19
-33
-58
-107
82
33
31
61
75
45
-262
-308
-355
-168
-245
-533
-239
-178
-173
-244
-586
-622
-602
-569
-556
-552
-544
-554
-610
-440
-492
-468
-402
-629
-412
-484
-787
-799
-810
-833
-841
-799
-459
-389
-635
-427
-482
-493
-441
-610
-540
-532
-584
-640
-392
-599
-534
-236
-214
-190
-168
-177
-220
-254
-228
-150
-341
-336
-372
-137
-129
-129
-163
-201
-195
-134
-324
-300
-314
-322
-299
0
33
52
64
68
48
-269
-348
-139
-377
-311
7
31
30
37
54
44
-263
-304
-273
77
-120
78
-319
-160
-380
-259
82
73
19
-264
-257
-270
-323
-375
-378
-336
-300
-304
-339
-371
-131
-382
-355
-309
-262
12
-271
-325
-376
-148
-146
-369
-310
0
14
-282
-340
-368
-344
-293
-260
-268
-303
-344
-373
-129
-129
-371
-340
-294
7
26
5
-306
-356
-362
-321
-261
30
17
-285
-326
-336
-312
-270
30
73
107
112
73
13
-275
8
73
124
124
90
59
44
32
25
48
107
-92
-97
84
-261
-298
-282
-258
-262
-278
-265
35
68
61
29
27
77
-104
-58
-75
116
47
10
23
65
103
116
110
109
-125
-88
-56
-45
-44
-21
300
379
152
347
-24
-95
-47
345
209
234
177
377
378
178
512
584
632
627
554
182
346
330
376
177
205
204
199
197
187
162
134
380
382
366
297
-84
31
-326
-359
-343
-330
-349
-380
-382
-352
-334
-365
-170
-198
-158
-339
-303
-347
-179
-235
-208
-379
-300
-273
-290
-304
-280
16
17
-291
-350
-347
-278
32
1
-351
-145
-321
117
313
230
421
671
955
1194
1596
1426
1792
1734
2022
2582
2526
2545
2679
2273
2398
2174
1438
675
53
-717
-1542
-1696
-1991
-2379
-2027
-1749
-1425
-1408
-918
-670
-422
-247
-196
-239
-557
-590
-593
-586
-568
-535
-227
-157
-343
-309
-334
-138
-163
-345
62
-58
-23
-87
86
49
53
54
31
21
67
-99
-17
272
266
263
289
337
136
186
214
202
152
357
358
176
533
589
574
528
252
527
556
572
589
637
454
769
785
769
500
770
805
844
871
880
864
827
797
797
832
887
673
679
644
843
790
771
805
872
667
663
867
810
781
769
482
431
401
429
485
500
445
622
591
619
394
634
573
244
174
352
275
-16
267
319
336
298
-23
-81
122
63
11
-265
9
26
-263
-349
-189
-248
-250
-223
-204
-215
-256
-571
-638
-443
-476
-471
-431
-640
-614
-626
-419
-484
-786
-785
-489
-456
-475
-794
-846
-847
-813
-785
-771
-481
-407
-593
-582
-636
-435
-434
-386
-592
-569
-563
-565
-587
-633
-413
-393
-574
-245
-233
-530
-563
-536
-217
-177
-176
-168
-368
-295
-276
-333
-149
-162
-369
-320
-316
-332
-329
-309
-305
-320
-313
0
83
-117
-118
93
36
-269
-307
-329
-336
-333
-324
-313
-306
-309
-323
-327
-297
26
100
-126
89
-264
-368
-174
-170
-369
-308
-290
-325
-133
-185
-198
-164
-360
-303
-277
-290
-321
-340
-329
-293
7
43
62
58
24
-298
-129
-207
-245
-233
-195
-174
-195
-233
-243
-205
-146
-359
-342
-330
-310
-304
-331
-367
-366
-320
-277
-279
-302
-278
49
86
19
-361
-152
-323
63
91
-268
-142
-183
-382
-291
43
109
-105
-125
44
-295
-291
46
109
86
13
-285
-269
20
26
17
37
103
-63
271
293
-20
-125
58
90
-42
331
352
285
-41
-37
305
169
518
542
244
181
144
136
373
316
260
271
349
166
176
157
180
236
245
160
299
-4
274
-5
100
-378
-256
-214
-328
12
-292
-150
-216
-193
-145
-144
-183
-196
-158
-370
-134
-214
-538
-529
-202
-142
-136
-176
-226
-517
-531
-517
-218
-159
-367
-346
-353
-367
-370
-360
-335
-274
107
303
525
456
848
728
925
1161
1586
1619
1590
1643
1828
1764
2051
1902
1453
1580
1179
1079
172
-630
-1325
-1507
-1730
-2103
-2157
-2109
-1670
-1644
-1343
-1061
-791
-546
-378
-336
-145
-228
-253
-213
-149
-341
-272
56
103
104
67
21
-262
1
45
120
-61
-31
-57
-108
115
124
-79
266
370
188
188
382
331
353
178
248
515
213
147
347
329
374
221
576
598
538
216
217
528
565
550
519
529
579
625
387
385
637
384
401
441
501
799
780
462
418
433
485
781
794
809
841
862
834
784
779
845
676
715
696
665
656
654
886
858
873
678
719
672
807
439
403
428
452
430
622
547
233
206
204
208
197
178
182
218
241
188
313
-71
-113
-77
-59
126
-258
-354
-130
-146
-196
-255
-254
-180
-359
-366
-210
-583
-640
-629
-599
-590
-606
-639
-426
-474
-511
-778
-506
-470
-424
-389
-389
-441
-775
-816
-770
-407
-580
-594
-440
-802
-836
-794
-479
-461
-485
-508
-492
-447
-406
-385
-621
-578
-518
-217
-207
-229
-520
-559
-591
-597
-564
-249
-195
-176
-193
-220
-228
-213
-186
-163
-151
-141
-129
-376
-129
-149
-147
-342
28
-123
-94
101
9
-298
-276
52
120
-108
118
40
-305
-356
-347
-310
-297
-321
-341
-317
-262
22
5
-257
58
-98
-51
-116
12
-328
-319
-263
15
-267
-297
-298
-285
-293
-324
-350
-348
-327
-297
3
48
59
5
-342
-136
-347
11
68
18
-350
-159
-379
-289
19
6
-272
8
61
73
3
-356
-143
-339
32
110
107
45
-274
-295
-268
50
-127
-57
-25
-40
-84
-126
117
-109
-47
271
288
-18
-101
122
-68
311
132
370
318
326
157
240
234
167
140
217
592
633
559
191
133
142
165
164
162
187
218
205
141
326
291
276
-22
-107
48
-296
-374
-196
-254
-253
-196
-383
-340
-322
-306
-304
-339
-145
-173
-375
-286
-270
-376
-525
-586
-514
-137
-329
-338
-359
-351
-351
-138
-198
-207
-148
-339
-322
-326
-275
118
285
168
553
482
744
999
1379
1333
970
995
1246
1881
2172
1986
2158
2072
1759
1836
1368
392
-360
-691
-1366
-1462
-1769
-2171
-2057
-1474
-1340
-748
-485
-548
-197
-215
-555
-616
-617
-594
-589
-585
-524
-141
-271
40
26
7
35
98
-115
126
72
39
76
-89
-10
257
-58
-125
115
-95
-20
310
381
188
219
192
128
342
362
157
181
172
178
238
566
568
230
151
173
555
437
496
469
424
411
435
475
510
788
796
785
503
470
447
461
785
890
718
721
894
804
792
869
702
712
893
815
815
886
691
685
890
871
658
717
720
650
811
497
489
498
492
468
429
628
547
198
132
380
163
197
181
372
304
270
259
-14
-44
-66
-69
-93
79
-300
-383
-380
-327
-299
-320
-346
-355
-383
-213
-586
-391
-611
-529
-236
-535
-613
-412
-427
-420
-403
-624
-592
-603
-419
-505
-788
-483
-422
-427
-492
-797
-781
-488
-501
-821
-852
-784
-403
-570
-561
-585
-585
-578
-599
-638
-638
-575
-256
-520
-586
-628
-598
-529
-224
-198
-168
-132
-133
-189
-249
-247
-184
-380
-368
-135
-158
-184
-232
-535
-523
-191
-378
-131
-193
-212
-150
-338
-350
-168
-185
-335
65
109
18
-347
-349
16
121
125
40
-307
-343
-341
-357
-148
-178
-143
-312
8
-263
-337
-141
-136
-340
-284
14
45
56
27
-284
-306
7
109
-91
120
17
-307
-300
-261
10
-257
-257
45
105
120
74
13
3
59
120
119
47
-291
-320
-297
-282
-311
-346
-324
24
118
-107
113
62
49
80
-124
-76
-56
-80
115
60
58
110
-83
-45
-31
-26
-29
-58
-106
-117
-61
282
330
308
-3
-40
-52
-52
-37
266
340
145
163
165
187
230
249
228
209
234
536
529
184
327
283
337
165
193
145
319
-6
-62
127
37
-305
-358
-376
-138
-183
-248
-552
-539
-207
-368
-315
-330
-384
-170
-178
-171
-180
-201
-202
-165
-380
-133
-200
-526
-528
-196
-357
-317
-345
-140
-161
-147
-378
-367
-372
-371
-336
8
-108
312
219
397
886
931
1220
1626
1600
1272
1611
1916
2026
2218
2423
2013
2155
1772
1437
1055
261
-438
-910
-1207
-1439
-1875
-1679
-1828
-1573
-980
-881
-577
-149
-142
-249
-619
-404
-625
-555
-230
-177
-146
-137
-138
-130
-373
-376
-137
-139
-355
-292
1
-267
-277
34
-105
256
280
-26
-82
-87
-43
278
340
130
146
129
356
350
375
151
167
175
196
222
232
233
518
591
415
456
468
498
815
847
786
398
556
573
423
780
807
771
469
458
500
844
693
1024
1033
731
689
694
734
767
1027
767
1038
1056
1039
725
664
647
672
698
701
682
648
855
794
500
511
803
816
788
498
484
464
400
577
545
582
611
551
148
261
-67
-80
-83
-91
-79
-51
-45
-81
113
56
11
-291
-330
-350
-372
-189
-576
-437
-451
-613
-247
-221
-540
-612
-627
-602
-601
-393
-441
-428
-622
-578
-604
-428
-504
-783
-502
-459
-424
-419
-454
-775
-819
-788
-431
-583
-547
-589
-392
-405
-626
-587
-572
-573
-563
-526
-222
-186
-181
-204
-227
-213
-160
-359
-347
-381
-162
-166
-158
-182
-225
-226
-156
-320
-293
-352
-166
-158
-318
49
104
94
48
-268
-331
-373
-361
-293
32
40
-269
-330
-355
-350
-338
-317
-266
62
99
59
-286
-349
-334
-265
56
77
52
-267
-355
-182
-215
-171
-346
-300
-327
-138
-174
-155
-371
-351
-349
-332
-286
11
3
-312
-380
-162
-163
-137
-353
-315
-305
-337
-133
-155
-374
-320
-305
-344
-140
-161
-161
-175
-202
-206
-161
-348
-299
-279
-265
7
-261
-322
-139
-150
-328
28
48
-300
-160
-178
-315
109
-66
124
-286
-145
-146
-318
16
35
23
35
80
117
110
80
72
92
102
78
43
33
38
12
-306
-340
-284
95
-65
-69
110
54
78
-97
-21
268
269
-4
-41
-93
126
-113
-46
291
352
137
186
235
246
203
156
181
539
634
622
252
152
166
540
399
421
617
548
520
515
219
379
263
-77
-108
-112
126
74
9
-291
-296
-280
-266
0
1
-284
-364
-220
-554
-543
-204
-384
-373
-152
-171
-156
-141
-156
-181
-164
-360
-323
-370
-224
-557
-521
-143
-299
-296
-369
-164
-139
-333
-298
-273
87
323
628
885
1046
922
1364
1587
1502
1848
1691
2159
2207
2458
2528
2687
2270
2340
1784
1264
789
-262
-702
-1229
-1843
-1773
-1763
-1831
-1566
-1324
-1130
-677
-452
-255
-163
-187
-513
-557
-568
-576
-589
-570
-239
-136
-318
-321
-136
-217
-231
-142
13
-113
-73
-111
98
84
86
78
81
-119
-11
338
359
326
301
309
321
312
312
349
139
140
344
300
334
187
556
604
586
554
552
580
612
626
621
612
618
386
402
385
599
582
388
774
646
707
694
654
895
651
662
646
871
851
843
826
784
486
494
837
708
1049
1032
682
851
821
830
820
770
459
447
473
487
446
619
551
539
577
618
601
248
362
-3
-17
312
139
155
350
267
-47
-80
-106
123
109
107
95
49
-277
-345
-137
-167
-183
-183
-168
-167
-197
-256
-566
-591
-592
-585
-583
-592
-623
-426
-497
-800
-802
-774
-483
-449
-422
-422
-469
-793
-816
-499
-402
-613
-395
-456
-467
-437
-424
-446
-449
-637
-547
-532
-608
-426
-400
-542
-185
-162
-187
-198
-187
-190
-224
-517
-523
-245
-202
-148
-351
-334
-377
-185
-197
-133
-308
-287
-338
-143
-166
-155
-140
-131
-358
-304
-259
-266
-336
-166
-196
-149
-318
5
23
14
14
14
-277
-340
-367
-315
27
43
-298
-146
-163
-343
-262
13
-265
-274
-267
-285
-345
-149
-158
-383
-355
-352
-353
-339
-335
-370
-170
-185
-375
-273
32
-277
-135
-216
-207
-380
-292
-258
-285
-336
-358
-338
-309
-309
-339
-356
-329
-290
-299
-373
-190
-190
-380
-334
-364
-179
-209
-182
-158
-182
-226
-218
-140
-298
18
30
21
13
3
-269
-280
-271
0
-264
-319
-160
-244
-249
-153
-263
103
119
64
0
-279
5
61
110
123
88
25
-281
-294
-279
-262
6
21
34
16
-297
-356
-365
-312
14
56
68
77
91
90
63
27
13
28
49
51
23
-269
-282
3
56
95
98
94
119
-97
-106
52
-329
-371
-293
75
103
31
-292
-257
117
-45
-33
-57
-42
269
287
-38
113
74
-108
274
358
359
307
272
293
365
194
519
567
607
390
410
385
573
254
239
522
541
521
226
209
208
194
168
173
223
251
163
-43
2
-356
-347
-319
-333
-357
-340
-291
-275
-315
-354
-327
1
33
-275
-362
-148
-129
-364
-133
-177
-176
-379
-338
-367
-191
-247
-228
-161
-360
-338
-343
-361
-129
-143
-370
-296
38
69
49
35
80
-80
274
372
526
791
1126
1404
1264
1266
1578
1823
1960
2569
2473
2447
2603
2227
2015
1866
1020
627
31
-494
-979
-1663
-1697
-1782
-1682
-1468
-1204
-918
-648
-451
-618
-612
-631
-639
-634
-617
-581
-530
-239
-244
-524
-515
-199
-132
-362
-377
-133
-365
-321
-287
2
61
-112
-57
-78
107
61
96
-63
285
328
334
331
333
336
346
379
187
512
547
534
251
251
543
585
612
636
434
772
830
815
476
392
633
438
771
800
774
485
489
781
813
830
854
648
695
690
884
819
810
856
646
645
862
827
817
812
788
500
500
809
888
676
646
816
480
461
498
791
771
434
592
520
220
177
380
342
346
382
145
363
269
-77
-103
-59
-4
-9
-83
78
11
-289
-336
-384
-132
-332
-269
-270
-334
-129
-373
-334
-346
-169
-245
-515
-244
-539
-399
-771
-796
-471
-638
-600
-607
-613
-600
-597
-618
-628
-591
-516
-213
-253
-622
-478
-776
-479
-401
-603
-607
-400
-455
-466
-418
-600
-550
-534
-527
-249
-225
-229
-518
-537
-250
-184
-380
-349
-342
-352
-384
-172
-186
-137
-301
14
-269
-351
-157
-154
-370
-353
-372
-130
-369
-348
-376
-193
-245
-217
-131
-319
-313
-337
-342
-333
-351
-135
-133
-304
67
104
18
-368
-172
-383
-301
-268
-300
-352
-378
-378
-373
-366
-350
-320
-282
8
15
-273
-340
-150
-172
-134
-323
-286
-315
-137
-206
-208
-140
-305
2
-260
-291
-300
-274
0
-293
-374
-178
-165
-351
-301
-316
-363
-377
-333
-271
22
42
69
82
33
-335
-169
-156
-315
24
29
-264
-271
19
39
15
-257
52
-102
-48
-96
67
31
77
-123
-127
85
64
83
83
14
-332
-340
22
-103
-66
118
37
32
73
79
35
9
51
112
114
54
6
20
62
71
53
65
115
-122
69
-293
-346
-310
7
29
23
39
84
104
64
10
24
120
-33
-14
-98
38
-293
-291
20
84
123
122
86
33
-262
-264
30
88
-121
-106
-124
97
65
59
83
120
-114
-117
123
114
115
-123
-69
291
161
245
243
180
375
356
361
364
375
162
225
513
239
214
243
582
410
439
423
401
398
393
611
546
237
231
527
573
590
574
547
524
250
236
233
232
191
330
-105
-272
-353
-336
-284
-266
-292
-326
-330
-309
-294
-317
-374
-161
-147
-344
-301
-330
-151
-192
-148
-314
-268
-306
-136
-208
-244
-519
-528
-251
-190
-375
-346
-379
-181
-210
-180
-366
-312
-298
-297
15
-94
365
566
488
689
940
1183
1577
1601
1638
1829
2170
2256
2447
2467
2643
2231
1932
1418
724
-13
-409
-929
-1592
-1895
-2058
-1783
-1841
-1274
-944
-657
-427
-254
-150
-155
-528
-420
-478
-389
-219
-358
-367
-193
-234
-173
-318
15
35
41
73
120
-120
116
103
-119
-53
-9
-19
-56
-75
-61
-25
278
338
150
181
139
306
-6
285
383
213
249
521
552
577
552
236
215
537
391
453
426
615
589
628
435
473
480
493
803
882
672
884
772
432
461
839
678
648
781
426
425
494
815
842
849
854
850
834
814
799
792
796
816
845
846
791
444
635
629
388
628
579
542
536
522
208
137
374
165
212
185
338
-32
-106
111
78
48
45
72
95
84
48
23
33
66
88
78
31
-297
-372
-172
-201
-213
-222
-225
-204
-163
-140
-174
-518
-592
-592
-530
-228
-517
-621
-479
-800
-806
-772
-468
-419
-635
-612
-609
-621
-635
-385
-634
-623
-620
-386
-428
-467
-489
-485
-448
-630
-533
-211
-231
-586
-420
-416
-574
-223
-212
-521
-546
-231
-136
-354
-141
-201
-205
-154
-367
-381
-178
-216
-215
-187
-156
-379
-341
-316
-326
-370
-151
-147
-364
-321
-290
-269
0
-270
-312
-343
-321
2
60
63
33
23
38
32
-275
-329
-322
5
57
16
-357
-196
-189
-348
14
70
70
49
28
10
-264
-270
10
55
89
76
15
-314
-353
-343
-305
-270
8
25
39
35
1
-298
-302
14
103
-115
80
-293
-371
-350
-267
53
63
49
48
56
38
-266
-302
-290
13
53
58
41
32
42
47
28
-265
-290
-281
4
13
-279
-327
-331
-271
67
112
97
54
28
26
28
19
13
35
90
-113
-116
63
-304
-372
-347
-258
60
34
-302
-345
-309
7
16
-283
-299
17
88
67
-317
-187
-188
-315
86
-116
103
56
55
99
-111
-82
-70
-69
-77
-94
-127
78
26
5
38
106
-100
-107
99
53
44
72
115
-99
-68
-56
-65
-83
-94
-86
-74
-73
-86
-97
-93
-76
-72
-93
-113
-87
-2
362
174
174
380
316
270
275
339
172
226
202
139
372
165
246
564
607
407
460
450
619
528
253
549
565
251
165
377
383
136
368
333
338
136
184
156
282
99
-305
-357
-332
-292
-286
-309
-337
-360
-132
-158
-154
-365
-316
-319
-382
-203
-247
-243
-203
-136
-312
-259
-285
-130
-228
-232
-136
-280
12
-279
-307
-268
63
93
45
-286
-317
-270
83
-58
324
226
434
688
977
1268
1505
1900
1711
2059
2009
2566
2836
2699
2908
2511
2565
1975
1414
644
78
-877
-1383
-1475
-1708
-2065
-1753
-1811
-1266
-935
-854
-563
-382
-339
-148
-246
-583
-628
-628
-571
-214
-129
-384
-212
-559
-563
-206
-329
-258
-278
-320
-310
6
46
28
-259
30
127
-55
-68
-125
-124
-31
325
343
296
270
300
325
286
-35
-27
336
211
531
520
248
535
592
624
617
601
605
623
626
605
573
558
584
396
493
830
855
813
490
466
771
856
653
641
851
828
848
875
870
835
815
849
661
694
895
781
454
498
878
714
691
836
478
439
426
388
582
548
561
560
225
350
265
293
139
211
192
364
283
-23
-63
-119
71
20
-260
-268
-280
-309
-354
-144
-161
-132
-331
-293
-312
-377
-190
-237
-531
-575
-604
-589
-549
-548
-621
-471
-780
-488
-410
-613
-610
-639
-419
-457
-494
-776
-781
-771
-499
-488
-491
-770
-809
-837
-824
-776
-470
-448
-452
-455
-449
-444
-440
-414
-603
-522
-226
-251
-560
-583
-552
-234
-179
-144
-380
-367
-370
-129
-140
-130
-349
-301
-268
-265
-288
-314
-316
-287
10
44
68
95
117
106
52
-267
-285
3
41
37
-265
-311
-331
-336
-345
-342
-297
46
-120
-82
-123
33
-323
-360
-314
26
79
57
-273
-335
-345
-301
21
69
70
11
-342
-165
-179
-134
-333
-306
-303
-298
-282
-274
-285
-302
-307
-296
-280
-265
1
1
-284
-341
-145
-166
-377
-289
34
25
-303
-370
-361
-273
73
98
60
4
-298
-343
-138
-161
-383
-313
-272
-290
-334
-350
-328
-311
-321
-339
-326
-275
28
28
-278
-333
-328
17
-121
-65
-109
55
10
42
90
77
21
7
78
-90
-84
84
-262
-275
28
59
37
-261
-280
-282
-303
-335
-316
37
-101
-59
-123
31
-274
6
51
78
103
-108
-69
-82
114
73
94
-127
104
15
-315
-319
-292
-303
-345
-340
16
-98
-6
256
-42
-85
-118
119
-112
-27
329
356
283
-75
-108
-54
282
326
327
305
275
-3
272
354
211
544
556
542
548
552
243
134
307
325
157
218
200
156
164
232
549
562
553
576
630
393
568
136
-54
90
84
121
112
23
-339
-369
-301
52
93
76
60
77
85
20
-362
-211
-225
-162
-345
-307
-303
-308
-317
-331
-334
-305
1
30
9
-293
-318
-307
-277
2
30
95
-54
328
195
580
488
706
975
1245
1432
1487
1461
1480
1900
2157
2341
2335
1935
1785
1908
1649
1122
373
-629
-924
-1267
-1521
-1758
-2176
-2166
-1707
-1640
-1294
-737
-505
-600
-246
-198
-191
-222
-527
-543
-225
-359
-273
-299
-155
-248
-239
-130
-260
67
75
60
50
54
70
94
115
125
126
-119
-85
-41
-5
286
348
182
519
542
243
172
380
381
163
216
524
561
566
535
236
229
546
390
463
467
418
629
627
397
412
408
414
449
494
769
490
452
439
471
794
868
658
648
844
780
769
826
648
687
667
873
826
788
504
496
504
502
464
405
631
390
402
617
552
543
618
444
431
569
188
142
158
158
362
298
269
258
-40
-121
64
56
103
-106
-109
91
6
-334
-146
-185
-192
-181
-178
-213
-536
-598
-616
-590
-557
-556
-584
-616
-638
-402
-425
-431
-408
-634
-622
-614
-568
-238
-211
-547
-422
-477
-402
-544
-525
-631
-770
-833
-797
-456
-633
-582
-565
-583
-621
-390
-640
-614
-594
-582
-564
-540
-532
-551
-576
-575
-538
-224
-177
-164
-186
-231
-529
-540
-514
-214
-170
-381
-334
-300
-299
-325
-345
-328
-294
-284
-305
-325
-328
-336
-378
-167
-139
-267
-118
-64
112
-275
-352
-341
-287
16
31
6
-322
-142
-159
-347
5
46
12
-297
-309
-293
-298
-337
-371
-354
-286
44
75
53
5
-276
-259
31
30
-276
-330
-342
-327
-341
-140
-168
-364
12
98
92
19
-309
-348
-355
-340
-297
17
52
48
25
17
33
67
107
-111
-104
99
2
-326
-324
-276
8
-263
-272
26
84
75
-274
-364
-352
14
121
-120
75
20
11
30
43
52
70
96
107
93
62
27
6
23
98
-55
-5
-63
62
-289
-275
66
126
118
75
44
33
19
1
0
29
70
106
-121
-86
-47
-23
-20
-18
265
316
356
345
275
-67
-99
-33
361
232
532
234
175
170
220
521
244
150
305
271
317
380
128
327
281
318
163
233
206
370
295
272
261
-41
-106
119
-127
127
61
-309
-144
-157
-348
10
87
81
-282
-167
-224
-145
-267
44
-271
-346
-333
-264
6
-319
-377
-328
40
78
-268
-138
-180
-384
-321
-297
-262
100
-2
383
204
556
489
758
1014
1176
1231
1219
1196
1206
1272
1624
1428
1646
1248
1296
1047
471
289
-254
-1069
-1541
-1868
-2052
-2122
-2101
-1732
-1521
-1217
-1112
-511
-519
-149
-143
-189
-235
-252
-232
-182
-384
-354
-350
-350
-328
-288
8
51
114
-72
-33
-53
-99
-107
-53
278
319
305
265
-23
-30
-12
288
349
149
179
188
192
197
205
229
542
630
443
442
635
574
560
570
558
532
552
635
455
438
592
512
543
396
474
468
431
444
769
826
829
815
848
677
747
745
689
889
869
870
862
847
857
644
680
659
831
494
502
873
757
1061
720
839
775
816
876
858
774
468
769
842
822
421
515
209
542
426
164
-42
101
119
-55
257
-14
-83
94
39
12
3
-260
-280
-308
-327
-332
-349
-155
-251
-573
-563
-251
-222
-256
-565
-586
-591
-634
-458
-510
-475
-405
-401
-480
-810
-789
-442
-629
-630
-390
-621
-585
-614
-460
-810
-814
-476
-390
-614
-625
-633
-619
-596
-577
-557
-536
-519
-250
-239
-223
-208
-202
-193
-168
-130
-356
-362
-149
-200
-215
-180
-373
-323
-309
-319
-326
-329
-345
-375
-132
-348
-265
61
61
0
-321
-331
-286
13
8
-288
-317
-314
-319
-371
-183
-198
-134
-304
-278
-316
-355
-358
-298
-334
-306
21
96
99
9
-355
-140
-370
-330
-305
-274
25
35
-272
-334
-336
-278
15
-282
-365
-153
-130
-347
-340
-350
-333
-276
44
73
51
-265
-332
-379
-139
-377
-332
-286
-270
-304
-374
-171
-152
-313
56
119
109
56
0
-292
-294
-259
47
74
52
6
-269
11
44
48
38
63
121
-110
78
-310
-144
-365
20
-118
-87
-123
103
115
-119
127
97
94
125
-118
87
5
-281
25
91
99
63
58
119
-71
-87
67
-284
-287
54
-117
-109
75
-266
-294
5
75
121
-120
-95
-45
-4
-22
-95
114
-98
275
371
371
293
-37
-34
303
150
215
226
210
208
223
228
200
165
162
192
216
194
142
369
133
182
224
249
513
243
193
373
301
259
-31
-79
-122
127
-108
-121
45
-333
-132
-330
28
70
24
-300
-317
-282
0
-270
-294
-294
-288
-327
-165
-253
-525
-207
-382
-327
-294
-257
42
58
24
-301
-356
-361
-323
-276
10
37
107
258
232
503
1029
1280
1221
1566
1536
1230
1565
1825
2127
2008
2174
1739
1867
1487
1182
865
-95
-453
-1145
-1224
-1796
-2049
-2118
-1703
-1647
-1301
-733
-477
-551
-202
-186
-200
-204
-195
-189
-200
-220
-234
-242
-246
-227
-173
-356
-294
-266
-261
10
43
66
68
69
106
-86
-57
-102
86
105
-3
189
540
239
136
340
353
372
360
352
135
205
513
521
251
242
242
250
541
608
407
397
588
535
548
605
398
430
476
786
803
771
488
781
858
641
873
845
862
884
845
770
506
864
738
1034
711
887
872
892
878
829
809
848
640
880
804
487
496
804
835
816
774
477
433
619
535
223
222
254
527
230
152
344
323
325
307
257
-50
-80
-107
88
-257
-326
-344
-343
-368
-157
-174
-143
-383
-194
-567
-622
-544
-146
-335
-154
-559
-410
-419
-621
-564
-547
-578
-391
-475
-801
-822
-789
-466
-396
-607
-602
-625
-386
-630
-601
-588
-599
-598
-559
-516
-533
-618
-431
-389
-243
-369
-361
-204
-549
-545
-215
-156
-162
-204
-223
-196
-146
-369
-378
-162
-200
-197
-142
-316
-264
-294
-139
-237
-247
-152
-280
44
18
-306
-338
-307
9
45
42
25
19
25
28
7
-289
-318
-306
7
72
91
40
-299
-351
-337
-286
9
25
40
52
31
-301
-136
-156
-338
15
44
-259
-309
-312
-293
-303
-333
-325
-266
28
-287
-164
-518
-244
-141
-298
-259
-269
-284
-276
5
26
24
-259
-291
-305
-298
-289
-300
-325
-326
-284
43
118
-94
-100
100
24
-283
-277
22
52
53
46
55
66
53
32
44
101
-100
-112
60
-291
-335
-324
-293
-260
36
75
89
59
9
-267
20
79
-123
-96
-99
-127
82
36
17
30
62
92
113
123
116
85
47
35
66
119
-108
-123
88
38
3
-272
-267
26
91
-113
-121
62
-278
-300
29
-100
-6
256
-63
-123
123
-104
-78
-81
-102
-119
125
111
103
117
-103
-55
-12
282
313
318
289
-7
-19
270
323
363
139
188
251
535
246
196
212
573
435
461
628
516
228
561
413
466
444
392
613
595
564
251
197
171
163
134
322
-21
-95
112
71
29
-259
-264
14
34
20
-290
-352
-376
-341
-283
-261
-300
-361
-131
-372
-358
-376
-137
-360
-283
21
-274
-376
-195
-183
-357
-271
20
-258
-300
-324
-313
-264
73
-68
347
548
507
700
1115
993
1365
1214
1590
1509
1741
1963
2335
2317
1984
1921
2091
1845
1338
622
-383
-753
-1196
-1476
-1880
-1907
-1820
-1642
-1408
-897
-649
-434
-526
-174
-160
-222
-574
-387
-639
-575
-244
-196
-165
-384
-351
-361
-155
-184
-133
-261
-126
-48
-31
-37
-50
-79
-114
-116
-64
262
289
257
-41
-38
266
327
132
213
570
636
611
249
154
156
253
616
391
590
253
220
518
601
409
426
425
439
461
453
406
615
614
398
434
446
460
506
815
829
807
817
640
738
757
664
779
433
430
486
800
830
832
824
822
834
849
845
834
849
883
880
785
631
528
540
614
634
563
215
173
165
129
321
288
322
363
331
-23
-99
-102
-76
-101
83
46
96
-91
-115
-258
-168
-236
-196
-143
-152
-199
-221
-210
-219
-532
-580
-548
-186
-359
-381
-232
-594
-385
-629
-590
-557
-550
-578
-628
-408
-405
-640
-637
-392
-632
-565
-245
-252
-578
-629
-601
-530
-245
-531
-558
-527
-215
-218
-544
-595
-551
-186
-373
-154
-252
-579
-583
-545
-240
-181
-365
-312
-318
-381
-190
-196
-144
-338
-316
-353
-161
-203
-193
-139
-337
-309
-314
-323
-319
-305
-305
-326
-357
-377
-364
-321
-281
-280
-326
-135
-166
-144
-341
-268
51
69
7
-374
-219
-209
-352
2
-270
-373
-194
-174
-356
-309
-315
-328
-318
-303
-306
-318
-322
-315
-307
-289
16
84
121
93
21
-290
-295
-273
-270
-294
-319
-319
-304
-301
-315
-312
-258
86
-107
-123
47
-300
-347
-355
-353
-352
-335
-296
-261
0
-270
-268
26
71
83
61
35
26
19
-262
-294
-298
-263
44
66
39
-279
-342
-372
-353
-286
62
-109
-72
-103
69
-275
-307
-270
50
74
18
-338
-150
-136
-313
28
67
52
8
-290
-308
-299
-274
7
18
19
26
40
44
14
-306
-363
-367
-304
44
107
104
50
-260
-263
49
-128
-78
-86
123
81
73
95
119
-117
-75
257
336
357
304
-22
-28
316
187
530
537
231
179
164
199
531
620
429
444
418
639
617
605
589
567
553
550
545
521
237
236
521
553
560
550
546
534
214
337
-78
74
57
80
71
11
-315
-352
-352
-336
-312
-272
31
50
10
-333
-167
-225
-243
-226
-189
-157
-168
-237
-578
-601
-526
-144
-316
-327
-140
-180
-147
-333
-298
-322
-362
-347
4
126
-38
270
351
542
849
932
1181
1279
1539
1582
1505
2052
2326
2217
2237
2210
2415
1993
1844
948
234
-384
-872
-1303
-1455
-1755
-2094
-1708
-1473
-1234
-991
-710
-415
-204
-146
-210
-542
-546
-213
-376
-336
-359
-152
-187
-195
-190
-182
-154
-346
-270
29
29
25
65
-113
-46
-23
-27
-26
-11
257
268
305
374
185
204
172
381
358
370
167
254
599
386
621
573
550
560
559
529
520
572
401
440
408
630
408
487
790
779
501
506
505
459
396
392
455
768
770
500
789
854
864
793
468
494
853
676
667
865
819
792
508
491
778
850
883
815
439
634
417
485
480
400
603
634
430
392
246
365
361
219
576
558
191
341
300
308
327
346
355
316
-54
60
-276
-267
11
-288
-373
-145
-344
-296
-355
-224
-525
-174
-300
-277
-372
-220
-513
-525
-583
-408
-423
-609
-548
-589
-447
-774
-495
-430
-396
-393
-628
-579
-546
-564
-605
-614
-578
-532
-251
-239
-225
-220
-250
-570
-622
-615
-547
-207
-162
-178
-234
-544
-557
-523
-213
-170
-147
-137
-139
-163
-200
-214
-172
-340
-268
-276
-354
-171
-174
-375
-322
-317
-348
-373
-373
-366
-364
-361
-338
-298
-262
11
0
-283
-314
-333
-325
-288
14
50
71
82
79
48
-267
-312
-296
27
70
28
-333
-146
-355
30
-123
-117
81
35
28
17
-293
-361
-379
-320
27
88
90
53
11
-272
-283
-277
8
52
71
38
-288
-335
-309
30
104
120
86
40
-258
-306
-358
-370
-304
65
-119
105
1
-333
-309
49
-126
107
-260
-367
-132
-333
-290
-321
-131
-138
-303
73
114
52
-294
-330
-304
-257
38
67
79
51
-263
-303
-285
30
68
59
25
-259
-282
-313
-337
-318
1
62
80
58
20
-274
-311
-323
-276
78
-94
-80
-120
109
-126
-89
-80
-95
-94
-65
-50
-83
113
78
98
-111
-72
-51
-40
-30
-35
-52
-57
-20
313
130
147
353
286
262
303
376
176
202
220
254
552
577
573
563
573
603
632
386
385
635
609
560
519
533
600
398
621
248
134
371
197
558
604
562
204
334
-50
98
34
14
1
-301
-372
-168
-168
-137
-381
-155
-196
-201
-158
-366
-366
-173
-519
-577
-563
-227
-134
-351
-132
-213
-535
-546
-247
-178
-358
-296
-280
-324
-140
-172
-362
45
-48
330
165
545
496
1035
1329
1541
1628
1655
1507
1785
2417
2436
2483
2625
2248
2425
1989
1531
1033
-93
-869
-1196
-1846
-2082
-2171
-2130
-1727
-1496
-1195
-1120
-833
-386
-525
-193
-164
-225
-624
-484
-454
-538
-359
-312
-146
-514
-542
-229
-157
-373
-341
-272
85
-93
-88
112
58
69
-118
-48
-18
-19
-9
278
303
296
277
294
363
178
185
369
281
262
336
195
527
526
218
178
184
222
253
253
251
549
637
459
464
405
618
393
482
807
807
505
469
464
462
445
439
475
793
828
794
465
428
466
802
862
880
879
878
862
811
491
464
504
826
853
825
775
485
465
439
411
410
438
449
387
517
150
135
209
540
533
182
324
-6
-42
-74
-108
-113
-80
-52
-84
86
6
-278
-273
-281
-310
-329
-328
-336
-374
-166
-193
-195
-204
-228
-244
-239
-240
-535
-591
-610
-574
-522
-241
-243
-519
-583
-453
-848
-896
-801
-388
-560
-599
-430
-462
-411
-583
-522
-248
-531
-592
-396
-409
-627
-587
-589
-605
-571
-217
-383
-382
-214
-566
-582
-248
-138
-327
-342
-154
-213
-217
-173
-377
-345
-327
-328
-367
-175
-207
-156
-307
12
-273
-330
-317
24
90
66
-266
-307
-289
-262
-272
-301
-313
-319
-350
-131
-371
-274
87
108
30
-324
-354
-308
15
52
65
70
60
12
-315
-346
-303
37
90
72
8
-307
-336
-332
-290
38
105
114
57
-269
-291
-269
-258
-287
-317
-303
-258
6
-316
-153
-191
-137
-291
35
32
-274
-312
-313
-293
-289
-303
-305
-273
22
16
-304
-366
-359
-288
32
38
4
-271
-265
-264
-283
-292
-264
47
82
70
16
-303
-349
-360
-328
-268
35
48
39
38
48
44
28
34
78
119
95
15
-295
-260
93
-83
-51
-25
291
351
348
286
-17
265
335
373
350
312
301
302
285
283
357
518
410
430
580
222
235
588
636
564
184
377
151
202
200
156
143
196
540
599
587
251
143
306
-3
-23
-40
-88
92
18
-291
-322
-340
-348
-340
-312
-277
10
17
-271
-337
-144
-158
-360
-274
35
19
-305
-370
-384
-340
-261
61
64
-268
-134
-231
-246
-185
-360
-310
-303
-302
-267
84
-15
194
438
700
965
1201
1608
1639
1605
1629
1533
1758
2137
2056
1840
1628
1189
918
442
53
-850
-1364
-1483
-1777
-1995
-2331
-1964
-1684
-1565
-921
-833
-588
-214
-205
-235
-231
-175
-369
-355
-140
-175
-151
-332
-257
32
29
28
47
66
74
86
124
-87
-61
-58
-52
-28
256
270
276
300
350
153
204
251
537
518
170
309
263
348
246
591
538
152
338
146
548
407
433
399
622
613
603
584
583
626
440
490
502
499
769
797
814
816
819
824
799
476
412
421
501
834
846
831
877
729
1048
721
828
482
510
833
837
776
473
476
479
443
403
421
485
772
472
400
625
629
602
521
190
202
545
594
514
336
-59
-50
329
175
149
272
-115
83
77
65
35
31
76
117
88
-270
-375
-156
-384
-355
-376
-185
-254
-561
-600
-637
-401
-635
-573
-517
-517
-573
-640
-414
-404
-388
-640
-630
-607
-592
-618
-421
-460
-434
-613
-546
-528
-547
-567
-577
-585
-594
-587
-560
-538
-551
-587
-609
-604
-588
-573
-538
-207
-371
-328
-368
-198
-517
-517
-216
-160
-375
-362
-377
-144
-134
-330
12
70
72
42
3
-303
-377
-196
-210
-133
-278
26
-281
-364
-381
-316
8
5
-309
-333
-278
56
68
-264
-347
-349
-271
67
74
5
-327
-354
-328
-295
-283
-278
16
87
-113
-128
51
-263
26
126
-63
-97
58
-273
-271
11
-265
-325
-345
-273
93
-124
54
-323
-369
-296
85
-101
121
11
-358
-152
-371
-277
63
93
82
74
90
102
80
47
50
88
95
24
-341
-144
-369
-304
-279
-295
-292
29
-86
-97
-121
-108
-54
261
304
330
344
332
280
-36
-48
266
352
381
320
-27
-65
-20
317
373
133
140
163
193
198
163
363
342
130
226
566
570
230
378
332
378
212
518
219
365
260
-47
-52
-59
-102
93
56
47
26
-302
-140
-187
-151
-320
9
35
27
6
-278
-308
-318
-290
14
33
-262
-332
-378
-365
-307
4
28
36
50
64
49
-262
-308
-265
-103
374
553
404
769
714
998
1240
1563
1212
1375
1187
1656
1833
1804
1599
1156
1368
1358
1133
573
-180
-1121
-1593
-1892
-2115
-1966
-2169
-1675
-1603
-1299
-1049
-817
-587
-144
-318
-361
-231
-622
-437
-406
-546
-146
-288
29
45
27
-275
-325
-335
-277
90
-59
-8
-14
-29
-17
271
289
272
-15
-15
283
323
316
273
264
340
219
583
606
554
224
176
179
239
590
409
413
602
529
517
568
623
630
604
601
396
477
794
809
791
787
826
895
683
649
807
456
435
497
844
651
675
681
681
669
642
878
890
677
715
719
693
659
895
885
882
884
893
891
855
777
426
620
625
423
476
486
444
627
549
225
178
153
134
359
308
-4
-45
-82
124
75
69
123
-70
-89
36
-384
-214
-185
-370
-359
-170
-252
-542
-534
-536
-575
-617
-614
-565
-528
-555
-392
-495
-800
-507
-409
-572
-542
-584
-390
-411
-636
-597
-600
-385
-413
-412
-419
-467
-779
-771
-419
-559
-253
-528
-553
-538
-514
-532
-587
-620
-586
-249
-188
-190
-233
-517
-234
-161
-341
-302
-307
-333
-356
-368
-369
-348
-300
10
27
-272
-334
-355
-320
-282
-299
-360
-138
-356
-287
-268
-332
-169
-206
-153
-307
35
70
55
5
-312
-348
-328
-260
60
61
-259
-333
-361
-334
-289
1
21
23
2
-304
-356
-370
-339
-288
11
34
32
2
-312
-377
-158
-153
-376
-338
-309
-293
-288
-298
-305
-288
16
65
76
27
-310
-379
-147
-368
-298
21
40
12
-285
-298
-273
14
21
9
11
53
115
-113
102
20
-298
-296
25
108
-92
-90
115
50
28
86
-50
315
345
290
-50
-105
-107
-66
263
350
153
139
318
-14
-23
282
327
332
328
357
145
157
130
381
182
514
527
202
375
347
360
362
343
348
145
207
217
174
377
333
265
-104
32
-282
-274
-277
-349
-208
-537
-516
-174
-348
-308
-309
-337
-129
-181
-204
-185
-144
-381
-149
-207
-529
-580
-599
-572
-251
-185
-157
-169
-190
-181
-138
-343
-303
-258
63
-127
-95
-110
-117
-28
200
778
1080
1021
1359
1382
1155
1229
1618
1798
1715
2069
2062
1723
1867
1464
1204
764
174
-182
-705
-1371
-1438
-1669
-1742
-1859
-1564
-975
-695
-474
-540
-145
-366
-189
-556
-584
-239
-370
-310
-319
-327
-273
76
-122
-127
98
81
68
22
-299
-303
66
-19
332
276
-117
64
123
-4
338
335
298
294
329
355
352
348
373
164
193
193
189
199
211
202
181
182
221
529
552
537
521
546
606
404
425
436
485
827
886
847
460
596
596
467
876
681
884
787
472
486
812
641
706
722
678
865
834
875
704
767
759
698
893
865
852
811
475
400
398
482
825
812
435
565
538
601
396
616
527
202
170
382
304
-16
-15
285
297
-17
-108
82
48
21
-274
-315
-343
-362
-138
-196
-525
-582
-585
-526
-185
-139
-165
-244
-585
-391
-434
-470
-490
-479
-460
-469
-774
-826
-834
-784
-449
-391
-640
-419
-474
-781
-815
-823
-805
-770
-484
-480
-504
-785
-778
-478
-423
-638
-613
-585
-548
-528
-545
-584
-602
-574
-515
-211
-202
-228
-517
-522
-223
-134
-291
28
27
-283
-344
-380
-130
-373
-347
-313
-287
-290
-314
-327
-298
11
40
19
-270
2
65
101
48
-323
-131
-328
65
-100
123
11
-334
-342
-297
6
42
80
114
106
45
-283
-307
-267
46
65
37
-268
-310
-338
-344
-315
7
72
90
45
-284
-334
-336
-305
-273
-260
-258
2
1
-271
-301
-323
-326
-316
-309
-306
-295
-280
-283
-310
-328
-297
32
91
86
32
-269
-277
-277
-293
-309
-294
-257
5
-304
-376
-148
-364
-291
17
38
50
67
75
56
27
31
83
-98
-55
-82
95
25
22
98
-46
301
329
297
-5
-17
270
312
327
314
314
355
150
162
129
373
187
563
399
415
387
621
595
519
145
324
345
159
162
310
-98
63
51
72
84
88
89
66
-264
-359
-147
-361
-271
44
29
-298
-370
-142
-380
-354
-362
-149
-181
-162
-365
-345
-135
-190
-168
-315
49
60
-280
-366
-373
-315
-265
-262
-260
58
-69
329
182
529
415
646
929
1164
1269
1259
1259
1659
1702
2020
2181
2391
1998
2145
1772
1469
1122
331
-390
-1130
-1162
-1652
-1876
-1739
-1908
-1632
-1284
-714
-468
-545
-181
-148
-180
-247
-562
-564
-224
-333
49
70
-261
-329
-312
20
73
71
67
112
-74
-43
-61
-69
-17
324
375
366
337
336
361
381
140
170
218
245
219
164
146
196
525
563
574
616
437
479
420
562
522
605
460
475
389
572
592
399
412
632
637
472
832
847
511
434
440
510
826
843
846
867
895
640
858
820
832
654
764
1096
1088
743
882
811
822
887
687
680
867
773
448
431
462
505
771
477
410
612
584
561
512
186
142
161
215
232
162
291
-67
-84
-36
261
-12
-78
106
60
32
4
-285
-315
-338
-365
-150
-205
-517
-558
-565
-537
-238
-217
-239
-553
-620
-413
-435
-429
-405
-392
-419
-486
-797
-789
-474
-429
-438
-463
-442
-630
-586
-632
-488
-818
-778
-390
-516
-225
-548
-394
-444
-410
-593
-544
-543
-564
-581
-601
-636
-402
-618
-513
-159
-146
-212
-537
-538
-225
-166
-147
-146
-374
-310
6
0
-346
-197
-228
-155
-309
-298
-149
-526
-542
-189
-341
-323
-363
-368
-309
-257
-288
-375
-160
-356
0
39
-270
-353
-383
-345
-297
-293
-327
-351
-322
6
59
47
-279
-347
-345
-264
95
-108
118
31
-310
-341
-308
18
83
106
77
18
-283
-286
6
47
66
55
23
-273
-305
-314
-297
-265
15
31
54
95
-121
-124
68
-269
-298
10
95
-128
76
-272
-326
-306
13
66
89
96
109
119
106
63
22
17
60
115
119
38
-352
-199
-205
-378
-282
10
-277
-318
-320
-285
9
34
58
90
107
88
46
19
20
20
-264
-300
-297
7
47
31
-283
-314
-274
64
122
119
76
28
-270
-304
-314
-279
54
-124
-89
-106
102
58
47
83
-98
-28
-13
-65
127
122
-71
-2
262
-40
-67
-37
260
-19
-110
74
110
-5
147
210
158
305
-24
261
381
251
550
239
169
179
531
629
407
399
413
456
467
397
533
175
375
337
291
-9
-41
-84
89
-272
-337
-332
-288
-260
-263
-275
-286
-319
-373
-149
-371
-292
10
-291
-133
-193
-165
-350
-312
-329
-346
-311
4
10
-322
-167
-213
-182
-375
-337
-344
-378
-157
-168
-372
23
-32
168
585
474
648
1111
1307
1183
1254
1583
1473
1715
2004
2237
2591
2303
2207
2335
2104
1650
683
102
-653
-1187
-1494
-1893
-1904
-1528
-1557
-1288
-1037
-817
-617
-187
-334
-318
-382
-226
-567
-599
-557
-192
-320
17
19
-285
-322
-314
-269
46
105
-89
-21
293
318
293
-30
-88
-80
259
352
375
323
273
300
134
205
215
203
235
560
602
574
252
220
247
555
590
595
588
583
585
606
405
489
819
837
787
453
393
626
629
390
425
488
810
837
807
493
470
508
833
875
865
827
805
814
839
859
883
673
728
747
684
803
413
624
428
783
828
789
460
428
454
496
502
472
437
414
636
562
203
378
349
354
361
357
350
331
275
-67
-127
-120
-75
-72
110
6
-301
-279
13
2
-307
-341
-319
-274
-282
-376
-514
-611
-614
-541
-206
-183
-229
-565
-622
-621
-571
-517
-254
-560
-637
-447
-484
-500
-508
-498
-457
-390
-591
-588
-632
-416
-398
-583
-517
-249
-549
-606
-632
-618
-591
-569
-545
-248
-194
-155
-157
-200
-255
-535
-256
-207
-173
-175
-198
-211
-201
-179
-151
-362
-292
37
66
23
-322
-137
-144
-351
-288
5
8
-263
-288
-313
-318
-275
70
-100
-91
79
-290
-343
-308
13
44
30
15
33
69
78
47
14
22
63
86
55
-266
-316
-328
-327
-340
-356
-336
-269
62
95
79
45
23
28
69
-124
-85
-128
4
-366
-369
-259
109
124
60
11
26
57
42
-276
-330
-337
-308
-281
-281
-315
-358
-361
-288
93
-73
-82
91
13
-262
8
6
-271
-274
13
49
52
20
-277
-296
-274
49
-116
-63
-106
17
-375
-160
-348
3
32
-275
-348
-383
-368
-325
-269
52
109
-124
112
72
46
33
14
-269
-279
17
82
119
105
69
56
76
105
126
-114
-109
115
39
-295
-301
42
-98
-43
-79
113
99
-105
-36
-8
-30
-64
-77
-77
-95
110
39
-273
-286
5
68
125
-112
114
69
57
100
-86
-44
-68
112
31
-272
-269
32
94
-101
-44
259
288
275
-42
-110
-113
-18
375
187
382
-10
-111
-107
-26
309
339
328
315
327
365
167
241
587
427
505
792
506
436
622
577
547
513
216
175
382
307
-52
117
87
105
119
88
23
-296
-332
-347
-346
-314
8
68
68
-257
-339
-362
-322
-277
-288
-343
-377
-353
-299
-274
-299
-331
-320
-263
60
91
71
12
-307
-330
-289
57
-115
-92
-125
103
-103
303
521
770
1030
1289
1251
1631
1661
1426
1805
2066
2370
2571
2602
2261
2398
1988
1707
1222
820
115
-778
-1301
-1456
-1748
-2143
-2097
-1885
-1572
-982
-680
-445
-545
-213
-199
-210
-211
-186
-146
-368
-344
-331
-339
-370
-139
-372
-293
48
71
20
-291
-260
126
278
361
345
273
-50
-69
-32
298
371
144
372
322
302
323
346
345
341
130
227
561
541
175
341
369
252
392
438
397
614
387
457
496
475
442
449
490
770
496
465
468
509
799
798
780
786
826
870
889
881
869
877
658
712
757
754
682
820
472
477
827
670
682
849
487
451
486
783
775
477
453
453
432
613
519
222
255
562
559
229
134
327
302
292
274
-8
-25
-24
-22
-53
117
-264
-362
-370
-287
57
48
-330
-218
-529
-216
-132
-372
-184
-529
-577
-588
-607
-402
-457
-465
-414
-612
-613
-435
-787
-813
-488
-389
-602
-636
-436
-451
-427
-418
-445
-469
-438
-616
-554
-556
-601
-624
-592
-535
-242
-228
-202
-152
-368
-131
-199
-241
-198
-358
-300
-332
-156
-211
-215
-208
-218
-216
-155
-304
33
36
-277
-335
-362
-365
-348
-302
9
16
-318
-174
-212
-372
58
-73
-69
97
2
-289
-260
52
94
93
53
18
27
66
84
60
39
76
-106
-82
94
-280
-321
0
77
63
-279
-332
-295
28
22
-338
-197
-225
-151
-294
32
27
-290
-347
-351
-284
73
-118
120
26
-339
-152
-159
-375
-320
-283
-288
-337
-138
-163
-152
-131
-380
-372
-330
-258
58
64
32
14
31
64
83
86
92
96
72
12
-306
-318
-266
76
-116
-115
77
-267
-317
-284
68
-104
-97
82
-272
-327
-322
-287
2
18
21
20
28
48
63
57
26
-260
5
56
103
88
13
-306
-283
79
-73
-55
127
33
-276
-281
-262
30
91
-94
-60
-91
102
61
64
81
72
47
37
47
47
13
-291
-298
19
109
-101
110
11
-316
-312
-261
30
27
27
75
-110
-87
115
34
2
44
113
-110
124
70
16
-280
-294
-272
36
91
110
91
61
55
80
123
-86
-24
312
129
150
360
293
274
325
145
186
183
180
209
251
529
556
633
496
832
791
399
531
243
534
567
571
574
597
615
593
547
515
244
204
358
-40
93
20
-278
-307
-320
-306
-265
35
60
48
1
-315
-345
-321
-270
9
-282
-340
-367
-363
-361
-365
-336
0
65
32
-345
-193
-199
-140
-369
-148
-180
-154
-357
-341
-363
-338
49
-1
194
605
508
710
932
1364
1207
1278
1408
1899
1938
2182
2283
2238
2378
2009
2133
1864
1348
604
-204
-1140
-1593
-1853
-1743
-2051
-1722
-1513
-1226
-953
-747
-843
-436
-542
-173
-136
-180
-522
-578
-540
-143
21
94
37
-333
-143
-138
-376
-381
-363
3
-93
-8
-65
85
68
-89
272
287
-13
-12
311
358
312
-34
-56
286
161
231
218
173
155
179
229
536
573
588
578
560
556
570
594
619
394
438
478
485
443
386
619
401
475
795
820
812
799
792
788
795
823
877
679
703
676
869
816
810
846
884
879
831
787
785
810
814
781
495
770
827
853
796
424
576
531
530
522
236
204
184
167
128
333
305
326
370
130
350
281
-43
-101
97
51
43
83
126
108
14
-355
-149
-367
-299
-280
-337
-167
-219
-232
-244
-539
-583
-586
-542
-243
-251
-561
-608
-607
-568
-534
-528
-543
-575
-634
-461
-791
-809
-507
-430
-626
-603
-610
-626
-635
-626
-600
-567
-553
-565
-590
-603
-604
-601
-591
-551
-225
-161
-155
-212
-536
-556
-521
-223
-204
-194
-173
-161
-203
-542
-597
-569
-229
-160
-137
-383
-348
-310
-310
-333
-318
13
84
68
-293
-152
-205
-199
-176
-153
-372
-317
-278
-287
-333
-370
-356
-292
43
89
74
12
-303
-317
-286
8
23
23
25
21
-265
-316
-348
-331
-274
39
64
52
19
-265
-267
15
45
50
33
24
40
46
3
-325
-348
-280
82
120
49
-325
-130
-357
-289
2
-268
-287
-277
13
29
2
-300
-318
-277
54
102
82
7
-323
-342
-296
37
91
85
14
-336
-137
-381
-322
-272
-268
-279
-260
42
61
10
-328
-356
-296
49
79
33
-279
-280
17
37
2
-310
-333
-315
-294
-309
-349
-376
-359
-296
37
84
75
13
-324
-382
-135
-352
-280
51
92
64
-280
-370
-132
-332
-263
10
-281
-315
-315
-299
-289
-273
24
75
81
20
-318
-356
-336
-290
14
83
-70
277
289
-35
-108
-119
-80
-61
-94
118
120
-98
-81
-107
-123
-71
289
365
356
288
-31
-59
-61
-49
-8
328
154
185
160
380
382
171
225
523
557
587
598
584
565
573
612
398
402
607
514
161
360
366
165
224
253
255
250
240
199
367
260
-69
-89
-93
125
39
-310
-359
-341
-283
31
50
13
-317
-382
-139
-354
-304
-288
-295
-282
12
19
-314
-185
-522
-240
-153
-356
-372
-153
-150
-371
-344
-333
-311
-263
26
-258
-327
-361
-313
61
-39
151
395
676
940
1394
1260
1601
1456
1899
2162
2431
2605
2627
2281
2417
2018
1764
1558
895
-107
-817
-1176
-1669
-1978
-2032
-2103
-1806
-1279
-1322
-1099
-828
-571
-171
-166
-227
-531
-563
-602
-629
-587
-207
-331
-265
-262
-260
23
37
-257
-310
-304
39
-111
-54
-53
-80
-113
111
109
-89
270
344
334
259
-61
-71
-46
-15
278
343
167
212
193
145
141
210
566
625
619
578
544
519
233
206
225
561
390
410
621
594
392
491
801
779
489
511
826
846
799
487
495
827
660
706
699
665
885
863
861
885
675
721
736
706
656
886
645
664
890
813
505
775
799
485
599
236
531
417
507
449
564
208
185
171
370
309
305
339
329
-18
-125
92
-127
-91
-115
80
43
33
-257
-345
-183
-205
-140
-318
-315
-141
-238
-542
-542
-535
-541
-537
-246
-213
-236
-582
-420
-447
-399
-603
-622
-452
-797
-826
-809
-794
-806
-811
-511
-436
-402
-446
-774
-787
-449
-590
-516
-240
-238
-233
-247
-554
-609
-615
-568
-517
-256
-543
-569
-576
-572
-553
-246
-160
-337
-320
-366
-153
-136
-317
9
23
-262
-285
-278
-265
-286
-338
-372
-346
-267
68
101
76
9
-321
-354
-320
15
70
39
-307
-369
-349
-274
37
46
40
41
29
-274
-331
-350
-321
-289
-291
-305
-292
-259
-260
-323
-137
-141
-322
19
30
-297
-135
-191
-194
-167
-131
-341
-293
-269
-292
-343
-362
-309
41
101
81
8
-308
-318
-303
-301
-323
-340
-328
-303
-296
-322
-375
-170
-195
-185
-144
-343
-298
-289
-327
-130
-155
-360
6
102
114
38
-327
-149
-168
-137
-333
-266
37
39
11
6
55
126
-101
-126
101
106
117
75
-274
-336
-292
89
-68
-75
95
27
30
69
87
76
86
-108
-34
-24
-108
32
-275
26
106
-128
75
21
44
-121
-49
-66
117
82
124
-84
-124
5
-357
-345
27
-106
-48
-46
-48
-41
-53
-96
125
-116
-46
284
313
289
-4
-3
308
132
184
185
151
375
367
377
139
172
228
543
563
517
172
347
312
320
345
363
370
371
360
336
306
285
286
306
315
275
-80
49
-308
-355
-359
-356
-365
-373
-365
-353
-360
-131
-145
-384
-346
-312
-300
-317
-364
-169
-196
-141
-277
76
74
-269
-346
-352
-321
-315
-341
-355
-333
-304
-306
-318
-284
76
-27
145
597
821
1055
1006
1156
1232
1246
1263
1634
1859
2075
2109
1664
1660
1245
1161
947
455
23
-645
-1161
-1795
-2068
-1930
-2089
-1826
-1546
-1346
-928
-713
-442
-217
-134
-188
-532
-562
-526
-223
-208
-208
-176
-364
-301
-283
-295
-297
-266
22
31
43
105
-44
278
-24
101
-262
8
-111
314
158
150
338
287
297
356
160
180
165
157
190
255
555
542
243
236
547
615
617
545
215
211
523
580
607
389
469
804
810
484
425
453
800
862
848
790
498
508
791
804
810
842
657
732
757
699
849
785
828
685
765
743
648
828
826
865
882
858
829
822
829
817
773
465
437
431
433
439
445
430
620
238
356
274
274
314
324
273
-69
113
75
69
90
-128
-99
-115
72
-266
-320
-333
-337
-362
-139
-155
-162
-195
-529
-627
-438
-440
-392
-593
-574
-607
-416
-465
-455
-395
-590
-563
-564
-575
-599
-400
-475
-508
-460
-636
-618
-437
-787
-812
-512
-466
-457
-439
-620
-516
-205
-231
-550
-575
-545
-238
-195
-173
-182
-230
-547
-560
-231
-371
-305
-322
-367
-371
-342
-348
-150
-195
-161
-325
-270
-307
-129
-156
-359
-287
-263
-274
-272
11
32
18
-271
-286
-277
-264
-258
7
25
24
-277
-335
-341
-266
105
-79
-100
66
-292
-357
-363
-323
-269
22
27
9
-272
-293
-300
-279
22
58
41
-291
-376
-145
-356
-298
-283
-299
-295
1
27
-268
-363
-181
-175
-357
-287
-276
-315
-351
-342
-300
-277
-302
-342
-341
-290
7
-275
-347
-371
-286
111
-57
-71
117
63
30
-263
-300
-297
4
30
-266
-328
-319
34
125
126
69
60
-118
-42
-80
43
-302
6
-111
-19
-39
-122
77
67
57
23
-260
21
82
110
58
-291
-345
-314
34
123
-91
-92
-107
-114
-117
-125
126
-116
-77
-36
-30
-81
90
22
22
96
-69
-30
-62
-116
-121
-64
263
286
265
263
315
128
130
301
-60
-96
-38
316
134
159
151
143
157
197
253
565
601
599
554
219
128
310
283
310
369
171
203
206
184
157
159
211
545
571
223
290
108
27
31
37
-272
-346
-371
-330
-282
-290
-336
-349
-297
30
51
2
-328
-369
-367
-354
-364
-135
-150
-140
-380
-381
-147
-163
-140
-333
-264
24
5
-292
-310
-289
13
85
-41
168
421
647
1066
947
1349
1217
1274
1561
1426
1684
1946
2019
2143
1733
1699
1678
1413
1055
256
-461
-991
-1640
-1675
-2051
-1693
-1454
-1224
-1297
-1088
-805
-536
-158
-206
-576
-398
-428
-448
-461
-434
-611
-517
-184
-383
-343
-339
-381
-167
-139
-288
71
89
41
16
55
114
-127
104
109
-70
296
361
343
261
-76
-91
-5
149
535
560
227
134
365
162
245
563
586
573
533
239
244
562
393
449
456
445
442
436
413
386
391
439
494
777
774
499
475
454
462
779
875
690
679
862
810
831
889
658
886
868
661
744
765
690
855
854
691
1029
749
890
775
463
432
388
602
602
391
419
629
520
158
365
370
380
355
305
266
-2
-14
-66
103
43
64
127
-124
29
-369
-187
-174
-152
-187
-244
-243
-183
-155
-223
-591
-388
-607
-544
-525
-562
-609
-387
-409
-421
-409
-629
-597
-597
-630
-413
-443
-465
-478
-471
-432
-622
-568
-567
-619
-423
-435
-386
-574
-545
-574
-631
-420
-434
-421
-386
-585
-515
-198
-169
-175
-208
-250
-527
-247
-174
-343
-306
-348
-180
-246
-231
-144
-299
18
18
-273
-303
-304
-279
16
63
108
126
92
17
-306
-322
-289
3
7
-264
2
47
90
82
23
-286
-277
46
102
80
-279
-136
-180
-132
-304
5
-258
-294
-314
-305
-293
-304
-327
-325
-288
3
-268
-328
-381
-139
-129
-384
-381
-348
-298
-289
-348
-157
-135
-285
65
68
15
-261
29
55
24
-280
-280
28
81
98
95
96
86
56
40
83
-94
-71
104
-263
-294
25
82
55
-258
14
116
-72
117
-292
-377
-319
53
98
42
-289
-313
-301
-290
-266
71
-57
280
-10
-124
40
30
72
105
114
122
-122
124
76
20
0
26
69
97
98
73
24
-286
-308
-265
81
-101
-86
-112
121
110
82
30
-262
19
79
105
55
-292
-352
-342
-283
40
100
-114
-106
127
104
122
-65
269
306
290
-10
-50
-79
-95
-86
-39
294
365
143
140
129
136
164
202
244
540
569
570
536
233
198
184
177
172
173
180
180
153
373
369
160
223
251
221
148
302
-80
42
-318
-357
-351
-353
-135
-178
-185
-159
-134
-375
-338
-262
66
67
-271
-374
-176
-178
-166
-175
-199
-216
-225
-238
-249
-233
-177
-359
-307
-305
-353
-164
-217
-230
-195
-383
-288
107
299
526
490
679
1110
1293
1210
1581
1634
1445
1862
2095
2036
2366
2340
2023
2157
1847
1014
514
-215
-765
-1392
-1411
-1884
-1740
-1694
-1498
-1220
-933
-682
-486
-607
-545
-560
-632
-467
-773
-490
-397
-539
-204
-188
-230
-553
-595
-568
-209
-330
26
59
54
61
90
108
95
78
110
-61
268
265
-49
-72
269
170
535
528
200
173
227
540
515
174
142
226
604
627
521
150
157
536
398
425
394
386
413
423
400
413
511
889
669
861
804
838
652
641
794
460
501
862
648
850
782
788
855
666
712
757
1050
1035
699
862
817
823
839
840
836
831
805
498
455
451
478
497
481
433
619
528
180
383
132
165
181
166
139
360
301
-34
-88
-81
-46
-59
97
-297
-138
-166
-159
-161
-174
-175
-168
-187
-254
-589
-614
-556
-215
-186
-240
-571
-599
-584
-590
-388
-438
-423
-619
-592
-638
-447
-453
-394
-592
-576
-578
-566
-564
-618
-462
-783
-496
-399
-578
-565
-589
-606
-611
-626
-386
-613
-526
-178
-151
-199
-520
-541
-517
-232
-225
-225
-214
-203
-216
-254
-534
-247
-159
-317
-265
-281
-339
-136
-155
-147
-141
-150
-158
-149
-133
-138
-178
-221
-218
-158
-334
-290
-298
-324
-335
-328
-322
-320
-311
-289
-272
-285
-330
-379
-142
-370
-311
3
31
5
-323
-148
-181
-148
-341
-308
-325
-364
-374
-349
-321
-314
-315
-291
23
81
85
26
-303
-317
6
108
-79
-75
-103
-115
-111
119
40
-297
-310
12
69
22
-373
-228
-195
-291
120
-96
106
53
49
46
-264
-340
-355
-282
60
64
-268
-334
-319
9
66
75
69
83
99
85
46
27
50
92
120
122
115
107
78
31
2
23
75
93
47
-284
-320
-291
16
35
16
12
64
-112
-79
117
-258
-345
-339
-271
36
29
-262
-272
4
20
20
39
103
-90
-104
40
-340
-371
-280
119
-33
260
261
-1
-9
-24
-37
-35
-13
271
287
292
296
306
328
381
220
595
430
440
630
562
565
387
464
458
619
254
212
244
548
546
240
202
227
546
563
238
129
317
303
273
-82
52
-258
24
40
-290
-156
-205
-383
-261
44
-264
-345
-139
-158
-164
-144
-339
-274
-268
-338
-166
-198
-177
-152
-142
-374
-342
-354
-182
-526
-254
-384
-269
-269
-348
-379
-303
70
-103
-21
165
484
1084
1328
1187
1242
1568
1438
1890
2145
2402
2301
2290
2399
1941
1692
1567
731
268
-434
-998
-1420
-1742
-1944
-1943
-1706
-1572
-924
-891
-452
-587
-245
-204
-213
-254
-554
-572
-554
-247
-179
-134
-381
-379
-343
-276
23
5
-303
-314
9
112
-70
-41
-27
-13
-12
-25
-24
276
340
373
367
363
136
161
130
316
294
372
247
585
575
520
225
218
231
527
600
421
446
405
610
610
405
460
499
795
838
836
502
399
632
460
824
856
812
772
797
862
663
687
691
684
674
667
661
889
820
485
470
806
665
725
701
645
870
859
833
784
490
482
472
412
556
192
150
191
532
586
559
187
295
-67
-86
-40
264
260
-49
-107
121
112
87
41
8
18
47
29
-322
-190
-516
-242
-176
-132
-148
-204
-253
-523
-516
-527
-575
-637
-413
-393
-616
-628
-437
-505
-776
-482
-424
-634
-613
-629
-432
-512
-815
-784
-439
-618
-603
-636
-404
-387
-609
-591
-588
-570
-526
-247
-546
-634
-427
-632
-515
-176
-172
-201
-201
-173
-178
-243
-567
-577
-532
-233
-227
-244
-252
-243
-217
-175
-375
-332
-329
-361
-384
-377
-368
-130
-156
-133
-311
6
-282
-141
-246
-513
-183
-359
-335
-357
-377
-374
-369
-379
-139
-384
-333
-272
8
-284
-355
-149
-384
-297
54
84
25
-327
-384
-374
-337
-329
-343
-327
-259
65
64
-260
-314
-287
59
-120
-114
87
17
-299
-343
-364
-344
-285
37
70
60
28
-259
-269
5
50
100
124
101
48
9
16
55
83
72
34
-257
-280
-301
-332
-360
-358
-313
10
60
66
25
-298
-347
-344
-286
29
28
-291
-350
-341
-282
12
-262
-282
20
106
123
14
-142
-192
-337
84
-102
90
-263
-276
51
116
105
46
16
53
110
117
62
-260
-279
15
63
73
45
8
-267
-279
-301
-320
-303
15
83
108
83
45
29
34
40
63
-118
258
353
354
275
-41
-3
366
190
167
336
276
286
323
344
367
182
552
632
619
549
253
541
603
632
623
612
613
589
252
155
130
211
586
631
556
176
369
144
193
168
321
-43
-103
106
15
-372
-224
-255
-234
-220
-231
-236
-217
-202
-220
-252
-247
-191
-131
-384
-182
-243
-520
-248
-230
-225
-215
-177
-380
-354
-134
-210
-513
-225
-135
-308
-291
-330
-361
-326
48
-24
212
494
1047
1298
1190
1245
1543
1418
1671
1974
2205
2274
2185
2018
2093
1883
1555
1036
348
-391
-1296
-1509
-1785
-2150
-2117
-1699
-1427
-1355
-1042
-800
-393
-565
-518
-244
-514
-544
-551
-513
-195
-149
-138
-133
-353
-293
-258
-275
-316
-321
-266
81
-98
-44
-2
281
267
-46
-103
-106
-47
281
324
339
350
359
355
338
336
371
174
222
245
252
248
237
242
551
397
493
771
453
620
565
562
588
622
394
405
392
626
632
425
497
813
850
882
662
681
659
856
801
792
830
877
893
862
804
495
474
493
795
844
876
879
855
815
774
497
508
802
843
848
799
460
388
611
607
600
579
556
538
255
198
375
317
314
348
365
328
-9
-99
78
13
-285
-285
11
43
17
-327
-167
-198
-156
-348
-324
-352
-146
-190
-237
-557
-616
-630
-583
-520
-254
-581
-430
-487
-459
-635
-571
-566
-608
-398
-419
-420
-424
-442
-459
-447
-408
-634
-401
-478
-804
-805
-471
-625
-567
-566
-579
-564
-533
-528
-557
-580
-555
-243
-226
-542
-630
-399
-573
-186
-359
-356
-129
-134
-373
-378
-165
-205
-196
-142
-347
-333
-348
-363
-370
-377
-134
-141
-384
-362
-362
-130
-158
-155
-363
-286
44
89
100
75
12
-320
-365
-345
-279
26
12
-307
-360
-360
-313
-258
35
55
63
57
30
-271
-317
-338
-321
-272
33
47
20
-273
-281
3
40
69
99
125
114
36
-337
-161
-146
-315
23
50
27
-267
-298
-304
-278
19
36
6
-299
-325
-327
-345
-141
-180
-146
-305
25
9
-325
-384
-380
-339
-310
-308
-310
-311
-327
-372
-161
-163
-366
-290
22
43
42
31
17
6
8
22
23
-269
-335
-136
-155
-141
-370
-331
-275
46
81
68
29
-257
-271
-283
-290
-263
52
85
43
-306
-371
-346
-263
52
50
17
-261
-264
-263
-261
10
40
68
77
67
51
30
2
-269
18
102
-68
-55
119
11
-279
51
-92
-31
-41
-50
262
360
165
146
344
323
363
156
159
376
337
331
369
187
545
397
462
436
582
212
175
214
517
523
248
240
231
179
352
328
165
550
561
139
-90
31
22
39
-261
-344
-132
-383
-131
-167
-185
-143
-339
-330
-367
-375
-321
-278
-340
-235
-598
-567
-201
-145
-203
-561
-604
-571
-524
-250
-246
-207
-384
-312
-295
-337
-131
-132
-319
45
-118
-61
260
157
429
756
1290
1212
1587
1467
1907
2112
2034
2425
2264
2571
2300
2180
2171
1476
1120
141
-575
-907
-1566
-1809
-1698
-1769
-1734
-1821
-1275
-927
-844
-572
-153
-374
-188
-553
-620
-610
-549
-228
-183
-159
-151
-156
-165
-153
-362
-287
54
-126
-69
-46
-67
-114
104
110
-90
-18
280
264
-50
-95
-69
279
373
152
131
367
128
149
138
382
178
549
630
588
214
157
238
633
443
408
615
629
418
409
595
554
607
458
768
475
407
386
425
475
498
768
811
880
672
669
888
865
874
888
879
859
861
887
890
835
504
493
826
658
663
835
493
476
499
488
430
384
395
427
410
584
235
186
172
152
375
354
349
327
258
-91
116
-101
-5
319
284
-98
23
-305
-306
-288
-299
-338
-374
-145
-184
-246
-549
-539
-232
-204
-243
-582
-399
-439
-464
-494
-771
-500
-460
-437
-462
-777
-831
-853
-850
-824
-775
-464
-440
-469
-777
-789
-481
-411
-386
-412
-442
-432
-412
-438
-508
-799
-475
-598
-256
-537
-627
-424
-391
-574
-526
-254
-232
-196
-189
-242
-575
-603
-555
-224
-181
-184
-203
-201
-165
-367
-313
-274
8
27
38
26
-277
-340
-365
-311
50
-123
-116
89
24
-285
-319
-326
-307
-283
-290
-334
-384
-145
-369
-301
31
93
124
112
60
-269
-343
-145
-166
-130
-309
2
-273
-345
-384
-332
31
104
101
50
-260
-305
-351
-136
-146
-374
-332
-300
-272
20
51
47
10
-278
-270
14
11
-290
-344
-374
-371
-355
-335
-307
-273
2
-264
-291
-314
-329
-339
-329
-280
42
55
-279
-137
-176
-353
23
69
11
-333
-373
-364
-357
-365
-353
-297
26
48
14
-287
-299
-281
-265
-262
0
28
60
67
42
6
-257
34
86
114
94
39
-271
-298
-303
-298
-274
51
-97
-17
-45
69
-336
-362
9
-112
-102
18
-133
-158
-304
81
123
83
47
55
73
51
-257
-275
34
-122
-27
288
312
316
308
294
284
280
281
291
308
321
310
280
276
339
197
546
551
233
179
182
213
215
174
144
172
237
530
252
201
175
185
199
185
148
365
314
-37
75
-313
-360
-312
8
-267
-380
-513
-568
-519
-158
-324
-279
-286
-332
-134
-160
-377
-298
5
-279
-350
-139
-133
-378
-145
-171
-152
-344
-303
-331
-132
-145
-367
-353
-382
-135
-304
112
-16
282
314
202
485
1063
1319
1228
1585
1644
1417
1482
1899
2120
2013
1991
2098
1676
1497
1171
864
-91
-462
-919
-1538
-1899
-1957
-2333
-1936
-1886
-1567
-1302
-1058
-815
-613
-255
-520
-582
-618
-588
-245
-152
-354
-349
-369
-369
-337
-296
-265
15
37
50
44
30
35
70
121
-96
-81
-85
-99
-117
-117
-74
265
342
364
324
269
-8
262
285
304
335
143
215
243
203
137
376
189
563
393
398
602
559
562
589
592
561
547
586
400
432
391
578
562
632
497
849
876
844
797
509
501
770
797
839
886
660
650
850
778
489
774
837
872
847
784
486
482
478
442
391
624
638
639
583
227
141
378
172
246
546
524
184
332
-8
-50
-57
-47
-30
-21
-47
125
9
-325
-312
9
33
-302
-183
-530
-513
-181
-137
-172
-239
-256
-215
-193
-517
-388
-457
-405
-557
-525
-597
-424
-435
-411
-450
-810
-863
-785
-386
-586
-415
-801
-842
-508
-394
-590
-604
-397
-435
-439
-404
-605
-567
-565
-568
-538
-230
-208
-245
-556
-554
-231
-157
-136
-152
-156
-136
-133
-179
-237
-237
-155
-303
0
-302
-134
-181
-143
-303
38
64
36
-266
-298
-319
-339
-351
-339
-298
11
44
39
6
-279
-266
58
-98
-33
-58
91
-276
-312
-264
55
69
36
5
-257
-260
-293
-343
-365
-346
-321
-328
-355
-360
-324
-288
-294
-329
-334
-280
39
34
-312
-164
-204
-155
-324
-260
20
22
18
-257
-294
-328
-332
-306
-279
-286
-326
-369
-382
-363
-332
-304
-277
6
15
-271
-332
-132
-135
-334
4
65
83
68
43
22
16
32
66
98
91
29
-311
-361
-344
-286
21
51
83
125
-119
85
3
-279
42
-125
-106
89
27
28
63
69
47
48
91
116
69
-264
-284
32
98
119
-119
-38
336
380
299
-80
-111
-32
313
331
301
301
338
354
324
312
382
253
589
555
198
382
131
177
202
176
378
338
344
136
175
161
361
339
157
543
605
514
309
124
55
83
117
91
1
-357
-170
-184
-148
-348
-302
-283
-289
-303
-322
-358
-150
-177
-145
-319
8
-260
-355
-194
-197
-362
-270
-262
-324
-364
-330
-271
-264
-318
-363
-339
-276
25
54
123
268
210
421
647
920
1208
1653
1660
1545
1229
1602
1835
1743
1718
1809
1630
1225
1003
844
-4
-633
-906
-1544
-1820
-1759
-2098
-1780
-1834
-1540
-946
-869
-591
-167
-379
-168
-239
-536
-526
-204
-356
0
39
0
-321
-338
-281
66
-124
-112
112
63
23
28
98
-50
289
297
-4
-35
-21
276
312
339
374
142
376
319
294
345
179
241
250
249
522
535
513
221
219
514
564
605
399
470
780
509
439
394
424
493
786
502
440
394
385
405
447
506
822
862
870
857
847
849
861
882
655
687
706
703
679
648
884
889
667
711
731
703
886
796
465
429
446
499
798
782
451
618
575
590
611
592
548
523
519
229
134
288
270
353
194
198
348
-51
88
16
-279
-289
-275
-278
-345
-204
-535
-249
-154
-358
-152
-252
-553
-255
-203
-233
-610
-469
-482
-399
-575
-583
-416
-770
-820
-826
-812
-785
-481
-428
-401
-417
-451
-468
-446
-395
-600
-576
-595
-401
-468
-496
-470
-416
-620
-575
-527
-232
-225
-245
-254
-215
-143
-344
-344
-135
-189
-218
-214
-186
-149
-369
-332
-295
-269
-278
-323
-359
-329
27
123
126
29
-340
-384
-348
-289
-262
-269
-272
3
30
45
44
45
60
79
86
68
25
-279
-313
-321
-302
-262
49
110
-101
-91
127
56
4
16
86
-109
125
14
-368
-160
-362
-262
63
76
55
35
26
21
14
5
-264
-285
-307
-315
-308
-303
-315
-331
-323
-280
29
52
23
-302
-373
-145
-369
-301
13
22
-266
-300
-312
-302
-281
5
41
69
62
18
-288
-308
-297
-286
-293
-293
5
74
119
97
38
16
65
-123
-114
72
-274
-317
-310
-298
-309
-309
0
90
-110
125
61
25
44
80
95
98
112
-124
122
70
21
38
-115
288
138
149
338
270
273
346
165
171
355
259
-51
-45
258
325
152
249
602
418
440
413
617
579
575
582
561
235
145
342
338
376
174
218
241
239
209
159
351
271
-81
82
21
4
8
-265
-313
-369
-146
-143
-371
-335
-309
-314
-358
-169
-229
-249
-216
-144
-323
-284
-305
-373
-183
-209
-184
-131
-339
-320
-338
-376
-147
-141
-359
-309
-268
40
-128
261
152
544
437
646
923
1193
1588
1556
1199
1216
1443
1776
2004
2019
2168
2088
2048
1888
1198
790
102
-442
-1082
-1384
-1636
-1536
-1804
-1410
-1406
-1067
-463
-205
-353
-354
-381
-140
-160
-185
-159
-323
21
7
-353
-169
-375
-258
68
64
70
-104
261
304
265
-35
-18
296
326
291
-31
-76
-64
261
353
167
188
173
165
179
185
156
367
370
190
553
616
601
541
247
524
591
404
435
413
615
572
577
635
458
771
791
789
792
803
806
791
778
795
851
669
726
746
727
690
665
679
737
1061
1082
1030
681
878
645
729
1061
1072
1028
726
711
701
656
839
792
809
858
868
805
448
628
598
584
563
544
536
516
194
348
270
268
323
364
350
291
-41
-119
63
22
42
104
-115
103
16
-305
-315
-304
-316
-352
-136
-169
-202
-234
-513
-534
-572
-610
-603
-531
-198
-208
-574
-437
-476
-439
-406
-417
-438
-426
-402
-408
-438
-432
-619
-529
-225
-237
-536
-578
-605
-602
-553
-210
-131
-358
-377
-143
-135
-376
-381
-143
-135
-345
-299
-295
-328
-352
-337
-303
-283
-276
-258
25
20
-294
-351
-329
37
-108
-87
107
46
47
80
83
53
51
115
-65
-71
85
-282
-302
33
121
-116
97
63
80
120
-128
104
107
-80
266
284
-61
71
18
69
-99
-68
-109
104
121
-85
-78
121
72
108
-41
283
-28
90
-272
-284
17
39
28
29
65
100
89
46
23
45
83
107
115
122
123
100
60
34
44
80
109
106
70
17
-287
-305
-276
46
111
-122
114
75
46
37
49
83
-122
-66
-37
-60
-125
73
76
-117
-57
-65
118
61
93
-68
-11
-46
-119
-124
-39
291
-7
113
15
54
-69
292
307
274
256
-7
-53
116
60
97
-67
-17
-47
-93
-78
-10
305
325
351
163
225
196
340
-2
288
157
515
532
249
250
538
553
540
558
396
781
844
791
410
564
533
546
546
514
226
235
548
606
612
563
514
525
582
598
248
324
-105
54
23
8
-261
-257
7
-274
-346
-158
-150
-319
29
60
28
-279
-317
-339
-347
-336
-316
-319
-346
-358
-330
-297
-312
-363
-364
-278
73
63
-314
-159
-130
-268
70
79
125
314
604
862
1026
912
1366
1581
1449
1470
1515
1701
1982
2199
2254
2206
2415
2363
2173
1471
1047
272
-442
-1006
-1648
-1855
-1899
-1822
-1410
-1195
-928
-889
-614
-155
-296
-258
-281
-348
-172
-204
-150
-286
87
-126
94
31
-267
-281
-277
6
73
-86
-9
259
-46
-114
107
122
-83
-22
283
304
295
282
313
152
532
610
598
515
186
187
242
541
528
233
238
569
413
466
444
385
610
638
447
500
503
455
388
602
615
427
783
880
681
683
646
871
883
684
748
1043
1050
1033
741
692
664
694
1024
1076
1057
738
708
726
726
655
815
794
871
695
676
824
476
467
497
490
450
437
464
460
616
212
138
196
562
593
248
365
267
-32
-49
-61
-54
-28
-27
-85
74
-258
-284
-287
-307
-342
-365
-370
-132
-183
-243
-523
-241
-206
-212
-521
-590
-639
-397
-389
-388
-402
-418
-408
-619
-577
-598
-443
-811
-844
-774
-420
-395
-469
-825
-853
-788
-432
-624
-611
-611
-593
-576
-597
-397
-427
-636
-527
-183
-172
-212
-234
-207
-174
-185
-230
-249
-208
-156
-156
-216
-517
-214
-334
58
109
65
-261
-293
-287
-300
-357
-155
-135
-289
66
75
0
-327
-314
35
-121
-83
-122
50
-287
-325
-300
28
101
-117
-116
124
98
61
28
32
82
-117
-110
96
31
-268
-292
-308
-310
-272
48
80
40
-298
-353
-336
-267
64
113
112
48
-314
-138
-382
-292
38
22
-311
-347
-286
66
95
34
-294
-290
39
93
61
-287
-355
-350
-298
1
11
8
24
53
55
11
-295
-289
49
-114
-93
94
-262
-317
-313
-296
-305
-335
-357
-366
-380
-137
-373
-306
42
117
-105
-96
-94
-109
94
16
-290
-271
70
-102
-93
83
-274
-294
55
-72
-14
-64
105
76
107
124
85
46
78
-86
-32
-81
71
17
57
-121
-79
-80
-75
-37
258
260
-14
-4
312
128
165
153
382
371
371
368
367
139
207
543
589
587
565
566
597
634
400
406
392
602
520
178
156
222
581
637
612
542
231
201
161
347
278
-17
-44
-115
3
-149
-228
-200
-380
-338
-355
-129
-131
-376
-144
-204
-245
-223
-166
-152
-206
-530
-547
-250
-196
-148
-338
8
70
47
-302
-373
-357
-281
32
40
36
49
55
31
19
102
302
552
775
708
915
1394
1560
1632
1439
1878
1946
2261
2642
2286
2340
2170
1762
1485
971
513
-252
-917
-1662
-1713
-2102
-2065
-1878
-1600
-1311
-1059
-845
-389
-201
-328
-312
-144
-254
-552
-252
-178
-383
-361
-339
-306
-287
-303
-333
-340
-322
-299
-277
27
111
-67
-62
116
26
15
101
-36
300
331
342
360
373
371
369
143
215
544
570
542
239
216
232
531
586
386
425
419
618
552
542
605
430
460
426
388
408
489
836
881
876
859
873
664
706
694
873
781
482
777
862
676
698
680
644
866
864
663
760
1091
1077
720
864
818
842
874
864
821
786
773
499
455
401
638
411
451
450
394
571
247
196
151
376
379
155
170
380
279
-72
-113
-114
-123
95
56
36
14
-301
-137
-205
-198
-134
-335
-335
-376
-163
-194
-229
-527
-549
-530
-245
-525
-622
-481
-793
-511
-449
-403
-640
-639
-401
-447
-502
-776
-478
-414
-387
-408
-437
-441
-428
-424
-423
-395
-587
-529
-534
-598
-401
-403
-609
-556
-522
-237
-198
-166
-177
-223
-242
-181
-321
27
31
-286
-332
-308
11
44
15
-287
-288
13
44
16
-313
-369
-368
-317
15
87
-127
109
27
-312
-313
41
-88
-33
-85
65
-275
-308
-309
-305
-301
-297
-294
-300
-314
-320
-302
9
83
-116
-112
89
7
-314
-336
-326
-313
-311
-317
-323
-324
-329
-339
-346
-329
-283
28
50
25
-280
-305
-291
-261
5
-264
-268
20
72
99
75
26
7
43
98
102
26
-342
-171
-192
-167
-383
-332
-260
70
95
49
-282
-310
-262
70
101
56
-288
-362
-135
-371
-307
37
115
-109
121
67
23
10
18
29
36
43
46
35
12
-263
2
45
99
-128
116
83
58
51
53
53
61
98
-98
-53
-62
-120
77
67
115
-67
-16
-23
-87
91
49
68
123
-99
-110
117
125
-73
-13
257
-31
-50
-5
348
169
162
328
-25
-43
301
182
527
530
235
228
521
559
566
561
578
603
581
245
164
140
167
192
203
238
562
604
563
211
147
149
154
339
-46
99
39
-278
-137
-515
-541
-196
-342
-323
-140
-205
-191
-131
-356
-364
-355
-301
-259
-297
-146
-225
-214
-138
-330
-319
-336
-342
-339
-346
-356
-332
-261
72
97
57
-257
-265
56
-84
310
223
444
706
956
1384
1210
1252
1595
1523
2054
2343
2273
2280
2386
1935
1771
1832
1192
793
-285
-1058
-1613
-1669
-2057
-2053
-1918
-1420
-1380
-1086
-813
-572
-136
-309
-335
-166
-246
-541
-549
-554
-541
-226
-375
-275
5
-310
-381
-381
-304
40
81
89
113
-94
-68
-99
101
90
-99
-1
320
338
342
356
374
369
341
329
361
175
233
235
182
131
140
217
568
626
385
402
456
778
795
494
452
482
831
893
847
464
618
625
477
873
723
754
705
863
786
796
878
688
670
857
832
887
693
673
847
813
887
750
1047
706
828
492
504
814
851
850
832
817
799
505
444
387
629
412
457
436
582
180
343
340
132
159
383
314
-10
-62
-100
-126
123
126
109
53
-281
-334
-344
-344
-130
-215
-534
-521
-197
-155
-189
-523
-562
-518
-177
-131
-160
-245
-592
-403
-444
-464
-468
-464
-464
-481
-770
-799
-802
-769
-457
-407
-629
-608
-596
-598
-624
-406
-423
-399
-599
-535
-237
-227
-246
-533
-541
-237
-147
-325
-308
-357
-176
-234
-248
-213
-147
-341
-320
-339
-362
-356
-332
-321
-329
-321
-270
44
50
-262
-325
-330
-285
12
25
37
69
88
39
-309
-346
-262
-108
-14
-53
87
6
9
55
81
72
49
32
22
16
9
-261
-282
-287
8
76
109
59
-302
-373
-360
-297
4
-258
-289
-309
-317
-328
-343
-341
-300
32
100
104
26
-333
-373
-316
23
30
-315
-156
-169
-370
-340
-380
-170
-138
-286
60
63
10
-288
-294
-294
-306
-301
-263
21
-268
-345
-384
-328
44
-126
-111
-127
122
98
23
-320
-329
26
-109
-84
77
-298
-341
-305
6
42
74
115
-122
100
35
-260
15
59
84
75
50
26
3
-274
-274
7
41
59
59
52
44
24
-263
-268
46
-107
-27
-28
-96
93
79
106
-126
118
78
36
16
24
51
76
82
73
80
127
-52
269
285
256
-32
-18
313
161
228
213
130
306
294
352
173
221
248
540
587
607
576
528
518
549
569
527
185
373
352
358
364
379
183
532
593
556
174
299
-16
261
292
257
-110
20
-310
-316
-293
-285
-291
-280
9
30
5
-316
-365
-351
-280
52
77
35
-296
-358
-129
-137
-144
-139
-359
-300
-261
-281
-338
-360
-309
23
54
29
-260
5
62
-112
-11
380
573
825
1110
1373
1541
1584
1583
1434
1735
2400
2469
2838
2526
2683
2577
2367
1684
1298
557
-166
-1063
-1596
-1723
-2166
-2148
-1709
-1418
-1340
-1029
-805
-430
-614
-513
-142
-356
-181
-573
-638
-584
-226
-179
-193
-201
-162
-369
-354
-362
-348
-294
28
78
121
-89
-69
-103
83
42
74
-88
270
331
334
291
-22
-51
-27
283
333
376
173
246
559
552
239
213
532
388
447
394
536
220
528
385
463
476
474
769
835
851
778
416
636
459
848
676
663
860
839
886
698
726
701
671
678
693
658
820
486
505
867
710
715
891
806
770
772
778
781
794
805
780
452
625
576
576
593
586
541
221
165
130
359
318
259
-51
-71
-57
-46
-81
92
4
-288
-261
48
73
38
-309
-172
-535
-590
-569
-231
-150
-140
-213
-562
-600
-565
-253
-233
-254
-539
-566
-608
-424
-493
-506
-460
-410
-408
-445
-469
-454
-421
-396
-624
-562
-216
-155
-173
-253
-582
-601
-588
-591
-620
-631
-588
-522
-233
-250
-525
-238
-165
-365
-369
-156
-187
-194
-202
-228
-250
-234
-171
-345
-273
27
25
-283
-350
-369
-304
54
86
-262
-159
-236
-165
-263
111
118
56
14
21
29
-267
-332
-353
-300
21
12
-334
-158
-133
-273
81
72
-275
-353
-367
-354
-365
-134
-371
-290
54
75
27
-276
-266
39
60
19
-306
-345
-340
-327
-350
-152
-199
-194
-380
-275
62
68
-261
-360
-147
-347
23
96
61
-314
-165
-182
-368
-279
23
25
30
60
92
77
7
-325
-342
-289
35
53
13
-291
-299
-267
30
56
77
100
102
52
-295
-370
-369
-291
64
117
94
26
-291
-309
-288
-262
-261
-275
-265
44
105
106
41
-269
36
-78
287
-12
71
-340
-352
10
104
104
43
6
36
93
125
-123
-105
-68
-23
267
292
307
299
257
-48
-64
-28
284
309
284
-24
-57
-36
304
168
540
608
609
563
252
214
197
187
174
155
375
318
260
-13
293
132
212
230
192
144
365
324
-8
-104
85
81
101
79
-264
-365
-150
-365
-296
3
11
11
7
-276
-321
-347
-319
1
52
59
31
-265
-308
-352
-380
-373
-342
-325
-353
-155
-200
-199
-145
-314
32
90
112
-120
-37
374
555
465
886
1111
1386
1606
1409
1599
1590
1525
2106
2340
2325
2113
1879
1450
1218
752
295
-477
-1335
-1441
-1666
-2126
-2029
-2019
-1764
-1594
-907
-852
-414
-558
-222
-194
-239
-570
-600
-543
-188
-377
-376
-144
-376
-280
95
-90
-92
125
104
125
-100
-99
121
93
112
-92
-61
-83
-128
-121
-27
364
203
206
143
341
334
368
150
169
171
173
188
214
247
532
555
579
613
394
418
416
398
626
591
558
559
628
486
821
794
438
626
406
502
818
813
810
861
665
656
840
801
860
703
719
872
480
423
456
772
801
803
819
855
876
840
494
401
624
412
479
490
421
580
528
530
538
250
200
169
154
368
284
-55
-83
-46
268
302
297
259
-61
118
60
36
20
-277
-347
-162
-211
-250
-553
-596
-592
-532
-208
-199
-517
-602
-398
-404
-385
-615
-581
-549
-551
-611
-452
-780
-781
-474
-443
-466
-512
-770
-450
-624
-586
-597
-593
-525
-166
-373
-174
-552
-635
-614
-519
-184
-176
-229
-546
-567
-549
-526
-526
-539
-529
-217
-142
-358
-377
-157
-150
-354
-309
-325
-132
-187
-210
-218
-214
-168
-321
40
72
21
-298
-301
7
48
41
24
44
83
80
14
-323
-351
-316
-265
3
-285
-333
-370
-137
-142
-366
-286
63
103
51
-319
-142
-381
-295
30
28
-274
-303
-290
-264
-257
-272
-284
-282
-277
-285
-311
-357
-163
-208
-197
-381
-296
-262
-292
-335
-347
-335
-331
-345
-348
-322
-298
-312
-360
-149
-152
-361
-287
41
77
51
-266
-302
-265
76
-113
-93
-86
-70
-79
98
-277
-339
-302
30
50
10
-263
37
87
74
25
30
116
-60
-76
93
38
67
-124
-86
-66
-17
308
336
289
-36
-51
264
353
170
215
230
206
157
137
185
523
562
515
163
348
340
369
138
147
152
171
203
230
218
149
303
-36
-67
-71
-111
38
-355
-199
-226
-204
-173
-154
-384
-340
-303
-315
-383
-198
-198
-381
-309
-309
-372
-180
-206
-202
-184
-144
-332
-273
-275
-333
-130
-139
-133
-147
-152
-343
32
107
101
109
269
590
668
1142
1017
1162
1574
1610
1206
1015
1004
1203
1648
1567
940
499
185
-28
-321
-811
-1166
-1711
-2318
-2204
-2178
-2011
-1735
-1660
-1327
-759
-466
-219
-333
-318
-370
-141
-353
-276
23
24
33
84
-111
-85
-93
-93
-69
-50
-59
-58
271
149
248
234
143
334
343
366
324
-16
-40
311
211
580
595
548
229
178
157
189
523
590
593
549
530
574
384
413
409
419
450
454
397
567
523
550
623
450
778
817
813
779
769
817
892
671
648
870
867
882
869
825
793
817
883
679
685
659
885
875
646
710
1039
1076
1044
698
855
792
774
779
784
780
776
776
771
485
429
628
613
399
451
432
562
140
302
332
154
165
330
-43
-97
-86
-86
117
53
45
90
118
70
-293
-143
-212
-251
-531
-540
-529
-520
-544
-599
-390
-394
-616
-583
-578
-587
-593
-604
-637
-423
-436
-401
-613
-613
-418
-500
-812
-829
-822
-806
-776
-476
-436
-423
-438
-464
-473
-450
-398
-601
-583
-611
-404
-439
-448
-437
-408
-610
-533
-213
-192
-204
-210
-188
-148
-376
-368
-374
-141
-184
-230
-239
-190
-365
-293
21
74
107
79
-270
-369
-141
-340
-272
-268
-334
-151
-164
-372
-298
21
61
70
43
-258
-283
-262
40
60
33
-258
13
80
126
74
-314
-162
-149
-300
42
32
-302
-364
-359
-306
10
55
90
101
57
-297
-140
-172
-377
-299
-257
-275
-322
-347
-335
-309
-304
-327
-346
-338
-311
-308
-355
-163
-183
-381
-280
51
51
-271
-352
-145
-145
-365
-314
-270
12
19
14
1
-270
-271
8
48
79
82
60
36
32
53
95
-107
-49
-8
-4
-33
-62
-60
-17
309
376
169
191
187
168
146
131
133
157
201
238
224
147
301
-15
258
308
319
-5
-122
33
-277
-299
-316
-332
-334
-319
-308
-326
-367
-153
-167
-141
-341
-281
1
-284
-354
-160
-172
-139
-360
-359
-136
-176
-210
-240
-521
-523
-227
-154
-332
-283
-265
-262
4
32
76
-118
-34
339
245
448
661
1101
975
1298
1339
1161
1572
1512
1888
1837
1648
1198
1332
926
818
-83
-857
-1256
-1673
-2155
-2023
-2043
-2167
-1894
-1575
-1294
-1048
-798
-561
-153
-135
-206
-530
-543
-520
-238
-193
-351
44
-104
-83
114
37
3
35
116
-43
299
346
346
315
277
-1
-1
281
344
181
513
533
248
225
238
523
527
514
526
570
595
545
199
171
518
418
779
772
438
633
637
440
770
822
829
791
475
427
416
439
477
781
831
853
818
488
445
495
866
696
697
653
895
667
677
881
803
510
788
824
823
788
499
493
771
808
851
885
886
855
808
509
472
440
432
456
480
448
596
214
145
146
159
383
324
299
327
343
272
-127
13
2
57
68
-273
-132
-174
-382
-326
-329
-365
-363
-322
-331
-193
-610
-432
-631
-515
-198
-225
-552
-613
-402
-434
-441
-420
-402
-423
-475
-506
-492
-468
-472
-485
-462
-400
-613
-639
-455
-505
-500
-469
-446
-426
-388
-593
-561
-568
-594
-605
-581
-533
-226
-196
-209
-522
-591
-619
-586
-249
-161
-353
-326
-335
-376
-174
-212
-214
-178
-381
-343
-342
-379
-169
-176
-372
-279
37
19
-317
-146
-193
-198
-176
-133
-331
-287
-287
-327
-365
-369
-350
-342
-355
-368
-367
-369
-143
-181
-189
-154
-354
-304
-272
-258
-263
-286
-304
-286
20
60
59
20
-285
-321
-341
-341
-316
-278
6
9
0
-259
-258
-270
-296
-307
-273
52
104
91
19
-313
-329
-269
72
116
93
30
-287
-327
-344
-333
-285
38
80
72
37
11
1
-264
-267
8
47
60
24
-272
7
93
-84
-64
-78
-70
-36
-33
-89
105
100
-104
-53
-43
-61
-78
-90
-105
-107
-72
-6
313
348
362
375
137
165
208
520
566
585
580
569
550
248
180
130
130
154
130
271
101
-304
-380
-131
-362
-334
-317
-320
-343
-376
-151
-164
-156
-380
-338
-315
-341
-158
-235
-519
-220
-133
-313
-293
-336
-152
-206
-212
-165
-351
-301
-293
-324
-358
-363
-335
-295
-260
35
105
-41
349
240
413
883
1125
1354
1262
1591
1606
1646
1517
1709
2117
2129
1750
1836
1657
1382
642
-38
-500
-1332
-1448
-1910
-1748
-1740
-1891
-1453
-1206
-1147
-796
-247
-364
-373
-177
-209
-222
-256
-545
-251
-377
14
42
-296
-132
-138
-315
26
58
62
93
-85
-13
-3
-47
-70
-8
377
211
181
312
-50
-46
303
383
380
327
306
343
131
135
128
180
558
400
636
523
180
195
529
576
574
586
401
482
500
464
454
775
869
660
651
890
888
874
827
792
831
681
1032
1045
733
675
666
691
712
712
703
714
753
1047
1039
720
650
642
707
1024
734
864
491
470
790
842
814
477
408
635
618
569
228
144
364
144
228
548
525
152
268
-55
-25
278
-13
112
-280
-323
-276
30
11
-309
-349
-342
-345
-166
-547
-624
-594
-249
-195
-213
-247
-233
-189
-199
-552
-417
-459
-401
-591
-618
-486
-867
-644
-832
-469
-632
-576
-565
-595
-638
-390
-600
-540
-524
-560
-589
-573
-551
-598
-446
-500
-412
-222
-334
-340
-194
-533
-254
-167
-363
-366
-137
-154
-168
-205
-242
-232
-168
-359
-346
-377
-144
-129
-351
-324
-293
19
90
126
96
27
-289
-325
-353
-382
-134
-362
-320
-301
-311
-315
-280
32
60
35
-277
-326
-358
-135
-178
-215
-214
-162
-340
-281
-281
-339
-160
-197
-164
-350
-305
-321
-372
-152
-149
-382
-367
-358
-337
-307
-295
-315
-350
-381
-162
-219
-524
-513
-173
-344
-350
-198
-554
-536
-145
-258
45
-264
-328
-329
-283
0
-273
-284
18
84
81
-285
-169
-214
-379
12
74
44
-258
-257
30
39
24
32
82
121
85
-274
-360
-358
-278
56
70
29
-260
22
92
-110
-120
71
16
31
110
-72
-74
107
34
36
118
-32
299
330
335
314
256
-71
-95
-36
328
142
383
315
267
281
350
186
530
587
601
589
599
389
431
419
608
535
231
170
299
120
-285
-328
-287
14
19
6
8
15
-262
-308
-332
-308
-270
-283
-349
-148
-142
-349
-318
-323
-327
-312
-316
-377
-212
-513
-235
-205
-212
-225
-184
-362
-335
-148
-237
-225
-362
8
33
25
112
323
567
769
708
974
1536
1475
1469
1635
1429
1702
2034
2202
2412
2033
1923
1730
1545
858
118
-479
-926
-1584
-1713
-1980
-2017
-2083
-1510
-1408
-1050
-472
-249
-159
-167
-216
-523
-568
-584
-546
-206
-376
-325
-303
-284
-262
3
13
59
-119
-66
-88
108
98
-78
279
309
257
-55
-43
276
318
299
259
270
349
172
171
341
264
288
148
246
233
140
339
381
203
222
183
176
519
389
456
434
389
393
446
503
804
850
895
648
854
784
503
796
850
868
845
820
815
809
779
493
776
881
754
1062
738
877
819
861
681
700
645
836
816
824
808
497
444
430
440
431
386
579
528
238
218
219
249
546
554
243
129
257
-85
-97
-53
-6
-5
-58
-125
94
93
97
75
31
-268
-305
-358
-187
-536
-587
-564
-236
-183
-197
-524
-600
-633
-615
-582
-573
-596
-634
-409
-434
-474
-796
-859
-864
-783
-402
-577
-590
-404
-451
-435
-389
-626
-392
-428
-459
-495
-798
-827
-793
-444
-605
-563
-574
-589
-571
-530
-246
-241
-233
-204
-165
-161
-218
-563
-628
-632
-585
-525
-217
-172
-132
-372
-133
-156
-137
-314
29
50
-283
-152
-232
-214
-130
-321
-329
-384
-152
-360
-290
-279
-342
-145
-376
-288
5
-337
-231
-572
-532
-171
-361
-359
-356
-304
20
28
-296
-365
-355
-273
46
9
-368
-221
-233
-154
-325
-301
-334
-369
-372
-371
-148
-209
-243
-206
-375
-313
-328
-146
-205
-197
-141
-354
-354
-374
-376
-347
-315
-319
-359
-135
-375
-309
8
-261
-350
-191
-205
-377
-278
-259
-325
-140
-144
-363
-362
-170
-241
-236
-143
-283
34
11
-325
-153
-187
-150
-317
5
-277
-129
-222
-207
-347
37
101
100
78
60
37
5
-264
24
77
102
80
44
31
34
17
-283
-309
-268
87
-84
-81
111
64
100
-52
294
307
261
-33
-46
-70
123
73
119
258
382
135
323
307
151
541
587
536
241
547
634
392
570
238
248
581
387
390
616
576
239
340
-100
45
60
-125
124
-275
-223
-600
-561
-153
-270
15
-314
-154
-192
-152
-341
-312
-344
-141
-160
-135
-372
-159
-241
-536
-224
-378
-329
-375
-200
-230
-201
-183
-214
-247
-206
-356
-272
-274
-320
-295
126
139
423
676
902
1358
1247
1583
1416
1877
1960
2566
2489
2676
2189
1927
1910
1278
715
265
-448
-1308
-1518
-2104
-2015
-1982
-1764
-1444
-1371
-1088
-856
-417
-539
-205
-180
-194
-223
-232
-205
-161
-141
-167
-201
-192
-142
-363
-374
-141
-371
-291
52
107
-110
-52
261
-1
-79
106
-125
-7
357
375
331
318
375
185
184
372
318
350
194
529
518
180
365
372
197
535
576
593
619
392
637
575
528
572
437
788
779
445
397
426
481
500
487
491
775
779
470
401
637
425
495
809
860
644
641
829
476
424
455
778
802
498
414
613
601
619
388
407
429
454
464
433
609
520
237
543
605
592
235
382
337
344
334
289
-1
269
292
263
-69
-128
118
116
72
0
-295
-290
-288
-340
-185
-532
-558
-250
-151
-328
-322
-135
-219
-245
-212
-185
-219
-554
-621
-410
-474
-816
-857
-792
-409
-594
-629
-442
-446
-392
-631
-441
-770
-493
-389
-573
-606
-429
-441
-614
-517
-233
-527
-566
-577
-590
-632
-413
-393
-570
-234
-205
-216
-224
-218
-222
-251
-537
-534
-238
-208
-231
-551
-595
-558
-189
-332
-287
-311
-349
-360
-357
-371
-144
-153
-379
-340
-340
-380
-159
-157
-130
-363
-352
-327
-282
0
-297
-141
-227
-222
-380
-274
2
-336
-187
-226
-177
-356
-318
-333
-351
-341
-321
-329
-375
-176
-210
-198
-140
-317
-264
-269
-325
-375
-365
-298
25
40
-261
-325
-375
-149
-161
-153
-374
-330
-313
-350
-168
-231
-241
-202
-151
-371
-348
-335
-341
-383
-185
-204
-156
-344
-325
-369
-161
-161
-130
-370
-370
-335
3
60
14
-376
-232
-236
-157
-339
-315
-317
-307
-293
-301
-330
-348
-328
-288
0
3
-278
-321
-361
-360
-306
29
84
93
82
83
84
53
2
-272
33
116
-98
117
30
-285
-267
75
-78
-21
-44
-122
59
34
57
84
85
73
84
-127
-63
259
312
341
334
303
298
350
164
167
322
-57
-72
327
527
388
633
576
568
623
432
464
471
472
445
612
222
372
343
360
343
-12
99
-271
-318
-329
-352
-137
-159
-381
-296
40
57
0
-341
-133
-372
-325
-311
-355
-172
-219
-224
-216
-216
-207
-155
-327
-281
-320
-164
-238
-227
-149
-324
-291
-313
-365
-155
-157
-348
24
-93
330
563
873
937
1165
1266
1571
1421
1883
2142
2372
2265
2567
2252
2357
2140
1852
1173
803
0
-1077
-1467
-2094
-1984
-1998
-2165
-1686
-1588
-943
-895
-452
-578
-189
-334
-317
-150
-524
-588
-582
-532
-206
-375
-290
-257
-301
-380
-159
-369
-275
78
-103
-57
-55
-110
62
15
46
-126
-49
-18
-11
266
303
323
306
279
291
355
177
216
204
178
176
204
248
558
620
416
416
604
517
230
534
611
391
631
606
606
623
627
608
595
611
399
450
491
770
508
474
444
465
804
882
870
497
618
578
406
795
879
888
858
830
806
770
477
466
479
487
460
405
613
602
630
413
415
608
253
172
137
370
307
-45
-102
-62
293
347
289
-98
50
23
57
92
90
44
-281
-349
-140
-160
-155
-136
-365
-341
-345
-132
-201
-256
-528
-521
-521
-545
-588
-387
-453
-769
-786
-490
-428
-390
-391
-399
-393
-396
-434
-483
-489
-441
-390
-389
-424
-440
-430
-433
-467
-479
-406
-544
-242
-580
-445
-467
-619
-242
-219
-534
-575
-549
-247
-249
-554
-587
-560
-238
-181
-158
-173
-212
-513
-534
-251
-178
-354
-312
-329
-132
-199
-227
-193
-374
-317
-324
-380
-169
-155
-354
-304
-287
-275
16
53
37
-316
-188
-252
-201
-335
11
-259
-353
-174
-161
-328
13
37
19
8
18
16
-278
-323
-323
-279
6
-285
-360
-144
-377
-340
-347
-382
-373
-290
58
63
-291
-153
-195
-155
-356
-343
-362
-371
-358
-351
-373
-149
-148
-357
-303
-295
-351
-180
-231
-205
-375
-285
17
6
-286
-310
-316
-322
-341
-363
-362
-330
-293
-295
-353
-169
-179
-342
43
91
5
-137
-204
-162
-359
-378
-191
-192
-329
77
-122
80
14
23
88
-119
-115
121
90
38
-290
-336
-315
18
98
-107
-81
-72
-95
110
79
112
-64
-5
-22
-98
88
64
84
125
-85
-40
-9
260
266
287
329
369
379
360
341
357
143
158
364
287
275
382
551
394
614
515
220
540
637
421
397
621
609
579
235
372
292
279
285
-21
110
-289
-381
-150
-136
-366
-339
-305
-268
9
-259
-308
-383
-196
-219
-180
-377
-375
-207
-590
-392
-582
-191
-350
-345
-143
-177
-166
-154
-179
-206
-165
-305
60
69
-276
-352
-307
107
279
151
541
497
1044
1314
1215
1537
1633
1863
1956
2303
2515
2544
2446
2567
2419
1931
1509
1111
310
-485
-1401
-1868
-2147
-2001
-1954
-1769
-1490
-1184
-909
-685
-507
-617
-522
-250
-564
-638
-401
-608
-528
-212
-182
-155
-369
-327
-315
-331
-342
-319
5
96
-79
-36
-41
-82
118
70
54
84
-103
-26
278
274
-20
-51
-43
260
330
151
223
520
247
184
129
133
195
515
527
234
194
185
200
232
550
398
505
801
492
407
632
424
483
484
433
398
418
461
472
453
460
779
857
882
843
799
798
819
810
771
768
848
703
734
642
770
464
509
812
784
453
414
432
445
393
563
526
575
397
412
585
192
323
-6
-23
-3
281
286
-11
-91
79
26
28
67
106
115
76
-261
-352
-164
-187
-178
-170
-179
-191
-204
-230
-529
-557
-533
-215
-170
-189
-514
-593
-411
-486
-797
-783
-448
-389
-429
-792
-849
-795
-452
-440
-512
-816
-511
-417
-640
-449
-787
-789
-441
-580
-521
-546
-621
-429
-451
-436
-409
-639
-614
-581
-548
-533
-536
-540
-528
-240
-191
-142
-379
-152
-205
-233
-204
-143
-358
-357
-367
-355
-339
-359
-155
-185
-148
-323
-273
-301
-379
-179
-169
-366
-304
-270
-264
-268
-280
-305
-350
-139
-148
-366
-315
-298
-330
-382
-153
-140
-365
-342
-329
-306
-270
-257
-304
-140
-195
-147
-275
83
80
3
-321
-340
-343
-361
-372
-347
-316
-337
-150
-189
-154
-350
-343
-380
-374
-293
37
8
-369
-210
-195
-359
-289
-292
-347
-145
-179
-192
-178
-129
-313
3
20
-276
-359
-192
-242
-230
-173
-381
-137
-205
-528
-525
-185
-329
-268
-279
-311
-309
-279
-286
-360
-188
-200
-378
-281
10
-270
-293
-291
-286
-301
-306
-259
81
-127
105
53
45
107
-56
274
309
307
268
-56
-113
-122
-92
-72
-89
-105
-76
-20
257
-31
-42
305
214
578
540
160
349
155
521
561
251
188
191
225
205
367
268
-28
-23
-35
-90
104
61
12
-328
-154
-151
-306
59
66
-303
-188
-250
-211
-133
-343
-346
-369
-133
-149
-172
-198
-209
-196
-169
-145
-131
-376
-371
-133
-171
-184
-133
-293
26
-266
-363
-149
-322
117
318
242
431
654
1140
1319
1162
1216
1556
1464
1688
2144
1962
2134
1690
1487
1544
1007
793
115
-665
-1625
-2109
-2337
-2377
-2323
-1954
-1736
-1632
-935
-814
-607
-538
-240
-169
-372
-147
-248
-581
-567
-217
-359
-272
41
81
101
96
71
43
39
77
-102
-20
281
272
-28
-73
-87
-53
283
371
156
376
303
265
298
365
149
153
172
231
548
557
516
233
530
619
428
414
592
512
222
232
512
539
586
408
488
772
478
426
436
775
859
864
787
443
409
418
426
422
440
501
828
853
820
511
489
770
815
843
844
831
818
815
805
774
480
473
777
849
869
803
436
627
401
478
772
472
639
561
249
190
369
296
-8
-40
-87
99
33
-260
-277
-293
-299
-270
43
79
48
-288
-351
-362
-350
-361
-147
-196
-251
-589
-439
-510
-486
-387
-559
-557
-615
-400
-394
-390
-438
-772
-808
-776
-479
-512
-872
-696
-662
-771
-610
-532
-554
-623
-423
-443
-449
-459
-475
-482
-467
-436
-411
-403
-404
-395
-620
-567
-250
-213
-231
-559
-385
-404
-585
-212
-143
-159
-213
-234
-209
-183
-195
-227
-231
-198
-168
-173
-200
-212
-189
-143
-355
-324
-306
-302
-320
-364
-159
-181
-148
-337
-282
-275
-317
-367
-130
-364
-318
-270
14
5
-298
-356
-129
-365
-317
-278
-259
19
61
95
83
13
-319
-343
-299
19
26
-308
-171
-254
-247
-163
-316
7
25
7
-285
-327
-361
-357
-312
-260
14
-276
-335
-136
-179
-188
-148
-317
24
35
-296
-383
-129
-291
76
114
74
13
-276
-282
-285
-290
-291
-290
-286
-272
16
49
45
-268
-339
-353
-287
68
-127
122
81
59
78
111
123
120
-128
-96
-78
-123
30
-305
-283
81
-67
-27
-42
-56
-47
-39
-37
269
139
525
531
377
-64
-111
281
216
560
514
168
131
155
184
180
144
345
280
-45
-107
94
26
-314
-377
-373
-299
30
27
-308
-382
-384
-323
-263
1
-281
-291
-272
-267
-312
-381
-142
-324
48
99
27
-358
-167
-373
-276
18
-284
-344
-341
-288
-263
-299
-329
3
-47
221
465
664
1122
1356
1562
1643
1589
1279
1632
1866
1772
1918
1578
1007
901
1142
654
312
-478
-1403
-1799
-1733
-2104
-2154
-2067
-1823
-1241
-930
-673
-456
-527
-133
-320
-322
-375
-187
-224
-212
-166
-374
-332
-285
15
17
-301
-382
-148
-331
44
-124
-108
120
100
111
-111
-70
-26
282
340
134
160
156
133
364
356
381
190
530
580
557
229
186
229
585
408
419
390
625
617
602
581
590
399
486
784
503
457
456
510
813
810
779
777
816
842
800
459
419
474
838
664
688
683
674
653
866
834
856
661
694
653
824
510
494
487
478
486
776
792
482
631
551
551
599
621
591
553
539
524
207
364
294
301
348
352
277
-96
66
16
-269
-287
-280
11
30
-270
-368
-196
-215
-192
-195
-241
-542
-545
-533
-557
-620
-403
-628
-556
-521
-553
-612
-386
-387
-394
-416
-424
-394
-604
-597
-395
-483
-809
-827
-790
-462
-385
-601
-629
-453
-509
-474
-614
-243
-210
-249
-541
-532
-249
-242
-243
-219
-172
-149
-181
-231
-245
-227
-226
-513
-519
-190
-341
-311
-141
-518
-550
-202
-322
8
-257
-295
-308
-298
-298
-321
-344
-340
-311
-298
-334
-147
-202
-203
-161
-370
-341
-328
-327
-348
-137
-174
-157
-333
18
59
31
-282
-320
-321
-308
-304
-303
-294
-288
-304
-341
-369
-357
-312
-273
-270
-287
-296
-301
-339
-163
-239
-248
-175
-322
8
14
-284
-318
-298
30
101
109
45
-297
-346
-351
-358
-138
-168
-143
-330
-285
-318
-146
-200
-174
-344
-260
34
26
4
-258
12
29
