69
-160
-638
-249
-28
607
231
23
-218
103
395
818
190
1
-273
345
571
344
-348
-256
2
160
629
552
331
107
-331
-206
-236
-166
-373
-184
-622
-830
-708
-717
-872
-446
-520
-377
-298
-269
-266
-273
-267
46
118
-124
49
-334
-160
-151
-349
-277
100
287
212
529
153
-67
14
-295
44
-46
351
363
-8
-120
-92
317
182
161
307
-8
259
-26
112
5
34
-77
317
369
353
315
-2
-82
-110
264
238
401
590
329
96
95
313
565
434
432
429
768
884
664
834
432
602
620
449
777
770
412
521
208
596
856
765
662
622
137
134
238
216
303
-44
364
594
568
-70
-244
-592
-314
-25
-59
-362
-580
-241
-259
99
-276
-158
-361
93
-50
84
-180
-625
-601
-159
39
117
47
-340
-187
-227
-228
-212
-148
-277
100
61
-186
-464
-509
-226
-66
195
240
255
445
1045
1362
1262
1566
1644
1793
1677
1703
1845
1653
1185
973
761
805
577
294
-340
-512
-1101
-963
-1124
-693
-843
-828
-821
-487
-602
-192
-309
54
125
-103
-106
-106
-104
-111
127
-119
-51
303
369
374
345
331
361
188
575
456
508
402
179
-7
-30
343
223
556
609
436
495
427
244
351
371
519
597
220
-15
88
112
-28
319
131
253
427
782
448
523
165
228
631
462
449
400
606
536
184
144
236
411
775
472
600
518
253
242
196
188
530
391
402
525
135
168
631
842
652
833
474
417
620
512
373
322
195
459
707
1047
717
869
855
660
685
866
489
424
418
628
238
374
162
385
863
878
414
144
-29
-74
-60
-43
-25
257
264
-18
-47
-40
263
333
152
214
219
377
-68
17
-272
90
-36
259
-29
-52
-47
-85
43
-338
-317
122
297
278
70
-379
-371
68
-20
260
-65
-102
-80
-103
12
-164
-234
-146
8
104
111
79
55
38
32
78
-63
320
354
-4
84
-285
-261
-122
295
379
335
-54
85
76
-92
-10
-9
-45
-10
355
145
270
50
-325
-257
-101
-7
274
313
135
182
158
148
515
466
873
852
435
514
164
168
512
408
819
887
822
418
564
582
455
872
718
723
648
789
417
594
589
410
488
458
539
315
-69
-52
270
291
281
305
331
260
85
-302
0
-99
-21
-81
122
-52
331
297
63
-171
-197
-299
70
3
-187
-602
-398
-618
-252
-323
-123
-42
103
-360
-231
-205
-367
-319
-305
30
-27
227
435
849
1024
991
1195
1570
1640
1483
1862
1890
1471
1183
954
1135
1074
785
-63
-499
-996
-1182
-1201
-1235
-1554
-1263
-1333
-1110
-736
-699
-815
-224
-101
325
-29
55
34
-76
329
372
361
139
213
215
338
-94
100
-47
148
556
592
527
165
342
328
370
180
240
543
577
581
534
202
179
528
447
845
855
492
633
601
402
491
821
863
867
827
498
435
418
444
488
789
836
878
873
790
415
599
607
409
464
503
782
506
413
539
217
541
443
811
779
633
236
200
549
459
874
708
709
889
493
568
139
294
289
328
314
-56
35
-339
-363
-330
-288
13
61
88
49
-305
-139
-149
-337
4
44
15
-330
-187
-531
-551
-238
-137
-288
55
119
-115
98
8
-326
-345
-321
-305
-322
-357
-147
-213
-549
-577
-239
-342
13
-282
-164
-544
-608
-386
-401
-609
-224
-351
-346
-223
-634
-415
-559
-369
46
89
3
-153
-249
-195
-282
-121
-62
-81
-108
-124
85
-259
-332
-336
-295
-271
-293
-346
-160
-251
-602
-640
-571
-175
-310
-288
-367
-220
-526
-202
-298
109
-109
56
-343
-200
-522
-574
-603
-567
-204
-361
-356
-177
-234
-214
-155
-129
-144
-158
-148
-153
-216
-559
-569
-192
1
-96
-24
-11
257
274
280
290
357
251
427
777
475
608
540
610
788
716
1079
1089
1035
697
880
835
834
877
691
737
691
774
532
352
332
192
559
538
134
-28
-118
126
-99
-42
287
347
362
336
298
-3
-74
101
73
-111
265
319
260
-100
104
122
-90
-39
288
355
332
-88
-311
-188
-168
-334
-292
-310
-323
-295
-263
20
110
351
449
1024
941
994
1020
1326
1399
1264
1487
1789
2019
2022
2068
1818
1408
1552
1322
893
342
-191
-888
-971
-1201
-1553
-1250
-1346
-1122
-896
-478
-429
-478
-784
-484
-591
-172
-341
-338
-369
-370
-320
24
-128
-46
-25
-79
75
-267
-276
68
-31
383
228
516
246
215
181
148
132
163
236
553
549
238
196
213
533
595
394
471
838
665
645
783
403
639
496
650
721
652
493
608
564
616
454
817
668
748
748
657
804
791
644
766
1038
693
851
796
478
606
210
184
565
455
466
578
159
352
132
191
229
519
553
536
165
-1
-109
-78
322
215
529
210
319
-100
43
6
17
20
-263
-302
-322
-332
-358
-141
-150
-356
-269
48
42
-281
-368
-172
-157
-295
-96
350
171
359
-41
112
123
-17
383
223
228
154
317
260
258
274
265
-27
-55
-60
-74
118
20
-275
78
283
201
222
343
-82
102
-108
-7
332
374
380
353
292
-41
-87
-77
-27
290
337
352
316
-26
-107
-104
257
132
193
166
376
355
328
-112
99
15
47
-122
-108
31
-139
-228
-177
-297
78
126
112
71
18
-301
-354
-354
-273
106
-68
-88
49
-356
-190
-187
-137
-371
-164
-521
-608
-639
-629
-610
-574
-219
-311
80
73
-341
-530
-609
-561
-219
-173
-159
-129
-339
-331
-379
-169
-375
52
263
131
352
-61
29
-295
30
-70
329
372
296
-118
-258
-280
85
-33
273
-43
-117
-111
-50
-31
-89
-122
-19
181
571
525
349
-54
-74
263
364
174
200
201
199
217
525
585
620
386
433
773
823
768
384
555
576
391
409
600
252
156
265
40
-173
-235
-370
50
81
-307
-224
-559
-536
-242
-250
-537
-544
-541
-584
-436
-794
-792
-410
-239
-380
-350
-373
-164
-247
-613
-420
-624
-243
-181
-525
-424
-476
-635
-251
-199
-188
-369
21
66
-309
-202
-158
-111
551
869
1068
991
1219
1458
1898
1777
1924
2379
2587
2473
2506
2463
2669
2660
2657
2299
1990
1481
1140
581
124
-225
-450
-780
-462
-597
-248
-209
-184
-383
-273
-116
301
130
336
-75
40
23
118
-36
258
263
299
349
323
-63
68
107
346
635
505
389
128
-96
75
111
-56
293
365
137
355
279
-14
287
375
167
148
378
147
193
169
314
-37
269
197
608
588
161
262
266
140
513
535
519
553
616
586
153
-53
-88
380
416
809
461
546
242
609
483
498
405
582
588
637
397
634
391
472
856
719
1033
740
840
611
171
142
520
406
442
385
591
600
617
574
240
218
532
573
231
283
90
32
-128
298
181
229
191
368
309
313
366
160
176
163
142
354
259
-124
39
49
-100
280
339
307
-43
105
22
-274
-268
17
24
-284
-132
-256
-615
-413
-397
-560
-170
-321
-311
-148
-530
-600
-573
-217
-375
-344
-143
-254
-609
-637
-582
-226
-137
-348
-350
-144
-234
-586
-618
-533
-362
29
26
-349
-208
-223
-152
-337
-300
8
112
-20
308
306
287
317
146
244
577
623
616
532
134
279
300
208
389
447
605
196
367
129
180
196
190
214
519
530
188
299
-51
-19
368
243
559
553
526
243
198
380
318
330
156
206
374
-91
-264
4
-73
369
180
151
377
361
290
-104
48
103
284
162
371
-70
25
-267
40
94
112
124
-111
-117
63
-321
-162
-139
-257
-114
-83
68
-329
-383
-325
11
32
10
25
96
-119
61
-350
-197
-155
-275
67
35
-332
-195
-552
-386
-452
-454
-633
-539
-242
-520
-573
-616
-626
-579
-217
-343
-277
-333
-206
-539
-218
-288
-82
314
130
161
151
342
-13
-74
-41
314
381
342
-33
-125
-124
-50
286
352
174
530
602
578
216
383
142
250
613
638
587
255
186
376
330
361
512
476
879
848
430
548
557
424
786
799
507
497
503
449
573
198
207
578
388
529
262
0
-129
-131
-353
-335
-319
-295
-292
-343
-181
-522
-549
-255
-162
-302
16
-302
-206
-583
-548
-132
-269
-312
-210
-597
-401
-453
-799
-852
-769
-576
-173
-198
-602
-461
-443
-593
-515
-244
-225
-129
29
-79
309
248
818
940
1241
1626
1640
1411
1499
1857
1909
1675
1734
2098
2165
2080
1534
1336
834
174
-55
97
-288
-540
-847
-758
-657
-615
-306
-111
-30
266
282
-3
-63
-85
-10
139
519
541
202
342
275
279
319
351
382
178
242
519
216
159
180
561
452
773
473
627
518
158
334
330
160
515
527
173
314
277
309
332
334
379
235
584
553
163
327
372
518
396
466
500
505
436
530
355
294
129
524
573
232
345
257
275
381
527
410
494
486
638
227
363
341
146
220
251
254
536
592
634
629
622
430
818
642
813
580
347
-16
268
350
165
220
513
248
179
355
333
374
153
372
279
-52
-76
-91
103
16
-260
88
-21
329
308
-48
119
97
-123
-61
-4
282
270
-49
108
18
-273
26
121
-55
-59
88
-336
-218
-521
-235
-203
-218
-523
-568
-614
-441
-807
-853
-486
-250
-316
-334
-563
-820
-654
-800
-630
-556
-607
-424
-426
-629
-589
-585
-560
-210
-357
-342
-205
-640
-779
-840
-847
-803
-431
-527
-157
-163
-513
-577
-540
-197
-165
-228
-590
-419
-484
-820
-892
-867
-415
-351
-55
337
308
-19
-8
358
231
554
541
220
131
288
-50
-74
-27
314
136
181
182
133
299
-45
-65
262
372
183
167
353
276
-43
-85
-79
256
381
206
159
-20
40
-304
1
97
-116
119
101
121
-107
-112
-115
-30
153
568
542
309
12
-166
-182
-139
-147
-209
-254
-241
-208
-207
-227
-226
-181
-371
-326
-313
-334
-134
-228
-587
-634
-585
-216
-384
-133
-233
-624
-458
-456
-615
-218
-381
-159
-579
-779
-645
-661
-879
-847
-825
-792
-773
-815
-644
-663
-778
-521
-329
-326
-206
-585
-618
-610
-636
-419
-387
-523
-154
-133
-181
-197
-133
-282
72
-101
-27
-4
-89
11
-336
-258
-59
343
323
-71
67
44
83
115
-109
-18
140
542
575
217
317
-33
-8
355
192
217
193
169
175
206
248
555
607
625
574
193
293
-101
55
-271
-302
-288
-264
-312
-221
-443
-845
-830
-436
-554
-244
-523
-577
-634
-437
-488
-496
-444
-385
-396
-504
-894
-691
-881
-502
-412
-386
-632
-604
-595
-399
-507
-814
-482
-578
-205
-200
-254
-254
-138
80
360
441
1081
1169
1614
1624
1575
1638
1857
2097
1920
2065
1907
1835
1798
1607
907
598
-119
-376
-542
-783
-1104
-1354
-1391
-948
-896
-580
-321
102
-94
120
21
-326
-351
-280
104
-59
-80
50
-317
-296
110
271
336
306
-2
-40
-75
-102
-71
310
209
531
207
337
258
-4
278
307
363
197
248
172
-16
66
27
93
-114
110
56
71
-113
-80
-117
-124
270
525
471
485
613
244
237
528
248
167
128
197
568
597
232
328
-2
328
231
608
601
218
304
-77
-110
-62
279
348
364
307
-71
37
-333
-369
-314
54
-106
-82
118
39
24
104
-11
381
207
213
134
-19
53
-338
-354
-268
90
125
77
-270
-349
-382
-367
-320
-263
23
-258
-344
-205
-553
-580
-546
-232
-184
-157
-162
-224
-600
-456
-462
-590
-169
-375
-234
-417
-791
-797
-497
-470
-448
-400
-608
-624
-472
-866
-689
-677
-884
-883
-693
-1037
-1092
-1095
-1075
-1057
-1028
-706
-865
-789
-795
-890
-756
-1083
-1057
-685
-788
-414
-393
-481
-877
-708
-684
-838
-490
-473
-786
-866
-683
-749
-1057
-1057
-720
-854
-780
-805
-893
-713
-715
-893
-771
-398
-598
-635
-482
-804
-490
-568
-365
45
-105
-9
327
341
282
-28
256
356
170
138
289
-71
119
90
90
-122
-32
309
336
295
-20
-52
-54
-48
-31
272
337
355
266
95
-293
-273
-109
332
154
355
-21
-126
66
28
14
54
-100
258
-1
111
-333
-145
-267
-23
131
327
107
-359
-188
-185
-193
-255
-571
-571
-527
-521
-590
-412
-414
-589
-240
-196
-200
-223
-523
-598
-413
-419
-594
-231
-182
-208
-520
-568
-620
-436
-485
-449
-595
-521
-587
-772
-683
-701
-831
-411
-561
-539
-566
-607
-385
-413
-431
-434
-416
-630
-571
-530
-553
-617
-626
-223
58
316
138
282
125
56
67
72
53
83
-55
301
-5
67
-330
-283
-105
280
260
-93
116
-122
-106
-117
-83
306
224
571
524
152
316
275
260
270
337
201
552
540
185
371
144
223
246
184
368
356
358
260
41
-174
-226
-370
-276
-368
-623
-859
-677
-868
-772
-428
-561
-146
-297
-338
-233
-604
-581
-198
-346
-333
-384
-183
-216
-216
-158
-286
120
-55
-102
3
-161
-523
-556
-523
-169
-268
-78
348
215
575
456
657
1148
1337
1164
1154
1384
1163
1275
1419
1796
1879
1917
1870
1419
1306
822
341
-293
-535
-414
-488
-780
-787
-497
-394
-211
22
-19
370
141
340
-12
-106
106
-104
292
208
553
241
337
-76
118
-82
305
192
540
556
250
198
202
514
567
580
574
592
631
390
623
605
384
469
804
829
778
407
518
145
354
128
206
545
599
594
526
191
186
546
447
801
789
475
441
416
601
254
240
602
478
507
415
558
513
530
561
610
450
822
865
772
608
255
560
454
849
894
838
470
612
546
555
634
489
829
851
820
770
471
438
409
405
438
480
473
634
221
335
277
327
193
565
586
209
-7
79
71
-38
380
164
336
-17
-49
-41
-63
-122
104
-110
-48
-56
95
-299
-377
-359
-277
81
-81
-21
-48
64
-138
-532
-513
-363
39
66
-277
-378
-160
-140
-374
-365
-346
-307
-293
-358
-235
-599
-598
-233
-356
-281
-282
-324
-129
-197
-249
-248
-173
-318
8
-261
-332
-149
-181
-165
-378
-335
-317
-339
-135
-196
-244
-533
-549
-523
-186
-342
-289
-321
-152
-223
-229
-160
-301
74
-109
-116
71
19
53
-78
339
223
572
607
570
217
378
356
165
246
521
208
375
299
-12
-38
264
161
619
480
416
227
336
347
205
532
236
154
380
143
134
334
311
137
541
639
627
539
196
143
360
331
344
149
212
210
382
258
-82
-69
295
185
527
238
365
-23
-79
-54
-6
266
-8
-33
-54
-90
99
24
3
67
-69
287
305
-15
-109
63
15
18
81
-70
258
-38
67
-344
-130
-297
102
-52
-22
-30
-65
112
9
-289
57
-20
354
299
-126
6
22
117
-89
-106
-99
260
140
169
299
-104
-88
369
585
619
208
292
256
335
129
345
306
382
531
590
213
266
-91
-11
150
247
234
184
155
134
345
303
333
198
588
635
563
171
316
284
335
182
537
568
246
130
314
339
178
533
601
388
397
593
205
331
290
337
143
158
138
130
379
328
-13
-43
310
224
587
548
159
306
290
349
164
208
215
207
203
209
220
232
515
585
433
508
480
587
143
285
294
131
226
534
551
559
552
521
224
229
571
431
452
559
319
-92
-60
340
181
174
147
195
539
558
218
138
179
584
469
498
401
237
336
-10
268
138
541
612
575
223
151
149
196
248
525
247
207
169
130
345
333
173
427
1029
1326
1217
1244
1258
1572
1650
1469
1825
1724
2139
1940
2107
1706
1889
1904
1877
1641
897
532
-296
-460
-728
-1136
-929
-1138
-1030
-663
-838
-503
-392
-255
-382
-284
36
65
51
14
-267
-257
32
70
121
-67
-28
-73
63
-283
18
-74
348
159
377
282
-89
68
33
103
-2
135
184
149
336
262
-51
-51
309
226
601
584
243
242
391
859
744
1047
1081
1148
916
1059
859
481
806
736
1118
1100
767
737
753
742
689
687
1051
925
934
1053
652
643
756
1112
1132
1129
926
991
957
1062
663
662
1052
931
950
1120
757
690
658
890
878
640
684
715
685
838
447
602
575
608
397
403
610
516
165
369
374
164
219
250
241
180
334
-27
-79
-46
309
149
196
183
380
290
-56
-87
-21
353
161
352
-67
26
-323
-336
-279
97
-20
301
-28
57
-337
-352
-272
71
111
124
-117
-104
-101
-75
281
211
417
798
790
430
581
537
550
585
627
429
490
772
464
611
530
542
386
499
808
786
467
414
397
416
462
782
849
888
857
480
574
217
251
397
795
830
495
638
572
578
633
457
794
849
851
793
451
389
388
438
504
803
798
473
596
186
334
325
142
218
234
199
163
152
144
370
353
153
530
631
613
205
274
-84
-62
293
130
158
375
298
-43
-102
-109
-55
289
351
347
271
-102
52
20
82
-45
341
143
369
307
284
327
151
226
552
638
459
461
622
249
218
561
427
471
406
554
218
180
156
152
222
637
815
640
833
434
585
589
416
501
774
456
600
222
132
365
164
548
436
778
510
419
579
548
592
411
475
776
805
789
450
590
529
588
477
842
820
441
578
518
232
193
178
245
617
402
543
357
264
338
225
551
524
223
201
160
314
-47
-37
370
550
631
593
254
200
181
186
226
557
626
616
237
313
-70
-71
300
203
568
577
253
165
373
131
195
534
607
387
639
616
605
625
424
773
646
1036
1117
1105
1025
700
703
1031
1131
966
1021
992
1122
719
694
1107
1339
1210
1170
1340
1351
1190
1226
1371
931
1086
1125
947
930
1048
643
865
717
1139
995
1012
961
1149
1072
706
824
464
451
768
818
780
396
250
175
198
548
395
452
429
573
151
-6
-82
-47
316
137
361
-26
93
41
100
-26
370
219
253
203
350
-16
-66
-47
267
341
165
241
553
589
408
864
952
1583
1799
1520
1645
1644
1881
1954
2394
2358
2001
1989
2002
2066
1549
847
-32
-176
-406
-834
-735
-1108
-904
-1125
-710
-415
-310
-21
355
333
258
-59
-97
-105
-51
329
217
559
538
165
276
-73
-61
320
232
595
577
219
141
165
525
615
633
598
571
573
575
556
544
604
501
676
1028
744
891
810
831
689
1071
1120
1070
710
875
822
784
484
455
484
826
651
641
788
415
403
784
698
1041
747
661
874
888
648
644
676
1042
916
949
1106
710
643
660
684
682
695
747
1037
722
840
472
460
777
837
863
864
817
433
519
175
516
447
809
465
520
130
151
513
593
618
396
477
803
772
625
207
155
524
472
881
884
479
542
186
233
625
485
498
409
531
162
380
174
546
410
469
439
608
252
171
129
138
195
524
566
569
561
550
513
178
363
128
253
384
407
556
148
315
338
189
559
606
539
363
-103
12
2
102
-22
314
300
-39
-116
125
-81
-2
345
180
252
515
185
346
302
324
355
295
322
363
186
192
322
-106
95
-34
160
241
140
-62
35
16
-128
284
382
371
291
-34
-50
-42
-61
-101
-82
302
222
563
228
320
-17
334
540
445
460
616
513
220
230
247
519
564
622
626
521
349
-27
-9
377
529
631
418
414
616
519
168
380
149
215
543
604
617
549
192
161
522
440
789
463
548
130
288
-8
267
365
255
604
571
189
338
319
360
146
164
164
145
357
307
287
297
305
293
283
302
326
292
-76
54
30
-102
348
220
220
142
343
362
144
383
318
283
320
360
294
115
-313
-340
44
-32
332
330
-8
-108
108
-66
131
603
476
500
491
508
784
506
469
497
850
651
832
410
555
578
423
771
837
646
690
655
790
416
394
468
824
657
723
738
659
502
637
391
502
851
858
825
805
778
458
415
486
668
1075
1063
661
792
785
852
659
716
1070
948
1284
996
900
1104
1137
957
1016
1286
1010
953
1109
738
668
687
1035
1120
1114
750
854
496
490
809
878
660
672
665
882
800
457
434
487
813
819
481
608
225
364
-10
-111
98
126
-59
-7
-27
-112
56
42
-120
293
159
165
302
123
-279
-333
-280
102
-25
303
306
269
-17
-17
267
313
378
191
229
195
364
315
147
391
715
1018
1256
1441
1836
1915
1694
1780
2019
2642
2703
2798
2938
2533
2483
2464
2282
2090
1205
831
295
-155
-804
-1119
-1289
-1020
-1103
-843
-589
-168
-375
-129
-359
25
-33
378
147
307
-80
90
54
45
64
113
-105
101
-313
-203
-179
55
366
559
563
209
381
349
338
326
342
162
531
612
609
532
196
185
529
422
797
818
474
587
226
215
534
606
387
411
463
776
503
388
526
549
473
663
720
677
688
1080
990
1315
1319
1389
1571
1472
1440
1225
1018
987
1383
1553
1646
1657
1622
1556
1201
1372
1378
1229
1593
1585
1191
1282
942
941
939
899
1127
904
949
905
757
876
859
692
1032
1040
740
685
856
457
561
513
626
809
651
858
475
629
591
590
596
609
617
586
229
330
-67
-114
-41
366
238
253
151
274
-43
-17
283
281
259
273
319
315
-54
44
-280
61
-28
343
345
282
-39
-99
72
-274
-291
54
-80
-50
97
-314
-369
-272
-98
301
360
357
328
276
-48
-100
-91
-6
372
211
235
186
360
315
357
227
631
457
440
618
544
515
526
556
587
605
602
583
558
529
237
202
202
520
625
435
638
227
342
311
135
244
576
620
387
628
559
220
210
557
405
419
588
219
146
343
265
-38
282
182
551
512
372
282
312
133
164
155
171
201
137
-60
-260
-268
-54
201
550
200
309
-27
-32
-21
-6
293
352
362
284
-96
75
71
124
-70
-21
264
-7
-88
45
-312
-330
-259
110
-54
-11
-16
-59
-123
87
108
-34
130
243
226
356
-23
-38
332
246
635
430
402
577
236
206
514
616
435
436
395
631
638
628
582
554
608
473
825
827
503
442
417
397
619
605
396
472
480
628
215
133
194
606
495
811
778
430
568
200
144
177
532
614
600
244
154
154
235
592
416
476
769
491
632
209
346
331
133
189
212
243
562
616
612
580
616
771
711
1064
739
836
461
447
499
802
817
812
794
484
394
566
552
623
471
781
494
408
573
242
174
378
365
383
131
318
-87
0
-373
-141
-338
18
120
-75
-84
101
31
40
-108
295
135
129
303
-63
95
34
36
102
-70
-39
-92
69
4
-258
29
88
-50
144
604
461
468
493
667
988
1575
1530
1869
1669
1779
1930
2306
2360
2364
2358
2334
1962
1898
1349
433
112
-519
-474
-896
-1087
-1010
-1369
-1367
-1004
-1057
-786
-532
-155
-202
-600
-466
-502
-473
-420
-613
-536
-203
-172
-216
-565
-385
-627
-234
-283
123
122
4
-347
-311
75
-97
-125
71
94
-70
-43
105
-293
-299
127
334
153
322
-68
-118
-56
314
161
233
547
623
465
798
800
476
428
493
656
1039
746
819
387
616
499
715
898
979
949
1107
1025
759
1065
1115
1132
1139
904
909
1105
745
684
723
1081
905
911
1113
761
885
505
473
834
741
1060
702
782
417
409
437
447
469
796
859
811
627
164
333
133
226
233
136
268
-59
-76
-99
84
-261
-280
58
-91
-91
6
-204
-549
-190
5
117
63
-329
-149
-380
-331
-347
-152
-153
-321
5
-331
-565
-785
-829
-449
-563
-523
-567
-608
-610
-608
-627
-629
-574
-237
-204
-253
-595
-397
-401
-625
-572
-234
-382
-291
-271
-338
-185
-240
-201
-345
21
76
83
62
24
-284
-309
22
-46
155
218
335
90
-344
-360
6
-112
-23
-7
-58
113
52
65
-99
272
348
354
309
-23
-117
53
18
60
-102
-24
-13
-57
-120
83
60
94
-48
368
216
172
-6
64
-262
38
94
77
14
-268
16
39
7
-297
-278
87
-60
-54
88
-328
-196
-256
-522
-234
-163
-350
-329
-354
-377
-355
-309
-291
-315
-340
-329
-320
-141
-581
-510
-813
-403
-129
93
127
-293
-530
-404
-579
-344
120
-94
53
-325
-336
22
-103
-9
304
348
132
157
159
141
366
350
145
535
419
454
614
223
167
208
537
591
639
448
487
422
535
168
173
531
635
430
446
454
447
419
405
458
835
683
665
496
519
370
147
585
788
891
859
500
412
632
628
611
558
215
368
270
-77
81
-286
-141
-212
-219
-165
-342
-293
-315
-142
-221
-200
-311
127
-54
111
-326
-212
-525
-555
-606
-389
-600
-229
-157
-225
-393
-505
-437
-211
23
115
35
-360
-384
55
379
423
824
852
643
1029
898
903
1074
1055
943
1398
1193
1011
702
411
159
125
-228
-818
-1052
-952
-1372
-1559
-1663
-1581
-1328
-1038
-834
-473
-399
-567
-243
-239
-533
-522
-133
71
-45
-64
37
-384
-184
-349
87
-2
324
283
-62
-115
-80
284
146
222
220
129
-28
72
-260
41
-86
301
368
358
295
-38
-80
-57
275
364
149
359
-23
89
18
87
276
219
562
253
138
311
286
259
-56
-98
-44
345
185
154
300
-8
338
244
593
552
183
355
316
281
-29
-64
-23
349
229
576
565
194
307
-4
354
561
467
482
396
586
595
622
609
578
601
431
478
392
203
298
286
161
587
423
405
568
202
372
334
365
201
556
594
543
198
155
172
198
172
352
290
273
-4
-105
-284
-180
-184
-281
-75
276
-53
30
-378
-168
-364
-263
69
76
12
-347
-175
-189
-140
-350
-368
-190
-514
-523
-255
-563
-437
-792
-490
-575
-195
-529
-498
-664
-871
-404
-220
-174
-198
-154
-288
47
-266
-156
-251
-220
-380
-343
-160
-567
-464
-802
-775
-392
-227
-374
-360
-143
-172
-166
-148
-376
-315
31
74
-277
-233
-417
-426
-520
-297
-121
-20
278
257
-79
92
85
-93
-12
260
-23
-35
-36
-77
90
45
-125
284
340
-32
21
-362
-356
-281
74
-55
346
171
366
-45
114
-98
256
283
-32
-93
126
49
-349
-202
-133
117
368
200
138
319
310
314
272
-30
262
370
160
297
88
-276
67
-3
360
327
-24
-83
-101
120
53
17
81
-28
379
203
184
353
272
-7
282
310
-3
121
0
-283
34
110
-86
-16
337
156
136
283
-86
-124
-120
119
78
68
91
82
-272
-141
-168
-324
63
-122
-96
-34
308
313
-50
118
-50
173
565
195
-85
-306
-361
-316
-260
85
-7
161
191
304
-116
-121
298
228
574
611
427
796
870
641
696
1091
1005
1366
1369
1321
1009
965
922
1121
754
786
211
-100
-348
-618
-761
-1208
-1424
-1234
-1098
-881
-727
-1144
-1042
-420
-330
43
28
75
-70
-48
85
-275
65
285
152
287
29
-140
-376
-260
57
39
65
-15
244
635
525
274
100
-125
281
378
351
266
-54
-81
-83
-35
318
157
170
354
289
281
281
-15
-43
303
227
555
381
100
-267
-95
164
525
234
521
450
880
842
639
245
565
464
785
482
445
491
808
805
781
854
753
1066
654
608
368
309
349
365
361
175
598
488
482
635
619
510
694
734
875
508
485
461
571
341
-26
345
579
460
428
593
563
599
622
594
548
250
164
-32
-285
-199
-180
-268
-125
125
0
-364
-356
-273
27
-276
-353
-368
-320
-295
-370
-525
-413
-468
-414
-553
-191
-154
-183
-222
-191
-346
1
2
-346
-193
-520
-614
-783
-720
-1035
-866
-565
-333
-312
-199
-590
-574
-149
59
-62
-42
-79
-106
-106
-94
-74
259
180
409
823
797
629
205
146
187
254
545
516
174
292
-96
-116
297
570
782
801
421
563
573
393
394
530
141
136
253
594
252
295
-114
-70
381
549
571
227
152
160
208
239
253
561
412
504
486
606
218
193
515
567
531
179
344
269
-74
96
91
-58
353
188
169
358
316
318
315
265
-67
-103
-34
368
202
366
-120
-268
112
180
414
603
321
90
54
123
-96
-97
-57
294
347
286
-70
-77
309
231
580
530
131
-20
126
47
-289
-340
-285
-109
320
326
-110
-297
-295
-98
360
133
-9
72
-280
-284
14
58
83
91
113
-90
-52
-111
-278
-177
-157
41
-27
-30
66
-303
12
-107
-63
-127
119
281
517
610
239
361
180
478
1048
924
1132
1027
684
838
443
580
536
241
320
-303
-481
-1074
-1024
-1194
-1651
-1822
-1857
-1508
-1653
-1597
-1546
-1395
-1131
-841
-617
-217
-131
-352
-371
-133
-324
100
281
369
354
306
280
-6
-85
82
97
-11
160
195
318
-107
115
258
214
608
601
221
300
-115
65
120
308
554
492
826
813
801
861
736
1115
898
1111
1042
751
745
717
660
643
733
1149
994
948
1044
646
861
648
727
1081
935
1012
995
1148
1033
723
730
757
1049
1104
897
1150
1091
1054
1104
951
1008
975
921
914
922
1120
739
667
759
964
1356
1289
1060
849
782
838
649
654
865
803
468
612
245
208
535
395
455
422
592
248
178
128
371
159
231
246
147
-13
-122
-109
-9
349
134
371
322
268
-47
-128
29
-298
-287
67
-85
-80
64
-310
-309
80
-19
298
260
-47
-51
-48
-111
32
-274
79
267
135
357
-19
-63
287
174
514
519
252
253
213
329
-123
2
26
-68
128
246
236
146
333
371
250
638
418
597
206
324
-41
-85
-23
382
253
513
166
357
380
162
378
293
297
203
405
468
596
148
305
344
189
513
247
176
328
-38
-107
-97
-19
335
131
364
289
-57
127
-86
80
-106
-11
296
-5
-128
26
35
-102
287
349
333
297
274
-10
-61
-96
-61
279
315
-27
57
-345
-136
-363
-305
24
120
-44
-25
-103
39
-266
60
-42
346
371
273
-112
111
-14
211
405
503
803
862
656
872
477
608
606
452
785
490
617
238
176
172
226
622
838
1026
1056
651
453
387
507
704
1079
1056
696
855
794
498
484
779
868
666
860
436
538
240
540
562
250
177
183
521
561
215
311
-32
283
143
168
317
-81
109
117
112
43
-279
8
-120
-15
-38
93
8
61
-42
341
361
308
-2
-30
-66
-121
124
-30
166
593
630
553
236
573
802
1061
952
938
1081
713
664
652
870
776
392
254
347
114
-210
-850
-952
-1194
-1267
-1195
-1321
-979
-979
-988
-1136
-861
-243
62
-23
293
307
318
336
375
189
540
622
398
634
589
551
536
552
596
411
487
797
794
462
596
239
238
623
820
717
744
649
775
468
802
697
1050
743
825
387
556
572
630
438
786
661
766
748
860
458
442
814
681
693
854
484
412
621
567
529
580
477
648
720
651
769
418
428
769
858
647
651
645
643
893
880
879
673
767
1087
1036
846
606
196
202
583
459
772
480
397
580
552
572
619
409
432
441
462
771
833
861
836
793
793
834
854
784
632
239
223
593
504
883
655
859
772
438
388
630
392
437
496
786
482
597
182
373
201
623
489
482
612
193
334
315
137
524
627
627
518
354
-39
-95
-64
285
143
220
221
152
325
311
133
242
545
229
369
284
262
-14
-102
33
-264
99
281
383
336
-45
-113
-65
295
369
129
370
343
297
-17
-51
-16
344
199
240
190
344
-10
-85
118
105
-80
320
182
162
259
103
92
-28
132
211
206
163
351
-6
-91
-63
365
576
412
595
200
375
378
162
204
525
623
432
634
211
310
294
168
557
555
168
305
301
376
165
143
136
224
618
418
576
144
284
289
362
166
189
213
518
560
544
216
146
152
241
590
592
221
316
-47
-60
-1
346
188
524
545
219
347
-7
-12
309
364
343
-3
-113
48
-274
-288
34
-75
349
178
379
-26
112
116
-26
354
141
347
266
-33
-13
291
312
294
273
288
315
283
-103
-272
-356
-281
-100
310
340
261
-107
80
77
125
-53
302
153
245
540
252
187
168
252
413
800
803
425
535
221
538
402
502
807
819
811
774
447
627
599
391
489
823
837
795
479
435
428
460
772
820
834
805
482
388
561
548
392
816
668
876
451
558
545
388
485
779
803
864
671
648
780
405
415
810
685
669
501
564
223
526
623
436
477
791
877
679
641
768
390
633
476
842
846
474
591
540
596
429
485
501
508
505
429
235
-17
64
57
-81
271
-8
-118
50
48
97
126
-126
-97
-23
295
263
-117
32
52
-51
137
244
229
134
273
-73
-108
-74
277
378
157
355
-9
-74
-25
148
390
877
1040
1139
973
1362
1270
1653
1439
1432
1454
1521
1797
1662
1383
1090
648
815
448
225
-88
-146
-406
-854
-710
-716
-870
-465
-609
-578
-590
-578
-250
-378
34
-74
287
315
258
-105
66
54
119
-43
275
267
-70
80
26
73
-55
332
138
379
329
269
-65
112
100
-24
210
634
598
147
-16
-12
343
374
292
-41
-1
365
147
332
270
351
566
772
849
786
397
531
228
539
401
495
770
507
811
670
762
754
688
691
1065
953
977
1093
894
791
856
1034
935
976
910
1077
1042
1060
1087
1111
907
991
1309
1019
896
1034
755
1075
1145
1151
1100
1045
749
691
843
478
459
836
1030
1142
1074
877
456
428
510
845
846
781
435
592
234
169
199
584
467
499
639
182
267
-71
-83
-69
-46
-8
291
305
264
-64
-107
-82
-3
321
319
-31
78
-295
-308
37
-94
-23
-33
-96
76
-275
-379
-198
-198
-377
-279
37
48
36
22
6
-262
15
89
-76
-38
-99
32
-312
-289
100
269
140
193
176
361
267
-48
-5
137
540
586
528
203
192
200
158
342
349
225
628
630
200
-5
-77
259
383
189
177
142
367
323
263
-20
302
204
622
425
601
194
340
332
153
249
572
580
525
157
291
-20
292
164
525
529
182
319
-12
-22
261
293
310
306
283
-14
-64
-99
-109
-95
-67
-33
258
274
-15
-99
78
71
-96
288
371
359
269
-115
14
-332
-342
5
-110
-22
-60
58
-314
-306
81
-9
354
371
311
-52
87
5
0
82
-53
297
333
334
348
147
239
600
437
494
500
445
603
243
170
152
202
562
429
768
502
398
536
244
572
425
475
424
578
249
242
529
548
544
561
635
483
800
494
602
208
199
587
495
803
448
539
180
190
518
592
389
416
391
547
151
324
366
231
564
534
192
128
340
261
-115
66
118
268
134
147
350
316
325
327
312
340
186
533
224
267
59
45
-12
229
575
212
275
123
47
20
21
87
-28
128
205
166
322
260
277
349
178
246
524
206
315
-93
125
-14
175
549
528
172
358
366
159
201
244
571
395
412
581
185
360
140
253
608
637
612
575
538
237
177
138
157
242
610
437
447
386
567
551
633
779
887
865
461
539
194
242
627
494
814
834
841
847
838
821
826
879
696
726
667
784
621
235
180
216
584
457
780
496
415
612
617
401
409
614
522
163
309
-69
71
-257
-262
22
26
-271
-326
-367
-142
-171
-167
-340
71
-40
264
-59
66
-316
-140
-150
-346
1
44
-261
-353
-379
-277
-92
346
226
567
585
512
131
321
144
615
881
1116
1304
1207
1602
1481
1889
2059
1955
2044
2337
2363
2376
2317
2170
1761
1695
1679
1805
1187
648
363
-301
-557
-440
-485
-472
-458
-482
-775
-505
-423
-560
-188
-332
21
60
16
-309
-298
80
-18
324
296
-55
104
38
7
1
13
50
115
-54
261
-33
88
-307
-335
42
-38
329
329
266
-41
-47
-13
310
137
206
220
167
333
260
-5
324
206
603
418
636
513
383
317
312
329
349
145
239
582
579
227
142
195
392
846
888
479
252
371
149
569
498
872
648
880
840
806
772
487
482
775
832
858
816
465
633
604
392
482
828
872
833
448
533
158
159
527
403
448
623
209
318
-7
264
321
371
379
340
274
-54
-117
103
105
-118
-87
-100
94
15
-303
-341
-365
-373
-342
-281
2
-325
-236
-410
-494
-468
-387
-582
-568
-583
-606
-386
-441
-490
-479
-395
-554
-537
-620
-470
-498
-427
-579
-250
-211
-173
-158
-236
-415
-854
-653
-805
-395
-579
-623
-467
-796
-811
-771
-423
-551
-185
-164
-255
-639
-440
-388
-533
-188
-136
-336
4
79
84
22
-287
7
-126
-7
274
-64
60
-301
-322
7
-115
266
317
273
-79
88
45
47
71
111
-80
-10
268
-60
57
-303
-276
126
263
261
114
-321
-161
-155
-362
-308
16
93
122
50
-341
-169
-134
-276
70
85
46
-273
-363
-212
-533
-252
-161
-357
-138
-230
-556
-582
-600
-628
-622
-543
-193
-205
-621
-836
-704
-671
-788
-637
-530
-226
-232
-541
-606
-638
-615
-565
-543
-585
-434
-818
-660
-687
-894
-800
-451
-392
-626
-627
-640
-413
-464
-780
-805
-505
-419
-631
-446
-863
-732
-710
-799
-600
-224
-200
-224
-520
-579
-394
-426
-634
-531
-205
-232
-589
-420
-424
-604
-253
-200
-202
-239
-559
-396
-489
-770
-422
-249
-367
-346
-167
-256
-554
-558
-554
-544
-516
-236
-515
-605
-471
-821
-843
-785
-420
-584
-588
-451
-861
-665
-830
-412
-574
-595
-412
-456
-471
-772
-858
-670
-656
-828
-481
-436
-450
-771
-865
-681
-671
-827
-456
-425
-498
-859
-653
-892
-850
-792
-447
-611
-594
-437
-851
-712
-737
-701
-650
-852
-803
-800
-881
-742
-1040
-691
-779
-411
-425
-779
-875
-659
-644
-852
-782
-438
-606
-541
-526
-559
-598
-590
-255
-133
-290
-267
-312
-382
-178
-193
-171
-364
-265
65
48
-331
-236
-598
-602
-534
-195
-379
-319
-296
-349
-215
-574
-553
-148
4
17
-135
-597
-460
-443
-604
-513
-200
-158
-373
-361
-153
-239
-556
-540
-194
-358
-326
-366
-187
-516
-569
-602
-600
-548
-221
-197
-522
-392
-473
-432
-545
-139
-314
-313
-364
-187
-528
-582
-554
-183
-296
58
75
32
-280
-314
-308
-259
52
51
-296
-178
-523
-255
-190
-155
-174
-196
-176
-156
-226
-410
-881
-753
-734
-880
-800
-846
-750
-918
-970
-1112
-648
-469
-393
-400
-426
-441
-462
-505
-817
-849
-841
-807
-788
-828
-670
-762
-748
-840
-612
-222
-523
-420
-797
-826
-807
-799
-789
-474
-617
-252
-184
-377
10
-11
546
859
1118
1009
1010
921
896
1310
1603
1834
1843
1425
1277
1214
1349
730
159
-372
-415
-822
-1067
-1239
-1673
-2125
-1785
-1844
-1436
-1601
-1247
-1393
-1331
-1342
-1364
-1322
-952
-1071
-721
-706
-1037
-910
-1010
-999
-1128
-712
-870
-852
-876
-646
-667
-693
-711
-686
-861
-507
-461
-778
-664
-1042
-1034
-876
-418
-563
-582
-391
-387
-537
-134
-261
108
-27
338
375
304
-86
70
76
-67
338
173
148
282
-102
119
-54
348
207
243
218
172
381
342
331
377
223
584
613
536
151
324
354
219
608
420
403
592
520
210
183
183
206
239
255
238
195
139
340
296
286
326
132
153
346
-31
110
37
-274
-324
-343
-297
36
26
-134
-603
-433
-564
-346
18
-320
-236
-608
-389
-426
-494
-784
-472
-395
-419
-825
-720
-734
-877
-509
-484
-770
-774
-490
-500
-842
-700
-755
-717
-887
-819
-804
-838
-660
-755
-1065
-759
-870
-462
-417
-503
-892
-692
-882
-496
-636
-567
-526
-240
-249
-578
-423
-464
-387
-229
-370
-136
-541
-457
-798
-508
-402
-553
-232
-205
-195
-199
-216
-244
-517
-242
-192
-147
-150
-221
-591
-419
-411
-565
-170
-331
-320
-384
-226
-578
-391
-405
-598
-218
-354
-318
-138
-519
-578
-248
-342
39
29
-369
-546
-407
-438
-414
-385
-620
-589
-544
-515
-532
-589
-637
-637
-595
-552
-539
-556
-597
-410
-500
-816
-790
-415
-535
-222
-537
-406
-772
-822
-809
-493
-420
-634
-411
-775
-895
-685
-872
-465
-569
-237
-518
-602
-430
-473
-473
-450
-400
-559
-171
-322
-303
-347
-366
-293
111
-7
296
-14
121
-277
-380
-372
12
-79
-2
-63
74
13
26
35
-271
-320
-269
123
-48
-125
-301
-149
-344
55
-118
120
84
93
114
84
31
49
-86
294
299
-84
24
-301
-297
-281
-267
38
-122
-29
258
-43
-123
70
47
58
73
40
-332
-249
-396
-440
-636
-533
-182
-368
-325
-335
-158
-523
-578
-536
-180
-361
-358
-150
-210
-516
-544
-521
-165
-276
72
21
-160
-612
-443
-396
-555
-242
-245
-516
-249
-226
-221
-226
-185
-320
86
-101
74
-367
-526
-556
-205
-322
44
99
114
104
78
59
69
105
-120
-120
110
77
40
-265
-310
-313
17
-106
271
316
267
-81
113
-128
-39
324
128
359
264
-98
95
93
-118
-48
292
373
156
372
263
-104
123
-40
130
530
560
199
282
-84
-35
149
579
594
177
-33
105
103
-126
124
119
-71
307
383
331
-69
83
112
258
154
207
155
334
307
332
351
345
372
232
391
454
599
145
295
353
226
544
250
180
378
299
-72
97
112
-59
-35
111
-322
-184
-202
-185
-180
-143
-272
-85
311
342
308
287
300
321
339
377
170
164
308
-101
96
-49
156
546
524
134
-8
-95
-117
-73
293
174
529
573
608
446
860
1037
959
1172
1429
1895
1689
1856
1799
1669
2172
2317
1972
1744
1816
1448
1250
1086
529
59
-195
-564
-440
-654
-1130
-999
-983
-1092
-853
-596
-161
-375
-187
-521
-532
-207
-347
47
-70
283
296
-37
116
58
71
-126
-64
-23
-19
-60
-116
-116
-17
143
515
517
169
323
271
265
280
312
383
229
567
572
241
139
343
134
524
423
776
781
469
410
398
440
773
861
669
679
887
813
501
493
790
859
678
732
742
701
892
852
875
717
1118
985
1012
916
757
648
654
744
1096
1147
907
913
908
1138
1100
1076
1092
1143
934
921
1064
876
466
449
832
725
760
657
770
424
403
422
467
790
832
777
611
160
284
-29
-76
113
69
92
-114
127
17
-357
-375
-281
91
-116
118
78
36
-297
-161
-520
-521
-156
-292
-282
-157
-602
-472
-464
-607
-223
-155
-162
-220
-548
-603
-620
-574
-206
-338
-289
-362
-248
-609
-619
-568
-254
-197
-375
-288
8
-269
-282
51
-46
356
157
135
350
309
-2
-59
-76
-28
308
365
382
367
331
277
-13
281
147
536
580
254
134
308
297
338
152
239
566
582
523
167
342
329
142
527
397
439
602
153
-17
-45
334
247
585
540
170
319
-4
-43
-60
-50
-17
258
-23
-89
106
90
121
-64
288
381
170
132
282
-80
-118
-71
275
350
370
325
-23
-112
107
-120
-61
-18
-7
-16
-38
-95
58
-302
-323
29
-80
266
-11
-93
123
-84
282
381
165
137
312
-49
116
77
101
-85
271
136
523
626
639
544
153
336
373
217
540
513
156
300
-13
274
135
554
425
439
597
216
155
177
228
520
548
589
611
552
159
303
315
186
564
576
226
356
259
-43
-41
277
134
246
553
530
214
167
156
176
214
252
252
177
284
117
11
8
85
-76
-5
290
311
316
299
274
276
322
375
376
311
-34
-97
122
85
66
-125
300
218
246
332
94
-279
48
-52
290
257
-79
-125
-127
-113
-98
-60
263
331
361
338
277
-33
-22
358
572
772
854
801
444
397
427
484
782
812
838
842
803
493
493
839
733
1122
911
1117
761
675
895
646
676
729
1073
921
969
898
737
858
843
677
765
1024
699
884
854
853
866
656
747
1097
1103
713
484
531
162
128
128
145
190
245
238
131
-16
-92
-47
312
369
333
-23
108
-279
-381
-132
-258
-64
299
-27
54
-312
4
-91
279
279
-24
-29
-1
-13
-76
-88
318
611
640
1056
1119
934
1314
1176
1211
1187
1186
1231
1251
1402
902
873
406
562
252
377
98
-556
-701
-972
-1310
-994
-1142
-1059
-750
-696
-879
-784
-407
-256
-352
40
123
-96
-84
-85
-99
-115
-97
-12
365
201
214
150
320
273
298
135
252
584
586
528
206
186
221
550
637
459
508
503
443
607
525
248
569
438
805
824
471
588
516
563
428
792
835
822
772
437
588
235
212
546
417
497
468
610
514
531
412
847
698
687
857
768
462
447
446
460
771
874
728
1026
702
821
460
470
838
695
696
823
633
230
174
188
224
519
575
396
457
459
398
585
571
621
426
423
573
374
-104
12
38
-31
198
587
583
528
531
619
468
771
493
438
629
551
216
168
171
211
523
597
443
786
775
632
186
338
371
205
233
167
339
308
320
325
330
146
552
423
405
245
342
315
140
202
179
137
156
197
140
-45
33
25
-67
363
128
-5
80
-276
-284
28
-125
257
354
366
283
-78
-117
-67
279
343
352
317
268
-30
-48
-31
266
311
334
333
314
269
-71
85
37
105
264
137
128
-3
-124
-127
-41
282
300
343
215
615
385
526
147
168
573
436
419
565
218
184
152
351
339
185
606
439
633
238
147
152
209
536
624
471
770
426
247
371
130
243
587
587
543
255
227
171
364
364
201
580
388
627
570
517
217
191
220
575
428
447
596
174
317
311
132
248
599
613
254
328
-84
-121
-50
288
305
273
-13
-31
-72
123
107
-69
326
161
130
270
-85
-95
-30
291
300
270
262
307
362
342
-32
91
67
-76
329
381
296
-95
85
101
-86
-2
343
172
213
175
340
280
318
188
587
415
419
632
591
595
391
471
814
894
693
688
847
439
586
610
489
870
887
812
474
438
429
429
466
829
706
1024
707
832
483
493
843
710
1071
1118
1073
688
804
488
795
659
767
1069
1056
756
713
702
734
1054
1115
1146
1143
1117
1062
717
864
782
776
844
662
663
824
441
637
435
806
880
846
473
616
554
513
188
356
317
377
229
525
179
272
-106
-128
-91
-63
-66
-73
-88
104
-275
-375
-341
106
332
169
322
112
-311
-337
20
-95
-2
264
-34
-77
-95
-86
-51
295
200
638
502
796
821
668
1121
1358
1588
1532
1915
1914
1796
1425
1429
1519
1531
1623
1382
976
915
760
639
-108
-211
-565
-518
-531
-415
-844
-671
-887
-509
-595
-133
74
-47
-52
80
-300
-309
79
265
383
376
277
-88
115
-112
-13
377
235
528
206
330
-50
-99
-69
-5
297
316
333
371
155
172
176
206
545
636
401
585
214
136
374
132
160
220
572
396
388
545
181
154
222
591
440
502
494
409
554
517
598
476
810
798
503
492
485
446
421
506
714
933
1295
1012
936
1148
1147
912
947
1001
1308
1316
1007
917
1095
1078
1145
1021
1388
1385
987
1057
711
766
1146
982
1009
1001
974
1142
728
833
802
651
1025
757
860
437
634
424
472
462
439
466
779
780
420
517
144
378
178
514
549
222
294
87
-268
43
-91
-28
-60
-127
77
25
-301
-354
-332
14
84
70
1
-314
-339
-347
-345
-312
2
41
29
-269
-304
-330
-369
-144
-346
74
-10
278
-127
-333
-172
-359
51
-84
-53
-106
37
-352
-174
-384
32
-67
-39
113
2
16
-103
286
323
309
352
221
590
577
177
272
-34
328
516
401
406
537
135
349
174
541
579
545
521
551
585
552
207
155
219
626
491
487
619
211
137
181
555
407
446
419
614
534
187
367
362
199
586
398
612
516
205
224
533
581
623
407
412
590
176
279
-42
-11
318
373
141
134
340
256
-61
-35
343
234
564
528
154
273
-68
-54
314
186
219
135
281
-4
298
312
-19
-103
-77
309
152
372
-10
-88
-56
293
378
195
524
540
176
-10
-105
278
564
797
837
485
413
443
768
784
500
506
829
881
821
408
536
559
465
642
713
657
801
454
416
412
424
452
499
811
840
798
421
535
212
531
417
778
777
449
395
396
418
432
465
804
640
647
779
601
242
536
407
777
814
776
436
587
243
211
250
586
638
614
527
165
340
310
338
168
541
627
623
529
164
130
195
551
609
590
530
224
190
163
143
156
214
531
534
205
354
275
-11
-6
276
327
146
204
188
350
-9
-46
261
362
207
543
591
597
565
537
566
421
839
719
756
665
497
617
612
494
673
764
734
662
641
683
733
755
1038
1100
910
909
1071
681
845
821
844
890
697
753
748
651
770
444
508
655
756
728
844
425
571
534
541
560
565
543
231
148
312
-11
-26
270
333
370
360
323
274
-45
-123
88
-121
265
372
352
-41
72
25
57
93
124
-72
264
270
-113
-288
-337
68
319
531
420
800
656
721
757
1141
1175
1502
1893
1518
1600
1612
1807
1689
1853
1621
1213
1198
1380
1040
224
-287
-527
-514
-196
-242
-630
-470
-441
-565
-156
-281
101
-16
344
337
-43
77
70
-36
160
517
220
379
338
132
218
524
519
249
540
631
453
431
546
141
137
583
840
723
665
508
406
418
472
492
486
509
813
811
458
589
565
437
644
1054
1081
740
862
485
429
466
827
666
676
855
501
448
458
509
832
648
702
709
664
856
826
854
661
722
756
1024
763
736
684
879
850
886
724
1067
1075
738
879
799
784
818
873
677
716
696
860
481
407
430
786
893
685
649
803
429
618
384
478
831
871
837
500
391
529
186
181
530
395
427
571
375
-30
-45
306
161
204
158
330
272
260
262
-15
-49
-41
286
369
130
313
-50
-108
-87
-24
277
280
-9
-65
117
53
33
80
-77
288
368
132
324
-59
82
62
-107
-4
-4
118
-314
-155
-138
-321
5
72
-99
-25
-31
119
-260
-297
33
-113
-71
-116
68
20
-259
-273
-261
70
-64
284
276
-78
69
10
-262
-260
25
104
-48
-7
-80
57
15
103
-7
338
336
292
-2
-31
-55
-44
305
214
637
473
463
390
563
521
547
633
475
776
486
401
586
570
608
415
475
510
504
441
576
180
350
133
546
460
510
401
230
142
200
596
452
482
446
389
590
541
245
218
206
212
245
556
598
583
519
221
528
412
810
861
799
421
560
216
156
133
166
231
251
165
264
-107
-100
256
362
164
180
164
352
-23
-121
-109
269
141
173
374
317
314
334
326
296
303
369
169
368
-71
0
-284
-116
372
232
171
295
-21
275
319
289
-25
263
157
577
618
518
150
150
252
597
587
512
205
209
216
187
170
242
397
790
805
433
523
136
338
375
239
384
457
393
235
364
354
186
546
608
620
593
533
204
157
171
254
612
421
422
619
517
148
334
354
202
561
571
219
368
346
149
198
181
147
171
235
224
327
113
-258
61
-30
361
144
374
326
277
-18
-27
275
357
169
168
349
-14
-87
-80
262
371
169
134
293
-67
126
-126
-40
366
516
584
546
194
380
372
159
243
627
778
879
867
781
474
784
892
705
716
730
1039
1083
1067
1029
1062
952
1374
1173
1327
1133
686
805
477
483
829
708
1058
1050
698
858
844
667
763
1038
683
506
593
238
208
192
152
373
132
199
237
175
307
-6
347
538
409
629
217
320
-18
-55
-83
-80
-6
357
147
336
-44
-126
-123
-80
-50
-55
-91
99
13
-292
14
-72
177
445
709
952
1391
1235
1279
1590
1439
1831
1691
1758
1761
1687
1799
1639
1273
1206
1322
739
238
-303
-497
-1079
-1304
-1162
-1389
-991
-1098
-1033
-1030
-727
-818
-579
-131
-332
-147
-250
-551
-513
-176
-344
8
-128
-3
325
304
-16
-31
289
372
146
375
341
321
286
-42
-100
-63
351
553
437
467
413
590
539
543
603
427
465
442
389
603
580
564
577
399
780
857
808
420
591
639
511
861
886
644
695
736
690
817
441
410
470
807
849
832
499
638
552
579
487
694
1052
729
825
457
456
777
831
855
874
880
829
449
581
559
398
776
808
480
386
594
569
253
161
368
167
534
581
236
320
-65
-80
-12
315
333
301
-19
-104
61
6
20
106
-41
279
-5
-125
-288
-151
-158
-303
105
-46
-12
-14
-14
-16
-31
-17
339
247
603
533
331
-93
-92
304
195
253
225
167
366
313
260
-27
-11
302
372
164
163
363
281
-25
-4
334
156
171
365
269
-57
-68
-26
290
348
138
166
157
345
-29
123
100
-83
282
349
333
257
-75
-106
-84
-19
329
153
164
327
-103
-260
-293
74
-15
337
317
-15
-63
-54
-19
272
317
373
152
383
298
-53
-116
118
-120
-65
270
328
320
-8
-86
-119
-100
-55
260
329
374
350
260
-73
-52
335
239
589
579
239
143
342
353
166
246
549
553
535
513
219
156
358
372
212
572
587
238
364
290
305
374
201
534
585
571
207
309
-33
282
181
561
569
236
161
132
130
130
151
216
556
590
535
165
322
282
299
357
183
248
235
366
-84
26
21
-108
290
325
-20
114
64
114
-54
256
272
286
321
347
309
-51
104
84
-88
287
338
272
-124
11
-283
7
64
113
-98
-50
-14
-17
-59
-118
98
116
-51
329
146
354
-40
120
-62
173
419
776
455
582
243
228
244
531
585
395
425
387
566
519
538
589
627
637
389
402
388
572
209
149
197
584
451
486
425
568
201
140
170
544
422
456
602
176
341
382
216
514
513
549
638
433
610
185
328
372
525
390
635
248
338
-41
-83
-53
283
367
156
137
317
-36
-88
-56
289
372
139
367
335
319
299
256
-34
-2
367
245
569
535
185
370
374
186
512
528
218
377
275
-55
-69
261
167
620
771
829
803
481
414
625
622
419
486
493
396
251
179
513
441
867
685
665
853
774
443
637
586
539
232
177
128
329
-21
108
19
51
-65
317
320
-40
121
100
105
69
21
45
-105
-32
-106
-280
-130
-328
77
-76
-70
-105
118
60
-302
-131
-346
92
297
134
350
267
257
370
583
836
1068
973
1321
1381
1179
1235
1562
1434
1899
2105
2159
1739
1461
1234
1358
939
863
380
-355
-450
-704
-961
-1236
-1421
-1411
-1214
-964
-1045
-725
-721
-699
-877
-499
-632
-558
-557
-613
-427
-464
-460
-432
-636
-539
-140
-263
46
14
-279
18
-117
257
302
281
-12
-51
-106
92
93
-51
136
548
585
239
350
-13
-17
349
249
600
570
196
346
325
372
179
233
550
618
397
614
521
191
195
531
630
433
423
601
248
199
242
619
496
825
818
497
413
598
559
557
583
615
630
612
554
211
130
354
133
208
514
240
157
300
-53
-100
-86
-31
266
-11
-96
57
-276
-318
-331
-307
10
78
93
16
-383
-528
-618
-640
-609
-566
-569
-409
-837
-731
-766
-684
-828
-771
-772
-787
-800
-846
-688
-1047
-1079
-765
-686
-668
-732
-1079
-1127
-1116
-1067
-743
-660
-839
-822
-644
-1043
-905
-919
-1081
-687
-840
-818
-882
-738
-1083
-1087
-751
-657
-869
-874
-883
-888
-674
-761
-1071
-742
-819
-423
-447
-863
-759
-1045
-710
-873
-834
-844
-870
-644
-687
-750
-1066
-1086
-1036
-671
-819
-779
-820
-882
-650
-892
-884
-643
-646
-875
-869
-706
-1140
-1285
-1023
-1128
-704
-647
-712
-1078
-1152
-902
-1100
-744
-646
-872
-679
-1057
-907
-946
-936
-925
-933
-938
-917
-1138
-1135
-936
-1023
-1314
-987
-1093
-711
-702
-1063
-941
-1017
-1015
-957
-1125
-1037
-742
-1049
-905
-975
-921
-759
-839
-470
-432
-444
-505
-869
-726
-1026
-717
-877
-823
-839
-890
-664
-649
-852
-784
-463
-426
-437
-485
-812
-885
-688
-713
-684
-864
-782
-490
-785
-876
-707
-725
-657
-796
-450
-439
-501
-836
-889
-661
-675
-658
-841
-481
-438
-781
-697
-1071
-1030
-861
-450
-416
-496
-873
-729
-1087
-925
-975
-954
-1146
-1111
-1139
-940
-970
-958
-932
-902
-1109
-1044
-762
-1099
-1019
-1188
-1231
-1375
-934
-1043
-742
-1038
-1116
-944
-1007
-1024
-984
-924
-911
-987
-1367
-1194
-1183
-1362
-1015
-928
-1096
-1030
-1045
-900
-1020
-1296
-946
-1089
-1041
-1047
-1046
-1033
-1069
-911
-974
-1151
-700
-810
-836
-732
-1118
-1119
-767
-680
-653
-672
-697
-714
-745
-1058
-1120
-1146
-1105
-753
-659
-893
-719
-1117
-970
-971
-1119
-719
-888
-641
-722
-1076
-1139
-1142
-1084
-738
-670
-668
-729
-1062
-1099
-1085
-1053
-762
-705
-869
-784
-783
-893
-1027
-1071
-743
-890
-844
-873
-655
-665
-670
-699
-726
-681
-800
-639
-559
-621
-776
-659
-688
-854
-466
-393
-435
-805
-645
-665
-886
-855
-848
-843
-827
-830
-641
-755
-1100
-1113
-1082
-1068
-1093
-1113
-1112
-1138
-996
-1170
-1545
-1253
-1355
-970
-981
-1371
-1249
-1260
-1373
-1152
-706
-880
-648
-723
-1049
-1090
-1107
-1099
-1055
-731
-681
-698
-1037
-1122
-1140
-1070
-696
-850
-799
-804
-848
-653
-679
-859
-391
-331
-17
204
594
457
866
763
1130
972
1375
1541
1579
1364
722
397
518
211
267
-177
-738
-1239
-1859
-2105
-1981
-1975
-2121
-1759
-1720
-1696
-1840
-1650
-1242
-1217
-1255
-1222
-1331
-915
-1129
-960
-1329
-1363
-1290
-906
-1052
-765
-1077
-926
-1001
-981
-1118
-711
-868
-863
-678
-768
-1091
-1124
-1128
-1094
-736
-832
-441
-428
-799
-673
-687
-834
-469
-472
-820
-878
-830
-479
-430
-428
-627
-196
23
-127
39
-158
-544
-254
-373
-278
-307
-141
-176
-378
-311
-309
-338
-290
125
286
308
-88
-267
-342
-297
41
94
122
-105
-88
-124
55
-257
22
120
-25
292
273
-74
59
-294
-312
16
125
-70
-109
26
-359
-170
-150
-330
-257
28
2
-321
-161
-531
-395
-492
-778
-480
-417
-417
-785
-705
-1084
-1080
-723
-885
-867
-661
-731
-1062
-1152
-982
-1011
-946
-1078
-723
-715
-1060
-936
-1288
-1288
-928
-1051
-743
-1088
-1013
-1170
-1235
-1221
-1173
-1356
-999
-907
-902
-1011
-1407
-1190
-1334
-903
-1056
-1077
-1142
-1152
-1095
-1032
-744
-705
-854
-457
-631
-415
-774
-821
-769
-423
-628
-620
-607
-581
-600
-446
-823
-851
-499
-622
-569
-613
-414
-411
-613
-561
-523
-197
-340
3
-281
-167
-575
-637
-612
-564
-517
-185
-344
-313
-164
-581
-617
-195
35
113
-276
-209
-539
-234
-185
-207
-237
-197
-381
-129
-246
-639
-428
-635
-576
-560
-561
-540
-526
-582
-448
-810
-821
-484
-386
-589
-595
-393
-486
-847
-896
-826
-406
-514
-240
-608
-483
-782
-475
-398
-613
-609
-631
-433
-795
-656
-703
-895
-504
-639
-585
-586
-613
-398
-462
-785
-795
-451
-560
-199
-213
-581
-428
-418
-544
-378
-272
-265
-326
-142
-199
-221
-198
-134
-323
-302
-349
-178
-253
-545
-538
-236
-156
-331
-292
-318
-134
-208
-249
-250
-211
-134
-302
-258
-303
-157
-514
-542
-228
-379
-297
-299
-132
-241
-528
-184
-295
71
105
104
103
70
-289
-162
-218
-153
-288
34
10
-300
-324
-318
-314
-314
-288
31
92
96
23
-350
-178
-164
-302
102
-67
-80
118
90
101
99
74
87
-79
285
286
-117
-305
-381
-300
108
-33
277
310
328
290
-72
85
101
-10
149
188
343
-34
-43
333
242
629
456
495
466
592
140
-18
-71
-57
-62
-114
95
95
113
101
79
120
-9
374
145
314
-69
87
26
5
52
-76
315
340
-29
88
62
-89
280
298
-10
-44
-37
-58
113
29
72
281
559
511
856
892
720
904
1160
1657
1532
1519
1418
1579
1272
1210
1302
1036
785
391
579
157
29
-498
-954
-1172
-1168
-1354
-1345
-1159
-1232
-1226
-1359
-1131
-861
-636
-517
-242
-518
-519
-240
-217
-196
-141
-297
55
76
-259
-379
-193
-165
-306
92
-57
-25
-70
100
33
29
91
-66
287
351
361
323
273
266
322
154
228
527
548
546
245
168
369
137
233
579
596
534
182
354
310
326
159
546
391
396
562
196
147
171
230
547
603
394
404
598
237
185
532
486
670
699
844
483
502
853
883
808
484
790
646
642
449
206
130
526
477
824
503
623
234
378
300
291
366
208
241
186
350
272
-39
-73
-72
-28
273
-11
123
-279
-357
-329
12
80
94
72
41
4
-327
-210
-386
-501
-474
-586
-193
-180
-548
-414
-430
-571
-133
9
44
-299
-199
-579
-581
-187
14
-90
-53
-107
70
18
-259
-266
-259
39
109
-93
-117
46
-281
12
-117
-9
-14
-107
68
63
99
111
89
93
-74
334
196
196
332
-78
100
-114
-3
341
352
311
270
-9
-33
-50
-14
358
242
557
216
305
-73
-64
306
177
228
172
307
-59
-113
-121
-124
122
-119
-68
-22
-41
-119
86
-125
-12
337
364
345
307
-21
-127
49
74
-51
337
362
273
-107
67
39
43
62
87
97
73
15
-299
-329
-329
-303
11
100
-76
-59
-119
52
16
51
117
-96
-89
-90
-92
-128
56
7
66
-11
184
527
214
343
-18
-78
-112
-114
-48
328
153
361
-41
106
-112
298
182
216
152
302
-65
96
72
-86
367
542
581
229
359
297
302
324
331
335
348
358
350
326
296
267
-5
274
340
144
373
-25
51
-305
-269
118
259
339
332
-8
-119
78
125
-7
356
361
277
-67
-108
-117
-125
-116
-42
346
188
164
299
-59
-49
302
382
133
353
331
328
310
277
267
309
146
515
611
639
542
338
-88
-68
150
634
412
514
372
155
581
444
441
421
495
872
881
459
235
368
130
194
207
165
375
351
322
276
256
318
199
588
628
543
129
-3
-44
264
356
171
180
383
302
-10
-6
315
147
208
214
167
354
286
-9
269
371
547
497
685
1088
947
1291
1354
1397
1195
1538
1615
1594
1164
1142
879
454
612
246
318
61
-250
-847
-901
-1348
-1372
-1007
-1111
-740
-670
-883
-845
-788
-417
-225
-263
-123
-109
82
24
9
32
89
-64
304
328
-53
8
-334
38
258
141
129
323
330
381
363
-19
126
-83
365
548
602
559
541
600
414
421
395
419
502
809
486
593
243
555
476
650
725
707
656
864
827
805
822
890
710
734
689
879
839
822
803
799
872
762
1130
1093
679
831
667
1150
1306
1009
1109
746
736
731
652
819
854
1030
949
969
1084
661
844
872
670
693
673
871
511
634
525
249
587
459
804
806
480
388
581
559
559
553
527
229
173
341
-42
90
37
89
-54
285
287
-33
-118
55
-288
-380
-188
-197
-161
-381
-139
-202
-523
-517
-154
19
-94
-68
90
-301
-364
-307
80
-53
272
294
291
264
-54
123
75
106
-56
282
285
-54
98
49
83
-78
298
142
189
150
291
-93
97
-128
-40
299
336
331
300
-1
-32
-8
353
242
591
572
204
335
265
263
310
137
243
593
622
568
218
154
151
186
219
225
194
367
-13
-121
116
-49
338
146
361
284
261
302
341
316
258
-3
335
171
167
300
-112
75
-123
261
370
144
339
-47
60
-291
-279
81
-66
-34
-88
91
58
86
-109
-42
286
357
142
366
-6
107
37
104
286
219
561
524
188
167
244
624
455
471
436
394
617
576
526
228
229
549
400
497
780
452
561
165
383
234
412
503
401
160
-31
-26
141
565
620
597
600
387
389
563
214
224
605
468
462
604
225
162
147
150
187
535
398
461
414
551
192
165
204
521
565
566
249
381
-11
-83
-43
339
212
531
513
187
370
319
310
353
183
531
574
538
191
364
341
379
187
227
228
203
160
360
316
334
187
607
478
495
422
610
623
463
847
713
1074
1151
915
1126
1059
1038
1092
925
989
999
973
937
907
1145
896
936
993
1285
1014
958
1145
1083
1039
1038
1110
988
1370
1396
1291
1114
720
686
727
762
734
654
815
468
633
558
552
388
780
847
777
612
214
185
523
392
493
787
501
426
606
583
613
394
390
606
572
553
253
157
309
275
331
163
206
198
180
192
253
637
859
909
1219
1431
1502
1468
1649
1577
1545
1592
1458
1815
1492
1198
1064
793
464
446
516
106
-615
-672
-1048
-1092
-903
-952
-1138
-683
-464
-587
-548
-538
-245
-169
-298
-117
325
165
375
266
-27
309
168
217
198
181
202
221
201
186
250
394
786
828
776
432
609
559
563
399
820
710
738
643
778
474
510
827
874
648
657
876
776
407
631
471
647
1047
1082
765
676
874
866
885
650
668
693
732
765
761
711
645
874
661
747
1065
1043
685
828
779
816
641
721
1046
1116
906
1135
1031
668
657
765
900
949
1133
736
865
799
803
872
712
766
711
802
611
249
527
636
495
812
807
486
639
539
242
544
389
478
495
449
385
611
635
439
510
835
884
885
821
450
603
578
396
772
851
853
805
497
451
386
565
540
607
465
783
479
637
596
395
489
795
784
487
435
606
222
361
334
173
580
427
421
588
251
250
576
398
436
439
435
421
614
239
132
379
220
581
600
532
200
166
158
160
196
552
412
435
565
370
265
315
173
237
236
243
548
566
231
373
361
237
399
438
595
228
211
255
250
175
379
176
542
582
236
355
305
131
535
398
455
468
443
623
515
194
247
397
800
853
813
498
486
772
821
884
697
737
689
797
621
517
529
629
493
814
786
430
584
555
617
463
801
852
891
650
857
486
639
636
472
819
826
495
397
564
236
202
512
403
807
844
495
624
571
612
430
484
774
797
778
428
542
178
160
221
553
595
587
523
154
305
291
138
532
583
513
156
128
177
233
245
255
582
439
493
412
227
315
260
330
202
548
538
176
315
301
171
607
449
401
525
148
320
-26
122
59
106
-9
138
232
545
605
408
443
471
791
882
669
858
446
565
521
553
608
412
496
853
643
835
430
562
563
438
858
676
863
445
550
236
549
427
814
864
806
420
562
537
600
435
496
511
493
455
398
590
556
598
455
830
871
812
449
391
427
779
860
878
842
783
452
603
220
380
370
194
559
627
631
604
589
607
412
511
878
683
895
497
607
562
631
487
828
877
657
673
885
792
471
502
855
656
869
776
471
482
492
466
452
773
895
713
661
774
399
638
450
787
835
837
798
456
590
219
169
196
255
543
529
230
176
137
146
238
392
770
506
623
210
146
173
197
177
168
222
542
254
369
-14
-8
371
233
522
251
244
229
165
345
366
540
802
762
1129
937
1304
1242
1486
1713
2108
2121
1784
1686
1887
1849
1499
1592
1190
1389
1357
913
471
-106
-576
-800
-848
-879
-715
-1074
-1107
-1052
-681
-770
-539
-267
-52
268
-60
107
101
-92
-52
-70
-91
-63
-21
-48
101
15
51
-56
357
191
232
527
564
563
532
559
461
704
1143
1135
690
480
426
820
1027
1132
1078
700
893
658
702
726
760
1108
971
1283
973
1112
767
759
1089
958
1325
1361
1294
917
1094
1112
944
1301
1389
1211
1255
1227
1383
1010
956
991
1327
1393
1162
1402
1352
1291
1007
1301
1390
1216
1234
1186
1369
1307
1000
949
909
912
963
1012
968
1056
833
429
440
829
706
734
643
494
631
594
389
485
814
807
466
618
551
527
514
247
518
570
604
541
362
-99
54
90
-66
-5
-21
-75
-114
-121
-116
-107
-94
-70
-37
-11
-21
-95
46
-284
21
-61
138
244
230
157
355
325
299
280
296
343
372
335
-27
123
109
-32
161
571
601
252
382
310
311
341
359
365
373
375
353
312
279
281
330
176
572
438
466
624
215
128
167
530
598
585
528
219
174
383
355
148
542
434
474
612
158
278
288
144
239
245
192
155
158
158
373
324
329
152
243
520
184
309
-38
-34
311
175
254
514
202
128
320
275
-8
-11
266
288
272
-49
114
39
25
101
-2
160
228
155
267
-68
-7
383
212
204
171
190
251
543
528
519
586
460
829
856
784
402
546
241
531
623
454
489
468
417
620
576
570
636
511
876
873
490
589
246
252
568
636
439
463
415
550
173
160
533
424
497
485
456
449
437
387
598
633
486
832
825
484
398
613
600
594
614
418
471
449
593
203
130
136
184
231
514
514
222
151
331
283
280
323
142
217
246
182
305
-52
-21
139
564
614
519
370
266
-24
-28
-24
272
368
217
236
383
-19
-63
311
252
625
586
194
337
308
331
352
368
163
251
573
558
218
156
187
548
393
439
443
423
624
525
159
374
193
587
421
399
558
216
193
216
514
578
403
451
398
247
362
346
207
619
455
456
408
606
548
248
242
537
588
612
592
536
203
128
361
173
559
399
387
546
192
140
358
304
273
324
187
529
237
362
-3
-2
359
231
552
519
142
-22
99
49
102
-26
361
169
154
359
334
353
129
143
154
187
217
176
294
-112
107
-40
379
214
205
161
145
154
169
204
542
403
503
812
836
849
851
843
870
722
1135
975
930
1042
680
705
1088
963
1290
1312
1326
1346
1348
1315
999
947
943
990
1299
1291
928
1030
687
731
1122
982
991
1150
739
830
437
626
400
480
503
400
216
334
325
156
240
522
518
535
577
597
546
176
322
292
359
195
199
311
91
-314
-306
73
-53
261
-8
-60
-123
86
84
-109
-14
317
358
146
234
611
475
866
1089
1179
1808
1775
1753
1843
1499
1876
2121
2042
2031
2130
1689
1531
1605
1323
671
225
67
-521
-777
-752
-976
-1388
-1380
-914
-841
-538
-363
-298
-271
7
19
23
64
-93
276
320
263
-101
82
102
-51
337
181
221
191
375
313
304
364
215
564
596
563
244
183
141
137
202
601
510
858
818
439
611
388
504
858
853
491
615
533
526
565
619
430
787
656
743
718
841
429
608
388
488
827
835
511
410
597
611
439
787
824
804
771
492
473
447
447
775
647
746
738
881
480
629
578
583
392
497
826
792
396
255
224
574
459
810
834
823
812
803
798
812
859
662
679
874
494
628
553
525
522
539
597
435
500
454
552
134
353
214
637
450
632
233
374
325
320
336
373
172
212
195
379
299
259
279
348
180
244
237
143
260
-100
-106
-29
322
377
131
378
362
332
293
280
328
164
237
237
161
312
-22
-46
-4
342
171
181
337
-81
62
63
-116
-41
-7
267
283
269
-55
127
-115
269
167
223
148
271
-83
-112
-90
-33
299
351
337
257
-94
102
87
101
-112
-33
316
369
341
-8
-94
-106
-34
324
383
356
263
-77
-82
-9
335
139
195
543
386
395
522
342
273
379
549
615
523
380
313
339
137
176
230
574
389
622
242
363
309
350
173
229
248
232
177
347
283
307
167
549
597
564
514
241
240
216
183
194
528
606
598
235
355
272
274
342
187
536
566
237
336
-63
-102
-34
315
348
309
-4
-35
-42
-48
-53
-24
313
151
189
131
265
-90
-99
-18
350
190
241
238
171
309
-59
-92
-29
313
313
-63
21
-349
-345
2
117
-47
258
268
-12
-54
-85
-82
-37
300
154
525
601
592
252
178
207
602
484
501
392
527
241
551
595
587
597
437
834
885
769
570
198
247
390
489
482
415
618
601
597
584
581
623
448
507
482
625
249
221
562
435
772
776
479
428
633
587
578
625
446
492
476
425
390
619
561
217
174
231
588
595
178
-51
93
-69
144
561
589
528
196
128
319
278
315
184
574
615
536
148
313
305
357
160
178
130
288
-77
103
83
112
-82
258
349
153
142
327
256
-8
313
158
249
563
584
574
548
545
607
483
893
747
1041
1026
733
692
654
641
677
739
758
680
793
432
438
788
895
711
749
760
716
862
484
427
449
478
438
587
219
137
322
-18
-74
-38
335
180
167
290
127
36
54
-105
261
316
286
-65
92
50
88
-81
265
318
321
284
-36
-108
93
84
-119
-35
280
273
-54
117
75
121
286
559
875
1137
1287
1368
1207
1618
1807
1746
1938
2363
2431
2320
2059
1798
1658
1585
1403
738
171
-374
-777
-1042
-965
-1321
-1323
-987
-1144
-1070
-739
-866
-428
-515
-159
-352
14
-65
349
130
312
-7
294
171
550
594
575
543
516
247
541
414
853
710
651
456
533
240
588
453
790
843
642
674
890
795
488
805
676
753
727
655
870
876
887
891
685
1066
949
991
1147
723
868
876
707
1054
1108
1134
899
908
1139
1088
1069
1136
999
1309
960
760
841
786
827
882
666
727
1075
1135
1095
726
659
716
1104
940
929
1101
748
672
883
883
680
744
742
895
488
636
609
627
634
625
637
429
471
438
562
141
309
364
521
394
386
244
339
293
128
524
612
618
584
540
219
377
289
280
372
233
534
211
340
-20
-54
-24
295
365
161
172
382
293
-52
-93
-67
265
344
128
365
297
-29
-40
294
174
543
569
513
171
359
316
282
264
299
135
226
235
143
277
-34
277
142
236
244
179
351
286
-3
-7
286
373
215
248
157
-24
75
41
-113
293
139
157
375
321
278
261
288
361
180
197
136
295
-15
258
300
323
341
139
214
226
372
-56
111
-70
368
513
538
220
149
381
154
216
547
615
409
442
474
508
785
794
815
873
705
1037
1050
719
838
452
409
481
867
696
674
830
486
472
772
827
868
643
664
657
862
781
462
457
782
892
723
724
877
472
630
639
471
815
844
819
780
489
454
419
426
506
885
712
692
840
462
385
613
610
620
387
395
595
210
332
298
152
596
471
457
585
190
128
143
174
183
189
233
565
618
590
244
167
170
248
594
621
550
147
-7
-74
-8
146
531
555
230
147
359
345
332
333
381
217
537
512
164
360
157
573
488
827
795
440
596
523
224
204
226
557
403
477
487
449
418
434
478
510
501
459
399
585
513
211
228
579
462
833
859
789
415
582
573
638
465
777
793
784
507
479
459
491
859
748
1081
1024
866
469
437
770
887
729
1050
1083
1073
759
681
891
650
709
756
742
653
509
628
571
624
492
863
653
890
835
495
395
580
585
395
434
626
217
307
-61
-109
-114
-87
-46
-31
-71
106
42
37
80
-118
-62
-12
263
-35
-125
51
35
98
-42
337
178
233
238
213
198
215
522
574
599
588
540
230
226
581
811
1135
1219
1491
1913
1731
1762
2054
2124
1985
2395
2283
2589
2219
1967
1715
1844
1811
1441
1348
789
-58
-255
-790
-713
-1093
-1130
-1044
-859
-403
-515
-179
-375
-274
-110
330
193
187
330
-59
-120
-107
-75
-67
-77
-82
-86
-114
93
70
116
-26
359
192
217
184
378
334
340
134
198
252
542
542
237
149
338
360
215
588
619
557
215
164
162
190
245
582
409
456
448
400
601
568
580
393
492
809
775
415
596
639
796
719
1083
1097
1054
741
697
670
668
702
1036
1143
980
1009
959
1131
1084
1108
915
952
936
1140
1068
716
862
800
855
756
1148
1139
723
779
398
629
406
464
785
810
477
564
162
161
545
410
407
557
202
166
151
355
283
-1
295
348
342
256
120
-266
-349
-374
-355
-324
-294
-269
-263
-315
-174
-532
-247
-331
105
127
-278
-191
-242
-184
-380
-354
-308
36
71
-300
-518
-415
-392
-255
-161
-187
-532
-589
-588
-573
-575
-574
-529
-181
-335
-283
-310
-134
-182
-371
72
289
166
167
345
282
288
350
174
250
561
569
248
130
285
278
364
213
514
227
170
129
360
337
334
374
191
252
529
513
219
159
347
326
152
559
392
574
382
-26
-30
321
145
174
200
245
247
148
268
-31
320
206
522
226
162
373
316
-32
-105
-79
289
371
329
-67
59
19
68
-100
-21
274
-3
-93
44
-294
-289
58
-67
301
340
280
-104
34
2
51
110
113
64
25
27
37
7
-308
-328
-262
100
-110
80
-312
-152
-137
-288
87
-92
-58
-49
-62
-113
65
8
26
119
-27
274
-36
93
-287
-337
-293
69
-88
-59
-113
56
11
52
-102
-7
290
281
-1
-35
-96
73
2
8
103
-29
307
311
265
-43
-71
-58
258
349
157
134
271
120
29
49
-101
280
365
136
372
331
300
311
375
210
526
515
187
357
297
270
274
318
153
523
602
604
539
206
168
184
239
554
566
235
341
-54
-84
275
182
563
606
591
545
210
355
-20
-111
96
64
11
-330
-165
-221
-223
-188
-146
-360
-299
23
24
-356
-551
-393
-518
48
327
146
298
-78
-90
-3
352
146
140
355
293
-24
-48
-25
281
336
136
200
249
237
166
380
214
458
1028
1293
1203
1574
1441
1813
1860
1829
1809
1888
1755
1747
1494
1355
1044
663
850
624
-79
-610
-1039
-1302
-1202
-1564
-1602
-1263
-1309
-1035
-797
-418
-411
-428
-618
-199
-300
-265
-347
-188
-220
-204
-191
-177
-368
-263
60
33
-306
-363
-357
-306
31
-107
290
129
372
274
-59
-44
293
365
381
346
281
-59
115
74
113
-27
377
239
541
247
156
340
345
172
531
586
580
551
533
536
560
628
499
644
718
666
786
422
419
500
837
861
850
856
888
655
895
858
858
680
1072
931
938
1069
888
769
785
656
1045
1083
745
858
485
449
482
793
831
845
838
800
457
592
243
246
593
428
433
614
536
253
513
238
192
163
162
129
-8
27
-167
-235
-183
-348
-285
-263
-272
-329
-178
-535
-562
-243
-173
-188
-552
-413
-458
-425
-619
-548
-210
-138
-132
-229
-394
-794
-860
-857
-815
-503
-446
-413
-432
-486
-776
-500
-444
-395
-619
-588
-562
-568
-610
-629
-559
-136
53
-83
-70
118
29
-278
4
115
258
353
346
256
-105
86
83
-113
-9
347
379
313
-70
86
71
-120
-27
302
332
312
-8
-90
118
-115
-30
328
136
137
337
-10
-92
-124
-75
298
148
152
294
-112
71
101
-94
-76
-91
-70
258
304
-10
108
7
27
-117
-17
-4
-76
75
-269
-303
-267
88
-53
273
-1
-104
27
-302
-288
45
120
-119
84
-269
-367
-167
-163
-365
-303
-265
0
-260
-292
-382
-516
-601
-545
-372
30
22
-365
-224
-232
-159
-337
-278
46
125
-96
109
18
-276
41
-97
262
320
345
343
298
-37
-93
-56
325
180
169
278
97
-258
12
92
-77
257
317
342
311
-3
-24
277
352
143
137
371
362
347
293
-43
-72
268
175
555
540
149
266
-17
337
229
601
395
639
590
540
533
590
406
421
619
543
245
208
373
-22
-102
-30
158
575
591
217
327
-6
-3
291
306
263
-102
-258
-170
-554
-605
-573
-230
-135
-338
-359
-192
-548
-586
-537
-177
-348
-345
-170
-544
-397
-471
-508
-505
-454
-625
-548
-522
-555
-601
-597
-255
-357
65
-63
-4
-31
-111
102
-61
204
816
1117
1283
1361
1200
1601
1465
1488
1450
1459
1800
1842
1442
1389
1112
1025
1067
741
399
116
-394
-732
-934
-1348
-1203
-1197
-1317
-1138
-734
-863
-449
-515
-348
27
125
-25
302
270
-105
56
72
-80
283
334
332
296
-16
-70
-81
-25
325
383
359
272
-84
96
59
65
118
-49
299
364
379
345
283
-26
-30
290
130
202
209
159
343
292
296
369
228
575
575
218
331
-29
-61
-46
-10
299
364
133
327
-51
-107
267
525
496
801
429
556
523
563
590
585
609
446
811
837
508
426
436
809
697
1036
1031
710
876
785
455
426
478
855
717
734
880
478
416
474
828
871
846
795
482
637
232
367
353
167
207
138
262
-86
-99
-88
-112
105
114
-65
280
295
-59
45
-318
-311
40
127
125
22
-136
-552
-426
-493
-463
-594
-203
-167
-255
-632
-399
-551
-151
-341
-131
-224
-549
-587
-640
-472
-790
-491
-590
-165
-373
-222
-626
-430
-626
-529
-233
-519
-563
-588
-611
-394
-418
-388
-555
-189
-363
-328
-338
-378
-147
-357
37
-49
314
314
-5
-57
-71
-69
-61
-31
287
349
367
334
285
259
268
312
134
223
526
225
359
-17
-51
291
199
604
392
553
375
-29
-59
274
374
161
137
346
316
302
285
269
286
365
215
515
177
269
-102
-79
299
143
156
381
358
316
-60
43
-261
122
311
376
261
89
18
64
118
100
51
55
115
-113
72
-309
-373
-322
50
-124
-116
117
96
52
-308
-177
-220
-130
14
71
-266
-146
-222
-197
-359
29
-86
259
-34
55
-384
-191
-367
4
48
27
23
65
99
79
44
73
-73
294
314
-22
-123
93
122
-77
-14
319
149
196
145
257
108
62
-114
277
370
375
318
-5
-38
-9
348
232
592
603
536
205
168
162
168
202
545
397
459
440
639
618
391
436
481
787
833
827
482
607
254
221
232
521
578
385
393
546
372
-1
289
174
531
230
321
-123
-259
-337
-372
-361
-305
15
16
-332
-206
-535
-242
-379
3
68
46
-311
-197
-575
-625
-591
-251
-181
-169
-214
-534
-570
-550
-233
-163
-365
-325
-291
-291
-347
-166
-161
11
316
619
814
650
717
1083
1006
1248
1512
1701
1721
1850
1477
1506
1893
1672
1513
1274
1391
1347
938
780
-45
-249
-451
-482
-780
-651
-1044
-1097
-1053
-705
-838
-415
-216
-292
61
54
-272
-323
-282
121
301
148
376
271
-68
-77
-42
-16
265
321
150
207
185
350
-7
-69
-74
-19
328
136
356
-36
93
101
-10
146
199
164
135
156
166
367
298
328
227
395
437
580
157
316
326
138
198
213
181
379
320
290
313
139
520
402
510
811
777
428
577
255
255
569
391
450
476
478
485
776
840
670
759
1082
1088
743
824
396
595
436
856
690
644
788
459
459
482
482
489
800
870
872
505
605
516
541
618
398
609
522
187
382
318
-1
-19
301
151
201
377
-56
50
21
88
-105
-105
109
77
54
-267
-373
-188
-150
-285
56
16
-384
-528
-599
-603
-577
-536
-217
-153
-139
-202
-559
-633
-388
-599
-256
-160
-362
-147
-529
-392
-403
-545
-141
-310
-301
-349
-189
-570
-395
-609
-197
-315
-326
-202
-569
-567
-249
-223
-223
-161
-264
-111
-51
-77
-93
-39
314
151
232
552
561
217
316
-64
-71
283
144
208
205
157
341
264
-36
-6
360
232
546
229
334
-62
-99
-10
140
246
255
191
374
334
333
364
164
225
250
214
142
336
313
320
336
371
177
235
237
168
331
278
286
330
129
175
184
377
-15
102
36
50
91
114
-127
-104
-101
93
-274
-336
-258
-71
338
329
-103
-322
-182
-140
1
-112
-35
-25
-51
-98
99
47
34
79
-105
-68
-113
26
-363
-178
-139
-266
126
-79
121
11
-340
-136
-162
-169
-381
-283
68
99
86
111
-42
341
143
371
325
310
294
-28
-127
74
121
-15
364
180
187
137
312
-8
-3
341
205
537
527
188
332
-10
-30
279
370
179
178
366
266
-63
-65
269
132
219
216
139
309
259
-17
-23
258
351
232
586
579
237
153
381
135
163
210
529
550
213
321
-27
287
209
390
486
487
423
577
223
185
234
568
578
236
133
355
131
166
178
211
555
389
386
255
314
-113
41
6
19
44
37
-299
-179
-555
-580
-244
-365
8
64
50
-271
-342
-366
-308
76
-35
320
338
279
-77
102
103
-58
340
180
159
294
-102
76
79
-128
-67
258
336
145
168
163
216
411
732
1321
1546
1652
1446
1488
1503
1478
1473
1820
1724
2058
1680
1412
1166
1300
961
757
388
-45
-157
-441
-698
-934
-1325
-1283
-1097
-885
-486
-417
-639
-614
-591
-562
-248
-166
-352
-318
-312
-309
-303
-294
-260
84
-53
266
-46
66
-305
-301
62
-58
296
337
325
258
-86
108
93
111
-117
-75
-14
268
-59
45
-321
-269
-77
373
192
153
336
285
272
316
192
631
489
439
514
349
324
172
560
391
431
460
490
504
498
497
793
879
720
1029
746
659
834
813
852
651
695
723
736
703
859
486
447
795
711
1097
1099
725
830
475
443
449
456
454
457
463
434
602
247
232
588
462
495
395
247
148
352
286
-61
-105
-54
284
276
-118
-285
-356
-306
39
83
74
54
36
-263
-345
-168
-182
-372
-275
26
-275
-378
-227
-545
-543
-222
-379
-302
-302
-136
-526
-627
-386
-578
-237
-193
-215
-528
-564
-552
-255
-217
-176
-353
10
80
51
-316
-149
-384
6
-72
325
133
383
333
285
269
289
330
376
155
150
331
-54
119
-75
375
573
391
593
247
186
147
364
348
136
217
524
513
213
172
141
370
128
230
632
435
562
311
-116
-55
188
415
463
599
191
382
159
221
515
533
551
560
529
195
370
337
351
365
341
296
268
-10
-69
79
-270
-259
-128
288
347
282
-80
125
-104
-46
262
313
364
379
320
-57
81
19
11
36
87
-110
-97
82
-301
-363
-278
-96
306
343
311
284
276
258
-25
-5
346
208
255
192
326
-25
-52
-17
321
168
239
219
354
-50
-113
-42
356
196
185
373
344
381
167
159
128
162
533
629
578
375
-90
108
-33
135
227
217
168
138
373
337
296
298
362
198
253
223
368
-17
-78
-20
382
514
545
216
365
300
286
291
295
306
320
300
-41
92
1
-257
73
-82
262
319
334
289
-61
104
74
116
-71
-26
-18
-46
-109
62
11
73
-5
168
183
265
34
-339
-298
48
75
47
47
102
-119
86
5
20
-73
147
531
250
138
297
281
351
235
413
822
886
865
831
854
670
732
756
765
1044
1066
1052
746
697
683
698
724
755
1036
1028
702
854
794
836
702
1075
1120
1078
712
813
404
572
593
427
478
418
530
132
301
261
257
312
173
538
538
157
264
-47
273
379
183
165
340
-47
49
-334
-358
-263
-116
-12
-5
-78
79
10
7
55
111
-124
112
84
66
56
66
-115
331
618
660
896
1319
1205
1587
1658
1656
1658
1502
1681
1782
1909
1585
1289
958
1305
1296
715
378
-224
-880
-1079
-962
-1375
-1221
-1167
-965
-748
-880
-826
-483
-559
-337
75
120
87
44
29
44
85
-103
-24
285
286
-11
-58
-81
-81
-58
262
379
514
583
525
370
-18
-18
372
544
385
629
554
223
192
224
575
449
807
813
456
578
247
514
567
617
411
486
818
834
507
405
613
394
460
477
424
596
528
235
229
519
612
495
861
865
496
604
522
535
589
626
390
425
464
450
628
563
600
481
860
858
471
565
205
171
174
197
243
556
589
568
235
133
304
289
369
254
609
572
145
-35
-76
316
533
428
441
611
254
188
165
182
240
575
616
570
198
338
291
309
341
359
378
157
172
375
264
-76
-61
289
372
377
313
-28
-105
91
64
97
-68
274
290
-32
-124
72
70
113
-75
-11
271
-20
-106
65
36
82
-77
285
359
374
318
-61
43
-330
-361
-307
27
56
13
-320
-373
-371
-321
28
-103
267
300
-52
31
-344
-313
93
-19
278
-33
-111
88
46
5
-275
4
72
-127
119
39
-314
-356
-318
36
-107
-21
270
-8
-81
89
37
53
126
-47
-1
-8
-52
-97
-115
-82
263
371
180
160
337
267
-8
260
259
-7
278
357
163
371
-33
103
-125
305
240
571
247
365
-8
-76
-111
-116
-80
-13
298
287
-44
-115
-110
-27
328
380
370
320
-11
-116
32
-269
61
-30
369
139
308
-62
-117
-101
-60
-34
-34
-57
-115
42
-320
-373
-331
45
-83
-16
-32
-98
92
44
15
7
36
94
-117
119
28
-329
-362
-308
50
-125
-98
-123
65
-286
-375
-145
-334
50
-97
-65
-111
66
3
-259
63
-70
314
128
368
299
-12
-2
335
203
580
398
404
607
542
247
240
518
580
429
788
799
411
202
329
379
544
408
388
536
202
208
518
575
636
461
777
495
633
248
192
213
248
519
550
629
452
441
580
210
228
633
782
794
413
524
200
203
204
170
145
169
219
234
187
366
327
359
185
533
596
608
556
201
361
314
351
209
606
442
430
580
222
229
623
814
679
676
843
488
421
626
567
520
529
605
436
442
578
149
324
158
601
464
417
517
374
302
263
-33
-36
295
140
138
-24
26
-306
38
-94
-68
-126
104
-96
-36
-63
112
95
-63
320
357
284
-73
-127
115
104
106
-90
277
355
318
-73
50
12
74
-84
257
329
146
228
584
485
730
1303
1620
1840
1901
1824
1458
1439
1813
1726
2054
1703
1523
1634
1258
1023
837
288
-158
-407
-824
-1056
-1369
-1621
-1419
-1278
-1297
-1044
-808
-627
-552
-604
-458
-501
-412
-235
-346
-312
-366
-173
-191
-172
-157
-144
-340
26
115
97
-285
-163
-193
-346
69
-78
-72
119
50
31
65
114
-100
-52
279
360
129
332
270
314
245
487
653
688
889
815
507
492
780
858
685
710
655
822
775
798
874
721
1096
940
967
1146
753
661
678
1037
1137
913
1146
1122
1126
1137
1130
1108
1116
931
1286
1322
967
758
822
777
647
1088
927
1142
1036
713
718
736
712
664
649
670
651
777
569
147
362
162
220
216
161
340
-10
-106
104
-95
296
146
135
276
-102
88
72
67
65
94
-98
-49
-77
71
-319
-139
-381
-311
-261
-286
-378
-228
-545
-531
-191
-323
51
116
102
13
-372
-234
-553
-528
-173
-324
-291
-338
-147
-158
-369
-321
-283
31
114
-97
101
-278
-336
6
-79
300
303
-27
-100
109
74
48
63
-120
-21
300
290
-47
106
54
87
-71
275
292
-15
-86
118
96
101
-104
256
365
137
306
-98
56
51
117
-53
289
369
155
360
-26
118
120
-31
311
276
-117
2
-326
-343
-345
-330
-271
76
-105
-84
-123
61
-276
-325
-288
88
-39
-11
-112
-259
-332
-292
58
120
114
60
-270
-345
-153
-181
-150
-318
48
125
121
37
-336
-156
-147
-324
23
78
93
88
79
78
100
-81
317
218
559
524
160
332
329
131
197
247
537
542
236
132
293
283
366
230
573
596
553
199
330
-14
256
374
517
583
529
147
297
277
339
178
244
255
221
160
349
289
260
293
135
253
580
550
166
262
-84
-44
345
200
194
346
-14
-55
-61
-89
-128
-101
265
360
320
-104
-258
-263
117
-22
-14
-87
116
122
-117
114
64
66
-90
310
141
361
-33
61
-294
-281
84
-53
-23
-121
-274
-347
-264
-95
283
296
263
271
311
302
-43
127
-91
341
548
403
385
561
247
245
547
622
441
482
467
398
582
563
624
500
651
757
1035
711
847
487
447
474
785
824
838
838
816
502
422
628
406
510
853
835
443
251
347
275
297
374
179
158
296
-108
68
91
-88
-30
-13
-3
276
280
-35
107
19
31
-125
-37
-63
57
-348
-158
-132
-332
-297
-271
34
80
62
-288
-381
-373
3
-104
-7
291
340
183
593
785
765
1310
1596
1512
1501
1633
1556
1613
1461
1457
1558
1355
948
1052
500
294
-177
-482
-877
-739
-925
-1360
-1161
-1341
-947
-1037
-796
-215
82
-48
-113
29
21
-117
279
351
367
131
159
146
322
-18
-8
134
577
431
412
571
242
246
570
407
479
498
463
401
607
582
574
602
447
861
717
671
474
538
250
632
779
838
828
828
853
848
799
769
824
678
736
685
825
472
420
386
624
410
789
666
692
837
428
625
442
829
663
688
690
687
654
835
776
808
672
1030
753
873
471
406
423
461
485
499
770
507
450
611
532
252
531
567
594
602
579
247
381
275
262
370
529
633
616
243
360
275
278
355
197
245
197
326
-61
-118
-83
-8
304
325
329
314
-10
116
-260
-259
-109
337
151
305
-120
41
56
93
64
-269
-310
-280
12
-290
-152
-242
-203
-297
-117
-40
-106
1
-383
-161
-370
-302
-262
7
12
4
-303
-134
-194
-165
-313
42
52
-287
-146
-227
-248
-214
-134
-285
60
90
42
-318
-163
-202
-147
-289
62
63
-283
-134
-180
-148
-334
-268
36
63
53
-265
-357
-173
-195
-159
-329
47
-111
-115
13
-143
-176
-288
-84
264
-64
76
47
118
-66
-50
-25
347
531
390
583
133
-25
-25
364
236
247
151
308
282
322
365
128
159
237
590
618
531
128
285
293
375
207
513
255
200
349
-19
-60
267
142
221
195
371
323
330
342
324
317
370
202
228
133
-20
-110
-82
265
338
366
373
357
286
-101
43
39
-110
268
303
-23
111
-258
-321
-316
19
-119
-29
-10
-44
-78
-80
-62
-44
-10
308
365
344
-48
15
-375
-369
7
-125
-96
84
-274
-315
-277
37
67
84
-122
-39
259
-65
48
-304
-269
111
-44
-18
-26
-11
272
268
-20
-8
351
231
545
216
326
-38
-43
295
151
238
531
520
212
382
287
-29
-8
359
228
251
130
-45
125
-60
354
219
255
246
235
220
182
136
140
225
600
424
430
384
582
530
228
219
551
451
849
862
472
572
545
418
845
663
861
481
607
227
380
343
148
514
577
551
230
193
190
190
190
209
238
212
335
-118
-277
-335
-320
-301
-311
-338
-367
-158
-227
-548
-571
-537
-203
-364
-287
-267
-330
-188
-531
-525
-170
-303
32
40
-259
-315
-330
-258
-99
335
190
186
356
-6
-86
-111
-47
380
634
892
1090
962
1326
1222
1431
1893
1766
1785
1727
1907
1846
1529
1442
1605
1537
1205
1016
886
348
-187
-836
-1054
-898
-940
-954
-951
-919
-1086
-660
-434
-226
-348
-278
20
41
13
-309
-341
-273
-121
264
281
-64
70
-276
-307
-287
29
113
-65
-32
-57
-116
85
56
57
89
-89
281
380
134
295
-72
-76
332
551
425
635
195
-6
-113
-98
259
378
195
197
154
373
375
159
224
566
400
454
426
562
153
316
347
236
422
815
850
807
511
803
654
752
1030
724
663
880
841
772
442
432
775
657
759
1034
733
672
884
871
893
690
742
745
670
799
428
628
384
445
775
819
792
420
518
148
142
223
564
573
241
380
269
-70
-110
-89
256
369
165
359
-43
70
-259
-265
-257
-273
-311
-354
-144
-198
-249
-525
-233
-145
-294
41
34
-339
-514
-628
-587
-171
-288
-291
-153
-518
-528
-206
-161
-171
-190
-177
-157
-190
-544
-385
-405
-588
-208
-354
-300
-312
-375
-192
-216
-155
-286
92
-92
-68
-63
-56
-46
-17
312
175
542
578
514
129
262
-62
-64
-6
344
171
184
354
-35
-115
-78
298
153
199
191
158
352
-7
-106
-104
295
229
565
225
335
277
347
194
229
197
166
167
146
310
-74
115
-88
302
163
193
137
302
-15
-7
301
336
308
-24
-81
-98
126
26
-361
-147
-287
-89
284
-22
79
-300
-306
38
-109
-36
-11
-29
-97
54
-289
-287
84
256
375
362
-27
64
-306
-333
-289
42
89
56
-318
-196
-252
-207
-370
-289
34
112
-76
-86
66
-299
-305
64
-57
-12
-63
115
75
79
100
-121
-59
287
378
171
148
320
-23
-45
289
166
253
223
359
-14
-53
-23
277
302
321
347
352
297
-64
100
101
-36
132
246
242
142
287
-12
283
357
153
161
135
347
295
-14
-52
-56
-19
303
380
172
139
265
95
-261
45
-45
350
332
-99
-297
-372
-289
111
-55
-48
-67
-60
-46
-73
116
75
115
-43
276
-11
-121
14
-314
-311
17
-124
-15
285
-12
-106
67
52
113
-46
289
311
280
-29
-64
-50
262
345
183
530
591
591
534
217
229
590
461
771
472
400
616
599
547
216
222
637
877
1024
727
839
497
798
646
705
683
870
778
392
235
366
336
150
242
522
189
313
-42
-48
285
380
185
210
223
217
146
260
125
103
-48
341
132
334
-2
-38
-18
279
319
350
356
307
-59
56
-308
-340
-276
-121
350
582
781
668
1030
1149
1331
1566
1524
1881
1857
1529
1505
1533
1527
1444
1605
1570
1273
1290
490
51
-498
-746
-1068
-929
-1171
-1655
-1448
-1552
-1310
-1079
-870
-415
-248
-168
-197
-542
-617
-631
-587
-249
-144
-296
33
42
0
-279
45
-52
356
148
341
257
-23
258
264
-15
269
146
566
611
221
280
-57
302
232
614
624
565
238
176
139
160
515
396
490
496
431
595
522
521
627
803
686
684
803
404
627
441
770
787
791
839
640
875
500
633
607
418
478
457
384
593
588
575
524
230
537
411
782
802
483
407
616
595
601
412
793
885
830
618
132
301
374
232
526
222
141
298
-91
25
-292
39
-67
274
-46
53
-329
-349
-274
100
-47
272
269
-50
125
80
96
-99
-21
299
328
312
-1
-75
124
103
-127
-63
260
276
-47
92
0
-264
59
-113
-52
-21
-16
-47
-109
92
100
-75
279
316
266
-90
75
25
14
42
107
-66
-9
-19
-95
65
12
37
-120
263
341
309
-84
23
-282
52
-92
-51
-94
111
110
122
73
-288
-356
-309
79
-76
-89
45
-351
-163
-371
15
-111
-59
-99
69
0
-269
22
92
-78
-7
272
-29
123
-265
-139
-216
-196
-337
49
89
13
-348
-369
-285
87
-98
-87
-115
75
-293
-151
-178
-325
119
269
316
289
256
-6
257
-6
-21
-23
257
287
286
-31
111
4
-267
105
288
151
369
-55
45
23
-125
262
322
309
274
-11
-59
120
65
107
-7
131
144
268
101
26
69
-93
-30
-13
-4
258
-39
111
-259
-291
48
-76
262
-4
-75
100
40
23
63
-115
-61
-93
55
-310
-359
-361
-358
-336
7
-111
-37
-125
-325
-216
-194
-322
12
-284
-374
-158
-135
-372
-140
-165
-136
-312
13
25
-276
-349
-167
-219
-218
-145
-294
17
-285
-141
-221
-196
-328
94
-2
378
184
172
364
310
324
152
252
551
512
162
324
286
332
180
545
608
611
564
220
366
281
290
153
563
386
603
246
183
207
537
603
384
408
432
448
428
621
561
581
456
894
744
697
800
412
636
433
768
841
646
675
883
503
629
570
591
636
384
576
189
257
51
-356
-140
-348
-301
-322
-143
-223
-533
-562
-558
-233
-350
60
-114
112
-261
-136
-219
-225
-162
-339
-319
-145
-554
-434
-466
-626
-207
-327
-292
-355
-184
-215
-179
-139
-152
-174
-370
67
296
209
558
420
674
1311
1408
1822
1504
1626
1584
1663
1473
1661
1225
1312
947
1037
420
-119
-410
-1061
-1290
-1187
-1571
-1657
-1436
-1425
-1600
-1381
-746
-580
-302
7
-333
-144
-129
-340
-315
-282
63
-74
-20
-87
30
-312
-257
-86
345
166
382
284
-46
-47
273
359
169
200
204
181
368
-11
109
48
113
-7
339
309
-58
120
-107
-2
352
139
148
158
152
346
-20
-90
-35
383
527
543
206
143
161
205
191
137
137
223
560
522
379
261
261
358
221
580
414
461
407
534
206
553
497
891
875
793
778
845
643
893
649
1026
949
1286
927
730
852
838
880
651
662
667
886
494
548
142
146
534
412
439
607
221
130
366
144
198
244
516
229
148
282
-100
78
84
-92
-5
272
-47
107
38
37
76
112
-118
-89
-66
-85
80
-305
-137
-135
-329
-276
-283
-347
-185
-538
-622
-409
-387
-562
-217
-178
-218
-561
-614
-578
-208
-343
-289
-310
-364
-165
-221
-530
-539
-204
-319
35
-258
-162
-587
-399
-619
-558
-529
-526
-253
-216
-202
-241
-547
-537
-185
-319
-267
-328
-200
-561
-586
-522
-381
66
257
378
376
266
-114
101
-86
293
377
360
-1
-124
72
105
-56
302
373
144
379
310
-46
-126
115
-85
-2
310
320
301
268
-32
-74
-79
-30
298
334
297
-45
124
72
62
101
-66
304
133
130
286
-111
55
81
-48
337
352
-29
59
-277
31
-119
-55
-50
-57
-53
-85
58
-344
-163
-367
10
99
103
54
11
-257
24
87
-80
-9
-1
-57
122
59
16
-283
-309
-282
45
82
7
-153
-534
-515
-362
72
-82
-72
-115
81
7
-323
-355
-294
111
268
341
304
-30
-41
323
245
401
473
466
402
551
171
340
349
194
559
593
532
174
357
349
139
198
233
228
206
195
197
184
149
139
209
603
470
494
410
546
212
211
521
583
619
622
606
585
556
530
553
408
839
718
706
802
620
556
384
775
833
506
612
223
174
208
526
574
604
634
403
384
545
146
276
-38
-26
275
298
-1
-119
-267
-366
-361
-267
101
-88
-90
94
-286
-161
-220
-153
3
121
97
-303
-196
-517
-256
-248
-240
-177
-308
44
20
-343
-383
-265
-61
334
349
316
321
351
353
361
235
800
932
1221
1575
1538
1225
1222
1540
1643
1477
1472
1573
1303
1034
841
417
169
59
-610
-722
-1024
-1547
-1507
-1845
-1476
-1208
-905
-669
-512
-397
-568
-527
-521
-232
-377
30
122
94
-263
-319
-262
126
-11
297
296
277
-10
-61
-118
118
-95
-9
315
316
-14
-117
67
61
104
-84
-9
320
353
301
-81
76
107
270
190
251
190
352
302
284
257
-18
278
373
179
382
-14
-121
-97
309
242
630
400
583
208
380
139
234
580
603
587
615
457
803
810
506
772
648
1075
1141
1050
895
814
836
878
876
866
658
746
758
883
429
583
407
840
681
867
448
590
588
638
399
630
625
425
495
474
580
135
298
351
208
252
196
359
285
-23
-74
-94
-32
340
138
294
90
-333
-378
-343
-313
-314
-315
-316
-367
-228
-607
-395
-595
-240
-175
-177
-235
-584
-428
-493
-479
-387
-536
-229
-527
-633
-489
-808
-791
-443
-587
-538
-588
-433
-496
-481
-440
-444
-475
-450
-599
-255
-562
-481
-871
-830
-401
-520
-523
-618
-447
-486
-512
-790
-500
-624
-188
-315
-292
-346
-147
-160
-380
-312
11
37
-266
-377
-232
-531
-215
-335
60
-127
109
36
-295
-360
-164
-200
-165
-305
70
71
-329
-250
-557
-176
16
-128
122
63
22
-264
-309
-349
-328
15
95
89
-259
-370
-185
-202
-171
-355
2
80
72
-282
-154
-237
-516
-253
-238
-211
-177
-177
-253
-634
-453
-403
-256
-382
-363
-197
-570
-393
-422
-425
-408
-614
-534
-207
-197
-518
-617
-428
-417
-583
-210
-150
-204
-618
-791
-872
-810
-391
-225
-146
-178
-538
-637
-406
-603
-250
-175
-142
-135
-132
-380
-365
-327
9
-128
-23
261
-55
97
16
-268
-257
35
107
-35
329
347
-11
104
55
-113
279
330
-8
113
24
8
33
83
-69
345
232
524
183
309
-15
272
363
188
213
181
377
322
304
329
134
210
527
553
543
251
199
129
299
-22
-17
316
129
347
-65
20
-291
52
-58
293
294
-37
93
-313
-185
-231
-183
-372
-374
-198
-550
-604
-623
-387
-392
-589
-215
-137
-203
-402
-850
-644
-805
-421
-637
-433
-502
-778
-497
-471
-463
-439
-615
-250
-199
-527
-441
-845
-869
-507
-600
-183
-274
-78
132
570
472
666
918
1399
1217
1369
943
1104
1097
1076
714
833
495
449
555
-53
-548
-751
-1302
-1181
-1247
-1565
-1623
-1650
-1628
-1539
-1366
-1113
-841
-635
-541
-551
-618
-439
-472
-402
-223
-279
60
-296
-235
-608
-560
-156
-290
8
9
20
22
-279
-355
-137
-357
-280
19
0
-315
-377
-163
-169
-374
-260
125
-56
-62
-116
90
72
79
105
-106
-59
-47
-94
80
29
38
87
-117
-67
-10
287
-1
-128
-268
-288
116
333
200
168
308
-33
-43
-16
267
314
159
552
404
437
418
421
488
867
731
1045
752
880
454
574
541
630
787
664
705
643
789
444
418
452
511
805
789
461
607
236
148
371
143
200
221
158
276
-116
82
108
-86
-43
-31
-35
-58
-115
60
1
-257
51
121
-91
-91
113
17
-346
-159
-163
-379
-352
-382
-217
-597
-454
-506
-468
-606
-215
-139
-161
-522
-393
-492
-796
-785
-457
-607
-537
-562
-414
-510
-492
-599
-159
-328
-133
-548
-460
-836
-643
-648
-836
-453
-578
-520
-560
-389
-437
-405
-571
-222
-171
-178
-230
-546
-552
-220
-349
21
80
98
97
63
-276
-380
-173
-374
10
122
-104
106
34
-273
-286
-263
31
55
43
-258
-316
-369
-144
-374
-263
-92
304
326
-25
106
31
7
-261
-265
21
79
97
20
-358
-146
-302
-126
-8
-22
-122
24
-312
-366
-138
-368
-282
79
-124
91
-289
-177
-519
-240
-133
-297
-312
-178
-567
-609
-552
-212
-162
-139
-371
-353
-381
-219
-586
-386
-598
-210
-323
0
-313
-201
-578
-589
-246
-149
-377
-155
-203
-239
-537
-596
-627
-564
-151
5
35
-344
-517
-589
-243
-325
53
71
55
89
-94
-62
-95
-119
-39
380
237
206
329
-35
-50
-21
-17
-38
-25
297
336
260
94
-287
-260
-101
311
356
299
-26
-48
-35
-18
264
316
372
374
300
-54
-98
-57
290
128
213
549
596
561
189
331
316
155
524
556
247
188
188
230
515
525
564
398
471
438
541
361
267
293
136
238
554
554
230
372
286
288
367
187
184
360
260
-76
113
41
-267
-260
52
89
43
-340
-229
-577
-584
-529
-206
-170
-178
-215
-517
-556
-578
-557
-211
-331
21
-261
-137
-518
-536
-194
-339
-261
58
127
-97
89
-316
-158
-354
90
260
308
280
310
222
495
1043
1308
1538
1437
1444
1537
1309
933
994
1388
1179
1336
937
1106
1028
815
153
-320
-407
-829
-695
-912
-1195
-1619
-1540
-1011
-715
-498
-593
-183
-328
-342
-213
-574
-520
-319
119
-118
3
-166
-244
-212
-129
-319
-300
-315
-340
-362
-381
-142
-143
-356
4
-128
-62
-107
22
-347
-368
-284
107
-40
-3
-26
-69
-94
-87
-56
-14
284
320
327
277
-87
56
18
102
280
208
566
555
216
136
376
187
559
407
446
416
616
593
636
473
835
678
767
1089
1104
1055
725
690
736
1096
927
935
1121
1028
707
690
704
737
1045
1108
1133
1063
646
496
469
827
693
720
648
820
790
791
772
480
480
781
803
477
578
168
347
348
383
156
168
169
153
373
314
-13
-60
-40
297
362
317
-114
-325
-187
-163
-307
62
118
110
46
-304
-379
-131
-325
16
73
72
12
-358
-231
-565
-534
-159
-301
-269
-323
-148
-208
-247
-530
-533
-239
-175
-381
-374
-154
-211
-256
-236
-374
65
-55
-74
6
-201
-540
-190
11
-64
272
-1
-47
-60
-17
305
346
352
347
349
334
265
-96
92
127
-9
366
156
130
333
278
-31
-69
-47
310
175
211
378
-23
-99
-51
320
152
179
174
155
352
-17
-123
118
-52
306
340
323
318
325
281
-87
89
-99
345
208
372
-120
-296
-294
72
-110
-124
82
48
4
-345
-188
-204
-353
69
-70
-60
127
46
3
6
36
67
83
86
84
67
8
-347
-176
-171
-317
69
104
9
-142
-240
-240
-169
-332
7
68
95
90
74
84
-116
-6
143
539
596
517
343
-45
-25
380
533
595
579
550
522
211
130
347
152
516
558
217
317
-53
-58
277
381
203
229
196
380
310
279
292
340
152
218
253
232
162
333
276
272
319
149
238
532
216
348
262
291
159
538
578
539
216
156
365
333
331
366
169
212
206
136
267
-119
71
115
-10
365
376
266
118
33
57
-95
287
142
219
249
213
377
299
319
186
577
598
219
299
-66
-69
-15
293
349
185
546
603
577
514
237
536
597
622
600
566
535
240
193
176
238
635
792
870
825
432
536
183
152
150
128
321
-26
-125
49
14
47
-110
258
309
277
-58
125
79
41
18
47
-113
-9
268
-90
-264
-149
-175
-336
70
-83
-101
25
-366
-374
40
261
144
140
305
-31
-57
-31
309
218
469
751
993
1166
1268
1550
1248
1192
1224
1627
1504
1441
1153
1068
874
829
486
202
17
-417
-736
-971
-1181
-1605
-1410
-1602
-1203
-1023
-1081
-662
-863
-668
-744
-692
-493
-542
-213
-549
-413
-452
-388
-525
-155
-341
-336
-378
-162
-156
-360
-304
-258
73
-45
370
200
164
328
298
132
550
430
481
447
614
253
185
209
591
503
874
876
774
389
571
601
461
845
645
855
504
437
430
458
486
778
847
676
715
667
825
508
790
882
725
1041
1049
746
654
816
780
833
684
1029
1053
762
692
869
801
778
816
888
672
894
798
426
591
535
520
558
627
403
594
184
292
-7
337
235
614
389
583
199
307
-69
-121
-102
-54
-38
-90
64
-293
-347
-346
-301
21
77
88
29
-343
-206
-521
-235
-137
-287
19
-272
-378
-227
-515
-201
-351
3
72
113
120
77
-261
-329
-327
-263
62
84
58
9
-301
-351
-376
-346
-257
105
-99
115
2
-365
-135
-292
-113
291
316
-28
114
55
48
45
31
42
97
-99
-91
120
84
98
-110
-60
-11
300
328
263
103
-302
-304
118
319
137
293
115
-271
-295
1
42
60
63
57
21
-316
-158
-209
-164
-290
106
-81
-110
53
-288
-306
18
-117
-15
266
-43
127
46
-282
-348
-360
-277
118
-69
89
-370
-247
-194
-269
-118
-90
117
83
88
92
64
33
58
-101
289
152
206
189
139
368
147
234
574
598
542
180
335
299
344
186
548
631
424
418
584
172
308
325
220
633
407
559
173
374
145
197
249
566
627
635
553
160
315
313
137
231
540
537
223
138
325
318
130
235
565
564
247
171
361
302
256
260
342
198
234
133
-50
78
94
-42
319
337
293
-12
-50
-92
121
124
-53
311
351
281
-106
55
50
114
-69
-14
273
278
-14
-91
88
43
25
21
40
100
-74
-49
123
-268
-320
43
-28
338
310
-28
-51
-4
303
334
157
588
773
805
626
140
334
233
442
775
452
386
427
789
849
838
837
648
735
749
651
499
633
583
594
389
468
799
823
769
401
551
245
515
560
587
558
193
275
97
0
33
-97
279
312
-10
-120
48
17
44
110
-73
-40
-81
67
-320
-164
-202
-170
-339
10
51
9
-337
-154
-179
-174
-154
-370
-315
-296
-367
-247
-598
-551
-363
-119
356
534
437
846
752
941
1396
1551
1620
1645
1446
1523
1504
1576
1335
980
1311
1344
1069
212
-197
-888
-1035
-1056
-1121
-989
-1321
-1013
-1113
-677
-771
-603
-138
96
273
322
-6
-105
123
-69
290
370
145
139
358
284
-59
-95
-24
145
569
633
570
198
374
371
159
208
247
546
585
583
522
181
146
213
619
511
820
502
639
560
572
392
478
795
830
838
796
450
618
602
424
794
858
834
492
396
584
548
541
562
600
639
408
402
622
573
558
626
777
675
727
888
468
625
397
497
818
802
488
436
388
574
237
198
230
557
604
602
568
532
239
196
169
186
228
233
153
268
-104
-127
-46
345
218
545
536
202
355
278
-8
257
286
335
134
135
280
95
-282
36
-14
154
135
-41
32
-301
-275
49
-126
-32
295
280
-100
-262
-361
-357
-292
23
44
32
-259
-314
-370
-135
-350
0
98
-116
97
-268
-383
-182
-141
-289
77
126
96
20
-303
-332
-334
-332
-323
-288
19
36
-285
-161
-532
-550
-197
-307
50
45
-318
-192
-248
-182
-296
86
-113
-111
116
48
-332
-212
-532
-218
-360
-304
-352
-194
-247
-210
-363
12
105
-116
112
45
-283
-334
-365
-364
-298
107
294
166
166
335
276
330
215
588
583
200
294
-66
-81
-36
289
371
205
528
522
172
296
-44
-27
325
165
191
136
309
263
286
347
149
195
236
529
520
170
289
-41
270
155
518
252
146
294
-18
-39
-60
-70
-18
356
206
195
308
-117
72
-121
-20
262
-62
95
21
-273
-278
22
-127
-8
298
256
-75
-110
-114
117
80
111
-16
376
380
-27
57
18
124
265
334
307
-29
-124
49
13
44
118
-74
-51
-58
-85
106
-258
-347
-317
111
320
152
314
-127
14
58
-31
150
254
512
181
332
-11
-38
259
347
180
235
249
242
229
222
228
518
578
638
411
400
613
548
219
170
201
585
483
807
480
595
255
559
452
877
736
766
716
878
802
784
806
827
827
828
845
845
791
453
422
488
854
894
804
623
172
262
-117
70
70
116
-121
63
-336
-195
-203
-371
-270
34
33
33
37
9
-325
-149
-143
-291
93
-123
50
-351
-216
-526
-522
-216
-138
-333
-344
-178
-527
-533
-185
-314
27
70
114
-75
257
342
230
486
1101
1228
1529
1685
1717
1719
1784
1932
2331
2353
1963
1754
1813
1617
1322
866
325
-153
-484
-706
-906
-1373
-1280
-1559
-1387
-1042
-622
-269
-92
-85
99
57
78
-120
-49
295
128
173
136
315
290
360
222
561
566
253
170
347
306
340
191
566
631
624
580
526
204
138
381
214
611
431
629
244
165
185
246
550
589
391
443
417
560
187
166
254
635
464
499
499
474
425
392
436
818
691
726
894
489
618
553
548
604
460
838
895
839
446
585
571
413
810
652
670
887
846
840
871
668
735
1058
1090
1052
695
841
781
781
809
840
880
675
688
854
411
245
213
572
439
462
620
221
377
353
129
182
231
250
217
141
312
263
261
286
309
320
329
328
278
-95
25
-291
35
-79
263
-37
89
-284
-325
-304
-260
46
88
92
24
-369
-256
-589
-584
-525
-190
-379
-359
-157
-513
-574
-540
-177
-324
-269
-262
-292
-366
-221
-554
-254
-348
75
121
35
-333
-376
-350
-315
-300
-287
-258
9
-300
-152
-514
-565
-551
-240
-172
-370
-338
-339
-364
-381
-357
-278
86
-92
-108
27
-133
-239
-241
-166
-323
23
94
126
97
30
16
125
335
531
615
594
548
535
552
573
598
636
415
399
572
210
155
187
534
633
445
471
452
639
527
156
358
152
535
387
388
528
379
304
347
209
583
389
386
594
526
202
144
354
314
272
-23
-60
-110
69
-257
10
-91
165
627
390
225
276
-87
-76
-34
-31
-62
-82
-79
-85
-114
120
-115
-38
319
383
359
-20
71
-294
-286
62
-110
-95
-123
113
115
111
82
63
110
-23
372
176
353
-77
46
67
-28
146
212
173
373
360
365
357
129
255
443
810
493
568
162
137
208
559
391
473
797
822
807
795
822
884
687
715
693
858
440
518
174
244
435
878
701
664
839
778
496
474
425
607
534
219
159
329
-37
127
117
-52
311
329
-46
12
-146
-202
-171
-362
-308
-277
-272
-289
-319
-349
-375
-137
-129
-342
-287
-275
-343
-199
-522
-225
-358
18
73
65
22
-299
-365
-377
-264
-8
567
821
682
702
730
1086
983
1369
1182
1196
1170
1329
1126
857
384
561
551
162
30
-787
-1024
-1256
-1238
-1383
-1316
-1289
-961
-1054
-842
-399
-514
-380
39
-55
294
299
271
286
360
187
234
522
583
398
399
539
375
298
379
556
447
493
453
633
556
247
243
563
410
497
780
493
427
620
599
387
491
848
873
805
456
411
424
446
447
457
500
790
478
575
156
367
202
601
448
493
507
492
430
606
595
455
877
697
867
442
594
619
454
784
820
852
885
866
499
600
252
542
409
775
795
474
635
560
532
557
634
487
826
818
439
515
131
140
533
442
780
480
621
534
524
566
600
594
558
519
217
145
301
-41
-71
-38
286
352
128
358
269
-114
47
44
-122
-19
262
-72
58
-294
-318
-282
30
79
103
87
32
-311
-140
-174
-381
-261
106
123
31
-356
-183
-193
-173
-160
-133
-326
-267
-294
-175
-582
-619
-521
-132
-338
-131
-211
-522
-548
-552
-250
-129
26
121
91
-295
-170
-208
-148
-305
16
17
-279
-328
-372
-155
-177
-158
-347
-267
23
-277
-379
-207
-200
-348
57
-102
-109
72
13
16
44
36
6
39
-69
128
235
189
329
286
378
550
437
482
421
545
148
326
355
213
592
399
632
545
181
355
342
142
218
513
244
206
169
136
367
376
188
549
622
605
246
377
302
305
380
242
604
638
564
156
271
-30
286
137
210
213
164
363
321
295
286
307
352
379
343
-3
-98
96
73
93
-73
335
204
179
-10
45
9
-109
296
304
-55
-126
-107
-79
-124
61
86
-29
349
312
-123
-288
-312
40
-118
-80
-65
-7
345
148
367
271
-40
277
167
545
558
224
140
378
174
516
620
477
825
844
510
387
562
571
638
453
496
511
485
402
542
223
544
459
867
886
511
606
245
218
226
228
208
163
343
-22
112
14
-289
-279
37
119
-86
-118
29
-335
-347
12
-108
-40
-71
109
47
16
2
8
56
-112
-41
-53
94
-309
-161
-191
-156
-353
-300
-264
8
22
81
-26
229
803
1112
1360
1248
1257
1395
980
911
996
1403
1180
994
674
384
196
276
1
-615
-696
-956
-1195
-1473
-1742
-2113
-1727
-1413
-1316
-1037
-862
-772
-477
-437
-602
-196
-310
7
-271
-297
0
84
-108
-86
-55
287
150
231
229
166
368
377
208
592
430
425
583
227
207
531
619
427
477
785
816
782
442
627
607
618
637
422
502
828
810
448
630
453
659
1088
1090
682
504
404
394
435
511
871
720
1032
755
673
841
798
821
893
698
688
847
458
626
384
485
862
675
673
888
848
821
785
474
441
485
859
696
655
481
561
516
617
498
805
484
618
249
165
362
341
128
226
564
553
180
284
-65
-61
-8
289
287
-13
-98
35
-332
-357
-269
120
-63
-78
-122
114
92
22
-322
-333
35
-65
-6
-96
-263
-382
-382
-284
98
-85
-120
5
-140
-209
-189
-133
-351
-323
-271
50
68
3
-348
-380
-309
71
-94
-96
69
-308
-134
-139
-340
-273
30
71
109
101
10
-367
-137
-264
-79
-14
-125
-302
-152
-165
-154
-156
-130
-312
-259
-308
-177
-249
-182
-288
75
79
34
17
30
2
-351
-208
-235
-137
25
-119
126
11
-382
-201
-177
-334
28
58
-289
-203
-590
-581
-189
-294
41
58
88
-122
123
21
-334
-293
-93
132
229
183
353
310
312
324
360
180
521
530
176
304
257
323
181
515
545
562
571
535
182
333
301
368
219
536
520
204
155
383
362
354
134
213
519
205
295
-114
116
-29
134
512
568
564
239
368
-7
-32
307
150
160
326
-35
-76
-44
277
345
156
214
228
161
280
-116
73
111
-34
329
361
317
-12
-69
-105
117
106
-89
306
180
183
296
-114
-113
333
555
624
250
326
-34
-57
-76
-116
-99
289
209
539
209
346
321
151
250
544
547
574
606
577
235
188
522
444
854
888
811
454
387
599
535
193
138
155
214
223
374
-52
95
126
-13
318
285
-68
101
41
-271
-307
-265
-128
283
344
282
-92
77
55
86
-108
-44
-30
-106
20
-318
-286
85
-58
270
314
330
275
-112
20
20
-86
382
547
399
771
678
1125
1309
1210
1583
1635
1619
1580
1554
1256
1392
950
1057
764
755
847
185
-362
-848
-908
-1343
-1200
-1258
-1235
-1153
-1333
-1297
-990
-1094
-830
-554
-146
-175
-558
-638
-589
-201
-342
-292
-274
11
32
-263
-356
-161
-349
109
353
537
609
586
522
236
549
442
861
678
874
488
398
405
470
786
831
893
721
766
705
817
449
471
869
761
1072
1028
697
648
887
891
666
743
1108
934
928
1084
695
883
687
1105
1011
1329
1016
903
1077
1063
1096
1146
947
1003
1280
973
1120
754
707
736
1057
1090
1050
687
815
462
431
458
781
861
671
686
878
501
404
401
483
819
818
488
406
605
556
237
188
190
221
209
378
263
-71
-102
127
94
110
-54
293
262
89
-353
-136
2
-55
311
293
-36
-80
-73
-54
-57
-74
-65
-11
307
303
-56
53
-282
36
-64
316
313
-58
56
-286
-292
23
125
-23
294
271
-74
91
58
91
-96
-22
296
330
310
-30
119
61
99
-46
323
378
362
297
-48
-123
119
-63
318
143
374
275
-56
-53
-19
-12
-15
289
375
131
-17
7
-383
-322
113
-1
291
260
-42
-102
77
43
119
280
149
136
266
-126
74
98
-102
-42
269
304
284
-69
51
-296
-285
61
-116
-118
69
6
0
34
58
64
93
-86
257
278
-59
55
-307
-298
98
307
217
514
191
377
148
518
627
403
386
385
401
619
244
133
155
577
495
787
419
528
200
211
247
531
570
628
404
613
232
367
333
157
549
387
635
536
169
380
165
236
539
551
555
567
559
242
146
342
378
250
396
464
403
241
328
-12
273
359
160
145
342
284
-6
-17
256
322
172
517
518
159
268
-94
-112
-58
290
134
221
254
204
358
294
338
208
562
547
188
339
279
-8
-27
257
372
538
392
632
536
213
234
566
385
428
438
411
604
538
530
609
482
850
645
892
839
488
613
230
169
197
254
246
135
-25
115
94
-122
-77
-46
-11
280
266
-84
44
-264
79
257
137
382
-19
70
-265
25
110
-75
-34
-4
283
285
-19
-84
-99
-32
327
383
353
267
-60
-58
289
211
460
742
992
1166
1267
1573
1592
1594
1609
1424
1793
1844
1467
1186
903
1027
751
643
544
3
-512
-1114
-1326
-1251
-1663
-1429
-1254
-966
-719
-859
-833
-801
-458
-592
-222
-145
-131
-183
-523
-557
-227
-332
63
122
108
71
35
0
-280
8
127
309
222
585
621
603
562
545
598
468
845
867
778
407
619
402
475
805
884
709
749
710
866
781
510
815
895
723
1029
742
884
504
480
841
725
1046
763
713
692
671
865
804
838
728
1137
918
1086
724
698
750
1076
1134
930
974
959
1097
656
771
499
847
693
714
893
768
393
579
590
425
804
869
819
429
560
513
520
517
224
192
201
221
189
346
-13
-40
273
349
366
304
-63
72
-292
-362
-358
-270
113
-70
-116
-259
-143
-182
-383
-319
-315
-352
-370
-365
-136
-209
-245
-150
52
-35
-27
96
-308
-382
-137
-384
-346
1
101
113
-261
-157
-204
-365
28
95
73
27
-259
-302
-380
-191
-178
-332
32
59
1
-327
-356
-342
-317
-286
29
111
-93
126
-257
-133
-175
-350
53
-93
-86
92
3
-282
0
33
45
49
63
62
-262
-133
-242
-253
-161
-304
8
-261
-310
-371
-194
-526
-533
-158
43
-70
-99
-274
-185
-204
-338
55
98
44
-294
-359
-161
-229
-538
-525
-176
-309
24
1
-372
-255
-574
-251
-349
46
80
27
-285
-286
14
77
-98
272
132
178
369
-26
114
96
-78
295
360
328
-10
-63
-41
278
312
306
319
134
214
215
381
280
-5
298
363
140
132
338
-10
-121
68
110
-2
164
250
218
358
-27
-109
-116
-57
282
334
324
257
-83
114
100
-124
-58
273
323
314
-28
98
-261
-278
55
-93
-43
-87
63
-293
-340
-328
-273
73
-76
-4
-28
93
-330
-155
-355
32
120
115
58
13
-263
-274
-270
37
125
-87
108
-281
-378
-371
-304
-258
14
69
-56
333
344
-43
65
46
-84
316
349
274
-56
-50
279
351
145
220
607
485
770
394
210
360
143
519
607
621
603
579
529
181
351
347
170
227
152
-39
19
-347
-369
-353
-320
-267
41
41
-289
-142
-216
-217
-159
-339
-283
-272
-319
-147
-219
-233
-179
-347
-270
12
-293
-151
-537
-609
-573
-194
-327
-291
-362
-233
-594
-613
-536
-384
82
330
590
817
730
1111
969
1338
1182
1263
1590
1638
1603
1179
928
730
668
652
476
288
-585
-912
-1578
-1820
-1699
-1747
-1691
-1808
-1652
-1264
-1382
-936
-702
-502
-413
-422
-459
-470
-465
-464
-441
-605
-171
39
-72
-44
-110
72
59
119
-37
297
311
266
-48
-77
-67
-27
305
166
552
618
570
182
322
303
382
516
397
490
491
639
238
178
517
414
499
471
411
402
429
422
631
630
475
870
671
848
449
614
616
430
786
894
722
739
669
801
435
638
395
453
780
817
770
632
225
180
554
499
883
838
415
522
226
524
563
560
549
566
586
554
201
349
294
307
358
150
170
134
277
112
-275
-283
93
-15
287
-73
5
-371
-368
-287
38
44
12
-263
-270
-308
-136
-215
-209
-349
68
-90
-117
13
-372
-157
-339
41
115
90
-259
-344
-381
-137
-158
-176
-141
-305
32
29
-311
-141
-158
-365
-298
6
26
6
-321
-163
-226
-206
-379
-293
16
50
77
65
-275
-135
-183
-356
52
-122
69
-335
-176
-146
-301
33
52
53
60
32
-334
-236
-596
-572
-193
-328
-279
-302
-362
-173
-205
-156
-283
98
116
7
-138
-209
-185
-132
-354
-322
-261
60
57
-304
-190
-526
-243
-157
-352
-370
-199
-554
-613
-601
-529
-189
-135
-372
-361
-333
-308
-328
-384
-146
-302
-104
329
373
281
-91
-119
-43
324
136
143
375
340
282
-64
109
107
-27
163
539
232
293
107
72
-58
374
218
203
377
286
-58
116
73
126
268
140
140
259
107
76
-76
310
371
367
357
358
324
-14
-82
-60
304
154
184
145
327
-34
89
-280
-304
25
106
96
-265
-384
-184
-163
-356
-282
38
77
80
46
-264
-327
-371
-356
-263
117
-74
-127
9
-317
-269
107
-50
-31
-76
108
28
-310
-384
-163
-380
-263
-122
-32
-39
-109
109
-94
277
368
380
339
300
278
-3
-30
-8
363
550
464
783
471
621
560
603
470
849
643
859
508
409
593
556
555
596
415
485
509
468
392
585
572
610
400
393
546
356
-109
4
-287
20
95
-124
123
95
76
66
45
3
-275
28
-125
-47
-85
9
-164
-218
-374
33
93
10
-146
-514
-531
-238
-212
-193
-132
-279
52
-261
-178
-574
-531
-303
-31
154
247
597
508
726
942
1377
1256
1599
1657
1459
1516
1507
1630
1173
1322
1373
1162
925
568
-201
-1056
-1347
-1191
-1271
-1620
-1648
-1577
-1191
-1283
-1052
-473
-133
92
125
22
-352
-143
-365
-284
56
-127
-66
-14
260
-39
126
58
95
-16
146
225
198
379
320
302
318
360
163
214
223
180
365
320
344
182
560
396
417
633
565
241
198
208
561
469
860
864
480
592
561
398
778
845
852
839
816
497
385
535
249
563
390
419
612
234
136
129
227
634
498
784
463
616
544
535
565
591
603
625
419
469
460
634
530
221
244
553
563
239
360
-45
111
107
-55
339
179
178
348
-22
-103
124
-126
-118
-124
120
120
116
75
1
-293
49
-12
144
359
125
-384
-224
-154
-299
10
17
36
61
32
-319
-146
-138
-307
25
23
-292
-351
-131
-163
-196
-192
-373
-258
57
-276
-210
-391
-444
-613
-223
-144
-139
-156
-160
-159
-172
-176
-372
8
114
117
8
-138
-224
-214
-135
-303
1
-269
-330
-148
-206
-236
-232
-183
-349
-266
-264
-376
-533
-608
-535
-375
6
33
-257
-292
-319
-376
-202
-231
-133
47
-86
123
-315
-213
-213
-334
61
90
8
-346
-129
-376
-382
-176
-222
-187
-308
106
-80
113
-270
-336
-270
-108
310
149
171
144
352
308
301
357
204
545
551
215
363
294
297
365
206
545
579
555
230
144
324
293
337
183
527
522
158
284
-19
294
383
170
166
166
192
199
138
295
256
337
228
565
240
332
-38
-17
342
152
136
360
378
144
318
120
-316
-331
67
-50
-34
-102
117
-108
-78
-92
-90
-3
380
170
323
-114
11
-263
55
-108
-21
275
-31
90
-298
-328
6
102
-114
-114
-104
-98
91
-321
-207
-197
-282
-80
260
-50
113
82
123
-70
-16
301
368
142
339
-37
-115
-58
135
606
463
438
609
569
609
416
440
430
445
500
794
492
639
568
615
502
893
684
641
808
456
628
563
522
233
180
351
-19
105
-285
-134
-152
-309
111
-34
-57
80
-285
-313
-288
-261
26
83
-115
125
13
-362
-372
0
-120
-66
-100
89
9
-368
-514
-600
-555
-174
-360
-152
-244
-251
-134
47
-32
154
394
670
1147
985
964
921
930
1007
1372
1202
1201
1311
1028
453
221
353
-38
-340
-836
-1385
-1811
-1785
-2125
-2126
-1791
-1865
-1606
-1349
-907
-1029
-886
-435
-204
17
-66
291
303
-18
-90
-79
292
183
512
232
175
147
136
375
381
211
609
429
611
199
371
168
519
549
532
573
440
784
463
539
157
213
394
799
821
494
428
409
413
417
448
804
692
1044
765
645
791
770
828
653
718
760
760
678
777
638
627
500
647
677
834
453
400
425
475
777
844
672
706
880
456
571
553
387
488
788
790
798
816
804
491
434
430
469
485
433
584
217
135
352
367
188
550
604
536
357
-84
94
-96
305
175
227
217
179
137
347
303
279
283
287
-2
-89
54
-286
-301
13
126
258
348
343
-20
78
-304
-344
-299
36
94
95
36
-312
-131
-142
-336
18
95
106
41
-327
-173
-209
-177
-366
-307
-269
13
10
-306
-157
-235
-200
-314
80
96
-268
-138
-172
-364
-284
12
27
45
44
-292
-199
-607
-391
-570
-203
-138
-372
-358
-360
-151
-219
-225
-374
35
104
28
-367
-192
-181
-133
-350
-292
67
-100
-123
-274
-180
-215
-366
15
41
-285
-354
-354
-323
-329
-366
-347
39
-38
296
-71
-291
-170
-348
-104
131
228
195
134
373
130
136
131
145
182
201
163
344
299
336
178
533
587
586
539
194
323
-67
108
-127
-16
368
174
152
346
309
325
372
165
205
242
514
209
331
-83
97
-95
321
195
203
352
-37
-105
-72
296
170
244
216
363
-13
-84
-108
-124
113
-127
-61
259
-17
120
-274
-327
-265
116
-24
295
297
-2
-51
-43
306
183
529
527
203
376
307
-5
-52
-71
-36
303
136
168
364
-8
-86
-39
381
556
626
574
206
362
305
301
367
244
632
406
565
176
132
214
600
415
634
529
176
373
330
264
-83
119
-89
300
146
373
-24
115
125
-15
356
143
383
344
272
-97
60
66
-63
337
381
313
-43
-105
-126
-127
-102
-28
321
366
326
-13
-51
275
214
485
745
927
1280
1337
1400
1194
1180
1371
1336
1376
1171
1352
1092
479
185
285
-55
48
-525
-734
-1229
-1851
-1729
-1897
-1433
-1216
-1292
-1138
-738
-846
-440
-530
-358
27
62
-263
-129
-214
-204
-375
-284
16
30
60
117
-101
-124
68
37
96
-35
331
357
302
-29
-46
289
189
625
782
645
708
699
883
808
806
893
759
1087
1073
740
641
814
792
865
1024
926
972
1117
671
795
806
679
1079
1143
1107
1025
718
735
1054
1113
1137
1131
1116
1111
1123
1131
1097
751
647
861
672
1063
905
1136
747
867
843
720
938
1349
1327
1131
887
487
498
856
685
700
655
835
492
418
390
431
505
797
493
639
517
168
382
148
233
593
636
568
164
282
-38
-51
-74
-121
96
88
77
11
-360
-192
-165
-270
-81
282
-16
76
-383
-532
-577
-526
-168
-328
-287
-309
-359
-368
-302
73
-74
-24
-36
-84
100
13
-316
-333
-270
94
-69
-32
-48
-100
79
-257
-281
62
-27
350
307
116
-320
-345
42
-59
263
-2
-9
268
269
-31
-66
-19
341
143
337
-63
76
53
99
-99
-53
-4
325
156
221
219
137
275
-50
-12
340
364
-29
-284
-246
-544
-145
79
267
357
352
286
-57
-103
-61
304
134
348
-85
-287
-130
-348
-263
23
2
18
121
-21
-26
73
-365
-155
-292
117
-103
65
-292
-305
15
72
87
107
-86
-13
-13
-115
22
3
-126
333
236
548
521
217
187
166
143
129
146
181
189
138
308
-9
265
367
526
423
495
435
530
129
364
207
570
585
524
222
230
248
229
204
251
396
806
851
503
608
251
244
555
613
400
446
497
772
470
637
591
400
813
688
678
511
543
137
379
203
551
606
623
610
559
220
154
167
515
590
542
362
-113
1
-298
-299
-306
-295
28
-126
-64
-107
28
-321
-307
47
127
102
-263
-373
-168
-175
-182
-184
-132
-277
76
72
-297
-170
-208
-376
41
-71
-16
-63
105
81
-61
150
608
485
853
1028
986
1370
1336
951
1131
912
962
1135
882
541
-35
-292
-237
-398
-796
-707
-952
-1280
-1856
-1768
-1698
-1442
-1403
-935
-1057
-665
-482
-555
-176
-343
51
-12
382
355
-49
112
-67
376
512
527
239
242
248
170
271
-88
-28
154
560
567
207
360
331
359
138
166
206
516
552
522
185
377
138
241
621
433
430
636
560
208
375
351
179
589
443
424
559
192
182
524
625
409
620
529
201
193
245
559
574
553
555
605
400
388
573
524
575
465
894
1032
1112
1139
1128
1095
1081
1125
970
1326
1357
1289
1139
718
864
844
643
717
751
720
890
784
459
480
865
1036
1134
1084
660
473
606
553
547
579
394
469
480
637
217
347
337
161
249
526
213
362
-12
-100
-117
-48
322
129
327
-89
4
-335
-342
-323
-295
10
69
63
-316
-240
-594
-537
-136
-299
-333
-186
-535
-579
-589
-573
-519
-170
-333
-292
-317
-382
-187
-218
-210
-165
-355
-305
-321
-169
-575
-430
-438
-593
-180
-296
23
-269
-376
-221
-239
-171
-342
-321
-367
-153
-143
-364
-352
-346
-263
-72
133
211
365
-79
52
57
-114
-30
269
276
265
-11
-32
-32
260
321
374
137
358
272
-98
57
21
89
-25
356
381
295
-80
120
-100
-28
270
266
-3
-1
-8
-64
102
49
93
-34
356
171
154
317
-70
77
58
-99
296
332
-67
-311
-231
-234
-372
0
50
51
33
-266
-338
-142
-137
-327
-271
-270
-288
-270
22
0
-357
-197
-176
-296
77
52
-367
-550
-632
-589
-212
-337
12
46
22
-286
-321
-308
7
86
-93
-22
291
308
274
-28
-9
135
625
817
852
476
577
512
571
430
783
820
791
457
613
549
565
405
789
882
652
876
815
502
484
771
822
847
815
478
385
557
232
191
189
224
522
550
548
249
151
269
-94
-85
286
383
343
-79
29
16
120
-21
298
335
366
350
-18
63
-330
-361
-316
-270
-257
-262
-281
-320
-358
-350
-264
125
-18
299
335
380
199
562
468
699
959
1168
1236
1393
936
736
874
854
857
503
234
84
-601
-682
-903
-1334
-1277
-1506
-1706
-2063
-1789
-1685
-1528
-1583
-1326
-1025
-469
-225
-330
-268
-262
3
87
267
213
559
222
309
-50
-7
369
194
210
232
552
599
559
206
166
519
436
809
793
426
562
243
514
597
454
792
795
476
400
618
613
617
631
424
504
818
792
433
594
584
416
796
888
668
658
864
781
437
399
441
779
816
499
616
221
153
178
539
434
824
874
819
455
633
630
436
511
820
835
800
454
596
527
560
414
508
509
421
567
238
199
167
152
203
579
418
631
190
261
-25
370
544
613
574
530
542
569
548
241
512
627
493
486
583
131
288
310
376
159
164
161
147
352
262
-81
-118
-95
-35
293
350
355
284
-83
107
-110
263
363
360
-17
55
-366
-185
-146
-274
125
-49
-68
86
-292
-352
-300
103
-2
307
-22
100
0
-280
10
66
122
-106
125
50
-283
-310
-281
17
42
62
93
111
73
-277
-360
-372
-321
5
64
116
-113
102
-273
-137
-154
-290
126
-66
120
-260
-332
-328
-298
-277
22
112
-62
-99
-282
-230
-538
-144
49
119
43
-306
-308
-266
-288
-135
-195
-361
81
-57
-106
5
-341
-296
99
-23
300
300
257
-62
-117
119
-106
-23
342
167
167
327
-69
88
72
117
-86
-54
-33
-30
-73
93
16
39
-72
351
152
312
-109
35
25
88
-87
-11
295
292
-19
-89
-110
-68
-8
275
265
-2
-9
-59
83
-295
-334
4
-115
-25
-37
-127
17
-329
-370
-347
-274
56
68
-261
-375
-191
-169
-325
46
119
117
55
-292
-376
-155
-369
-267
82
98
33
-301
-324
-293
-263
0
22
108
-24
309
279
-89
59
28
93
-34
349
146
353
264
-6
381
606
805
645
646
860
792
449
635
390
508
666
763
757
677
836
507
475
487
781
800
492
607
162
260
-64
-27
329
163
173
342
-42
-126
-118
-52
258
266
-3
-8
-25
-83
98
70
127
-30
283
260
-68
115
64
51
96
-54
321
376
336
-16
-108
85
53
68
-103
303
217
624
511
680
1139
1327
1185
1204
1403
1306
944
1088
697
789
617
224
376
-39
-368
-883
-1194
-1867
-1769
-1718
-1855
-1516
-1475
-1415
-1272
-1289
-734
-440
-213
-353
-364
-208
-574
-605
-525
-379
16
109
-91
-52
-39
-66
-108
-103
-11
129
218
194
337
-40
-98
-71
283
157
520
555
253
164
361
376
188
515
554
562
555
526
210
152
161
521
404
474
430
588
532
558
619
397
414
469
830
652
871
473
603
615
506
653
662
781
618
547
571
619
393
436
510
824
781
629
212
156
234
618
436
416
589
243
182
175
224
566
395
439
425
603
231
137
375
177
239
213
338
-84
52
-269
-324
-378
-372
8
-52
327
267
70
-348
-339
68
-50
-54
81
-286
-304
-257
43
81
-85
319
176
157
277
-103
-120
-54
258
270
280
304
279
-99
-257
-325
3
-124
-59
-95
95
61
50
35
21
45
106
-100
-107
89
26
5
34
101
-80
-23
-7
-45
-128
36
-274
5
107
-13
339
344
257
-121
54
57
-115
-4
313
267
113
-322
-158
-384
-293
15
-272
-339
-367
-340
-306
-306
-314
-266
114
-5
305
-26
74
-320
-354
-279
87
-112
111
16
-345
-166
-201
-175
-326
77
-89
116
-315
-225
-256
-152
-277
42
35
12
-262
-301
-369
-155
-361
32
-96
-64
-123
65
59
114
-64
271
354
162
153
305
-99
72
98
-66
261
276
265
262
-6
-56
126
98
-91
283
350
307
-68
92
83
-101
-8
307
316
292
-5
-51
-90
-107
-89
-29
307
367
364
298
-38
-74
-58
-21
264
291
329
347
295
-83
67
81
-37
370
145
279
86
-308
-331
-269
70
120
-126
115
85
35
-287
-325
-280
99
-35
-19
120
-298
-378
-319
75
-69
-21
-2
272
260
-68
105
120
273
203
525
172
280
-33
276
354
143
199
584
510
893
640
825
794
865
735
1075
1059
710
863
789
492
471
488
825
690
1027
734
829
633
521
533
599
606
237
307
-101
102
110
112
99
-116
275
174
206
329
-107
95
-44
379
185
354
-58
71
21
47
121
-39
300
335
311
-20
-112
83
95
-80
271
313
292
264
279
349
200
610
843
1148
1183
1593
1565
1183
1367
1195
1648
1803
1517
1555
1004
742
782
537
-53
-204
-869
-958
-1207
-1630
-1490
-1826
-1832
-1430
-1363
-712
-437
-399
-779
-861
-772
-553
-356
-281
-319
-143
-205
-226
-201
-147
-352
-315
-271
52
122
-93
-82
-47
322
224
583
555
170
303
277
354
216
573
635
404
399
622
578
553
566
607
397
431
445
436
405
623
614
411
782
652
713
666
790
393
579
608
449
809
865
844
503
414
389
450
821
667
710
692
885
781
403
573
590
455
858
668
873
500
404
637
427
505
827
829
488
592
192
135
176
252
549
538
247
211
158
330
-8
-22
299
375
378
294
-76
79
-258
-332
-362
-312
35
63
-284
-170
-240
-195
-362
-318
-317
-299
-268
-304
-189
-601
-632
-249
-348
-313
-168
-570
-632
-600
-538
-224
-146
-281
98
-91
-92
-108
-98
-68
-31
276
345
132
324
-107
-268
-275
-120
313
368
294
-62
-110
-119
-127
-121
-54
324
156
128
258
-115
-127
-47
298
340
348
356
353
296
-68
104
122
-23
334
342
265
-92
80
14
-269
47
-65
325
337
-44
62
5
65
-87
-15
260
-23
-88
87
34
45
106
-84
-49
-42
-47
-76
101
-270
-356
-344
16
116
112
-270
-172
-252
-218
-370
-261
77
-128
125
50
-325
-152
-132
-276
100
-106
117
41
-273
-262
84
-33
345
141
374
313
-15
-85
115
101
-95
274
366
372
292
-62
-106
-73
263
340
379
371
324
256
-63
-80
-29
337
197
252
215
376
290
-3
259
286
324
363
361
274
122
4
12
-108
315
154
160
370
303
-28
-93
-108
-48
284
278
-101
-259
-323
-264
82
116
118
-85
283
339
-15
48
-309
50
285
222
522
202
132
366
140
209
557
615
586
217
350
297
317
365
163
242
605
443
454
612
194
313
286
130
537
621
587
249
241
598
467
781
790
810
837
775
571
321
-66
-17
371
182
137
302
-10
-24
-24
-19
264
315
355
353
306
-19
-91
104
87
-106
271
347
283
104
-300
-293
100
-16
296
306
320
317
-16
117
71
-73
137
582
457
855
1056
1022
1205
1612
1524
1695
1787
1753
1902
1811
1492
1413
1556
1177
1018
717
210
-152
-684
-1282
-1227
-1632
-1468
-1437
-1547
-1400
-1323
-987
-1050
-490
-223
-382
-181
-525
-566
-565
-539
-215
-358
-260
-263
-378
-524
-597
-574
-246
-174
-353
1
97
127
70
-268
-274
100
277
149
168
365
294
-3
-3
306
162
547
608
555
175
344
369
235
630
460
479
455
416
624
576
547
564
384
488
807
771
398
547
540
390
793
886
877
785
423
629
409
505
857
660
682
688
671
861
507
439
469
837
682
699
655
870
841
772
389
541
560
423
481
607
351
-82
-51
358
184
360
-46
-125
-113
-113
54
-320
-330
60
-34
263
-110
-293
-176
-222
-179
-325
56
98
-271
-240
-414
-403
-243
-361
-368
-218
-544
-520
-197
-145
-349
14
-92
267
-7
126
-275
-371
-147
-383
-327
-266
10
-297
-136
-203
-187
-361
-283
-257
-284
-336
-139
-207
-520
-523
-188
-312
59
111
100
56
5
-282
-263
65
-101
-60
-114
10
-380
-178
-130
-277
83
-121
124
73
6
-317
-369
-378
-323
31
105
88
-286
-167
-214
-129
22
121
96
-282
-160
-244
-527
-525
-249
-204
-147
-369
-130
-191
-254
-541
-535
-241
-185
-135
-136
-215
-598
-441
-452
-631
-517
-174
-165
-243
-630
-479
-494
-425
-596
-573
-618
-426
-474
-769
-807
-803
-455
-550
-163
-159
-540
-445
-794
-788
-467
-394
-602
-590
-607
-632
-632
-579
-218
-349
14
63
31
-332
-208
-560
-591
-574
-543
-522
-517
-537
-579
-611
-591
-253
-135
-291
7
-286
-145
-559
-420
-419
-567
-203
-193
-520
-584
-590
-575
-583
-579
-240
-364
-301
-383
-538
-610
-526
-355
28
50
10
-269
9
24
-293
-181
-571
-572
-173
-284
-299
-214
-612
-559
-358
61
86
50
55
59
-321
-568
-495
-445
-226
-316
-345
-236
-590
-571
-244
-195
-183
-202
-527
-430
-669
-910
-1308
-1288
-1138
-721
-669
-732
-1064
-1059
-740
-717
-756
-759
-661
-804
-834
-1025
-927
-1110
-831
-574
-539
-440
-850
-863
-771
-453
-494
-828
-813
-411
-242
-187
-528
-390
-418
-579
-147
66
284
194
243
218
536
787
1117
1292
991
920
1016
1194
1182
1148
824
480
806
415
117
-660
-1276
-1826
-1689
-2069
-1927
-2175
-2055
-1695
-1902
-1516
-1194
-1045
-804
-840
-760
-1115
-1081
-1034
-1084
-922
-933
-1080
-671
-840
-851
-655
-694
-668
-841
-487
-442
-493
-876
-752
-1059
-747
-885
-509
-420
-606
-556
-574
-417
-785
-806
-453
-591
-587
-458
-848
-866
-781
-459
-472
-492
-427
-555
-233
-572
-481
-827
-493
-548
-343
27
34
-282
-331
-292
110
305
174
150
269
123
47
32
19
4
30
121
-27
265
-68
64
-263
16
96
-87
-67
-112
50
-304
-346
-307
38
116
-106
-109
111
11
-154
-564
-576
-135
-124
277
-64
-297
-240
-547
-228
-168
-183
-518
-608
-417
-464
-769
-814
-826
-785
-465
-444
-783
-695
-1100
-1127
-1036
-660
-859
-888
-710
-1058
-903
-1004
-1319
-1290
-939
-1109
-1091
-1136
-926
-931
-901
-1135
-1143
-919
-961
-1002
-1305
-1352
-1370
-1340
-1016
-943
-899
-1147
-916
-984
-1351
-1195
-1203
-1332
-1129
-706
-654
-705
-1029
-1038
-708
-830
-432
-605
-622
-453
-795
-835
-830
-787
-443
-578
-238
-536
-449
-875
-647
-776
-623
-577
-391
-489
-809
-842
-854
-822
-466
-584
-239
-247
-583
-415
-470
-504
-771
-472
-625
-526
-522
-631
-498
-511
-391
-248
-213
-583
-510
-651
-692
-653
-845
-797
-502
-459
-420
-422
-498
-886
-747
-1041
-743
-673
-884
-885
-675
-740
-1041
-765
-681
-849
-816
-844
-887
-654
-670
-695
-698
-876
-472
-612
-624
-512
-699
-1093
-1139
-1100
-760
-688
-693
-1056
-945
-1014
-954
-1069
-679
-859
-832
-823
-824
-826
-797
-456
-590
-231
-185
-191
-226
-532
-575
-568
-233
-380
-329
-369
-185
-211
-177
-144
-146
-383
-278
-118
-19
-66
46
-319
-310
44
108
55
-337
-198
-233
-222
-245
-545
-240
-293
-56
261
75
-189
-542
-165
-260
10
-135
-567
-444
-806
-650
-702
-661
-827
-777
-780
-784
-769
-793
-647
-1029
-1054
-700
-861
-661
-1115
-1306
-1351
-995
-1111
-768
-733
-701
-667
-678
-758
-1111
-1130
-1025
-869
-793
-860
-742
-1055
-668
-638
-343
103
-45
347
536
410
623
229
220
436
669
855
157
-363
-635
-420
-805
-976
-1796
-2174
-2013
-2037
-2196
-2659
-2653
-2325
-1847
-1218
-1292
-954
-1133
-1035
-663
-504
-551
-352
3
-265
-310
-323
-319
-335
-340
-279
87
-121
34
-157
-521
-184
30
-33
288
-22
-118
66
42
60
102
-103
-54
-11
276
264
-62
100
58
-122
300
191
216
377
258
-31
307
189
563
624
634
606
548
211
139
374
167
241
513
172
284
-64
-40
316
130
379
357
160
541
603
253
329
-9
366
584
448
633
196
315
303
379
203
233
207
159
380
359
320
-21
-111
-96
334
561
384
222
-50
60
-111
337
175
346
-86
37
-261
25
90
-81
256
292
256
-89
74
16
2
22
56
75
46
-289
-133
-197
-194
-153
-132
-159
-203
-209
-180
-175
-242
-623
-464
-456
-609
-513
-528
-411
-828
-888
-812
-407
-549
-522
-557
-620
-449
-809
-890
-880
-506
-604
-247
-244
-577
-414
-466
-443
-606
-243
-208
-541
-440
-827
-862
-811
-472
-413
-388
-635
-629
-388
-441
-771
-798
-468
-576
-209
-222
-577
-638
-594
-247
-215
-513
-546
-515
-223
-540
-437
-810
-505
-552
-317
57
-259
-189
-639
-478
-429
-542
-165
-141
-187
-209
-145
-280
74
-126
-66
284
369
368
272
-84
-85
270
130
192
197
183
142
285
126
25
71
-15
139
154
292
-82
-82
280
383
140
349
333
131
192
177
344
285
343
228
597
616
564
218
350
-34
-59
363
385
800
442
193
328
210
461
847
780
386
577
566
252
131
304
339
196
531
518
199
155
139
365
317
279
274
275
-26
121
-274
-153
-256
-550
-231
-351
3
-310
-519
-467
-493
-579
-367
-282
-358
-232
-553
-522
-191
-129
-344
-292
40
92
41
-377
-546
-576
-168
61
-40
-30
-112
69
59
124
-2
159
571
438
796
661
1092
1319
1559
1493
1834
1533
1408
1536
1160
979
685
605
371
293
-24
-262
-468
-991
-1612
-1466
-1630
-1203
-1314
-994
-985
-930
-731
-395
-311
-105
-63
-99
-106
-58
257
291
321
140
519
628
638
516
336
-37
-26
326
161
195
199
213
230
219
186
174
220
561
627
615
518
131
294
295
134
526
627
386
569
197
366
365
195
571
402
416
628
564
248
225
540
437
856
894
499
535
161
234
419
823
870
879
672
758
1072
1075
1069
1107
920
973
987
982
975
943
1121
1036
757
1080
921
962
915
1076
755
758
1083
934
1023
1293
955
1066
672
841
814
844
659
727
727
882
485
414
446
499
479
389
568
548
518
146
-6
-58
325
539
396
575
381
-28
-53
-11
-11
-98
42
-296
-360
-210
-612
-438
-605
-384
61
86
-283
-136
-173
-193
-523
-621
-388
-560
-209
-229
-627
-507
-499
-587
-367
4
-315
-247
-425
-489
-445
-632
-597
-573
-518
-202
-224
-607
-480
-481
-600
-194
-139
-174
-220
-241
-251
-232
-383
74
263
319
-2
-73
-77
-68
-120
64
71
-106
-80
69
-329
-344
45
-64
-7
264
332
159
361
-117
-335
-347
101
288
292
-97
59
68
107
89
47
83
-60
257
-91
-264
-345
2
-84
265
-17
-72
-78
-66
-102
84
81
-43
157
525
201
277
-116
-128
-82
-98
54
-295
-274
101
-54
-51
-104
-108
-19
360
174
149
295
-115
5
-294
43
-53
341
136
369
314
266
-2
306
159
245
220
333
-94
60
38
33
8
-268
-257
17
-270
-361
-212
-532
-515
-157
-274
62
3
-179
-620
-437
-385
-541
-206
-161
-130
-378
-143
-165
-384
-257
-83
313
370
356
313
283
287
339
208
387
790
779
567
279
-119
265
562
821
683
746
1144
1383
1618
1505
1816
1832
1815
1488
1628
1248
1381
955
702
410
156
-32
17
-565
-749
-1153
-1601
-1261
-1008
-1029
-671
-667
-893
-504
-565
-153
-331
-280
75
-45
297
275
-60
-71
322
545
447
428
255
317
-15
314
202
576
630
390
400
395
604
532
244
563
429
503
453
572
206
207
552
398
473
790
847
867
824
493
455
489
828
656
709
724
696
649
892
699
1072
899
1148
1099
1090
1127
1137
1089
1073
947
1192
1625
1581
1364
913
1117
905
941
943
945
945
1145
1030
697
758
930
1339
1388
1363
1323
1000
1118
696
642
1035
1001
1365
1281
1121
1059
1129
956
949
1128
1059
761
689
805
396
571
589
405
471
509
769
460
604
232
193
514
618
395
570
162
274
-64
-73
-16
334
156
167
363
274
-61
-112
124
-111
-62
-38
-102
15
-375
-174
-159
-135
-135
-383
-336
-282
-279
-341
-155
-158
-325
82
-24
314
287
-72
123
-42
197
448
816
502
627
535
247
230
200
182
209
537
613
399
407
418
481
874
1040
1118
1027
813
626
589
421
495
475
415
420
491
508
386
213
165
571
789
883
794
630
537
548
602
399
464
807
861
820
442
598
601
422
493
510
477
393
234
283
-116
-94
320
198
185
330
263
299
359
352
303
329
218
636
414
543
134
365
234
635
404
570
227
222
246
207
378
368
233
385
419
568
180
380
376
361
364
209
392
509
438
250
152
525
785
751
1073
742
858
472
399
397
447
487
481
442
405
633
585
516
224
538
420
775
466
515
281
-88
-34
360
211
240
225
205
184
157
142
169
230
534
529
216
139
319
256
-27
276
142
525
553
191
280
-64
273
237
480
894
694
737
1102
1022
1173
1213
1402
1309
988
926
1055
828
548
281
57
-137
-588
-812
-1094
-1181
-1512
-1706
-1673
-1449
-1176
-969
-1094
-729
-860
-465
-570
-132
61
-74
-95
50
3
112
292
149
150
375
134
173
153
328
277
338
255
469
655
760
752
658
826
836
683
1027
753
642
781
452
410
393
442
847
1050
952
996
941
1114
1060
1046
1052
1062
1060
1035
734
681
885
848
859
694
1097
955
950
1086
695
647
694
1040
1141
1004
1380
1155
1283
1076
718
1090
1319
1171
1301
1069
685
740
1122
910
1109
1051
1063
1089
1027
865
450
396
453
801
849
837
785
449
626
592
384
492
824
790
404
522
183
147
373
353
374
180
221
179
328
-18
-22
308
136
164
