544
-32
-171
-445
-491
-555
19
258
282
-78
-92
365
617
396
157
110
-298
-284
24
40
44
75
107
116
-111
-44
269
-3
-72
-95
-28
333
171
526
393
433
519
-72
-337
-317
-49
211
520
156
356
228
467
880
819
570
261
-263
-194
-515
-141
-104
226
411
397
598
439
652
749
793
323
-181
-792
-692
-663
-493
-542
-196
-520
-586
-194
125
144
180
290
-100
103
44
-341
-514
-427
-859
-761
-764
-496
-328
-18
328
146
477
1283
1459
1795
1414
1428
1693
1987
2308
2163
2050
2105
1923
1790
1426
1017
704
630
100
-792
-941
-907
-653
-893
-995
-1586
-1165
-509
97
-112
-600
-1124
-970
-858
-335
-20
-96
-249
-714
-934
-1089
-880
-847
-1057
-1327
-1199
-1166
-1310
-1141
-873
-577
-181
-534
-445
-392
-281
180
464
783
800
672
1087
1065
805
244
380
180
203
304
99
118
188
831
696
494
207
357
191
525
162
-77
24
116
167
464
498
213
88
-311
-91
529
422
240
-24
-36
529
662
1121
1090
716
882
808
430
519
372
286
-40
99
-270
53
169
721
1371
1367
1073
832
836
656
498
304
-174
-407
-389
-534
-381
-103
531
770
404
301
35
73
272
350
-35
54
16
95
-60
291
151
218
357
46
-515
-568
-336
-15
201
553
600
622
571
197
349
288
-62
17
-135
-342
-90
147
167
284
-47
290
372
265
-260
-211
-210
-347
-300
-382
-223
-212
-339
70
-73
-10
263
-32
-120
52
15
-273
-147
-409
-714
-1150
-1102
-861
-586
-138
-290
57
-80
-7
-87
-315
-575
-770
-667
-1083
-927
-1041
-632
55
-35
113
9
123
317
295
13
-254
-248
-328
-295
-241
-428
-603
-339
50
-347
-563
-589
-166
-292
-330
-187
-208
-381
-336
-163
-551
-597
-541
-231
-518
-602
-627
-532
-363
34
48
-356
-611
-862
-741
-751
-730
-747
-1047
-765
-877
-413
-214
-306
89
-74
-75
72
-356
-527
-404
-477
-476
-398
-547
-208
-160
-360
-274
51
46
-293
-144
-207
-220
-225
-240
-239
-212
-175
-144
-368
-323
-280
-274
-317
-383
-202
-563
-476
-718
-989
-1200
-1246
-1324
-707
-551
44
298
565
642
962
1377
1321
1144
697
774
571
374
277
285
261
111
-311
-301
-111
-5
35
-634
-877
-507
-241
-166
-598
-777
-473
-515
-371
-151
-253
-239
-312
-81
284
-41
46
-351
-145
-158
-244
-409
-796
-796
-457
-437
-780
-844
-495
-540
-147
-186
-541
-544
-195
-382
-130
-347
94
355
550
399
822
910
1578
1833
1851
1809
1685
2000
2281
2587
2420
1930
1709
1416
946
594
2
-451
-1025
-1291
-1271
-1410
-1623
-1153
-1136
-654
-511
-461
-507
-647
-1076
-1141
-736
-413
-338
122
-36
322
233
407
463
610
131
-115
-307
-375
-283
-80
355
129
287
-41
287
180
222
329
118
40
-110
284
309
259
296
204
602
553
332
-101
-83
302
359
286
-54
-20
374
210
152
-4
-108
-45
159
601
604
158
-46
-46
205
799
762
1052
736
696
704
723
721
685
860
469
569
192
147
172
237
600
462
498
394
211
374
217
418
510
384
151
281
371
593
500
485
584
169
372
154
190
134
-12
81
-289
-343
-364
-380
-149
-193
-246
-520
-199
-322
44
56
1
-283
4
8
-353
-530
-392
-394
-618
-410
-797
-895
-888
-803
-463
-425
-423
-447
-499
-808
-828
-814
-798
-816
-837
-806
-479
-426
-423
-421
-617
-517
-197
-206
-230
-201
-150
-161
-514
-620
-386
-599
-592
-412
-500
-495
-631
-220
-139
-139
-151
-371
-295
10
-273
-356
-159
-134
-295
50
78
63
41
29
20
18
40
66
44
-287
-336
-291
47
23
-137
-519
-169
109
313
259
54
-267
-65
219
544
312
-275
-182
-366
52
-118
-128
124
-65
294
362
373
361
326
-19
94
-296
-354
-352
-363
-148
-159
-325
104
257
320
298
-6
-35
-34
-21
-34
-113
-257
-140
-187
-372
14
110
-115
-102
-50
294
354
314
-102
-304
-182
-196
-131
-330
-322
-335
-323
-262
98
-27
334
349
-2
120
82
-71
324
346
-26
94
38
25
-307
-196
-532
-173
44
-92
46
-231
-422
-593
-265
329
179
277
48
-273
-100
150
243
347
64
-151
-193
-364
2
66
81
87
-125
-41
310
377
148
158
167
146
324
-24
-41
297
374
331
-62
112
-64
367
232
248
242
550
617
592
204
294
-102
28
-355
-173
-134
-275
66
59
6
-265
37
97
122
80
-313
-523
-445
-462
-546
-348
-309
-173
-528
-206
-290
60
11
-332
-332
-268
11
-310
-381
-372
-292
45
96
-108
-28
335
235
497
1099
1392
1230
1403
1339
1204
1464
1668
1690
1840
1488
1457
1431
1571
1310
648
151
-331
-433
-674
-901
-1186
-1445
-1507
-1552
-940
-891
-463
-618
-254
-155
-380
-153
-168
-131
-338
-337
-359
-331
22
120
-105
-117
-76
307
163
141
-5
117
116
-50
256
-37
-59
296
220
582
529
166
176
584
457
408
227
371
200
401
777
475
609
546
565
572
252
169
162
243
595
637
385
416
506
876
680
881
468
553
222
546
424
490
447
399
488
717
916
919
737
790
438
410
610
516
207
249
592
385
408
477
868
730
739
645
789
466
449
453
459
441
620
222
334
-3
-32
-93
33
-334
-314
87
-36
-37
112
36
67
-119
114
-300
-248
-387
-420
-387
-594
-533
-186
-346
-316
-375
-211
-515
-537
-622
-796
-697
-718
-895
-881
-765
-927
-1141
-857
-545
-188
-553
-411
-609
-158
-272
-319
-518
-476
-828
-776
-418
-402
-770
-892
-866
-417
-214
-159
-223
-248
-162
-334
-371
-229
-514
-162
-329
-375
-247
-549
-198
-329
-301
-366
-171
-182
-185
-230
-554
-602
-611
-573
-216
-326
45
60
19
59
-28
133
362
126
-382
-210
-135
-312
-334
-138
-377
-270
84
87
8
-323
-333
-276
73
-103
-70
-74
-64
272
144
205
375
-56
90
120
-53
-58
102
61
-91
304
284
77
-376
-150
-345
-147
-604
-453
-234
-47
520
233
275
-61
336
217
380
100
-375
-133
-281
64
124
-4
198
584
518
301
113
57
77
66
1
-327
-373
-147
-141
-294
-93
336
337
-72
44
55
-88
-34
-105
58
47
106
-113
119
85
76
74
69
109
-29
344
328
-93
9
38
-11
199
522
209
161
192
255
524
211
380
319
291
286
308
366
194
529
573
580
569
555
530
226
158
345
271
-86
54
-278
1
100
-97
94
-304
-383
-312
99
-62
-96
65
19
49
88
67
-265
-326
-328
-299
-285
-295
-304
-297
-300
-352
-190
-533
-565
-527
-195
-131
-364
-372
-343
35
-36
364
140
368
167
389
716
1001
1401
1159
1380
1376
1175
1242
1211
997
893
544
327
-55
16
-563
-678
-937
-1302
-1354
-1166
-1212
-1161
-1013
-1097
-684
-771
-573
-147
-344
-147
-235
-517
-213
-137
-330
-283
18
62
103
-101
-26
305
330
273
-86
80
38
41
84
-89
276
377
179
201
225
520
556
573
593
629
397
621
548
250
539
600
590
243
155
140
166
145
330
304
133
521
575
519
203
244
631
497
817
868
689
754
744
666
860
891
723
761
699
836
503
777
863
695
740
729
685
644
877
864
831
770
466
479
810
887
885
808
486
511
865
663
836
413
562
584
625
526
276
50
19
-99
260
-73
15
-303
70
-11
309
-27
113
63
74
82
47
-269
-327
-381
-190
-254
-547
-534
-228
-178
-175
-244
-602
-389
-555
-376
-275
-381
-626
-784
-449
-244
-179
-628
-652
-751
-861
-427
-433
-849
-697
-878
-444
-578
-568
-598
-594
-563
-525
-218
-155
-141
-233
-631
-422
-553
-357
-264
-327
-181
-210
-153
-363
-384
-184
-227
-251
-533
-552
-522
-191
-384
-364
-350
-286
56
73
-284
-171
-241
-196
-357
-304
-319
-361
-135
-145
-129
-332
5
73
88
48
4
13
79
-92
-27
-4
-28
-102
44
-299
-302
19
62
8
-357
-141
-320
36
37
-309
-366
-305
59
101
60
28
73
-114
-106
96
61
84
110
76
-260
-313
-309
-301
-331
-363
-332
22
109
113
62
67
-58
137
244
170
-18
99
102
-65
-28
-112
9
-307
0
94
-112
-117
-125
-108
-99
115
46
16
54
110
112
70
63
-121
-29
-21
-104
91
-108
283
371
352
292
269
261
-68
48
-310
-287
78
-108
109
20
-273
31
126
-51
-18
-34
-82
124
106
-126
-90
-83
-114
108
120
-73
-3
268
-46
124
100
-74
312
382
333
-26
-71
-24
304
316
276
274
361
222
515
184
339
309
360
146
362
266
-43
263
380
228
538
568
600
606
544
163
290
-49
-96
99
6
-343
-141
-143
-380
-361
-349
-347
-356
-373
-372
-328
-257
59
85
90
97
98
52
-318
-200
-532
-244
-154
-354
-368
-140
-355
28
-86
-9
-3
-1
323
215
392
802
671
1064
1003
1223
1619
1595
1198
1342
1344
1384
1303
1048
493
551
179
-5
-353
-784
-1129
-1311
-1387
-1191
-1229
-1175
-1008
-1044
-861
-481
-616
-199
-282
77
64
-270
-338
-369
-130
-148
-137
-348
-324
-369
-188
-178
-283
-72
321
342
319
326
355
368
351
341
362
140
176
222
550
629
419
425
411
394
612
518
132
289
287
130
252
577
598
637
481
850
885
834
785
798
824
494
557
377
364
520
428
464
402
398
789
712
1032
680
800
501
808
849
815
501
509
856
713
1056
1121
924
940
1124
730
861
786
488
444
418
460
813
888
868
774
434
402
629
529
359
-44
-80
-19
297
289
-2
295
180
569
559
136
-65
98
-120
-46
-47
104
-303
-168
-220
-213
-186
-179
-190
-191
-159
-361
-302
10
65
89
19
-169
-407
-816
-812
-451
-628
-639
-425
-391
-239
-293
107
-124
55
-314
-143
-161
-382
-349
-376
-199
-517
-247
-185
-159
-226
-603
-426
-415
-606
-549
-517
-227
-168
-344
-273
17
1
-307
-350
-337
-276
29
23
-271
-280
16
54
36
-278
-312
-299
-274
-286
-330
-368
-358
-286
91
-48
-14
-116
-292
-148
-378
-282
1
-338
-171
-155
-299
43
21
-300
-285
86
-65
-87
47
-286
26
-95
-19
-61
121
121
-72
-49
118
-297
-179
-246
-516
-249
-215
-152
-334
-273
35
94
-92
-27
262
-10
-76
92
33
42
109
-89
-104
63
-279
-291
24
85
84
33
1
37
117
-83
-83
-99
-73
-6
289
-17
113
-263
-298
2
56
64
38
45
119
-47
-19
-69
-114
-72
269
280
-90
21
-262
94
-59
-55
-104
-98
-30
266
-33
-89
-62
290
352
332
300
343
189
248
179
267
107
30
42
82
68
-269
-346
-324
75
-23
282
-46
-127
-108
-9
318
299
-20
-44
-6
294
284
-43
-127
86
111
-81
-27
257
293
375
207
195
295
89
-267
51
-95
-88
45
-329
-296
-102
382
242
205
341
-15
-47
-41
-48
-71
-79
-61
-60
-118
41
-273
11
81
107
79
66
-125
-12
324
339
341
130
194
203
374
-12
-104
-128
-108
-85
-70
-58
-59
-93
107
86
-111
258
328
287
-79
113
-102
-25
-20
-101
105
-81
304
360
305
-14
286
155
221
152
276
-28
319
220
580
579
254
200
227
571
621
527
298
70
11
-93
137
525
237
376
298
307
348
325
-60
-267
-214
-604
-386
-585
-203
-309
72
-116
-93
-76
-42
-18
-49
107
-278
-374
-145
-368
-339
-377
-214
-519
-181
-271
93
58
-291
-280
-114
344
200
238
579
779
1033
990
1387
1216
1243
1223
1231
1598
1516
1844
1441
1402
1143
736
843
552
113
-601
-711
-966
-1394
-1216
-1166
-1007
-1070
-653
-790
-427
-578
-231
-178
-156
-152
-165
-185
-198
-183
-378
-269
-125
265
325
266
-126
54
-108
360
240
158
-55
111
289
596
483
582
295
-87
300
519
597
234
343
313
158
548
633
401
399
389
627
606
589
582
579
588
619
408
439
428
384
610
617
629
592
249
187
214
572
412
457
479
789
867
891
814
454
442
806
665
660
816
774
876
762
1031
888
493
500
846
828
633
154
351
207
579
561
203
153
203
523
248
153
329
317
348
374
369
331
266
-67
-118
-121
-107
106
-273
-154
-197
-377
-280
-267
-339
-148
-150
-141
-205
-609
-770
-891
-717
-768
-753
-647
-496
-385
-594
-561
-242
-169
-129
-374
-371
-141
-233
-613
-416
-616
-528
-524
-612
-430
-418
-634
-639
-415
-385
-524
-174
-199
-559
-621
-590
-539
-549
-614
-398
-622
-561
-534
-540
-524
-201
-134
-384
-187
-250
-513
-219
-185
-175
-171
-149
-363
-310
13
73
84
22
-308
-296
63
-119
67
-364
-210
-384
60
-75
-92
109
-116
262
372
128
324
278
274
267
-54
83
-291
-356
-374
-130
-152
-147
-334
42
-119
-109
101
87
-90
289
346
282
-104
68
70
116
-102
-76
-37
-9
-57
72
-282
19
-68
320
286
-121
20
37
-122
-56
-65
-115
94
73
92
-110
-62
-73
117
74
121
-46
-35
110
-277
-299
43
118
89
6
-273
62
-85
-44
-88
115
114
-106
-85
-105
112
89
60
-276
-148
-237
-192
-281
127
-107
83
80
-35
159
241
161
284
-41
-48
-71
107
8
-306
-313
-291
-258
33
35
-268
-315
-294
49
100
31
-363
-185
-134
-274
48
38
16
38
88
120
121
115
114
106
87
72
72
66
43
22
39
105
-79
-49
-74
-127
80
45
13
-275
-287
5
92
-60
-2
-26
-105
96
117
-84
-98
29
-144
-233
-185
-305
92
-55
292
361
377
332
268
-22
-40
-98
51
-289
-281
58
126
121
87
111
-53
282
260
-104
58
51
104
-115
-114
-92
-4
347
336
-56
66
82
-23
334
-16
18
-364
-268
-70
272
-75
70
127
352
554
569
172
327
168
421
892
655
499
606
617
504
876
844
452
616
636
428
384
253
163
203
551
524
324
87
1
86
-75
117
-345
-525
-544
-177
-318
-272
-266
16
69
106
103
87
98
124
107
17
-342
-356
10
-99
-45
-116
43
28
106
-78
-77
-91
-23
144
600
782
720
1003
1625
1704
2127
2100
1742
1713
1789
2083
1896
1198
702
630
208
-11
-203
-1035
-1199
-1557
-1197
-1371
-1403
-1196
-1400
-974
-736
-488
-537
-171
-158
-158
-327
99
-28
-44
104
54
108
-96
107
-277
-354
-313
42
123
-70
259
315
283
-89
84
122
-23
279
-54
102
90
-90
260
342
179
534
567
251
197
514
389
417
526
355
352
246
578
191
265
301
587
877
692
843
785
875
727
693
786
389
613
631
622
599
620
426
459
445
443
483
771
488
428
415
474
793
791
497
502
819
870
865
842
870
677
688
851
454
618
596
586
520
146
300
266
287
305
273
-51
-92
-69
-14
-2
-60
114
74
82
80
36
-261
1
20
-282
-139
-237
-519
-518
-569
-637
-587
-134
43
9
-207
-620
-545
-356
-319
-532
-821
-695
-873
-467
-627
-591
-556
-249
-198
-152
-371
-375
-184
-525
-552
-253
-223
-540
-639
-392
-536
-161
-150
-210
-211
-358
7
-264
-373
-173
-348
33
54
-326
-234
-561
-252
-154
-360
-381
-165
-159
-343
1
36
-261
-325
-334
-274
57
100
121
-99
-60
-52
-86
-125
-127
-106
-108
98
31
1
46
-105
261
306
280
264
338
201
211
264
-291
-186
-334
121
-98
-271
-193
-168
42
-16
289
-33
-112
74
-270
-335
-293
118
257
-4
-120
79
-62
135
214
338
107
-283
7
92
81
-288
-374
-318
91
-69
-122
-261
-331
-259
-123
-58
-122
14
-309
-295
-261
-272
-326
-382
-151
-142
-370
-323
-267
18
-261
-308
-320
-273
62
104
81
35
27
73
126
-121
108
99
127
-125
45
-355
-179
-359
66
-95
90
-312
-357
2
-121
-108
32
-353
-382
-311
25
44
2
-299
-280
85
-30
298
257
-101
101
-120
-68
-84
86
23
41
101
124
86
43
58
124
-72
-71
-126
53
-263
-277
20
100
-79
-52
-96
77
20
20
54
70
44
7
8
45
74
69
51
73
-109
-29
-6
-59
110
41
27
68
-125
-81
-88
114
63
71
-108
-21
258
-49
-97
-56
328
185
192
376
337
143
518
585
544
186
374
137
218
545
557
517
222
247
592
424
454
434
427
443
416
556
152
337
365
136
330
-37
-89
-47
266
267
-21
-33
-37
-89
83
62
-116
-53
107
-149
-390
-440
-562
-159
-154
-540
-401
-633
-214
-274
110
-111
114
29
-369
-537
-392
-630
-526
-217
-544
-396
-400
-519
-344
6
5
-268
11
87
-32
185
461
725
934
1381
1605
1831
1704
1717
1713
1782
2106
1729
1616
1151
776
233
111
-453
-1313
-1468
-1866
-1883
-1683
-1768
-1745
-1804
-1261
-1010
-1094
-703
-806
-392
-545
-523
-542
-518
-150
0
88
57
-293
-335
-265
121
-56
-73
127
124
-52
311
355
306
-38
-78
-38
294
326
280
-53
-78
-19
329
374
364
367
193
587
414
623
232
131
134
169
379
258
-75
-9
164
573
390
434
768
851
854
511
429
439
502
507
403
526
234
585
465
786
771
769
850
703
716
840
417
636
511
667
687
819
433
413
487
806
795
496
479
479
458
407
627
386
434
455
413
581
234
177
151
130
346
277
-60
-103
-79
-26
-27
125
-278
-351
-306
22
-267
-161
-552
-550
-182
-355
-131
-222
-520
-234
-208
-240
-537
-521
-216
-225
-590
-455
-461
-603
-253
-570
-502
-895
-845
-407
-548
-634
-855
-753
-710
-789
-391
-635
-446
-485
-461
-414
-639
-603
-534
-201
-169
-207
-537
-581
-560
-248
-214
-247
-573
-597
-522
-134
-303
-317
-368
-371
-328
-329
-182
-587
-408
-393
-614
-597
-554
-178
-274
93
115
84
47
20
-259
-262
4
-284
-137
-522
-553
-185
-276
68
41
-288
-324
-327
-341
-133
-182
-185
-137
-339
-330
-368
-140
-358
-264
56
23
-335
-163
-167
-368
-328
-337
-363
-349
-285
37
53
13
-296
-315
-309
-336
-165
-238
-208
-341
8
-306
-214
-555
-203
-292
-261
-160
-590
-603
-203
-333
-341
-157
-160
-342
-308
-383
-219
-187
-290
98
83
-281
-326
29
-64
276
-31
106
25
-258
-297
-139
-241
-222
-307
-126
-104
4
-146
-147
-304
-270
-368
-238
-519
-199
-148
-146
-383
-309
19
11
-304
-314
12
77
37
-335
-152
-347
76
-26
281
-30
-111
121
-79
266
310
272
-56
-104
-108
-102
-116
-124
-72
322
233
575
531
173
145
233
582
517
281
47
13
-62
165
517
222
184
249
388
488
481
399
563
239
189
149
146
199
538
602
601
540
193
130
383
168
190
382
-25
79
25
88
-66
265
303
321
282
-116
-332
-230
-226
-131
-379
-538
-481
-792
-402
-209
-354
-342
-360
-368
-384
-158
-167
-133
-342
-327
-338
-331
-311
-311
-347
-383
-363
-266
-120
301
234
475
1042
1403
1476
1671
1705
1691
1779
1959
2021
1763
1256
1052
825
425
323
-580
-1001
-1657
-1499
-1502
-1819
-1876
-1804
-1618
-1190
-1344
-975
-1028
-782
-617
-571
-569
-522
-170
-338
-283
18
59
60
1
-339
-134
-138
-384
-367
-319
34
-113
-53
-47
-34
292
138
203
193
138
348
330
318
286
-31
-94
-122
-84
279
163
535
580
554
248
240
564
403
435
609
208
370
152
537
400
451
442
416
404
419
469
779
773
434
610
630
480
798
474
620
638
799
671
872
452
389
486
841
793
407
387
790
697
708
837
467
457
500
774
769
792
840
834
489
391
392
497
827
502
575
163
377
129
325
-59
-117
-22
367
335
105
-373
-369
81
-49
86
-186
-612
-566
-181
-164
-548
-423
-439
-615
-544
-532
-535
-234
-151
-365
-153
-237
-537
-527
-525
-600
-462
-780
-485
-399
-625
-413
-445
-388
-524
-198
-247
-608
-390
-569
-197
-155
-219
-589
-414
-424
-636
-577
-544
-562
-610
-611
-248
-327
57
55
-285
-337
-320
-298
-331
-378
-348
17
95
59
-296
-330
-258
82
85
20
-266
51
-114
-81
118
27
-277
3
66
109
80
-275
-131
-165
-340
51
121
75
-273
-303
-264
8
-324
-178
-196
-338
52
76
0
-296
44
-77
-28
-103
45
-263
-271
-300
-353
-353
-281
46
44
-257
13
104
-102
71
-321
-347
24
106
-260
-233
-590
-174
100
-19
-85
60
67
-89
-41
-104
77
85
127
86
-317
-205
-229
-144
-307
-276
-278
22
-115
282
374
365
267
-120
26
-297
-334
-366
-136
-150
-153
-143
-352
32
-28
138
164
300
-99
118
-66
-3
-48
81
-268
26
-83
312
348
291
-11
305
212
613
626
517
173
223
634
491
475
387
597
613
609
538
189
154
190
249
537
532
243
199
179
215
518
208
-3
-260
-383
-322
26
-263
-380
-148
-286
82
29
-133
-190
-301
-101
-49
93
-284
-288
33
60
32
12
21
-265
-367
-208
-190
-310
82
108
48
14
69
-88
-18
271
327
203
407
661
952
1244
1463
1797
1519
1520
1890
1784
1784
1529
1363
703
394
328
-135
-713
-1230
-1797
-1917
-1706
-1735
-1697
-1520
-1218
-1141
-874
-458
-638
-602
-560
-246
-192
-155
-363
-272
109
-65
-77
124
126
-53
257
-63
41
-315
-264
-111
281
336
342
349
354
331
296
297
339
372
356
319
342
200
590
633
547
148
323
352
178
212
150
301
257
330
214
570
581
552
566
387
472
506
483
431
635
591
557
560
610
414
434
416
421
508
646
743
739
674
894
672
715
691
856
781
785
836
858
826
781
511
511
475
393
564
520
523
544
565
586
604
593
540
202
129
338
316
320
337
336
283
-78
71
29
78
-99
-78
111
9
-313
-340
-381
-198
-525
-556
-571
-615
-420
-428
-614
-527
-239
-243
-213
-159
-171
-557
-461
-507
-424
-603
-394
-773
-825
-479
-589
-529
-586
-412
-413
-591
-543
-600
-442
-445
-556
-134
-381
-542
-459
-488
-406
-391
-773
-654
-885
-440
-254
-190
-202
-169
-316
49
93
78
50
31
23
40
76
86
28
-299
-269
124
-28
-103
-310
-191
-134
16
78
15
-299
-267
32
-292
-177
-212
-299
-74
-31
38
-167
-153
84
333
137
268
-124
124
-23
329
307
-58
108
110
-76
-21
-35
-95
126
-105
-35
274
262
-83
52
-276
2
62
53
-311
-154
-367
51
-98
88
-330
-147
-344
-300
-129
-247
-207
-259
-113
65
-372
-143
47
-28
-80
-310
-211
-147
42
-70
-3
311
370
364
275
-55
-7
381
190
357
-62
107
-106
264
353
382
378
372
369
360
344
339
365
155
161
332
-62
116
-78
318
380
305
-51
-18
147
541
518
370
-16
-45
-37
-95
30
-342
-370
-325
-284
-305
-368
-141
-349
3
65
42
-298
-365
-383
-136
-187
-521
-557
-526
-229
-243
-542
-527
-159
-276
33
-274
-318
4
-118
-55
-116
77
-63
516
866
1045
1051
1065
967
1209
1627
1636
1566
1248
1168
990
704
414
205
290
41
-593
-768
-1368
-1545
-1562
-1232
-1398
-1338
-1306
-984
-1064
-777
-241
-354
-353
-375
-314
62
-118
-120
-127
-64
294
343
326
314
343
353
289
-38
-1
130
204
372
-38
-57
362
539
552
166
344
171
582
406
389
622
637
628
546
212
245
622
402
237
-10
-82
131
470
665
869
458
410
787
710
1055
748
859
456
634
392
472
817
871
649
698
1024
1077
1079
1041
737
680
840
465
396
429
789
879
655
660
687
748
1067
1100
1083
747
864
467
397
414
447
406
541
163
376
153
219
540
581
568
227
370
318
359
160
379
-19
95
38
52
49
-284
-131
-177
-137
-329
-332
-178
-571
-387
-617
-569
-604
-470
-806
-468
-517
-363
-141
-572
-462
-473
-393
-612
-432
-827
-674
-671
-824
-424
-562
-250
-245
-256
-522
-543
-593
-412
-474
-484
-446
-397
-631
-631
-615
-554
-214
-168
-191
-252
-533
-234
-163
-139
-198
-549
-582
-252
-134
-354
-216
-407
-489
-612
-360
49
-274
-204
-552
-190
4
111
59
-320
-135
-371
-313
-267
22
72
-101
-10
306
306
256
-57
-82
-83
-88
-116
106
94
117
-107
-91
-94
-83
-30
304
345
302
-75
48
-277
0
73
123
108
44
-264
8
90
-72
-26
-37
-50
-30
-9
-50
103
31
74
-64
259
-24
-56
275
162
213
366
-13
277
192
549
192
264
-33
377
544
546
172
374
198
530
209
326
311
238
471
818
480
636
633
424
404
536
381
276
-37
-97
93
75
-107
283
140
165
341
-52
90
56
102
-104
127
23
-339
-348
2
99
86
-308
-215
-553
-528
-201
-155
-140
-384
-355
-318
-285
16
61
54
-290
-160
-224
-181
-351
-319
-355
-133
-368
-305
35
-97
358
626
657
941
1220
1457
1829
1528
1412
1614
1625
1553
998
782
345
86
-311
-517
-875
-1288
-1594
-1461
-1449
-1647
-1574
-1205
-1291
-1072
-823
-588
-172
-380
-157
-172
-359
3
43
-274
-359
-369
-303
18
51
108
-29
315
260
98
-259
86
294
166
381
274
257
351
199
228
201
188
222
531
554
538
244
203
194
224
517
528
518
251
253
247
227
208
220
512
545
573
608
388
402
408
459
837
693
676
804
482
841
762
1083
730
869
867
686
705
645
860
895
684
653
837
843
702
1090
1142
1131
1115
1103
1061
749
722
714
666
816
469
471
795
835
822
818
857
861
500
594
526
580
607
198
-74
-261
-275
24
-271
-369
-383
-278
74
46
-300
-296
81
-87
78
-149
-585
-608
-550
-552
-385
-456
-413
-551
-227
-534
-639
-420
-604
-250
-229
-553
-624
-620
-555
-248
-252
-548
-582
-607
-636
-419
-450
-475
-504
-775
-467
-575
-140
-295
-317
-146
-198
-196
-200
-249
-573
-613
-621
-624
-614
-568
-223
-142
-359
-338
-292
13
-274
-144
-521
-526
-161
-320
-327
-154
-210
-189
-367
-274
49
58
1
-331
-340
-257
94
105
36
-267
19
66
41
-307
-366
-339
-283
-285
-344
-137
-152
-172
-220
-246
-185
-301
74
98
65
63
-122
-38
-24
-93
77
27
9
-263
-280
-276
27
90
-127
-116
-106
-84
-74
-116
41
-314
-339
-272
89
-97
-90
-105
-100
-79
-75
-99
-109
-69
-9
259
-61
108
87
-103
-3
303
274
-56
-106
-89
-13
335
149
183
199
226
520
565
618
421
466
462
407
605
604
388
392
552
367
-84
42
-267
-292
-350
-200
-561
-587
-240
-327
66
81
-266
-354
-330
62
-71
-97
-264
-168
-175
-288
115
126
15
-328
-283
112
-43
-78
39
-342
-356
-257
-128
-87
92
-274
-287
122
129
629
776
870
758
1000
1261
1658
1623
1267
1543
1484
1671
1854
1240
1101
670
680
831
131
-539
-1102
-1351
-1371
-1390
-1262
-1648
-1587
-1016
-835
-236
-361
-367
-352
-257
93
87
4
-294
-257
11
-343
-213
-185
44
285
312
112
-363
-139
31
-9
349
315
-16
-24
325
209
551
532
200
154
186
518
556
517
193
171
219
553
598
588
538
223
168
376
354
375
168
196
164
358
355
209
639
503
499
418
625
403
466
475
432
419
478
813
847
828
814
846
885
877
828
785
773
775
771
778
821
885
671
682
692
718
727
674
825
476
446
461
460
401
544
162
333
329
142
214
218
155
337
294
269
-39
-108
106
82
28
-329
-159
-151
-325
-297
-152
-581
-395
-547
-135
-384
-582
-832
-661
-511
-527
-150
-227
-399
-508
-486
-624
-230
-136
-136
-244
-406
-493
-435
-563
-519
-633
-806
-867
-491
-533
-377
-364
-210
-588
-386
-616
-574
-598
-424
-461
-625
-193
-313
-289
-333
-360
-335
-290
-275
-305
-372
-181
-185
-356
10
46
-282
-381
-139
-314
17
-264
-372
-203
-198
-369
-259
85
-127
122
91
91
-113
-56
-56
-109
109
-119
-63
-57
-120
63
53
100
-91
-36
257
268
-9
-48
-58
-18
280
-9
-122
8
-309
-310
-317
-368
-164
-148
-315
30
49
26
51
-95
272
264
123
-268
6
-95
269
-64
7
-338
31
-29
337
319
-9
-82
62
-343
-168
-366
0
-264
-160
-536
-213
-281
81
35
-278
48
-81
-81
14
-376
-314
-126
-42
89
-348
-379
9
125
76
-322
-375
-277
107
126
65
57
-107
-26
-71
57
-265
35
74
9
-341
-305
122
-3
-35
125
-110
299
166
145
324
344
204
517
166
266
-46
280
363
372
340
366
213
576
618
608
589
566
512
182
380
360
347
310
280
324
184
529
236
355
-13
-27
-2
-25
-100
103
118
-100
-110
81
17
-262
-277
-341
-190
-252
-198
-308
55
19
-366
-165
-304
126
-120
-339
-606
-419
-519
-329
-273
-327
-341
11
-122
-86
92
-263
-272
115
305
171
174
147
514
826
951
1219
1582
1646
1512
1667
1777
2091
2134
2136
1753
1486
1193
961
717
558
-305
-671
-1346
-1264
-1576
-1618
-1629
-1552
-1377
-1152
-662
-413
-164
25
111
116
96
74
40
-265
-289
4
68
88
25
-324
-349
-267
-128
-34
-45
124
56
85
-42
377
231
240
171
338
298
356
227
588
597
518
189
214
589
454
771
777
509
499
483
460
447
441
430
415
418
437
424
590
205
142
187
522
540
248
533
442
643
695
794
576
512
392
811
828
464
397
477
879
685
883
819
833
871
824
428
572
592
453
809
835
827
823
805
483
397
634
451
792
768
619
211
187
532
582
207
-28
74
118
261
303
-89
-258
-265
-106
274
-83
-374
-629
-404
-233
-298
16
-309
-129
-131
-342
-333
-158
-561
-453
-811
-849
-832
-796
-781
-800
-815
-495
-581
-135
-328
-198
-415
-798
-502
-401
-407
-810
-697
-673
-476
-531
-237
-615
-488
-491
-633
-253
-196
-199
-211
-197
-165
-141
-147
-176
-190
-143
-306
-273
-377
-544
-583
-147
97
-103
-286
-220
-185
32
-80
121
14
51
-50
279
-64
96
-94
323
352
-95
-322
-354
78
264
295
-49
-102
-51
279
268
-85
92
96
-104
-75
-99
-122
-96
-34
258
-18
-55
-59
-40
-62
93
-299
-132
-133
-341
-310
-309
-289
42
-122
-84
125
53
39
82
100
27
-336
-355
18
-78
-9
-53
-116
-96
-11
290
-28
82
-297
-296
91
-4
311
-28
113
113
-11
358
292
66
-134
-160
-316
2
-312
-145
-139
-283
82
86
-263
-364
-142
-361
-297
10
45
82
-122
-73
-57
-80
-114
119
98
42
-310
-134
-140
-349
-306
-290
-261
79
-76
-36
-80
114
100
109
62
-305
-379
-327
57
115
36
-338
-346
38
-77
-48
127
27
-276
-281
-293
-309
-293
31
122
-77
-83
-120
-113
-14
140
239
201
317
-62
-59
315
190
235
183
365
346
129
198
541
406
789
833
482
587
547
404
484
562
-93
-384
-302
300
533
197
-3
-1
512
770
787
603
175
360
303
-90
-257
-341
-340
-338
-384
-165
-375
-268
63
68
62
112
-75
-96
15
-151
-194
-361
-288
-364
-535
-614
-247
-327
-299
-214
-403
-392
-178
26
36
-353
-167
-305
-75
334
333
263
-22
286
135
531
480
1028
1374
1426
1860
1906
1679
2103
2419
2677
2610
1923
1656
1346
978
737
369
-491
-1175
-1449
-1457
-1482
-1862
-1667
-1523
-1227
-934
-716
-797
-634
-256
-213
-220
-212
-150
-310
57
-91
-7
271
-38
117
14
-317
-343
-306
37
-102
272
356
146
165
172
183
206
217
184
352
-20
-84
-24
153
593
634
237
305
258
151
605
397
520
372
379
254
607
599
576
396
777
795
390
216
201
612
772
773
390
548
578
418
448
635
572
613
461
776
502
499
844
695
673
502
600
612
499
846
778
639
571
614
451
784
827
814
461
570
225
519
612
615
239
372
369
220
568
557
216
139
360
352
342
295
-67
46
-312
-317
-263
7
-332
-193
-241
-194
-134
-139
-199
-248
-243
-209
-199
-230
-542
-595
-635
-416
-453
-499
-805
-835
-839
-833
-824
-788
-430
-542
-188
-207
-565
-631
-601
-537
-540
-599
-606
-523
-193
-235
-610
-390
-530
-382
-374
-519
-388
-612
-215
-369
-363
-383
-364
-354
-180
-578
-388
-554
-133
-287
-279
-273
74
-32
334
333
-26
98
1
-284
-272
-276
-319
-341
6
-53
367
363
-34
94
70
84
35
-317
-345
-259
118
-84
-95
-108
-100
-113
90
38
27
20
-293
-370
-134
-307
75
-97
-65
-36
263
292
284
257
-11
-11
-22
-44
-54
-60
-107
42
-329
-376
-345
-311
-333
-373
-344
36
-81
-19
-35
-63
-54
-37
-61
-121
92
89
87
57
25
46
114
-108
101
21
-267
29
88
116
104
58
-295
-170
-250
-205
-342
-305
-167
-590
-631
-254
-359
-299
-303
-270
65
103
59
2
23
118
-49
-24
-37
-64
-117
73
49
96
-91
-100
60
-259
75
-14
315
-68
-300
-177
-367
40
82
-312
-241
-539
-133
74
-98
72
-328
-374
-281
107
-91
-122
103
-101
281
142
184
161
138
164
195
162
314
-29
-12
357
197
186
359
338
206
402
795
796
440
574
230
206
251
568
536
349
93
-288
104
153
389
634
174
-11
-21
375
239
203
285
111
52
101
-118
66
-346
-211
-204
-356
-274
-305
-165
-239
-180
-288
71
36
-349
-187
-168
-345
-314
-368
-192
-217
-170
-339
10
81
98
35
-331
-138
-349
7
36
-321
-206
-224
-299
267
579
839
1088
1387
1475
1786
1981
2044
2033
2037
2334
2320
2131
1503
1322
686
605
-53
-554
-1037
-1365
-1542
-1448
-1902
-1737
-1811
-1397
-740
-817
-829
-827
-414
-159
31
66
-275
-135
-207
-198
-363
27
-122
-92
-128
91
118
-37
345
181
204
155
315
-31
-66
-38
270
295
298
338
216
418
821
797
612
149
316
356
143
328
-77
109
-36
182
603
639
622
422
811
888
789
554
359
342
224
622
397
593
556
608
454
505
463
629
571
578
635
457
780
829
880
701
1054
1128
1127
1031
894
784
467
436
411
395
407
439
467
499
813
640
688
892
491
584
215
160
377
323
272
-7
-4
-6
-32
-66
-84
-102
95
-269
-362
-367
-289
42
24
-335
-168
-172
-383
-366
-150
-204
-234
-517
-569
-634
-407
-628
-578
-582
-401
-507
-844
-861
-811
-453
-596
-530
-547
-626
-446
-457
-639
-537
-255
-625
-826
-708
-664
-485
-602
-624
-484
-781
-419
-528
-213
-245
-530
-236
-172
-164
-200
-200
-384
-302
-303
-131
-192
-134
11
103
31
-148
-255
-173
16
113
25
-375
-380
48
-35
-29
96
0
39
120
82
-351
-526
-548
-161
-279
-267
-367
-186
-380
63
-25
-13
119
10
57
-38
324
262
89
-284
7
122
-74
-120
62
49
99
-122
119
100
-121
-53
-28
-100
15
-380
-205
-214
-169
-353
-293
-266
1
43
-117
-10
280
-48
82
-274
-299
-275
-257
-277
-319
-328
-261
118
-35
-37
100
-320
-174
-184
-376
-313
-321
-151
-234
-216
-338
72
125
62
-272
-259
84
-119
83
-283
-337
-278
113
-21
258
-90
32
-288
15
100
100
-278
-175
-250
-229
-167
-369
-319
-276
-275
-334
-149
-152
-336
5
47
55
62
61
33
6
36
116
-90
-128
44
0
22
68
98
127
-74
-27
-42
-102
123
-100
-52
-66
123
89
-126
-55
-32
-84
109
100
-120
-97
-121
102
121
-64
-12
-52
108
81
-39
193
594
541
382
321
194
384
417
235
269
-24
159
623
389
223
322
332
223
587
546
180
143
222
590
635
625
391
479
809
496
540
262
48
-298
-314
-348
-195
-583
-408
-631
-225
-283
111
116
9
-363
-131
-319
14
28
-278
-332
-348
-332
-310
-280
24
59
48
-264
-312
-304
-259
25
19
6
14
39
69
-127
263
216
450
692
1004
1410
2062
2025
2024
1953
1977
2305
1973
1910
1228
900
681
388
-111
-459
-939
-1180
-1261
-1574
-1646
-1429
-1637
-1223
-976
-699
-478
-630
-599
-544
-164
-293
-258
-318
-374
-335
47
-90
-49
-81
117
76
78
120
-63
274
335
359
342
292
-10
-11
302
376
146
374
351
146
251
564
250
128
307
306
309
258
-48
256
144
529
562
554
610
463
503
408
535
521
622
427
585
146
321
180
398
808
820
492
440
464
791
852
866
834
792
772
773
780
781
782
795
819
838
842
836
824
788
466
390
598
609
414
475
495
463
416
386
630
614
578
522
195
360
256
-80
-102
-96
-128
36
-299
-278
72
102
0
-378
-339
115
258
-98
-369
-547
-241
-360
-364
-547
-473
-481
-608
-513
-551
-406
-459
-414
-600
-581
-620
-395
-613
-522
-191
-176
-199
-217
-219
-231
-517
-538
-530
-524
-568
-399
-466
-466
-432
-429
-465
-471
-389
-247
-377
-311
-289
-282
-284
-319
-139
-232
-550
-544
-222
-139
-349
-339
-300
73
-35
295
-12
115
-261
-317
-316
-279
28
63
51
14
39
-97
283
273
103
-334
-357
31
-114
90
-335
-175
-345
109
268
302
260
-32
-38
-46
-89
99
49
34
22
-263
-288
-261
90
-43
287
294
267
-4
-7
-24
-56
-79
-74
-47
-36
-55
-100
100
53
38
66
-126
-67
-54
-108
78
67
-118
-33
-41
78
-352
-172
-367
-265
3
-349
-181
-152
-286
54
9
-383
-243
-527
-222
-141
-307
38
96
87
22
-292
-277
58
127
122
42
-307
-336
-275
101
-56
-48
-125
30
-286
-295
-288
-292
-290
-266
23
40
42
54
65
27
-308
-340
8
-95
-40
111
-278
-266
-114
-11
-94
-277
-376
-335
-262
10
38
-80
379
219
132
-19
-54
307
140
336
-94
25
25
-117
287
160
247
531
240
183
180
520
611
591
180
266
-11
135
548
553
168
334
143
540
584
225
367
378
217
220
313
99
9
75
-90
-86
95
10
-313
-129
-184
-166
-324
21
0
-368
-188
-136
-262
86
83
24
-274
-266
28
54
51
14
-286
-295
2
49
37
-291
-341
-282
125
265
337
155
618
715
1320
1253
1268
1239
1553
1436
1806
1813
1457
1572
1190
1349
994
1087
798
374
-374
-828
-930
-1194
-1630
-1463
-1436
-1569
-1153
-981
-763
-473
-173
24
49
-298
-378
-365
-286
22
0
-305
-285
94
257
346
313
-25
-52
-3
299
266
-77
127
-103
-52
-47
-84
-73
307
235
609
584
217
143
166
223
205
352
-15
-37
279
330
317
284
311
154
250
534
245
216
225
253
536
560
580
583
568
568
618
436
466
427
389
429
773
800
481
427
481
853
886
794
449
493
876
656
802
448
771
669
683
469
217
155
536
638
561
137
333
194
629
476
464
628
249
138
336
337
340
270
-118
47
69
-93
-20
-6
-19
-32
-89
27
-129
-189
-140
-356
-192
-627
-469
-388
-222
-143
-207
-574
-634
-387
-411
-469
-770
-509
-475
-448
-410
-595
-525
-256
-554
-590
-593
-603
-405
-458
-429
-601
-574
-640
-426
-577
-378
-283
-139
-581
-393
-578
-255
-534
-575
-528
-149
-325
-346
-150
-178
-160
-367
-301
6
-278
-149
-522
-235
-322
57
-271
-198
-522
-140
15
-257
-162
-248
-366
-104
324
299
-88
84
109
-60
-5
-39
103
-277
-331
-287
49
83
64
54
99
-98
-93
116
80
81
82
49
26
75
-84
-35
-78
103
93
-89
259
302
287
-28
-107
77
55
86
115
97
64
88
-85
-28
-52
-83
-21
359
141
264
62
-284
44
-102
-83
110
80
-125
-67
-85
98
67
117
-88
120
-268
-347
-276
-111
-18
-78
47
-271
29
92
77
-268
-345
-351
-302
17
68
117
-97
-72
-67
-64
-49
-31
-38
-79
104
27
-289
-327
-346
-364
-134
-150
-370
-260
-110
268
318
319
343
179
550
580
209
266
120
126
-11
338
324
261
272
150
582
422
403
599
581
603
584
212
288
-110
112
-88
-17
262
-14
-28
258
322
381
160
172
149
330
-60
60
11
67
-117
126
24
-330
-339
-272
44
52
20
-274
-309
-334
-336
-318
-314
-352
-162
-206
-215
-213
-200
-132
3
126
-121
27
-326
-308
53
-123
-127
107
-105
274
184
633
868
1121
1335
1216
1536
1549
1556
1616
1495
1889
1882
1656
1325
1077
696
784
148
-139
-887
-939
-1376
-1271
-1621
-1548
-1314
-1048
-869
-776
-448
-626
-563
-250
-165
-319
-261
-267
-272
53
-82
-11
-34
-82
-83
-67
-99
86
58
118
-42
258
-5
273
353
166
142
298
-14
308
184
517
233
179
184
251
559
541
232
227
547
617
630
588
544
542
582
638
433
471
475
443
406
402
436
466
451
404
627
635
403
406
388
385
431
509
827
828
774
461
460
784
874
668
648
847
802
786
779
769
509
772
506
444
620
605
427
783
798
468
403
417
459
422
553
188
160
150
329
-45
-96
-62
-55
96
-272
47
277
173
291
-305
-536
-226
-292
9
-181
-428
-780
-450
-593
-549
-558
-567
-579
-615
-394
-632
-571
-538
-578
-394
-422
-640
-580
-538
-256
-251
-555
-397
-454
-623
-163
-279
-362
-616
-815
-800
-393
-587
-463
-656
-705
-831
-420
-634
-399
-588
-155
-283
-356
-559
-419
-602
-225
-250
-416
-787
-442
-215
-302
-291
-360
-382
-320
29
100
-120
-92
-54
270
363
186
190
382
311
284
277
-53
33
-148
-219
-134
30
-102
-93
85
19
49
-93
256
-14
-114
66
87
-98
-71
-93
-89
-28
265
-63
57
-258
87
-29
279
-30
-69
-16
325
324
-26
-98
-72
-9
-26
125
56
127
274
324
-27
-127
-77
341
150
261
30
-326
24
-95
-78
95
55
-127
-5
327
328
282
-50
106
29
32
96
-127
88
59
-95
380
554
546
147
288
281
302
-24
91
7
54
-94
-44
-75
-98
-53
265
-8
-121
19
-272
-257
-282
-368
-161
-343
85
-31
-28
125
26
9
51
78
54
11
-261
16
51
81
110
-104
-61
-33
-19
-15
-27
-68
-117
-115
-23
376
213
185
334
256
259
295
285
-37
-88
-68
256
321
369
188
566
418
429
589
210
148
158
180
154
343
301
335
183
550
591
543
194
143
167
227
244
191
371
345
370
378
308
-64
117
117
-124
77
-317
-210
-543
-532
-223
-185
-185
-199
-198
-167
-377
-335
-312
-324
-373
-197
-519
-245
-131
2
31
-323
-181
-169
-278
-125
-94
96
73
-69
141
600
778
735
1282
1600
1829
1911
1872
1797
1503
1520
1532
1468
1550
1327
897
1034
846
188
-159
-766
-1391
-1210
-1397
-1359
-1382
-1362
-962
-736
-783
-620
-206
-292
57
-283
-241
-387
-566
-319
-126
112
-310
-161
-357
31
66
-291
-138
-355
68
-30
276
-12
-35
-6
293
306
296
295
314
335
348
372
175
246
535
512
213
228
587
469
792
457
539
169
198
572
387
603
527
531
627
472
779
806
830
807
428
526
206
535
632
627
540
247
592
477
802
779
490
506
804
814
775
471
456
486
806
882
686
702
660
848
800
773
485
424
607
553
514
197
373
355
218
422
798
462
249
340
318
351
305
-84
70
77
-123
-119
85
50
72
107
95
24
-336
-198
-571
-389
-639
-586
-575
-408
-801
-869
-820
-461
-414
-454
-773
-778
-463
-426
-468
-780
-463
-519
-353
-179
-491
-762
-752
-776
-626
-493
-756
-1122
-699
-411
-240
-520
-628
-412
-593
-217
-156
-200
-561
-636
-391
-391
-442
-504
-479
-597
-205
-203
-578
-417
-625
-210
-316
-260
-285
-335
-368
-366
-339
-316
-317
-319
-287
31
72
59
12
-286
-335
-160
-231
-211
-342
47
86
64
105
258
154
157
272
-124
97
-128
121
51
-263
18
106
-67
-12
300
368
149
352
-51
39
-314
-330
-334
-384
-202
-212
-361
62
-76
-61
-111
100
83
72
70
96
-120
118
-257
-140
-168
-311
73
80
-270
-326
-268
66
46
-297
-296
114
298
335
-61
15
-303
45
-30
383
141
-36
-296
-163
-268
268
362
121
-246
-387
-189
98
-81
14
-164
-163
-267
127
-102
98
30
-257
15
64
108
115
97
95
120
-121
98
33
-258
4
9
-278
-311
-289
28
56
19
-271
40
-101
-63
64
-137
-210
-316
-79
268
-113
-299
-351
14
126
97
-301
-170
-195
-145
-343
-293
27
101
-108
-92
-66
266
364
153
361
270
-23
293
143
199
157
313
-16
-6
321
145
205
515
574
612
601
554
521
521
253
187
352
317
381
231
532
228
145
365
135
177
168
339
-46
84
10
-259
8
-257
-304
-356
-380
-131
-148
-161
-378
-281
63
64
-288
-151
-224
-245
-240
-220
-194
-183
-200
-203
-135
-268
82
81
23
-260
14
13
-297
-335
-275
93
-119
80
47
-67
240
810
760
918
1165
1516
2055
2112
1735
1917
1768
2169
2065
1621
1083
486
589
332
-213
-1116
-1246
-1267
-1181
-1269
-1478
-1522
-1266
-1148
-660
-864
-816
-395
-185
-330
-336
-344
-259
-115
-14
259
-29
-68
-114
73
-263
-304
-271
67
-118
-78
-45
260
313
330
311
310
367
182
194
152
147
228
578
570
210
150
239
396
449
591
185
157
512
603
597
537
521
577
392
433
461
492
499
448
621
578
607
417
464
462
423
639
621
637
428
480
511
790
822
852
848
807
782
816
881
886
796
435
430
792
642
642
812
493
500
773
460
589
225
193
209
223
244
566
401
435
604
173
266
-64
-60
-55
-106
60
-261
4
63
90
54
-262
-286
-281
-318
-173
-543
-545
-166
-297
-312
-221
-407
-483
-431
-586
-524
-532
-581
-598
-528
-136
-293
-339
-525
-454
-492
-393
-579
-409
-840
-896
-472
-214
-372
-514
-467
-504
-585
-144
-150
-585
-473
-427
-246
-372
-150
-548
-415
-449
-405
-581
-232
-156
-382
-140
-141
-326
62
-95
-94
96
49
68
112
116
72
35
54
104
114
46
-320
-381
-332
59
-63
-3
-21
-65
-85
-86
-107
96
37
10
22
37
32
6
-264
13
71
-116
-75
-96
95
51
76
-119
-110
76
6
34
-116
-67
103
-298
-341
23
-87
-35
-67
-92
-78
-78
-126
83
102
-92
-79
102
-260
-307
-260
118
273
134
373
-70
-310
-153
-295
-127
-118
-302
-224
-201
1
-72
-57
89
2
19
84
104
43
-312
-366
-316
89
-12
300
-42
71
3
62
-92
-86
36
-135
-179
-308
111
-113
30
-339
-331
8
29
-317
-166
-177
-380
-370
-160
-160
-298
106
-111
63
-258
45
-109
-71
-115
98
100
99
39
-275
17
120
-110
29
-355
-306
-90
333
277
90
22
-89
354
129
294
290
196
585
205
-108
-284
-118
215
602
146
118
86
361
445
839
494
612
562
576
558
237
195
222
520
242
153
343
370
219
565
552
168
-22
59
-290
-300
-279
-292
-335
-357
-335
-337
-171
-557
-599
-238
-363
-373
-522
-631
-556
-372
-275
-347
-202
-197
-347
-291
-367
-226
-248
-172
-364
-377
-152
-371
-282
29
4
-313
-336
-307
12
-127
345
392
691
924
1154
1455
2049
2022
2038
1932
2133
2167
2142
1893
1188
728
385
355
-284
-823
-1395
-1801
-1690
-1914
-1859
-1844
-1794
-1601
-1014
-671
-432
-549
-167
-283
64
60
3
-278
-265
-267
-307
-338
-303
17
36
11
15
104
-15
347
142
157
138
325
-38
-128
116
-69
286
358
150
198
533
389
505
824
777
628
203
372
154
516
596
614
621
434
820
682
704
884
784
476
476
479
452
407
626
603
580
574
620
445
490
432
559
229
563
485
869
855
772
511
871
705
895
454
582
629
773
841
775
432
448
803
870
850
810
825
862
818
411
249
199
520
571
255
369
-3
-22
275
281
-46
96
-257
-295
-281
1
3
-290
-345
-130
-145
-161
-210
-536
-585
-592
-579
-589
-618
-621
-576
-526
-542
-390
-773
-811
-455
-551
-207
-249
-591
-589
-214
-347
-348
-215
-597
-637
-614
-601
-612
-603
-557
-520
-532
-564
-568
-555
-589
-437
-793
-785
-399
-252
-215
-560
-414
-431
-592
-206
-130
-379
-383
-349
-291
-257
-280
-324
-341
-337
-346
-138
-203
-219
-144
-258
127
-83
-107
-121
-63
284
298
-75
22
-290
55
-81
-63
107
39
98
-10
336
285
-103
80
122
-58
-72
66
-295
-279
80
-123
55
-333
-132
-324
38
89
85
89
-128
-98
-116
103
100
126
112
30
-317
-328
13
114
-124
77
44
111
-11
332
288
-109
33
31
90
116
92
75
97
101
15
-376
-168
-317
106
-60
-61
-48
296
374
332
-57
112
-117
-74
103
-345
-230
-186
7
-70
-27
-120
5
-318
-289
44
87
55
-281
-336
-317
-260
27
19
6
1
-274
-321
-372
-383
-344
-300
-289
-302
-298
-265
17
-268
-346
-171
-203
-169
-353
-291
9
63
-100
269
338
325
274
266
333
151
383
-4
111
74
-86
326
186
232
240
247
518
517
241
220
204
170
345
-15
-73
-32
325
132
372
334
356
190
522
251
167
364
378
163
143
295
-86
103
101
107
65
-285
-132
-187
-169
-369
-344
-139
-233
-543
-243
-147
-366
-178
-541
-571
-234
-376
-322
-338
-352
-309
17
49
22
-283
-306
-286
10
32
11
-298
-341
-335
-264
111
-5
151
591
812
1066
1354
1410
1689
2117
2171
1933
2006
2372
2379
1932
1871
1581
1369
1085
556
-177
-1120
-1539
-1443
-1530
-1905
-1717
-1875
-1631
-1364
-1129
-863
-549
-315
-303
-223
-610
-523
-301
82
23
-333
-298
125
261
-2
-93
115
-112
-84
-109
114
-105
269
374
376
286
-43
262
178
606
393
540
138
355
195
584
633
576
237
210
249
555
575
569
560
553
542
543
573
614
627
608
600
388
452
456
632
551
575
453
851
893
828
478
439
479
821
888
888
809
458
432
498
844
864
791
450
437
506
846
874
829
479
389
606
390
479
786
471
578
174
367
383
153
131
318
-17
-75
-102
-99
-67
-26
-4
-18
-58
-110
98
57
21
-266
-304
-366
-181
-215
-190
-150
-169
-522
-625
-392
-595
-546
-565
-624
-387
-609
-582
-604
-390
-635
-563
-248
-520
-590
-626
-586
-518
-241
-539
-594
-623
-637
-404
-425
-404
-598
-557
-589
-405
-424
-608
-256
-232
-551
-616
-607
-541
-233
-222
-214
-166
-357
-328
-339
-358
-359
-367
-158
-218
-221
-138
-285
20
-263
-299
-268
81
-86
-47
-50
-66
-85
-110
-122
-84
256
317
290
-57
-127
126
-108
121
35
-304
-331
-305
-260
60
-114
-51
-47
-88
-102
-46
281
281
-52
-122
118
117
79
43
100
256
382
359
-35
114
-125
-34
270
-43
84
-312
-158
-181
-352
68
-41
272
-12
-50
-34
281
322
296
-52
95
30
39
90
118
98
71
93
-97
-46
-57
-114
90
68
78
112
-86
-29
-12
-51
-110
112
100
68
-264
-350
-129
-346
0
99
-75
-1
333
154
197
162
289
116
-273
-300
23
108
-111
-127
122
-78
287
136
173
139
351
357
169
516
580
601
605
623
392
633
542
139
287
280
344
139
132
373
156
236
529
214
349
-16
-96
64
-321
-161
-152
-322
-284
-371
-513
-552
-174
-267
15
-133
-565
-601
-250
-175
-228
-597
-628
-539
-188
-196
-513
-224
-303
-115
-104
-287
-232
-526
-148
-276
-261
-317
-318
65
287
514
434
845
1047
1331
1642
1862
1671
1913
1737
1949
2360
1958
1494
960
838
555
122
-790
-1183
-1528
-1532
-1412
-1605
-1575
-1202
-983
-765
-870
-485
-580
-184
-154
-229
-542
-221
-337
5
-272
-330
-329
-265
31
-261
-320
-297
87
-28
288
260
-25
265
320
305
-61
65
18
81
-59
301
378
188
249
543
545
531
529
537
540
535
529
528
536
553
580
611
625
610
585
584
617
401
410
633
579
536
531
561
594
603
604
389
478
807
797
482
493
881
767
749
807
611
601
502
640
887
794
774
865
694
662
811
501
804
858
802
385
247
242
585
633
569
176
316
259
-27
-61
-80
-57
-3
292
285
-5
-17
265
297
293
-25
-124
45
11
31
63
60
-262
-374
-225
-538
-546
-549
-598
-449
-828
-650
-641
-807
-417
-538
-206
-214
-537
-599
-615
-622
-437
-834
-698
-711
-881
-787
-478
-414
-521
-330
30
-283
-172
-518
-247
-210
-251
-613
-421
-630
-528
-217
-242
-551
-570
-561
-566
-594
-601
-554
-233
-197
-176
-354
63
-40
-35
41
-193
-572
-534
-187
-174
-244
-553
-518
-175
-371
-345
-299
43
102
70
-274
-318
-277
33
25
-285
-297
33
-123
-84
-119
70
7
-309
-358
-371
-345
-301
-266
23
84
-71
297
381
152
358
-24
79
-274
-266
69
118
79
13
25
-107
298
353
289
-73
124
125
-118
-128
115
-114
-35
311
367
361
300
-48
122
64
27
-271
-330
-375
-364
-291
59
125
-93
-49
271
344
160
220
241
187
317
-51
-44
335
196
180
303
-61
-23
133
531
560
232
153
141
199
535
575
548
219
164
176
236
530
238
146
331
338
155
223
224
158
346
338
383
149
323
-107
-274
-346
-339
-339
-382
-160
-366
22
-108
-64
-102
103
88
101
100
49
-301
-138
-177
-145
-337
-306
-334
-378
-371
-306
12
1
-330
-144
-142
-309
101
283
203
624
786
715
934
1159
1577
1632
1599
1541
1251
1216
1358
1111
501
138
112
-337
-524
-790
-1125
-1153
-1258
-1171
-1019
-938
-946
-949
-1126
-742
-647
-861
-810
-446
-583
-527
-530
-240
-366
78
-50
-60
86
-272
-299
-274
-267
-317
-129
-134
-290
-128
-2
276
-45
-118
-128
-78
-25
-28
-96
74
33
92
-24
371
166
376
313
327
174
539
552
193
305
-34
-31
268
295
300
327
142
245
614
481
859
676
654
817
492
504
794
483
569
151
129
243
615
633
610
401
801
685
700
845
469
453
801
662
715
667
796
401
592
633
474
774
431
247
341
306
142
518
563
518
196
193
530
388
466
461
624
222
344
293
336
132
338
-100
-313
-145
-321
67
99
0
-130
-181
-146
-350
-337
-360
-129
-142
-152
-167
-182
-194
-207
-220
-236
-249
-522
-537
-543
-544
-548
-564
-569
-525
-173
-332
-303
-343
-376
-324
53
-120
77
-352
-242
-256
-170
-358
-375
-167
-165
-375
-361
-162
-219
-176
-300
43
-275
-179
-528
-206
-330
-287
-367
-200
-179
-339
-298
-372
-219
-223
-375
-273
-263
-311
-323
-258
89
-118
-118
122
119
-128
-114
-103
-109
108
46
-259
-275
-282
-312
-353
-352
-289
43
67
48
61
-113
-16
259
-81
58
-265
2
53
92
100
86
65
57
79
121
-106
-106
-128
97
41
-307
-133
-130
-272
-128
-76
116
37
53
-101
-23
-46
124
83
-128
-75
-97
78
29
75
-81
-15
-4
259
294
328
305
-28
-84
-67
-23
-26
-89
118
-104
256
353
143
155
179
216
244
254
513
254
221
150
339
332
382
166
143
347
346
152
198
155
303
-23
-23
-27
-101
48
5
54
100
53
-307
-365
-341
-297
-297
-316
-304
-271
-281
-344
-373
-295
99
-80
-127
23
-288
2
67
100
99
97
100
77
36
21
63
-108
-27
301
155
604
860
1108
1290
1406
1222
1254
1240
1199
1171
1164
1363
923
881
581
383
266
85
-526
-737
-1370
-1244
-1158
-1286
-990
-1005
-946
-746
-472
-244
-129
-358
-359
-359
-353
-337
-313
-299
-296
-268
67
-89
-41
-84
95
84
-93
-5
269
-26
-41
271
353
128
349
290
-28
-107
65
33
94
-57
-10
-48
-80
260
196
620
385
531
151
361
380
146
143
150
200
543
612
623
589
570
610
435
489
462
628
558
583
443
811
816
443
548
224
516
564
544
238
533
436
837
805
618
220
542
482
838
485
578
551
433
824
796
632
248
514
575
520
322
-104
-48
206
408
619
165
371
615
678
709
624
-55
34
-117
-18
120
-135
-562
-557
-224
-204
-233
-235
-194
-173
-212
-534
-578
-594
-607
-616
-605
-578
-556
-549
-541
-531
-539
-574
-603
-595
-586
-630
-459
-493
-398
-215
-321
-279
-309
-335
-344
-381
-205
-543
-588
-602
-608
-604
-557
-197
-318
55
-127
-106
122
46
-312
-142
-183
-174
-134
-344
-296
25
115
-43
277
276
-33
-98
106
55
-269
-334
-353
-320
-273
13
37
83
-110
-74
-82
-93
-59
-6
-3
-64
-110
-53
330
132
289
115
37
-127
277
312
-71
9
-332
-290
67
-120
-112
108
60
15
-272
-277
7
63
-124
-69
-50
-54
-50
-24
260
-10
-87
64
-264
-269
23
52
52
47
73
-115
-45
-35
-109
39
-275
10
77
97
53
10
39
-128
-76
-125
24
-293
-264
40
16
-332
-130
-329
42
101
66
25
66
-104
-91
66
-292
-278
86
-98
123
50
42
95
126
118
-122
-46
269
-37
96
45
-127
-9
260
-83
121
-68
306
357
323
280
284
305
287
-26
-82
-98
-70
-17
304
372
191
540
387
445
400
535
188
199
512
249
165
358
152
520
585
596
637
482
779
617
298
30
-300
14
36
-306
-151
-167
-378
-354
-370
-356
-270
73
75
-260
-334
-332
-286
-277
-325
-130
-165
-195
-249
-556
-541
-189
-326
2
38
100
-49
300
312
-6
-88
95
37
54
-26
564
655
1107
920
1292
1279
1511
1807
1431
1623
1454
1528
1626
1010
689
800
427
362
-173
-692
-999
-1368
-1170
-1225
-1204
-1313
-1101
-659
-779
-637
-184
36
-59
-12
-72
77
2
1
72
-90
-34
-54
111
11
-266
93
261
373
347
-18
-77
-22
346
146
365
314
344
199
554
554
209
130
134
193
198
347
-59
-126
-57
321
374
342
321
140
541
407
456
471
507
805
801
482
414
390
393
636
601
593
392
474
777
771
492
488
491
468
409
595
548
542
584
406
463
435
577
223
514
412
791
502
602
221
219
544
581
567
555
557
532
211
170
210
539
550
227
175
210
518
227
368
288
313
368
334
-58
69
18
-257
-318
-146
-189
-176
-168
-195
-201
-141
-335
-372
-246
-602
-584
-525
-560
-433
-505
-424
-543
-524
-393
-771
-489
-614
-550
-392
-799
-825
-415
-191
-301
-284
-337
-373
-131
-174
-522
-387
-510
-875
-707
-746
-699
-821
-395
-250
-158
-372
-378
-171
-238
-524
-230
-168
-150
-197
-253
-246
-157
-313
-277
-316
-362
-350
-287
18
-265
-346
-384
-309
92
-68
-86
83
23
36
91
-110
-58
257
295
271
-54
-101
-83
-34
-31
-79
-106
-61
260
-11
-109
78
-128
-15
277
-85
16
-296
49
-50
315
322
-7
-100
92
76
80
48
-288
-352
-333
10
82
81
47
58
113
-119
90
25
23
93
-85
-56
-63
-62
-28
282
319
296
-56
64
-282
-266
69
111
80
49
101
-39
284
-10
-83
-88
-8
323
299
-62
88
26
1
-262
-271
-310
-140
-226
-214
-308
-101
-22
-128
-282
-306
57
121
13
-185
-539
-201
-289
93
-98
-38
285
306
271
-1
330
203
515
176
297
261
383
557
391
635
607
623
384
595
516
514
615
437
617
187
361
203
593
576
159
295
322
382
315
-122
1
-263
4
-355
-543
-395
-591
-196
-378
-167
-248
-232
-348
62
80
-335
-529
-575
-196
-331
-368
-239
-254
-341
102
109
-302
-167
-132
-295
-312
-185
-536
-250
-173
-164
-193
-365
-94
241
436
445
433
863
996
1645
1808
1483
1650
1504
1780
1965
2102
1481
1364
1128
679
596
56
-792
-978
-1199
-1539
-1603
-1422
-1449
-1599
-1339
-756
-511
-438
-475
-442
-245
12
113
-304
-569
-413
-235
68
-25
-121
-339
-187
-316
-59
376
374
272
-50
-43
-38
-86
-113
-31
381
212
166
355
147
548
622
526
368
329
171
251
187
316
319
249
451
469
569
178
223
386
467
393
555
609
795
673
642
803
817
675
702
791
575
544
457
827
435
164
304
204
440
773
435
637
469
860
646
862
868
711
1058
1035
676
865
880
650
851
470
625
610
636
602
219
334
293
368
197
167
276
-109
-99
265
316
-42
35
-312
1
100
100
-272
-136
-164
-379
-366
-174
-520
-561
-556
-570
-625
-407
-615
-256
-212
-543
-398
-408
-551
-184
-199
-571
-396
-626
-551
-528
-572
-609
-589
-547
-543
-592
-406
-466
-511
-797
-798
-773
-482
-453
-427
-385
-575
-239
-166
-383
-383
-150
-164
-164
-191
-531
-625
-638
-534
-144
-361
-186
-532
-513
-135
-278
5
-276
-288
-272
-267
-297
-334
-334
-292
22
69
84
57
4
-285
-257
73
118
64
-310
-131
-359
-269
46
36
12
56
-77
310
362
300
-75
104
115
-92
-96
72
-284
-300
32
92
47
-309
-327
41
-84
-80
43
-333
-293
-113
305
320
-52
81
56
104
-124
88
9
-284
4
52
51
16
46
-73
339
362
-43
43
36
-76
279
-65
8
-311
75
-24
-38
57
-295
45
-62
-31
121
32
59
-118
-105
82
23
44
111
-107
-125
84
36
-262
-284
-267
51
-126
-55
-4
280
288
283
268
-12
-52
-96
-103
-45
312
130
160
204
577
487
851
826
458
617
585
596
600
590
576
559
549
569
612
617
543
167
354
380
174
139
271
-76
-29
370
196
375
-60
56
21
32
7
-325
-142
-176
-204
-515
-563
-534
-169
-328
-342
-193
-541
-537
-233
-245
-593
-416
-388
-527
-158
-376
-375
-344
-272
45
45
-277
-370
-178
-189
-154
-129
-150
-176
-352
-91
536
854
1036
920
1163
1503
1764
2066
1728
1716
2087
2156
1744
1657
1336
1138
662
220
-182
-1078
-1236
-1425
-1801
-1683
-1772
-1703
-1467
-1159
-1149
-719
-852
-475
-579
-171
-342
-374
-238
-596
-563
-366
-119
269
-60
-269
-175
-153
8
-118
116
-260
-301
94
324
208
174
310
256
320
152
160
335
-4
-12
303
375
167
211
532
609
390
618
547
226
201
226
534
583
608
614
388
482
866
673
851
426
571
622
775
873
836
497
506
650
1095
942
908
1037
642
800
504
774
818
854
857
847
862
667
750
1063
1060
754
678
851
504
428
401
430
470
451
623
551
562
608
580
190
313
298
366
367
-8
-115
-46
169
556
184
-81
3
22
89
20
-178
-584
-551
-132
-261
2
-315
-365
-381
-149
-198
-247
-529
-555
-609
-413
-414
-580
-198
-131
-164
-255
-597
-413
-508
-869
-652
-837
-463
-420
-487
-816
-773
-629
-514
-519
-585
-601
-543
-252
-571
-413
-416
-560
-189
-194
-552
-628
-597
-232
-375
-304
-289
-333
-159
-213
-165
-299
32
-280
-149
-194
-364
1
28
-260
17
123
-62
122
-295
-129
-339
-258
-290
-183
-564
-541
-378
62
-113
77
-351
-249
-522
-384
40
70
-340
-542
-594
-183
51
-79
123
-275
-360
-317
54
117
59
-325
-146
-366
-281
6
-298
-338
-288
84
-94
-99
-116
-73
261
268
-96
13
-314
-284
23
15
-304
-347
-322
-258
32
5
-305
-330
-299
14
51
62
74
116
-86
-65
-100
93
51
44
41
21
11
51
-117
-59
-95
61
-257
44
-100
-29
-55
-123
112
-92
-32
-24
-64
-99
-99
-91
-123
56
-276
-295
20
122
-53
-28
-36
-8
348
204
232
152
318
333
177
218
376
-36
-78
309
231
566
534
514
605
503
847
813
476
448
478
473
635
520
243
583
386
565
158
370
246
405
390
189
-1
-6
383
211
139
-15
-126
92
47
-331
-232
-577
-545
-194
-152
-220
-572
-564
-164
-269
-263
-142
-522
-523
-194
-168
-216
-245
-192
-381
-144
-247
-589
-596
-566
-566
-574
-530
-192
-154
-205
-521
-201
22
290
219
566
422
661
1014
1607
1817
1919
1769
1954
2410
2221
2348
2102
1845
1562
1136
513
-172
-729
-1370
-1424
-1722
-2166
-2101
-1804
-1221
-1023
-912
-737
-479
-539
-518
-606
-391
-593
-529
-534
-573
-545
-173
-322
-313
-130
-201
-213
-175
-374
-309
26
106
-93
-75
-84
-90
-75
-42
264
316
347
340
291
-34
-80
-60
308
230
395
468
431
604
569
605
389
611
235
350
269
304
183
598
454
501
787
856
706
1026
732
891
825
814
793
453
626
393
782
646
640
805
774
878
1026
1059
671
489
407
462
813
838
780
468
492
833
888
861
788
496
775
792
466
569
171
365
371
382
354
318
314
332
335
305
271
262
-7
-79
43
-326
-328
32
126
99
-294
-149
-374
31
-119
73
-381
-560
-588
-232
-137
-149
-252
-591
-561
-187
-355
-136
-518
-596
-549
-208
-252
-439
-833
-476
-196
-274
-134
-420
-838
-485
-541
-230
-629
-810
-868
-798
-441
-387
-631
-621
-577
-227
-353
4
9
-331
-168
-187
-137
-357
-374
-160
-179
-180
-203
-252
-532
-236
-164
-372
-365
-363
-330
-282
-262
-290
-343
-375
-374
-356
-337
-321
-307
-293
-261
64
-103
-53
-95
48
-307
-323
-259
60
54
-274
-340
-329
26
-104
-39
-85
48
-309
-308
31
89
50
-313
-381
-343
7
52
1
-349
-134
-350
-285
-270
-298
-298
22
92
74
-298
-156
-156
-309
37
27
-303
-346
-317
-261
27
37
66
120
-95
-101
98
24
-268
21
104
-98
97
-320
-193
-158
34
-38
-10
-114
58
102
-27
303
258
-111
57
49
110
-70
-34
-59
-124
90
116
-68
-21
-44
-108
111
124
-100
-82
-56
265
339
347
-11
106
69
-72
351
163
333
-43
-55
308
158
179
175
518
430
787
455
545
226
595
499
797
449
603
579
601
599
566
558
581
566
223
133
149
538
402
626
202
312
305
136
159
292
112
10
9
8
-318
-142
-375
7
102
60
-321
-384
-323
39
77
15
-337
-143
-139
-322
39
109
79
-296
-144
-145
-333
-308
-364
-170
-161
-369
-371
-180
-204
-350
100
-4
321
137
566
835
1103
1307
1218
1661
1869
1790
2141
2147
2085
1712
1523
1223
1052
539
24
-427
-1076
-1198
-1805
-1783
-2063
-1884
-1625
-1162
-1285
-902
-723
-777
-632
-582
-587
-565
-227
-377
-317
-325
-353
-326
21
100
75
-308
-164
-132
48
-8
327
259
-104
116
-92
-48
-76
118
105
-75
300
380
139
383
135
178
247
579
620
579
210
371
136
249
572
249
382
362
223
613
396
390
478
651
738
879
415
586
416
499
428
529
241
396
836
873
779
460
776
873
879
790
465
489
820
861
861
875
660
673
865
503
439
437
421
585
216
210
619
811
880
793
413
638
437
457
624
231
152
140
356
-41
48
6
-122
312
373
280
-108
103
-105
-67
-112
47
-290
-334
-373
-166
-198
-187
-159
-159
-198
-242
-518
-526
-544
-572
-597
-621
-403
-442
-440
-388
-592
-604
-415
-454
-396
-526
-183
-206
-570
-415
-429
-619
-535
-247
-540
-615
-414
-640
-516
-364
-288
-330
-159
-179
-359
-271
-280
-376
-174
-352
45
82
-308
-233
-533
-147
-262
-277
-170
-523
-187
-257
107
54
-320
-363
-314
-269
-298
-378
-174
-161
-349
6
103
-105
111
16
-294
-257
55
-258
-190
-609
-592
-167
-290
-327
-196
-208
-280
-37
324
-15
95
27
49
89
104
113
119
71
-318
-202
-227
-372
15
42
-289
-363
-361
-306
0
34
66
80
43
-287
-331
-310
-263
6
-279
-307
-308
-294
-279
11
69
98
40
-332
-145
-354
18
86
62
12
12
54
74
48
26
67
-126
121
13
-363
-372
11
-84
-3
-9
-23
274
332
328
258
-43
277
154
223
143
-13
-85
274
218
604
582
223
181
514
384
443
636
240
365
286
-3
-10
256
293
365
203
542
595
616
605
559
210
338
-55
77
-289
-133
-205
-216
-168
-366
-341
-333
-293
41
90
61
-269
-301
7
92
-128
94
33
-261
-274
-287
-304
-327
-369
-179
-239
-256
-232
-219
-230
-199
-330
113
265
345
175
614
874
1111
1280
1163
1560
1661
1434
1461
1840
1754
1771
1503
1320
698
489
524
93
-772
-1317
-1597
-1632
-1591
-1593
-1612
-1560
-1398
-914
-703
-810
-436
-539
-341
77
100
-270
-132
-383
-260
96
44
-143
-580
-631
-544
-153
-310
0
44
98
-105
-77
-76
-86
-87
-70
-30
278
310
295
256
-6
311
383
378
282
-57
-30
339
164
151
377
181
563
617
527
131
339
156
252
540
521
252
517
527
552
625
473
794
787
490
477
498
491
430
624
623
406
410
600
522
523
622
488
794
487
399
615
639
409
626
529
202
221
567
391
404
624
595
605
621
594
255
156
342
312
294
270
-8
259
308
344
306
-69
42
-312
-335
-310
-292
-313
-371
-168
-166
-357
-277
19
-262
-336
-173
-255
-559
-564
-556
-588
-422
-504
-486
-608
-196
-138
-202
-561
-607
-583
-553
-581
-408
-488
-505
-453
-639
-585
-541
-219
-380
-318
-347
-189
-522
-521
-218
-205
-251
-575
-623
-387
-633
-567
-192
-356
-369
-190
-198
-334
68
98
26
14
-111
286
-22
-273
-253
-548
-199
-176
-556
-425
-630
-158
47
102
45
11
70
-88
-34
-64
107
21
-272
26
-119
260
322
292
-54
102
19
-304
-352
-374
-362
-327
-267
88
-35
339
370
297
-65
-127
109
74
1
-317
-313
5
67
106
-119
-86
-75
-114
74
22
3
-274
-322
-132
-180
-189
-173
-157
-142
-374
-344
-327
-345
-135
-157
-372
-279
71
113
115
-125
-68
259
311
337
361
142
158
379
300
-38
-73
-44
272
306
288
-14
-27
277
336
355
350
371
172
194
136
316
324
150
189
361
-42
-119
-90
-40
-36
-58
-60
-62
-107
67
26
55
75
-270
-193
-576
-531
-350
65
91
26
-264
40
102
103
54
31
55
46
-315
-207
-255
-154
-285
-292
-171
-544
-532
-178
-361
-339
-289
90
-21
331
134
245
430
867
713
1026
1145
1355
1543
1578
1221
1407
1244
1424
1460
1199
726
533
-7
40
-514
-687
-1369
-1638
-1459
-1414
-1582
-1217
-1327
-1131
-896
-394
-191
-340
-321
-310
17
116
-112
68
-270
10
-120
-16
-28
-117
80
95
-110
-57
268
367
195
194
377
323
354
158
129
-13
84
20
64
-116
-65
-24
318
190
555
599
592
599
402
479
496
397
222
350
374
531
433
468
388
565
585
430
503
486
412
609
605
393
463
796
861
894
642
657
703
755
758
682
825
481
449
451
442
418
415
467
806
858
832
495
442
483
843
888
786
587
188
206
587
414
623
253
184
185
175
351
-16
-92
121
50
-330
-179
-184
-349
8
45
27
24
68
111
71
-336
-525
-632
-621
-574
-585
-401
-438
-627
-250
-180
-192
-215
-182
-142
-184
-571
-444
-479
-433
-404
-455
-811
-882
-867
-774
-395
-542
-212
-170
-148
-153
-193
-253
-556
-584
-625
-444
-773
-782
-463
-390
-614
-601
-552
-218
-181
-223
-543
-547
-239
-216
-530
-606
-593
-218
-350
-323
-129
-187
-162
-326
23
70
81
91
117
-107
-87
-74
-52
-16
276
280
-17
-86
102
63
66
103
-117
-120
80
8
-286
-276
12
40
73
123
-89
-90
120
71
61
84
104
99
68
11
-309
-337
-285
90
-70
-82
81
16
54
-99
-29
-39
-92
-120
-95
-37
267
270
-24
-71
-96
-118
83
6
-269
80
-42
-10
127
-281
-311
48
-114
110
-257
-301
48
-55
307
353
140
195
207
379
-23
127
114
-93
-41
-12
260
289
353
223
413
850
644
511
552
180
234
600
605
225
365
366
184
204
383
300
308
374
139
319
-63
79
-269
-350
-147
-150
-383
-141
-228
-591
-389
-618
-535
-184
-372
-358
-149
-215
-224
-144
-294
-267
-349
-201
-235
-190
-133
-376
-135
-132
-360
-327
-293
13
76
113
100
81
-120
292
244
452
679
979
1587
1858
1910
1524
1413
1477
1882
1865
1276
763
607
169
328
76
-391
-1148
-1206
-1537
-1254
-1265
-1568
-1275
-1335
-1044
-796
-433
-425
-403
-555
-151
-305
-299
-347
-371
-335
-264
57
93
103
81
14
-330
-373
-310
77
-85
-88
125
-107
257
342
305
-56
-69
332
242
247
345
-44
-1
153
223
140
299
358
560
469
468
623
585
424
816
860
793
450
431
473
505
488
464
488
810
843
794
461
453
789
863
845
505
454
479
509
469
394
397
773
660
709
657
850
854
649
682
658
830
462
626
608
429
787
799
431
551
541
432
850
859
442
515
223
609
501
500
579
359
-20
-26
-8
-50
124
79
96
125
116
73
30
-270
-339
-175
-252
-552
-577
-599
-597
-543
-212
-183
-216
-246
-217
-168
-194
-561
-389
-600
-203
-362
-141
-256
-590
-587
-563
-573
-611
-393
-416
-429
-441
-439
-411
-631
-614
-623
-636
-635
-620
-589
-540
-220
-152
-372
-135
-193
-241
-250
-247
-528
-584
-605
-529
-364
45
79
-277
-156
-199
-380
-288
-300
-174
-551
-520
-335
115
-77
115
37
40
88
69
-300
-152
-138
-274
88
94
38
18
63
100
56
-300
-376
-384
-357
-341
-331
-300
1
22
4
-277
-268
18
25
-265
-295
-277
33
79
88
80
79
68
8
-351
-174
-170
-349
-276
-268
-316
-358
-368
-352
-319
-265
62
109
98
47
16
53
-122
-51
-18
-31
-99
63
19
109
299
169
344
113
-290
57
279
365
-73
-362
-221
-312
-43
335
-28
31
-311
39
-33
353
345
-39
68
20
-120
353
530
549
175
301
278
361
192
192
372
315
364
245
617
618
524
191
203
247
212
338
-26
260
141
251
526
533
635
789
839
448
226
346
345
369
288
116
7
61
-30
348
328
-41
-122
-120
-108
73
-346
-239
-529
-203
-382
-363
-374
-348
-272
43
11
-363
-218
-230
-151
-344
-134
-526
-625
-589
-201
-357
-359
-131
-328
70
-105
75
-316
-300
-57
548
806
674
1052
1023
1279
1429
1472
1524
1893
1696
1811
1245
949
750
783
134
-135
-860
-906
-1370
-1586
-1511
-1524
-1607
-1398
-1024
-958
-1078
-864
-446
-445
-802
-851
-512
-621
-513
-218
-164
-264
-36
133
128
-48
-280
-172
-190
-133
-330
-278
42
125
-42
310
160
232
201
330
-28
271
153
203
325
123
71
-11
227
571
224
360
352
184
515
512
202
149
378
137
198
520
523
187
366
162
615
818
866
499
637
398
785
888
861
467
596
582
434
848
690
654
778
413
426
801
894
847
452
384
493
699
1070
737
818
460
502
854
879
795
402
549
513
555
396
490
497
387
227
141
179
250
226
327
-120
24
8
38
58
42
-277
-135
-519
-567
-209
-272
122
97
-309
-195
-237
-204
-167
-177
-222
-253
-224
-135
-300
-272
-296
-289
43
105
21
-206
-414
-455
-618
-559
-614
-430
-422
-634
-406
-487
-481
-597
-211
-239
-628
-407
-515
-341
-321
-185
-522
-201
-317
11
-279
-337
-333
1
104
-82
-79
-122
97
102
114
61
-329
-210
-255
-217
-183
-207
-253
-249
-181
-356
-306
-272
15
33
26
3
-279
-311
-340
-352
-331
-296
-292
-334
-381
-372
-315
-258
20
17
4
-280
-316
-326
-278
57
77
-265
-379
-130
-262
110
81
-301
-328
90
272
-11
-268
-519
-545
-131
-272
-327
-213
-552
-533
-211
-134
-298
37
46
-273
-320
-286
44
54
-273
-336
-327
-277
-265
-315
-379
-153
-135
-328
28
126
-102
80
-295
-361
-317
52
-124
103
-281
-159
-186
-332
69
103
-278
-199
-531
-204
-337
-282
-316
-360
-335
9
105
-91
-71
-71
-80
-103
99
22
-292
-290
23
78
84
64
103
-10
183
568
568
222
141
380
137
375
309
-6
-4
320
165
523
629
489
846
889
848
492
387
556
218
378
291
278
370
249
580
565
531
565
399
450
638
226
329
-35
127
23
-313
-326
-296
-281
-306
-328
-309
-281
-297
-354
-132
-374
-358
-376
-137
-347
3
35
-303
-171
-210
-382
-284
-309
-210
-617
-618
-207
-287
19
-316
-382
-314
94
-97
61
-318
0
285
605
774
837
757
1389
1532
1715
1679
1907
2051
2005
2038
2077
1521
1568
1154
1092
255
-193
-1040
-1401
-1607
-1521
-1683
-1763
-1698
-1509
-1254
-968
-667
-403
-241
-207
-242
-519
-245
-226
-238
-247
-199
-368
-319
-345
-139
-145
-374
-382
-181
-203
-375
16
87
65
55
-107
307
154
153
132
174
244
247
162
327
307
350
153
202
245
523
254
235
523
589
591
216
329
326
232
394
407
583
603
790
718
704
504
578
563
392
412
569
205
209
560
386
406
418
490
853
655
890
841
828
852
857
825
808
844
887
848
453
567
536
619
445
423
575
248
550
412
492
462
616
538
523
513
180
315
-24
-27
-8
-48
118
64
87
-117
-99
-105
-93
-81
112
-292
-178
-221
-199
-222
-577
-398
-623
-528
-222
-249
-533
-241
-170
-143
-182
-236
-515
-530
-576
-386
-421
-401
-620
-598
-588
-570
-540
-520
-524
-527
-241
-178
-376
-359
-133
-184
-225
-243
-240
-218
-178
-144
-152
-192
-215
-189
-378
-317
-291
-283
-273
-257
-259
-282
-298
-289
-276
-295
-349
-151
-175
-154
-367
-340
-355
-130
-376
-298
58
88
21
-310
-280
108
-40
-50
124
96
-96
-38
-96
6
-366
-368
-304
-284
-355
-209
-519
-197
-294
105
120
-264
-160
-183
-295
-120
-87
55
-305
-257
-111
-60
62
-380
-167
-301
47
-314
-544
-391
-229
52
-78
52
-158
-227
-382
-271
-301
-182
-535
-251
-143
-313
-291
-288
-271
7
15
3
-276
-303
-318
-285
47
92
37
-337
-369
33
-7
320
-92
-327
-167
-321
99
-77
-99
96
39
-259
-266
35
83
53
-329
-206
-246
-190
-131
-133
-176
-184
-373
0
114
-77
-69
-70
-8
383
241
220
333
-56
-64
279
342
336
335
153
534
617
622
603
628
429
438
610
246
235
619
796
878
808
404
555
524
235
133
-34
51
-333
-160
-213
-230
-210
-170
-140
-143
-175
-207
-194
-368
16
109
98
-258
-360
-384
-333
-277
-267
-307
-358
-134
-372
-292
87
-61
-25
-70
91
-274
-354
-361
-291
44
55
20
76
321
404
877
894
893
1111
1271
1849
1853
1658
1599
1823
2109
2123
1798
1377
1085
875
521
-319
-706
-1168
-1642
-1472
-1531
-1807
-1470
-1544
-1327
-1109
-887
-408
-227
-131
-358
-346
-327
-312
-300
-267
51
92
55
-301
-367
-329
50
-79
-16
-11
-13
274
331
382
131
328
-25
-92
-89
-41
-14
-39
-84
-90
-50
258
304
354
145
147
344
284
319
191
545
248
373
319
173
606
424
602
237
233
574
624
562
201
171
241
577
589
558
560
611
396
391
627
393
452
491
496
772
834
640
642
854
828
822
503
602
183
137
221
577
599
557
530
547
570
563
534
242
197
135
339
323
331
321
271
-54
-113
103
82
79
79
45
-291
-369
-361
15
-89
-27
-112
-283
-166
-210
-189
-189
-516
-632
-452
-425
-573
-216
-194
-235
-251
-197
-384
-141
-240
-580
-557
-206
-172
-251
-605
-610
-532
-237
-561
-405
-429
-635
-600
-629
-404
-622
-541
-248
-526
-529
-191
-322
-260
-301
-383
-163
-381
-315
-265
9
3
-280
-315
-337
-335
-317
-294
-272
-262
-292
-360
-158
-377
1
114
122
43
-269
12
51
16
-328
-370
-328
-277
-297
-339
-292
107
-39
-80
26
-336
-317
22
61
15
-315
-339
-279
106
260
370
378
291
-66
-85
-14
306
-1
96
-298
-299
62
121
48
-324
-331
50
-92
-118
23
-276
80
-38
260
-57
-125
111
92
18
-348
-168
-167
-380
-349
-356
-383
-130
-326
47
-106
-89
95
4
-317
-134
-245
-582
-534
-378
-268
-312
-161
-134
69
266
269
97
-303
-296
34
17
-374
-234
-207
-316
87
-88
-36
284
337
321
-14
-69
-40
281
285
-48
-117
-78
311
167
170
353
318
379
223
512
186
338
287
309
351
357
323
279
-2
-16
-25
-18
267
300
312
312
323
334
289
-91
22
-310
-316
-334
-165
-524
-534
-164
-268
77
83
56
33
-257
-304
-335
-343
-357
-156
-236
-523
-212
-381
-354
-146
-177
-362
14
47
-313
-172
-140
45
-51
-56
104
-127
368
422
861
893
690
897
1175
1587
1542
1161
1370
1166
1187
1325
1098
877
454
515
-78
-556
-1032
-1358
-1257
-1596
-1437
-1515
-1476
-1280
-993
-703
-439
-182
38
-101
-122
33
-299
-292
28
72
51
-272
-319
-285
78
-66
257
292
330
372
381
343
318
361
171
145
257
120
-108
333
247
518
173
143
247
636
396
548
180
160
209
232
193
147
162
239
579
612
593
572
588
388
461
770
785
769
490
487
771
810
818
770
423
582
530
542
592
630
610
552
521
567
400
444
405
615
403
789
884
845
458
629
412
507
781
419
251
130
370
187
534
566
514
180
172
518
611
594
200
306
-15
-15
-23
-58
-80
-78
-107
54
-303
-312
23
68
-262
-152
-249
-246
-208
-211
-242
-234
-171
-361
-367
-190
-545
-610
-385
-412
-451
-494
-777
-772
-477
-396
-537
-164
-334
-291
-283
-318
-161
-569
-438
-458
-391
-606
-403
-469
-404
-195
14
68
-273
-341
-311
-276
-372
-582
-480
-457
-588
-532
-602
-409
-565
-325
124
122
-283
-134
-351
4
7
-370
-233
-219
-333
72
-106
-82
-55
-18
-2
-33
-103
56
-316
-164
-188
-352
57
-78
-29
260
350
217
518
144
-85
-284
-347
-298
31
74
108
-78
272
337
339
309
293
291
-1
-104
17
-329
-327
3
90
-101
-43
281
333
313
-36
126
115
-79
-39
-74
-122
-80
302
382
316
-84
108
-70
291
270
114
-298
-334
4
109
-99
-118
81
16
-286
-298
-280
4
18
12
1
-260
23
93
-54
311
370
367
340
326
334
353
371
369
329
258
-59
-65
-24
266
264
270
349
226
576
565
229
167
143
355
256
-110
112
-77
286
344
336
314
343
178
531
555
215
333
-21
-38
256
286
284
269
-4
-41
-111
70
32
31
25
-267
-317
-344
-324
-262
69
118
103
29
-301
-317
-285
-283
-359
-221
-545
-526
-192
-352
-264
47
52
17
-266
13
76
107
59
-307
-166
-228
-201
-336
90
-13
364
527
807
1151
1384
1386
983
899
983
1377
1354
1094
474
191
303
-73
-308
-428
-1104
-1179
-1612
-1649
-1603
-1277
-1200
-1348
-923
-696
-463
-543
-171
-300
-120
299
333
-25
122
-116
268
362
332
-22
-88
-98
-110
117
-121
-4
141
189
368
269
265
345
145
360
275
-6
317
146
158
354
297
309
357
372
344
342
165
536
589
546
216
200
241
529
518
245
523
581
630
393
402
444
783
868
885
790
621
238
252
627
455
400
530
235
608
770
820
479
624
603
412
472
461
397
616
417
820
708
713
791
550
186
521
630
563
318
113
-101
146
622
395
549
229
519
555
223
308
-98
98
85
35
-307
-337
6
-112
-56
117
-271
-322
-273
18
-323
-241
-385
-431
-421
-425
-447
-434
-610
-249
-193
-216
-537
-582
-552
-196
-347
-321
-143
-255
-563
-526
-198
-167
-199
-538
-388
-468
-467
-615
-204
-382
-173
-518
-519
-151
-293
-294
-162
-566
-385
-626
-575
-537
-523
-521
-520
-250
-217
-170
-129
-375
-137
-148
-378
-328
-312
-360
-180
-205
-165
-135
-191
-557
-590
-197
47
-17
285
-25
-65
-52
-37
-78
93
12
-304
-357
-155
-170
-375
-289
25
22
0
13
62
96
72
14
-289
-292
1
51
80
62
-266
-329
-303
69
-72
-55
-128
68
96
-94
-83
105
43
63
-124
-78
-74
-71
-42
-11
-22
-55
-67
-72
122
4
-322
5
-92
-13
-107
-264
-311
40
-123
80
-335
-159
-309
-114
-19
-91
34
2
97
-48
-34
-112
83
114
-63
-22
-56
-115
119
122
93
26
-274
15
109
-50
277
351
200
556
590
544
215
174
167
137
309
-32
-27
339
203
217
138
361
220
401
441
250
-9
-106
259
149
168
363
376
232
560
248
162
200
592
609
379
46
-144
-382
-320
-379
-522
-595
-536
-188
-162
-184
-188
-166
-160
-181
-164
-326
41
70
2
-332
-334
-286
-283
-373
-238
-553
-522
-209
-192
-202
-171
-305
113
-55
-86
99
100
-31
169
610
483
818
869
644
672
711
739
700
817
609
379
-123
-151
-452
-701
-1142
-1348
-1661
-1757
-1931
-2055
-1484
-1237
-1166
-1401
-1000
-724
-455
-550
-211
-135
-334
-343
-131
-361
36
-48
289
262
-32
263
356
159
136
328
286
278
286
283
265
-5
256
277
306
337
369
139
160
169
167
146
360
307
281
313
147
246
553
548
538
561
596
593
544
249
530
593
611
528
142
341
165
578
436
449
421
438
507
805
506
417
616
614
615
571
526
548
395
774
855
889
895
862
773
406
599
610
385
630
600
627
473
824
824
480
392
606
565
223
130
360
151
181
133
315
309
380
152
307
-118
44
77
-99
-82
125
84
86
86
36
-288
-312
-278
15
0
-322
-382
-378
-296
62
82
-284
-182
-223
-358
31
-278
-256
-431
-608
-383
-294
-209
-471
-822
-448
-540
-237
-544
-562
-236
-379
-300
-289
-334
-152
-214
-237
-242
-529
-588
-620
-580
-253
-219
-219
-181
-331
11
-276
-154
-514
-233
-369
-259
29
-263
-326
-132
-162
-371
-259
89
58
-371
-579
-426
-610
-172
-284
-283
-146
-239
-179
13
-77
-71
79
2
23
65
24
-323
-336
20
119
96
-261
-283
101
259
266
102
-323
-348
-258
55
-261
-356
-357
10
123
-125
60
17
48
70
-274
-195
-588
-580
-208
-369
-360
-384
-345
35
-101
-66
-113
83
63
58
19
-302
-321
24
-80
284
285
-31
-59
-40
-71
30
-188
-568
-518
-373
-290
-333
-145
-364
51
-55
-33
-114
85
121
-72
-86
79
31
104
-10
338
309
-54
117
103
-109
-44
268
291
289
293
325
357
330
-35
79
-274
-301
-300
-314
-347
-357
-307
50
-102
-58
-88
-123
-82
291
369
312
-85
116
-20
161
208
346
-10
331
537
396
588
220
225
600
440
427
627
623
398
628
515
135
341
367
147
135
333
285
297
373
203
235
202
164
181
241
530
237
162
356
304
-18
-90
124
123
110
45
-289
-313
-278
7
-258
-268
22
70
48
-313
-156
-163
-354
-317
-361
-179
-197
-146
-346
-342
-374
-131
-366
-341
-347
-378
-156
-167
-140
-328
37
-96
264
368
528
769
1037
971
1280
973
905
1140
925
984
977
1090
821
528
313
-95
-317
-461
-991
-1472
-1751
-2070
-1740
-1851
-1420
-1244
-1346
-933
-708
-395
-356
43
-257
-134
-211
-159
-261
-92
266
-1
-93
84
106
-59
-28
118
-302
-347
38
-34
301
261
-14
348
515
606
572
241
238
562
592
518
143
354
166
512
512
158
311
287
344
170
228
241
207
146
381
205
623
496
501
425
388
427
451
639
539
531
634
462
430
612
621
457
777
500
488
826
659
854
412
580
482
719
740
492
512
565
828
699
489
132
-14
174
475
842
438
234
192
586
490
775
426
589
570
569
240
360
271
297
371
359
-29
76
18
54
93
81
40
18
31
57
84
103
101
65
-257
-323
-369
-149
-203
-551
-400
-448
-386
-230
-335
-293
-367
-197
-200
-136
-370
-202
-598
-409
-607
-229
-132
-351
-346
-346
-347
-339
-308
-275
-291
-134
-520
-572
-233
-336
-258
-323
-192
-229
-378
32
90
16
-345
-364
-302
-276
-353
-214
-247
-163
-312
-290
-362
-165
-379
-259
86
61
-300
-380
-374
-321
-309
-365
-154
-363
4
61
-272
-166
-240
-152
24
-117
119
21
-301
-276
68
-116
-124
39
-337
-151
-383
-296
24
6
-337
-150
-135
-310
25
32
-289
-364
-129
-344
-292
-277
-295
-306
-277
40
80
47
-301
-377
-369
-270
95
124
56
-294
-346
-362
-140
-200
-242
-238
-234
-540
-620
-625
-239
-284
-122
-85
109
23
-292
-309
-293
-263
5
-282
-337
-355
-286
99
-61
-61
-120
101
117
125
65
-282
-299
65
-52
-13
-82
116
-100
-14
-7
-102
54
39
90
118
98
85
126
-54
258
276
274
270
260
-22
-61
-106
121
-112
-29
324
370
354
358
187
570
633
602
569
606
417
425
623
592
400
482
471
606
216
160
174
199
207
206
194
160
134
172
533
617
578
159
-25
124
91
46
-325
-231
-628
-430
-392
-543
-169
-346
-325
-344
-371
-376
-352
-311
-275
-271
-293
-304
-274
44
96
106
88
57
1
-339
-158
-190
-184
-166
-362
64
334
554
584
219
199
398
697
1136
898
1140
949
1292
1304
1286
1354
1215
1159
1037
222
23
-223
-432
-1065
-1575
-1724
-2121
-2073
-1743
-1693
-1836
-1589
-1012
-749
-860
-510
-623
-158
22
70
-258
-316
30
-13
151
382
-52
58
71
-80
-34
-102
59
48
127
-32
300
364
157
145
315
-20
-2
359
188
189
159
192
544
606
572
228
168
175
225
532
567
575
556
543
586
429
769
496
635
513
241
581
398
385
584
588
423
508
493
398
605
419
798
856
818
768
769
784
484
392
596
627
424
419
631
390
506
895
672
844
485
462
781
846
842
503
404
620
403
476
769
479
388
533
179
133
162
234
520
196
321
-25
-26
-4
-47
97
-273
-338
-134
-209
-528
-253
-156
-333
-350
-175
-207
-143
-312
-322
-205
-625
-421
-582
-192
-161
-522
-404
-424
-525
-294
112
101
-257
-322
-302
-261
-304
-193
-587
-587
-199
-350
-166
-633
-509
-401
-148
-272
-153
-417
-782
-619
-362
-270
-146
-566
-551
-363
73
103
7
-340
-347
-297
15
39
23
-276
-306
-276
75
-98
-115
43
-274
54
-49
277
-96
-316
-200
-164
-299
-257
-356
-209
-166
13
-102
119
-294
-145
-138
-371
-178
-530
-525
-384
22
58
14
5
60
95
49
-282
-302
-264
12
-283
-333
-320
4
67
86
74
49
16
-274
-279
27
114
-85
-114
58
2
8
13
-323
-235
-636
-387
-516
-373
-321
-361
-144
-363
-264
72
67
-284
-145
-190
-139
-301
18
32
46
106
-78
-58
-109
79
40
13
-310
-162
-229
-186
-291
-121
-35
-57
122
64
71
122
-110
94
-263
-324
-290
88
-12
367
148
332
-57
116
-87
318
173
165
366
150
569
489
815
797
792
817
794
421
535
207
207
204
171
166
240
601
387
602
534
223
152
284
-113
55
26
-285
-161
-557
-587
-216
-296
66
54
-275
-337
-363
-384
-176
-234
-517
-254
-520
-571
-603
-518
-314
-122
-96
9
-172
-235
-182
-133
-157
-206
-191
-355
8
89
-86
301
229
444
669
899
1375
1544
1637
1437
1530
1673
1771
1714
1492
1208
964
722
627
112
-478
-992
-1604
-1819
-1697
-1783
-2084
-2076
-1710
-1448
-1320
-700
-503
-468
-443
-572
-139
-291
-285
-284
26
85
83
55
89
-82
-57
122
39
77
-31
350
382
132
187
516
240
360
-28
-22
365
224
216
381
338
147
516
581
566
524
240
224
197
183
207
517
540
250
203
227
596
465
771
477
418
404
414
636
539
212
522
444
849
816
631
516
393
690
1118
726
411
228
578
783
845
462
569
561
397
443
638
567
596
451
783
506
426
626
620
626
603
563
552
583
602
549
183
354
355
140
366
-22
94
69
-104
-54
113
-287
-308
99
268
-5
36
-190
-255
-166
-333
-351
-181
-233
-215
-186
-211
-521
-522
-183
-341
-324
-151
-516
-554
-241
-151
-376
-176
-525
-583
-572
-521
-229
-233
-252
-253
-226
-187
-168
-189
-242
-532
-246
-149
-319
-352
-252
-394
-634
-222
-352
-131
-513
-552
-184
-296
1
-299
-302
35
95
33
-357
-171
-138
-358
-155
-250
-521
-150
18
-118
-69
-37
258
271
-20
-82
-110
-92
-92
89
-290
-361
-315
50
103
46
-298
-305
42
121
95
6
-261
-122
326
139
275
80
-275
34
-119
-95
66
-324
-384
-323
68
-82
-68
-106
-87
289
158
131
-88
-344
-191
-369
-281
-352
-558
-465
-438
-251
-312
24
1
-286
-264
37
44
6
4
106
-14
257
89
-372
-163
-298
39
-345
-579
-390
-177
-122
286
-7
-35
354
552
611
200
-24
114
-117
-55
-61
-116
-121
-4
196
602
611
530
243
583
438
441
582
206
196
518
538
210
372
340
362
378
359
326
294
256
-43
-82
-117
84
11
-297
-321
-378
-242
-598
-547
-360
19
-321
-235
-231
8
-33
-122
-209
-487
-494
-605
-556
-395
-464
-626
-176
-295
-259
0
6
-301
-185
-578
-591
-225
-379
-379
-164
-341
-66
561
870
1051
917
1354
1609
1815
1857
1517
1492
1906
2130
2159
1859
1377
715
450
159
-307
-871
-1323
-1590
-1532
-1751
-2146
-1783
-1460
-1405
-1005
-940
-740
-391
-364
-322
-180
-220
-346
78
105
7
-289
90
280
365
290
-72
-59
334
192
145
-37
40
-278
33
122
-74
-35
268
334
162
524
392
486
473
586
144
307
360
237
592
607
583
588
636
435
466
470
457
437
421
406
385
621
389
771
738
927
915
682
416
590
447
808
464
249
140
254
461
805
479
410
471
859
648
805
422
400
476
772
432
558
532
404
812
816
418
578
437
682
1033
825
230
323
157
514
369
36
-178
-330
-56
337
-26
56
33
-100
-27
103
-139
-557
-551
-213
-200
-544
-636
-385
-565
-220
-156
-373
-378
-188
-514
-238
-132
-340
-209
-431
-801
-470
-615
-633
-484
-493
-590
-150
-379
-249
-388
-460
-491
-777
-791
-772
-769
-814
-829
-456
-245
-349
-355
-186
-213
-157
-358
-371
-159
-176
-177
-198
-230
-228
-199
-209
-532
-567
-232
-331
10
-321
-204
-225
-330
99
107
-313
-199
-148
45
-74
-117
16
2
-121
269
260
-117
69
109
-107
72
-325
-353
56
-7
290
-77
120
256
227
559
382
106
-293
9
84
34
-353
-137
3
-46
293
-54
63
27
108
-74
-111
20
-336
-332
7
82
90
39
-261
10
72
122
107
39
-277
-270
54
-128
-76
-31
268
283
-7
-48
-28
326
181
216
160
328
289
348
234
631
403
536
355
276
361
243
526
163
307
326
216
634
475
508
504
469
408
604
558
246
157
317
273
302
375
203
539
582
250
289
51
-289
67
-97
47
-225
-401
-567
-342
-267
-187
-431
-502
-627
-213
-159
-167
-138
-331
-332
-169
-522
-545
-529
-566
-416
-511
-781
-473
-407
-596
-521
-213
-216
-239
-205
-359
-277
6
72
287
611
881
1038
956
1258
1835
1695
1845
1512
1901
2091
1770
1641
948
686
463
-33
-834
-1582
-1681
-1711
-1757
-1973
-2387
-1949
-1476
-1292
-1105
-1062
-664
-630
-347
34
13
-313
-384
-195
-226
-175
-323
0
-268
-279
60
-54
258
-75
92
127
-1
312
-56
11
-338
2
-59
381
221
220
160
361
366
195
557
611
582
255
214
248
593
451
792
786
413
238
373
375
197
237
206
193
548
480
875
881
820
823
657
734
719
649
877
655
671
853
471
415
482
863
667
860
493
472
851
1047
910
1132
741
875
819
785
466
419
439
474
420
513
134
215
443
827
425
377
-55
292
238
553
152
-24
-44
334
171
380
-24
109
76
89
83
51
31
61
116
120
47
-329
-184
-251
-528
-517
-246
-256
-562
-616
-596
-220
-356
-383
-586
-820
-655
-837
-483
-480
-795
-783
-640
-190
-326
-328
-154
-231
-252
-231
-235
-580
-475
-827
-775
-621
-235
-209
-215
-133
28
109
3
-209
-604
-574
-222
-225
-626
-798
-838
-437
-220
-358
-165
-569
-614
-212
4
74
-329
-527
-563
-155
12
36
-298
-328
-272
31
-263
-327
-320
14
74
57
10
14
79
-111
-83
-91
123
34
-350
-197
-200
-368
-287
-291
-367
-165
-129
-276
66
53
-319
-211
-563
-566
-233
-379
-286
6
-274
-296
8
118
-63
-112
-275
-189
-255
-190
-326
18
27
-288
-326
16
-17
201
226
276
34
-267
-115
267
-74
-284
-366
57
336
245
227
146
142
224
551
534
190
375
148
540
433
463
593
185
185
606
483
393
376
-88
-56
131
528
564
619
775
891
489
350
-267
-353
6
-258
-518
-840
-680
-492
-226
-339
-325
-318
-268
17
-268
-289
32
126
108
-314
-243
-573
-546
-531
-582
-616
-543
-138
-280
-264
-312
-362
-146
-199
-248
-518
-523
-565
-611
-540
-274
372
470
710
919
1198
1486
1883
1842
1521
1878
2126
2041
1939
1858
1228
935
652
249
-296
-871
-1349
-1436
-1920
-1768
-1717
-1812
-1661
-1584
-1239
-998
-874
-556
-200
-239
-201
-265
-76
-82
-271
-199
-241
-200
-202
-519
-557
-254
-145
-277
115
-10
313
274
-72
-97
-37
-6
-95
29
9
-110
321
137
369
344
355
358
339
368
237
390
463
435
638
626
614
535
147
300
282
331
134
178
214
512
585
454
857
674
850
420
572
621
472
478
620
538
616
800
665
646
825
799
835
857
825
786
785
788
468
609
548
612
477
771
440
386
472
888
666
482
224
347
365
382
275
110
31
71
-126
124
93
113
-82
-63
120
19
-264
51
116
108
30
-300
-312
-271
10
-299
-161
-516
-527
-212
-179
-239
-587
-583
-190
-304
-325
-527
-469
-474
-567
-167
-171
-515
-546
-229
-173
-201
-536
-585
-616
-454
-885
-1034
-1030
-878
-468
-433
-470
-419
-209
42
-108
51
-354
-379
-293
-269
-144
-558
-550
-375
16
-306
-222
-522
-355
-127
-31
-88
85
52
32
-265
-280
38
113
85
-317
-192
-167
8
-77
-53
75
-337
-139
-332
23
62
29
-266
21
120
-51
-60
92
-279
-323
-292
-261
-284
-339
-349
-267
118
-54
-50
-70
-56
-14
-13
-101
6
-368
-136
-335
-271
-262
-310
-359
-350
-273
85
-116
108
19
-313
-327
-296
-291
-353
-179
-192
-353
31
59
-310
-202
-236
-136
-289
-303
-135
-151
-282
-99
279
338
169
569
422
391
253
140
383
150
376
294
259
323
176
237
223
192
193
197
157
340
309
358
182
205
151
341
345
150
173
318
92
-380
-206
-143
-316
-337
-205
-546
-210
-267
93
-305
-596
-771
-417
-190
-374
-559
-805
-836
-602
-335
-268
-154
-577
-623
-568
-524
-533
-559
-557
-525
-206
-374
-290
-266
-310
-355
-315
65
-81
-45
-3
178
785
950
1584
1871
1791
2090
1778
1734
2049
2146
2075
1455
914
442
162
-56
-152
-676
-1217
-1851
-1751
-1748
-1915
-1523
-1614
-1194
-1289
-1089
-815
-518
-318
-305
-181
-549
-256
-360
29
73
77
120
-59
-36
-99
101
-92
316
137
281
66
-300
56
259
364
283
121
63
-74
375
224
180
342
325
162
524
540
215
168
220
576
619
567
246
521
613
427
409
605
586
630
437
486
792
847
875
847
799
798
845
874
826
453
581
238
205
234
562
632
398
638
386
453
794
818
499
407
621
391
444
485
509
775
775
502
473
444
415
624
544
185
354
316
327
355
369
374
128
381
339
262
-66
-108
95
-276
-171
-525
-527
-234
-240
-522
-236
-148
-365
-196
-596
-402
-611
-569
-633
-510
-843
-810
-472
-406
-607
-544
-243
-516
-578
-618
-612
-616
-433
-807
-877
-838
-471
-637
-622
-410
-450
-452
-425
-420
-460
-791
-871
-669
-683
-894
-782
-640
-548
-554
-597
-593
-542
-529
-585
-625
-550
-143
-312
-342
-379
-319
37
12
-163
-586
-605
-529
-523
-617
-398
-249
8
-71
-49
-108
114
113
92
49
23
19
-269
-350
-161
-384
-263
83
67
-258
3
125
263
277
-109
19
46
-61
289
-61
-271
-142
-332
96
-49
-69
118
117
-51
309
354
328
279
-11
-35
-65
-113
75
-267
-359
-169
-165
-341
16
60
38
18
60
-119
-98
92
14
8
53
61
8
-290
28
-89
272
298
300
354
177
185
343
-30
-48
306
165
183
335
-57
-105
-9
169
558
562
219
169
250
416
782
502
405
604
608
579
198
307
261
318
333
-55
7
-313
66
-23
277
-76
63
29
65
105
102
48
-305
-153
-197
-149
-323
-307
-367
-152
-377
-343
-154
-556
-624
-536
-149
-378
-195
-222
-129
-278
-295
-153
-217
-162
-339
-368
-243
-590
-538
-144
-312
-333
-148
-143
8
269
546
511
709
965
1543
1816
1896
1535
1424
1470
1857
1811
1170
829
327
88
-280
-255
-686
-1162
-1471
-1806
-1498
-1435
-1637
-1276
-1314
-757
-485
-589
-553
-534
-197
-327
-258
-315
-186
-249
-164
0
92
40
-338
-378
-273
-98
258
-44
85
-273
-310
-320
-350
-130
-384
-333
-265
63
-85
338
518
626
385
617
623
410
434
386
542
210
207
521
577
577
534
518
578
419
478
466
415
617
546
190
135
228
471
705
747
855
451
462
839
895
792
620
519
521
549
555
602
493
682
763
683
799
487
802
877
858
502
431
461
806
852
793
426
630
423
489
439
514
353
377
553
401
526
268
-105
275
194
183
-6
114
-87
279
-20
33
-140
-159
-372
-165
-552
-607
-253
-370
-335
-148
-209
-201
-182
-216
-534
-555
-532
-530
-583
-637
-611
-520
-201
-236
-588
-390
-611
-532
-249
-577
-445
-772
-493
-443
-465
-821
-645
-883
-795
-473
-460
-430
-584
-200
-157
-222
-571
-605
-562
-240
-197
-181
-191
-246
-588
-390
-607
-237
-144
-160
-522
-612
-589
-211
-361
-362
-186
-232
-198
-149
-173
-513
-537
-182
-291
26
-283
-338
-305
31
57
19
-268
10
38
4
-324
-339
-265
74
70
-257
-285
49
-105
-115
4
-378
-355
33
83
-310
-526
-613
-244
-321
11
-291
-343
-319
-259
17
2
8
48
77
71
65
96
-121
125
55
-280
-315
-313
-308
-307
-291
-270
-257
5
38
106
-87
-71
-109
87
43
26
26
42
78
-119
-43
283
327
337
330
338
361
372
356
334
330
329
295
-14
-16
338
218
537
235
172
212
599
440
414
557
207
176
162
383
355
128
192
213
170
383
150
203
187
319
-87
103
122
126
52
-302
-320
-257
35
-296
-177
-248
-210
-138
-383
-172
-182
-364
-266
44
60
66
54
-274
-131
-197
-165
-345
-327
-379
-141
-325
0
-306
-185
-241
-136
5
23
-310
-276
-3
408
747
959
1158
1654
1825
1806
1426
1425
1885
2089
1748
1589
1105
807
430
521
-111
-395
-903
-1225
-1600
-1591
-1279
-1210
-1381
-987
-1032
-799
-635
-595
-635
-394
-595
-516
-234
-528
-573
-561
-224
-381
-318
-312
-339
-342
-281
91
-52
-4
-24
-66
-71
-31
278
303
285
-34
122
38
34
118
-43
-33
-123
51
86
-16
150
241
543
602
412
416
585
231
220
528
548
251
236
581
458
493
389
534
547
384
392
512
364
366
516
408
449
439
480
826
881
856
784
461
401
596
558
555
552
251
196
216
592
462
473
622
514
255
598
432
474
466
434
394
622
628
408
421
615
234
374
340
139
213
208
341
-93
45
48
-122
-55
-73
96
5
-302
-322
-343
-369
-129
-145
-197
-560
-414
-438
-593
-180
-343
-375
-214
-529
-528
-536
-611
-466
-778
-481
-395
-598
-595
-584
-517
-166
-373
-145
-207
-240
-238
-254
-573
-623
-557
-357
97
114
-359
-637
-467
-545
-299
-257
-220
-472
-487
-236
57
-100
59
-309
-299
39
61
-275
-137
-213
-238
-231
-198
-140
-336
-303
-280
33
-120
-34
-39
117
5
-280
53
-89
-58
95
-320
-139
-314
88
-125
9
-175
-525
-224
-372
-291
-268
-294
-345
-132
-368
-282
62
66
-280
-365
-347
16
103
92
9
-306
-275
65
98
30
-346
-152
-357
5
52
-259
-344
-359
-299
14
3
-301
-310
-258
52
40
-292
-369
-380
-318
20
47
10
-310
-349
-332
-273
54
103
102
50
10
62
-58
290
-38
15
-147
-142
-290
13
-320
-164
-171
-337
24
74
73
46
1
-297
-296
15
71
64
18
8
74
-102
-113
42
-301
-296
30
73
48
-257
2
57
97
72
20
4
40
73
40
-284
-290
81
259
129
163
151
152
150
353
280
286
142
250
200
-2
83
104
272
146
139
332
350
209
583
392
446
777
809
465
562
215
244
540
212
306
-59
-44
303
141
240
614
436
401
554
530
636
461
575
-17
-300
-338
48
100
-300
-513
-590
-219
-305
13
-310
-129
-360
17
127
-121
47
-304
-350
-132
-219
-591
-393
-611
-537
-255
-513
-194
-308
81
-122
-92
-6
332
258
-257
-252
-522
-292
-33
330
330
159
422
1049
1153
1434
1858
1894
1845
1827
1664
1788
1769
1519
1397
1052
499
142
-317
-778
-1136
-1401
-1643
-1824
-1810
-1568
-1009
-1103
-1083
-761
-786
-516
-173
-588
-819
-652
-807
-616
-208
-131
-359
-359
-378
-133
-366
-314
-268
-260
-287
-307
-286
37
127
-51
-10
-8
-20
-11
285
344
134
149
130
346
325
356
172
215
166
294
-64
-34
366
233
209
333
-2
333
244
588
527
169
180
578
463
481
391
557
536
553
557
545
535
531
513
250
563
452
867
670
857
502
485
807
840
501
616
550
597
410
387
541
222
543
439
793
487
593
224
244
625
479
471
602
215
181
514
611
620
513
359
256
-14
284
304
-4
-112
45
9
31
64
72
53
22
-269
-309
-336
-322
-283
-274
-329
-181
-543
-621
-430
-482
-479
-394
-536
-242
-569
-396
-609
-175
-283
-321
-516
-424
-417
-562
-524
-612
-439
-402
-545
-515
-616
-467
-443
-571
-233
-518
-562
-242
-343
22
11
-326
-370
-352
-323
-316
-297
2
18
-302
-148
-163
-295
97
83
-342
-236
-201
-283
76
-273
-207
-550
-213
-328
-268
-309
-366
-366
-312
11
72
121
-111
127
65
-261
-298
-291
-262
16
28
44
64
79
81
78
100
-112
-98
101
-280
-148
-184
-367
5
77
55
-305
-170
-233
-201
-365
-305
-341
-198
-543
-256
-368
46
120
95
38
7
-268
-319
-152
-223
-218
-142
-306
16
58
100
-128
113
67
40
57
83
47
-318
-149
-374
22
-98
-78
84
-272
-281
53
-124
-121
58
-293
-339
-322
-292
-307
-132
-222
-239
-160
-286
70
98
66
28
28
71
108
76
-288
-136
-145
-321
-257
-290
-382
-157
-337
38
105
103
88
112
-79
-2
303
278
-91
23
-316
-305
-277
-326
-178
-223
-377
76
-23
271
-30
-60
-16
342
169
154
288
-123
52
65
96
55
-303
-367
-323
46
126
123
97
-123
-7
362
376
284
-88
113
113
112
78
48
70
-120
-52
-4
293
335
349
326
305
326
370
382
330
258
-26
-2
294
327
358
131
166
211
536
622
413
384
579
571
627
399
574
172
366
200
590
615
251
150
195
624
774
779
405
540
235
224
170
302
-95
66
27
3
-305
-136
-222
-514
-211
-356
4
19
-332
-201
-245
-183
-374
-166
-579
-454
-436
-551
-157
-373
-171
-243
-523
-213
-339
65
121
22
-155
-238
-130
58
-127
0
-203
-550
-197
34
296
530
479
690
952
1249
1493
1852
1841
1844
1686
2053
1753
1514
1215
1001
1088
791
290
-551
-1039
-1362
-1573
-1470
-1806
-1519
-1637
-1171
-920
-670
-470
-611
-561
-519
-198
-140
-366
-338
-293
6
12
-278
-308
-311
-314
-347
-136
-155
-137
-347
-264
127
275
347
297
-56
-64
298
144
363
-42
113
-80
332
167
383
297
286
370
213
515
250
221
171
346
283
308
162
526
559
541
555
632
449
459
430
426
458
462
411
623
421
820
685
696
868
784
508
799
824
807
508
475
473
494
511
771
505
483
448
415
422
475
786
781
455
391
406
482
785
492
424
406
434
416
553
145
336
130
199
166
261
78
-261
45
-104
-45
-83
72
-265
-275
23
54
36
-271
-318
-334
-318
-273
36
56
-262
-135
-242
-247
-186
-193
-588
-501
-793
-399
-232
-184
-244
-534
-225
-164
-205
-566
-608
-528
-163
-152
-256
-623
-389
-584
-518
-245
-529
-582
-628
-635
-587
-240
-165
-157
-212
-514
-224
-383
-321
-383
-518
-570
-196
-264
50
-347
-528
-545
-140
-269
-326
-238
-575
-231
-339
-280
-333
-139
-378
-295
41
78
71
40
3
-279
-285
-275
-272
-280
-288
-298
-319
-351
-353
-284
98
-69
-114
-282
-168
-147
15
-105
-126
7
-325
-292
18
22
25
104
-57
-101
-305
-218
-169
17
88
-327
-551
-615
-515
-174
-198
-226
-129
45
-123
73
-264
15
100
105
-278
-170
-210
-149
-331
-298
-270
66
-75
-14
-76
27
-357
-354
21
124
76
-143
-385
-444
-249
39
-80
60
-165
-250
-348
-81
328
267
81
-310
-286
109
-13
273
-71
62
14
85
-43
274
-44
85
5
34
-115
-10
292
264
-69
118
108
-102
-58
-81
79
-275
-293
19
76
87
72
82
122
-113
97
6
-298
18
-93
287
310
-10
-79
-105
-113
117
89
86
96
86
66
108
-12
381
380
-29
72
79
-31
326
-8
48
-365
-380
-289
60
81
30
-311
-371
-348
28
-72
264
-49
64
-293
-270
97
-71
-81
100
53
93
-56
307
372
376
314
-51
127
-100
260
310
-49
14
-353
-304
72
-119
-116
-98
-53
-67
73
-285
25
-72
-18
80
-145
-207
-319
116
-73
-93
-87
-19
301
325
328
323
291
-20
-30
297
380
370
293
295
185
621
440
434
483
861
641
461
192
340
199
581
237
-17
77
-97
369
240
216
130
317
-23
87
-340
-188
-189
-151
-150
-195
-230
-214
-165
-382
-380
-145
-160
-166
-176
-183
-165
-383
-355
-359
-373
-354
-318
-347
-230
-400
-457
-624
-254
-244
-582
-600
-228
-326
-260
-290
-305
11
90
122
-88
351
426
1028
1004
1397
1556
1796
2052
1959
1991
1924
2060
1911
1496
1563
1282
846
271
-587
-1081
-1407
-1587
-1411
-1419
-1635
-1577
-1229
-1304
-761
-462
-550
-567
-420
-471
-412
-543
-148
-272
92
120
49
-299
-294
88
-39
-33
110
12
57
-26
142
195
379
267
-62
-79
-57
-19
274
279
-18
-70
-70
262
360
162
195
527
406
509
474
593
251
556
390
620
202
287
-9
352
514
386
451
452
422
416
480
822
827
471
635
426
829
888
499
550
234
626
800
840
486
387
393
496
878
720
761
719
855
457
635
639
405
627
540
213
217
537
604
625
602
560
255
187
366
317
308
297
-39
84
11
90
258
328
-67
-320
-208
-130
52
127
12
-181
-553
-551
-245
-219
-232
-518
-544
-550
-535
-516
-529
-585
-393
-422
-426
-452
-507
-784
-453
-580
-256
-553
-614
-575
-182
-339
-136
-547
-403
-402
-598
-588
-391
-436
-398
-562
-237
-230
-237
-206
-152
-383
-152
-191
-196
-180
-214
-575
-414
-390
-248
-378
-133
-245
-563
-220
-307
43
-270
-136
-193
-149
-336
-318
-336
-325
-271
23
9
-277
-263
45
79
66
65
121
-70
-92
55
-270
47
-98
-92
61
19
-99
375
196
306
82
-288
2
68
65
-283
-168
-566
-628
-529
-293
-83
-59
54
-314
5
-69
314
293
-60
-125
119
110
88
86
125
-77
-65
-112
72
34
63
-107
-25
-24
-119
34
32
-128
-56
-121
-293
-143
-332
74
110
-303
-255
-565
-158
45
-122
101
71
-128
-40
-22
-93
71
25
14
3
-262
10
55
83
61
20
36
-124
-24
-23
124
3
-270
75
-92
-86
-115
-97
-30
-22
104
-327
-369
25
-84
-120
-322
-211
-379
116
265
-58
16
-342
-306
28
52
42
58
93
88
29
-269
21
82
76
-274
-375
-140
-344
-286
-261
3
17
38
61
103
-74
262
268
-81
35
-329
-363
-344
-317
-308
-314
-318
-301
-263
29
36
24
31
66
78
12
-355
-141
-301
119
-37
-43
-69
-19
332
353
261
-95
-88
260
303
-35
103
101
-11
152
185
326
-69
-90
286
179
225
141
290
290
159
559
601
532
185
144
142
128
363
369
157
203
210
203
232
570
403
430
607
195
295
-51
-69
-100
38
-135
-234
-165
-270
47
-295
-382
-300
-101
-10
114
-344
-145
-309
-285
-211
-469
-822
-454
-565
-546
-612
-617
-516
-135
-306
13
94
-104
117
21
-279
52
-65
281
298
320
186
418
687
946
1197
1426
1841
1901
1664
1763
1948
2045
2137
1511
1183
1289
1121
619
-215
-984
-1581
-1569
-1606
-1899
-1951
-2160
-1461
-960
-721
-712
-685
-507
-539
-186
-240
-594
-635
-594
-232
-341
46
86
28
-290
4
-117
-10
-15
-77
-78
270
367
366
263
-116
88
-106
302
197
236
135
258
-17
362
252
554
519
241
521
527
234
221
548
634
596
158
-21
-53
304
166
231
536
602
394
634
590
596
412
480
477
415
616
601
620
412
499
853
879
777
610
526
606
509
832
497
390
393
492
794
443
537
208
528
632
401
609
580
623
438
453
385
539
202
133
305
-44
-109
123
116
104
105
-104
-37
-27
-95
91
104
-80
-83
25
-163
-223
-130
-302
-384
-580
-448
-410
-555
-243
-256
-528
-535
-577
-398
-437
-391
-570
-546
-584
-622
-636
-412
-474
-511
-488
-460
-506
-870
-682
-894
-780
-419
-606
-550
-242
-219
-214
-186
-136
-137
-228
-596
-610
-246
-133
-380
-190
-214
-154
-339
-325
-363
-145
-161
-183
-211
-196
-366
1
58
46
38
105
-43
-4
-103
-279
-141
-140
-341
-340
-168
-256
-241
-359
70
-90
-115
38
-306
-311
26
-113
-32
-48
92
-310
-379
-317
70
-111
112
41
32
100
-85
-68
-82
-71
-36
-32
-102
45
-286
-285
18
57
56
35
40
87
-104
-88
84
-323
-185
-186
-351
-276
-288
-343
-344
-259
93
119
98
115
-80
-63
96
-313
-132
-334
12
26
-301
-369
-368
-316
-269
15
31
38
30
27
63
127
-94
-120
85
49
23
-270
-288
14
93
101
-267
-382
-339
123
304
275
71
-345
-315
95
-59
-113
-271
-155
-213
-190
-375
-300
-275
-317
-384
-139
-313
47
74
19
-284
3
68
58
-300
-381
-324
110
273
328
301
273
259
-46
108
2
-303
-303
-297
-295
0
87
-75
-19
268
327
159
199
145
297
-31
-32
263
311
383
249
387
485
777
510
463
622
226
347
260
-46
-113
64
70
-42
169
558
543
196
150
171
181
364
-24
114
41
-270
-334
-371
-342
-274
18
-284
-134
-220
-219
-143
-319
-303
-354
-146
-372
-259
103
104
4
-348
-354
-292
-261
-327
-167
-186
-374
-315
-346
-170
-186
-352
39
122
-100
-32
370
563
496
715
1293
1425
1722
2064
1746
1729
2103
1957
2087
1663
1110
630
267
-343
-783
-1014
-1423
-1674
-1768
-1752
-1920
-1527
-1604
-1378
-1112
-848
-391
-525
-175
-322
36
62
3
-309
-272
93
-103
89
-298
-372
-334
18
99
-111
-72
-13
315
380
180
220
237
224
175
370
329
335
381
165
161
377
362
156
234
525
246
234
536
601
613
553
223
183
155
356
288
277
348
194
523
554
575
600
615
631
417
479
508
457
617
573
627
470
780
503
463
467
780
846
871
849
796
475
414
632
622
620
593
541
521
581
448
809
819
486
394
591
563
552
559
575
557
222
129
378
219
562
228
-22
-279
-373
-305
20
-288
-158
-204
-360
40
74
-287
-158
-195
-149
-132
-191
-250
-223
-376
-308
-355
-212
-538
-522
-226
-255
-633
-786
-889
-653
-854
-776
-472
-470
-500
-774
-494
-435
-636
-628
-407
-442
-428
-614
-537
-516
-558
-607
-599
-547
-533
-607
-476
-810
-783
-417
-543
-190
-137
-368
-355
-339
-320
-310
-321
-339
-326
-280
23
30
-266
-304
-302
-281
-298
-384
-238
-549
-252
-382
17
110
-126
96
56
48
63
50
-292
-162
-232
-164
6
-112
-109
41
-307
-303
17
48
18
-259
33
97
126
126
-104
-31
281
-8
-113
61
70
-124
-87
-97
-121
-115
-84
-71
-102
92
20
-296
-318
-292
21
64
50
-263
-308
-282
70
-84
-41
-60
-96
-102
-101
116
30
-300
-312
-288
-302
-368
-156
-354
37
-115
-115
74
23
18
8
-305
-374
-382
-322
-260
-260
-316
-360
-348
-305
-278
-282
-293
-284
4
47
94
-119
-78
-37
266
316
337
290
-70
95
105
-34
343
357
-1
-105
-95
285
179
524
546
531
242
197
161
142
371
302
-57
120
120
-70
-6
274
279
316
147
235
253
160
-19
64
-270
12
45
-284
-189
-560
-256
-336
35
-296
-231
-596
-256
-329
19
-313
-193
-240
-168
-325
-280
-286
-314
-369
-222
-585
-581
-192
-319
-358
-551
-445
-640
-150
63
-119
-117
-15
535
702
1364
1635
1480
1466
1424
1414
1420
1636
1239
996
705
420
173
-40
-257
-540
-667
-1342
-1655
-1505
-1442
-1599
-1547
-1239
-1328
-1038
-487
-544
-179
-344
7
59
31
-288
-315
-291
13
61
104
-106
-75
-73
-76
-64
-45
-42
-46
-38
-12
272
302
358
178
223
204
171
206
568
631
550
373
-9
270
128
190
146
334
344
191
557
582
527
233
549
419
507
482
388
597
392
461
432
564
221
533
434
794
498
385
611
463
864
893
776
637
621
486
871
884
795
465
484
793
772
395
520
229
560
407
447
405
590
558
583
617
593
246
148
372
146
161
134
369
163
252
539
218
383
341
311
-50
44
-298
27
-104
-91
42
-327
-309
41
53
-325
-228
-562
-565
-568
-602
-608
-532
-158
-352
-383
-201
-513
-536
-578
-411
-499
-783
-487
-444
-453
-481
-462
-640
-565
-547
-565
-567
-569
-391
-802
-650
-837
-397
-556
-405
-838
-857
-408
-182
-357
-164
-227
-194
-366
-304
-284
-294
-346
-185
-520
-237
-375
-302
-365
-240
-540
-191
-344
-357
-195
-233
-160
-321
-323
-144
-180
-370
-271
9
-317
-147
-156
-301
-116
296
329
-24
107
73
-116
-56
-110
2
-366
-369
-298
31
79
-128
-66
-19
-4
-7
-20
-46
-98
96
53
38
49
91
-89
-7
275
-34
-110
112
-125
-108
122
78
58
59
35
-278
-320
-305
10
49
32
-265
-269
41
109
-109
-102
-101
-97
-112
104
74
81
114
-127
113
105
-121
-74
-67
-110
121
-74
297
355
294
-75
-101
270
185
524
209
338
270
315
160
225
218
180
170
192
212
213
207
195
150
324
274
341
242
583
217
257
-107
-12
141
146
-28
46
-267
15
4
-329
-139
-143
-132
-160
-192
-168
-355
-312
-332
-371
-130
-381
-379
-369
-323
-268
-266
-325
-374
-359
-310
-300
-357
-185
-253
-564
-610
-606
-250
-353
-265
-303
-373
-299
-18
602
869
732
1072
980
1192
1565
1269
1174
1172
1253
1241
986
809
170
-11
-81
-270
-424
-915
-1252
-1599
-1568
-1572
-1601
-1268
-1017
-700
-502
-485
-780
-465
-561
-178
-180
-255
-524
-172
-305
14
18
11
2
-299
-139
-217
-197
-337
44
104
125
-72
311
190
251
212
382
333
362
177
217
186
129
383
202
552
598
592
589
624
397
628
566
527
546
599
637
630
581
243
175
200
603
784
863
797
449
480
887
736
657
444
552
596
498
835
499
622
612
776
713
748
855
427
401
774
872
832
451
399
498
668
1024
735
870
494
440
446
446
635
517
200
538
445
784
457
599
598
441
447
233
-79
16
85
-39
-31
-128
91
-85
-18
-104
-289
-140
-360
-308
-133
-579
-444
-640
-204
-301
17
-258
-326
-171
-519
-555
-545
-588
-487
-664
-702
-804
-605
-551
-396
-493
-454
-572
-220
-241
-580
-634
-618
-557
-244
-237
-556
-392
-434
-388
-567
-551
-602
-627
-554
-172
-367
-154
-228
-249
-222
-221
-524
-575
-577
-540
-514
-513
-249
-205
-132
-330
-319
-351
-151
-194
-211
-212
-207
-194
-157
-343
-271
22
19
10
28
64
78
38
-295
-361
-137
-145
-144
-375
-298
71
-97
-104
75
28
70
-121
107
-279
-383
-357
-273
-287
-177
-554
-249
-345
-274
-367
-217
-166
3
112
80
18
55
-99
-78
73
-297
-312
-268
-273
-333
-350
-277
70
90
46
21
35
28
-279
-293
47
-90
-68
83
0
88
310
224
205
313
-60
-54
280
340
349
330
309
294
292
331
176
561
384
609
233
383
370
176
219
171
325
272
327
185
515
250
199
166
166
176
177
165
150
379
310
-51
99
37
24
24
-268
-367
-247
-624
-417
-609
-188
-269
50
-312
-238
-573
-192
45
-66
123
-336
-236
-243
-157
-352
-367
-166
-212
-229
-219
-177
-347
17
94
121
-100
273
231
477
679
1080
984
1200
1662
1479
1656
1558
1590
1485
1816
1628
945
508
248
373
-117
-604
-984
-1505
-1732
-1715
-1879
-1810
-1468
-1549
-1299
-1069
-656
-798
-421
-569
-546
-605
-395
-590
-188
-316
1
31
82
126
93
-274
-373
-368
-266
93
123
89
42
45
-126
265
358
336
-15
-41
352
548
602
177
-53
-128
-21
343
307
-61
-63
348
514
534
182
131
198
540
242
318
-112
122
264
186
537
536
523
567
399
460
459
434
442
475
476
425
386
421
508
814
792
500
771
825
846
796
470
441
460
473
431
579
190
374
174
605
787
853
782
407
593
558
236
138
340
352
364
299
-54
-55
329
204
205
362
301
331
343
-18
86
47
-102
-1
-52
39
-330
-301
53
88
22
-343
-186
-241
-247
-225
-238
-597
-477
-505
-625
-195
-171
-558
-396
-565
-150
-154
-635
-869
-880
-435
-527
-532
-630
-395
-555
-201
-203
-549
-393
-452
-479
-493
-483
-429
-577
-176
-283
81
118
106
96
106
86
-281
-213
-638
-457
-450
-438
-451
-437
-583
-379
79
-80
-112
63
29
67
-127
-123
53
-326
-175
-212
-178
-349
1
50
33
-263
4
89
-75
-47
-76
-93
-69
-58
-121
17
-337
-377
-144
-196
-255
-517
-198
-360
-279
30
44
12
-303
-318
2
75
43
-354
-187
-332
-93
307
-37
5
-380
-371
-365
-218
-606
-596
-195
-346
-132
-197
-357
-116
304
-10
81
30
116
-98
24
-176
-231
-358
30
-257
-160
-539
-531
-181
-338
3
94
-83
-48
-34
264
342
375
279
97
-279
29
-62
295
-18
104
71
-46
153
231
128
-27
-66
314
249
626
628
556
222
176
166
169
160
128
336
282
-14
-29
-12
272
264
-62
100
47
59
86
45
-322
-165
-178
-354
-258
33
-273
-371
-188
-183
-357
-262
29
-261
-294
-264
56
66
-285
-175
-522
-519
-233
-256
-583
-620
-564
-181
-324
-282
-282
-267
35
92
-113
-53
311
225
436
671
925
1182
1629
1429
1630
1582
1641
1497
1489
1246
1141
891
839
814
560
41
-512
-1117
-1013
-1399
-1584
-1440
-1600
-1378
-992
-1007
-990
-1038
-476
-569
-633
-476
-632
-354
124
-115
57
64
-65
280
-51
30
-319
5
-120
-78
117
78
-80
381
547
558
190
339
315
353
146
177
206
229
221
190
174
208
542
638
488
834
840
442
208
311
342
205
212
304
120
98
-6
171
247
254
538
601
621
562
246
547
444
850
891
843
813
862
696
736
686
854
786
491
446
632
574
587
411
495
785
501
452
431
438
439
401
579
517
535
393
789
833
457
251
372
129
203
174
-10
43
-264
103
-37
-49
110
60
100
-109
118
50
26
40
20
-314
-357
-297
44
21
-372
-243
-532
-532
-600
-449
-479
-414
-635
-466
-851
-851
-453
-597
-638
-491
-490
-620
-536
-597
-445
-437
-591
-556
-391
-479
-412
-224
-352
-377
-209
-231
-187
-177
-246
-579
-580
-517
-215
-204
-177
-346
33
116
112
48
-276
-319
-357
-161
-241
-565
-584
-539
-190
-338
7
61
67
15
-332
-145
-384
-285
60
49
-317
-152
-372
27
-105
-101
71
10
37
108
-117
107
77
110
-64
-13
-60
71
-298
-302
87
267
338
-23
50
-286
54
-99
85
-163
-633
-618
-169
-290
-339
-192
-153
51
-32
-54
53
-269
97
256
291
-79
45
14
61
87
48
-280
-330
-345
-330
-271
107
-14
309
291
-2
265
295
-17
75
-334
-352
-258
50
-272
-359
-336
33
79
-273
-150
-167
-314
36
11
-333
-348
22
-69
287
284
-27
-57
-22
316
128
132
329
-6
-50
-43
-23
-26
-50
-54
257
369
221
250
184
382
187
620
492
417
185
258
259
368
159
367
354
182
232
354
97
-289
74
-33
-120
-195
-488
-495
-530
-355
-377
-239
-526
-170
-309
-280
-333
-137
-165
-184
-211
-221
-203
-177
-192
-245
-532
-230
-144
-375
-204
-577
-595
-236
-133
-148
-253
-546
-156
85
296
166
544
779
898
1575
1896
1749
1670
1819
1858
1788
2171
1770
1625
958
744
669
471
-14
-412
-960
-1245
-1589
-1647
-1485
-1526
-1664
-1392
-1081
-838
-433
-605
-547
-513
-517
-556
-601
-595
-249
-358
25
79
104
-66
343
184
375
-43
-110
265
169
148
-74
-288
-285
-94
341
369
306
285
344
171
228
527
576
605
573
244
206
239
572
384
415
416
404
630
580
540
546
598
401
432
439
444
447
438
432
458
508
784
486
422
427
777
893
694
692
685
689
670
877
844
862
886
830
444
616
419
813
859
483
568
535
426
844
853
473
637
413
467
639
171
268
303
180
188
-13
3
-311
90
256
267
-114
35
44
119
-106
95
15
-282
-282
-284
-330
-163
-519
-587
-614
-618
-612
-582
-525
-211
-211
-554
-415
-471
-446
-409
-447
-803
-864
-810
-424
-567
-528
-535
-546
-564
-613
-432
-496
-774
-504
-476
-440
-404
-633
-608
-563
-222
-147
-155
-248
-582
-559
-219
-197
-528
-594
-544
-151
-334
-153
-551
-620
-585
-522
-234
-211
-147
-313
-258
-260
-278
-271
8
10
-291
-366
-179
-209
-193
-155
-371
-334
-274
66
114
68
-303
-370
-296
-120
257
-35
92
27
96
-37
-6
-118
-281
-358
-295
85
-97
-120
62
32
88
-67
264
267
-52
115
44
22
66
-103
-21
-3
-62
100
30
11
33
61
52
-267
-360
-165
-135
-280
93
-113
116
65
40
43
56
69
88
101
72
9
-277
49
-59
304
270
-125
31
74
-52
260
-99
-269
-334
27
-66
-3
-61
-119
-81
277
331
294
-10
279
128
231
535
528
241
203
183
208
513
242
354
-112
28
94
258
350
313
256
317
249
447
803
789
460
639
596
598
612
562
136
-116
-316
-364
-293
28
-260
-368
-203
-211
-135
-282
48
38
-294
-372
-135
-367
-377
-203
-569
-625
-608
-586
-588
-575
-513
-181
-158
-191
-204
-157
-362
-134
-218
-513
-211
-169
-220
-592
-386
-549
-380
9
98
-9
531
645
998
1260
1417
1483
1501
1809
1697
2141
1956
1789
1437
1324
1040
506
351
-204
-1036
-1258
-1871
-2127
-1993
-2169
-1893
-1541
-1008
-1095
-694
-503
-561
-210
-518
-632
-420
-614
-521
-219
-210
-175
-353
-295
-323
-148
-181
-368
14
112
-109
-102
-87
-45
279
349
129
358
287
-21
256
342
183
252
539
540
525
250
513
559
609
613
568
514
251
551
619
443
795
886
665
869
511
464
785
883
879
467
526
203
565
440
436
570
519
411
660
763
871
636
563
452
884
882
466
618
462
705
1145
1142
753
883
834
828
795
456
610
534
244
518
579
398
456
461
414
588
225
364
277
265
315
342
263
106
20
115
304
373
-35
-294
-192
-171
-354
-368
-224
-592
-630
-597
-534
-222
-201
-215
-211
-140
-302
-305
-202
-638
-419
-568
-246
-609
-790
-829
-405
-187
-368
-199
-580
-639
-630
-611
-618
-405
-465
-501
-466
-623
-538
-526
-546
-256
-170
-142
-515
-437
-499
-618
-154
-332
-177
-576
-585
-180
-281
-274
-153
-532
-528
-175
-366
-140
-197
-168
-299
63
39
-359
-229
-227
-384
-321
-383
-245
-524
-132
58
-116
70
-285
-279
90
-71
-86
79
9
-262
-272
-322
-131
-156
-130
-360
-374
-148
-142
-348
-302
-291
-282
15
58
27
-345
-196
-186
-331
9
-291
-147
-183
-352
13
36
-271
-301
-273
-261
-333
-184
-206
-371
-257
25
-291
-328
-272
82
104
17
-351
-376
-293
74
115
61
-275
-287
54
-77
-4
-26
-100
119
-90
-4
276
-68
53
4
95
256
349
315
-39
-71
282
190
561
562
221
135
367
162
250
583
616
602
568
547
550
566
590
622
394
386
575
233
200
248
560
531
155
295
-10
-35
-121
-264
-370
-366
-297
-264
-304
-381
-177
-181
-154
-370
-337
-336
-376
-148
-351
12
68
-259
-144
-215
-144
-272
17
-350
-248
-553
-190
-278
64
-260
-168
-545
-523
-379
26
69
-258
-333
-273
-20
615
737
1292
1258
1433
1830
1694
2077
1971
2336
2024
1739
1577
928
864
253
6
-856
-1402
-1523
-1749
-2137
-2156
-1756
-1490
-1232
-1317
-923
-729
-480
-516
-129
-330
-319
-351
-170
-234
-218
-380
-301
-301
-354
-380
-350
-303
-269
28
92
-97
-71
-110
76
28
34
88
-81
267
326
337
318
314
347
132
132
328
-5
-34
274
131
248
571
585
594
385
451
466
398
557
536
624
464
452
596
529
632
810
841
639
138
374
603
808
479
221
371
586
656
763
853
426
490
697
1027
872
430
434
840
657
786
578
239
562
634
594
232
193
250
580
598
596
387
461
474
636
514
228
545
573
209
265
110
66
69
19
-357
-221
-521
-228
-139
-277
93
-97
-105
101
52
12
-298
-373
-178
-205
-228
-533
-598
-626
-606
-580
-589
-620
-635
-616
-571
-255
-197
-180
-242
-619
-455
-456
-431
-500
-666
-1034
-688
-438
-219
-151
-161
-360
25
68
-347
-591
-433
-563
-384
-366
-529
-427
-402
-215
-278
63
34
-306
-137
-191
-168
-322
50
97
60
0
-285
-291
-310
-334
-341
-348
-130
-183
-203
-172
-135
-379
-360
-293
38
24
-357
-216
-187
-294
79
65
-271
-289
45
-127
-114
100
60
30
-275
-340
-129
-136
-131
-132
-367
-290
71
123
88
20
-260
11
0
-323
-137
-136
-323
-271
-296
-370
-148
-351
-262
31
-264
-329
-360
-350
-349
-133
-187
-214
-205
-180
-151
-368
-316
-275
-263
-260
22
77
-113
-68
-54
-68
-101
-127
-101
-11
354
143
336
-42
126
-125
-40
313
364
360
348
130
232
608
409
626
548
238
216
184
375
309
284
282
258
-43
-67
-58
-75
75
-342
-208
-241
-233
-514
-600
-452
-505
-448
-537
-340
27
-259
-368
-177
-149
-344
-329
-357
-383
-168
-541
-441
-490
-590
-354
-283
-179
-594
-519
12
-50
127
-367
-236
-131
54
-127
117
-61
217
864
951
1186
1615
1534
1717
2137
2007
2046
1923
1884
1278
1020
1096
805
-11
-495
-1399
-1511
-1905
-1710
-1763
-1758
-1904
-1465
-1249
-996
-682
-615
-143
-371
-220
-553
-218
-257
-60
-43
53
-370
-354
94
-11
-82
-301
-158
-263
298
235
186
263
-92
-34
336
361
277
-56
-15
129
255
517
180
136
193
548
585
533
215
233
579
411
445
430
396
606
549
250
255
557
587
547
211
191
549
461
822
783
403
589
635
463
472
399
605
400
504
803
779
790
894
763
1039
666
786
502
829
889
838
417
230
136
197
606
454
405
512
175
512
398
409
225
-2
-76
278
132
364
-23
-118
-96
-11
284
-23
-100
118
104
43
-338
-194
-200
-352
-262
-310
-224
-628
-639
-540
-207
-252
-638
-475
-445
-588
-247
-518
-596
-636
-588
-253
-241
-569
-640
-387
-628
-427
-815
-657
-642
-837
-855
-724
-1081
-1027
-831
-638
-553
-551
-554
-529
-255
-531
-566
-579
-558
-523
-229
-201
-176
-140
-319
55
-111
119
-279
-179
-235
-194
-158
-193
-233
-180
-306
29
-269
-334
-272
-103
-6
-106
-303
-133
-300
71
47
-334
-138
-318
28
-272
-177
-544
-236
-341
9
-293
-148
-189
-359
51
-99
-114
55
5
62
-77
-26
-107
4
-325
-273
92
-114
94
15
-288
-293
-292
-306
-335
-368
-134
-370
-299
39
72
63
94
-36
365
382
-36
1
-355
-304
21
-281
-165
-514
-196
5
-18
383
383
267
-112
112
-91
-63
105
-310
-157
-374
9
122
-81
-68
-72
-72
-41
286
347
321
-25
-50
337
513
542
156
342
244
502
818
592
326
289
181
235
310
71
41
-30
383
320
105
-313
-332
-305
-347
-202
-545
-550
-250
-213
-183
-375
-281
34
-260
-378
-236
-545
-569
-623
-445
-467
-385
-514
-197
-241
-570
-580
-514
-196
-198
-239
-254
-208
-383
-307
-257
34
78
-116
-46
287
151
608
643
985
1544
1465
1501
1496
1839
1781
1941
2131
1831
1244
1324
965
656
-4
-822
-1191
-1477
-1856
-1776
-2001
-2337
-2165
-1839
-1274
-1281
-760
-456
-207
-379
-183
-246
-196
-307
67
75
-257
-327
-318
20
88
70
-265
-313
-263
126
-8
275
-44
-100
-66
298
129
381
319
303
132
531
635
386
581
521
250
514
247
205
170
181
217
201
358
276
356
614
873
665
493
574
610
821
718
648
429
539
593
781
685
729
683
874
828
808
805
805
785
487
446
428
442
471
507
808
860
892
873
797
466
444
471
496
488
479
773
828
814
442
560
527
603
400
581
173
354
162
252
210
285
-119
-74
137
576
548
313
41
-353
-332
-266
-284
-167
-614
-495
-776
-432
-538
-140
-342
-167
-584
-450
-444
-595
-515
-568
-465
-853
-862
-782
-468
-501
-843
-884
-841
-771
-499
-802
-831
-777
-406
-577
-569
-607
-639
-398
-416
-427
-405
-600
-536
-245
-237
-234
-233
-252
-548
-588
-602
-573
-253
-203
-221
-582
-450
-478
-627
-238
-219
-574
-389
-570
-152
-321
-363
-174
-141
-297
0
-326
-147
-366
17
100
47
-342
-173
-178
-161
-197
-525
-552
-229
-379
-330
-345
-340
8
-114
-59
117
-275
-359
-365
-335
-308
-290
-286
-311
-340
-306
59
-102
-121
41
17
-120
291
313
-75
26
-295
-306
-360
-197
-241
-187
-334
21
95
-105
-83
-96
-92
-25
305
263
81
-360
-133
-270
99
118
113
-73
304
368
334
281
282
304
276
-38
-36
306
383
362
275
-12
338
242
610
626
578
516
217
216
512
551
529
187
361
331
326
269
-117
16
-280
-261
-278
-370
-217
-248
-201
-148
-140
-161
-150
-354
-294
-262
-274
-306
-333
-337
-323
-321
-353
-133
-380
-323
-282
-298
-341
-348
-304
-272
-293
-338
-346
-307
-276
-282
-304
-288
50
-44
209
798
1151
1170
1564
1583
1588
1419
1853
1754
1723
1445
1306
762
664
834
245
-375
-1034
-1187
-1552
-1558
-1646
-1529
-1800
-1616
-1314
-1031
-821
-400
-523
-190
-188
-216
-197
-367
-277
-257
-299
-334
-321
-309
-359
-198
-237
-147
13
124
-119
120
-99
-10
310
302
264
258
289
299
274
277
373
514
565
194
261
-81
-5
362
350
-35
-97
309
594
773
442
216
336
149
564
594
161
-76
100
-3
512
431
441
622
595
405
506
808
770
435
637
635
410
433
422
386
613
617
395
428
426
633
579
576
394
507
836
814
470
403
403
422
639
533
190
203
546
595
536
173
383
161
190
143
322
317
146
205
378
-75
13
-279
36
62
-262
-379
-213
-238
-220
-194
-179
-171
-160
-147
-153
-208
-564
-391
-640
-552
-223
-247
-602
-408
-625
-532
-221
-229
-243
-223
-202
-227
-534
-547
-235
-168
-166
-234
-568
-611
-627
-637
-631
-585
-535
-551
-388
-465
-415
-514
-146
-197
-598
-403
-555
-140
-346
-169
-245
-198
-309
69
90
36
-279
-306
-309
-306
-307
-309
-297
-263
32
49
41
29
34
36
-261
-330
-368
-336
-275
-259
-297
-314
2
102
-106
106
14
-315
-364
-159
-200
-174
-326
18
-276
-167
-531
-211
-290
52
-332
-548
-614
-199
11
58
-316
-151
-331
76
116
-264
-152
-162
-305
55
69
38
54
-119
-31
-4
-45
-105
111
92
67
27
-259
1
28
39
28
27
66
124
-113
102
48
62
-80
337
199
219
160
342
324
371
160
131
288
-50
-42
301
375
368
288
-73
93
32
-267
-323
-170
-568
-416
-395
-254
-358
-310
-362
-158
-148
-363
-348
-358
-360
-344
-315
-286
-269
-276
-321
-370
-371
-318
-283
-331
-174
-214
-145
-304
-279
-322
-330
18
-95
265
318
145
585
846
1104
1288
1369
1338
976
1134
1134
977
1304
964
724
458
541
173
-2
-306
-435
-1039
-1284
-1177
-1251
-1245
-1404
-980
-1046
-870
-458
-571
-179
-310
30
38
-284
-355
-350
-276
38
13
-321
-355
-314
-265
-283
-339
-346
-270
92
-88
-30
309
139
162
352
259
-46
-54
-81
98
44
100
-1
154
222
225
240
549
595
570
225
377
294
-26
-68
-71
-16
343
202
548
582
552
227
185
216
531
520
144
257
-19
372
534
576
232
383
364
173
244
253
191
340
259
264
378
529
608
607
603
408
492
487
638
533
240
218
366
-81
23
14
124
256
330
337
285
-55
-123
-126
-72
-28
-61
83
-294
-368
-139
-133
-357
-316
-308
-376
-247
-634
-455
-451
-636
-535
-200
-182
-222
-517
-235
-142
-305
-289
-364
-230
-604
-421
-447
-444
-440
-445
-442
-418
-396
-405
-431
-423
-613
-550
-586
-464
-840
-825
-422
-517
-186
-201
-247
-542
-556
-523
-197
-169
-544
-789
-720
-664
-634
-330
35
-306
-146
-358
54
-85
114
-383
-426
-871
-844
-395
-202
-141
-184
-180
-297
-95
266
-59
42
-302
-268
70
95
40
-287
-300
9
63
57
3
-285
9
80
98
28
-333
-136
-384
-341
-304
-303
-328
-360
-375
-308
123
350
244
228
331
-120
-285
-151
-218
-206
-134
-343
-129
-205
-185
-275
-75
-11
118
-302
-320
94
273
310
-33
-69
326
523
544
315
32
-308
87
-27
-70
36
-261
-113
327
364
260
-84
-58
265
-19
93
-313
-340
20
-94
-20
-57
89
-274
-317
-283
15
-261
-363
-189
-137
51
-48
-97
-317
-233
-194
-293
-276
-226
-453
-467
-543
-165
-254
-409
-402
-214
-314
-350
-513
-621
-599
-524
-228
-216
-187
-153
-160
-197
-175
-290
-78
367
227
564
402
787
657
735
728
891
779
488
787
788
599
-35
-167
-408
-818
-1078
-1258
-1674
-2085
-1732
-1866
-1865
-1863
-1410
-1018
-641
-439
-605
-223
-297
83
89
58
85
-120
-127
62
16
31
52
14
-304
-299
59
-72
257
287
331
152
205
158
270
-120
-122
265
141
145
281
-79
-61
292
323
-13
-94
-67
300
376
365
340
144
523
625
389
613
592
589
569
514
198
170
177
199
223
255
572
406
493
801
809
792
505
458
399
601
562
513
161
304
262
347
253
384
425
409
391
386
386
419
503
823
486
230
-46
121
268
217
521
135
-7
264
162
541
518
153
345
370
379
257
42
-363
-333
78
-57
-54
-116
111
-113
-61
-34
-42
-95
53
-328
-131
-353
-288
-299
-146
-243
-522
-229
-188
-148
-322
35
73
2
-360
-137
-339
-292
-330
-198
-608
-473
-507
-416
-238
-364
-142
-549
-635
-536
-348
-272
-384
-560
-640
-597
-527
-255
-517
-242
-194
-143
-372
-363
-376
-161
-204
-211
-163
-354
-351
-176
-542
-583
-255
-377
-296
-325
-148
-147
-278
126
-108
18
-374
-368
19
101
-258
-221
-606
-514
-286
-126
115
-266
-351
-325
10
60
55
19
-285
-333
-353
-309
38
110
107
67
84
-76
-10
-98
-315
-237
-241
-373
-279
-316
-168
-209
-372
51
-79
-63
115
6
-321
-324
-282
-271
-338
-190
-244
-175
-267
-120
-84
101
9
-272
42
121
-111
92
15
-278
-259
37
51
40
36
55
87
116
-98
-26
307
335
299
-6
260
334
150
142
312
-24
-6
377
536
385
399
600
533
253
546
611
633
541
346
-105
58
81
127
106
9
-349
-139
-382
-337
-279
33
56
24
-289
-313
-278
32
34
-300
-155
-227
-234
-197
-156
-134
-138
-150
-381
-285
110
-45
-44
-123
58
35
22
-302
-150
-197
-381
9
123
-40
378
389
678
1128
956
1013
1335
1333
944
757
661
687
687
478
318
-137
-487
-746
-1281
-1622
-1700
-2176
-1987
-1927
-1774
-1794
-1228
-1146
-849
-620
-189
-300
57
78
18
-312
-313
28
118
124
75
89
-31
145
213
128
263
-1
350
152
342
-30
-48
317
175
202
207
568
492
838
467
239
348
360
161
381
-4
-101
-72
323
230
604
397
388
624
631
394
627
544
213
222
555
603
563
236
245
604
429
388
513
149
145
211
530
581
392
470
768
488
442
427
438
410
576
237
512
626
459
415
536
195
239
609
407
604
231
135
352
360
152
229
543
532
203
132
354
324
266
-62
-94
-79
-70
-89
-78
256
334
308
-76
92
-119
-39
-106
-335
-522
-241
-332
10
-319
-148
-353
39
80
-284
-141
-371
2
36
-351
-526
-585
-255
-161
-144
-184
-221
-218
-210
-230
-520
-526
-226
-163
-130
-156
-197
-166
-275
-93
-38
67
-178
-555
-204
-293
-277
-207
-413
-436
-514
-303
37
-267
-332
-325
-257
72
-128
-91
-79
-109
81
35
43
89
117
87
9
-329
-376
-380
-346
-282
44
87
83
57
62
120
-68
-57
-116
71
61
110
-116
81
-306
-166
-194
-144
-329
-271
29
54
36
-283
-340
-315
49
-92
-49
-77
-116
126
119
99
84
91
95
41
-343
-213
-239
-152
-290
10
-290
-339
-310
41
102
51
-320
-139
-375
-317
-311
-356
-374
-309
41
70
17
-299
-312
-301
-319
-377
-167
-157
-354
-287
15
38
43
32
23
35
59
69
50
12
-275
-292
-300
-287
14
77
106
57
-297
-364
-349
-268
68
104
104
109
-117
-71
-35
-34
-81
86
-267
-334
-348
-316
-263
35
39
11
-264
25
118
-51
-43
-126
28
-269
10
31
1
-314
-349
-338
-311
-302
-304
-286
9
41
44
26
14
37
89
-110
-69
-51
-56
-80
-105
-110
-83
-48
-42
-53
-33
298
376
369
272
-58
272
224
387
589
338
100
65
-30
134
133
-7
-108
-48
367
208
175
355
359
189
513
251
214
215
238
215
146
356
129
175
144
273
-125
61
70
103
118
115
103
75
37
21
51
117
-81
-63
-88
120
75
52
65
125
-56
-43
103
-345
-222
-174
8
-117
81
-362
-232
-193
-315
38
58
64
96
-111
-40
363
602
862
1044
1147
998
1402
1258
1536
1265
1546
1570
1176
1060
596
-10
43
-195
-890
-1201
-1911
-2099
-2081
-1757
-1701
-1842
-1612
-1322
-1076
-894
-441
-182
52
127
32
-346
-360
-295
-280
-350
-135
-292
-119
-55
103
-262
55
292
522
581
234
136
131
200
247
214
374
288
280
341
131
356
282
271
379
527
582
514
182
217
594
416
627
516
218
545
637
632
523
168
190
564
386
598
513
536
438
832
797
386
572
431
841
816
598
146
175
384
792
480
554
191
244
620
407
596
250
231
547
608
621
592
562
557
561
561
559
554
526
208
145
129
179
242
236
140
279
-33
-2
317
334
285
-40
-74
-54
-15
263
258
-21
-52
-91
122
87
69
47
-260
-336
-146
-169
-152
-383
-374
-378
-380
-375
-372
-380
-144
-173
-197
-200
-177
-147
-149
-196
-238
-221
-148
-335
-318
-346
-381
-147
-163
-148
-318
81
-79
126
-298
-185
-199
-148
-175
-567
-430
-392
-206
-283
19
-304
-357
-311
49
98
25
-134
-523
-542
-182
-274
-111
-9
-10
-118
-274
-369
-332
31
62
-300
-183
-188
-282
-95
-30
-83
120
-121
-93
127
34
-282
-267
29
31
9
13
46
56
23
0
44
124
-111
60
-325
-141
-138
-129
-169
-228
-234
-172
-364
-346
-358
-343
-292
-257
-288
-354
-374
-313
35
63
-264
-370
-159
-368
-285
1
-317
-175
-253
-236
-383
15
116
-125
70
-267
-311
-300
-264
10
-265
-312
-354
-362
-330
-277
9
3
-270
-274
-266
-286
-347
-145
-137
-338
-306
-323
-331
-276
56
55
-276
-296
79
-27
-38
8
-209
-237
-359
-262
-317
-164
-156
-290
64
43
-278
-265
89
-103
105
13
6
109
-36
-26
-89
-104
-11
364
135
321
262
291
360
359
277
-30
289
154
208
155
340
354
200
573
639
399
407
431
454
443
633
534
201
191
229
242
177
322
260
311
183
541
526
381
-67
64
68
-103
-48
-103
15
-357
-370
-299
17
0
-324
-359
-319
0
-259
-343
-159
-139
-308
3
-284
-348
-370
-366
-143
-210
-220
-369
30
70
-272
-355
-303
113
-27
-62
66
10
-116
170
477
707
1126
1302
1266
1481
1872
1670
1691
1678
1811
1536
920
834
516
105
-475
-1383
-1893
-2135
-2171
-2150
-2131
-1792
-1814
-1184
-1045
-488
-556
-165
-294
37
-263
-137
-206
-378
43
-118
117
90
-95
268
268
-100
95
-53
383
168
273
113
-111
338
211
368
-120
13
121
361
513
217
331
256
325
214
568
574
540
539
581
622
624
590
564
571
593
600
584
552
537
569
390
469
505
472
413
384
397
412
395
620
622
403
419
394
633
436
805
870
826
469
421
456
498
468
634
561
549
589
385
412
392
595
559
591
419
463
391
248
159
184
512
515
166
312
264
277
292
260
-64
-124
114
-102
-37
-17
-85
61
-260
6
34
22
0
35
112
-121
45
-333
-355
-267
42
-316
-514
-634
-601
-250
-223
-525
-541
-208
-357
-323
-366
-135
-341
-257
12
-351
-520
-385
-401
-599
-553
-575
-637
-385
-527
-341
47
37
-346
-216
-233
-137
-285
-274
-371
-219
-223
-368
24
86
49
-281
-325
-333
-336
-346
-341
-306
12
88
-113
-123
36
-367
-211
-192
-345
-269
-283
-331
-314
43
-107
-77
-123
75
44
28
10
5
44
108
-107
-105
-113
-102
-93
123
28
-306
-288
64
-122
111
37
7
53
111
116
77
44
36
23
-271
-300
-281
19
31
-259
-305
-332
-352
-135
-172
-168
-130
-360
-135
-190
-206
-156
-323
10
32
5
-275
19
124
-37
-50
69
-349
-153
-348
-259
23
-270
-304
-295
-261
35
77
106
90
16
-318
-323
1
45
-261
-354
-372
-280
71
57
-300
-355
-288
95
-87
-103
114
114
-115
-101
-91
-28
360
226
251
184
376
381
167
151
298
-79
-106
-19
356
172
207
525
635
482
768
462
639
575
522
200
137
372
153
220
534
553
537
243
186
353
-31
63
-355
-223
-545
-574
-591
-583
-520
-151
-303
-261
-275
-277
22
58
6
-136
-526
-556
-239
-184
-208
-543
-593
-561
-210
-365
-303
-292
-314
-339
-328
-258
94
-111
123
63
53
-111
336
590
878
915
1169
1604
1467
1830
1699
2087
1924
1939
2103
1875
1264
1108
475
143
11
-779
-1398
-1903
-2141
-2139
-2063
-1762
-1698
-1507
-1179
-1087
-845
-467
-633
-252
-358
2
32
26
27
44
48
34
35
84
-101
-55
-42
-13
326
164
171
319
-82
105
-119
-62
-45
-35
303
217
639
449
419
631
633
394
619
525
162
364
377
172
225
250
230
190
178
219
549
609
630
625
610
588
571
586
386
456
477
429
604
568
601
431
777
813
502
636
537
557
437
817
828
771
789
682
1086
1047
802
551
237
613
446
595
372
-6
337
521
605
527
157
144
220
514
182
318
265
297
321
271
-74
-119
-110
-107
102
49
57
103
101
-257
-142
-205
-155
-348
-133
-544
-446
-482
-388
-522
-232
-560
-394
-408
-598
-516
-233
-537
-624
-449
-493
-497
-469
-438
-422
-426
-432
-428
-429
-437
-436
-396
-572
-245
-228
-254
-528
-239
-179
-151
-155
-161
-147
-146
-203
-549
-588
-520
-381
-279
-284
-356
-154
-131
-305
16
0
-363
-243
-563
-246
-375
-292
-294
-301
41
-72
-15
-107
24
24
-112
-47
110
-321
-144
-339
-260
-264
-314
-312
21
110
-97
-73
-72
122
-267
-383
-369
20
114
49
-367
-174
-274
-4
161
366
-81
16
-275
11
-264
-364
-191
-143
32
-49
262
-45
-91
-73
-37
-51
-109
112
109
76
-265
-307
32
-79
-44
64
-130
-184
-335
18
-275
-373
-370
22
-76
-12
-42
-81
-83
-67
-60
-61
-61
-77
-121
106
127
-67
-22
-43
-100
-119
-61
300
376
378
330
290
295
334
374
140
152
174
216
534
603
637
592
205
307
-37
-16
317
361
344
344
180
604
482
496
398
243
343
-64
31
-141
-566
-437
-477
-403
-248
-361
-302
-329
-380
-145
-138
-132
-146
-184
-238
-544
-564
-544
-537
-601
-445
-475
-637
-248
-216
-566
-422
-425
-576
-204
-150
-139
-132
-135
-141
-356
53
301
549
476
890
1123
1188
1470
1831
1520
1491
1895
2132
1953
1721
1550
904
879
560
58
-816
-1366
-1476
-1694
-2080
-2096
-1698
-1448
-1217
-1316
-906
-675
-404
-209
-164
-226
-531
-230
-375
-305
-344
-182
-191
-291
-70
285
-54
69
51
-95
277
326
340
359
349
-3
123
87
-55
358
157
348
282
320
194
576
620
576
248
214
252
596
399
603
191
306
319
246
458
793
455
610
388
809
693
666
497
602
610
510
675
705
837
422
624
453
841
888
816
453
420
490
851
671
715
749
751
674
787
423
430
780
844
793
400
546
541
634
509
859
853
487
605
547
617
468
467
556
316
-93
-99
-23
287
261
-97
20
-329
-305
68
-119
25
-228
-421
-410
-520
-173
-211
-521
-238
-190
-245
-633
-428
-587
-224
-528
-431
-487
-589
-132
-351
-221
-583
-544
-196
-218
-630
-782
-813
-493
-437
-425
-418
-407
-434
-511
-822
-495
-557
-376
-372
-570
-807
-871
-449
-200
-340
-169
-590
-402
-569
-152
-281
18
-275
-366
-191
-189
-340
37
30
-139
-577
-595
-170
21
45
-377
-585
-405
-568
-148
-299
-303
-356
-362
-280
99
-85
-111
60
5
21
61
45
-308
-160
-187
-373
-295
-292
-349
-377
-324
34
124
-74
-29
-2
-37
120
21
-263
32
58
18
-308
-314
21
103
95
-257
-342
-322
33
104
65
-303
-375
-330
67
-46
267
-44
90
-257
14
118
-52
-86
46
-281
61
-9
380
137
358
366
158
177
167
210
601
476
467
572
175
179
559
392
598
210
142
213
613
430
614
209
372
139
211
223
157
354
374
193
248
244
190
350
-56
29
-326
-288
54
1
-245
-511
-812
-597
-335
-259
-382
-251
-206
-288
87
31
-145
-550
-585
-553
-555
-629
-445
-417
-526
-363
-300
-342
-373
-299
85
104
-328
-589
-462
-609
-369
74
-101
-5
239
868
987
1252
1655
1489
1839
1712
2122
1979
1939
1675
1255
1097
504
131
-167
-1120
-1473
-2062
-2147
-2151
-2166
-2113
-1886
-1255
-1126
-855
-463
-413
-394
-634
-625
-640
-433
-485
-477
-615
-162
34
-77
256
-19
107
-334
-184
-383
20
87
7
-366
-362
39
-41
336
154
218
233
144
258
-49
327
252
552
143
-43
-44
172
411
455
558
147
145
248
547
225
167
219
592
385
604
594
435
815
814
418
549
573
462
846
849
489
630
588
391
777
641
669
867
816
833
878
