-209
-337
-311
-174
-575
-582
-181
-307
-360
-209
-337
-311
-174
-575
-582
-181
-307
-360
-557
-415
-415
-546
-546
-281
-281
113
113
-262
-262
-221
-221
-536
-536
-131
-131
19
-306
-553
-463
-629
-306
-553
-143
-300
-463
-197
-629
-435
-143
-300
-197
-435
-493
-493
-537
-537
27
27
-75
-75
85
85
-379
-379
-226
-226
-136
-136
39
39
103
-270
-270
-173
-173
-163
-163
51
51
276
276
284
284
84
84
-355
-355
-351
42
-117
-121
110
106
42
-380
-245
-351
42
-117
-121
110
106
42
-380
-245
-378
-58
157
317
58
-308
87
-378
266
294
-58
157
317
58
-308
87
266
294
-31
-24
-24
315
315
297
297
85
-172
85
-245
-172
-343
-245
-122
-343
-122
-12
-28
-28
-70
-70
-52
-52
302
302
182
518
182
217
518
332
217
332
-39
-32
291
263
95
-333
-362
-264
70
33
-304
-291
95
-40
-16
-39
-21
318
-32
246
291
263
95
-333
-362
-264
70
33
-304
-291
95
-40
-16
-21
318
246
386
564
256
-360
-545
-218
-266
113
26
-178
-544
386
-168
564
-125
140
201
344
-14
265
256
-360
-545
-218
-266
113
26
-178
-544
-168
-125
140
201
344
-14
265
339
299
299
108
-319
-301
114
-50
120
-281
108
-319
-287
-301
-99
366
114
-50
143
120
-281
261
-287
-99
-128
366
-111
143
284
261
143
-128
-111
284
143
359
359
-93
-93
-316
-316
-174
-174
-139
-139
-302
-302
-263
-263
-338
-338
-226
-226
-580
-555
-153
46
-51
-580
301
365
167
203
-555
-153
46
184
-51
134
301
132
365
218
545
208
203
-5
100
-75
184
134
132
218
545
208
-5
100
-75
165
564
165
202
564
-7
202
-50
-7
133
-50
591
133
577
591
367
577
367
-56
-56
-13
-13
177
177
577
564
577
196
564
368
196
368
360
360
142
142
197
520
573
569
226
358
-4
-68
-88
520
573
569
226
358
-4
-68
-88
-51
-51
291
291
343
343
-16
-16
-272
-272
-237
-237
-227
-227
-261
-261
-77
-77
122
122
-349
-349
-212
-212
-129
-129
25
25
69
69
-259
-259
-300
-300
23
23
112
102
17
-299
-293
102
17
-299
-293
-280
-317
-280
-354
-317
-310
-354
-310
68
-78
-63
-78
127
-63
49
127
-284
49
-379
-284
-194
-379
-158
-194
-158
-267
121
126
78
-62
-267
582
1063
1337
1303
121
126
78
-62
582
1063
1337
1303
918
938
1346
1400
918
999
1092
938
900
1346
1180
1400
1630
999
1092
900
1180
1213
1630
734
218
-117
-309
1213
-544
-680
-1163
-1815
734
218
-117
-309
-544
-680
-1163
-1815
-1725
-1725
-1889
-1889
-1632
-1320
-1040
-838
-419
-249
-353
-287
-339
-232
-407
-785
-778
-625
-159
-323
-1632
-1320
-1040
-838
-419
-249
-353
-287
-339
-232
-407
-785
-778
-625
-159
-323
-232
-825
-764
-764
-818
-818
-311
-311
368
368
137
137
115
-318
115
-318
-105
386
1056
909
1042
643
386
802
1056
396
151
909
1042
643
802
396
151
-70
-90
359
578
-70
628
238
131
521
673
-90
359
578
628
238
131
521
673
1372
1240
1142
556
1372
1240
1142
556
-82
-82
-12
-12
585
585
806
806
481
481
579
579
632
632
680
680
975
975
1001
1001
748
748
411
411
175
175
353
353
146
512
614
411
458
862
1150
1206
1604
146
512
614
411
458
862
1150
1206
1604
1247
1015
1085
746
690
818
412
638
800
1030
1137
1061
681
662
736
734
846
452
1247
1015
1085
746
690
818
412
638
800
1030
1137
1061
681
662
736
734
846
452
482
641
724
641
887
724
494
887
502
494
665
502
1061
665
1054
1061
1054
684
684
840
840
813
813
808
808
508
405
508
535
405
197
535
218
197
218
590
433
433
404
404
248
248
378
378
171
171
618
618
483
483
620
620
317
62
20
-116
-7
-13
-88
-120
-82
317
62
20
-116
-7
-13
-88
-120
-82
-37
-37
-40
-98
-40
81
-98
14
81
-279
14
-263
-279
37
-263
16
37
16
-140
-602
-602
-401
-212
-401
78
-212
-53
78
52
-53
-205
52
-561
-205
-561
-182
-276
-276
-290
-290
-254
-254
-500
-500
-840
-840
-489
-489
-615
-615
-589
-589
-396
-396
-427
-427
-583
-583
-358
-358
-112
-112
279
279
-24
-24
45
45
-163
-163
-527
-246
-162
-129
-195
-578
-433
-466
-407
-527
-246
-162
-129
-195
-578
-433
-466
-407
-539
-539
-156
-156
-352
-352
-359
-359
-361
-361
-290
-290
89
89
-81
-82
-81
-82
-126
127
-70
-17
127
-50
-70
82
-17
-328
-50
-160
82
-369
-328
-160
-369
46
46
-55
-29
-55
122
-29
-257
122
-283
-257
28
-283
28
51
51
-267
-267
-330
-299
52
103
85
90
-77
286
294
-330
-299
52
103
85
90
-77
286
294
-58
-58
-119
-119
-72
-72
-23
-23
111
111
-185
-185
-419
-419
-601
-601
-266
-266
264
264
-35
-35
-310
-310
-233
-233
-129
-129
-125
-125
270
270
-67
-67
20
20
-335
-356
-383
-170
-162
-331
20
50
27
18
37
50
37
38
96
-73
-22
-36
-335
-356
-383
-170
-162
-331
20
50
27
18
37
50
37
38
96
-73
-22
-36
-75
-98
-98
-94
-68
-94
-27
-68
262
-27
-7
262
-79
-7
83
-79
83
27
43
111
-78
-62
27
43
111
-78
-62
-108
73
55
-117
-108
73
55
-117
-11
-11
-47
-47
-268
-268
-233
-233
-204
-204
70
70
289
289
-72
-72
-149
-149
-591
-591
-168
-90
314
-73
15
-168
42
-90
-39
318
314
-73
15
42
-26
-39
77
318
50
-78
333
139
-26
350
77
269
50
-78
-30
333
139
350
269
-30
-4
339
173
199
138
301
-18
-24
-4
339
173
199
138
301
-5
-3
-25
-44
-8
347
205
516
204
333
-18
-24
-5
-3
-25
-44
-8
347
205
516
204
333
-4
-4
307
307
230
230
403
403
432
432
561
561
381
381
278
278
310
310
160
160
241
219
331
122
-309
-363
-276
121
-71
110
-305
-168
-175
-343
3
28
-270
219
331
122
-309
-363
-276
121
-71
110
-305
-168
-175
-343
3
28
-270
-332
-332
-350
-318
-297
-340
-350
-318
-297
-162
-340
-198
-162
-168
-198
-381
-168
-381
-381
-381
-146
-146
-130
-130
-351
-351
-373
-373
-197
-197
-224
-224
-370
-370
34
34
21
-180
-614
21
-555
-302
-180
-103
-614
-92
-555
100
-302
-92
-103
-92
100
-92
149
424
857
683
1037
965
1166
1257
1184
1312
1311
1218
149
424
857
683
1037
965
1166
1257
1184
1312
1311
1608
1218
1217
1608
1091
1217
1091
498
498
439
439
772
772
611
611
61
-873
-1300
-1382
-1332
-1349
-1394
-1331
61
-873
-1300
-907
-1382
-751
-1332
-653
-1349
-769
-1394
-246
-1331
51
-907
-79
-653
53
-769
-174
-246
51
-79
53
-174
-543
-193
14
-97
-91
99
66
89
-543
104
-193
14
-97
-91
99
66
89
104
68
68
20
43
20
-86
43
-86
329
329
172
172
172
172
352
-4
352
-4
-83
-83
-111
-111
-80
-80
-28
-20
-28
-66
-20
-85
-66
267
-85
267
203
203
638
638
467
480
506
815
806
408
210
366
163
539
467
585
537
480
247
506
561
815
401
806
420
408
606
210
366
163
539
585
537
247
561
401
420
606
556
605
556
445
605
464
445
630
464
541
630
572
541
453
572
844
453
844
659
659
681
681
685
685
661
661
847
847
511
511
483
483
779
779
840
840
860
837
825
869
699
1038
1078
1053
724
860
837
825
869
699
1038
1078
1053
724
664
683
748
746
863
683
407
748
591
746
490
863
749
407
591
490
749
1141
1051
854
1141
493
1051
806
854
668
493
716
806
671
668
853
716
671
853
807
784
496
784
496
442
442
638
638
584
584
556
556
580
580
393
393
443
443
398
398
522
162
522
196
162
599
196
599
439
439
617
617
155
155
-22
-82
-83
126
34
-265
59
-82
-66
-22
-82
-83
126
34
-265
59
-82
-66
59
-365
-150
-279
-112
-64
77
-352
-196
59
-365
-150
-279
-112
-64
77
-352
-196
-179
-358
-179
-317
-358
-355
-317
-192
-355
-529
-192
-553
-529
-544
-553
-572
-544
-572
-397
-397
-454
-454
-409
-409
-547
-547
-221
-221
-516
-516
-586
-575
-513
-586
-575
-513
-532
-405
-478
-602
-361
-287
-220
-434
-401
-532
-144
60
-405
22
-478
-139
-602
-186
-361
-287
-330
-220
17
-434
-306
-401
-204
-144
60
22
-139
-186
-330
17
-306
-204
-531
-198
-198
-322
-322
0
0
-284
-284
-338
-338
-338
-338
-265
-265
85
85
-110
-110
-99
-99
-103
-103
-86
-86
-70
-70
-114
-114
34
34
-325
-325
-353
-353
-325
-310
-345
-130
-373
-307
12
50
101
-325
-310
-345
-42
-130
358
-373
172
-307
355
12
-79
50
13
101
-299
12
102
-42
358
172
355
-79
13
-299
12
102
-96
-96
-84
-107
-107
101
101
49
49
61
61
-70
-70
360
360
173
173
309
92
-291
14
-118
-64
-92
309
-113
-87
92
-291
14
-118
-74
-64
-121
-92
62
-113
51
-87
107
-114
102
-74
52
-121
75
62
51
107
-114
102
52
75
-98
-62
113
-283
-346
-270
121
-71
-123
-62
46
113
19
-283
57
-346
89
-270
86
121
-71
98
-123
-96
-42
-92
46
19
57
89
86
98
-96
-42
-92
19
-332
4
-51
343
320
-30
-59
-25
19
-332
4
-51
343
320
-30
-59
-25
-44
-44
89
-291
-288
73
126
58
-293
-285
89
-291
-288
73
77
126
-95
58
-102
-293
-110
-285
261
198
547
77
179
-95
-26
-102
-110
261
198
547
179
-26
-102
282
192
186
257
81
75
-66
-10
-77
282
192
186
257
81
112
75
-95
-66
280
-10
331
260
-106
96
94
-77
112
-95
280
331
260
-106
96
94
98
115
-66
316
150
145
98
358
115
361
-66
142
316
150
145
358
361
142
143
143
358
339
379
140
339
300
379
-91
140
-88
300
374
-91
-88
374
622
622
434
434
549
549
147
147
178
178
599
599
450
450
396
396
538
538
526
526
385
385
474
474
410
410
229
229
348
348
376
376
531
531
417
417
445
633
568
566
602
620
594
548
515
445
633
568
566
602
620
594
548
515
231
155
231
155
265
106
20
30
78
85
42
265
106
20
30
78
85
42
7
17
49
52
12
-278
-261
55
99
7
17
49
52
75
12
-271
-278
-356
-261
-346
55
24
99
-90
-15
-42
-104
75
-271
-356
-346
24
-90
-15
-42
-104
122
122
120
120
85
85
-258
-258
-332
-332
-325
-271
-325
-271
-262
-262
-330
-330
-146
-368
41
-51
284
291
338
244
466
-368
41
-51
284
291
338
244
466
872
872
656
656
709
709
941
941
1589
1589
1904
1904
1672
1672
1438
1438
1215
1215
1215
1215
1615
1615
1661
1234
1234
951
951
725
725
834
834
638
638
323
323
-315
-400
-651
-1085
-315
-952
-1016
-651
-1302
-1085
-1315
-952
-1020
-1016
-1302
-1315
-1020
-1119
-828
-249
-297
5
-291
-305
-828
-271
-249
14
-297
5
-268
12
86
5
-108
-291
-106
-305
99
-271
14
64
114
5
-268
12
86
-108
-106
99
64
114
-15
347
342
-23
119
110
-53
282
-1
-15
347
342
-23
119
110
-53
282
-1
-99
117
-99
-55
117
341
-55
157
341
131
157
340
131
367
340
192
367
192
234
213
234
198
213
246
198
246
558
527
164
363
208
558
527
164
363
208
404
770
441
521
147
158
234
549
586
770
441
521
147
387
158
458
234
482
549
422
586
610
398
824
719
387
701
458
482
422
610
398
824
719
701
782
618
612
466
797
784
784
895
1042
782
618
612
466
797
784
784
895
1042
1066
1066
669
775
669
788
775
697
788
1088
697
1049
1088
884
1049
884
769
797
769
647
694
881
774
498
858
797
738
647
1034
694
881
774
498
858
738
1034
677
677
777
443
483
832
874
834
501
442
777
443
483
404
832
626
874
614
834
401
501
490
442
814
807
497
473
404
626
614
401
490
814
807
497
473
772
772
819
819
787
787
411
411
546
546
243
243
235
235
173
173
275
275
110
42
82
124
85
-271
-345
-337
-268
56
91
102
99
79
40
-273
-344
-160
110
42
82
124
85
-271
-345
-337
-268
56
91
102
99
79
40
-273
-344
-160
-205
-204
-167
-148
-204
-167
-148
-188
-188
-533
-610
-635
-533
-613
-610
-635
-613
-573
-573
-513
-513
-177
-177
-376
-376
-153
-550
-437
-432
-247
-285
19
-166
-453
-873
-807
-591
-163
-158
-515
-560
-191
5
110
40
-381
-228
-198
-285
19
-166
-453
-873
-807
-591
-163
-158
-515
-560
-191
5
110
40
-381
-228
-198
-368
-368
-336
-336
-370
-370
-134
-134
-341
-341
-291
-291
-317
-384
-317
-357
-384
-357
63
-40
-104
-372
-591
-543
-282
-85
-110
14
-263
63
127
-40
264
-104
278
-372
-40
-61
-591
-15
-543
285
-282
-85
-110
14
-263
127
264
278
-40
-61
-15
285
279
-5
-29
-73
93
17
27
112
-82
279
42
-5
-270
-29
29
-73
-118
93
-20
17
263
27
-50
112
111
-82
-117
42
-270
29
-118
-20
263
-50
111
44
44
34
34
54
65
66
65
93
66
-94
-20
93
273
-94
-20
273
256
256
-66
96
25
39
-107
267
-66
270
96
25
39
-107
267
13
270
30
-113
-55
377
168
13
345
-24
30
-110
-55
94
377
168
345
-24
-110
94
68
68
85
-107
-51
-68
85
113
-107
-51
-68
113
56
56
62
62
95
95
89
89
52
52
60
60
-105
-105
259
259
280
280
-72
-72
82
82
103
103
-11
-11
358
301
100
-331
-356
-278
20
-279
358
301
100
-331
-356
-278
20
-279
-321
-321
13
-58
365
149
312
-64
-96
-6
381
165
323
-85
97
-111
-38
-33
-73
13
-58
365
149
312
-64
-96
-6
381
165
323
-85
97
-111
-38
-33
-73
-49
-49
327
327
175
175
139
139
-4
-4
-104
-104
-66
-66
295
295
334
334
267
-74
-74
-101
-101
-87
-87
-95
-95
121
121
101
101
-125
-125
-68
-68
-32
-23
-12
270
297
303
308
341
140
-32
-23
-12
270
297
303
308
341
140
183
183
170
170
360
360
276
276
-58
-58
-118
116
-103
-30
-118
116
-103
266
-30
-37
122
89
-58
142
537
526
266
154
-37
122
89
-58
142
537
526
154
313
313
305
342
305
342
335
335
-7
-7
-99
-99
-102
-102
-19
298
-19
-18
102
35
124
298
289
369
288
-115
-18
69
102
35
124
289
369
288
-115
69
122
122
-43
-43
-19
-19
-72
-72
-121
-121
-73
-73
325
325
195
195
186
186
290
290
-128
122
301
-128
122
515
301
515
589
239
589
379
239
373
379
373
214
214
583
583
393
393
422
422
437
437
419
419
602
602
255
255
230
230
560
407
436
626
552
572
422
493
414
560
407
436
626
552
572
422
493
414
224
350
372
191
152
-27
45
-271
18
224
350
372
191
152
-27
45
-271
18
49
49
49
71
71
117
117
116
116
59
59
47
47
-101
-101
291
291
303
303
-66
-66
-125
-25
-125
347
-25
-9
347
-311
-9
-530
-311
-184
-530
-184
99
257
-102
-286
-313
83
-47
-52
-103
99
257
-102
-286
-313
83
-47
-52
-103
-73
257
-44
8
-185
-175
24
-32
287
257
-44
8
300
-185
187
-175
495
24
1069
-32
987
287
1323
1210
1458
1668
300
187
495
1069
987
1323
1210
1458
1668
1701
1701
1867
1830
1830
1888
1888
1883
1883
1424
1424
1381
1381
957
957
964
964
1142
463
25
-822
-1025
-699
-701
-926
-1178
-1198
1142
463
25
-822
-1025
-978
-736
-865
-507
-550
-270
-124
26
-699
-701
-926
-1178
-1198
-978
-736
-865
-507
-550
-270
-124
26
-208
-208
-587
-587
-241
-241
-314
-314
9
9
-361
-361
-527
-527
-565
-565
-179
-179
-267
43
-288
-341
23
-2
173
162
280
-267
43
-288
-341
23
-2
173
162
280
-79
-66
-79
-66
269
331
378
184
237
219
269
331
378
184
237
219
134
366
248
459
790
394
196
163
574
455
134
366
248
459
790
394
196
163
574
455
405
246
209
209
387
387
866
866
648
648
495
495
624
624
435
435
863
649
485
561
573
487
837
863
449
649
231
485
561
573
192
487
837
400
449
644
231
677
497
580
596
192
501
400
640
644
677
497
580
596
501
640
668
890
882
653
658
868
808
787
817
866
653
668
677
890
687
882
695
653
721
658
767
868
1053
808
1035
787
817
866
653
677
687
695
721
767
1053
1035
734
718
743
730
841
611
226
594
858
734
718
743
730
841
611
226
594
858
765
674
422
242
252
629
465
467
416
765
674
422
242
252
629
465
467
416
597
243
159
243
140
159
194
140
245
194
209
245
347
209
-17
347
-17
-56
-52
-66
-122
59
1
-283
-276
14
-56
-52
40
-66
-122
12
59
-337
1
-186
-283
-242
-276
-223
14
-156
-341
-304
40
12
-337
-186
-242
-223
-156
-341
-304
-312
-360
-163
-176
-375
-285
21
-272
-130
-312
-360
-163
-176
-375
-285
21
-272
-130
-515
-515
-597
-597
-595
-595
-256
-256
-140
-140
-324
-324
-346
-346
-186
-186
-532
-532
-550
-242
-173
-133
-379
-383
-142
-171
-195
-550
-242
-173
-133
-379
-383
-142
-171
-195
-184
-145
-145
-375
-375
-140
-140
-191
-191
-231
-235
-231
-212
-235
-196
-212
-196
-194
-186
-147
-194
-326
-186
21
-147
78
-326
63
21
78
-274
63
-374
-274
-374
-164
-364
30
-95
-364
30
-95
-86
36
-380
-144
13
-86
36
-380
-144
13
-54
-19
92
-319
-331
12
28
-347
-211
-54
-19
92
-319
-188
-331
-315
12
14
28
-294
-363
-347
-313
-211
88
-73
-99
-188
-315
14
-294
-363
-313
88
-73
-99
99
-111
283
370
99
306
-111
-108
283
44
370
75
306
-65
-108
44
75
-65
285
284
-57
285
98
284
-57
50
98
76
50
-118
76
-89
-118
-118
-89
-118
96
98
121
98
76
121
-336
76
-256
-336
-547
-256
-131
-547
99
-131
99
-27
-33
-75
-33
-55
-55
268
321
342
358
348
268
321
342
358
348
-1
81
-333
-1
-363
81
-262
-333
-126
-363
-262
-46
-126
-41
-74
-46
-41
-74
-120
99
99
101
101
-113
-113
-68
-68
-52
-52
-59
-59
-68
-68
-79
-79
-102
-102
-104
-38
-38
320
320
351
351
-14
-14
88
88
65
65
-56
-56
314
314
-13
57
57
-266
-266
-101
-101
141
141
219
219
339
339
-106
-106
71
71
100
100
-110
-87
-76
-73
-116
45
-284
-265
-110
99
-87
-34
-76
282
-73
258
-116
45
-82
-284
77
41
105
-265
99
-34
282
258
-82
77
41
105
-50
-36
109
-266
20
-55
346
291
89
-50
-306
-36
109
-262
-266
-119
20
-45
-55
-92
346
69
291
12
89
2
7
-306
-262
-119
-45
-92
69
12
2
7
28
28
88
88
-76
-76
264
264
303
303
290
290
-24
-24
-107
-107
85
85
77
118
-120
81
-261
-298
118
-263
-120
41
81
54
-261
-298
-263
41
54
78
-74
343
78
-74
343
174
341
-125
-296
-316
42
174
341
-125
-296
-316
42
-99
-54
-85
86
-265
-297
-99
-54
-85
62
86
276
-265
201
-297
62
276
208
201
306
-111
120
208
-56
-9
306
-57
-111
127
120
127
-56
-9
-57
127
127
-70
-41
-88
98
81
122
-73
-17
275
-70
-41
-88
98
81
122
-73
-17
275
271
-48
-128
113
-65
303
359
342
320
271
-48
-128
113
-65
303
359
342
320
335
355
336
306
336
172
250
247
176
335
355
336
306
336
172
250
247
176
360
338
358
380
137
146
155
168
184
199
217
516
360
602
338
449
358
490
380
426
562
137
240
146
155
168
184
199
217
516
602
449
490
426
562
240
543
626
543
630
551
626
245
630
551
587
245
488
587
796
488
409
796
409
212
145
517
421
462
212
625
145
521
517
247
533
421
462
625
521
247
533
252
252
156
156
309
309
256
256
-30
-30
-113
-113
-258
-258
-138
-138
-214
-214
-229
-185
-327
88
-53
-79
21
-376
-378
-262
100
-229
114
-185
71
-327
56
88
94
-53
-126
-79
120
21
84
-376
-378
-262
100
114
71
56
94
-126
120
84
71
99
-128
106
28
-309
-335
-292
37
93
113
71
102
99
63
-128
15
106
-260
28
58
-309
-45
-335
154
-292
37
93
113
102
63
15
-260
58
-45
154
597
597
772
772
717
717
958
958
1198
1198
1621
1621
1442
1442
1479
1479
1533
1533
1881
1715
1742
1666
1515
1715
1615
1742
1249
1666
1156
1515
968
1615
1249
1156
968
859
342
859
-210
-667
342
-210
-954
-1316
-1293
-978
-667
-957
-954
-1316
-1293
-978
-957
-964
-919
-964
-761
-919
-787
-761
-580
-787
-190
-580
-374
-190
-374
-341
-341
-339
-339
-341
-341
-287
85
85
-83
-83
-104
-104
71
71
73
73
-51
-51
322
322
-9
3
-184
-164
-270
74
47
-9
29
3
-184
113
-164
-270
74
47
29
113
-38
-38
-37
-37
-104
-104
-50
-50
200
200
461
461
473
473
216
216
-47
-47
-66
370
245
181
299
297
-66
204
370
626
245
385
181
299
297
204
626
385
531
531
185
185
202
202
545
545
614
614
616
616
560
560
238
238
213
213
242
568
636
400
388
242
393
568
446
636
786
400
862
388
393
446
786
862
666
725
1042
666
1089
725
1099
1042
1073
1089
1025
1099
689
827
1073
1025
689
827
462
451
451
817
817
695
695
723
723
892
816
892
857
816
695
857
695
719
719
674
686
1065
908
686
1081
1065
879
908
804
1081
717
879
804
717
938
942
701
452
400
938
478
487
942
387
701
591
452
440
400
851
478
864
487
443
529
387
253
591
615
445
417
440
851
864
443
529
253
615
445
417
575
245
218
202
166
367
320
297
287
575
245
218
202
166
367
320
297
287
281
260
-55
281
107
260
25
-55
21
107
107
25
-41
21
-2
107
-41
-2
-68
63
-68
-306
63
-368
-306
-384
-368
-382
-384
-381
-382
-134
-381
-149
-134
-149
-169
-198
-223
-227
-169
-192
-198
-381
-223
-227
-192
-323
-325
-149
-381
-323
-530
-325
-390
-149
-464
-476
-433
-627
-530
-577
-390
-464
-551
-476
-534
-433
-627
-577
-551
-534
-247
-247
-209
-209
-191
-191
-199
-199
-205
-205
-174
-174
-382
-382
-383
-383
-202
-202
-569
-622
-553
-140
-261
10
-569
-345
-191
-622
-184
-553
-140
-261
10
-324
-345
54
77
-191
13
-184
-286
26
124
-324
-107
54
76
77
13
-286
26
124
-107
76
-278
-309
-268
21
2
-291
-285
24
71
-278
-309
-268
21
2
-291
-285
24
71
88
100
-124
-79
-61
-70
-84
-98
-117
88
100
-124
-79
-61
-70
-84
-98
-117
124
-99
-6
-99
332
-6
308
-79
48
13
332
54
308
-79
48
13
54
97
109
116
-123
-127
89
59
115
-6
349
97
327
109
-37
116
-110
-123
-84
-127
-34
89
-70
59
67
115
-6
-257
349
327
-37
-110
-84
-34
-70
67
-257
94
297
159
327
116
-259
88
285
130
303
297
127
159
14
327
19
116
83
-259
-121
-96
88
-76
285
-53
130
303
127
14
19
83
-121
-96
-76
-53
-35
-35
-36
-36
-67
-67
124
124
44
44
-257
-257
24
24
99
99
-109
-109
118
118
43
43
-268
-268
-271
-271
13
13
48
48
91
91
-106
-106
-50
-50
-37
-77
-37
124
110
-77
-106
124
-58
110
-42
-106
-54
-58
-51
-42
-54
-51
-20
-14
-20
-75
-14
101
-75
119
101
269
119
167
269
158
167
-18
158
-18
69
69
62
62
-91
-91
-44
-44
-108
-108
96
96
-90
-90
282
282
279
279
-96
113
113
-3
-3
188
188
208
208
297
297
-85
-85
259
196
259
196
243
328
328
116
116
57
57
-119
-119
-56
-56
-109
-109
33
33
-293
-293
-273
72
-60
318
136
136
344
294
-4
-273
72
-60
318
136
136
344
294
-4
-49
-84
-80
-32
-10
-62
96
-49
40
-84
75
-80
-32
-10
-62
-87
96
40
259
75
302
296
-15
-94
-87
-128
259
-66
302
306
296
-15
-94
-128
-66
306
380
363
297
-5
-26
-57
-88
-73
-10
299
380
296
297
274
-5
302
368
-26
379
-57
300
-88
-54
-73
-85
-10
299
296
274
302
368
379
300
-54
-85
-49
-49
-20
-34
-61
-81
-20
-34
-61
-81
-118
65
19
73
-118
65
19
73
-65
-11
-96
23
-263
106
-14
287
270
-65
-11
-96
23
-263
106
-14
287
270
300
136
171
321
-111
65
-97
322
152
300
136
171
321
-111
65
-97
322
152
136
369
168
531
136
594
369
585
168
571
531
591
594
599
585
571
591
530
599
150
333
371
530
206
150
518
333
540
371
599
206
470
518
540
599
470
845
866
866
798
798
487
487
505
505
814
814
832
832
803
803
502
502
446
446
619
619
535
535
533
533
404
404
837
837
668
668
856
856
449
449
581
526
526
255
255
231
231
169
169
329
329
-31
-31
-104
-104
-123
-123
-119
106
47
58
-52
106
47
140
58
180
-52
-19
140
-297
180
-19
-297
-162
-305
-109
-37
-128
-257
-304
-274
21
-162
-305
-109
-37
-128
-257
-304
-274
21
41
72
122
-110
116
54
17
20
35
41
72
122
-110
116
54
17
20
35
36
36
34
45
34
56
45
47
56
31
47
44
31
96
44
-97
96
-97
-35
309
205
406
814
869
644
1041
1316
-35
309
205
406
814
869
644
1041
1316
1580
1580
1662
1662
1565
1565
1208
1208
1250
1250
1644
1644
1443
1443
1581
1581
1385
1385
988
1148
1148
702
702
574
574
68
68
-402
-402
-742
-742
-973
-973
-1403
-1403
-1267
-1563
-1543
-1235
-1381
-907
-859
-603
-248
-1267
-1563
-1543
-1235
-1381
-907
-859
-603
-248
-519
-240
-354
58
-519
-240
-354
58
67
-307
-370
4
-35
351
313
-50
-96
-76
-58
67
-49
-307
271
-370
145
4
-35
351
313
-50
-96
-76
-58
-49
271
145
235
188
297
-63
-32
340
169
168
235
188
297
-63
-32
340
169
168
375
375
334
320
320
347
347
189
189
612
612
501
501
779
779
418
418
567
567
573
413
473
416
570
544
621
450
445
573
413
473
416
570
544
621
450
445
632
579
598
415
492
799
632
804
579
494
598
395
415
492
799
804
572
494
577
395
395
456
443
637
572
606
577
394
395
471
456
443
637
606
394
471
509
495
498
843
750
1126
1085
891
451
509
445
495
859
731
498
663
843
453
750
574
1126
393
1085
846
891
451
716
445
859
731
663
453
574
393
846
716
700
700
889
889
893
893
711
711
762
762
730
730
649
649
833
833
776
776
476
481
830
733
1095
1043
870
477
485
476
481
830
733
1095
1043
870
477
485
833
833
846
452
521
183
235
560
541
218
846
452
521
183
235
560
541
218
219
219
567
636
636
560
560
358
358
-88
-88
93
93
111
111
-114
-114
-95
-58
-10
-10
-20
-20
-110
-110
59
59
86
86
-44
-44
287
287
-55
13
-368
-370
-353
-168
-535
-545
-179
-55
13
-368
-370
-353
-168
-535
-545
-179
-351
-177
-619
-454
-602
-138
-263
-268
-324
-351
-177
-619
-454
-602
-138
-263
-268
-324
-354
-361
-139
-210
-540
-581
-582
-550
-247
-354
-361
-139
-210
-540
-581
-582
-550
-247
-226
-514
-560
-544
-180
-312
-514
-271
-560
-330
-544
-158
-180
-312
-271
-330
-158
-197
-186
-167
-172
-188
-179
-378
-274
86
113
21
-129
-195
-344
115
-27
-105
-299
-188
-182
-316
74
-110
-117
76
-260
-302
-197
-186
-167
-172
-188
-179
-378
-274
86
113
21
-129
-195
-344
115
-27
-105
-299
-188
-182
-316
74
-110
-117
76
-260
-302
-274
63
-112
-83
-105
-274
114
105
63
-123
-112
-78
-83
-105
114
105
-123
-78
-44
-44
-32
-20
266
294
271
-81
74
66
-32
-20
266
294
271
-81
74
66
-83
305
360
330
288
284
293
270
-29
-83
305
360
330
288
284
293
270
-29
-34
-34
269
310
285
269
-45
310
-104
285
-111
-45
-87
-104
-67
-111
-87
-67
-58
-52
-58
-53
-52
-76
-53
-120
-76
99
-120
95
99
124
95
-94
124
-94
-68
-54
-36
-7
261
-33
-109
111
-79
-68
-54
-36
-7
261
-33
-109
111
-79
310
133
321
-103
34
50
-113
-57
-74
310
133
321
-103
34
50
-113
-57
-74
-101
-101
-81
-81
-41
-41
-36
-36
-68
-68
-89
-89
-71
-71
-51
-51
-72
-72
-123
94
99
-116
-65
-18
280
315
339
-123
94
99
-116
-65
-18
280
315
339
352
333
262
-110
32
-275
18
105
-76
352
333
262
-110
32
-275
18
105
-76
-62
-62
-118
52
11
64
-66
-118
291
52
-85
11
64
-66
295
291
-85
25
-289
28
-118
-45
-41
-65
-62
-29
-14
-50
-93
-70
295
158
177
331
-58
25
-289
28
-118
-45
-41
-65
-62
-29
-14
-50
-93
-70
295
158
177
331
-58
-105
-46
308
379
151
158
156
136
355
333
353
145
176
162
380
364
380
139
-105
-46
308
379
151
158
156
136
355
333
353
145
176
162
380
364
380
139
375
339
340
340
132
132
170
170
131
131
280
280
-62
-62
-62
-62
272
382
238
588
386
387
272
621
382
629
238
407
588
386
387
621
414
629
623
407
590
388
504
825
414
510
623
391
590
605
388
504
825
510
391
605
441
441
843
652
839
425
843
652
839
425
530
223
530
555
223
454
555
454
827
812
812
420
420
521
521
196
196
219
219
230
230
142
142
-21
-21
110
110
98
-87
-34
-45
-79
-74
-36
-30
98
-87
-34
-45
-79
-74
-36
-30
-75
123
105
106
57
-323
-188
-198
-334
123
105
68
106
57
111
-323
34
-188
-312
-198
-292
-334
110
274
333
286
68
111
34
-312
-292
110
274
333
286
-35
-63
-103
43
-347
-141
-323
-35
-63
-103
43
-347
-141
-323
49
99
49
79
99
79
75
-112
267
157
594
826
1065
1001
-112
267
157
594
826
1065
1001
1389
1208
1208
1220
1220
1172
1172
1402
1402
1239
1239
1408
1408
1445
1445
1179
1179
707
707
584
584
209
204
209
294
204
-379
294
-880
-1002
-379
-1204
-880
-1002
-1204
-1547
-1566
-1269
-1182
-1328
-924
-704
-450
-532
-1547
-1566
-1269
-1182
-1328
-924
-704
-450
-532
-229
-207
-207
-338
-338
-120
-120
295
295
295
295
-47
-47
-77
-77
-14
-14
312
312
317
317
276
-12
-29
276
-54
-12
-68
-29
-37
-54
295
-68
-37
295
381
381
196
196
255
561
566
561
253
566
177
253
146
177
160
146
160
179
194
248
615
441
384
210
333
368
179
194
248
615
441
384
210
333
368
529
411
411
429
429
616
616
540
540
242
242
239
239
545
545
394
394
509
821
821
790
790
447
447
608
608
541
541
538
538
619
619
488
488
793
431
431
514
514
207
207
597
597
508
508
770
770
637
637
570
570
438
869
884
498
443
844
1035
1035
850
478
438
869
869
884
1125
498
970
443
1094
844
667
1035
678
1035
1109
850
1001
478
869
1125
970
1094
667
678
1109
1001
996
896
1073
1043
748
677
874
886
692
996
896
1073
1043
748
677
874
886
692
716
657
819
775
816
649
716
719
670
716
657
819
775
816
649
716
719
670
852
852
501
391
563
555
501
628
391
451
442
555
584
628
451
442
584
198
167
198
523
410
477
167
408
523
514
139
363
410
477
408
378
514
345
139
-29
93
363
56
-106
271
378
282
-124
345
-29
93
56
-106
271
282
-124
-336
-336
-188
-188
-135
-135
-260
-260
77
77
57
-268
57
-317
-268
-326
-317
-326
-327
-313
-258
73
77
-313
-526
-399
-609
-207
-327
-375
-313
-145
-258
-194
73
-160
77
-318
-313
-260
-526
-278
-399
-311
-609
-207
-375
-145
-194
-160
-318
-260
-278
-311
-309
-298
-324
-368
-362
-315
-328
-195
-581
-545
-310
-65
-20
68
-131
-182
-309
-340
-298
36
-324
-368
-362
-315
-328
-195
-581
-545
-310
-65
-20
68
-131
-182
-340
36
80
71
65
67
44
14
43
-108
-1
80
71
65
67
44
14
43
-108
-1
261
261
-97
62
67
-106
-62
126
19
10
-105
62
329
67
133
-106
297
-82
-62
-95
126
262
19
375
10
159
-105
329
133
297
-82
-95
262
375
159
129
129
333
279
-27
333
-52
279
-22
-27
296
-52
-22
296
289
321
289
256
256
285
285
334
334
310
310
-49
-49
-115
-53
329
363
-115
-53
329
363
-12
-12
79
79
32
-119
282
32
-119
310
282
-6
346
-16
310
-6
-16
275
275
285
285
-39
-39
87
87
-266
-266
18
18
-95
-95
307
307
347
347
282
282
-48
-48
-35
-35
325
325
185
185
231
231
156
156
-24
-24
29
29
-349
-349
-340
-340
4
4
72
72
86
86
101
101
-67
-67
315
315
371
371
314
-33
314
-49
-33
271
-49
316
271
275
316
-74
275
127
-74
-120
127
-120
-91
-75
-52
258
329
351
272
-120
46
-91
-75
-52
258
329
351
272
-120
46
77
77
-45
-45
348
348
131
131
327
327
269
269
285
285
328
328
280
280
117
-274
39
263
171
117
349
-274
127
39
26
263
-80
171
349
127
26
-80
174
554
247
180
199
222
383
-30
-67
174
554
247
329
180
213
199
149
222
-87
0
383
45
-30
-67
-60
256
-55
329
213
149
-87
0
45
-60
256
-55
-62
347
-62
548
347
603
237
382
139
227
548
252
603
237
382
139
227
252
178
348
319
318
297
280
330
196
567
178
605
348
319
318
297
280
575
330
528
196
227
567
181
169
247
405
605
777
575
528
227
181
169
247
405
777
481
604
559
427
844
481
633
168
132
604
559
427
844
837
633
209
168
132
190
-5
61
109
159
209
500
190
647
-5
827
61
109
159
500
647
827
431
615
431
608
615
598
608
548
598
216
548
374
216
-8
374
105
-8
105
-262
-262
-298
-298
-274
-274
11
11
12
12
-258
-258
-271
-282
-271
-282
-304
-304
-331
-333
-333
-297
-297
9
9
47
47
66
66
83
83
102
102
86
86
11
-331
-345
-266
89
-127
117
117
-112
11
-331
-345
-111
-266
85
89
34
-127
102
117
265
117
356
-112
-20
-277
-169
-111
85
34
102
265
356
-20
-277
-169
-288
325
410
824
857
696
942
-288
1234
325
1627
410
824
857
696
1274
942
1343
1234
1019
1374
1627
1197
1299
667
1274
553
130
1343
1019
1374
1197
1299
667
553
130
134
134
347
98
-574
-748
-1334
-1276
-1597
-1545
347
98
-574
-748
-1334
-1276
-1597
-1545
-1171
-1171
-1316
-1316
-972
-972
-1103
-1103
-645
-645
-416
-416
-256
-256
-183
-183
-381
-381
-279
-279
99
99
-86
-86
-88
-88
-118
-118
127
127
-111
-111
-69
-69
-10
-10
297
285
-56
122
-109
266
297
368
285
381
-56
362
122
-109
266
145
368
210
381
191
362
311
-74
-59
345
145
221
228
210
191
311
-74
-59
345
221
228
165
148
202
244
227
208
512
598
628
165
148
202
244
227
208
512
598
628
563
563
218
190
227
524
218
540
190
552
227
582
524
610
540
552
582
610
588
517
204
588
212
517
529
204
579
212
580
529
558
579
564
580
558
564
603
639
603
639
639
629
639
416
629
789
416
663
789
718
663
657
718
657
805
502
823
695
805
1041
1037
711
654
502
642
823
695
1041
1037
711
654
642
644
644
872
872
818
818
803
871
803
737
871
1074
737
1074
1045
1045
690
690
879
660
660
1025
1025
1085
1085
754
754
829
829
407
407
611
611
407
407
475
505
505
778
778
839
839
686
686
753
753
709
709
822
822
395
395
549
548
549
610
548
405
610
633
405
252
633
359
252
304
149
359
304
149
587
424
581
587
361
424
-66
581
-82
361
-10
-66
269
-82
-68
-10
269
-68
91
88
88
-86
-86
-40
-40
-114
-114
-257
-257
-353
-353
-356
-356
-321
-321
-321
-357
-380
-383
-149
-212
-536
-321
-545
-357
-238
-380
-383
-149
-193
-212
-536
-224
-545
-584
-238
-434
-482
-454
-620
-193
-235
-224
-362
-584
-434
-482
-454
-620
-235
-362
-296
-296
-331
-331
-177
-177
-513
-513
-241
-241
-148
-148
-328
-328
-339
-339
-163
-228
-229
-197
-163
-198
-246
-545
-513
-142
-266
-228
-229
-197
-198
-246
-545
-513
-142
-266
49
49
7
7
-324
-324
-348
-348
-300
-300
8
8
-268
-268
-358
-358
-190
-190
-217
-195
-184
-184
-200
-200
-186
-186
-335
-335
120
120
326
326
173
173
381
-21
98
50
76
95
53
381
-279
-329
-21
98
50
76
95
53
-279
-329
-333
-317
-333
-282
-282
61
-66
61
272
-66
-42
272
50
-42
-326
50
-326
-290
-290
105
105
-48
-48
-43
-43
-62
-62
-26
-26
295
295
302
302
-8
-8
-39
-14
266
-31
-103
-105
-5
361
364
-39
-14
266
-31
-103
-105
-5
361
364
256
256
-114
-114
122
122
-68
-68
-12
-12
-50
-50
69
69
-351
-351
-188
-188
-156
-289
-289
100
100
-67
96
-16
281
299
-4
-103
120
96
-97
-107
-97
259
-66
277
-17
118
-10
-380
-58
-516
-96
-198
-76
-277
120
-97
-97
-66
-17
-10
-58
-96
-76
-47
-109
-281
-47
-183
-109
-174
-281
15
-183
-25
-174
323
15
287
-25
323
287
-7
297
378
369
-7
-27
297
53
378
-279
369
35
-27
-116
53
-279
35
-116
-67
-67
-102
-102
102
123
-31
337
377
326
-7
102
123
-31
337
377
326
-7
-23
291
349
291
317
349
-66
66
317
65
-66
-32
66
187
65
-32
187
560
221
221
257
257
86
86
116
116
313
313
223
223
197
197
272
272
120
109
120
-92
109
-115
-92
32
-115
-267
32
123
329
-267
146
123
329
146
303
-60
303
-3
-60
183
-3
553
228
183
334
553
-4
228
-6
334
-4
-6
-33
-33
121
121
34
34
61
61
-84
-84
-2
-2
266
266
269
269
303
303
317
-15
-15
126
126
117
117
274
274
210
210
240
240
325
325
124
124
101
101
270
270
202
202
226
226
331
331
-109
-109
59
59
71
71
117
117
-101
-49
291
372
146
132
375
376
367
-49
291
372
146
132
375
376
367
340
340
324
324
350
350
135
135
143
143
367
367
340
340
343
343
357
357
351
351
341
365
165
341
365
200
165
200
191
191
184
184
231
231
579
579
403
437
437
454
454
490
490
778
778
475
475
581
581
144
144
323
323
149
556
556
629
629
558
558
175
175
133
133
222
222
620
620
457
457
467
430
430
387
387
578
578
215
215
348
348
266
266
-15
-15
-19
-19
-49
-112
-49
69
-112
20
69
14
20
58
14
-116
58
-44
-116
-34
-44
-34
-103
64
64
44
44
111
111
-72
-72
-92
-92
64
64
-258
-258
47
47
-104
-104
-76
90
-76
90
-288
-315
5
57
48
28
-288
-315
5
57
48
28
58
58
117
117
-127
-127
76
76
36
36
76
76
-77
-77
259
259
270
270
-12
-12
-3
-3
352
352
559
559
850
850
901
901
1405
1405
1550
1550
1598
1598
1565
1565
1206
1339
1283
1347
1206
1192
1165
1339
939
1283
882
1347
1192
1165
939
882
404
545
378
34
-418
-1048
-995
-1367
-1246
404
545
378
34
-418
-1048
-995
-1367
-1246
-1617
-1572
-1322
-742
-777
-448
-413
-571
-177
-1617
-1572
-1322
-742
-777
-448
-413
-571
-177
-346
-354
-139
-131
-300
90
-34
316
346
-346
-354
-139
-131
-300
90
-34
316
346
307
-19
-52
-14
307
303
-19
293
-52
-83
-14
29
303
-258
293
-83
29
-258
-127
333
216
233
190
176
214
254
514
-127
333
216
233
190
176
214
254
514
246
246
529
529
607
607
423
423
408
408
546
546
162
162
143
143
515
515
396
400
396
400
513
373
130
528
627
583
247
569
791
707
642
412
513
373
130
528
627
583
247
569
791
707
642
412
533
634
837
658
533
634
837
658
821
459
464
784
784
447
393
438
790
836
821
813
459
784
464
808
784
879
784
693
447
723
393
701
438
648
790
836
813
784
808
879
693
723
701
648
851
851
818
818
788
788
473
473
397
387
397
499
387
499
675
675
1028
1028
719
858
823
647
732
718
887
719
833
858
847
823
647
732
718
844
887
487
833
582
847
239
551
434
844
494
487
397
582
239
551
434
779
494
397
566
566
518
518
230
230
199
199
193
193
225
225
252
252
205
205
342
342
-24
-24
-47
-47
259
259
303
303
292
292
-9
-9
-47
-47
-76
-76
-126
-126
69
46
98
-68
-26
-78
72
-268
-303
69
46
98
-68
-26
-78
72
-268
-303
-328
-133
-215
-133
-514
-215
-228
-514
-156
-228
-374
-156
-149
-374
-213
-149
-213
-254
-254
-242
-242
-186
-186
-374
-374
-326
-326
-334
-334
-148
-148
-228
-228
-229
-229
-379
-379
4
4
17
17
-362
-362
-256
-256
-572
-572
-547
-547
-535
-535
-568
-568
-558
-178
-178
-275
-275
20
20
-364
-364
-515
-515
-522
-522
-148
-148
-324
-324
-381
-381
-230
-230
-228
-228
-365
-365
-263
-263
-287
-287
-138
-138
-207
-207
-184
-184
-380
-380
-344
-344
-325
-312
-325
-331
-312
-143
-331
-201
-143
-148
-201
26
-148
26
-65
-65
-48
-48
83
83
-300
-300
-330
-330
-290
-290
-261
-261
4
4
42
42
114
-109
83
-284
-329
-264
91
127
101
114
-109
83
-284
-329
-264
91
127
101
72
71
83
87
99
125
123
71
54
83
-293
87
99
125
123
54
-293
-303
-303
57
-84
57
-88
-84
56
-88
-269
56
70
-269
-16
70
313
-16
313
-49
33
-306
-262
73
112
113
-126
-92
-49
33
-306
-262
73
112
113
-126
-92
-96
92
92
15
15
23
23
-101
-101
330
330
161
161
350
350
-73
-73
55
55
66
-91
66
-35
-91
-79
108
116
-35
-66
-79
-37
108
116
-66
-37
-116
-116
37
37
61
61
-15
-15
168
168
178
178
261
261
60
60
-267
-267
57
-106
-84
-105
-84
-12
278
-51
82
52
-71
-106
-84
136
-105
235
-84
149
-12
-36
278
99
-51
122
82
-34
52
-71
136
235
149
-36
99
122
-34
288
-1
-116
34
20
115
-5
318
263
288
-1
-116
34
20
115
-5
318
263
-103
116
-57
305
307
-66
72
67
-92
-103
116
-57
305
307
-66
72
67
-92
-4
-4
266
265
328
159
266
136
265
-54
328
-285
159
-362
136
-54
-285
-362
19
19
-67
-67
-41
-41
73
73
-327
-327
-321
-321
80
80
-26
-26
272
272
-29
-29
-78
-78
-95
-95
-92
-92
-103
-103
-121
-121
-118
-118
-81
-81
-30
-30
-4
-23
-63
-89
-87
-78
-90
127
111
-4
-23
-63
-89
-87
-78
-90
127
111
-97
-11
296
266
-61
-77
262
130
183
-11
367
-37
108
102
-71
284
339
335
287
296
266
-61
-77
262
130
183
367
-37
108
102
-71
284
339
335
287
-28
-71
-28
-71
-91
-92
-84
-68
-31
276
299
-1
-74
-75
305
214
521
148
-31
-114
-91
-92
-84
-68
-31
276
299
-1
-74
-75
305
214
521
148
-31
-114
-83
-52
-102
89
-125
286
160
140
260
-52
-102
89
-125
286
160
140
260
-94
-67
289
343
309
257
265
322
351
-94
-51
289
-98
343
-46
309
309
348
257
265
282
322
-79
351
-100
300
-51
-98
-46
309
348
282
-79
-100
273
191
273
538
241
191
159
538
161
241
248
159
538
161
163
248
538
163
-23
-68
-23
377
-68
386
377
483
616
386
483
616
218
532
511
218
532
511
680
875
680
875
423
563
423
590
563
590
617
617
255
255
333
333
278
278
169
390
494
422
535
207
238
544
519
169
142
-8
390
-102
494
-122
422
535
-121
207
96
20
238
-272
544
51
519
142
-8
-102
-122
-121
96
20
-272
51
-81
-81
-19
-84
37
-306
-304
-287
-323
-370
-334
59
-77
-105
15
-298
112
382
530
-19
-84
37
-306
-304
-287
-323
-370
-334
59
-77
-105
15
-298
112
382
530
168
-74
168
29
-74
58
29
-97
58
-87
-97
72
-87
-276
72
-269
-276
-269
45
71
45
57
71
57
63
63
125
125
-59
-59
-6
-6
332
332
247
247
482
692
692
1091
1091
979
979
1203
1203
1467
1467
1881
1881
1856
1856
1469
1469
1619
1619
1580
1278
1580
1278
1154
964
1154
760
964
813
760
588
813
323
588
323
15
15
-592
-592
-718
-718
-1316
-1316
-1263
-1263
-1267
-1267
-1373
-1373
-942
-942
-1092
-1092
-1052
-740
-1052
-845
-740
-585
-845
-300
-585
-120
-118
3
-150
-300
-120
-118
3
-150
-227
-221
-166
-315
94
-37
-44
68
-326
-227
-221
-166
-315
94
-37
-44
68
-326
-304
-304
125
125
294
294
331
331
258
258
-90
-90
105
105
72
72
83
83
-87
-87
295
295
363
363
327
327
267
267
292
136
292
194
136
156
194
156
358
132
358
217
245
132
217
183
245
383
183
171
383
542
171
632
542
632
411
449
772
804
467
562
198
234
618
411
448
449
410
772
553
804
467
224
562
514
198
615
234
429
618
424
397
448
410
553
224
514
615
429
424
397
431
431
793
793
877
877
849
479
396
430
786
827
849
479
396
430
786
827
775
476
785
895
775
681
476
785
864
793
856
760
895
681
1093
864
725
793
780
856
427
760
487
829
819
770
1093
824
725
780
427
487
829
819
770
824
754
900
1097
873
442
459
837
851
417
754
188
900
359
1097
207
873
607
442
639
459
580
837
566
851
406
417
500
188
359
207
607
639
580
566
406
500
428
195
-15
-15
159
545
232
311
-69
428
195
-15
-15
159
545
232
311
-69
-58
266
272
-54
126
99
89
34
-330
-58
266
272
-54
126
99
89
34
-330
-178
-178
-210
-210
-156
-156
-313
-313
15
15
12
12
-329
-329
-201
-201
-555
-555
-574
-574
-519
-186
-186
-157
-157
-187
-187
-218
-218
-183
-183
-342
-342
-268
-268
-294
-137
-198
-144
-291
-262
-374
-541
-608
-294
-137
-198
-144
-291
-262
-374
-541
-608
-518
-518
-360
-360
-268
-268
-287
-287
-355
-355
-142
-142
-151
-151
-150
-150
-153
-153
-144
-366
-326
-296
-276
0
8
-280
-350
-144
-366
-146
-360
-326
23
-296
-128
-276
89
0
-344
8
-242
-280
-209
-350
0
-146
-360
23
-128
89
-344
-242
-209
0
-63
-63
-66
-66
8
8
-172
-172
-192
-192
-315
-315
93
93
-102
-102
-128
-128
94
120
-54
271
-3
-111
36
37
-101
94
120
-54
271
-3
-111
36
37
-101
276
280
280
-93
39
39
17
17
96
96
-67
-67
-36
-36
-74
-74
117
117
76
76
91
91
-109
-109
-78
-78
118
118
-257
-257
-306
-306
50
50
-47
-47
-16
-16
92
-316
-316
-262
-262
-20
-20
178
178
152
152
-20
-20
-123
-78
-20
-96
-271
-372
-316
52
78
-257
-332
-322
11
79
104
113
-117
-85
-123
-78
-20
-96
-271
-372
-316
52
78
-257
-332
-322
11
79
104
113
-117
-85
-75
-75
-95
126
-95
104
126
119
104
-88
119
-35
-88
-24
-35
-77
-24
-77
100
100
59
88
-91
-14
278
257
-69
98
39
35
81
-104
-31
278
281
-26
-90
59
88
-91
-14
278
257
-69
98
39
35
81
-104
-31
278
281
-26
-90
-101
-101
-33
-33
309
321
-21
124
59
47
43
309
321
39
-21
73
124
-88
59
266
267
-102
47
38
43
47
-78
39
73
-88
266
267
-102
38
47
-78
297
289
289
-66
-66
-124
-124
-78
-78
-1
-1
-4
-4
-92
-92
88
88
108
-70
-70
-20
-31
-31
-70
-70
-98
-118
-118
121
121
126
126
-90
-49
-75
90
21
43
112
126
51
-90
-49
-75
90
21
43
112
126
51
-279
-279
16
-98
258
-52
34
-347
-298
-108
322
352
-4
-117
114
-83
-12
281
280
16
-98
258
-52
34
-347
-298
-108
322
352
-4
-117
114
-83
-12
281
280
-8
-69
-8
118
-69
75
118
56
75
26
56
26
-283
-304
35
-304
35
-63
-63
289
289
-41
-41
39
39
-305
-305
52
52
-4
-4
381
381
367
367
266
-86
104
68
88
-72
312
375
320
266
-86
104
68
88
-72
312
375
320
-51
120
94
85
73
87
-99
257
314
293
-12
120
256
94
361
85
241
73
556
87
220
-99
293
257
119
314
293
-12
256
361
241
556
220
293
119
52
103
-52
269
264
-27
-17
313
52
134
103
-52
269
380
264
276
-27
-88
-17
-103
313
-15
134
332
330
-17
380
-105
276
-88
-103
-15
332
330
-17
-105
-104
-104
-18
343
151
-18
160
128
343
313
151
-48
160
100
128
313
-48
100
49
49
93
-68
-12
93
-41
-68
-12
-115
-41
96
-115
103
96
-127
103
-127
-105
-71
-16
279
260
-52
-73
-31
288
-105
-71
-16
279
260
-52
-73
-31
288
315
323
364
166
166
339
259
280
381
323
364
166
166
198
339
193
259
172
280
200
381
243
222
139
198
360
193
202
172
200
243
222
139
360
202
634
634
492
492
458
458
580
580
214
214
217
217
576
576
429
429
443
443
596
596
194
194
376
376
163
163
525
525
602
602
616
616
607
607
624
624
405
419
405
625
419
243
625
339
243
-51
339
-123
-51
-123
112
112
103
103
81
56
81
44
56
22
44
-285
22
-323
-285
-323
-267
-104
310
320
-100
-302
-134
-343
-270
-273
-357
-196
-267
-104
310
320
-100
-302
-134
-343
-270
-273
-357
-196
-250
-518
-518
-248
-248
-208
-208
-137
-137
-292
-292
59
59
104
104
78
78
9
9
-292
-292
-265
-265
90
-67
90
-57
-67
112
-57
13
112
9
13
9
116
266
266
133
133
236
236
407
407
693
693
1287
1287
1544
1544
1634
1634
1589
1589
1537
1598
1537
1503
1598
1503
1885
1885
1823
1823
1553
1553
967
967
1040
1040
1057
1109
1109
727
727
623
623
-90
-90
-229
-229
-797
-797
-1070
-1070
-1292
-1292
-1155
-1176
-1169
-1396
-996
-688
-1155
-608
-1176
-211
-1169
-556
-1396
-996
-688
-608
-211
-556
-404
-404
-571
-347
29
-571
-319
-347
-242
29
-573
-319
-520
-242
-197
-573
-520
-197
-172
-380
-267
90
84
-262
-313
-172
7
-380
-104
-267
90
84
-262
-313
7
-104
290
290
377
154
363
-25
93
74
-49
371
377
154
166
363
369
-25
346
93
171
74
531
-49
541
371
209
167
234
166
369
346
171
531
541
209
167
234
596
606
236
361
325
148
532
388
455
606
236
361
325
148
532
388
455
475
453
415
399
417
475
431
453
404
415
611
399
604
417
431
404
611
604
412
506
506
804
804
502
502
427
427
422
422
778
778
654
654
693
693
853
447
625
411
508
824
817
787
787
817
834
853
815
508
457
447
453
502
625
823
411
850
508
824
817
787
787
817
834
815
508
457
453
502
823
850
826
826
810
810
851
851
659
659
672
672
877
877
828
828
828
828
812
812
441
513
151
224
405
771
462
584
241
247
532
514
193
379
330
288
-25
-99
441
513
151
224
405
771
462
584
241
247
532
514
193
379
330
288
-25
-99
106
106
118
118
-57
-57
297
297
348
348
333
333
274
274
-56
-56
98
98
-293
-293
-152
-174
-174
-354
-354
-273
-273
-289
-289
-144
-144
-237
-237
-215
-215
-347
37
95
76
10
-341
-200
-546
-557
-347
37
95
76
10
-341
-200
-546
-557
-238
-185
-218
-238
-185
-218
-578
-397
-619
-514
-187
-578
-397
-619
-514
-187
-190
-190
-197
-132
-132
-288
-288
-263
-263
-360
-360
-229
-229
-252
-252
-169
-169
-362
-362
-170
-572
-572
-402
-402
-597
-597
-191
-191
-343
-343
-357
-357
-179
-179
-217
-217
-153
-289
-289
38
38
-271
-271
-159
-159
-522
-522
-229
-229
-326
-326
86
86
-128
53
-311
-372
-369
-328
-286
-266
-271
-284
-274
18
51
58
61
106
-74
-43
-128
53
-311
-372
-369
-328
-286
-266
-271
-284
-274
18
51
58
61
106
-74
-43
-107
-107
38
-287
-292
-291
-314
-305
46
-92
38
-287
-292
-291
-314
-305
46
-92
-79
44
-357
-349
62
-46
-26
-88
-108
-79
44
-357
-61
-349
62
-46
-26
-88
-108
-61
-30
-70
125
121
-84
-61
-106
78
-30
-70
125
121
-84
-61
-106
78
43
39
15
-275
5
121
-2
294
-50
43
39
15
-275
5
121
-2
294
-50
73
2
27
103
-96
-97
106
45
31
73
2
27
103
-96
-97
106
45
31
92
92
-65
-65
262
262
286
286
301
301
343
343
365
365
282
282
100
100
-300
-278
-118
273
266
-84
-126
-56
308
-300
-278
-118
273
266
-84
-126
-56
308
363
343
299
-1
-64
103
31
32
102
363
343
299
-1
-64
103
31
32
102
-72
-72
-17
-17
264
264
275
275
272
272
-1
-1
-11
-11
260
260
289
289
296
296
257
257
-70
-70
-125
-125
126
126
-103
-103
-95
-95
116
116
55
55
60
-76
60
347
147
-76
276
347
70
147
-275
276
93
70
293
-275
93
293
129
306
-90
129
91
91
306
91
-90
67
91
78
-91
91
263
91
-2
113
-288
-289
113
-2
-2
-119
67
78
-91
263
-2
113
-288
-289
113
-2
-2
-119
55
112
-13
299
-46
76
54
-78
337
55
112
-13
382
299
278
-46
123
76
39
54
66
-78
-123
337
-101
124
93
382
278
123
39
66
-123
-101
124
93
114
114
-88
-88
-55
-55
-71
-71
-106
-106
-112
-112
-73
-73
-10
-10
301
301
310
-16
109
15
72
310
278
-16
206
109
171
15
-78
72
278
206
171
-78
-316
-315
-93
363
334
124
-297
-257
-76
-316
-315
-93
363
334
124
-297
-257
-76
317
297
297
-72
-122
-122
-26
-26
143
143
234
234
152
152
-56
-56
27
27
6
6
107
107
-60
-60
-64
-116
-123
-71
-36
-64
-116
-123
-71
-36
-81
-81
107
107
-126
263
-126
263
133
365
-60
44
133
61
365
-60
44
61
-25
-25
154
231
231
209
209
172
172
164
164
143
143
307
307
-87
-87
83
83
127
127
271
271
134
134
365
365
-45
-45
86
86
-119
-119
347
347
543
559
543
145
559
-23
145
-59
-23
276
-59
349
276
350
349
325
350
325
362
362
216
216
572
572
582
582
253
253
184
184
193
193
528
528
610
610
636
605
559
549
586
636
626
605
617
559
562
549
529
586
626
617
562
529
576
439
797
791
406
240
155
195
539
576
439
797
791
406
240
155
195
539
541
541
136
136
-102
-102
-291
-291
-344
-344
-293
-293
33
33
77
77
105
105
-114
-86
-92
-86
-92
-128
-128
98
109
98
-75
109
277
-75
314
277
314
-34
-34
21
21
-152
-143
-152
48
-143
-11
48
264
-11
101
264
-336
101
-336
-381
-290
61
63
-282
-132
-175
-365
49
-381
-290
61
63
-282
-132
-175
-365
49
-57
-24
-57
-102
-24
118
-102
256
118
254
422
254
404
422
404
578
578
389
389
659
659
998
998
1270
1270
1452
1452
1831
1831
1889
1889
1854
1854
1522
1522
1501
1810
1851
1793
1645
1810
1213
1851
1021
1793
1026
1645
437
1213
1021
1026
437
322
322
-293
-293
-385
-385
-725
-725
-1016
-1016
-1197
-1197
-1254
-1254
-1236
-1236
-1171
-1171
-1292
-1075
-817
-1292
-592
-1075
-178
-817
-341
-592
-312
-178
-356
-341
-192
-312
-356
-192
-241
-182
-241
-293
-182
111
-293
-84
111
122
-84
16
122
-327
-337
16
-327
-337
11
-83
322
370
309
-42
-78
-8
128
11
-83
322
370
309
-42
-78
-8
128
237
237
513
186
513
332
186
-11
332
-30
-11
281
-30
373
281
193
373
193
225
217
225
205
217
206
205
211
206
209
211
214
209
242
214
539
242
539
573
573
600
600
395
395
472
472
779
779
776
776
771
771
833
833
702
702
1049
736
1049
783
736
549
783
174
549
224
174
631
224
510
631
789
510
789
443
443
608
608
639
639
810
810
742
742
1056
1056
708
708
848
848
836
836
664
727
682
826
496
792
666
1061
1132
664
727
682
826
496
792
666
1061
1132
1089
693
802
506
868
763
1089
693
802
506
868
763
1055
674
771
1055
674
771
469
807
640
647
868
881
689
703
849
469
807
640
647
868
881
689
703
849
419
570
605
468
802
505
639
551
574
419
570
605
468
802
505
639
551
574
413
450
613
205
133
177
216
380
-75
413
450
613
205
133
177
216
380
-75
36
61
61
-53
-53
311
311
296
296
-62
-62
96
96
60
60
67
67
67
67
29
29
-289
-289
-330
-330
-317
-317
-282
-302
-163
-562
-282
-302
-163
-562
-607
-517
-384
-330
-607
-135
-517
-237
-384
-542
-330
-534
-135
-252
-237
-542
-534
-252
-225
-169
-345
-225
-322
-169
-172
-345
-611
-322
-451
-172
-584
-611
-317
-451
-584
-317
124
71
-150
-574
-537
-344
88
117
12
124
71
-150
-574
-537
-344
88
117
12
-377
-377
-166
-328
-166
100
-65
84
-157
-565
-218
-328
100
-65
84
-157
-565
-218
26
-84
-84
91
91
-354
-354
-177
-177
-332
-332
85
85
-91
-91
-107
-107
112
112
97
85
65
97
85
65
63
63
88
88
123
123
-90
-90
-26
-26
311
336
336
-10
-10
88
88
5
5
83
83
-2
-2
365
365
336
336
-54
-54
65
65
7
7
59
59
-58
-58
339
339
378
378
281
281
-119
-119
90
90
-70
-70
312
312
317
-69
317
76
-69
-126
76
318
-126
190
318
190
381
381
-44
-44
-112
-112
265
265
185
185
222
222
350
350
-59
-59
-119
-119
-117
97
9
-117
-271
97
88
9
-9
-271
327
88
284
-9
-65
327
284
-65
-121
-110
-46
287
313
-11
-125
79
-119
-121
-110
-46
287
313
-11
-125
79
-119
-46
-82
50
14
-87
-46
376
-82
151
50
-19
14
-87
85
376
151
-19
85
-118
328
179
367
258
-118
-11
286
328
-14
179
112
367
258
-11
286
59
-14
112
-71
359
59
363
-71
-81
359
13
363
59
-81
-17
13
333
59
-17
333
256
-91
-13
-91
195
563
199
-13
257
-52
195
351
563
199
257
-52
351
515
244
318
-92
-84
274
314
-9
-80
515
244
318
-92
-84
274
314
-9
-80
-37
-37
371
371
255
518
130
-40
-120
-64
314
255
518
130
-40
-120
-64
314
381
347
264
-36
-29
-32
-63
-52
324
381
347
264
-36
-29
-32
-63
-52
324
237
550
140
-122
-263
77
260
340
267
237
550
140
-122
-263
77
260
340
267
-83
-83
-67
-67
297
297
129
129
149
149
148
148
173
173
191
191
146
146
309
-18
-27
-9
-4
309
261
-18
308
-27
369
-9
373
-4
261
308
369
373
302
-25
302
-10
-25
343
-10
168
343
148
168
308
148
-32
308
-48
-32
-48
-21
-21
-13
-13
-49
-49
-100
-100
-123
-123
-87
-87
-14
-14
283
283
-12
-12
-96
-96
-118
-118
-23
133
234
241
221
243
537
-23
133
234
241
221
243
537
254
147
309
309
317
317
140
140
183
183
378
378
265
265
-64
-64
-53
-53
267
267
348
348
171
171
222
222
223
223
196
196
181
181
192
192
191
191
152
152
381
381
189
189
588
588
429
429
625
625
206
206
361
361
170
596
477
499
426
586
534
566
429
170
596
477
499
426
586
534
566
429
834
659
870
492
407
434
509
782
448
834
659
870
492
407
434
509
782
448
625
625
409
810
409
810
658
845
399
544
395
658
845
399
544
395
881
745
890
407
527
745
535
890
554
407
198
527
272
535
-120
554
198
272
-120
109
-115
-115
-91
-82
-68
-72
-114
108
-82
-91
332
-82
166
-68
291
-72
-262
-114
-239
108
-222
-82
-268
-97
-117
332
166
291
-262
-239
-222
-268
-97
-117
11
11
-296
-296
43
43
-118
-118
122
122
35
35
20
20
116
116
-65
-65
113
113
-321
-148
-307
92
91
-303
-384
-273
-57
324
312
323
530
655
1299
1568
1465
-321
-148
-307
92
91
-303
-384
-273
-57
324
312
323
530
655
1299
1568
1465
1812
1812
1851
1851
1837
1837
1821
1821
1884
1756
2049
1830
1884
1756
1388
2049
1830
1388
692
448
608
159
-292
-880
-1347
-1563
-1626
692
448
608
159
-292
-880
-1347
-1563
-1626
-1436
-1501
-1430
-1178
-1501
-1430
-1178
-1137
-699
-881
-512
-544
-1137
-699
-881
-512
-544
-317
34
34
26
71
71
-22
-22
133
133
382
382
-20
-20
125
125
-91
-91
276
276
298
298
-64
-64
82
82
108
108
260
260
154
154
215
215
234
556
416
483
430
555
556
197
416
167
483
140
430
555
197
167
140
306
-49
-21
182
424
-49
509
-21
639
182
201
424
163
509
639
201
163
573
777
777
853
502
853
590
502
590
208
175
208
220
175
583
220
583
475
858
475
887
858
805
887
450
805
458
450
838
458
705
838
711
705
711
871
871
792
792
796
796
813
813
501
501
413
416
795
650
413
416
795
650
873
494
458
873
494
458
837
722
716
842
837
722
716
842
782
895
1062
1078
660
494
503
669
1102
912
1133
782
895
1062
1078
660
494
503
669
1102
912
1133
1078
1078
1055
1055
1054
1054
1040
1040
743
743
701
701
705
705
1029
1029
1101
1101
1082
1082
696
824
839
740
1120
1049
836
427
445
784
492
584
206
517
427
777
445
696
824
839
740
1120
1049
836
427
445
784
492
584
206
517
427
777
445
533
158
147
533
206
158
524
147
544
206
524
247
544
141
247
272
141
272
-56
-56
-54
-54
-36
-36
-65
-65
113
113
58
58
67
67
94
94
67
67
-272
-337
-336
-300
-301
-355
-173
-227
-520
-337
-336
-300
-301
-355
-173
-227
-520
-549
-554
-516
-191
-554
-145
-516
-158
-191
-218
-145
-536
-550
-249
-167
-345
-307
-321
-249
-380
-167
-200
-514
-345
-532
-307
-321
-380
-200
-244
-514
-164
-532
-327
-293
-362
-244
-235
-164
-566
-327
-513
-293
-382
-362
-235
-566
-513
-303
-382
-352
-212
-525
-303
-233
-192
-352
-231
-212
-558
-525
-233
-527
-192
-231
-558
-527
-359
83
-125
30
-335
-339
-285
-278
-327
83
-125
30
-335
-339
-285
-278
-327
-338
-338
0
0
109
109
-127
-127
66
66
35
35
113
113
-25
-25
279
279
-10
-44
-44
-42
-42
-61
-61
112
112
25
25
45
45
-75
-75
290
290
-9
107
44
-122
271
310
-11
-69
-52
107
44
-122
271
310
-11
-69
-52
-17
-17
-25
-25
-61
-61
-71
-71
-69
-69
-113
-113
73
73
81
-55
81
-55
304
-19
33
-360
304
-288
-19
-97
33
262
-360
-59
-288
79
-97
262
-59
41
75
77
23
18
-103
368
230
133
79
41
75
77
23
18
-103
368
230
133
-90
-90
40
40
-122
-122
349
349
200
200
328
328
78
78
-337
-337
-305
-305
76
-116
-116
99
53
99
90
53
-81
90
-38
-81
-68
-38
-108
-68
-108
-88
-23
263
-34
-23
-94
263
-104
-34
-74
-94
-86
-104
72
-74
-86
72
-305
-305
-343
-343
-283
-283
45
45
50
50
17
17
28
28
85
85
117
117
88
69
-113
88
268
293
-104
69
-288
-113
-326
268
84
293
-104
-288
-326
84
275
275
332
332
262
262
-46
-46
266
266
362
362
380
380
293
293
-59
-59
-63
-63
273
349
359
314
267
-10
-13
-8
273
256
349
263
359
262
314
-5
267
-19
-10
-52
-13
-109
-8
94
117
256
263
262
-5
-19
-52
-109
94
117
-11
162
-11
512
162
189
512
263
189
97
263
55
97
-112
55
297
-112
297
164
164
183
183
348
348
-45
-45
-109
-109
-40
367
-40
223
367
223
223
223
160
129
160
160
129
160
192
164
360
366
230
387
192
164
360
366
230
387
454
454
397
397
563
563
552
552
631
631
461
461
491
491
472
472
428
428
611
611
253
253
167
167
168
168
253
253
581
581
570
570
526
526
561
561
432
769
424
209
311
323
158
150
-31
-266
-131
-333
432
77
769
-46
424
-11
209
-59
311
110
323
21
158
150
-31
-266
-131
-333
77
-46
-11
-59
110
21
-312
-312
-377
-377
-166
-166
-174
-174
-135
-135
-323
-323
-275
-275
-290
-290
-354
-354
-141
-357
-357
21
21
-95
-95
-27
-27
-88
-88
13
13
-136
-136
-188
-188
-378
-378
-263
-263
73
73
89
68
68
39
39
6
6
-280
-280
-267
-267
88
-14
368
185
552
798
1150
88
1182
1538
-14
368
185
552
1240
798
1202
1150
1254
1182
1594
1538
1597
1220
1007
757
1240
510
1202
1254
1594
1597
1220
1007
757
510
560
144
-15
1
-636
-1112
-1540
-1532
-1812
560
144
-15
1
-636
-1112
-1540
-1532
-1812
-1416
-1240
-1376
-1310
-1240
-962
-1376
-1039
-1310
-804
-962
-595
-1039
-190
-804
-595
-190
-335
-335
2
2
17
17
-310
-310
-148
-148
-160
-160
-316
-316
69
69
-113
-113
-104
-104
-119
-119
109
109
67
67
56
56
-19
-19
306
306
166
166
147
147
303
303
256
256
295
295
319
319
-11
-11
-113
-113
-88
-88
353
353
544
544
575
187
575
310
187
315
310
183
315
543
183
523
543
151
523
301
151
301
289
289
359
190
241
359
190
517
241
547
595
517
626
547
610
595
626
610
563
531
563
535
531
538
535
538
249
249
213
213
254
254
631
631
471
471
433
433
551
551
206
206
537
537
467
467
863
863
876
876
804
804
460
460
386
596
639
799
740
1076
738
386
884
596
640
639
799
740
1076
738
884
640
1027
1120
1084
731
695
727
722
885
787
1027
1120
1084
731
695
727
722
885
787
794
657
1036
794
657
1036
1063
745
675
647
887
828
472
398
407
486
808
792
452
626
594
1063
745
675
647
887
828
472
398
407
486
808
792
452
626
594
611
390
611
414
409
390
614
414
512
409
148
614
354
512
135
148
354
135
226
553
562
226
513
553
179
562
347
513
257
179
-73
347
-84
257
-73
-84
-25
295
295
268
268
119
119
-307
-307
-345
-345
31
31
-84
-84
-78
-78
42
-362
-171
-192
-517
-387
-491
-770
-476
42
-362
-171
-192
-517
-387
-491
-770
-476
-421
-609
-609
-532
-224
-532
-224
-224
-251
-224
-242
-251
-185
-242
-134
-185
-134
-136
-136
-190
-526
-619
-190
-445
-454
-594
-154
-301
-526
-619
-352
-445
-230
-454
-553
-594
-250
-154
-178
-301
-182
-255
-555
-518
-352
-230
-553
-250
-178
-182
-255
-555
-518
-212
-223
-527
-513
-145
-278
13
-280
-289
-212
-223
-527
18
-513
25
-145
-359
-278
-535
13
-573
-280
-180
-289
-309
-361
18
-254
25
-359
-535
-573
-180
-309
-361
-254
-522
-334
97
64
-325
-282
-522
-8
-334
220
97
130
64
-325
-282
-8
220
130
64
-144
-301
-47
343
279
-101
99
93
64
68
-144
33
-301
43
-47
90
343
108
279
69
-101
33
99
65
93
-128
68
33
43
90
108
69
33
65
-128
-118
92
81
-86
297
334
-12
-122
113
-118
-101
92
81
-118
-86
16
297
-368
-378
334
-291
-12
4
-122
-345
113
-221
-101
-118
16
-368
-378
-291
4
-345
-221
-216
-216
-270
-6
-270
140
-6
140
373
373
265
-85
265
120
-85
99
120
99
89
89
79
79
50
50
-271
-271
-336
-336
-347
-347
-294
-294
35
85
35
85
-120
-36
-36
287
287
-14
-14
68
68
-371
-371
-159
-159
-320
-320
23
23
-270
-270
-374
-136
-279
115
-374
-90
-136
-120
-279
120
115
-90
-120
120
-92
-39
-33
-87
77
-297
-151
-166
-282
-63
-39
-33
-87
77
-297
-151
-166
-282
-63
318
261
110
29
83
-73
-31
-34
-17
318
261
110
29
83
-73
-31
-34
-17
266
266
-21
-114
-21
93
-114
93
-87
-87
322
322
156
156
370
370
271
271
-30
-11
-11
266
266
-5
-5
-9
-9
309
309
167
167
523
523
555
555
512
180
512
364
322
180
319
364
350
322
130
319
133
350
352
130
133
352
298
269
289
367
298
269
289
235
367
617
235
438
617
446
438
399
446
399
580
244
170
371
357
377
380
311
-80
580
244
170
371
357
377
380
311
-80
51
51
4
4
36
36
99
99
-102
-102
-67
-67
-65
-65
-126
-126
12
12
-349
-349
-366
-366
-298
-298
43
43
79
79
56
56
-262
-262
-343
-343
-157
-157
-163
-323
75
-123
34
-150
-522
-246
-159
-163
-323
75
-123
34
-150
-522
-246
-159
-355
-312
28
-108
-55
119
-282
-345
-355
-260
-312
28
-108
-55
119
-282
-345
-260
-115
-57
-120
63
107
299
576
845
1072
-115
-57
-120
63
107
299
576
845
1072
1007
1155
1220
1184
1338
1010
1007
1282
1155
1328
1220
1006
1184
1338
1010
1282
757
1328
415
1006
139
-32
27
757
-603
415
139
-32
-1122
-1583
-1797
27
-603
-1122
-1583
-1797
-1508
-1647
-1602
-1632
-1629
-1227
-925
-829
-570
-1508
-1647
-1602
-1632
-1629
-1227
-925
-829
-570
-229
-229
-520
-540
-520
-195
-540
-305
-195
43
-305
40
43
15
40
69
15
69
-63
-63
276
276
-18
122
-18
43
122
67
43
67
-94
-94
-4
-4
300
300
335
335
370
370
374
374
315
315
-19
-19
-25
-25
335
335
207
207
223
223
346
-73
-118
-19
383
232
554
599
588
346
-73
-118
-19
383
232
554
599
588
224
224
336
336
292
292
145
145
548
548
583
233
583
137
233
141
137
141
201
231
226
254
576
596
522
201
231
226
254
576
596
522
184
209
585
413
395
621
445
855
650
506
541
184
209
180
585
228
413
553
395
523
621
182
445
173
855
543
650
422
506
465
541
180
228
553
523
182
173
543
422
465
415
634
424
506
781
435
545
199
229
415
634
424
506
781
435
545
199
229
603
483
841
895
664
670
483
640
831
841
511
895
664
670
640
500
831
802
836
781
395
500
802
545
543
836
619
781
410
395
545
543
619
410
627
627
567
567
583
583
397
397
395
395
244
244
297
297
-29
-29
368
368
587
419
558
356
-18
-15
265
-39
112
587
419
558
356
-18
-15
265
-39
112
40
46
71
28
-347
-199
-212
-373
-260
46
71
28
-347
-199
-212
-373
-260
19
-329
-217
-571
-576
-522
-221
-216
-228
19
-329
-217
-571
-576
-522
-221
-216
-228
-214
-173
-159
-209
-539
-561
-234
-139
-133
-214
-173
-159
-209
-539
-561
-234
-139
-133
-513
-513
-430
-430
-776
-776
-472
-472
-619
-619
-564
-564
-600
-600
-396
-396
-637
-637
-552
-215
-215
-205
-205
-254
-254
-538
-538
-223
-223
-359
-359
-269
-269
-298
-298
-183
-183
-589
-640
-589
-640
-580
-247
-244
-564
-607
-566
-580
-247
-244
-564
-607
-566
-227
-227
-189
-189
-204
-204
-202
-202
-137
-137
-317
-317
-319
-319
-164
-164
-539
-539
-580
-580
-536
-536
-199
-199
-379
-379
-302
-302
39
39
95
95
76
76
-268
-268
-362
-147
-130
-355
-350
-366
-372
-343
-298
-362
-147
-130
-355
-350
-366
-372
-343
-298
-262
23
66
-123
-74
-109
21
-370
-144
-262
23
66
-123
-74
-109
21
-370
-144
-283
-109
-16
-73
37
-109
-327
-16
-325
-73
0
37
49
-327
-325
0
49
35
35
-270
-292
-292
-272
-272
22
22
40
40
18
18
-277
-277
-287
-287
28
-110
-110
-8
-8
-7
-7
-116
-116
12
12
-285
-285
41
41
-117
-117
-83
123
34
-287
-300
-266
57
123
-102
-99
-96
-90
-124
35
-317
-311
64
-78
-83
123
34
-287
-300
-266
57
123
-102
-99
-96
-90
-124
35
-317
-311
64
-78
-96
-96
27
27
-333
-315
-333
24
40
-305
-148
-315
-141
24
40
-305
-148
-141
-281
-281
86
85
-267
-337
-280
127
-20
-57
86
85
-267
-337
-280
127
-20
-57
71
71
0
0
57
57
-100
-100
-95
-95
63
63
0
0
76
76
-31
-31
270
-127
-342
-184
-335
127
270
270
-75
270
118
-120
-52
-6
-8
-29
-32
-42
-91
-127
-342
-184
-335
127
270
270
-75
118
-120
-52
-6
-8
-29
-32
-42
-91
98
80
-97
305
98
176
80
235
-97
248
305
515
176
540
235
248
515
540
569
591
612
569
631
591
634
612
604
631
550
634
238
604
189
550
238
189
137
324
137
-16
-90
324
-120
-16
-118
-90
123
-120
56
-118
-295
123
56
-295
-353
-353
-336
-287
-270
-299
-325
-314
-292
-295
-336
-287
-270
-299
-325
-314
-292
-295
-319
-317
-319
2
-317
95
2
-110
95
117
-110
36
117
-305
36
-342
-305
-342
-306
-306
37
104
78
-281
-346
-276
-112
-18
37
104
78
-281
-346
-276
-112
-18
-90
-257
-334
-90
2
-257
114
-334
101
2
-272
114
-294
101
-81
-272
-294
-81
546
879
546
1077
968
1160
1602
1641
1247
1339
879
1077
968
1160
1602
1641
1247
1339
1328
1201
1328
1262
1201
1327
1262
669
1327
542
669
374
542
132
374
370
132
370
111
111
-405
-405
-979
-979
-1616
-1616
-1439
-1439
-1576
-1576
-1194
-1194
-1161
-1161
-1156
-1156
-1312
-1089
-840
-425
-630
-606
-547
-208
-135
-1312
-1089
-840
-425
-630
-606
-547
-208
-135
-331
-331
-270
-270
36
36
52
52
41
41
63
63
-98
-98
271
271
300
300
-36
-128
-112
277
-36
153
180
-128
371
-112
316
277
318
153
180
371
316
318
323
266
-85
-111
-4
163
513
224
144
382
266
172
183
-85
365
-111
282
-4
312
163
208
513
597
224
580
144
382
172
183
365
282
312
208
597
580
193
369
197
629
474
432
580
193
369
197
629
474
432
580
247
217
199
186
225
582
427
475
247
217
199
186
225
582
427
475
491
792
862
491
792
862
873
778
873
419
778
445
860
419
725
445
642
860
396
725
204
642
396
204
230
230
421
421
833
833
833
833
481
481
424
424
458
458
772
772
787
787
768
775
828
775
878
828
874
878
815
874
495
815
460
495
460
472
472
791
791
881
881
677
677
883
489
620
620
591
591
620
620
603
603
247
140
370
145
144
347
319
130
519
614
615
548
140
370
145
210
137
329
295
301
328
144
347
319
130
519
614
615
548
210
137
329
295
301
328
336
310
261
-63
94
336
-276
-349
310
-334
261
1
-63
94
-276
-349
67
-334
56
1
-273
-328
-325
67
56
-218
-273
-252
-328
-553
-325
-638
-476
-293
-288
-493
-337
-637
-159
-193
-307
-218
-313
-252
-212
-553
-415
-638
-794
-476
-505
-493
-610
-637
-207
-193
-177
-528
-307
-313
-212
-415
-794
-505
-610
-207
-177
-528
-391
-414
-391
-571
-414
-169
-571
-324
-169
-308
-324
-358
-308
-174
-358
-234
-174
-234
-519
-251
-519
-193
-251
-369
-193
-310
-279
-369
5
-310
38
-279
45
5
38
45
-279
-279
-158
-537
-158
-559
-537
-233
-559
-166
-233
-181
-166
-240
-181
-244
-240
-244
-163
-323
-271
-163
22
-323
104
-271
-61
22
-75
104
16
-61
-179
-75
16
-179
-241
-155
-319
-241
-325
-155
-379
-319
-365
-325
-379
-276
-365
39
-276
-258
39
-258
-330
-312
65
-85
-90
68
-302
-330
-312
65
-85
-90
68
-302
-381
-160
-381
-160
-146
-314
76
-95
118
-266
-340
-280
95
-146
-314
98
76
27
-264
-95
-286
118
-266
-346
-166
-340
-169
-280
95
-314
-112
98
27
-264
-286
-346
-166
-169
-314
92
-79
92
-75
-82
-75
-82
-55
-22
-23
-42
-29
266
-10
103
-355
-210
-150
-258
100
-55
122
-22
-23
-42
-29
266
-10
103
-355
-210
-150
-258
100
122
-106
258
-106
258
373
378
-37
373
50
-37
15
50
100
15
100
-113
-113
40
-133
-214
-131
17
99
113
-93
294
40
-133
146
-214
345
-131
-128
17
-334
99
-363
113
23
-93
-124
294
95
-270
146
345
-128
-334
-363
23
-124
95
-270
-279
-279
111
-11
-11
-19
-19
127
127
88
88
-69
-69
290
290
-21
-21
46
-337
-272
46
-105
-337
-22
-272
-75
-105
119
-22
-89
-75
270
119
-89
270
267
101
101
-362
-362
-183
-183
-347
-347
64
64
-99
-103
89
-99
-103
89
11
11
-285
-285
29
29
-55
-55
376
376
382
382
-88
-88
-336
-336
-370
-370
100
100
329
329
348
348
-52
-52
-113
-113
295
295
253
253
531
531
316
316
78
51
-18
170
166
-25
34
6
-96
78
51
-18
170
166
-25
34
6
-96
345
156
365
347
203
628
434
592
206
345
156
365
347
203
628
434
592
206
206
594
450
417
518
365
285
259
-23
206
594
450
417
518
365
285
259
-23
-65
-65
-121
69
1
-298
-287
13
34
-121
15
69
1
-298
-287
13
34
11
15
85
-42
302
11
268
85
-119
-42
14
-272
302
268
46
-119
14
-272
46
-114
-31
-114
258
-31
-45
258
100
-45
5
100
26
5
26
-75
-75
352
352
132
-5
132
46
-338
-332
-266
19
-265
-292
-5
46
-338
-332
-266
19
-265
-292
8
112
-63
-63
8
-90
-12
112
240
-63
838
-63
1110
-90
-12
240
982
838
1110
1304
1153
1541
1606
1576
1304
1550
1153
1614
1541
1438
1606
1576
1550
1614
1438
1616
1310
1310
670
670
435
435
395
395
617
617
364
364
-136
-136
-685
-685
-1310
-1192
-1232
-1557
-1638
-1623
-1204
-964
-756
-1310
-1192
-1232
-1557
-853
-1638
-432
-1623
-241
-1204
-346
-964
-294
-756
-303
-279
60
-853
125
-432
-241
-346
-294
-303
-279
60
125
104
39
28
108
-53
104
-35
39
-93
28
91
108
48
-53
-35
-93
43
82
-82
91
289
48
344
308
-5
277
43
140
82
-82
289
344
308
-5
277
140
242
242
243
202
243
235
202
235
609
609
434
434
630
225
630
132
225
132
160
160
253
253
589
589
628
628
639
639
608
524
188
191
531
606
601
548
537
591
639
615
559
608
524
188
191
531
606
601
548
537
591
639
615
559
567
401
497
776
469
401
409
497
392
776
469
408
409
419
392
408
419
416
429
416
466
429
501
466
498
501
458
498
423
458
422
423
454
422
454
505
505
831
831
665
665
727
672
480
538
536
511
727
672
480
538
536
511
1029
1029
1072
874
418
442
656
1087
1070
664
779
448
404
618
596
605
617
611
612
1072
874
418
442
656
1087
1070
664
779
448
404
618
596
605
617
611
612
388
425
425
422
422
387
387
623
623
631
631
623
623
557
557
199
199
359
263
263
-119
-119
-265
-265
-368
-368
-381
-381
-339
-339
-305
-305
-293
-293
-269
-269
34
34
64
64
62
62
72
72
-115
-115
-27
-27
-14
-14
-123
-123
-298
-174
-193
-370
-261
54
28
-300
-351
-298
-174
-193
-370
-261
54
28
-300
-351
-352
-348
-154
-529
-607
-563
-182
-378
-208
-352
-348
-154
-529
-607
-563
-182
-378
-208
-623
-444
-611
-156
11
-623
-444
-611
-156
11
47
-296
-165
-230
47
-296
-165
-230
-204
-383
-204
-341
-383
-383
-218
-341
-530
-383
-218
-256
-530
-207
-256
-189
-207
-189
-200
-164
-302
81
117
35
-200
-342
-164
-156
-302
-170
81
117
35
-342
-156
-170
-175
-175
-192
-192
-181
-181
-368
-368
-279
-279
28
28
41
41
68
68
-116
-116
-54
-52
-89
-110
-127
46
-370
-243
-219
-52
-89
-110
-127
46
-370
-243
-219
-312
92
107
21
-302
92
-290
107
7
21
28
-302
51
-290
7
28
103
51
-103
-119
66
22
39
-103
-119
56
66
4
22
-318
39
56
4
-318
-265
-56
152
139
-101
-328
-298
-36
185
-265
-56
152
139
-101
-328
-298
-36
185
128
96
-164
-200
-308
100
-105
128
96
-164
-200
-308
100
-105
-123
120
124
114
95
92
98
79
31
18
88
-123
120
124
114
95
92
98
79
31
18
88
-66
-66
-30
-85
106
-30
-85
106
111
-79
-22
111
-14
-79
-35
-22
-14
-35
-75
101
-261
-75
-311
101
30
-261
-58
-311
301
30
-11
-58
99
301
-11
99
31
114
31
259
320
114
264
259
-60
320
-42
264
291
-60
308
-42
291
308
-45
91
77
-85
-12
-55
112
121
-21
308
-30
77
44
91
77
-85
-12
-55
112
121
-21
308
-30
77
44
-90
288
-90
-17
288
48
-17
-347
48
-347
-321
-321
57
-113
57
-83
-34
-113
310
-83
349
-34
-1
310
82
349
-1
82
-261
82
-261
-8
82
315
-35
-8
77
315
43
-35
-112
77
-4
43
-112
-4
-3
-74
-98
-39
266
-46
87
30
93
-3
-74
-98
-39
266
-46
87
30
93
-64
-42
-96
125
-98
-59
-97
71
33
94
-62
-42
-96
-16
-56
125
118
-98
70
-59
97
-97
-77
71
-5
33
94
-62
-16
-56
118
70
97
-77
-5
264
264
-24
-40
-3
290
-25
69
-24
-40
-3
290
-25
69
-331
-320
91
-18
-11
-109
94
-76
349
218
-331
229
-320
91
-18
-11
-109
94
-76
349
218
229
171
366
312
312
-14
-14
-100
-100
115
115
-72
-72
349
349
250
250
564
564
514
514
179
179
146
146
164
164
183
183
174
174
154
154
152
152
163
157
142
169
531
436
163
157
825
861
793
142
169
531
436
825
861
793
420
587
562
571
571
551
541
565
605
420
587
637
562
405
571
571
431
551
448
541
420
601
565
526
605
219
156
637
405
431
448
420
601
526
219
156
277
93
-286
277
-260
93
123
-48
-286
-87
-260
50
123
-303
-48
-87
50
-303
-325
-297
-264
-259
-293
-347
-375
-320
54
-325
-297
-264
-259
-293
-347
-375
-320
54
126
126
68
-315
68
-257
-315
-361
-116
-257
-111
-116
-264
-111
-177
-264
-177
-210
-210
-364
-364
4
4
41
41
22
22
9
9
25
25
37
37
20
20
-288
-288
-354
-354
-147
-147
-142
-336
-142
-336
-268
-268
15
15
39
39
-80
-80
251
703
251
1354
1584
703
1422
1354
1452
1584
1442
1422
1649
1452
1596
1442
1649
1596
1594
1620
1563
1349
1060
851
510
441
236
1594
1620
1563
1349
1060
851
510
441
236
118
-590
-736
-1016
-1182
-1263
-1273
-1203
-1290
118
-590
-736
-1016
-1182
-1263
-1273
-1203
-1290
-1031
-482
-238
-354
-305
-1031
-482
-238
-354
-305
-311
-344
-384
-143
-357
-285
-261
-308
-359
-321
64
-66
-18
-311
-344
-384
-143
-357
-285
-261
-308
-359
-321
64
-66
-18
-27
-27
-52
-52
-104
-104
51
51
-292
-292
6
-67
357
6
351
-67
357
351
-37
-99
-37
259
-99
146
259
159
146
329
159
318
329
198
318
602
198
602
606
606
245
245
210
210
572
572
426
426
390
390
254
254
198
198
553
553
413
614
129
-60
413
-19
614
224
129
461
-60
780
-19
428
224
461
780
582
428
577
386
433
582
430
577
433
386
479
433
430
495
433
398
479
495
398
240
188
240
188
601
849
690
806
595
535
601
399
849
690
806
595
535
399
510
463
591
510
570
463
444
591
570
835
444
818
835
432
818
610
432
610
403
403
503
503
815
815
828
828
854
854
881
881
838
838
454
454
596
596
608
608
480
858
881
832
801
822
857
871
875
886
889
838
459
569
209
174
180
480
858
881
832
801
822
857
871
875
886
889
838
459
569
209
174
180
178
162
166
198
210
141
178
261
-88
162
-52
166
198
210
320
141
261
369
-88
264
-52
107
87
-15
373
320
299
369
74
264
107
87
-15
373
299
74
-312
46
-35
-45
-283
46
-538
-35
-597
-45
-228
-283
-538
-375
-597
-228
-375
-353
-353
-340
-271
21
-354
-572
-417
-544
-325
-276
-224
-498
-849
-455
-236
-355
-328
-343
-340
-271
21
-354
-572
-417
-544
-325
-276
-224
-498
-849
-455
-236
-355
-328
-343
-357
-132
-194
-228
-176
-332
-293
-343
-132
-146
-194
-228
-176
-332
-377
-293
-289
-343
-146
-268
-371
-238
-232
-349
13
-318
-377
-289
-268
-371
-238
-232
-349
13
-318
-529
-417
-603
-603
-375
-375
71
71
81
81
-310
-310
-198
-198
-246
-216
-188
-203
-216
-219
-188
-203
-219
-186
-186
-362
-291
-284
-322
-362
-291
-284
-343
-322
-315
-266
26
45
-343
77
-315
119
-266
-115
26
119
45
77
119
-115
119
75
56
82
-128
-94
-78
-87
-128
62
7
23
116
-46
-39
-121
60
71
-114
75
56
82
-128
-94
-78
-87
-128
62
7
23
116
-46
-39
-121
60
71
-114
-76
-103
-122
-44
347
141
282
86
-269
53
-79
-76
-48
-103
109
-122
-267
-44
-289
347
44
141
126
282
-124
86
-269
53
-79
-48
109
-267
-289
44
126
-124
69
69
26
59
26
-123
59
-97
-123
82
-97
-311
-129
82
-316
-311
-129
-316
105
-16
-2
-88
66
10
1
105
25
-16
85
-2
-88
66
-87
10
1
-45
25
-92
85
46
-300
-282
77
-87
-95
-45
-109
-92
46
-300
-282
77
-95
-109
60
-262
3
49
58
60
27
38
-262
3
-104
49
303
58
27
38
-104
303
347
347
-25
-25
74
74
41
41
-110
-110
-21
-21
-82
-82
9
9
-343
-343
-283
-283
101
-101
101
-101
99
99
29
43
-115
43
-115
-2
-2
316
316
292
-78
38
-292
19
-113
-60
125
36
55
292
-78
-89
38
-26
-292
-89
19
83
-113
-116
-60
339
125
227
36
133
55
-89
-26
-89
83
-116
339
227
133
113
113
-352
-319
-115
302
283
-107
67
-124
-352
-319
-115
302
281
128
131
338
327
373
167
144
290
283
-107
67
-124
281
128
131
338
327
373
167
144
290
-90
123
-90
-85
123
-32
-85
-48
-32
-108
-48
-123
-108
-52
-123
290
-52
290
292
292
-40
-40
-89
-51
263
-22
109
4
7
-89
74
-51
103
263
94
-22
-98
109
356
4
573
7
628
226
285
74
103
94
-98
356
573
628
226
285
-25
-25
367
551
600
200
-41
42
41
367
-63
551
600
200
-41
132
243
42
41
228
-63
165
159
253
390
469
132
457
243
228
165
159
253
390
469
457
406
406
407
407
473
473
780
780
473
473
599
599
249
249
532
532
629
629
420
384
384
589
589
564
564
512
512
380
380
-4
-4
280
280
206
206
582
185
185
-128
-128
-313
-313
30
30
-62
-62
-110
-110
-129
-129
-613
-613
-560
-560
-317
95
35
-317
-373
95
-155
35
-282
-373
-109
-155
-29
-282
-109
-29
-87
-87
25
25
-134
-134
-244
-244
-532
-532
-245
-245
-178
-178
-348
-348
-257
-257
63
63
51
-306
51
-159
-306
-155
-159
-266
-155
-106
-266
-94
-106
5
-94
5
-176
-176
-206
-206
-321
-321
111
111
-80
-80
120
120
54
54
77
77
-60
-60
359
359
514
514
404
404
835
835
1076
1076
1386
1386
1432
1432
1855
1855
1823
1823
1426
1625
1488
1673
1707
1496
1176
936
1076
1426
1625
1488
1673
1707
1496
1176
936
1076
686
686
624
624
120
120
-405
-405
-1039
-1039
-972
-972
-1331
-1331
-1193
-1193
-1567
-1591
-1195
-924
-894
-437
-591
-553
-556
-593
-1591
-1195
-924
-894
-437
-591
-553
-556
-593
-640
-640
-397
-397
-589
-589
-208
-208
-341
-341
-269
-269
-260
-260
-282
-282
-287
-287
20
125
125
-20
-20
286
286
-13
-13
-121
-121
39
39
11
11
54
54
-122
-122
-50
-15
-50
-15
-41
-125
-41
41
-125
31
41
-110
31
336
-110
336
219
234
171
219
129
234
171
163
129
239
163
547
239
543
547
517
543
517
528
587
392
528
587
387
392
569
387
246
569
539
246
436
539
836
436
836
831
426
564
610
502
822
469
596
602
831
426
564
610
502
822
469
596
602
484
484
842
781
842
626
781
559
626
408
559
840
408
669
840
886
669
886
835
835
892
766
766
1081
1081
718
718
771
771
396
396
442
442
820
820
859
859
772
772
403
636
469
867
752
403
1123
636
903
469
867
752
1123
903
1067
1067
882
882
467
467
435
435
779
779
879
879
648
648
853
853
779
779
464
464
434
429
431
431
407
407
595
595
519
519
234
234
248
248
249
211
211
176
176
207
207
530
530
536
536
188
188
313
313
-30
-30
-75
122
39
122
13
39
96
13
-52
96
-49
-52
96
-49
-263
96
-263
5
91
91
117
117
35
35
-323
-323
-332
-332
-260
-260
25
25
-333
-333
-530
-431
-431
-548
-432
-161
-548
-186
-161
-609
-186
-489
-609
-442
-489
-442
-248
-352
-363
-363
-203
-203
-244
-244
-223
-223
-251
-251
-633
-633
-480
-480
-415
-213
-213
-319
-319
-337
-337
-198
-198
-534
-534
-530
-530
-247
-247
-226
-226
-174
-174
-346
-346
-308
-308
-381
-381
-517
-517
-592
-592
-549
-549
-197
-197
-144
-144
-175
-515
-590
-607
-556
-216
-175
-172
-515
-192
-211
-590
-607
-556
-216
-172
-192
-211
-383
32
-127
66
-339
-153
-329
60
110
-383
12
32
22
-127
49
66
18
-339
-322
-153
-375
-329
-344
60
7
110
62
12
22
49
18
-322
-375
-344
7
99
-125
103
47
23
83
-37
344
355
99
-125
103
47
23
83
-37
344
355
-19
-19
74
-280
74
-286
-260
-280
4
-286
0
-260
14
4
47
0
14
47
66
66
47
15
47
15
15
54
15
91
54
88
91
88
55
55
17
17
-282
-282
-340
-340
-383
-383
-337
-337
72
72
-17
-17
291
291
-53
-53
80
80
33
49
45
33
-267
49
-300
45
-258
-267
60
-300
35
-258
-331
60
35
-331
-145
-145
-331
-331
86
86
-67
-67
-95
-95
64
64
-260
-260
-272
-272
-260
-260
9
9
37
37
79
79
107
107
104
104
106
106
-102
-102
-27
-27
-4
-4
-59
-118
-99
-59
-13
295
-14
122
28
6
-118
-99
-13
295
-14
122
28
6
32
32
55
65
94
-102
-57
-77
55
85
65
-284
94
-102
-57
-77
-327
85
15
-79
-284
280
-39
43
-327
-312
15
59
-79
315
280
-39
43
-312
59
315
252
516
157
252
341
516
324
157
264
341
110
-293
-304
324
264
110
-293
-304
67
-95
125
67
11
-95
-285
125
66
11
-46
-285
274
66
-20
-46
274
-20
-93
-93
119
119
111
111
115
115
117
117
117
117
117
117
114
114
-122
-122
-54
295
295
337
337
282
282
-90
-90
93
93
126
126
-36
-36
272
272
-32
99
-276
-327
-300
15
42
-32
99
-276
-327
-300
15
42
16
16
-294
-294
-309
-309
5
5
107
107
-73
-73
-60
-60
-85
-85
-93
-93
-79
-79
-78
-78
-124
50
-281
-339
-369
-341
29
-69
275
-124
-36
50
96
66
-281
-57
-339
375
-369
160
-341
295
29
-94
-69
-94
275
-36
96
66
-57
375
160
295
-94
-94
260
260
306
306
-12
-12
-76
-76
-18
-18
136
136
247
221
247
363
221
363
269
269
-9
-9
275
275
327
327
146
146
223
223
248
248
201
201
141
141
151
230
580
391
457
794
843
805
433
151
230
580
391
457
794
843
805
433
592
584
386
435
422
601
236
150
153
592
584
386
435
422
601
236
517
150
153
405
474
429
604
567
517
544
405
190
474
271
429
604
567
544
190
271
123
91
123
-117
91
-99
-117
105
-99
36
105
-258
36
-258
-289
-289
-342
-342
-369
-310
-310
54
54
91
91
-262
-262
-147
-184
-329
92
-66
-66
-78
-78
88
-271
-344
-369
88
-362
-271
-362
-344
-377
-369
-362
-362
-377
-378
-325
2
-258
-366
-226
-210
-317
53
-378
-325
2
-258
-366
-226
-210
-317
-273
53
-212
-583
-273
-235
-212
-281
-583
-113
-235
-2
-281
164
-113
453
-2
164
453
761
761
956
956
1304
1304
1171
1171
1605
1605
1471
1471
1459
1459
1410
1410
1474
1474
1866
1855
1578
954
1026
1058
1029
400
-276
1866
1855
1578
954
1026
1058
1029
400
-276
-680
-1317
-1191
-1545
-1463
-1854
-1514
-1192
-1070
-680
-1317
-1191
-1545
-1463
-1854
-1514
-1192
-1070
-831
-489
-489
-408
-408
-210
-210
49
49
-52
-52
-77
-77
49
49
-298
-298
-293
14
54
77
94
98
78
54
70
-293
14
54
77
94
98
78
54
-126
-69
-42
-22
285
373
202
222
146
70
256
122
105
-126
-15
195
-69
595
-42
605
-22
549
285
551
373
202
222
146
256
122
105
-15
195
595
605
549
551
637
473
492
637
444
473
638
492
589
444
527
638
182
589
369
527
182
369
378
199
378
531
550
199
539
531
561
550
630
539
428
561
409
630
428
409
600
600
582
582
401
401
768
768
809
809
489
489
629
629
537
537
251
251
537
537
619
470
619
794
470
770
794
432
770
425
432
833
425
1048
833
1048
1130
1130
745
745
802
802
456
456
504
504
814
814
772
772
446
446
477
477
862
697
655
793
483
789
855
845
777
862
487
697
784
655
842
793
832
483
484
789
408
855
437
845
821
777
684
487
784
842
832
484
408
437
821
684
673
673
781
604
521
781
550
604
593
521
566
550
227
178
593
566
227
178
217
536
514
137
291
330
232
606
544
217
536
514
137
113
291
15
330
14
232
18
606
-268
544
-307
-326
-350
327
113
15
14
18
-268
-307
-326
-350
-143
-186
-181
-143
-186
-181
-153
-158
-201
-235
-222
-186
-153
-158
-201
-235
-222
-186
-167
-153
-358
-268
62
59
-261
-329
-381
-167
-153
-358
-268
62
59
-261
-329
-381
-198
-583
-467
-467
-775
-775
-440
-440
-554
-554
-223
-223
-517
-579
-517
-579
-550
-550
-177
-352
-177
-378
-352
-177
-378
-131
-177
-131
4
4
54
54
-356
-356
-604
-604
-446
-446
-561
-561
-357
-357
-313
-313
-200
-200
-608
-608
-612
-612
-237
-237
-377
-377
-331
-331
-314
-314
-272
-272
27
27
9
9
-329
-329
-171
-171
-233
-233
-226
-158
-326
-226
-277
-300
-158
-365
-326
-140
-277
-349
-300
12
-365
-140
-349
12
110
110
-106
-106
-127
-127
67
67
-283
-283
-384
-384
-175
-175
-132
-132
-296
-296
10
-286
-349
-321
94
282
364
300
-71
10
-286
-349
-321
-111
94
-48
282
292
364
290
300
-82
-71
34
1
109
274
-111
-48
292
290
-82
34
1
109
274
370
339
339
-22
-22
-111
-111
110
110
105
105
111
111
-114
-114
-37
-37
309
350
309
313
350
-22
313
-78
-22
-90
-78
-82
-90
-96
-82
114
-96
114
62
33
33
42
42
88
88
-107
-107
-63
-63
-38
-38
256
256
330
330
379
306
104
-357
-149
-271
-97
-41
-110
306
104
-357
70
-149
82
-271
-86
-97
260
-41
307
-110
300
-10
-85
70
-127
82
-86
260
307
300
-10
-85
-127
-94
-35
-49
100
9
52
-53
312
275
-94
-35
-49
100
9
52
-53
312
275
-107
-107
67
80
-122
-95
-92
-88
-90
122
67
80
-122
-95
-92
-88
-90
122
50
50
22
22
81
81
-81
-81
-38
-38
-81
-81
90
90
11
11
-302
-302
-338
-338
-326
-326
24
24
-78
-78
304
304
316
316
-28
-28
-110
-110
-96
-96
267
376
376
146
146
329
329
-48
-48
112
112
79
79
97
97
124
124
-113
-83
-38
-83
-19
-38
-19
-60
-60
119
119
80
80
111
-99
111
-99
-118
66
45
-118
-115
66
294
45
370
-115
310
294
-63
370
-125
310
-63
-125
-96
-24
-24
274
274
-8
-8
-93
-93
62
62
21
21
97
97
260
260
155
155
201
201
138
138
296
296
-12
-12
-11
-11
-6
-6
-35
-35
-88
-88
-110
-110
-69
-5
-69
268
-5
-47
268
-128
-47
118
-128
-50
118
-50
318
318
352
291
-54
-94
-71
-8
328
154
212
352
291
-54
-94
-71
-8
328
154
212
221
182
383
335
299
287
325
166
536
221
182
383
335
299
287
325
166
536
600
577
514
241
564
419
600
503
577
773
514
476
241
564
419
426
503
390
773
605
476
541
218
206
426
528
390
606
605
597
541
218
206
528
606
597
226
351
315
135
237
539
512
181
335
226
351
315
135
237
539
512
181
335
-28
-28
-93
-93
-85
-85
-43
-43
-50
-50
113
113
-260
-260
-312
-312
-292
-292
-274
-305
-335
-274
-292
-305
68
-335
-120
-292
99
68
-267
-120
-337
99
-267
-337
-305
42
97
83
43
19
-263
-331
-150
-144
-281
121
-89
95
20
59
-63
294
-305
42
97
83
43
19
-263
-331
-150
-144
-281
121
-89
95
20
59
-63
294
280
-66
113
82
76
93
-87
312
220
280
-66
113
82
76
93
-87
312
220
384
849
922
1599
1675
1740
1825
1655
1456
384
849
922
1599
1675
1740
1825
1655
1456
1696
2098
1673
1259
1136
1696
2098
1673
1259
1136
687
804
235
-283
687
804
235
-283
-808
-1148
-1336
-1540
-1534
-1675
-1825
-1540
-1018
-808
-1148
-1336
-1540
-1534
-1675
-1825
-1540
-1018
-1120
-743
-812
-606
-515
-567
-620
-530
-331
-1120
-743
-812
-606
-515
-567
-620
-530
-331
74
74
84
84
60
60
-120
-120
280
280
346
346
276
276
-77
-77
-65
-65
293
293
336
336
-16
-16
103
103
65
-113
65
-12
-113
312
-12
359
312
359
151
150
325
-10
302
229
628
600
209
151
150
325
-10
302
229
628
600
209
149
149
238
238
601
601
580
580
200
200
138
138
231
231
628
628
389
389
250
344
344
307
307
151
151
542
542
628
628
410
410
432
432
439
439
399
399
588
588
573
573
407
407
801
801
859
859
795
795
442
442
433
433
782
782
867
867
857
857
796
796
794
794
877
877
694
694
670
670
827
827
492
492
489
489
800
800
881
881
720
720
1058
1058
1058
1058
687
687
804
804
788
788
671
671
1085
1085
1100
1100
714
714
839
839
825
825
895
895
672
672
876
819
839
662
701
876
895
819
776
839
450
469
662
701
895
776
450
469
785
785
805
496
398
568
527
253
215
141
805
496
398
568
527
253
215
141
321
300
321
356
177
300
192
356
371
177
261
192
-32
371
304
261
-32
304
177
230
177
143
230
-37
143
51
-37
51
-289
-297
-282
-284
-289
-297
-282
-284
-306
-331
-356
-130
-175
-306
-215
-331
-229
-356
-130
-212
-175
-192
-215
-229
-212
-192
-198
-232
-520
-198
-533
-232
-541
-520
-568
-533
-604
-595
-541
-518
-568
-604
-595
-518
-163
-377
-169
-377
-525
-169
-594
-525
-567
-594
-202
-567
-342
-202
-308
-342
-308
-374
-233
-374
-233
-580
-615
-600
-546
-198
-341
-269
-580
-615
-600
-546
-198
-341
-269
-304
-304
-165
-247
-165
-202
-247
-325
-202
17
-325
-285
17
-144
-285
-202
-144
-202
-172
-172
-384
-384
-142
-142
-182
-182
-156
-156
-307
-307
56
56
73
73
-269
-269
-375
-163
-375
-270
98
-82
-65
-113
38
-163
-375
-270
98
-82
-65
-113
38
-317
-339
12
-89
-5
-60
74
39
-98
-317
-339
12
-89
-5
-60
74
39
-98
338
161
338
332
161
-83
332
83
-83
104
83
-105
104
-128
-105
48
-128
48
-257
-257
45
45
-97
-97
271
271
327
327
323
323
278
278
-51
-51
123
123
58
22
22
8
8
1
1
-264
-264
-266
-266
-342
-342
39
39
102
102
-59
-59
276
276
285
285
-41
-41
118
118
39
39
-266
-266
-295
-295
-303
-303
-275
-275
35
80
80
84
84
52
52
11
11
-274
-274
-267
-267
50
50
-104
-32
-64
66
-291
-262
-109
297
336
267
-92
81
28
-260
-262
35
99
-103
-104
-32
-64
66
-291
-262
-109
297
336
267
-92
81
28
-260
-262
35
99
-103
-69
-69
-41
-11
260
-13
-46
-61
-60
-82
100
0
-312
-277
81
-80
-37
-22
276
-41
-11
260
-13
-46
-61
-60
-82
100
0
-312
-277
81
-80
-37
-22
276
339
339
334
-68
334
-284
-68
-378
19
-284
274
-378
380
19
-45
274
380
-45
-316
-316
-145
32
-7
-145
266
32
108
-7
266
14
108
116
14
279
116
279
291
291
-102
-102
76
76
-63
-63
383
383
157
157
-33
-33
-283
-283
-149
-149
-375
-298
8
54
-118
-16
308
298
-45
-375
-298
8
54
-118
-16
308
298
-45
92
20
58
-75
259
-78
-262
92
20
58
-75
259
-78
-262
-361
-260
-361
-260
-56
301
-56
-12
301
-78
-12
-15
-78
366
-15
373
366
-21
373
-21
-117
-117
-16
209
209
577
577
214
214
272
272
-84
-84
-48
-48
267
267
270
270
265
327
189
538
560
556
592
403
437
265
327
189
538
560
556
592
403
437
399
399
576
576
532
532
552
581
552
536
581
154
536
288
154
270
288
270
365
225
365
528
243
225
195
528
243
181
195
215
181
529
215
570
529
570
552
196
288
119
-266
-351
-142
-134
-304
552
196
288
119
-266
-351
-142
-134
-304
80
-100
121
30
13
-128
297
382
331
80
-100
121
30
13
-128
297
382
331
-46
103
43
7
-258
47
-116
-61
-110
-46
103
43
7
-258
47
-116
-61
-110
29
29
-291
-291
37
37
-67
-67
290
290
274
274
-67
-67
123
123
113
113
-128
-128
118
118
60
60
-282
-282
-327
-327
20
20
285
285
627
627
879
879
717
717
766
930
766
1211
930
1420
1654
1211
1420
1225
1654
1380
1183
1225
1380
1183
1242
1366
1069
1069
819
819
486
486
453
453
230
230
15
15
-784
-784
-942
-1176
-1569
-942
-1662
-1176
-1569
-1421
-1662
-1594
-1214
-1421
-1357
-970
-1594
-1214
-1357
-970
-767
-787
-767
-633
-787
-588
-633
-541
-588
-146
-541
9
-146
13
9
-150
13
-150
-540
-540
-187
84
-187
258
84
-94
258
-341
-94
-216
-341
-373
-216
89
-373
89
-31
262
298
134
223
215
381
313
325
-31
262
298
134
223
215
381
313
325
364
363
330
327
375
163
154
138
196
364
363
330
327
375
163
154
138
196
587
587
440
433
597
535
556
600
588
524
440
433
597
535
556
600
588
524
236
557
425
501
461
604
542
236
557
425
501
461
601
604
472
542
601
472
806
776
423
806
590
776
546
423
542
590
584
546
436
542
841
584
436
841
691
686
843
487
458
497
806
691
839
686
822
843
487
458
497
806
839
822
478
602
478
524
587
602
505
524
587
651
505
654
651
818
654
772
818
772
844
844
688
688
686
686
840
840
771
771
827
827
682
682
702
702
850
850
457
457
407
407
450
450
495
495
483
483
446
446
441
441
472
472
485
485
440
616
543
234
203
220
551
389
411
616
543
234
203
220
551
389
411
564
153
324
362
205
513
219
130
306
-11
-83
96
153
324
362
205
60
513
86
219
-122
130
-128
306
25
-142
-11
-83
96
60
86
-122
-128
25
-142
-542
-583
-542
-233
-583
-322
-233
58
-322
37
58
-372
37
-516
-372
-249
-516
-249
-342
81
118
32
-340
-161
-205
-223
-197
-342
81
118
32
-340
-135
-161
-205
-347
-223
-368
-197
-151
-373
-271
57
-135
25
-347
-322
-368
-151
-373
-271
57
25
-322
-372
-348
-348
-306
-306
-317
-317
-151
-151
-544
-544
-409
-409
-436
-436
-587
-587
-166
-166
-332
-332
-377
-377
-213
-213
-222
-222
-154
-154
-367
-367
-129
-129
-368
-368
6
6
-120
-121
-121
14
14
-325
-325
-276
-276
59
59
30
30
-321
-321
-323
-323
62
-103
56
-145
-217
62
-313
-103
-80
-2
56
-145
-217
-313
-80
-2
-123
-270
-265
-120
263
-9
125
39
77
-123
-270
-265
-120
263
-9
125
39
77
-81
-81
-50
-50
121
121
-264
-264
-322
-322
-280
-280
60
60
113
113
111
111
72
18
-295
-326
-301
35
-116
-38
-28
72
18
-295
-326
-301
35
-116
-38
-28
-80
118
-120
-19
315
269
-80
-122
118
73
-120
-78
-19
315
269
-122
73
-78
319
287
287
58
-137
-137
-344
-344
-126
-126
-10
-10
125
125
-330
-330
-383
-273
88
78
50
-127
277
336
-22
-383
-273
88
78
50
-127
277
336
-22
88
43
88
109
-86
43
-113
109
68
-86
-113
34
68
50
34
48
50
48
-272
-341
-272
-302
-341
125
-302
311
125
352
311
-49
352
-49
21
21
-264
-264
-107
332
362
-24
97
82
-101
-56
-86
-107
332
362
-24
97
82
-101
-56
-86
114
103
-118
-76
-40
-3
273
-2
-45
103
-118
-76
-40
-3
273
-2
-45
-63
-38
-38
262
262
298
318
307
-17
122
55
298
318
307
-17
122
55
-118
319
-118
319
153
289
153
81
289
18
81
-107
18
276
-107
-39
276
-39
59
59
47
47
-10
-10
176
176
382
382
-105
-105
12
111
316
111
316
159
370
294
272
278
291
352
221
556
159
370
294
272
221
278
295
291
-53
352
301
221
556
229
361
272
369
221
295
-53
301
204
229
361
272
369
575
422
578
131
286
326
166
227
243
575
422
578
131
286
326
166
227
243
514
529
254
208
197
529
405
482
432
545
514
529
137
254
286
208
-32
197
-71
529
-80
405
-54
482
-26
432
-46
545
137
286
-32
-71
-80
-54
-26
-46
-127
34
-275
-269
31
74
97
86
29
-317
-374
-349
12
-119
-43
-36
-84
98
-127
34
-275
-269
31
74
97
86
29
-317
-374
-349
12
-119
-43
-36
-84
98
29
-275
-285
29
1
-275
43
-285
65
1
52
43
10
65
-280
52
10
-280
-275
42
-275
-102
42
284
-102
383
284
175
383
212
175
561
212
482
561
482
697
697
1133
1133
998
998
1345
1345
1167
1167
1183
1183
1342
1342
918
918
1050
1050
1045
1045
1098
1042
1098
780
1042
132
780
132
31
31
-193
-193
-596
-596
-809
-809
-905
-1560
-1560
-1806
-1806
-1796
-1796
-1620
-1620
-1196
-1196
-1378
-1378
-1330
-1330
-932
-932
-673
-640
-169
-336
-360
-202
-554
-555
-166
-673
-640
-169
-336
-360
-202
-554
-555
-166
28
-107
-100
-128
-98
-32
-21
-91
99
28
-107
-100
-128
-98
-32
-21
-91
99
125
-52
-24
-78
124
-101
-52
-24
-78
124
-101
261
365
161
261
365
161
186
220
243
221
163
373
375
172
247
186
555
220
552
243
234
221
146
163
350
373
379
375
232
172
628
247
472
555
552
234
146
350
379
232
628
472
473
473
624
624
224
224
139
139
193
193
608
608
476
476
443
443
539
539
156
176
553
620
582
546
631
176
553
620
582
867
546
631
793
867
784
394
624
784
467
394
813
624
787
467
427
626
813
410
787
427
626
410
485
485
772
490
490
459
459
479
479
815
815
648
648
671
671
856
856
487
434
434
486
486
833
833
869
869
840
840
824
824
870
870
661
661
864
474
474
395
395
448
448
811
811
822
822
442
442
546
546
231
231
536
606
536
626
606
589
626
516
589
177
516
368
177
356
368
149
356
149
206
206
216
187
216
183
187
237
183
531
237
206
531
290
206
-119
290
-119
97
-113
-82
-119
66
3
-304
-348
-358
-324
-292
-330
-176
-253
-252
-225
-242
-525
97
-113
-82
-119
66
3
-304
-348
-358
-324
-292
-330
-176
-253
-252
-225
-242
-525
-205
-205
-305
-305
64
64
17
17
-136
-136
-223
-223
-168
-168
-326
-319
-326
-319
-149
-149
-217
-204
-217
-170
-204
-198
-170
-526
-198
-542
-526
-201
-542
-201
-335
-335
-267
-270
-296
-267
-320
-270
-361
-296
-158
-320
-166
-361
-343
-158
19
-166
-343
19
22
22
-371
-530
-530
-567
-567
-218
-218
-373
-373
-344
-344
-342
-342
-287
-287
53
59
59
-302
-302
-156
-156
-166
-166
-349
-349
-294
-294
-294
-294
-278
-278
74
-54
-12
-97
37
2
65
-124
114
74
-54
10
-12
-365
-169
-97
-140
37
-304
2
65
72
-124
-82
114
-54
-121
10
13
-365
-325
-169
-304
-140
47
-304
-110
72
-46
-82
-17
-54
-18
-121
-65
13
-325
-304
47
-110
-46
-17
-18
-65
106
27
8
31
18
-306
-349
-292
81
-107
-125
119
-63
293
292
-91
43
106
38
27
8
31
18
-306
-349
-292
81
-107
-125
119
-63
293
292
-91
43
38
102
104
26
8
-101
382
210
306
53
-311
57
-19
287
-82
32
-268
42
105
102
104
26
8
-101
382
210
306
53
-311
57
-19
287
-82
32
-268
42
105
-127
-102
-43
264
-11
-99
68
34
61
-127
-102
-43
264
-11
-99
68
34
61
124
124
-67
-67
-51
-51
126
126
-276
-276
-366
-366
-300
-300
119
119
-52
-52
-122
32
32
58
58
-80
-80
-69
-69
27
27
-375
-375
-289
-289
-26
-26
383
383
270
270
62
62
32
32
-47
-47
362
362
318
318
-89
-89
116
116
-46
-46
308
308
276
276
-102
-102
67
67
59
59
90
90
121
121
-92
-92
-42
-42
-18
-18
-46
-46
-100
-100
117
117
99
99
92
92
118
118
-55
-55
292
283
-112
-265
-277
127
291
347
325
333
128
380
277
-81
-43
371
229
192
292
283
-112
-265
-277
127
291
347
325
333
128
380
277
-81
-43
371
229
192
329
290
329
370
290
202
370
202
202
157
202
165
157
225
165
222
225
222
342
342
-82
-82
-120
-120
270
270
196
196
542
542
529
529
248
248
526
526
561
546
546
228
228
174
174
150
150
365
365
-7
-7
89
89
-275
-275
-268
69
122
81
-274
-268
-328
69
-294
122
81
-274
-328
-294
21
3
-371
21
-222
3
-198
-292
-122
-371
-93
-222
42
-198
-351
-292
-362
-122
-93
42
-351
-362
20
-91
-91
-52
-52
123
123
23
23
6
6
69
69
125
125
95
95
-258
-330
-330
-290
-290
90
90
-80
-80
123
123
-289
-289
-145
-145
-346
-346
126
368
519
589
419
368
519
589
419
827
745
1142
989
827
745
1142
989
1332
1399
1407
1342
1009
989
1008
955
752
463
1332
220
320
1399
-122
1407
-227
1342
-751
1009
-1231
989
-1445
1008
-1625
955
752
463
220
320
-122
-227
-751
-1231
-1445
-1625
-1185
-1351
-1381
-1401
-1012
-717
-1185
-387
-164
-1351
-358
-1381
-1401
-1012
-717
-387
-164
-358
-136
-157
-359
-359
-269
-269
22
-276
-300
55
-13
353
256
20
22
-276
-300
55
-13
353
256
20
-145
-355
83
-42
-49
-104
-145
-355
83
-42
-49
-104
-80
279
368
373
329
316
361
155
145
320
-80
-38
279
-98
368
-72
373
297
329
187
316
543
361
552
155
250
145
320
-38
-98
-72
297
187
543
552
250
227
515
550
523
211
221
227
585
515
443
550
441
523
211
221
585
443
441
584
239
531
639
432
394
616
584
405
463
239
531
639
432
394
616
405
463
406
246
246
154
154
515
515
496
496
643
643
831
831
632
632
241
241
532
420
787
799
497
474
768
532
833
875
420
787
799
497
882
474
882
768
656
833
699
875
709
658
831
882
776
882
777
656
699
709
658
831
776
777
819
861
882
885
819
869
861
846
882
818
885
785
869
492
846
818
785
492
471
503
847
663
871
435
513
234
636
471
503
847
663
871
435
513
234
636
789
511
554
313
-43
269
360
358
-5
-114
-127
511
554
-48
274
313
-31
-43
81
269
-301
360
358
-5
-314
26
-114
-127
-48
274
-31
81
-301
-314
26
97
85
31
5
1
-299
-148
-229
-203
97
85
31
5
1
-299
-148
-229
-203
-363
-333
-187
-609
-420
-585
-182
-131
-215
-363
-333
-187
-609
-420
-585
-182
-131
-215
-594
-628
-559
-238
-543
-421
-471
-571
-290
-594
-628
-559
-238
-543
-421
-471
-571
-290
-124
-124
23
23
-256
-256
-436
-436
-615
-615
-136
-270
-366
-573
-136
-270
-366
-573
-442
-442
-400
-254
-400
-383
-254
-339
-383
-339
-349
-336
-262
81
-349
-336
-262
81
93
-259
-135
-135
-180
-180
-355
-355
21
21
60
60
-269
-269
-384
-384
-202
-202
-209
-209
-173
-365
-282
53
101
114
120
-123
-127
91
56
71
127
-109
72
-304
-173
-365
-282
53
101
114
120
-123
-127
91
56
71
127
-109
72
-304
-349
-265
-128
-58
-98
74
20
5
13
43
106
-82
-51
-58
-53
-23
-37
99
-349
-265
-128
-58
-98
74
20
5
13
43
106
-82
-51
-58
-53
-23
-37
99
-318
-363
13
-318
-95
-363
-100
13
-262
-95
-131
-100
-309
-262
-89
-131
-309
-89
321
321
290
290
-96
-96
97
97
-111
-111
-65
-65
-125
-125
2
2
-310
-310
42
-46
-46
300
300
-3
-3
-108
-108
108
108
-90
-90
-22
-32
-22
-32
-106
104
-125
-84
127
-271
-154
-185
-370
-106
104
-125
-84
127
-271
-154
-185
-370
-302
-317
-302
-373
-317
-351
-373
31
-351
-116
31
122
-116
32
122
37
32
37
-50
-50
139
139
139
139
-67
-273
-289
-67
107
-273
-41
-289
-61
107
-41
-61
-125
115
115
57
-263
57
273
210
192
-125
-12
115
78
115
107
57
-25
-263
257
57
-114
273
50
210
124
192
299
-12
78
107
-25
257
-114
50
124
299
378
277
123
95
378
-30
277
377
123
138
95
-8
-30
40
377
138
-8
40
-357
-381
-325
-357
-257
-381
51
-325
92
-257
-113
51
-58
92
-32
-113
-58
-32
-55
-55
-99
-99
-101
-101
-46
-46
268
268
256
256
-84
-84
81
81
46
46
67
67
98
98
105
105
102
102
125
125
-71
-71
268
268
339
339
363
363
327
263
-12
316
176
217
137
283
272
327
263
-12
316
176
217
137
283
272
362
170
383
325
134
557
398
562
135
362
170
383
325
134
557
398
562
355
135
233
613
355
568
233
165
613
353
568
148
165
168
353
312
148
168
312
-71
-71
-19
-19
214
214
405
405
601
601
355
355
-91
-91
-89
-89
266
266
287
287
-75
53
0
19
55
79
89
90
-75
53
0
19
55
79
89
107
90
-83
267
279
-126
107
-338
-83
-141
267
35
279
-3
-126
-338
-141
35
-3
-19
-290
-525
-207
66
-26
106
-130
-189
-258
-29
277
-126
-318
-151
-353
43
-82
-19
-290
-525
-207
66
-26
106
-130
-189
-258
-29
277
-126
-318
-151
-353
43
-82
-53
107
-281
-317
60
265
107
194
-281
587
-317
470
60
265
194
587
651
470
1102
1011
1390
651
1223
1102
1271
1011
1537
1390
1549
1223
1596
1271
1537
1549
1596
1627
1271
980
866
1627
598
1271
220
980
360
866
89
598
-607
220
360
89
-607
-1087
-1087
-1226
-1226
-1484
-1484
-1848
-1848
-1793
-1793
-1609
-1609
-1408
-1408
-1292
-1292
-980
-980
-1123
-888
-1123
-888
-602
-129
-281
-129
-281
11
11
36
60
75
36
60
75
74
74
40
-287
-343
40
-317
46
-287
126
72
-343
-338
-317
46
126
72
-338
-164
-309
-76
362
128
294
-46
-76
-75
-164
-57
-309
-1
-76
350
362
167
128
165
372
369
294
-46
-76
205
-75
580
-57
-1
350
167
165
372
369
205
580
607
513
139
130
516
417
455
593
176
372
607
203
513
607
139
434
130
396
516
556
417
247
455
542
593
637
176
372
203
607
434
396
556
247
542
637
465
500
488
488
444
444
384
384
580
580
558
558
592
592
405
405
457
457
461
461
445
445
467
467
802
802
884
884
642
642
839
839
787
787
812
812
641
641
678
858
678
477
858
415
477
459
415
782
459
784
782
784
486
496
496
835
888
832
477
478
870
764
1057
727
864
492
400
631
468
872
661
835
888
832
477
478
870
764
1057
727
864
492
400
631
468
872
661
773
773
553
553
202
202
538
538
384
384
608
608
221
221
148
148
189
189
245
221
221
140
140
357
357
376
376
376
376
321
321
266
266
265
265
276
-45
59
-318
-298
88
-75
276
-123
-45
-282
59
-318
-298
88
-75
-123
-282
-184
-254
-232
-171
-130
-129
-159
-192
-210
-184
-254
-232
-171
-130
-129
-159
-192
-210
-219
-231
-249
-255
-230
-185
-219
-231
-151
-156
-249
-208
-255
-230
-185
-151
-156
-208
-541
-600
-541
-600
-255
-146
-596
-367
-255
-187
-146
-551
-367
-567
-187
-551
-567
-201
-323
-201
-282
-323
-323
-282
-341
-323
-295
-341
-269
-295
-347
-269
-241
-347
-241
-602
-599
-535
-223
-179
-139
-141
-218
-562
-602
-599
-535
-223
-179
-139
-141
-218
-562
-533
-354
-354
87
87
120
120
8
8
-344
-344
-311
-311
40
40
67
67
14
-269
46
114
80
-305
-147
-368
31
14
-269
46
114
80
-305
-147
-368
31
-92
-92
-47
-92
-47
-92
81
13
81
-265
13
22
-265
80
22
121
80
121
125
97
97
53
53
11
11
7
7
60
60
-120
-120
-92
-92
104
104
26
34
-124
-57
126
-291
-374
-297
113
26
34
-124
-57
126
-291
-374
-297
113
-51
-70
120
83
83
91
100
-126
-51
-81
-70
120
83
-51
83
-59
91
-116
100
56
-126
-258
-81
19
123
-23
-9
-51
-59
-116
56
-258
19
123
-23
-9
-119
-119
-270
-270
-352
-352
-360
-360
-365
-365
-148
-148
-165
-165
-349
-349
54
-75
-47
-99
108
126
-40
325
368
284
54
-75
-47
-99
108
126
-40
325
368
284
94
-352
-352
-170
-338
-338
91
91
-22
-22
278
278
-35
-35
116
116
44
61
44
61
-96
261
272
-77
68
25
-96
53
261
272
-77
68
25
92
53
109
-118
-63
-25
92
-60
109
120
-118
96
-63
-92
-25
-60
120
96
-92
-21
-21
-60
74
20
-60
74
20
-123
318
375
-123
-36
318
4
375
-36
4
-309
107
-309
314
107
352
314
-67
352
-267
-67
-327
-267
11
-327
99
11
99
97
48
65
-95
-16
-33
-102
-117
-44
97
48
65
-95
-16
-33
-102
-117
-44
290
283
-52
-121
122
-124
103
33
-259
51
-86
290
-3
283
-43
67
-52
-321
-121
-332
122
-124
26
103
-125
33
-259
51
-86
-3
-43
67
-321
-332
26
-125
-107
-107
116
-128
116
-60
-128
-30
-60
-117
-30
-117
3
3
-282
-282
116
116
300
338
338
-63
-63
20
20
17
17
-41
-41
191
191
529
529
181
181
301
-4
284
304
266
-46
-47
283
134
-4
284
304
266
-46
-47
283
134
239
597
424
444
399
614
407
784
847
768
239
623
597
556
424
611
444
415
399
608
614
203
407
130
784
224
847
768
623
556
611
415
608
203
130
224
631
631
398
247
332
398
247
314
332
193
314
581
193
571
581
174
571
174
273
273
-74
-74
-109
-109
-122
-122
-118
-118
-88
-88
-61
-61
-91
-91
71
71
-281
-315
-285
25
-281
77
-315
121
-285
-107
25
120
77
32
121
-107
120
-315
32
-326
20
-315
-113
-59
-326
-107
20
60
-113
-263
-59
-301
-107
60
-263
-301
-334
-334
-357
-357
-325
-325
36
36
-113
-113
-110
-110
24
24
-383
-383
-175
-175
-352
6
31
-274
-312
-268
109
278
235
490
754
1001
1229
1434
1806
1489
1257
1282
-352
6
31
-274
-312
-268
109
278
235
490
754
1001
1229
1434
1806
1489
1257
1282
974
974
1354
1354
1199
1199
1354
1354
1076
1076
800
800
395
395
560
560
377
377
45
45
-627
-627
-1025
-1025
-1331
-1331
-1266
-1266
-1599
-1599
-1586
-1586
-1271
-1179
-1271
-1179
-1015
-751
-448
-238
-187
-219
-209
-380
-294
-1015
-751
-448
-238
-187
-219
-209
-380
-294
-269
-275
14
80
104
65
47
-269
119
-275
-22
14
80
104
273
65
-64
47
91
119
98
-22
-52
286
286
273
270
-64
327
91
98
-52
286
286
270
327
168
172
297
-93
-79
342
248
168
544
172
233
297
-93
-79
195
342
221
248
544
516
233
252
204
162
143
195
141
221
151
516
252
204
162
143
141
151
172
190
190
181
181
157
157
169
169
516
516
394
394
483
483
467
467
630
630
530
240
549
397
480
484
409
581
556
593
398
452
498
799
823
803
484
530
240
549
397
480
484
409
581
556
593
398
452
498
799
823
803
484
422
396
408
438
454
447
440
461
498
422
396
408
438
454
447
440
461
498
510
477
442
472
815
875
825
441
603
510
477
442
472
815
875
825
441
603
624
479
857
661
885
775
632
526
232
624
479
857
661
885
775
632
526
232
240
240
239
239
213
213
193
193
208
208
238
238
227
227
164
164
348
348
323
360
360
179
179
249
249
524
524
207
207
343
343
-11
-11
-19
-19
301
301
328
328
-10
-10
102
1
-269
102
13
29
1
65
-269
13
29
65
-73
350
158
-73
272
350
11
158
-152
272
-368
11
14
-152
27
-368
14
27
-367
-251
-248
-152
-384
-233
-604
-597
-244
-367
-251
-248
-152
-384
-233
-604
-597
-244
-200
-530
-640
-418
-609
-516
-193
-157
-151
-200
-179
-530
-640
-160
-418
-131
-609
-161
-516
-526
-193
-611
-157
-550
-151
-362
-167
-179
-160
-131
-161
-526
-611
-550
-362
39
39
-263
-193
-563
-224
-285
93
-263
62
-306
-193
-563
-224
-285
-382
93
-384
62
-357
-306
-359
-143
-382
-185
-384
-357
-193
-359
-153
-143
-185
-332
-193
-153
-332
-261
15
-280
-341
-352
-288
68
120
63
-261
15
-280
-341
-352
-288
68
120
63
-336
-195
-181
-336
-304
77
-195
84
-181
-265
-304
-347
77
-362
84
-265
-347
-362
-357
-357
-141
-141
-193
-193
-156
-156
-280
-280
103
103
109
109
12
12
-302
-302
18
18
119
119
125
125
22
22
-316
-316
-282
-282
58
58
48
48
-343
-343
-209
-164
41
41
-12
-12
310
-23
111
310
48
-23
77
111
48
77
-91
-91
-4
-4
265
265
-84
-84
37
37
-293
-293
-259
-259
80
80
116
116
79
41
79
68
41
-121
68
-95
-121
112
-95
40
31
112
100
40
31
100
-72
-72
-34
-34
-48
-48
-85
-85
-124
-124
93
93
59
59
49
49
73
73
105
105
102
60
24
34
71
70
20
-264
102
60
24
34
71
70
20
-264
61
-46
61
312
-46
-1
312
69
-1
-349
69
-341
-349
87
-341
262
87
262
276
125
-285
-285
97
-85
96
-270
19
-57
125
322
-285
-285
97
-85
-42
96
-297
-270
-183
19
-328
-92
292
-12
-57
322
-42
-297
-183
-328
-92
292
-12
-105
-105
-108
-45
-35
-119
41
19
-108
55
-45
62
-35
-119
41
19
55
62
3
-314
-316
-271
3
13
-314
-316
2
1
-271
69
13
-73
2
1
69
-73
-22
-105
-261
-22
-358
-105
-320
-261
68
-358
-73
-320
-56
68
112
-73
-56
112
-272
-338
-338
-269
-269
-76
-76
369
369
154
154
295
295
-83
-83
-68
-68
311
128
312
-80
-127
-52
287
274
-55
311
128
312
-80
-127
-52
287
274
-55
-72
-72
258
335
334
334
280
280
-14
-14
-20
-20
-46
-46
-125
-125
56
56
73
73
-68
-68
319
319
130
130
374
374
315
315
-18
-18
-98
-98
117
-92
117
299
-92
173
299
179
311
173
-76
179
311
-82
-76
296
-82
296
166
166
200
154
351
322
303
291
327
164
251
549
586
429
810
831
452
583
628
200
154
351
322
303
291
327
164
251
549
586
429
810
831
452
583
628
815
669
669
808
808
565
565
158
158
175
175
240
240
241
241
230
230
556
556
405
411
563
240
570
416
606
354
405
108
44
411
112
563
120
240
-273
570
-203
416
-540
606
-223
354
-363
108
44
112
120
-273
-203
-540
-223
-363
-281
13
30
19
-292
-366
-375
-285
93
13
125
30
13
19
-161
-292
-251
-366
-199
-375
-348
-285
-306
93
-351
-150
125
13
-161
-251
-199
-348
-306
-351
-150
-146
-360
-360
-340
-340
-354
-358
-315
21
99
-106
-354
-358
-315
21
99
-106
-103
-103
99
99
11
11
-297
-297
16
16
-84
-84
354
354
234
234
577
577
419
841
1099
1156
1429
1808
1498
1615
419
1536
841
1099
1156
1429
1808
1498
1615
1536
1564
1592
1243
1564
1305
1592
1128
1243
1305
1036
698
1128
1036
495
698
128
495
128
-320
-484
-1064
-320
-1010
-484
-1357
-1064
-1390
-1010
-1177
-1357
-1239
-1390
-1233
-1177
-1239
-1233
-1321
-1321
-748
-748
-420
-420
-211
-211
-129
-129
-354
-354
-328
-328
-330
-330
-363
-363
-375
-375
-315
-315
57
57
-110
-110
-106
-106
87
87
16
16
-273
-273
0
0
59
-128
59
-84
-128
-73
-84
-77
-73
-65
-77
-41
-65
-32
-41
-45
-32
-45
-46
-11
292
296
-14
-78
-85
-17
350
-46
205
-11
292
549
296
599
-14
597
-78
555
-85
513
-17
244
350
247
231
205
549
599
597
555
513
244
247
231
179
364
298
-6
-19
291
141
227
226
179
364
298
-6
-19
291
141
227
226
181
181
217
636
809
830
429
544
572
487
217
636
809
830
893
429
661
544
848
511
442
572
631
487
602
405
776
893
661
848
511
442
631
602
405
776
828
490
611
583
459
646
759
1027
828
490
611
583
459
743
646
759
1027
743
721
721
693
642
847
832
857
887
644
895
693
642
847
832
857
887
644
895
878
878
842
842
782
782
473
473
467
467
775
775
845
845
852
852
487
487
566
207
207
524
524
437
437
800
800
495
495
630
630
603
603
441
441
496
496
626
626
382
382
-27
-27
262
262
359
359
343
343
-62
-62
58
58
47
47
106
-124
110
106
102
-124
110
102
87
120
-302
87
-214
-302
-214
-543
-225
-377
-543
-346
-225
-130
-377
-143
-346
-340
-130
-288
-143
-333
-340
-288
-333
-182
-223
-160
-182
-363
-223
-197
-160
-640
-363
-477
-197
-628
-640
-477
-206
-628
-206
-185
-579
-185
-414
-579
-555
-414
-340
-555
-281
-340
-212
-281
-455
-212
-504
-455
-504
-590
-144
-144
-373
-236
-236
-605
-605
-614
-614
-559
-559
-533
-533
-552
-552
-545
-201
-340
-306
-137
-545
-534
-201
-623
-340
-610
-306
-545
-137
-534
-623
-610
-545
-236
-196
-148
-236
-368
-196
-134
-148
-181
-141
-134
43
-181
259
-141
43
259
332
332
-41
-41
44
44
-291
-291
-294
-294
-337
-337
-185
-235
-235
-152
-152
-271
34
-282
-322
0
108
-128
44
-282
-271
34
-282
-322
0
108
-128
44
-282
-266
-266
37
37
20
20
-308
-308
-328
-328
12
12
-120
-120
-50
-50
-54
-54
-80
-88
-103
102
47
31
56
91
120
-80
-88
-103
102
47
31
56
91
120
-102
-72
-87
103
103
64
64
-118
-118
302
302
152
152
323
323
82
-145
-208
-359
47
122
87
1
-308
-288
-145
39
107
-208
-102
-359
-61
47
-30
122
-50
87
1
118
-308
29
-288
39
107
-102
-61
-30
-50
118
29
18
70
78
70
-273
78
-376
-273
-366
-376
-265
-366
37
-265
-300
37
-300
-135
-135
-345
-345
75
75
-58
-58
-57
-57
-105
-105
-109
-109
-95
-95
95
95
-302
-144
-302
-373
-144
-278
-373
26
-278
-265
26
-324
-265
-327
-324
-257
-327
-257
105
-65
-34
-50
-75
-84
-82
-121
33
105
-65
-339
-34
-375
-50
-298
-75
89
-84
-95
-82
-121
105
33
-293
-377
-277
-339
-375
-298
89
-95
105
-293
-377
-277
-8
240
522
301
31
-318
63
-15
279
-8
240
522
301
31
-318
63
-15
279
-99
17
2
101
-71
-100
57
-99
18
17
121
2
101
-71
-100
57
18
121
315
209
225
370
-36
125
120
-92
-70
315
209
225
370
-36
125
120
-92
-70
-128
14
-128
-306
14
-306
18
-78
18
297
-78
299
297
-9
299
-11
-9
-11
304
327
-6
127
62
81
-118
-53
281
304
327
-6
127
62
81
-118
-53
281
361
361
368
368
-9
-9
72
72
-265
-265
73
73
-59
-59
-65
-65
43
43
-336
-285
-102
-336
278
-285
-15
-102
-109
278
-105
-15
262
-109
345
-105
262
345
296
-60
296
-62
-60
297
-62
380
297
355
380
287
355
277
287
312
277
312
293
293
-60
-124
-60
-40
-124
162
-40
585
162
603
585
244
603
128
244
128
327
327
327
327
350
350
130
130
181
181
243
243
556
556
595
595
629
629
424
494
798
511
494
402
798
556
511
538
402
562
556
515
538
562
515
379
290
134
625
777
433
195
296
346
379
290
134
625
777
433
195
296
346
243
243
580
580
529
529
160
160
316
316
-11
-11
-67
-67
-102
-102
-124
-124
80
-273
-361
-345
33
-105
-109
30
-321
-280
118
-273
-45
-361
-100
-345
-271
33
-171
-105
-208
-109
-135
30
-305
-321
-280
118
-45
-100
-271
-171
-208
-135
-305
-280
-280
-322
-322
-363
-363
-356
-356
-343
-343
-134
-134
-229
-229
-534
-534
-204
-204
-302
-302
82
82
90
90
10
10
-312
-312
-294
-294
43
43
-123
-123
-45
-45
316
316
224
224
423
423
851
851
721
721
1124
1124
1357
1357
1633
1633
1819
1819
1827
1461
1827
1636
1461
1634
1636
1611
1214
1000
1091
745
1634
1611
1214
1000
846
1091
229
745
-289
-512
-1069
-960
846
-1314
229
-1177
-289
-1553
-512
-1069
-960
-1314
-1177
-1553
-1617
-1578
-1169
-1169
-935
-935
-705
-705
-803
-803
-444
-444
-581
-581
-167
-167
-307
-307
-312
-134
95
-156
-67
-314
-54
95
-65
-67
-54
-65
-78
-78
-115
-115
78
78
58
58
-117
-117
265
265
309
309
-26
-26
118
118
85
-116
-64
85
-64
-116
-61
-64
266
-64
378
189
-61
196
266
378
189
196
217
557
390
394
217
567
557
242
390
248
394
514
567
170
242
248
514
170
273
273
-26
153
443
863
788
597
514
606
-26
153
443
863
788
597
514
606
487
777
440
615
625
446
775
796
776
777
440
615
625
446
775
796
776
774
837
688
759
710
797
635
837
611
688
468
759
710
797
635
611
468
832
832
828
828
495
495
472
472
781
781
812
812
494
494
417
417
459
459
877
750
750
714
714
814
814
451
451
486
486
846
846
883
883
815
815
471
465
799
799
866
866
829
829
442
442
586
586
607
607
491
491
877
861
450
877
526
861
597
450
636
553
559
526
171
597
636
559
171
352
352
368
147
380
308
277
341
201
532
368
147
380
308
277
341
201
532
513
165
314
-18
-65
-99
-127
108
96
513
165
314
-18
76
48
14
-286
-65
-339
-99
-127
-375
-321
-281
108
96
76
48
14
-286
-339
-379
-375
-321
-281
-340
-250
-250
-413
-413
-449
-449
-612
-612
-246
-246
-217
-217
-521
-521
-584
-584
-637
-637
-433
-433
-467
-437
-467
-591
-437
-244
-591
-252
-244
-582
-252
-596
-582
-596
-228
-330
-271
-319
-349
-271
93
65
-384
-228
-330
-271
-319
-349
-271
93
65
-384
-584
-617
-244
-244
-147
-147
-170
-170
-212
-212
-135
-135
16
16
40
40
-143
-601
-585
-367
38
-335
-609
-497
-392
-143
-601
-585
-367
38
-335
-609
-497
-392
-195
-195
-362
-133
-160
-134
-130
-196
-362
-247
-182
-133
-160
-134
-130
-296
-196
52
-247
33
-182
-271
6
64
-296
52
52
-310
-138
33
-271
6
64
52
-310
-138
-325
-116
-325
-116
326
338
-79
-262
326
338
-79
-262
-305
60
-90
-305
60
-90
119
119
-330
-234
-234
-209
-209
-312
-312
34
34
-284
-284
-369
-369
-301
-301
-101
277
-97
-361
-516
-203
-326
-286
-341
-101
277
-97
-361
-516
-203
-326
-286
-341
-356
12
-87
-356
-25
12
-87
-87
74
-25
46
-87
104
-59
74
46
104
-59
262
265
262
-45
-107
265
-122
-45
-76
-107
-13
-122
-8
-76
-72
-13
-8
-72
112
88
88
106
113
69
69
2
2
-275
-275
42
42
-101
-101
-5
-5
269
269
-67
-67
66
66
-262
-262
29
29
-110
-110
-6
-6
262
262
-77
80
45
106
-33
309
293
-62
-77
108
80
45
106
-33
309
293
-62
108
93
110
110
67
67
-298
-298
-363
-363
-285
-285
123
123
-69
-69
114
114
30
88
256
356
290
-101
110
-89
-64
30
88
256
356
290
-101
110
-89
-64
94
94
-306
-306
-344
-344
41
41
-22
-22
343
343
310
310
-80
-80
27
27
-316
-291
91
-316
-291
91
-38
-23
117
-274
-300
-38
-23
117
-274
-300
43
43
-126
-115
118
-108
-47
-126
-115
-75
118
23
-108
-133
-371
-47
-75
23
-133
-371
77
257
265
-114
66
115
-60
-77
65
77
-278
257
13
265
-123
-114
-29
66
-45
115
109
-60
4
-278
-77
65
52
-278
13
-123
-29
-45
109
4
-278
52
-92
-92
-37
-96
-96
32
32
-295
-295
-87
272
270
23
-87
272
270
-27
-7
333
378
299
-27
-109
-7
51
333
378
69
-108
-109
51
69
-108
-59
-66
-76
-34
322
177
245
245
-59
208
-66
-76
-34
322
177
245
245
208
212
554
397
212
384
235
342
366
563
482
554
465
566
211
524
397
450
406
607
397
600
384
235
342
366
563
482
465
566
211
524
397
450
406
607
600
601
544
171
312
260
277
328
368
357
601
544
285
171
-67
312
-122
260
-108
277
-70
328
-94
368
61
357
-306
-342
285
-67
-122
-108
-70
-94
61
-306
-342
-308
-308
-300
-300
-384
-384
-246
-246
-250
-250
-337
-337
-110
-110
-22
-22
98
98
-139
-139
-529
-224
-529
-340
-224
6
-263
-316
-340
-344
6
-349
-263
-316
-344
-349
-366
-138
-132
-329
-278
-305
-139
-210
-193
-366
-138
-132
-329
-278
-305
-139
-210
-193
-379
-349
-129
-172
-143
-291
97
-58
269
-379
-349
809
-129
946
-172
1590
-143
1794
-291
1483
97
1558
-58
1237
269
359
525
809
946
1590
1794
1483
1558
1237
1656
1891
1891
1689
1689
1477
1477
1159
1159
937
937
1094
1094
716
716
429
429
-18
-247
-651
-937
-1156
-1606
-1499
-1512
-1590
-18
-247
-1286
-651
-726
-937
-505
-1156
-607
-1606
-214
-1499
-358
-1512
-323
-1590
-352
-360
-1286
-726
-505
-607
-214
-358
-323
-352
-360
-310
-280
-345
-197
-221
-378
-262
17
-280
-270
-345
-197
-221
-378
24
-262
-107
17
-13
-270
-32
-79
-21
131
24
235
-107
227
-13
-32
-79
-21
131
235
227
214
214
561
561
434
434
426
426
241
241
313
313
306
306
191
191
539
539
220
348
301
220
361
348
179
301
361
214
179
247
214
584
247
423
584
423
451
451
404
404
599
599
557
557
520
520
222
222
218
218
541
627
541
627
635
545
199
237
419
878
713
669
834
780
774
772
477
414
628
639
424
442
635
545
199
237
419
878
713
669
834
780
774
772
477
414
628
639
424
442
419
396
419
430
396
430
788
788
652
652
726
726
716
642
642
800
800
475
484
849
753
1102
1049
663
864
696
475
1054
484
849
884
753
466
1102
463
1049
663
864
696
1071
1054
843
673
884
863
466
434
463
843
673
863
434
558
581
489
558
676
581
758
489
683
786
676
758
422
683
411
786
422
411
419
596
189
419
351
596
132
189
206
351
171
132
288
206
-58
171
288
-58
272
172
272
230
172
230
376
-62
71
376
21
-62
-279
71
-337
21
-279
-337
-357
-315
-267
-274
-320
-339
-357
-317
-315
-305
-267
-341
-274
-320
-339
-131
-317
-374
-305
-306
-341
-267
-323
-131
-374
-186
-541
-581
-593
-306
-267
-323
-186
-541
-581
-593
-617
-617
-390
-400
-390
-400
-403
-403
-430
-430
-472
-452
-472
-452
-567
-567
-370
-370
-262
-338
-530
-434
-483
-338
-461
-530
-432
-434
-397
-483
-561
-461
-432
-397
-561
-163
-163
-306
-287
-287
-341
-341
-134
-134
-140
-140
-380
-380
-360
-360
-342
-342
-341
-371
-171
-171
-181
-181
-343
-343
68
68
-88
-88
-102
-102
71
71
14
14
9
9
0
0
-305
-305
-358
-358
-360
-360
-306
-306
13
13
47
47
47
42
64
118
-79
-48
-55
-77
-101
47
42
64
118
-79
-48
-55
-77
-101
102
-269
-147
-193
-357
41
102
71
60
102
-269
-147
-193
-357
41
102
71
60
-101
292
340
284
-21
280
365
351
-62
-101
292
340
284
-21
280
365
351
-62
7
-310
52
-30
326
284
-106
7
44
-310
39
52
-30
326
284
-106
44
39
107
-90
-80
107
-87
-68
-90
-32
-80
-32
-87
-75
-68
-110
-32
-32
-75
-110
-97
-61
-49
-56
-52
-64
99
-317
-165
-97
-61
-49
-354
-56
98
-52
-19
-64
-61
52
-263
-317
90
-165
-36
-21
-354
98
-19
-61
52
-263
90
-36
-21
-121
-121
69
69
-116
-116
369
369
275
275
113
113
-322
-322
-339
-339
60
60
-71
-102
30
-71
-280
48
-102
-123
30
119
-280
36
48
21
-123
119
36
21
-119
300
129
-119
342
300
-42
129
93
342
59
-42
-115
93
286
59
-115
286
377
341
-48
85
85
32
32
6
6
-287
-287
-297
-297
36
36
-89
-26
-91
-89
65
77
-26
-26
-91
151
65
214
77
151
-26
151
214
151
315
315
256
-48
-115
103
256
-90
-48
322
-115
193
103
189
-90
322
193
189
354
329
180
354
564
329
564
180
186
564
370
564
214
186
399
370
214
399
459
459
579
579
136
136
358
251
423
458
607
218
162
183
234
234
542
542
593
593
635
635
389
389
602
602
539
539
249
249
249
253
249
227
253
167
227
356
167
324
356
344
324
134
344
134
155
351
-42
105
-122
271
155
341
-42
-60
105
-328
-122
271
341
-60
-213
-328
-356
113
-67
-213
84
-275
-356
20
113
121
-67
121
84
-275
20
121
121
6
-318
-318
34
34
-50
-50
269
-106
-106
-313
-313
-208
-208
-238
-238
-172
-172
-333
-266
-333
-266
-273
-356
-194
-215
-159
-340
-290
2
-273
46
-356
77
-194
53
-215
-263
-159
7
-340
-74
232
-290
2
46
77
53
-263
7
-74
232
791
791
738
738
1128
1128
1014
1162
1014
1274
1595
1419
1530
1162
1274
1595
1419
1826
1530
1434
1397
1083
1826
823
537
-122
-561
1434
-868
1397
1083
823
537
-122
-561
-868
-1030
-949
-1244
-1525
-949
-1244
-1817
-1525
-1589
-1817
-1337
-1589
-1000
-1337
-990
-1000
-990
-1094
-1094
-795
-572
-795
-563
-572
-634
-563
-565
-634
-332
-565
-119
-332
-61
-119
-61
-99
-99
-112
-112
-90
-90
-112
-112
72
72
58
58
-112
-112
-20
-20
-17
-17
-64
-64
-37
360
-37
522
360
596
522
570
596
522
570
252
522
254
252
254
233
233
175
333
-26
-57
299
227
605
563
175
333
-26
-57
299
227
605
563
160
335
149
160
335
149
520
532
181
381
200
586
520
532
181
381
200
586
623
623
536
536
196
196
245
245
405
405
806
806
833
833
770
770
447
447
409
409
400
400
425
425
768
891
891
704
658
704
796
658
462
796
462
481
481
806
806
856
856
888
888
672
672
699
699
641
641
489
489
619
619
639
778
884
639
851
778
488
884
445
851
499
488
816
445
819
499
816
819
813
883
748
1054
710
825
813
774
883
748
1054
710
825
774
849
697
849
697
735
735
706
665
651
640
875
871
890
889
835
787
839
722
1043
650
392
255
622
706
665
651
640
875
871
890
889
835
787
839
722
1043
650
392
255
622
825
825
862
408
862
156
408
299
156
314
299
314
314
-21
314
-21
-94
-82
-94
-30
-82
-42
-30
124
-42
52
124
67
52
-128
67
-112
-128
90
-112
90
19
-277
-277
-286
-286
-292
-292
-326
-326
-131
-131
-186
-186
-185
-185
-369
-369
-286
-289
-144
-519
-540
-233
-208
-244
-532
-286
-289
-144
-519
-540
-233
-208
-244
-532
-255
-242
-568
-425
-455
-620
-522
-527
-255
-590
-242
-568
-425
-455
-620
-522
-527
-590
-587
-520
-515
-616
-428
-570
-325
87
11
-587
-520
-198
-515
-596
-579
-616
-222
-428
-132
-570
-340
-325
-334
87
-131
11
-234
-198
-596
-579
-222
-132
-340
-334
-131
-234
-567
-567
-548
-191
-356
-327
-320
-548
-279
-191
12
-356
-295
-327
-320
-279
12
-295
-171
-254
-180
3
-254
-180
3
119
58
119
-350
58
-156
-350
-303
-156
-303
-127
-127
-44
-97
-44
76
-97
77
76
-98
77
-26
-98
-35
-26
-100
-35
-100
117
-119
-119
-67
-67
-39
-39
-51
-51
-87
-87
-119
-119
-122
-122
-95
-95
-67
-80
-80
-119
-119
-123
-123
-48
-48
304
304
287
287
117
117
-321
-321
-309
-309
-65
199
240
295
70
39
-67
346
378
316
261
-8
-44
112
-65
199
240
295
70
39
-67
346
378
316
261
-8
-44
112
6
-266
79
6
-266
79
-79
-79
-80
84
84
11
11
39
39
-118
-118
-51
-51
-44
-44
-25
-25
306
362
278
67
362
-354
278
-329
67
72
-354
-113
-329
71
72
-113
71
-263
67
-263
-7
67
358
-7
292
358
-118
292
57
-118
104
57
-47
104
-47
279
289
-5
-70
126
120
-59
320
141
279
289
363
-5
-5
-70
-96
126
-81
120
284
-59
143
320
178
141
136
355
363
-5
-96
-81
284
143
178
136
355
364
372
309
-55
-99
-5
159
254
230
364
372
309
-55
-99
-5
159
254
230
164
151
199
249
522
516
252
229
181
164
151
199
249
522
516
252
229
181
139
139
381
381
373
380
141
373
225
141
565
225
537
565
383
537
383
257
257
309
309
232
232
591
591
239
239
311
311
-25
-25
282
282
303
303
-81
-265
-321
-81
52
-265
-65
-321
-46
52
123
-65
50
-46
46
123
50
46
56
29
3
28
85
92
27
-291
-260
29
3
28
85
92
27
-291
-260
107
-68
-68
-86
-86
99
99
60
60
56
56
21
21
-331
-331
-168
-168
-166
-337
-264
-258
-337
0
-264
101
-258
295
0
203
101
523
295
203
523
587
587
796
796
1131
1131
1400
1400
1174
1174
1009
1009
1097
1097
1056
1056
1102
1102
1116
1032
1116
853
1032
583
853
-28
583
-156
-28
-459
-156
-870
-459
-697
-870
-697
-1128
-1200
-1811
-1731
-1910
-1128
-1441
-1200
-1276
-1811
-1198
-1731
-1347
-1910
-1441
-1276
-1198
-1347
-1120
-841
-410
-387
-638
-514
-295
125
-102
-841
-410
-387
-638
121
-514
-114
-295
-33
125
279
-102
269
-1
288
334
121
332
-114
-33
279
269
-1
288
334
332
277
-33
-45
-33
-17
287
139
277
533
-33
617
-45
-33
-17
595
287
139
520
533
225
617
255
572
609
602
595
584
520
593
225
255
572
609
602
584
593
617
617
619
561
213
172
619
242
561
213
416
172
242
638
470
416
529
197
531
435
797
802
805
893
737
529
501
197
531
597
435
387
797
849
802
742
805
690
893
769
737
391
696
501
597
387
849
742
690
769
391
390
439
468
494
808
862
848
509
437
447
390
795
439
640
468
671
494
864
808
501
862
434
848
454
509
785
437
447
795
640
671
864
501
434
454
785
828
807
783
824
651
688
646
846
857
807
783
824
651
688
646
846
857
680
736
705
874
680
818
736
829
705
856
874
825
818
477
829
856
825
477
403
403
437
831
683
885
435
515
222
437
549
831
683
885
435
515
222
549
588
521
159
342
280
-90
44
42
588
-45
521
159
342
280
-90
44
42
-45
156
188
259
10
-368
-320
156
188
259
10
-368
-320
31
39
-311
31
39
-311
-160
-201
-178
-152
-162
-178
-138
-286
72
-160
-201
-178
-152
-162
-178
-138
-286
72
70
-314
70
-314
-236
-609
-602
-516
-201
-222
-527
-236
-609
-602
-516
-201
-222
-527
-256
-148
-284
-272
-383
-248
-525
-214
-191
-256
-148
-284
-272
-383
-248
-525
-214
-191
-518
-618
-628
-525
-518
-139
-618
-324
-628
-316
-329
-333
-525
-139
-324
-316
-329
-352
-333
-176
-569
-448
-497
-352
-414
-176
-233
-569
-304
-448
-497
56
-414
-233
-304
56
58
58
20
20
12
12
69
69
-81
-8
-81
-8
-40
-40
70
70
-360
-360
-186
-186
-141
-298
-141
12
17
-298
29
45
6
-347
-139
12
-299
-127
-76
17
41
29
-376
45
-353
6
80
-347
-70
-139
-299
-127
-76
41
-376
-353
80
-70
82
82
-363
-384
-363
68
-384
280
312
-72
68
68
280
69
312
-72
68
69
-128
-128
-115
92
28
-283
-337
-374
-344
8
-115
92
28
-283
-337
-374
-344
8
84
80
84
52
95
-61
80
-38
87
-344
-129
-263
52
95
-61
-38
-127
87
-97
-344
118
-129
118
-98
-116
-263
35
-127
-282
-97
118
118
-98
-116
35
-282
81
298
298
184
135
135
-30
-30
112
112
127
127
-38
-38
293
293
303
-2
-2
-75
-75
109
109
56
56
27
27
20
20
49
49
-124
-124
-7
336
330
-6
330
-66
-6
-45
-66
281
-45
317
281
292
317
292
-10
-10
-33
-52
-87
-96
-10
153
516
219
-33
-52
361
-87
348
-96
222
-10
576
153
207
516
-54
219
59
-77
150
361
348
222
576
207
-54
59
-77
150
207
290
114
-95
149
620
207
402
290
579
114
523
-95
149
620
402
579
523
537
553
249
153
335
336
147
197
537
146
553
249
153
-4
335
118
336
101
147
-66
197
268
146
259
-53
-89
-4
-119
118
101
-66
268
259
-53
-89
-119
61
-285
-285
-282
-282
101
101
-29
-29
-46
-46
75
75
-276
-276
12
12
71
15
-145
-520
-237
-372
-278
-279
-354
71
15
-145
-520
-237
-372
-278
-279
-354
-185
-185
-221
-150
-221
29
-150
-50
29
-32
-50
20
-32
-244
20
-571
-244
-571
-365
-78
262
97
-343
-78
-300
-46
262
174
97
203
-343
-300
-46
174
165
203
552
894
984
165
1387
552
1353
894
1306
984
1332
1387
1362
1353
1306
1332
1362
1310
940
1086
1310
698
940
452
1086
332
698
-293
452
-514
332
-594
-293
-514
-594
-427
-663
-427
-1015
-663
-1578
-1015
-1440
-1578
-1616
-1440
-1205
-1616
-1344
-1205
-1021
-1344
-1021
-913
-696
-421
-219
-159
-174
-144
-291
78
-913
-696
-421
-219
-159
-174
-144
-291
78
107
66
37
73
-117
-88
-108
-108
-34
107
66
37
73
-117
-88
-108
-108
-34
339
339
153
153
381
381
320
320
326
326
162
162
248
248
241
241
168
168
130
130
154
156
317
-70
-98
154
272
156
159
317
214
-70
-98
272
159
214
206
234
563
580
252
205
558
475
786
206
234
563
580
252
205
558
475
786
386
188
188
376
376
184
184
231
231
190
190
148
148
199
199
542
542
541
194
194
135
196
569
633
135
385
415
196
569
633
385
415
478
626
223
474
189
583
784
478
882
810
626
411
223
189
583
784
882
810
411
621
485
675
1030
485
711
828
675
1030
502
711
785
828
816
502
785
816
773
452
485
773
892
452
1045
485
1070
892
713
1045
1070
713
858
834
858
834
880
880
665
664
664
644
644
872
872
814
814
460
460
629
629
616
616
427
489
474
427
402
609
489
626
474
415
402
419
609
625
626
415
419
625
574
561
574
574
561
570
524
196
377
298
-32
574
570
524
196
377
298
-32
-64
-23
312
333
-28
43
-353
-368
-294
14
-267
-329
-362
-364
-64
-132
-23
-197
312
-245
333
-216
-28
43
-353
-368
-294
14
-267
-329
-362
-364
-132
-197
-245
-216
-133
-133
-347
-347
-154
-154
-552
-552
-432
-432
-484
-484
-445
-445
-606
-606
-251
-251
-200
-225
-554
-613
-600
-519
-171
-135
-169
-225
-235
-554
-535
-613
-559
-601
-600
-519
-419
-171
-477
-135
-455
-169
-627
-570
-235
-535
-559
-601
-419
-477
-455
-627
-570
-596
-596
-399
-396
-399
-396
-562
-562
-196
-196
-131
-351
-131
-296
-351
23
-296
23
36
36
-282
-282
-376
-376
-177
-177
-166
-166
-369
-369
-315
-315
-281
-281
-301
-301
-145
-145
-544
-617
-515
1
-9
290
122
-305
-544
-617
-515
1
-9
-266
290
122
-32
-305
146
321
64
-348
-266
2
-32
-77
146
-72
321
64
-348
2
-77
-72
-262
-163
-163
-354
-354
105
105
-33
-33
-88
-88
63
63
30
30
42
42
20
20
-290
-289
62
-84
-54
-113
53
-285
-290
-289
62
-84
-54
-113
53
-285
-342
-342
-353
-353
-306
-306
18
18
35
35
-270
-270
-310
-267
90
-110
116
65
82
-310
-104
-267
-78
105
0
90
-272
-110
-44
257
-47
-108
-125
-122
97
15
116
65
82
-104
-78
105
0
-272
85
-44
257
-47
-108
-125
-122
97
15
-293
-293
-260
-260
78
114
78
114
50
50
-321
-321
-130
-350
14
-130
-350
14
123
123
-88
-118
64
1
-269
15
35
18
-88
-118
64
1
-269
15
35
18
-267
-273
-272
-311
-140
-194
-146
-267
-283
57
-273
-272
-311
-140
-194
-146
-283
57
45
-260
3
45
63
-260
71
3
-278
63
-375
71
-344
-278
60
-375
-344
60
-88
111
-88
-305
-136
111
-320
-305
97
-136
-38
-320
258
97
269
-38
258
269
289
285
-29
-94
-77
289
144
146
300
289
285
-29
-94
-77
289
144
146
300
-41
256
147
517
230
354
-41
276
354
256
518
147
517
230
354
590
276
217
354
256
518
125
-58
156
590
597
217
631
256
530
125
-58
156
597
631
530
149
149
354
139
218
533
554
541
249
197
354
139
149
218
533
152
554
220
541
553
249
567
197
236
378
283
-35
149
152
220
553
567
236
378
283
-35
-91
-91
103
63
78
-119
-59
-57
125
16
103
63
78
-119
-59
-57
125
16
-310
-310
-303
-303
3
3
15
15
-298
-298
-372
-372
-138
-138
-362
-362
-335
-335
-351
-351
-366
-366
-318
-318
29
29
75
75
21
21
-346
-346
-154
-154
-371
-371
-275
-275
-373
-373
-346
-307
-258
47
96
-83
337
385
1040
1040
1406
1406
1615
1615
1640
1640
1557
1557
1210
1210
1402
1402
1363
1363
1340
1340
1311
961
747
432
135
-45
104
-327
-404
1311
961
747
432
135
-1084
-45
-1163
104
-1556
-327
-1551
-404
-1272
-1271
-1221
-1084
-1297
-1163
-746
-1556
-1551
-1272
-1271
-1221
-1297
-746
-453
-537
-250
-453
-534
-537
-534
-250
-222
-534
-137
-534
-320
-261
62
-111
-39
-9
-21
-30
261
321
335
-222
-137
-320
-261
62
-111
-39
-9
-21
-30
261
321
335
262
262
-106
81
89
-110
-37
305
136
178
-106
81
89
-110
-37
305
136
178
147
356
356
380
380
227
227
583
583
597
597
534
534
210
210
175
175
167
175
167
221
175
555
221
605
555
583
605
520
583
222
520
204
222
204
155
155
317
263
336
246
631
387
599
622
317
263
336
483
862
890
822
475
412
390
385
246
631
387
599
622
624
483
862
890
822
475
412
390
385
624
578
526
255
575
439
784
768
400
544
578
526
255
575
439
784
768
400
544
521
521
608
608
495
495
858
869
791
426
615
614
391
435
498
838
858
642
869
791
426
