-599
-546
-289
-1
357
-30
-265
-188
-514
-541
-578
-582
-228
-303
44
-331
-592
-501
-390
-330
-72
-65
25
-350
-349
-294
13
78
-110
112
-376
-427
-795
-627
-151
-361
-145
10
150
443
559
-86
8
272
625
633
300
16
47
274
170
211
543
457
844
777
568
372
258
-126
-345
-540
-565
-176
-300
-295
-368
-368
31
-39
261
109
-375
-539
-569
-521
-190
-316
101
-45
-84
12
-136
-187
-208
-565
-474
-794
-388
-379
35
-285
-183
-223
-349
25
-358
-484
-1130
-992
-1031
-420
-152
23
282
450
1131
1338
1309
982
1328
1538
1422
1416
1631
1423
1523
1812
1497
1436
1643
1185
687
-1
-602
-697
-1149
-1355
-1550
-1279
-970
-835
-422
-824
-1051
-1101
-663
-434
-624
-510
-732
-1123
-1064
-841
-588
-171
-144
-170
-167
-142
-175
-532
-582
-211
9
-104
97
-340
-196
-142
11
-101
-4
310
308
-36
84
10
65
-74
-14
-49
-95
-87
-53
-40
-26
300
177
551
591
561
247
190
379
341
156
612
822
878
470
229
344
151
637
866
688
844
428
587
569
570
551
558
638
492
786
480
455
804
700
746
867
411
580
627
401
528
297
-88
288
605
881
893
639
339
-21
383
597
388
230
275
-47
320
215
512
177
336
297
293
-27
55
-170
-573
-565
-182
-298
28
19
-296
-378
-197
-217
-143
-257
108
89
-313
-228
-596
-639
-396
-390
-611
-579
-618
-493
-646
-710
-656
-796
-406
-520
-138
-377
-538
-785
-895
-482
-195
-324
-221
-479
-834
-467
-580
-569
-634
-603
-179
-275
-274
-136
-201
-382
0
65
35
-293
-365
-185
-523
-581
-567
-222
-359
14
117
-69
-40
-44
-60
-94
58
-144
-638
-789
-789
-448
-636
-593
-229
2
275
167
338
77
-185
-546
-211
-319
14
-285
-136
-183
-366
34
-112
-98
103
35
-281
-344
-141
-134
-285
-127
-1
290
-6
-94
31
-364
-169
-328
-111
315
304
-104
9
-286
1
40
95
-75
-23
-94
4
-315
96
128
599
403
402
437
453
596
140
299
155
603
409
545
380
309
319
297
-62
77
12
-267
-300
-371
-194
-220
-163
-294
100
-92
104
-307
-220
-597
-429
-502
-791
-476
-603
-247
-255
-569
-556
-186
-319
-296
-360
-146
-371
-335
-381
-218
-243
-156
-285
48
63
91
-70
346
573
882
996
1601
1827
1897
1879
1861
1870
1895
1912
1896
1794
1553
919
493
382
110
-136
-457
-1111
-1221
-1425
-1443
-1621
-1277
-1406
-919
-878
-414
-640
-438
-412
-530
-151
-146
-198
-191
-152
-206
-614
-438
-550
-270
-86
-93
86
95
-65
266
271
284
361
191
198
377
285
-43
-121
65
76
-53
363
154
313
-64
-81
278
186
609
504
853
816
388
191
139
538
495
859
802
421
614
637
424
426
407
427
500
826
846
812
782
820
691
1111
963
948
1083
666
788
451
442
785
697
1105
1100
659
445
394
793
709
720
816
633
540
255
220
186
228
619
488
478
583
141
297
312
380
190
238
529
534
210
311
-128
25
51
-113
-73
119
6
-309
-271
87
-59
277
325
334
297
-40
117
36
7
45
118
-104
90
-301
-154
-153
-320
28
62
64
79
89
28
-377
-518
-532
-150
12
90
78
63
111
-68
-62
87
-319
-146
-152
-176
-560
-479
-778
-548
-125
236
586
182
-4
-59
-7
276
-48
113
88
-116
-61
-63
-100
-105
-51
264
267
-56
108
23
-298
-330
-292
108
321
251
577
540
217
172
376
287
-55
-66
-42
-116
-363
-388
-442
-175
-40
175
375
-35
-80
-9
294
-11
-51
284
166
176
-13
-257
-349
11
-98
-59
-123
73
54
22
-301
-309
82
286
363
-28
26
-268
-109
300
-14
44
-285
-82
233
595
356
-294
-518
-155
-95
153
160
-30
37
33
-20
228
589
255
145
186
627
504
428
217
367
520
802
681
788
220
-6
-2
165
586
403
430
507
652
1032
1037
664
791
492
507
447
223
-84
-291
-287
-125
300
380
373
318
-31
98
-268
-294
36
-115
-47
-40
-74
-113
-125
-77
278
341
268
69
-364
-133
-294
31
20
49
-25
233
592
152
74
-138
-343
110
-9
257
265
161
457
1032
1017
1214
1455
1722
2127
2048
1832
1460
1845
2100
1991
1930
1780
1677
1832
1544
714
-13
-632
-710
-1048
-1060
-898
-1341
-1230
-1154
-1044
-529
125
-18
119
-289
-332
-280
37
78
-110
259
350
326
-69
48
30
-108
313
167
204
215
235
250
240
206
180
200
516
556
246
346
-64
-71
135
439
866
772
518
352
161
612
462
396
552
597
781
650
826
392
617
828
1099
897
676
398
560
420
823
865
842
873
727
1079
1070
726
652
646
687
718
710
670
866
797
487
479
798
667
1071
908
1132
720
813
775
880
749
734
814
609
250
246
251
230
249
613
480
480
599
210
223
614
458
415
531
157
366
345
292
-46
-124
101
-116
269
187
550
237
316
-82
-71
309
157
146
280
101
-324
-131
3
325
392
470
243
-78
29
96
-74
100
-353
-200
-370
33
66
-284
-351
-261
-46
154
228
168
281
-127
49
73
-95
-42
-87
66
-263
-279
-277
-284
5
-123
308
151
366
257
-49
-3
319
324
284
-6
-31
-93
44
-328
-353
-278
84
-97
-53
-7
283
270
-40
-76
-31
317
343
-20
58
-304
-272
88
-92
-68
-33
294
321
-40
11
-137
-348
120
321
345
-63
0
-339
-263
-102
275
281
-56
116
96
-124
-81
-58
-32
285
367
170
158
335
-13
-63
-60
-17
289
313
292
-16
-80
121
84
77
-124
256
132
176
358
266
281
172
579
609
249
365
268
-51
-111
120
-62
328
143
343
-17
-24
366
534
607
559
226
211
231
198
313
125
32
-120
370
544
516
320
-109
-98
332
532
633
629
558
192
325
-3
308
217
395
480
475
456
464
456
389
570
583
432
495
387
142
-58
-89
-9
270
-67
-114
-12
151
161
-48
-275
-260
256
234
217
268
-117
-35
370
357
-95
-260
50
-13
300
87
-234
-636
-233
61
269
306
-16
-99
89
68
-106
347
557
403
406
439
855
1104
1343
1537
1447
1816
1809
1440
1611
1419
1828
1884
1510
1591
1237
1165
916
391
0
-497
-704
-711
-711
-1062
-940
-969
-1071
-781
-233
-313
-290
-362
-193
-252
-548
-573
-544
-155
75
307
174
150
291
-82
-124
-54
356
245
525
128
-74
101
-42
149
246
206
136
151
221
247
211
200
545
440
797
781
427
581
536
551
606
401
417
411
409
404
614
521
210
546
477
863
814
389
547
631
821
681
657
844
851
666
680
838
459
452
846
756
1070
736
860
503
458
464
782
873
665
848
417
246
166
186
534
413
807
878
823
425
588
618
443
444
588
199
147
160
149
318
-63
-120
-37
152
546
231
-19
-264
-323
32
96
32
-285
60
-33
-42
-308
-602
-613
-318
-13
258
-277
-591
-435
-524
28
-20
-43
4
-192
-201
-296
101
82
-282
-302
65
-92
106
-324
-174
-356
77
-53
-37
-81
-117
119
73
1
-297
3
-115
309
152
368
-8
-77
256
168
513
139
117
-161
-577
-626
-609
-252
-299
-37
142
143
284
-55
-38
273
287
267
280
338
358
281
-83
-79
325
235
518
383
-50
114
116
-119
-112
-83
267
377
159
354
268
273
378
246
572
582
559
246
128
-31
110
116
-47
271
-28
-121
118
-54
282
264
-53
-13
149
535
195
-85
-342
-379
35
-71
-78
37
-340
-321
106
327
219
253
223
247
610
417
542
-20
-286
-305
-109
316
276
106
31
-98
137
575
403
429
429
633
526
167
362
334
322
364
232
615
604
163
-23
276
575
647
740
825
595
238
517
542
520
246
536
542
156
-85
-276
-281
109
-36
-34
-76
-56
281
327
286
-52
-79
-27
283
294
286
300
323
308
-21
-77
-14
153
542
231
-6
30
19
-39
147
379
-88
-278
-315
17
107
-55
381
393
883
733
767
1094
953
1013
978
925
940
941
754
601
-128
-224
-413
-819
-1065
-1387
-1661
-1520
-1443
-1224
-952
-683
-436
-213
-293
39
0
-344
-382
-326
59
-42
372
239
528
212
383
358
174
553
402
445
395
255
360
315
181
387
495
399
177
280
324
533
509
662
716
709
656
811
428
595
591
390
430
431
445
506
813
507
622
530
593
498
833
474
547
218
579
775
667
708
676
877
816
500
453
436
472
827
712
1082
1082
698
795
491
865
1059
1147
1037
818
426
465
852
668
887
814
777
507
472
416
632
597
533
212
240
387
780
500
580
183
221
390
500
440
532
140
346
351
372
154
228
570
612
551
132
-57
108
-79
347
214
189
326
-27
-34
285
352
138
137
345
267
-56
-86
-86
-77
-47
310
219
619
627
214
-3
-126
-83
339
223
202
267
20
-373
-340
27
92
81
70
-111
288
157
207
181
379
341
339
359
340
-31
34
-378
-139
-274
-117
-12
289
284
-23
-106
112
-33
220
456
774
388
193
324
285
284
290
295
286
-13
-74
-111
-114
-109
-69
337
599
819
790
513
-37
-125
-11
383
154
339
-17
118
-263
-305
85
333
520
526
139
-3
-97
102
76
119
-28
308
278
-89
93
-125
-18
320
332
292
-4
-8
281
333
379
152
185
240
559
586
535
173
352
381
523
439
798
806
785
781
510
443
628
412
830
694
847
571
376
179
625
425
521
335
332
209
241
305
47
-268
-57
222
590
234
334
262
273
294
301
339
155
178
332
-99
53
101
-30
304
304
296
320
320
-15
-120
120
-24
380
203
198
155
352
275
-36
280
222
445
821
841
866
693
761
752
730
1041
1094
688
520
39
-216
-231
-525
-800
-961
-1265
-1621
-1428
-1860
-2066
-2092
-1874
-1558
-1317
-914
-1028
-845
-393
-197
44
344
610
444
590
176
157
572
779
881
869
833
837
830
498
394
628
463
828
829
464
606
574
621
438
777
884
722
738
650
780
456
481
809
878
672
701
696
890
778
410
603
617
443
807
883
888
838
808
864
745
1139
940
1150
1035
894
504
411
416
788
687
762
699
806
429
396
428
468
491
508
511
471
385
579
610
476
870
688
709
741
1066
1128
1115
767
671
645
686
711
887
432
199
323
378
582
787
845
467
534
181
247
411
802
816
453
564
206
167
158
142
133
178
545
397
386
236
335
349
564
806
855
407
152
298
361
171
334
-121
40
-93
375
171
-29
-302
-380
55
296
379
288
-88
122
103
38
-279
51
269
193
157
-59
23
55
256
201
555
579
595
601
564
251
237
542
594
574
221
357
262
-68
112
36
14
76
-92
-93
8
-226
-617
-526
-273
-53
-7
-80
-109
-15
369
149
356
336
157
516
514
134
-8
-64
-27
304
375
181
208
150
-4
79
-262
40
-103
-20
-6
-41
-88
124
103
126
-61
275
306
267
-63
-122
113
118
-127
-102
-45
284
307
-35
48
-350
-344
66
-11
319
281
-22
266
352
153
153
156
201
228
142
-53
34
32
-63
135
513
555
578
599
577
251
194
215
543
571
246
132
332
370
212
581
433
789
844
814
449
580
249
248
563
402
481
462
566
355
-27
257
350
368
269
-109
100
112
106
74
91
-46
364
172
351
-52
101
94
-104
-20
317
366
348
264
-84
-113
-70
-18
-5
-14
264
310
298
-66
80
115
341
638
835
891
640
706
1114
1280
1391
1184
1179
1361
935
676
390
150
-39
2
-572
-700
-1302
-1550
-1500
-1745
-1981
-2041
-2075
-1424
-1348
-949
-902
-766
-475
-380
-91
366
515
618
631
558
229
539
488
712
1038
887
624
178
167
531
627
400
409
457
793
838
830
836
664
1065
927
947
1137
1034
666
812
488
768
866
690
661
798
446
475
865
747
1080
1108
1119
1098
761
655
861
892
692
700
661
891
647
659
646
644
707
1067
1121
1076
719
647
889
894
883
886
695
1058
1127
1088
687
773
433
497
664
1069
1101
766
688
715
1095
968
1018
985
911
1079
713
849
508
505
867
1046
959
1021
934
757
874
861
680
722
657
781
417
628
618
608
617
428
789
842
510
584
149
338
138
228
244
180
131
177
522
253
329
124
-128
133
408
637
265
-143
-240
4
312
149
279
-123
88
86
29
-296
0
-91
310
308
-61
-126
-59
319
369
331
280
269
260
-65
77
7
48
-75
326
158
180
132
283
-96
84
104
-56
289
301
-22
-108
103
107
-115
-50
290
351
339
257
-81
-101
-72
-41
259
364
251
549
132
120
1
-79
252
438
592
345
-66
-49
299
350
347
345
357
352
323
297
302
317
320
326
362
156
152
315
-66
-124
-72
289
352
344
319
330
349
321
-16
-70
-26
342
156
359
-51
47
-270
85
324
580
437
585
335
127
82
-88
273
324
334
320
270
-53
-66
282
174
515
224
379
301
266
-20
-41
273
198
417
788
475
582
223
219
236
178
325
287
136
555
613
528
195
554
812
750
713
509
593
554
567
249
361
-9
-15
291
287
-73
40
-288
33
-44
148
223
134
-45
83
98
-42
311
316
-3
-62
-81
-77
-69
-65
-56
-43
-37
-37
-53
-117
7
-138
-184
-330
-126
295
363
134
210
624
831
1067
1350
1639
1793
1427
1355
1042
693
1049
1103
645
216
27
-521
-431
-878
-920
-1246
-1457
-1510
-1481
-1460
-1443
-1597
-1356
-759
-422
-166
1
109
-89
-86
-118
127
-57
349
239
538
207
354
321
140
512
582
578
525
207
160
148
179
228
526
570
397
507
796
410
192
339
215
489
673
892
461
592
630
800
747
899
944
1120
706
813
490
500
780
797
843
674
743
722
888
841
659
1063
916
929
1151
1116
1072
735
647
878
688
1047
1110
1102
1045
723
695
760
924
1349
1389
1002
1059
680
668
666
871
828
866
683
673
812
456
475
806
808
479
450
770
797
400
176
363
543
785
845
445
543
520
569
565
253
515
614
428
611
180
307
293
338
365
378
164
216
201
336
-80
94
-109
272
343
285
-116
15
-269
38
106
-81
262
347
344
-79
-356
-571
-589
-190
-303
-288
-376
-182
-370
61
-31
293
271
-26
-40
-41
-85
63
-313
-368
-308
105
280
374
333
-76
28
0
125
315
172
146
290
-60
-68
-1
344
151
171
152
368
317
-1
-67
-106
-81
260
343
341
-33
47
-337
-345
33
-39
365
150
347
-2
-53
-34
271
308
325
332
335
309
-9
-72
-97
-61
278
354
363
279
-111
50
56
-116
-29
269
282
299
299
-22
103
-269
-275
97
-13
294
-55
42
-293
43
-39
350
370
335
333
361
336
-22
-95
-17
191
628
633
213
289
-23
320
209
577
616
601
558
237
155
349
367
236
398
481
432
570
248
559
429
786
809
506
442
389
607
603
386
467
830
667
722
729
679
832
438
573
520
541
568
251
318
79
-306
45
308
544
570
134
-67
-117
-28
287
-44
90
78
-55
300
-31
43
-301
55
-27
304
-6
-73
-53
271
274
-79
72
66
-73
344
186
178
136
205
496
978
1467
1752
1754
1818
1597
1211
1183
1180
1357
1129
784
195
-22
113
-310
-606
-696
-928
-980
-955
-988
-1346
-1392
-1283
-1032
-480
-237
-349
-299
-294
-277
40
-127
-40
294
368
163
144
312
-22
-2
365
225
537
552
577
617
621
585
584
421
815
868
773
613
537
618
785
653
661
860
837
876
654
863
497
420
454
815
875
822
463
428
508
648
759
1067
1080
1066
742
854
422
575
624
810
754
1090
763
883
815
880
1035
914
940
1118
746
654
862
851
874
687
1030
1079
1048
697
873
861
646
683
674
893
876
889
887
826
454
607
589
402
477
468
621
236
155
146
186
522
638
471
404
141
80
-299
-128
163
564
225
323
275
345
147
379
338
366
184
193
331
-106
44
109
307
224
218
278
60
-259
95
-70
-126
-258
-281
99
-46
-116
-332
-229
-190
-310
11
-289
-339
-317
0
29
32
76
-68
314
367
300
-120
-310
-173
-148
8
-66
280
-8
-101
91
104
-76
271
325
306
-27
-109
90
42
-275
-298
56
263
181
187
302
-83
-81
256
303
297
314
379
135
-7
5
-149
-343
-128
319
348
-46
0
-150
-131
67
329
205
366
-112
-259
37
-67
295
286
-23
-26
283
335
344
324
290
-1
-25
-16
288
317
-3
111
6
48
-31
162
516
243
145
-12
63
-322
-318
68
-60
-55
90
-268
-258
100
-43
291
339
355
314
-38
-121
-120
-41
297
331
347
381
151
376
303
262
295
353
374
372
151
210
199
326
-73
-52
168
412
466
548
310
-57
-3
367
188
212
212
197
162
136
163
526
432
850
697
707
880
501
426
455
814
895
872
491
581
167
292
-47
-72
-46
-26
-66
89
-278
-342
-336
-285
27
55
46
32
56
112
-119
77
-276
-292
76
-58
-96
-317
-540
-557
-358
-124
-18
-37
-59
-30
-6
-45
-107
-67
383
637
820
643
714
1146
1181
1482
1672
1720
1704
1732
2078
2137
2069
1883
1446
1628
1597
1157
679
256
-614
-704
-1065
-1116
-988
-1386
-1402
-1006
-1074
-692
-849
-406
-374
-126
-82
16
-169
-198
-304
-96
295
329
320
331
357
354
317
305
134
539
619
531
309
127
122
271
177
244
244
520
587
388
386
614
388
495
846
818
408
241
170
193
224
213
213
549
438
799
803
503
507
844
697
1029
1056
767
666
801
501
870
1078
963
943
1078
726
705
704
664
862
859
681
1049
1129
1149
1128
1094
1071
1065
1055
744
871
424
228
350
342
218
437
890
706
894
505
423
452
814
665
708
655
770
595
207
179
514
394
507
791
450
524
317
-72
-76
272
364
377
304
-59
107
67
80
-112
-16
327
347
268
117
-282
-337
-287
81
-88
-85
107
40
26
61
84
59
26
61
-84
260
-42
52
-332
-290
-104
320
343
-3
-89
-101
-76
-70
-84
-80
-51
-38
-75
102
23
-262
57
-38
147
237
159
-29
90
109
-9
374
146
360
309
266
-26
-31
291
167
537
542
184
333
297
315
311
-7
-63
-33
322
138
352
-30
-119
-79
320
198
237
189
371
313
275
264
304
137
228
246
166
290
-77
-120
-72
312
226
611
612
227
333
279
332
142
131
304
-20
-23
-2
-26
-93
127
-72
304
129
356
-23
95
37
87
-49
312
346
323
286
-9
-57
-89
-36
138
611
447
582
334
-117
102
-78
-1
283
266
-32
-81
-95
-26
368
237
540
529
515
250
194
339
-6
278
153
527
548
232
169
151
166
209
552
423
793
832
777
414
583
560
594
399
452
475
459
411
615
606
418
817
716
1050
747
886
809
843
683
737
702
879
812
479
585
365
-81
108
-101
-27
-3
-25
-49
-53
-47
-36
-8
292
331
347
313
-36
92
-261
11
-102
325
132
296
-120
45
73
-99
-45
-43
-60
-85
126
51
-274
-265
-122
139
430
660
1062
926
1361
1591
1516
1842
1872
1745
1989
2431
2367
2076
1819
1801
1666
1858
1395
396
-300
-473
-664
-761
-1088
-1104
-1053
-733
-690
-879
-456
-206
24
-101
-68
-77
-86
-96
-101
-77
-15
291
276
-48
-106
-110
-84
-59
-5
146
396
872
666
777
568
207
515
630
420
611
513
221
523
594
638
417
506
640
730
684
771
611
573
391
487
799
834
880
666
661
882
641
748
1145
950
1132
713
808
456
421
435
507
891
1034
1122
1119
1063
1040
1098
950
1283
1022
948
1100
751
681
654
689
1037
1148
955
920
1050
886
508
486
826
707
1068
1060
676
511
436
773
670
733
863
613
153
359
151
154
328
284
145
632
773
431
221
376
224
391
419
539
141
383
181
154
272
-98
-50
137
553
545
372
-84
108
-17
214
609
532
322
-92
-101
-45
-70
89
78
-19
174
194
281
109
110
260
136
153
369
352
356
329
281
287
133
524
578
251
374
266
-31
-24
262
312
381
184
182
358
-2
-52
-5
358
182
205
198
172
362
-13
-122
-123
259
139
150
284
-106
110
-90
-3
344
194
547
556
182
260
-110
-91
288
177
523
518
181
347
329
158
538
613
602
539
218
161
361
326
369
244
400
481
423
517
351
274
302
371
151
134
364
374
148
163
165
216
601
484
777
426
546
214
212
216
208
513
400
797
778
574
345
281
141
538
558
216
138
128
147
157
187
543
429
768
464
570
162
354
140
229
548
553
513
211
189
183
187
210
538
400
503
777
440
586
566
421
831
890
800
389
550
550
573
559
549
616
472
506
411
555
578
471
839
819
503
830
1048
971
932
719
798
806
702
1086
1069
646
394
152
266
270
139
536
575
221
301
-112
76
111
-42
338
183
222
180
337
-8
-5
132
599
485
433
190
-75
74
-91
321
139
367
325
340
357
296
-75
126
-41
140
548
623
429
818
1046
1334
1643
1674
2109
2112
1747
1696
2063
1966
1949
1702
1435
1626
1431
1545
733
-57
-421
-674
-718
-1072
-1010
-1384
-1292
-1054
-835
-430
-527
-306
-99
-40
99
-325
-134
-305
99
-36
308
150
245
250
361
-117
19
107
317
206
175
274
-122
-125
290
549
789
877
772
583
240
599
784
876
826
499
784
880
652
821
480
785
695
1099
1116
1032
688
646
891
882
644
715
1071
1124
1088
747
701
754
1138
997
1283
969
1132
1056
748
704
665
664
732
1099
920
900
1056
709
719
1102
1021
1390
1373
1000
1132
1072
1061
1035
719
689
745
1091
1084
670
479
435
844
1049
1112
733
805
429
638
602
565
577
397
464
433
560
168
375
177
544
633
394
602
548
534
542
513
175
368
146
238
255
363
-121
3
59
-26
362
364
266
-110
60
41
98
-37
343
142
351
-15
-127
61
51
87
-105
-41
-1
271
270
267
279
322
148
251
579
565
201
311
-52
-74
-25
322
161
221
215
138
298
271
363
520
626
616
521
175
133
381
383
150
214
528
242
369
-11
-17
335
154
371
278
-3
326
140
372
282
-33
-15
299
351
140
159
352
-70
13
-259
-61
198
554
176
-25
-116
-45
344
163
175
186
216
198
324
-109
67
-87
382
537
528
156
307
269
272
276
291
334
360
293
119
-312
-359
8
-59
362
210
540
603
616
540
154
335
382
236
523
151
-36
121
-78
319
182
516
603
445
474
634
239
211
608
795
845
466
563
512
570
625
609
581
634
496
813
485
615
582
439
874
742
767
728
667
848
772
475
493
794
804
482
609
207
342
274
266
295
318
300
-3
-38
-31
270
336
163
246
536
225
346
-68
59
-284
-325
-291
98
277
382
335
-69
79
96
-49
317
365
359
321
263
-15
338
594
671
935
1300
1306
1322
1391
1214
1267
1585
1448
1830
1843
1654
1314
697
406
179
-44
-326
-433
-1091
-1178
-1580
-1214
-946
-701
-843
-802
-455
-551
-158
-375
-136
-357
23
-86
261
290
291
296
316
358
185
540
590
544
168
325
323
170
581
457
773
502
438
614
552
533
580
436
828
653
874
484
600
556
396
835
736
1028
684
812
506
838
721
1075
1073
739
654
858
845
852
860
876
668
756
1092
1079
697
807
773
870
713
690
833
779
852
686
666
830
824
711
1126
1141
764
658
662
705
689
640
665
1046
1145
1084
880
427
630
470
879
721
713
863
471
391
415
770
860
875
809
436
555
160
316
314
192
402
812
806
414
544
524
580
599
523
152
351
366
381
336
264
-11
298
358
341
-23
81
-314
-156
-204
-183
-332
89
-28
259
-88
44
4
77
-62
-2
-36
122
7
-343
-380
-305
-115
348
172
331
-91
86
-119
-31
-4
-36
-52
-16
289
285
-35
-92
-44
133
595
422
550
296
121
-104
317
177
151
321
301
340
334
-20
-125
-123
-21
325
316
-25
-114
89
74
102
-68
295
345
296
-56
-116
-117
-106
-115
-110
-48
301
343
292
-57
-84
269
181
566
585
253
153
337
315
342
145
209
234
196
376
324
328
351
337
283
258
316
158
172
297
110
30
-116
348
229
210
345
-19
-47
-5
327
167
254
536
210
330
-30
-21
352
249
620
415
418
636
569
516
544
416
832
654
863
500
423
405
400
385
398
455
496
431
524
133
376
184
194
355
-13
-48
-60
81
-145
-577
-539
-308
-79
-24
123
-274
-331
-302
10
61
123
-62
-36
-115
-285
-185
-190
-265
-16
378
318
-119
12
57
-21
157
251
546
604
446
804
641
1033
1018
1573
1517
1493
1564
1399
1367
1405
1359
915
671
489
638
253
257
-374
-779
-1111
-1309
-1373
-1358
-1334
-1340
-1347
-1294
-1123
-825
-195
-115
316
279
125
32
115
312
206
222
162
134
136
357
260
-56
295
518
437
432
544
160
159
518
635
462
504
500
440
599
518
239
512
530
537
564
609
622
569
240
250
386
825
658
837
400
248
211
533
395
781
650
750
1041
726
870
785
794
646
1046
1141
1137
1036
656
863
684
1099
959
933
1041
879
793
789
826
890
734
1111
931
916
1086
739
694
690
700
726
760
1030
741
667
856
837
863
893
893
850
498
621
252
221
537
621
393
616
569
516
165
289
-48
257
131
201
146
308
294
351
350
-25
102
110
-13
324
-63
-351
-582
-584
-367
-103
282
-38
28
-161
-243
-189
-318
33
29
-299
-361
-369
-343
-327
-295
65
-31
318
-22
10
-183
-213
-371
-283
-281
-304
-261
96
-112
76
-290
-301
111
327
153
265
-260
-195
-204
-348
3
11
-281
-301
-287
0
45
106
-91
-55
-29
280
354
372
271
89
-293
17
-37
143
139
-50
-257
-304
93
301
176
190
148
351
270
-83
-109
262
186
253
369
-114
34
108
-24
-3
-85
117
-85
273
297
-47
92
62
-101
302
146
147
340
286
273
279
278
284
324
375
364
-4
97
5
22
103
-78
-25
287
341
343
260
-117
96
-52
149
542
235
284
102
117
324
544
599
222
335
295
312
270
-114
44
94
260
381
352
-37
120
-120
-17
359
197
249
240
166
327
298
379
527
401
465
476
458
410
599
566
626
501
851
821
451
611
582
573
531
229
245
575
618
548
376
-59
98
110
-60
280
289
-59
65
-260
42
-85
311
166
241
252
162
-6
101
66
-108
256
307
284
-48
112
49
81
-32
380
148
273
-128
118
-15
375
197
569
838
965
1279
1637
1568
1237
1273
1659
1506
1486
1577
1329
1061
798
523
-37
-355
-397
-673
-953
-1239
-1464
-1795
-1438
-1232
-997
-759
-776
-578
-231
-240
-231
-346
-104
332
341
-6
-45
273
332
289
-50
-23
151
571
549
348
-83
-46
186
431
777
438
537
160
377
154
219
543
605
415
483
769
470
402
401
506
656
736
686
806
416
607
622
427
493
783
791
796
798
779
490
774
669
1139
1007
960
1083
760
1054
1093
1054
760
1084
954
964
1039
820
774
657
1058
1046
655
807
801
837
849
855
661
1027
1106
1092
733
851
474
393
629
423
775
851
843
497
390
600
628
424
442
413
627
589
541
226
185
204
533
591
569
213
347
273
272
320
375
147
380
303
-61
81
-276
-347
-352
-262
-112
-7
-46
23
-182
-514
-165
-263
62
-279
-181
-532
-227
-336
47
80
38
-266
-282
-298
-357
-198
-529
-514
-132
65
-22
284
-72
7
-366
-340
58
-42
300
290
-57
75
4
57
-43
328
271
74
-343
-335
34
88
51
53
-62
134
196
313
115
42
-126
258
325
333
330
318
-12
116
21
28
115
-69
-67
-103
124
107
89
111
-12
214
630
549
-21
-333
-141
56
285
326
-49
-127
-37
372
149
285
-86
-51
343
148
298
117
15
47
-113
-24
312
147
223
206
341
-30
-19
374
244
226
346
-40
-81
-56
-42
-53
-34
296
381
162
153
146
155
161
146
141
171
208
187
348
-16
-61
-27
297
361
150
171
167
139
363
370
184
544
625
618
237
306
-101
118
-57
324
157
170
373
283
-51
-80
-43
305
165
254
530
200
324
-35
-34
322
178
207
134
284
-45
-59
-30
284
373
216
517
200
301
125
18
12
89
-44
346
191
215
164
363
129
248
637
413
561
378
-27
-80
-43
305
151
210
195
377
315
317
361
377
348
332
140
523
610
567
161
286
298
207
389
425
523
289
-97
-61
294
325
284
275
349
165
129
272
-24
359
567
431
389
531
209
199
177
383
148
571
807
664
791
521
334
359
519
628
590
215
143
176
529
629
463
801
859
856
783
420
587
548
569
390
768
645
720
698
854
504
479
497
474
620
223
141
373
318
-83
19
2
-101
344
138
277
126
89
-71
317
138
128
293
-111
-274
-133
-154
-347
20
-110
-9
280
-30
118
42
54
-118
-27
273
259
-44
-74
-37
347
559
813
1075
1322
1246
1563
1537
1555
1457
1698
2101
2060
1670
1841
1803
1457
1268
1331
959
1087
776
-9
-592
-762
-961
-1002
-948
-1089
-713
-657
-663
-875
-429
-156
21
18
-322
-342
-274
48
76
-102
356
603
466
390
234
150
148
365
-16
-117
-71
350
205
157
305
311
204
616
407
389
422
494
472
560
132
159
639
827
783
578
180
209
547
525
175
177
612
833
891
498
596
602
777
713
1026
681
814
510
795
831
822
803
848
710
1059
755
841
432
428
818
709
765
721
647
863
860
878
669
759
1121
910
1096
697
855
885
737
1036
675
499
407
449
510
450
536
158
225
445
641
659
480
229
330
363
534
429
415
237
294
-47
-5
328
373
152
207
252
214
339
-61
122
-113
-37
298
348
327
-37
65
-303
-299
67
-60
258
-29
-121
35
-288
-296
15
111
-71
-80
80
-299
-376
-384
-362
-334
-281
67
-125
61
-139
-554
-220
85
372
145
-62
-270
-297
58
110
48
-283
-262
85
-128
66
-292
-325
8
-91
333
171
143
274
-100
-99
274
139
169
381
355
136
176
379
-16
122
126
258
162
223
145
265
-39
340
568
470
437
522
376
348
374
345
-8
-64
262
144
213
144
274
-36
282
147
229
244
241
254
512
202
353
281
328
185
210
314
81
-301
12
-110
-29
266
357
233
251
325
99
76
316
581
596
358
114
64
-97
-40
-87
-125
-37
128
202
366
-40
-75
312
226
533
185
327
302
353
380
331
264
270
357
168
381
-11
115
69
121
-19
367
207
215
375
-11
-66
-11
343
134
362
311
278
-18
-89
100
109
-40
357
186
173
349
-3
-69
-61
296
195
571
576
208
324
260
321
213
608
395
574
185
334
289
272
-7
-16
294
156
513
249
128
-11
-58
289
216
628
391
243
285
-81
-1
186
563
522
130
289
285
331
381
175
230
534
556
554
531
200
312
-80
-71
370
579
622
234
354
349
155
141
301
259
347
196
157
261
-51
366
605
423
538
368
330
356
267
54
-315
106
172
610
524
348
322
209
578
533
178
196
566
595
196
277
260
158
576
621
587
579
603
572
203
371
174
607
477
423
217
274
-34
330
252
392
440
409
611
588
621
424
457
452
434
426
413
616
531
232
541
403
484
484
459
467
494
473
403
391
775
729
1137
896
1083
767
740
711
681
684
713
685
786
549
365
331
162
252
255
162
271
119
10
-266
82
263
188
517
186
295
-55
-37
286
283
-70
90
99
-63
-11
-77
66
51
-60
141
240
162
-22
90
80
-69
320
152
189
218
538
394
802
741
981
1255
1509
1676
1703
1868
1792
1857
2071
2039
2374
2041
2175
2063
1880
1264
759
523
-101
-135
-444
-1038
-1303
-1401
-1311
-1066
-476
-155
25
9
-379
-218
-191
-343
15
99
-73
-12
-33
119
24
47
-48
140
229
177
313
-14
287
160
539
593
576
533
243
202
140
331
313
383
531
422
474
414
575
547
602
405
392
591
570
597
594
250
152
175
608
829
697
683
867
831
850
887
653
656
641
867
819
503
452
434
470
814
655
713
704
886
792
476
482
816
675
765
1033
712
873
819
846
680
1031
1083
1082
1049
742
662
823
771
817
680
752
678
488
577
529
571
619
639
411
452
437
567
379
-11
-13
339
185
215
142
-4
124
125
278
204
255
145
262
-41
-33
-97
16
-312
60
266
346
-40
25
-296
41
-115
-79
-68
-29
-1
-61
52
-314
-301
62
-96
-66
-89
124
70
25
34
127
278
146
164
327
-70
79
36
48
91
-107
-45
261
271
-23
-85
-120
-91
-3
354
153
375
257
106
18
74
-5
165
193
312
-118
78
-89
306
377
360
325
328
346
329
272
-33
-14
332
174
199
378
256
-75
-57
267
316
332
367
195
528
248
372
-14
-24
341
195
174
274
83
-281
8
-113
293
146
219
536
573
536
168
318
323
182
544
513
339
-116
31
36
122
-12
345
371
302
-59
-109
-59
312
153
169
349
-16
-71
-29
305
303
-62
112
-49
190
593
208
-98
-289
59
314
215
157
-9
-114
-107
-52
-6
294
362
173
187
376
268
-70
-81
-29
310
139
198
195
365
-35
101
86
-74
302
347
306
-22
-65
-63
-8
372
545
428
438
566
156
344
372
160
155
132
143
185
191
375
271
-31
274
375
197
205
133
-3
117
81
-54
169
595
587
180
298
300
150
234
224
169
154
186
184
354
-23
-74
-9
371
206
216
181
157
155
150
380
363
133
181
184
350
-41
-99
-24
376
221
236
219
214
192
358
-32
-110
-65
307
369
304
-96
50
47
-102
310
180
219
165
322
-30
-98
112
95
-118
-12
345
358
264
-114
103
-67
344
205
217
131
271
-67
-91
-71
-19
326
184
536
555
229
381
320
339
166
521
570
520
373
-55
103
-126
-12
359
160
148
349
290
277
335
201
583
401
404
617
552
224
173
184
536
424
779
511
402
549
537
392
823
696
713
649
828
511
460
439
494
884
740
722
845
477
485
814
817
472
384
626
622
522
333
-80
-124
-95
-76
-79
-60
-17
-32
111
-268
-272
125
282
318
-13
-70
-30
296
274
-97
83
-118
-16
-58
-313
-622
-480
-560
19
-1
302
-30
-101
-97
-32
316
173
582
774
695
1065
1126
979
1227
1834
2124
1976
1968
2007
2390
2220
2403
1996
1932
1944
2059
1590
644
269
-155
-464
-1034
-1291
-1365
-1015
-924
-924
-903
-706
-607
-280
-125
-113
112
78
14
-316
-334
-266
89
-113
-116
124
111
100
106
-86
299
168
184
321
-97
85
-115
-3
333
372
166
244
545
245
145
357
169
549
628
617
564
527
513
252
516
563
384
439
445
407
609
573
596
445
857
704
668
776
386
629
457
796
838
874
687
749
733
647
839
884
1032
932
978
1137
705
811
496
769
823
644
749
1094
1078
668
487
445
840
755
767
848
405
624
452
502
441
611
624
468
510
638
139
-50
-68
318
222
571
577
524
179
336
268
-10
-9
-27
-81
103
48
11
-261
26
-118
294
133
341
-72
24
-308
-306
-275
21
65
83
36
-318
-151
-184
-151
-331
9
60
20
-373
-244
-228
-319
105
-119
60
38
124
-81
54
-164
-528
-177
-270
40
-277
-332
-312
-275
-265
42
-56
374
381
-90
-360
-211
-383
-279
-275
-303
31
-25
137
375
-26
-108
-31
358
370
-37
38
-281
13
52
73
-97
366
583
624
194
-24
-81
310
242
588
570
524
231
192
139
356
372
180
234
222
130
282
269
130
560
409
385
550
225
179
339
-85
24
4
116
-9
283
-34
-118
101
-125
-37
338
186
227
187
363
288
-30
-49
277
178
559
240
-16
8
28
286
531
558
168
351
174
539
523
147
335
143
252
522
149
-10
-112
121
-111
-50
310
165
196
368
-21
-70
280
172
220
370
-49
120
-116
-86
-126
62
77
-29
174
540
233
340
-38
-46
303
156
206
186
382
305
-31
-82
-52
328
219
551
529
212
169
138
349
323
377
232
526
140
-80
66
-75
157
567
576
524
250
246
203
152
172
253
552
250
199
240
588
571
144
-21
263
208
610
526
281
102
-127
312
249
615
628
569
214
375
343
134
219
515
221
152
374
380
373
319
282
353
526
411
628
179
266
265
140
520
577
604
628
598
217
338
333
237
423
455
553
318
-106
121
-37
379
516
553
249
206
253
619
421
621
532
540
397
483
425
515
133
162
574
480
831
871
878
836
480
632
636
822
1118
1348
1381
976
1040
678
689
762
1063
748
812
546
342
309
169
551
565
230
180
214
237
149
-19
-122
-65
344
198
204
164
144
140
134
149
224
587
624
512
306
-105
-120
-24
345
149
146
356
300
288
366
520
419
774
841
696
1137
1336
1221
1567
1430
1876
2091
1993
2315
2323
2318
2308
2023
1962
2113
1916
1561
766
376
-239
-704
-987
-1391
-1184
-1400
-1024
-1118
-701
-804
-621
-382
-122
321
346
-46
29
-307
32
-33
147
230
220
164
357
315
315
373
212
549
569
519
175
341
285
296
138
533
632
629
553
236
515
615
474
790
768
444
396
413
480
780
769
503
830
706
1030
692
777
393
387
472
848
729
1109
1136
762
849
804
683
1106
1102
646
427
616
413
442
410
452
687
1023
1212
1363
1098
688
1030
977
1325
963
1033
655
888
641
876
842
854
668
743
750
659
771
405
405
768
882
890
768
593
200
135
377
146
237
615
416
586
134
-35
-75
-13
287
-16
-102
-128
-60
286
306
274
292
168
595
635
197
-114
-349
-375
-264
67
29
-297
-279
89
-82
-116
35
-257
93
-23
292
-38
80
-285
-328
-303
43
-80
285
290
-82
25
-287
55
-27
131
196
150
270
110
26
95
279
170
147
-11
123
-100
301
138
349
260
272
139
225
142
-56
83
-86
378
515
225
353
263
-7
-8
-50
-93
-48
359
533
622
577
185
318
297
131
515
558
200
265
121
126
265
170
514
523
248
225
171
314
-74
-126
-24
176
584
573
183
333
368
248
601
580
244
198
178
354
-52
105
-68
149
550
247
374
359
228
567
223
324
314
224
618
526
259
63
91
266
165
228
225
180
338
-38
-83
267
168
251
209
380
353
130
157
155
161
206
514
517
202
375
306
266
270
337
202
565
565
171
-31
94
-125
317
528
622
551
128
-15
-54
-4
320
349
322
-2
-70
-94
-47
309
161
249
583
385
634
515
320
-85
-91
279
142
190
192
213
255
521
224
193
246
630
463
412
243
345
333
215
393
496
493
433
625
582
573
606
426
771
832
843
822
799
781
510
778
855
721
1055
751
843
408
568
565
598
611
595
554
224
371
276
-1
327
191
537
553
238
128
268
-49
-7
377
237
249
151
279
-62
-81
-53
256
317
355
355
343
361
153
177
158
176
578
816
732
720
861
856
1088
1196
1475
1797
1446
1581
1260
1243
1222
1152
1020
1081
834
545
-34
-384
-486
-1065
-1298
-1155
-1402
-1315
-962
-1152
-1086
-677
-640
-272
271
357
-4
80
-277
11
-105
318
172
194
171
171
212
244
215
162
168
254
589
570
222
172
237
633
502
834
871
870
812
447
627
395
768
895
693
650
802
440
398
448
815
648
657
856
801
786
792
797
828
677
1088
943
932
1059
641
782
492
798
641
718
706
862
510
797
717
926
1291
1007
916
1096
1037
712
890
845
869
696
1047
1119
1147
1110
760
669
671
1048
947
1002
899
721
872
652
1030
1115
1102
764
669
839
477
601
251
524
398
806
860
768
588
182
146
211
541
540
213
141
365
343
280
-50
-35
362
513
246
284
10
-373
-292
-127
-24
-22
-69
-120
84
33
34
123
-1
318
-8
114
41
82
-82
-50
-105
92
108
-77
-58
93
-340
-183
-365
98
292
368
336
278
263
295
344
136
167
153
330
-60
58
-276
-278
27
92
-88
264
366
168
131
269
-77
-26
148
543
236
-2
13
-297
118
357
529
576
529
181
353
322
357
167
205
200
188
191
185
152
133
191
568
639
571
148
263
-31
264
307
334
130
242
622
406
559
370
-23
262
191
399
485
401
233
366
350
146
181
154
333
-8
-81
118
99
-99
306
243
393
446
410
584
229
134
335
358
186
520
537
249
223
235
514
529
545
575
596
565
229
154
138
196
568
454
814
790
608
365
-30
264
136
198
142
316
311
382
203
252
567
424
804
837
478
555
159
131
201
566
404
447
443
421
410
428
470
780
833
868
849
493
596
217
200
525
578
547
211
172
195
188
319
124
27
-122
347
190
312
55
-357
-302
127
-2
271
-21
-54
-94
93
30
53
-75
323
367
296
-72
94
48
48
102
-44
348
205
523
552
601
462
662
911
1383
1228
1191
1339
1001
988
1000
985
939
1133
767
793
170
36
-222
-582
-431
-697
-1342
-1644
-1441
-1552
-1394
-1315
-978
-1041
-501
-256
-384
-320
26
-107
-13
304
153
600
772
505
535
278
-29
172
427
484
535
-21
65
106
270
177
533
579
588
569
541
539
573
621
404
445
497
782
481
624
538
574
467
862
879
792
457
468
784
792
465
423
769
694
1052
692
454
535
547
437
826
861
808
454
603
542
607
811
1029
1110
764
883
825
867
688
757
1091
913
936
1134
1053
1041
1113
943
987
995
1001
1001
963
1134
1040
711
668
665
713
1038
1051
687
499
626
407
827
717
727
856
421
529
198
202
528
615
403
624
527
164
340
308
328
131
196
203
356
-85
0
-313
5
96
122
87
70
107
-118
96
5
-286
57
-72
-65
14
-245
-416
-418
-541
-373
10
66
54
-257
-315
-334
-312
-278
2
0
-290
-351
-158
-170
-357
20
-113
-38
-32
-96
55
-295
-322
-280
46
97
-118
-44
297
309
-55
58
40
-39
210
547
368
86
-303
61
264
369
341
298
310
306
-58
54
51
-13
222
551
181
284
-35
-22
-9
-4
298
375
144
327
-19
-19
322
131
376
340
348
376
329
-74
48
54
-47
146
254
237
137
272
-65
-57
293
137
152
334
272
301
375
371
259
-80
256
195
559
184
-79
-261
26
-45
130
187
133
291
-40
-59
-24
294
354
157
214
241
195
345
259
261
335
134
371
315
303
335
334
262
-59
265
217
401
629
129
122
47
-87
318
360
352
161
550
588
187
260
262
215
394
568
286
74
101
267
376
135
186
595
470
411
182
266
331
570
501
490
606
520
564
394
405
600
578
404
772
788
435
597
633
783
670
721
698
663
877
774
617
245
515
630
459
422
553
176
359
301
-5
-11
309
379
366
257
-109
-118
-20
360
195
246
249
157
-59
-332
-523
-544
-182
-327
-286
-297
-307
-277
63
-63
333
163
135
265
-121
93
-84
330
521
481
742
1280
1263
1644
1636
1551
1231
1255
1598
1643
1556
1332
1052
809
622
189
-24
-287
-600
-719
-1386
-1457
-1803
-1617
-1306
-1083
-1025
-760
-652
-440
-232
-354
-258
119
-11
307
291
264
306
154
245
535
541
563
591
576
513
211
520
424
834
856
477
586
531
561
578
531
243
589
784
675
645
469
572
574
450
830
823
413
207
332
337
187
576
424
502
816
825
496
631
579
427
892
1055
1064
692
841
838
653
693
660
872
650
763
1099
1041
888
803
646
1122
1002
925
713
809
806
648
732
1025
1076
904
952
1135
707
816
793
880
719
736
670
825
486
459
497
834
655
683
653
846
768
423
595
559
608
449
500
435
534
374
288
288
358
205
534
248
347
-101
64
114
-44
-9
-41
-60
-35
-38
119
-277
-330
8
123
-115
38
-354
-180
-193
-165
-360
-260
101
-111
88
-286
-382
-144
-359
-312
-298
-311
-326
-332
-340
-355
-358
-317
32
-124
-82
-127
27
-324
-351
-292
86
-45
271
-22
115
-281
-359
-327
58
-64
-44
84
-344
-148
-301
94
122
51
42
-76
325
263
-264
-232
-171
112
318
258
51
-302
62
-18
322
327
373
235
578
535
382
-26
-98
-89
-31
301
351
325
-24
-84
-19
130
210
128
-21
-62
291
361
-5
13
-368
36
363
605
579
343
109
46
-91
350
218
210
346
-54
-128
-85
307
216
593
627
575
210
345
260
-26
-12
269
281
279
275
281
292
290
271
261
298
130
188
382
-48
46
19
-121
293
138
167
146
327
-63
71
75
-10
210
549
185
273
-48
272
363
129
355
342
357
338
-15
-127
114
-29
382
211
196
140
351
314
268
-19
280
145
253
252
137
259
-46
269
380
215
239
191
361
295
287
315
331
325
336
129
172
378
-20
119
-112
312
255
628
634
567
209
365
311
337
169
230
199
353
268
275
349
179
247
572
403
471
454
588
180
373
200
624
491
486
390
558
545
574
595
612
416
802
683
713
850
414
582
405
822
645
801
592
175
146
217
570
401
491
804
504
598
148
305
330
140
145
316
-44
-92
-73
-36
-37
-89
113
-128
-34
314
296
-103
2
-262
-102
338
376
-12
67
-279
0
72
-105
-13
351
166
149
308
-53
-87
-31
342
211
575
407
487
850
767
1296
1648
1704
2079
1698
1459
1569
1608
1471
1503
1658
1260
1400
999
736
614
-33
-361
-633
-876
-1067
-924
-975
-992
-935
-736
-416
-364
56
68
22
-281
-340
-153
-167
-337
62
-90
-53
-40
-18
-2
-4
269
345
187
218
145
286
-47
-66
-42
293
186
597
632
250
339
318
236
457
800
467
605
550
552
548
513
250
582
460
825
830
459
553
204
521
448
865
881
502
613
553
587
398
459
776
836
870
847
791
768
826
690
1071
1150
911
1130
1051
700
888
891
724
1103
919
1145
1038
670
862
863
659
746
1097
1145
1094
693
806
777
880
751
759
871
419
550
532
555
553
547
591
416
451
628
211
333
297
355
194
541
592
554
151
-46
76
74
-94
-23
-49
102
-262
-313
-293
37
-123
-52
-50
125
-266
-144
-225
-227
-159
-326
-266
12
27
56
77
43
-301
-356
-301
82
-124
0
-246
-406
-609
-150
12
11
-353
-172
-155
-346
-304
-275
49
-95
-2
276
-3
-19
-13
-13
-28
-43
-51
-77
104
-264
-366
-163
-139
-278
-84
351
133
-1
76
27
-113
288
316
-18
-74
-49
-11
-43
-100
-56
133
602
418
558
351
-62
-97
-35
316
378
375
307
-40
-97
-99
-55
257
308
342
341
296
-39
-107
-114
-50
305
377
134
341
-15
120
19
-270
40
-103
266
340
365
358
338
319
320
363
172
198
370
-70
7
-293
89
288
175
195
130
303
-18
-67
-99
-93
-41
274
270
-75
68
29
113
264
367
369
329
330
361
326
-74
43
80
314
549
572
368
-113
91
-40
360
151
372
326
293
-30
122
71
-99
356
533
547
136
-54
114
-87
287
361
363
340
354
150
174
370
-3
-66
264
177
543
221
296
-60
293
237
599
539
161
371
142
383
288
-43
272
180
564
563
222
131
308
-30
-85
-35
376
253
233
348
261
354
548
391
560
146
333
367
369
-12
84
69
260
522
420
414
590
548
572
607
615
617
385
422
430
633
553
529
633
852
1071
908
1080
878
427
593
631
493
861
640
842
486
405
388
430
497
808
830
807
473
606
210
357
334
141
219
216
354
-85
41
40
-113
274
362
134
371
309
-40
-128
92
-125
-40
279
256
-111
8
-314
-265
121
-20
277
273
280
308
303
-10
-62
-27
365
515
584
577
592
458
696
1004
1576
1827
1703
1711
1687
1752
1924
2352
2419
2390
2360
2334
2169
1467
1053
146
-284
-254
-465
-1036
-1367
-1276
-1199
-974
-741
-800
-595
-377
18
-274
-176
-538
-230
-339
12
13
-258
28
47
-279
-139
-159
-262
-46
299
-54
40
-276
74
-32
325
364
150
238
582
583
231
139
178
597
465
400
180
-17
-41
343
246
629
489
857
883
506
584
535
432
894
691
817
428
452
848
677
866
492
482
857
709
675
509
609
587
451
881
757
1062
1049
761
744
749
1028
1074
1145
968
1015
982
1126
734
655
671
749
1060
1024
646
511
432
425
457
510
848
702
1024
694
479
521
202
549
386
610
224
373
331
286
-57
-101
-14
138
174
276
70
1
81
-103
122
79
-107
285
311
-110
-330
-157
-327
54
106
98
92
86
41
-273
-271
71
-106
127
21
-339
-138
-170
-209
-210
-358
78
-69
123
-315
-196
-191
-358
-295
-294
-302
-274
12
-272
-346
-130
-337
26
117
-109
122
74
26
14
80
-31
371
160
323
-97
32
-262
29
105
-58
279
310
263
-83
116
-120
-40
314
148
211
220
153
297
-37
-18
337
165
153
308
-67
-127
-107
-30
312
372
130
357
305
-1
-42
-71
-76
-30
327
191
520
243
135
256
-83
-69
284
378
367
-27
48
-293
42
-33
364
377
280
-85
-127
-98
-51
-28
-13
307
170
519
220
299
-128
110
-4
156
204
144
314
-7
-69
-118
-100
261
365
367
282
-41
-35
-12
-43
-79
-18
376
175
289
38
-360
-277
-67
350
133
365
346
333
304
266
266
315
368
380
346
296
-8
-52
-62
268
169
576
598
209
287
-35
309
179
204
366
258
-29
-19
-69
72
19
-112
141
577
546
366
-33
-29
314
360
331
291
283
262
-91
21
-306
28
-49
359
146
373
360
137
166
137
335
325
128
178
368
-82
-275
-324
52
-21
369
170
192
201
171
349
275
278
363
196
202
372
261
-44
258
375
249
600
385
629
576
251
203
220
598
797
707
716
805
593
249
576
435
466
410
631
428
500
506
478
802
766
1006
1321
1146
645
799
888
761
1027
664
825
823
853
802
401
528
519
611
450
486
469
414
582
215
144
174
513
519
366
121
-313
-335
-258
75
122
-82
-17
256
-74
64
25
127
298
135
326
-105
-285
-129
-133
-331
-258
42
38
5
-267
9
36
47
74
-90
317
182
212
208
555
797
1112
1388
1599
1516
1664
1764
2077
2153
2029
2415
2209
2179
2372
1998
1694
1388
451
-84
-337
-172
-591
-653
-993
-1166
-1357
-1141
-892
-420
-527
-210
-225
-520
-516
-194
-356
-257
95
-73
-40
-108
15
-325
-267
-85
357
178
381
274
-63
-91
-87
-65
-11
323
382
363
263
-70
257
222
442
480
585
164
148
518
598
547
208
250
411
772
434
254
194
590
793
878
812
468
469
776
769
424
612
422
861
763
1029
648
505
461
787
647
712
677
835
503
511
833
890
652
690
1067
974
1297
938
755
661
712
1070
1116
1109
1106
1078
695
488
612
430
892
762
693
780
419
419
435
412
413
488
833
821
426
514
171
174
199
194
159
380
337
280
-23
-13
323
183
529
554
255
159
297
-62
-121
126
-126
115
76
28
-279
-337
-381
-366
-261
-113
-31
-89
-257
-159
-196
-335
125
284
285
124
-334
-170
-363
29
119
124
101
104
103
39
-328
-133
-309
-119
291
303
-41
-82
259
133
159
293
-111
111
-73
-48
78
-135
-243
-137
122
365
204
138
-3
-103
-96
-10
325
326
270
-33
-47
-60
-97
-113
-35
377
247
250
156
337
346
138
148
371
349
368
378
314
-62
126
-66
350
235
523
192
317
-84
41
-294
-276
94
-17
328
327
279
-7
269
321
374
160
197
207
153
291
-85
-118
-28
373
203
165
289
-112
51
32
81
-76
293
374
379
292
-102
54
69
-49
366
155
300
-124
49
90
-87
-60
-70
-47
270
271
-105
-257
-276
-126
292
303
-79
83
-126
-19
256
-84
122
-42
374
177
326
-99
73
105
-78
-28
279
359
155
345
-74
75
-112
336
208
165
300
-5
291
307
-15
-74
-13
128
193
349
-87
59
84
-58
335
198
518
229
364
-14
-56
-19
292
325
357
132
131
328
270
302
186
598
398
592
232
166
145
371
312
287
378
563
439
633
151
-53
-73
314
161
370
-35
100
76
122
-51
331
248
417
502
466
608
228
137
346
347
146
241
583
621
626
402
502
650
1027
1083
1083
1057
738
863
437
580
599
476
861
890
821
467
409
418
480
809
830
496
584
136
-17
-103
-126
-78
277
346
305
-105
-263
-307
27
-121
-66
-70
-103
114
63
30
58
-108
-7
297
273
-46
-115
89
71
113
-40
324
352
273
-99
100
-122
-55
-24
-10
326
252
459
828
846
654
899
1545
1873
1719
1904
1856
1706
2167
2308
2042
1938
2104
1790
1902
1251
845
108
-429
-653
-711
-1107
-1401
-1422
-1459
-1223
-1140
-847
-620
-179
-328
-373
-524
-610
-251
-279
-104
-75
-126
99
99
75
17
-259
74
-42
316
332
295
265
279
324
135
212
521
255
178
349
347
193
586
410
424
446
503
782
440
539
205
551
474
831
793
446
413
450
492
771
814
889
673
879
770
444
460
781
860
691
1047
1105
1054
680
885
732
909
996
934
1086
1070
1130
1138
1043
700
753
922
1296
984
1058
653
884
690
1036
1136
987
1290
944
739
812
774
876
734
742
883
444
530
181
198
557
404
428
626
554
248
194
360
281
292
150
524
537
194
350
300
278
-24
-84
-114
-100
-101
78
-307
-131
-338
76
-26
270
-75
37
-331
-137
-175
-198
-163
-304
78
97
-285
-192
-245
-139
24
103
52
-333
-209
-548
-551
-220
-353
10
44
12
-302
-344
-346
-292
71
-62
268
-1
-84
67
-278
-331
-326
10
-128
-45
-47
-115
85
99
-95
-43
-26
-26
-23
-13
-5
256
277
315
361
142
159
132
286
124
-282
-336
-268
122
-22
285
291
278
-9
-58
-95
-76
-6
297
-10
104
-295
-341
8
-62
379
216
184
321
-49
-83
-31
307
382
188
226
190
297
92
-281
34
-57
310
285
-59
-92
-44
264
-1
-42
-55
-37
-51
108
-308
-193
-234
-135
79
309
170
371
-45
105
-110
277
374
380
339
322
328
318
299
320
147
250
566
570
533
208
366
282
284
128
225
205
319
-80
-123
-80
-35
-14
287
383
218
216
342
-95
56
104
262
146
149
271
-123
121
-32
314
310
283
341
201
221
319
97
13
-120
348
221
199
346
261
277
140
535
586
255
132
329
342
327
-30
126
-82
379
580
630
541
191
191
515
575
590
575
557
545
527
232
167
374
168
628
642
1035
663
393
221
549
510
654
878
506
436
431
417
627
617
455
852
642
769
526
311
-33
261
350
152
144
328
-29
-109
122
-107
-60
-27
-28
-56
-90
-117
126
125
-118
-68
265
321
294
-84
28
-303
-275
69
-93
-14
291
280
-73
46
-288
18
-101
265
277
-19
-2
146
392
654
1140
1359
1594
1807
1904
1826
1642
1252
1543
1471
1910
1665
1437
1307
662
612
339
-259
-445
-899
-1244
-1448
-1825
-1884
-1817
-1556
-902
-790
-586
-533
-517
-199
-345
28
127
-52
-6
259
-19
-50
-67
-56
256
347
166
174
369
294
269
316
150
243
570
604
586
521
184
137
153
231
591
415
442
423
394
391
421
474
807
645
714
682
770
545
168
254
476
649
655
800
459
477
816
644
721
1068
1139
1115
728
844
816
644
740
1033
1031
1055
1089
1065
726
682
1025
948
1336
1329
960
1094
759
720
704
711
736
751
735
694
892
824
511
510
851
724
1046
730
830
419
592
582
612
402
450
463
399
529
157
129
200
557
599
549
186
336
256
-66
-120
124
-85
-37
-73
62
-292
8
-85
315
335
270
-47
-96
58
-362
-236
-247
-167
-368
-135
-184
-197
-188
-210
-253
-248
-156
-293
12
-302
-165
-256
-514
-167
-279
99
-126
52
-340
-180
-178
-355
-257
63
82
76
55
-260
-347
-156
-383
11
-84
-9
-56
106
60
76
104
-126
-69
283
336
-13
37
-359
-294
-70
365
356
-49
64
11
23
57
122
-34
306
313
-18
-107
100
80
57
55
114
-48
-2
-56
115
118
-25
347
360
285
-31
-38
-59
106
-265
-271
127
312
151
372
272
-79
111
75
101
-38
373
204
163
292
-70
-76
257
343
373
318
-59
69
14
77
-18
163
550
596
580
519
177
345
289
297
350
134
358
256
-108
106
-99
262
356
139
131
379
149
200
225
192
137
137
199
241
151
-82
-318
-382
31
297
246
556
234
132
327
326
375
187
238
243
197
363
265
-43
260
153
584
416
620
240
171
224
598
434
479
778
824
805
406
213
141
525
486
859
817
480
495
842
868
495
586
522
599
443
444
601
250
241
575
427
778
834
827
471
556
134
303
304
337
342
293
-43
-117
98
105
-92
261
364
181
184
349
-72
26
-288
55
-42
312
274
-107
44
36
106
-58
280
347
383
357
264
-90
-115
-40
334
170
218
523
623
774
700
902
1382
1614
1524
1803
1435
1541
1198
1194
1193
1358
926
745
846
629
-26
-584
-1102
-1379
-1155
-1376
-1160
-1241
-1220
-1290
-757
-473
-204
48
-38
-34
80
-314
-321
51
-59
316
155
210
166
281
-95
-68
349
243
512
155
314
277
271
273
306
135
221
234
165
344
331
375
164
189
239
605
459
464
584
156
353
207
388
477
418
559
525
620
510
862
645
702
1072
928
931
1049
872
799
886
1061
927
917
1057
682
660
748
1131
954
961
941
920
1127
1032
698
726
1121
994
996
914
1148
981
1303
964
1057
765
913
1297
919
851
616
399
847
701
663
863
883
885
499
561
229
586
465
476
626
254
172
343
258
257
132
566
629
251
304
-60
-1
139
225
187
326
-14
-29
-46
101
-327
-163
-338
89
-85
93
-306
-379
-349
-280
45
110
-103
124
14
-356
-384
-319
21
68
78
70
34
-306
-151
-212
-203
-138
-299
56
121
123
81
52
84
-88
-11
270
-26
-116
36
-277
21
-106
285
348
348
331
304
-32
74
-319
-331
49
-59
-10
-83
79
73
-68
363
239
251
136
-40
67
-269
-288
-267
51
-100
278
368
148
132
346
305
295
332
128
373
-12
58
-298
41
266
231
599
596
521
157
301
-33
-41
261
296
283
-11
-34
-48
-88
106
97
-60
360
209
155
-33
31
-279
114
361
547
536
327
71
-309
11
-85
288
299
-6
-41
-23
290
344
354
324
309
366
219
534
212
322
-26
282
178
556
572
238
377
258
-88
-97
256
146
234
208
135
381
204
552
580
561
586
420
486
426
521
158
219
414
845
641
845
771
481
487
505
780
798
808
784
446
568
192
172
549
484
871
883
842
833
836
497
572
152
374
168
159
300
-80
-112
-89
-103
120
-79
335
174
292
-276
-236
-165
109
343
380
273
-97
100
78
74
109
-58
292
313
-21
-128
89
-114
-30
274
282
297
355
180
252
586
473
717
1006
1231
1562
1235
1350
986
959
1007
1349
1390
1309
1062
456
144
-48
65
-172
-796
-1140
-1017
-968
-946
-1318
-1155
-961
-473
-259
-121
-302
-238
-210
-287
82
52
4
60
-68
264
-21
-74
-51
317
181
235
219
170
130
364
365
151
250
384
475
466
628
530
243
550
389
494
841
890
860
490
603
531
575
438
793
812
768
464
456
486
789
843
889
642
845
473
596
253
249
589
478
887
725
724
650
838
837
649
738
1049
1046
730
881
783
511
864
759
1108
1079
721
640
872
877
878
877
892
676
731
1042
1068
1041
724
705
1047
935
1004
924
755
874
797
457
607
557
622
452
635
374
-126
-114
162
453
791
423
557
551
608
602
248
150
146
213
245
155
-30
66
39
-117
259
292
-28
-115
90
71
66
106
-34
366
169
338
-77
72
62
83
85
110
-43
326
315
-119
-319
-343
80
265
295
-81
40
-275
-283
-298
-307
-260
92
-106
102
-274
-362
-353
-271
77
-111
-61
-16
263
-20
-92
94
84
-114
-48
-27
-47
-67
-76
-106
101
116
276
245
582
146
101
-302
72
296
135
325
262
324
178
183
319
-46
-36
312
363
309
-52
-115
-102
-50
-6
279
328
153
214
188
329
-35
-27
351
221
242
158
308
-16
-49
-77
-92
-57
282
364
133
337
-21
-112
-121
-15
151
250
183
-32
-260
-344
16
-42
361
371
272
-93
123
-95
-22
295
335
370
133
357
-1
123
51
118
316
525
593
208
-27
47
17
80
117
92
76
-122
-41
-33
-108
101
-73
355
217
196
348
277
286
329
363
157
519
390
444
617
185
307
305
142
231
531
580
402
442
620
232
244
492
1042
1084
804
205
363
519
397
570
379
307
151
518
253
177
157
213
535
587
404
468
402
147
101
-268
-111
381
176
-18
-278
-377
-263
-58
341
367
328
293
282
264
-47
-121
87
94
-114
-64
-38
-49
-97
86
32
64
-60
346
131
284
-109
-118
306
553
499
885
748
1147
1007
1281
949
1132
1144
967
1281
989
1103
642
425
241
373
287
-116
-156
-861
-1344
-1433
-1524
-1640
-1158
-987
-901
-1068
-872
-569
-286
117
-121
122
-100
-53
-76
70
-297
-317
22
-114
-20
295
340
379
133
348
282
256
328
215
569
512
335
-52
277
530
777
845
489
619
566
559
529
219
208
542
406
493
777
770
498
477
454
468
810
668
686
789
544
135
197
418
876
673
843
467
398
410
494
888
1030
1098
1050
670
815
775
801
850
891
655
644
847
769
458
467
792
889
729
1058
1082
1025
643
784
770
866
714
715
857
471
435
495
821
842
833
833
825
497
609
210
142
148
183
219
520
554
514
363
-97
32
61
-54
340
377
289
-123
18
33
-80
344
149
326
-64
103
72
52
22
23
96
-48
270
-38
79
-307
-344
-267
125
-17
279
-6
-56
-93
-117
113
85
82
100
111
69
-289
-135
-151
-312
90
-57
-25
-34
-29
261
290
299
317
358
376
307
-116
-301
-156
-161
-356
-271
83
-69
263
274
-30
-84
-94
-53
-8
-26
120
-289
-376
-324
95
263
352
364
349
321
-9
-127
42
59
-83
294
367
142
156
135
312
-41
-53
304
156
142
-13
66
8
86
-39
326
131
134
305
-122
-291
-336
28
-63
283
269
-28
-31
-16
-37
-93
-114
-44
320
357
269
125
50
114
264
142
206
218
211
190
144
354
343
130
188
215
198
142
313
-36
-82
-26
374
253
534
173
-1
89
-261
16
-94
364
219
138
-79
13
49
-20
144
166
326
-42
-114
106
109
-93
266
370
165
163
381
311
-39
-114
-103
267
152
213
172
362
351
137
169
163
143
377
322
-45
93
47
84
-115
-92
-76
-17
324
354
287
-82
110
-126
-52
279
317
310
258
-53
-48
295
161
237
231
177
369
317
301
344
203
600
433
426
605
527
231
234
529
596
423
503
816
827
774
410
583
638
846
1053
1048
778
183
297
176
427
828
797
421
577
535
554
636
776
651
676
835
448
622
570
214
310
-68
-61
284
304
-76
23
8
-80
369
151
289
-92
-106
-54
-66
72
-311
-327
32
-92
-16
-25
-102
50
-280
17
-67
128
179
280
40
-338
2
-60
345
144
184
533
384
432
456
850
917
1563
1523
1454
1221
1296
1023
1372
1186
1152
988
714
408
176
296
-128
-220
-715
-1371
-1211
-1333
-987
-1351
-1257
-1202
-1103
-638
-312
53
50
40
30
0
-275
53
-22
172
236
366
-88
84
-66
137
529
527
197
139
371
361
132
246
432
831
838
480
388
631
401
406
415
477
818
819
424
242
193
600
848
764
1035
694
863
802
496
457
460
510
807
770
397
539
517
597
466
833
665
737
1031
750
675
873
888
697
733
694
884
865
648
671
879
822
873
1059
989
1004
1089
879
785
823
645
701
743
1041
1033
678
810
782
883
756
1037
686
813
461
395
602
595
409
509
796
464
602
530
520
519
250
254
546
570
515
130
274
271
366
206
228
176
372
341
315
257
-71
-97
-41
314
365
302
-104
6
-312
-270
91
-65
-29
-90
32
-353
-139
-325
61
-103
-108
67
-278
-324
-331
-329
-312
4
120
-18
276
-53
82
15
57
-87
262
256
-100
30
-294
-260
98
-71
-42
-56
-71
-79
-107
93
34
9
33
103
-53
280
261
121
-307
-336
111
132
517
139
-100
22
86
-3
132
205
245
235
379
-75
38
75
261
169
181
361
348
184
520
210
323
264
383
574
635
233
-8
80
48
108
-64
268
311
292
-28
-57
286
210
616
634
542
179
370
311
-58
56
-273
59
-5
169
210
134
320
371
512
586
233
303
-42
285
129
352
-55
127
263
514
386
525
272
89
81
-62
313
356
314
-19
-73
-83
-72
-75
-56
318
526
429
634
375
124
99
291
233
235
310
120
64
-118
-19
292
314
355
169
213
166
296
-73
-90
-13
332
357
324
269
-46
-110
102
-110
307
237
555
197
300
-3
335
180
214
208
236
540
243
329
-111
111
-1
178
230
146
308
312
149
244
542
554
577
616
627
565
190
324
274
337
211
561
542
173
317
285
319
367
158
226
568
605
538
143
311
350
230
606
628
549
169
318
269
297
376
198
227
212
186
169
142
348
330
162
609
787
822
444
523
160
176
536
406
495
509
447
620
602
428
822
688
738
714
645
817
508
773
814
821
774
466
470
503
463
577
178
161
523
629
632
536
155
298
-56
-104
-71
265
284
-78
8
-363
-349
26
-80
312
146
159
320
-103
16
-261
93
-41
258
-61
83
3
-261
36
84
125
-91
-64
-76
117
34
-266
26
118
-44
292
129
534
467
878
704
1030
954
1269
1811
1858
1650
1405
1375
1577
1530
1533
1599
1383
969
1027
417
-66
-523
-841
-1039
-944
-1352
-1199
-1221
-1163
-1019
-753
-629
-268
-111
40
-182
-557
-226
-297
113
-91
-125
47
-299
-309
89
325
226
181
275
-56
295
167
157
273
-70
260
150
211
158
353
371
177
210
233
580
483
839
507
558
156
198
620
485
478
413
390
429
466
483
810
722
897
924
1026
817
447
456
507
790
801
838
888
642
849
793
793
874
743
1091
1090
735
869
818
878
749
1129
947
975
947
1097
677
797
777
865
700
693
855
771
504
796
817
820
859
691
746
670
470
521
185
253
384
460
435
608
527
239
251
520
238
177
136
146
156
332
-99
21
76
305
247
222
-9
14
-302
45
-126
114
34
-273
-262
22
15
-287
-329
-323
-271
33
22
-307
-375
-380
-331
-280
15
86
-46
309
264
54
-188
-561
-255
-139
-321
-316
-342
-356
-337
-276
78
-67
267
284
-20
-123
5
-351
-370
-285
116
-25
258
-50
-124
91
99
-113
-48
273
304
275
-70
96
91
-58
349
172
374
-14
-120
115
-106
-90
-104
-98
-22
349
147
336
-41
-71
313
249
590
244
327
-50
-83
-88
-113
-127
-76
267
315
296
256
-17
-35
-68
-69
260
358
347
-84
-291
-341
64
263
345
306
262
269
258
-104
13
-271
115
278
305
-76
42
15
84
-108
-83
-48
286
342
289
-105
63
121
279
145
161
374
340
308
-30
111
80
-42
173
534
174
-31
125
-30
184
610
399
601
246
378
-15
-119
106
-127
-110
-127
116
-97
-20
275
-9
-33
290
179
526
187
-37
21
-272
80
-73
-42
-35
273
342
330
-43
104
-123
293
181
184
326
-32
-38
277
330
353
371
161
201
166
291
-115
86
-74
361
224
199
340
-4
-1
303
333
335
336
339
296
-76
35
-304
-266
-123
314
187
207
133
289
-18
-2
291
297
259
-59
-127
53
-272
-291
31
-89
316
160
178
377
285
-31
-24
303
137
204
224
197
136
324
296
347
204
563
580
229
310
-112
83
-110
281
142
180
152
356
315
305
346
175
245
232
133
272
-56
-83
-91
-60
318
243
613
574
196
136
183
236
208
155
186
551
606
526
147
137
537
458
798
809
837
895
661
861
790
808
676
1050
1044
895
438
552
518
574
413
498
773
450
605
554
598
428
463
404
553
204
140
319
-73
14
-359
-348
24
127
103
-302
-185
-179
-273
-80
265
-31
-124
51
-264
-322
-361
-336
22
-118
-68
-111
52
-261
30
-116
259
321
307
-7
-74
115
77
-119
370
496
1127
1337
1386
1192
1663
1709
2168
1933
2145
1922
1999
1953
1735
1497
1408
1416
1270
1073
192
-349
-451
-720
-982
-1154
-1370
-914
-744
-699
-683
-813
-604
-210
-221
-541
-527
-186
-137
-168
-190
-345
122
307
348
259
-110
95
108
124
118
-115
256
182
556
248
330
-39
309
540
439
638
204
357
140
208
176
333
327
222
398
411
238
322
351
569
774
791
398
520
228
253
517
518
586
475
865
645
841
503
454
442
465
781
867
666
650
849
836
643
739
1059
1076
1084
1101
1089
758
890
796
821
722
913
981
1095
830
632
616
475
830
849
850
889
662
862
480
394
414
490
777
453
573
158
276
-42
269
143
233
183
272
108
40
69
-112
-36
276
289
-15
-105
62
11
11
56
119
-90
-99
91
9
-317
-374
-156
-138
-301
60
59
-350
-536
-555
-335
-24
143
307
47
-184
-523
-245
-234
-537
-583
-547
-185
-356
-360
-158
-171
-354
21
112
-121
98
26
-312
-356
-322
36
-110
-44
-21
-22
-48
-103
103
115
-68
-15
-61
67
-316
-379
-383
-352
-276
112
-8
301
-9
-91
-106
-47
279
321
349
369
340
-18
-124
-119
275
177
226
162
340
318
315
260
-84
-109
-29
334
355
-4
96
-269
-285
23
85
106
85
59
72
124
-83
-56
-19
327
190
244
163
-13
95
66
-110
256
332
363
359
312
-31
-121
112
-78
281
327
-3
90
-312
-341
6
127
-59
-45
-38
-21
-54
54
-141
-214
-325
-71
308
-76
-325
-192
-325
-68
383
171
129
357
357
329
-13
-105
-113
-19
366
146
292
106
-274
18
-86
303
320
-9
-74
-82
-55
-36
-26
-1
293
294
-23
-109
90
78
83
88
-127
-30
341
143
370
298
-1
280
360
202
535
550
239
151
353
362
144
170
168
137
317
-62
78
45
106
-65
-16
267
309
333
267
117
14
75
260
135
369
262
-59
-56
-52
-78
-66
288
149
156
265
88
50
-68
381
229
206
380
309
-9
-81
117
-117
260
156
241
229
177
157
183
231
545
609
401
393
571
226
210
554
459
885
748
1047
758
692
650
657
687
693
661
877
845
794
440
594
576
432
864
716
679
792
398
602
620
628
572
219
135
327
-8
-124
19
1
113
276
371
348
256
-83
-124
122
-122
-92
-59
-47
-78
96
-269
-347
-321
109
356
255
195
-27
41
27
-115
-25
-42
-97
-107
-74
-62
-65
276
518
857
899
1332
1187
1577
1472
1815
1814
1820
1675
2090
2111
1878
1243
944
1076
737
484
276
-235
-877
-1124
-1322
-1250
-1599
-1261
-1294
-1061
-668
-873
-824
-442
-242
-298
82
111
100
104
120
122
110
-121
-15
367
134
269
99
21
88
-36
320
129
212
572
626
559
174
132
517
486
875
793
555
334
262
316
129
153
169
243
620
435
393
544
240
572
455
785
478
598
216
178
243
625
511
883
696
705
643
792
465
505
662
1086
1125
753
849
801
648
1039
1066
714
867
878
735
1087
1060
686
871
694
1129
992
939
760
850
792
817
857
881
647
662
877
501
615
544
581
408
444
399
562
223
169
131
358
366
178
254
234
314
63
-345
-290
-96
320
337
265
-39
-18
278
279
-3
257
298
323
278
-85
54
-272
-269
58
-99
-28
-45
88
-352
-251
-560
-243
-371
-263
23
-282
-358
-378
-304
74
-95
-87
-124
102
75
-262
-149
-514
-220
-299
-120
-66
114
5
-302
-274
62
-104
-46
-59
117
22
-290
-303
-292
9
101
-49
-12
-87
54
14
79
-82
-25
266
320
360
307
-89
63
110
277
149
375
-30
99
92
-88
-37
-62
-102
-52
360
253
244
325
-112
-127
276
152
365
-93
-295
-383
-383
-377
-370
-298
123
297
353
264
-115
124
-6
165
240
156
-26
73
21
69
-95
-4
321
355
347
293
-37
-83
-78
-19
328
155
193
173
370
311
287
311
373
184
215
163
269
70
-334
-341
54
-17
334
272
124
32
89
-15
340
318
-15
-36
264
273
-75
53
24
-119
297
129
372
303
-32
-99
-128
-81
297
170
219
175
369
349
377
162
206
525
587
580
207
306
-10
346
518
617
600
562
587
390
386
559
253
601
793
657
835
613
170
162
571
491
827
796
470
439
450
458
441
426
452
491
468
588
129
-31
-78
-37
268
282
268
-13
-54
-115
92
95
-106
-41
-6
-9
-32
-77
113
60
70
-93
273
305
-29
87
-284
-311
-260
80
-103
-73
-87
-108
-87
264
184
421
685
936
1394
1546
1647
1430
1641
1279
1184
1160
1174
1368
1151
814
228
-9
81
-367
-421
-1116
-1598
-1726
-2153
-2104
-1668
-1456
-1243
-1002
-731
-496
-605
-518
-155
18
-38
353
367
280
-80
-116
-61
282
299
-44
86
29
65
115
106
88
-71
167
418
769
417
513
176
205
545
626
432
452
398
537
184
200
591
492
834
846
830
806
506
458
457
791
894
678
882
794
473
450
453
477
799
641
713
706
876
772
473
781
891
723
731
668
854
817
806
816
895
1088
1322
1160
1018
763
889
728
902
942
1069
665
876
891
859
777
499
848
716
749
673
831
789
793
780
470
424
441
773
825
495
546
343
294
162
567
566
152
-9
-43
272
288
-49
121
-121
-29
268
-83
12
-307
67
284
166
360
-105
-305
-141
-153
-176
-227
-240
-167
-316
-287
-370
-223
-254
-194
-357
-299
-292
-327
-142
-213
-229
-146
5
127
-125
13
-152
-530
-551
-231
-131
-286
63
-110
-64
-90
76
-261
1
94
-69
-54
-106
97
76
72
81
-117
260
369
346
-94
-308
-375
-261
-102
-34
-60
-76
-25
289
268
-84
95
117
-52
258
-40
104
6
-272
39
-120
-14
319
335
279
-79
87
54
86
-99
-24
287
300
-13
-114
77
118
-11
350
356
282
-59
-119
80
21
16
119
286
135
347
-60
65
52
-99
303
138
372
-15
64
-316
-320
33
-109
-53
-65
-90
-63
269
337
341
302
291
357
201
235
155
268
-84
-77
266
131
252
593
589
219
327
281
148
611
489
466
601
251
243
549
592
597
590
605
386
397
596
238
170
220
631
779
818
474
585
219
189
232
583
425
457
634
217
323
272
327
161
205
164
312
-72
79
23
14
45
113
-62
-20
-61
86
5
24
117
-64
-55
-67
-58
-64
106
-293
-362
-268
-90
263
-40
110
52
65
103
-98
282
228
432
808
840
871
714
1119
997
1321
1309
976
1094
670
778
434
386
559
365
68
-254
-795
-1054
-1348
-1415
-1910
-1687
-1526
-1563
-1169
-1374
-1286
-1048
-403
14
304
381
274
122
72
-85
342
211
254
518
525
513
207
159
187
556
424
465
403
558
242
517
587
391
399
637
411
770
865
846
445
561
584
507
675
668
473
227
344
374
528
449
791
468
556
163
176
584
496
836
844
839
860
879
862
820
797
823
884
681
677
872
802
796
878
732
1030
721
642
875
644
885
791
447
502
725
973
1310
911
675
791
819
680
755
727
645
848
845
869
886
640
662
694
704
662
819
426
552
236
559
475
640
682
834
404
516
193
194
252
595
631
528
301
112
117
279
158
380
-23
-127
119
111
23
-342
-336
66
-34
-12
123
-277
-318
19
-121
-71
-115
53
-267
-290
-312
-365
-154
-375
13
-91
-22
-71
63
-304
-342
-295
57
-125
-128
50
-297
-328
-285
46
120
-68
-15
-14
-87
59
-265
-257
53
109
-100
-41
277
293
-22
-121
73
100
-50
316
338
-28
36
-362
-342
94
295
368
281
-121
65
122
-20
318
354
142
237
583
561
152
-8
-26
358
227
203
287
108
61
-98
305
160
211
228
242
254
231
143
264
-86
-51
357
254
535
167
282
-22
307
177
534
571
535
173
282
-103
111
-74
324
186
202
377
266
-58
-52
260
329
141
195
207
161
349
323
367
183
221
211
190
187
184
160
146
198
581
449
472
627
212
341
289
285
296
333
166
546
637
639
582
551
606
454
778
505
428
596
522
226
246
591
437
470
394
243
332
-69
84
67
-102
277
311
-51
38
-310
-275
89
-58
279
320
293
-66
75
45
124
-18
293
270
-39
-85
121
70
59
122
-18
345
133
365
296
-46
-112
-116
-31
378
544
415
496
824
681
1104
1287
1165
1183
1322
1107
870
433
598
546
175
-63
-380
-407
-868
-1082
-1396
-1487
-1906
-1504
-1192
-997
-1287
-1376
-1011
-677
-577
-134
-354
-326
26
-120
-67
-53
-15
321
152
208
222
186
354
-3
-35
318
512
434
502
444
568
194
152
192
529
592
615
633
421
458
433
601
535
578
440
497
410
249
179
531
461
852
876
838
800
508
444
623
598
412
779
838
808
485
458
476
491
484
769
640
1079
921
1083
860
438
465
650
1083
1108
717
782
425
491
687
1142
966
904
1040
701
669
881
789
438
425
506
864
661
654
875
847
841
869
675
728
705
843
433
586
554
560
570
577
566
245
356
-80
67
102
-12
372
136
313
-34
-61
-33
-15
-50
-101
-100
-44
-23
-119
-303
-189
-168
3
-64
261
-71
32
-352
-130
-330
20
82
58
-304
-180
-533
-568
-545
-231
-158
-346
-307
-300
-316
-349
-384
-138
-348
8
108
-115
75
-299
-380
-364
-262
110
-103
87
-302
-153
-162
-335
20
74
87
114
-79
-28
-56
90
3
53
-19
162
195
315
-127
29
50
-128
-65
-48
-66
-109
90
45
54
-111
284
136
156
345
-12
-91
126
114
121
-104
-42
286
315
262
-104
76
113
262
169
209
342
-105
34
58
-94
-22
-24
-47
-32
257
-21
-122
29
21
-121
288
362
305
-94
42
31
123
-12
314
319
292
-12
-98
42
-293
-267
108
-45
-47
114
16
1
96
264
192
577
602
528
157
318
-1
-51
-91
-103
-78
-38
-13
-4
276
344
199
577
408
408
571
177
326
291
310
351
156
243
574
576
247
175
173
231
534
529
248
234
211
154
368
166
582
499
832
807
501
468
431
634
605
388
452
443
577
152
296
260
-16
-59
-99
-102
-111
65
-333
-170
-363
85
271
328
-9
108
-261
-310
-284
72
-40
337
376
325
-29
-114
101
104
-124
-102
125
31
-345
-160
-131
-275
116
-35
282
329
131
212
557
409
822
1062
1360
1613
1445
1591
1386
978
947
982
959
1046
482
370
39
-203
-638
-825
-1062
-1314
-1243
-1571
-1560
-1250
-1156
-999
-1033
-790
-572
-155
-326
-309
-320
-283
100
278
154
190
154
363
345
368
185
545
619
601
246
151
131
170
209
241
562
408
471
421
543
185
191
531
612
405
444
472
451
617
522
538
429
851
886
495
566
228
547
415
503
796
834
643
681
887
508
414
441
836
726
767
687
818
486
491
789
823
849
894
695
710
644
800
778
895
1073
912
1100
678
805
784
836
882
655
704
1038
1093
1059
692
859
877
725
1052
744
860
499
493
784
501
402
605
450
663
1058
705
420
166
134
561
471
426
159
120
-259
87
258
355
333
277
281
323
303
-80
16
-298
51
-63
-19
-114
12
-284
27
76
43
-289
-326
-308
-307
-144
-565
-435
-413
-228
16
-99
105
-346
-519
-540
-179
-343
-354
-163
-171
-353
-281
-278
-303
-269
94
-53
-32
-107
43
-287
-304
-276
34
103
-93
-72
-114
40
-331
-135
-352
14
118
-107
115
74
84
-102
-7
330
368
354
298
-36
-123
57
38
110
260
146
188
364
-25
-111
-109
-39
319
157
188
352
-102
-267
9
-41
165
175
-16
37
3
108
-77
117
11
33
-34
172
229
367
-42
-90
-23
331
132
134
362
307
-34
-110
-115
-18
382
208
165
278
119
16
-262
41
126
-48
-17
-57
108
26
11
71
-89
-12
259
-42
-109
104
121
-69
262
312
320
297
261
-59
96
-265
-298
53
-27
362
365
278
-29
277
363
128
333
283
285
284
-60
40
-320
-267
-90
330
376
317
-9
-25
270
331
148
237
574
578
203
279
-74
-16
128
208
157
311
280
336
382
352
299
325
190
560
550
138
-65
75
106
-19
362
140
346
281
-5
-9
-17
-12
304
150
206
150
275
-63
-8
152
566
393
403
637
603
549
215
145
134
211
604
449
432
552
155
132
512
431
789
782
457
384
596
596
397
488
796
490
621
522
513
548
546
512
535
396
507
477
540
315
-58
-56
-30
-37
-61
-59
-52
-101
54
-278
1
113
-25
276
-36
86
-321
-144
-338
102
279
294
111
-140
-530
-217
-324
9
-299
-136
-140
-296
46
12
-354
-372
49
289
135
284
-126
-96
160
464
648
749
919
1201
1446
1477
1569
1405
1404
1538
1640
1580
1348
1026
450
181
-41
10
-229
-799
-923
-1547
-1530
-1815
-1646
-1382
-1130
-681
-784
-400
-580
-566
-567
-241
-341
59
89
21
-288
4
88
-120
-112
-79
-7
292
-13
-103
-124
-35
343
165
203
252
553
524
151
312
358
526
412
411
565
236
244
525
243
213
533
440
832
817
413
526
247
594
464
810
837
809
484
413
398
465
832
675
732
751
723
648
826
832
701
1121
917
1052
854
475
480
789
817
842
682
1105
978
969
1102
725
699
759
1088
1109
1049
656
484
632
422
860
1034
1051
645
479
447
796
883
868
787
486
772
796
469
572
177
370
369
382
149
190
212
149
-3
-123
-78
373
541
516
319
126
77
-107
-37
-29
-53
-71
-94
102
7
-337
-129
-134
-346
11
-118
-52
-121
-295
-190
-210
-366
3
30
-291
-130
-197
-225
-230
-220
-172
-338
6
8
-380
-571
-419
-594
-129
54
106
56
4
6
43
91
-101
-23
273
-32
100
-273
-318
-296
21
97
-73
-2
262
-63
111
89
-115
-33
281
291
-7
-96
53
-274
1
104
-45
-16
-77
90
39
41
65
95
-96
280
156
209
135
-8
-100
-92
-42
-37
-88
115
95
65
-268
-340
-301
127
316
383
304
-75
115
113
117
98
83
87
82
38
-284
-324
-299
44
-92
278
342
323
-23
-128
71
89
-101
-37
-16
-61
97
-270
-338
-332
4
-125
-6
294
-36
68
-286
41
-11
155
146
259
-103
-73
273
283
-71
99
-109
308
178
134
-60
10
-266
-107
352
182
366
-17
-73
-38
276
298
320
137
238
530
190
303
-41
-26
295
329
312
289
308
338
315
-26
-92
-37
129
521
224
280
92
74
-41
366
150
356
307
283
-11
-70
-101
-68
256
310
339
349
319
-36
104
93
-24
156
202
317
-128
68
-82
324
139
373
333
330
348
327
-13
-121
88
-98
309
171
165
297
-109
62
74
-97
261
330
322
-25
109
37
53
-121
-15
333
380
359
267
-88
-91
300
242
634
631
529
180
162
197
212
168
362
359
176
242
201
310
-73
-41
163
393
488
418
556
514
566
391
456
795
659
746
710
829
478
787
672
741
664
783
450
429
626
249
174
254
463
658
722
652
780
421
637
404
440
411
536
349
-58
126
94
48
12
47
-118
-71
95
-340
-187
-349
-109
356
142
281
-126
55
62
81
50
-274
-324
-331
-318
-320
-344
-354
-311
43
-103
-49
-104
12
-375
-133
-268
-93
320
217
439
716
935
1014
1286
1406
1413
1901
1914
1483
1592
1604
1421
1648
1264
1175
1405
1008
846
-31
-597
-683
-1121
-1022
-1175
-1243
-1202
-1380
-1318
-944
-690
-595
-301
83
71
16
-279
-293
-276
43
-117
-47
-47
-92
-116
-92
-55
-39
-29
270
327
331
-2
-108
109
-95
-6
315
362
168
227
221
136
311
334
199
565
585
539
239
223
214
211
516
625
470
467
598
182
351
379
231
626
488
793
492
637
546
547
638
500
824
813
493
428
410
453
786
850
872
865
857
841
779
408
573
608
806
1063
967
946
1047
866
488
438
435
448
438
632
523
178
184
546
429
788
821
793
450
573
189
140
195
545
587
556
246
207
161
336
261
274
128
228
205
315
-94
108
-112
-63
-43
-52
-82
107
-263
-379
-176
-141
-319
-266
-270
-315
-365
-131
-376
-335
-278
30
62
60
14
-326
-166
-235
-253
-210
-369
17
118
120
-259
-171
-248
-163
13
124
74
-342
-222
-250
-186
-347
10
123
-27
260
-86
18
-321
11
-74
285
-51
1
-154
-151
-307
15
-258
-272
62
-53
277
-47
56
-291
-266
77
-122
-118
121
101
60
5
-266
74
-12
141
176
342
-58
80
39
84
-58
317
364
296
-92
79
106
-37
342
173
214
201
374
-17
-121
-114
256
129
176
128
302
-6
-13
263
303
379
219
538
247
359
-71
100
-103
286
128
374
284
-63
-114
127
-117
-71
262
326
313
-39
109
80
-110
-16
289
278
261
281
318
317
267
-45
-60
-26
284
324
325
278
-64
111
104
-54
333
375
280
120
14
24
120
-5
382
229
524
226
150
359
346
308
-35
-108
-105
-59
-65
96
6
41
-55
362
166
141
355
309
-20
-93
-78
315
220
519
158
260
-93
-123
-120
-67
315
208
515
154
262
-1
177
638
423
530
344
272
299
301
-51
84
79
-28
157
225
135
-11
-80
-32
337
188
512
520
193
330
272
370
591
509
479
527
310
-38
-29
-41
120
13
20
-80
373
192
346
-70
-114
278
214
544
198
308
-27
-21
266
293
353
202
542
521
133
-28
-114
-72
331
252
617
590
198
314
264
310
130
186
207
182
351
-34
-122
-91
287
142
175
166
174
200
186
377
329
369
232
606
392
606
522
187
149
168
221
243
193
353
279
259
275
296
329
142
233
544
521
190
130
383
182
547
434
806
815
447
578
567
407
481
435
577
524
567
610
587
561
397
870
1072
1122
766
883
800
792
826
877
668
678
887
792
432
626
386
486
873
677
851
403
236
208
568
425
427
572
185
374
358
313
-73
15
-322
12
-79
270
-52
56
-278
37
-103
-32
-27
-35
-33
-53
-119
64
50
120
-21
330
350
256
64
-363
-366
89
340
175
311
-114
102
-49
351
233
427
704
968
1358
1152
1267
1489
1684
1726
1682
1723
2108
2110
1832
1159
902
1148
899
644
382
-151
-502
-697
-1119
-1023
-1330
-970
-1062
-691
-642
-834
-448
-549
-159
-293
108
-12
281
-71
54
48
-40
183
537
186
-3
-126
-115
-29
298
330
363
166
205
152
279
-63
-14
381
211
183
142
199
573
625
564
255
586
475
775
405
519
220
239
208
141
184
395
875
644
455
532
560
502
678
697
866
794
770
474
632
555
620
845
1088
905
1032
857
834
745
950
1285
949
1068
711
660
889
877
892
679
731
1029
1046
766
697
880
871
708
1096
906
1113
734
868
775
439
628
611
394
419
619
234
131
138
231
584
384
409
404
585
183
310
306
171
540
252
345
-69
-125
-117
-122
99
90
-118
-67
-81
90
3
-284
10
90
-92
-64
-105
57
-284
-302
-260
38
35
8
8
33
22
-325
-196
-526
-240
-380
14
93
60
-336
-246
-570
-215
1
-75
-40
121
-267
-342
-327
26
-81
303
322
-55
22
-340
-313
36
89
86
93
-106
-41
-44
-118
78
103
-58
293
343
338
268
-109
47
65
-29
177
530
202
300
-60
-68
-36
-13
-1
268
-2
-80
69
40
-113
305
144
130
345
364
165
157
304
-80
-94
288
181
215
361
-56
107
127
-21
377
241
549
236
332
-97
91
-82
324
137
304
-123
34
79
-64
-4
-22
-38
257
299
270
-83
99
98
-122
-89
-23
371
515
255
311
68
-269
109
277
323
-28
109
62
87
-119
-60
272
362
169
157
310
-106
16
-258
-126
328
190
140
-31
80
87
-18
163
255
233
166
137
152
166
149
148
226
601
389
531
327
-67
-56
278
304
278
301
153
246
203
301
-85
-79
275
334
292
-67
95
56
89
-52
377
521
554
220
371
318
316
318
296
276
288
317
328
317
314
340
369
370
349
353
154
208
165
266
115
115
294
253
573
189
-1
-90
-38
328
134
374
335
335
370
375
311
-28
-27
357
249
247
297
14
-143
-354
53
-71
-1
294
321
320
304
321
144
236
525
224
140
300
-59
102
73
-104
291
132
144
371
355
355
343
346
165
552
626
546
351
-73
-101
-3
380
209
245
250
212
130
302
285
366
254
624
626
521
135
339
139
239
546
536
517
528
538
248
195
207
580
471
796
779
508
808
865
852
770
473
811
701
746
844
558
347
362
566
784
853
771
418
421
769
854
861
811
491
415
552
132
-32
103
52
90
-31
142
216
348
84
-384
-135
28
-71
-60
79
-306
-356
-314
34
-116
-21
300
309
-6
-115
21
-314
-314
24
-109
-37
-73
80
25
110
307
233
578
398
852
928
1238
1635
1630
1631
1481
1886
1696
1898
1508
1573
1323
1065
644
849
773
216
-342
-710
-1400
-1557
-1553
-1540
-1563
-1550
-1174
-963
-731
-790
-627
-211
-307
67
105
66
9
14
113
264
379
150
367
323
307
301
269
-44
-71
-24
333
150
379
-6
117
95
-22
210
394
420
565
194
186
535
623
633
598
593
619
600
241
129
141
578
805
660
861
486
427
446
464
437
420
482
837
844
457
557
537
428
861
667
875
833
854
876
817
453
440
878
917
1365
1294
1026
796
783
687
1074
1030
845
415
612
391
457
789
880
703
720
672
867
839
831
799
488
466
506
818
809
453
564
191
150
191
530
586
565
221
135
369
146
171
163
163
204
231
163
267
-111
-99
275
365
336
-29
123
46
-287
-361
-375
-294
75
127
83
1
-303
-299
-266
45
110
-98
-114
53
-298
-325
-259
112
-46
-14
-65
64
-362
-513
-573
-254
-378
-272
-259
-318
-349
-286
91
-81
-69
-83
-61
-27
-84
-271
-216
-249
-313
-46
336
267
122
53
83
-118
-85
-39
312
143
128
267
-94
-71
326
209
247
203
156
134
337
-26
-106
-55
130
556
546
347
125
56
-84
344
171
137
325
314
363
157
147
340
290
308
134
210
185
296
-114
123
277
224
567
242
381
337
355
354
305
276
325
140
134
290
-78
127
-125
-122
-126
-96
-29
270
-19
-101
94
92
-127
-85
-37
269
292
-3
-99
81
100
-27
132
194
343
123
-321
-350
39
-33
336
338
272
-65
-125
117
-103
-29
295
313
270
-69
109
70
95
-85
258
315
319
289
-2
-27
-41
-48
-37
-1
296
300
-25
97
-278
-272
-99
156
582
565
154
266
-44
-36
-5
309
133
167
338
-87
68
-115
320
184
174
362
325
316
274
-49
-71
-22
298
314
294
288
286
-15
-94
-121
-24
146
244
193
311
-50
-65
-35
-21
-24
-4
297
318
264
-100
78
106
-25
367
185
186
136
317
260
276
144
567
635
527
325
-56
-21
348
151
132
370
150
184
142
306
289
158
616
510
807
788
770
491
424
575
235
219
249
525
247
202
182
229
611
780
649
652
510
554
132
324
316
295
256
-3
307
340
260
91
-275
59
273
156
334
117
-286
6
-117
-47
-77
-87
275
182
228
329
91
-277
76
265
345
-23
23
-374
-358
20
-100
280
178
391
854
709
737
1053
989
1243
1634
1558
1367
980
959
926
765
786
620
559
221
-26
-184
-885
-976
-1193
-1561
-1590
-1556
-1232
-1157
-1314
-1144
-896
-624
-136
28
106
74
-305
-164
-145
27
-23
330
282
-71
-120
-114
-106
-111
-81
280
159
232
209
148
138
186
230
216
169
156
189
206
167
362
366
224
396
783
805
466
593
233
205
253
599
433
474
438
588
231
224
599
772
883
888
852
846
861
854
835
873
721
1057
762
884
789
822
680
1025
1050
1056
1073
1055
695
793
435
456
810
887
656
682
760
1093
1083
718
876
643
756
1056
657
401
225
251
429
883
734
726
888
486
593
243
225
514
556
586
596
560
208
356
322
134
238
529
206
349
256
-46
-43
268
365
191
187
347
-46
83
-278
-340
-324
25
122
-112
103
88
-121
-103
78
-262
54
-3
371
-41
-382
-601
-238
65
259
-63
-258
-350
-280
78
80
19
28
-101
288
284
-126
-286
-320
28
-113
-58
-59
-72
-89
-127
81
83
-91
274
321
268
-80
124
-122
-87
-64
-40
277
359
137
325
-67
88
92
-79
266
300
277
-23
-63
-75
-39
285
342
348
303
-14
-65
-107
114
110
-89
273
370
146
360
281
-47
-88
-82
-18
353
213
247
161
274
-74
-55
289
351
333
-4
-106
51
-269
2
122
287
373
317
-96
17
-277
52
-65
340
180
181
353
-8
-64
-62
-37
-11
280
320
327
280
-43
-75
-65
-51
-48
-21
297
331
267
-119
66
-110
322
190
173
315
-46
-89
-90
-77
-49
256
317
365
370
308
-66
72
52
-74
130
240
153
-55
77
-107
319
140
316
-60
-85
-31
-22
-98
99
-79
359
229
193
317
-30
-31
-9
-37
-95
-128
125
107
51
-278
-326
-322
3
-125
276
374
379
317
265
264
318
155
532
391
428
582
155
322
145
573
431
424
615
577
570
553
546
636
830
739
716
502
520
175
242
588
613
606
384
463
507
462
631
592
634
434
416
555
137
265
-59
-103
113
105
-81
301
375
299
109
-286
1
-104
266
-7
-89
-117
-83
-67
-102
-118
-44
341
143
324
-87
35
-277
0
71
-99
-54
-78
-128
-101
307
518
434
810
707
935
1159
1249
1192
1352
1324
1367
1392
1338
945
747
499
228
-6
103
11
-135
-417
-1064
-1188
-1424
-1469
-1615
-1173
-984
-1093
-730
-885
-490
-559
-350
83
-78
-63
-86
-91
-60
-27
-41
-87
-91
256
379
144
272
112
91
-3
217
599
596
546
248
198
380
333
130
520
612
566
161
293
284
367
213
556
388
475
776
483
637
558
572
413
770
800
497
417
608
573
574
632
506
662
743
658
441
243
218
393
641
1042
751
877
796
838
670
670
802
408
391
490
817
484
584
549
481
1026
928
1115
679
817
808
822
792
497
779
868
679
655
816
471
436
440
448
437
404
595
230
354
265
280
139
516
536
175
292
-39
-30
-3
-7
-24
-27
-35
-101
29
-335
-339
5
101
-116
123
87
45
-260
-295
-290
6
50
70
64
33
-274
-322
-318
17
114
-104
124
92
78
26
-354
-213
-187
-282
88
-257
-234
-392
-595
-155
3
71
104
-97
-61
-102
51
-278
2
102
-49
260
-1
-46
-102
114
124
-68
277
338
330
-11
121
21
-259
69
-51
319
320
-73
-265
-374
-331
62
-75
-27
-13
263
275
-14
-77
-96
-30
330
380
327
-42
117
89
125
-73
-32
-10
272
316
342
294
-71
108
-97
319
213
232
364
-78
28
-284
28
-88
293
285
127
-317
-374
0
-79
267
-8
-57
-79
-92
-124
110
-104
-4
328
318
-6
-62
-87
-120
73
30
70
-86
-22
-52
-127
105
-96
-31
-16
-19
290
137
185
347
-96
34
81
269
178
191
304
109
-263
26
-97
297
369
372
350
329
303
267
-9
283
378
219
243
161
273
-92
-102
-23
321
339
283
-45
-78
-68
-44
-15
285
341
382
379
329
269
-30
-56
-77
-86
-74
-41
-38
-115
2
-350
-306
122
301
362
301
-41
-58
-20
-4
-21
257
368
237
230
316
127
108
305
572
460
412
529
184
196
519
584
634
440
509
797
511
453
439
505
859
649
863
773
439
389
599
542
246
527
624
488
820
818
500
414
599
568
576
582
521
361
-99
14
-273
14
36
38
69
-115
-74
121
-258
-306
61
256
371
324
-76
46
-284
-301
-270
74
-67
256
-49
65
-317
-333
13
-128
-75
-88
-106
-75
258
365
524
788
1149
1222
1627
1579
1212
1175
1206
1200
1386
1339
1364
1351
1139
487
376
-47
-91
6
-389
-1138
-1242
-1648
-1421
-1660
-1575
-1383
-1136
-684
-825
-476
-613
-234
-152
-359
-292
52
101
74
23
31
108
-62
-14
285
374
220
241
151
288
256
330
153
146
325
269
289
352
141
162
203
529
576
539
169
314
278
329
188
592
475
801
487
580
181
173
556
444
479
392
524
202
225
571
440
810
869
846
503
421
411
480
836
658
692
687
895
799
425
607
617
438
777
833
874
641
865
508
410
419
805
682
685
820
449
445
508
787
506
781
893
739
682
443
182
353
224
411
470
612
182
341
351
146
176
189
211
218
157
284
-97
105
109
112
108
-111
-27
270
-63
49
-274
62
-57
-11
-92
44
-272
-271
-262
-257
50
-100
-23
-67
26
-149
-228
-215
-187
-185
-176
-366
-258
71
54
-275
-317
-270
105
-57
-85
-263
-517
-441
-428
-242
-281
78
40
-299
-331
-300
1
31
66
117
-103
121
20
-344
-134
-341
22
124
-82
-97
105
55
55
106
-81
-26
259
264
-12
-69
105
65
-119
319
236
512
348
120
-278
-288
11
7
-309
-365
-364
-313
-263
17
35
90
-59
316
375
335
-32
123
97
-125
-73
-30
257
268
-32
-128
52
68
-80
305
136
173
181
152
321
-45
-100
-48
326
137
337
-66
68
80
-26
156
250
218
380
301
-15
-105
23
-332
-325
31
127
-120
79
46
88
-78
-1
303
347
140
155
347
-29
-105
-60
336
187
157
272
-126
71
85
112
-113
-42
328
165
146
274
-100
-88
309
189
184
293
-120
109
-43
317
307
-41
-80
270
158
176
-12
-287
-175
-337
-107
287
-43
7
-136
-354
73
-11
340
363
363
354
323
276
-10
269
332
136
156
133
353
325
310
304
320
129
248
607
598
204
299
260
137
599
473
479
436
421
425
392
569
525
575
420
459
634
249
190
513
416
854
761
1106
1058
843
553
364
132
560
439
421
551
204
234
606
468
780
502
424
573
211
381
312
-14
-80
-110
-89
-56
-74
99
-259
-316
-314
-288
6
75
-93
-59
119
-275
-345
-281
107
-74
-106
66
-266
-342
-175
-218
-130
59
-70
114
-351
-239
-177
50
312
547
790
1066
1304
1174
1224
1546
1650
1454
1650
1254
1391
1319
967
1047
845
462
411
572
297
-165
-682
-1341
-1543
-1570
-1255
-1189
-1387
-1304
-905
-726
-800
-620
-158
60
-57
-73
51
-311
-300
51
-127
-103
-82
-31
260
-39
-128
106
-48
361
195
192
157
137
362
283
-49
-15
165
635
464
624
189
341
135
548
444
498
435
584
528
559
626
403
401
422
482
775
461
594
525
581
444
769
491
437
408
639
572
236
230
601
507
853
830
768
503
814
875
652
679
720
724
872
415
521
547
473
662
738
721
711
739
750
694
871
848
885
652
864
788
484
474
467
474
813
734
901
902
696
422
521
531
595
577
196
301
-51
-102
111
93
-109
278
154
199
138
288
-43
-59
-25
287
322
287
-96
-268
-381
-362
9
118
-111
104
59
43
29
-271
-325
-317
55
-27
346
300
102
-362
-158
-272
-70
-5
106
-130
-521
-218
-334
22
47
47
61
66
11
-358
-213
-530
-527
-212
-367
6
90
107
80
53
56
86
-126
-85
-90
62
-377
-516
-229
-296
-113
-68
122
76
117
-80
-83
-113
-61
355
250
251
345
-119
30
80
-37
311
277
-88
121
-35
140
229
170
347
147
558
610
159
78
-141
-356
101
259
279
-31
-60
-46
-42
-80
-126
-106
261
382
135
-2
86
42
-91
341
163
367
284
265
294
304
283
291
363
184
173
300
-122
52
102
-31
327
347
297
-27
-75
-97
-106
-111
-119
-119
-94
-48
-14
-48
107
25
63
-28
149
191
330
-93
78
111
-62
263
294
293
256
-81
87
43
70
-102
258
340
381
347
-16
121
74
-119
-3
326
322
283
-19
-89
82
49
-102
365
512
194
-26
55
73
-29
357
138
145
186
221
164
282
-67
-23
361
180
131
275
-50
-47
-20
-8
274
363
234
568
522
369
-46
-113
-56
335
202
252
206
344
-38
-89
-29
358
208
210
128
316
336
170
251
531
520
522
541
540
249
232
530
623
464
776
801
819
834
832
799
478
407
629
399
463
490
423
553
230
571
773
693
721
856
416
251
141
340
323
319
283
-72
51
-306
-323
-271
55
98
109
91
40
-291
-346
-328
36
-69
299
313
-31
69
-344
-192
-217
-186
-139
-349
-285
62
127
111
30
-275
47
-64
280
-24
98
22
123
152
791
900
1154
1277
1582
1635
1445
1481
1467
1449
1478
1513
1435
1178
1087
793
593
134
75
-601
-765
-1352
-1571
-1437
-1450
-1588
-1365
-1117
-664
-785
-419
-571
-233
-180
-364
21
-84
-23
-119
-277
-323
58
-19
308
-21
-128
97
-125
-101
-101
-76
-5
324
349
336
322
313
300
310
131
533
402
409
555
155
321
301
326
135
227
558
567
517
217
242
588
428
487
768
772
483
403
576
557
639
790
657
685
875
781
501
855
1039
949
992
905
1025
662
834
483
391
634
477
871
678
889
823
829
658
762
1089
1118
1105
1038
669
813
505
795
882
703
716
890
464
546
214
526
390
458
430
614
569
571
580
546
223
178
192
236
224
347
127
-299
-300
119
300
364
291
-76
-126
-102
-54
-33
-44
-80
110
7
-380
-247
-566
-534
-165
-292
41
37
-286
-370
-154
-369
-267
79
81
-271
-134
-185
-157
-381
-161
-241
-539
-243
-182
-195
-562
-429
-440
-562
-375
-280
-325
-178
-232
-195
-133
-361
-342
-278
80
-121
90
-271
-336
-308
44
-101
-21
-9
-85
46
-289
9
-106
279
304
-36
100
15
4
54
122
-98
-115
102
94
123
-123
75
-273
-280
124
355
236
163
-61
8
3
-112
282
294
-52
119
94
95
80
71
-122
271
377
333
-116
-327
-153
-331
72
-95
-106
93
73
111
-95
-84
-100
-80
-2
338
329
-67
11
-321
19
-73
280
-19
118
24
-259
6
20
44
87
126
-118
-111
-82
-52
-84
76
17
104
296
141
269
3
-153
-312
-71
341
313
-51
-94
-56
-51
125
61
-110
362
532
238
276
80
79
-1
180
223
138
296
256
-11
-46
-97
-94
-2
374
172
133
308
262
274
318
362
145
177
166
335
-70
51
6
71
-46
347
151
359
-16
-110
-104
-1
373
161
370
280
-60
-120
110
-117
-28
329
377
352
293
-8
-32
-43
-23
310
154
192
375
258
-25
345
255
609
606
560
523
225
146
306
-13
-4
323
173
541
606
580
220
131
162
572
476
782
450
592
523
524
580
418
774
825
784
415
564
517
523
564
638
484
813
778
385
242
185
207
243
242
208
143
278
126
23
16
61
79
64
68
90
54
-316
-369
37
318
201
284
-324
-566
-565
-207
-190
-518
-553
-225
-372
-324
-344
-366
-345
-293
10
34
44
45
57
99
-59
378
395
725
1298
1543
1437
1501
1486
1415
1623
1438
1867
1717
1820
1174
1046
873
858
487
360
-194
-700
-1299
-1272
-1460
-1836
-1799
-1590
-1292
-1031
-874
-807
-771
-451
-596
-219
-143
-138
-165
-166
-374
-304
12
71
-97
260
299
-34
67
-302
-259
-74
379
210
157
306
-10
269
340
159
229
560
630
403
618
538
242
542
631
427
411
633
387
425
437
416
426
781
651
661
511
574
241
568
420
468
474
775
873
686
652
810
504
825
701
1055
1067
765
717
686
654
876
878
689
1044
1078
717
786
402
437
856
751
1048
726
885
821
806
827
872
669
708
719
681
835
409
210
340
374
537
418
395
237
353
354
213
582
623
614
599
563
206
316
-39
-26
316
370
324
-66
44
-304
-312
4
86
-116
-123
68
-279
-352
-377
-343
-269
59
99
107
110
115
105
57
-268
-314
-310
-277
-266
-312
-149
-242
-531
-194
-273
-96
-45
100
-329
-172
-144
-318
-270
-260
21
59
45
-304
-149
-153
-293
102
-100
108
27
-270
3
49
85
88
77
89
-127
-120
47
-354
-155
-276
-26
136
344
-81
71
101
-89
-100
90
65
113
-106
90
-289
-346
4
-64
342
371
303
-35
-89
-120
118
-112
-22
348
140
326
-79
51
36
-120
293
147
128
-26
38
-319
-288
59
119
-98
-14
362
143
275
93
48
-43
175
229
319
80
-315
-301
63
-79
-8
-2
-47
-83
-60
-2
269
-41
-92
-39
361
224
221
376
282
262
308
375
181
218
207
140
306
-2
267
321
366
380
357
294
-58
97
39
71
-69
318
376
329
-32
-101
-80
263
365
192
242
235
134
-35
96
121
288
194
220
366
-22
-85
-90
-93
-102
-80
-13
308
312
-2
-60
-54
285
139
219
241
195
355
-10
-76
-59
282
374
165
177
194
212
180
325
-59
-91
265
132
130
-28
51
13
-115
311
140
376
330
305
285
256
260
343
208
524
226
153
152
224
537
528
516
594
502
642
656
808
435
411
768
677
1057
1063
692
785
413
639
411
464
786
844
839
472
567
234
587
810
746
1041
658
439
212
291
-69
-108
125
67
-287
-368
-377
-311
43
-121
-46
262
262
-66
72
-282
-321
-319
-317
-321
-304
12
78
89
30
-312
-356
-314
48
-98
-49
-81
98
43
49
116
-27
140
612
826
714
1045
908
1169
1510
1732
1721
1841
1513
1523
1444
1187
919
1132
1011
947
386
-514
-995
-1241
-1156
-1160
-1427
-1722
-1719
-1643
-984
-726
-830
-618
-320
-108
-123
-293
-159
-129
-278
43
58
106
-47
286
259
-88
126
-68
311
172
249
535
251
172
359
378
244
632
407
577
201
147
194
552
388
439
462
469
449
390
568
255
251
551
621
446
510
771
432
563
517
630
841
725
683
781
404
406
497
855
683
751
1041
750
660
838
833
645
751
1109
914
896
1041
890
798
806
862
893
895
656
692
692
877
799
812
665
1024
761
643
497
396
625
403
479
820
855
805
441
585
245
184
134
364
361
359
333
274
-53
-101
-102
-47
291
344
315
-47
103
70
112
-81
-23
287
331
331
265
-90
102
97
121
-105
-61
-11
-10
-114
-281
-137
-369
-261
60
6
-132
-524
-594
-596
-537
-167
-292
51
36
-326
-186
-227
-168
-321
4
2
-301
-352
-368
-346
-300
15
81
-123
-104
-116
109
78
54
40
50
89
-116
-90
-125
41
-302
-301
89
297
191
184
303
-100
89
95
114
121
-124
-114
126
83
54
70
110
-122
-104
-61
-16
-45
75
-324
-342
49
-34
316
327
322
337
336
275
-71
-121
-72
311
167
155
-1
64
10
-89
154
524
164
-48
67
66
-112
-30
299
367
140
344
-19
-78
-27
336
139
363
298
267
269
-5
-66
-118
-101
-14
346
155
161
367
287
-32
-33
302
160
218
151
-24
39
-307
23
-45
376
145
294
-77
-100
-69
-97
55
-266
74
-9
326
-45
6
-345
-259
-85
289
301
-8
-81
108
68
89
-87
265
330
361
369
338
-10
126
69
-102
338
219
200
318
-63
-82
-25
278
288
297
320
316
-11
-94
-75
339
532
600
247
358
292
304
292
-28
-44
349
591
770
774
407
599
413
825
692
697
853
468
398
416
480
502
445
622
598
636
391
557
156
331
142
561
437
442
579
160
282
-53
-89
-106
-113
-109
-102
-113
99
38
6
44
-111
-15
-12
125
-322
-218
-239
-129
28
120
103
20
-323
-375
-131
-363
-308
29
112
-107
105
1
-331
-302
85
-21
328
377
205
633
850
1046
961
1401
1592
1459
1449
1586
1190
1341
986
1106
670
457
188
76
-386
-1121
-1258
-1519
-1917
-1711
-1675
-1812
-1656
-1254
-1357
-1125
-772
-133
103
90
-349
-244
-217
-316
71
112
-122
-42
315
323
-52
86
-124
335
515
520
147
349
188
577
587
232
200
580
473
435
177
-85
-127
308
527
387
424
453
462
392
537
253
616
481
455
544
146
160
543
389
415
453
836
732
767
880
397
246
512
391
790
846
805
475
446
492
854
729
1103
915
1149
1040
658
871
687
1043
1070
750
668
877
835
498
406
631
430
510
815
857
682
764
744
841
404
614
458
782
390
331
62
39
-9
247
384
387
616
621
602
251
136
130
517
628
540
262
11
-276
113
-60
-122
55
107
-34
-58
-276
-221
-157
-115
379
328
65
-144
-150
-301
-261
-312
-336
0
114
-126
14
-133
-196
-166
-374
-377
-170
-223
-517
-565
-634
-435
-422
-579
-171
-295
8
-303
-153
-195
-345
-116
354
139
-18
14
-374
-366
-293
6
-267
-299
-310
-310
-301
-263
66
-120
-89
-84
-59
-16
-38
79
-352
-141
10
-31
295
-94
-295
-139
-350
23
-121
-33
285
295
-16
-104
82
56
76
-118
-31
290
280
-58
123
-119
-11
368
179
165
342
-40
86
24
56
-120
-63
-47
-32
259
269
-35
-92
-66
309
157
130
-15
99
59
114
-74
-46
-35
-1
311
347
326
257
-74
-100
-64
-9
270
-14
-81
100
53
70
-90
318
192
227
157
291
-61
-100
-93
-53
270
324
302
-73
49
17
113
-16
279
-33
-82
-71
-54
-100
86
123
315
551
397
575
177
375
177
531
576
543
206
383
330
309
311
329
379
217
592
436
471
428
593
247
213
525
394
493
472
590
203
203
585
464
506
438
547
337
86
-371
-155
-278
-100
-22
-66
121
108
-122
-107
-103
-68
-16
-37
79
-359
-185
-370
18
90
85
81
-123
-63
-86
56
-322
-346
6
-117
-49
-77
110
89
-92
312
238
431
886
1073
936
951
911
899
948
1014
1296
1012
959
1139
748
797
570
132
-24
5
-638
-900
-1657
-1721
-1781
-1894
-1438
-1552
-1216
-1367
-913
-661
-440
-530
-366
74
-49
-51
90
-275
-284
50
-120
-95
110
5
-354
-370
13
-31
129
170
173
244
606
595
153
-53
-67
142
389
484
437
638
639
393
618
591
627
418
622
214
362
180
396
835
877
833
818
840
790
610
130
276
348
517
388
418
405
424
482
787
804
814
865
684
697
835
387
525
601
843
1083
913
1086
686
852
847
881
652
683
750
1087
1103
746
842
487
776
879
676
871
475
575
195
132
160
541
442
791
775
442
625
575
545
556
621
433
406
247
285
-123
109
-80
-3
286
-7
-110
25
-294
-259
87
-108
-106
-119
-111
-111
82
-269
-312
-258
106
-79
-85
110
26
-312
-361
-344
-261
83
91
-262
-132
-197
-172
-364
-313
-283
14
67
95
57
-297
-382
-382
-301
40
56
6
-303
-319
-312
-308
-278
84
-1
373
315
105
-341
-356
49
-42
260
-67
100
64
67
63
53
91
-56
319
346
-4
113
53
119
-18
318
328
311
301
279
-47
126
108
-67
305
357
315
-28
-104
106
97
-95
310
208
230
305
31
-362
6
-12
377
313
-84
-117
-17
328
299
-42
-32
358
213
157
-44
26
-289
5
45
62
87
-122
-105
101
33
42
-100
286
333
280
-58
-102
-114
122
100
-128
-22
376
217
225
175
137
151
193
215
181
363
301
273
261
-32
-81
-72
307
233
603
571
190
358
371
186
248
543
565
556
219
358
316
169
628
783
800
450
591
248
198
203
549
444
814
801
414
517
189
210
520
544
516
207
150
350
293
-14
-44
-34
258
272
-33
109
-281
-365
-341
59
274
200
240
372
-90
11
-280
17
47
29
-262
-281
-292
-314
-341
-331
-264
71
106
88
47
13
-269
-281
11
126
301
211
567
621
456
895
1133
1336
1176
1152
1310
919
764
849
408
206
-29
-286
-519
-450
-656
-973
-1634
-1689
-1720
-1491
-1231
-1398
-1184
-1398
-1130
-467
-380
46
80
66
41
-264
-326
-351
-296
87
-20
354
141
362
298
274
323
166
514
561
563
531
208
382
336
135
550
469
785
419
216
329
339
203
571
605
586
579
594
592
562
542
582
420
497
484
637
254
186
212
558
391
437
450
461
465
431
607
541
581
471
860
851
434
248
187
532
414
497
775
792
833
850
792
438
402
504
676
1024
691
501
616
639
782
654
675
883
867
662
687
840
388
525
606
808
647
495
215
318
153
612
460
402
551
253
245
169
287
-49
260
372
147
331
267
297
360
343
-13
-80
-30
318
318
-57
70
30
56
76
90
-98
265
284
124
-374
-231
-378
80
-75
125
12
-320
-363
-140
-139
-326
29
76
46
-266
-297
-300
-292
15
-115
269
281
-108
-291
-143
-153
-142
-150
-135
-319
23
52
13
-284
-273
41
109
-85
-34
-22
-78
90
58
-119
285
382
352
-26
113
66
75
86
90
126
-20
368
155
321
-75
127
-44
360
178
129
281
-47
-60
-41
-23
-5
293
352
383
323
-85
18
-262
-117
352
199
363
-100
-259
-267
104
-20
309
316
290
266
-8
-34
-76
-121
117
-101
-16
327
356
302
-52
-116
-82
307
187
212
353
-81
52
35
95
-81
-10
307
343
320
-26
125
74
120
-19
348
369
278
-120
51
87
-62
273
269
-30
-47
-38
-63
108
27
65
-16
176
225
337
127
23
85
-36
288
261
-37
-26
268
256
-62
-71
316
540
445
433
546
158
138
216
573
393
428
419
617
526
201
215
581
491
882
652
805
385
533
561
428
781
769
422
600
600
387
407
633
575
536
529
535
243
376
-64
46
33
-110
273
299
-27
-107
111
96
79
90
-102
-35
-48
107
14
7
49
51
12
26
-123
-17
-55
17
-147
-142
18
-68
260
-8
-35
-58
-106
74
37
112
312
567
775
875
893
661
1029
959
1364
1362
948
740
847
772
455
612
216
295
49
-566
-766
-1219
-1806
-1704
-1701
-1861
-1458
-1539
-1344
-1121
-866
-596
-338
-128
-10
-15
118
-305
-368
29
317
568
619
229
323
-3
259
268
267
316
188
573
595
242
136
132
229
572
560
210
134
149
226
527
236
174
191
590
776
872
814
415
566
563
385
471
781
799
784
475
392
577
575
400
771
842
838
798
770
503
480
455
487
848
675
875
427
515
513
405
813
873
877
887
890
838
506
775
670
1099
1125
726
823
796
862
860
478
617
397
797
839
402
137
306
226
490
854
492
579
231
203
153
327
305
148
561
398
628
523
161
380
178
551
384
611
198
260
-116
121
-90
-20
324
137
371
-23
71
24
-125
289
354
280
-118
17
-302
-315
-303
-292
-284
-259
61
-106
-62
-115
27
-294
14
-128
-90
64
-355
-175
-352
68
-64
-21
-1
306
356
306
-124
-329
-172
-377
2
103
-113
-122
98
60
55
108
-60
-6
-38
110
-283
-382
-138
-280
-50
190
547
192
-12
102
105
-64
-2
-1
-26
-43
-58
-81
-78
-3
140
537
571
190
-30
66
65
-101
-94
16
-132
-304
282
583
565
265
16
82
376
574
229
-45
-276
-359
-325
43
-16
212
584
237
295
-69
-3
370
134
329
310
375
160
334
-62
-111
-21
352
362
264
-94
-119
-74
-1
336
154
179
128
305
263
-7
-76
47
-295
46
256
146
361
-40
-98
-3
133
173
376
335
364
152
374
266
-84
-74
301
178
206
347
-98
15
3
113
271
150
233
513
210
357
-4
-10
361
242
246
326
77
-332
-322
42
-113
-62
-27
273
306
297
272
276
322
381
149
130
351
303
-18
-96
115
-105
263
367
380
309
-18
-13
323
172
531
636
465
462
588
139
278
330
250
417
475
434
624
593
605
639
424
467
511
791
769
446
386
397
488
842
873
840
799
506
423
542
187
238
411
794
503
635
580
630
396
532
340
-11
291
334
-35
-260
-143
-320
-107
307
323
270
-10
-1
-24
-106
69
54
90
101
25
-136
-557
-606
-212
70
326
136
-1
66
10
117
-6
276
-61
118
-125
-45
271
303
131
621
731
1349
1568
1617
1579
1538
1242
1180
1382
1398
1204
1158
1117
612
-127
-148
-516
-421
-1037
-1241
-1825
-1893
-1521
-1631
-1260
-1357
-1086
-495
-236
-135
-138
-381
-276
-115
262
294
260
-49
-95
114
68
63
-120
261
365
146
138
151
207
512
250
198
160
164
177
151
353
344
184
610
489
771
438
584
254
222
210
221
547
410
772
777
420
577
600
502
681
747
663
497
630
528
439
777
810
812
828
847
805
420
549
542
404
788
815
507
477
499
496
433
402
503
684
761
651
482
450
822
658
866
768
790
677
759
655
465
419
858
1119
992
915
714
507
613
525
243
519
547
550
536
536
556
563
531
234
238
536
538
180
263
-103
-57
367
516
538
199
347
-8
-120
17
-290
51
-28
364
134
361
342
324
-9
122
52
89
-121
44
-179
-607
-562
-344
109
-99
111
100
-113
-119
4
-168
-212
-325
-115
-22
-114
-281
-364
-299
99
-50
-20
-44
-84
-119
116
112
125
-101
-63
-42
-71
74
-344
-196
-166
-277
-128
-63
-71
-88
-98
121
42
-265
45
-64
312
304
-70
63
42
-123
258
331
330
283
-29
-105
64
26
-122
142
422
775
615
340
-99
-120
-72
-71
115
30
-278
-295
-282
31
-118
261
347
370
336
260
-94
66
0
-267
50
-95
259
290
-13
-81
-90
-26
311
353
352
332
300
-24
-116
93
-125
-36
275
-3
-70
123
90
94
-115
-35
291
305
281
280
305
284
-77
68
85
-21
337
-33
-314
-527
-238
-291
-127
-107
111
-112
-21
262
-73
92
120
269
144
135
-9
85
15
47
111
-111
-88
-27
318
334
-46
33
-274
-121
345
381
-58
-262
-280
127
-15
-52
-120
-62
366
220
135
-53
106
-80
313
378
344
274
-32
-60
-79
-78
-26
334
188
237
183
305
-57
-30
146
613
456
409
563
513
525
535
249
223
518
610
421
390
539
199
245
454
725
1139
1075
857
415
634
440
466
411
612
390
491
803
496
386
569
582
400
467
459
607
182
286
-38
-12
326
156
198
156
263
48
-373
-142
-300
59
70
-261
-339
-355
-294
76
-46
317
333
-24
74
-301
-336
-342
-381
-175
-164
-320
53
79
-264
-370
-134
-294
112
-20
311
372
202
594
789
1060
1397
1471
1668
1900
1466
1574
1602
1501
1829
1655
1308
752
874
778
245
-264
-808
-1152
-998
-1018
-1373
-1541
-1646
-1597
-1403
-1129
-828
-558
-145
-154
-523
-590
-255
-333
79
-110
-100
-90
-88
-123
96
-124
270
176
246
188
329
-9
-18
282
346
150
184
170
363
288
-2
302
166
565
406
415
600
239
160
149
193
522
598
389
395
613
553
529
574
426
803
861
825
471
627
572
563
567
580
629
474
830
838
474
612
625
788
715
762
657
773
459
473
490
506
827
684
753
694
801
457
510
885
700
680
642
641
647
867
796
479
472
505
790
796
775
472
406
603
579
594
623
632
601
512
369
-39
-121
-94
267
346
320
-53
78
18
29
79
-115
-49
257
-12
-106
15
-333
-322
21
102
-127
110
79
55
39
45
88
-101
-59
-93
52
-353
-243
-597
-600
-237
-336
12
-277
-129
-192
-148
-298
45
75
52
-266
-353
-176
-198
-156
-354
-316
-271
58
114
67
-329
-163
-331
-124
276
266
-47
-13
322
291
116
-289
18
-56
261
72
-228
-389
-565
-352
86
-79
-53
-48
-53
-70
-96
-127
111
-117
-40
292
295
-50
99
61
124
-5
373
175
136
269
-119
84
-122
-20
315
342
341
306
-55
49
-302
6
-79
319
301
-116
-277
-303
60
-72
-39
-117
24
-292
-280
9
0
-304
-304
76
297
212
186
-27
11
-278
-110
335
363
-37
45
-286
-267
24
44
101
-41
316
309
-78
7
-358
-368
-313
8
48
52
25
-270
-298
-300
-260
74
-89
-42
-96
23
-360
-368
21
-58
308
330
325
332
310
-49
73
23
111
-2
333
329
324
379
183
154
306
-20
264
318
285
-109
4
-293
42
-74
312
376
351
-2
-99
-116
-50
291
338
352
377
148
382
308
281
138
606
508
507
637
249
185
180
213
558
444
810
784
398
595
485
750
906
1082
864
443
397
625
524
148
139
542
482
837
789
401
541
241
526
588
630
606
514
135
281
-60
-121
88
42
-261
-309
-357
-158
-225
-523
-214
-273
261
191
131
117
-158
-254
-181
-348
-352
-149
-140
-318
-275
-324
-141
-370
23
-111
-127
-271
-173
-240
-208
-371
19
-50
191
434
868
717
1077
1022
1575
1839
1664
1826
1477
1802
1725
1785
1852
1568
1178
1212
1400
720
266
-401
-1053
-979
-1395
-1600
-1509
-1809
-1496
-1629
-1408
-1065
-427
-150
-290
-258
35
65
42
-260
22
-106
265
-15
84
-314
-316
67
-43
286
263
-76
87
39
57
102
-127
-101
-16
147
563
612
547
236
539
387
426
605
224
144
372
354
327
345
191
589
439
465
424
621
586
586
628
445
770
789
465
582
208
226
419
683
1091
766
799
588
242
522
592
410
472
505
496
476
768
878
742
1059
1067
1075
1086
1037
650
771
486
828
658
659
889
675
754
729
797
590
562
473
888
844
625
171
382
184
215
189
171
204
224
152
275
-31
327
229
522
383
-62
107
114
68
-361
-546
-554
-370
79
103
-278
-138
-136
-304
52
-125
-69
-74
70
-365
-217
-168
-278
77
49
-321
-180
-248
-533
-532
-227
-371
26
-117
-92
86
-322
-222
-543
-200
-262
-114
104
-371
-595
-630
-199
21
99
19
-342
-359
-297
11
18
25
81
-96
-59
-93
93
29
-268
-280
10
98
-47
264
-48
67
-303
-291
106
282
376
348
-1
-79
-112
-123
120
114
-113
-55
-15
-45
107
3
1
-120
330
182
362
-109
-295
-308
100
275
344
303
256
274
300
-28
69
-297
17
-69
289
-37
77
51
-70
325
305
-97
66
121
-45
-99
-292
-166
-327
-72
371
351
-49
106
107
-121
118
80
94
-92
-30
-39
-100
32
56
48
71
-128
-66
-58
119
-261
-334
-296
76
-70
-22
-32
-72
-126
70
30
57
-91
294
341
258
104
-260
-261
57
110
127
-115
-77
-49
-74
116
88
-119
-19
311
311
258
-66
-116
121
-94
280
186
558
555
189
313
-15
-15
266
274
263
-9
-32
-71
-99
-52
365
588
485
469
574
165
358
351
324
271
276
382
530
613
611
608
422
799
888
651
870
795
427
551
205
214
567
425
487
492
472
441
391
581
530
525
544
253
374
-80
26
5
87
-85
-70
-110
113
95
42
-315
-381
-316
111
-11
-31
81
-315
-370
-356
-326
-276
55
108
70
-313
-165
-156
-323
-269
-297
-335
-311
-271
-317
-176
-210
-297
275
553
421
449
772
690
940
1210
1437
1810
1523
1411
1631
1490
1895
1887
1433
1222
1164
1186
1022
509
53
-793
-1081
-915
-1289
-1262
-1480
-1524
-1626
-1377
-1124
-865
-584
-350
-274
-374
-239
-204
-270
-113
118
-268
-298
102
-4
-56
-284
-167
5
137
421
388
134
-63
-39
131
526
553
521
247
240
200
137
376
188
561
639
386
597
550
525
526
575
428
820
649
891
802
454
408
407
435
506
871
697
668
793
430
465
873
731
708
869
835
891
689
661
854
863
716
1099
1151
1098
734
640
880
713
1111
939
1145
746
887
875
661
679
667
690
767
1087
1052
678
839
843
663
733
753
732
681
844
469
394
423
785
852
791
633
229
150
365
317
281
316
165
253
245
149
308
281
320
128
181
183
351
-78
11
-288
76
-19
312
-1
-121
38
-271
-312
-353
-371
-357
-340
-329
-308
1
59
65
31
47
-84
324
346
-92
-354
-244
-196
-290
98
-114
-115
-116
-126
86
27
10
70
-81
-17
-65
57
-301
-269
-118
284
324
280
-7
263
-4
-83
98
-125
264
363
330
-43
-121
-124
-117
121
-124
-26
371
189
161
360
346
373
140
156
198
243
210
328
-71
-88
293
181
216
146
321
291
282
-9
-52
-37
318
185
237
173
293
-79
-104
-37
330
170
213
204
152
325
-26
-88
-75
-3
311
283
-89
42
7
98
269
172
244
209
368
281
-9
-5
257
276
348
209
533
201
270
-117
-68
362
226
175
275
-91
-93
-63
-83
-123
-90
289
140
368
-32
106
-124
277
154
173
352
266
-36
-54
-72
-75
-22
350
215
528
241
163
363
361
139
182
220
519
570
594
569
526
524
595
451
780
503
402
542
224
514
633
773
861
879
873
878
870
818
496
507
877
738
711
783
596
568
449
877
709
716
708
703
658
804
408
569
554
573
552
195
290
-120
65
102
-56
275
268
-74
82
17
-266
-285
-284
39
-74
322
341
-54
9
-334
-258
-108
-23
-53
123
84
109
-100
-72
-63
-46
-3
294
277
-69
96
120
317
617
640
1090
997
1202
1413
1533
1524
1492
1833
1765
2122
1696
1277
1088
830
496
399
344
-206
-1079
-1548
-1512
-1803
-1528
-1519
-1476
-1572
-1287
-715
-483
-604
-227
-315
117
-44
-49
-86
-96
-92
-112
122
-91
298
197
538
540
255
245
250
526
592
448
777
450
234
278
-29
359
553
436
496
508
478
397
558
542
396
815
884
797
628
520
541
390
495
813
836
824
775
441
632
632
437
780
867
691
747
741
664
845
861
715
1075
1081
753
710
728
742
699
655
705
1107
950
1133
664
474
447
831
742
1092
1083
755
693
688
723
732
682
869
846
883
669
658
848
771
465
472
798
886
643
504
522
356
383
547
414
390
546
245
530
546
228
129
347
133
175
145
311
-30
-67
-69
-55
-27
267
271
-76
-257
-164
-194
-336
76
-92
-100
91
-258
-361
-173
-383
46
-36
-29
47
-159
-219
-134
-317
-357
-185
-185
-346
-281
-334
-192
-248
-193
-334
41
-115
-68
-126
-293
-194
-184
12
-33
281
-42
-80
-31
-5
-107
-260
-276
-110
308
-2
4
-214
-202
12
-13
344
304
-47
-125
92
80
85
116
-74
276
349
348
265
-88
-116
-58
284
307
-18
124
46
52
125
-50
-3
282
323
365
344
-23
105
83
-71
301
328
300
336
182
196
278
46
11
-24
204
149
79
-213
-209
30
-8
298
259
262
291
-10
114
6
19
125
-48
-34
-42
-29
-9
-12
-28
-10
313
368
336
-63
-269
-166
-181
-306
-122
-9
-14
-80
-108
-64
262
304
329
371
165
160
316
-83
87
114
-45
275
-1
-69
-126
105
82
36
0
30
121
-57
-70
107
59
98
-70
-4
274
298
338
341
-3
121
73
-75
141
594
426
405
597
558
579
388
444
457
448
482
825
875
805
412
616
468
874
868
415
200
151
516
621
627
606
396
469
447
555
136
324
346
364
321
-1
-54
-117
47
-295
-302
40
-109
-75
113
-272
-376
-132
-290
121
-20
-21
-112
49
-258
-277
-295
-298
19
-112
-15
-36
87
-310
-357
-305
18
30
0
-268
31
117
-31
372
593
880
916
1399
1546
1610
1585
1234
1162
1239
1466
1669
1881
1563
919
681
834
399
-11
-581
-1104
-1206
-1438
-1858
-1671
-1835
-1593
-1310
-1078
-649
-505
-390
-581
-534
-191
-315
47
65
36
51
-128
-71
-80
-85
264
181
540
195
-19
95
-114
314
193
192
349
-14
-76
-86
-28
383
617
815
841
421
216
163
556
483
809
506
450
464
501
467
631
583
638
493
814
792
467
414
410
467
833
685
724
667
811
451
391
635
423
790
672
757
736
643
823
807
824
834
828
824
816
776
462
440
489
834
655
699
736
1030
1026
681
793
433
454
828
659
865
425
224
144
223
627
455
412
557
221
201
186
371
269
-26
309
197
531
209
293
-110
-123
-8
381
148
284
101
-277
-285
35
97
-124
-79
-4
306
260
100
-337
-161
-363
0
42
-293
-183
-551
-560
-220
-371
-315
-329
-372
-136
-133
-150
-201
-222
-137
42
-70
-91
-272
-193
-222
-365
7
17
-317
-379
-369
-331
-328
-361
-374
-330
13
95
-121
98
-276
-162
-234
-157
35
-53
-28
108
-302
-369
-314
70
-63
-5
-30
-105
75
38
42
69
113
-70
264
281
-56
77
25
88
-65
-33
-98
66
30
50
70
52
31
58
-120
-39
-25
-101
45
-261
64
-36
357
133
335
270
-23
-64
106
21
34
-96
280
-1
85
-321
-293
-108
330
362
-12
91
-259
-289
-297
-303
-285
43
-100
-3
279
-30
-105
114
-115
-48
264
279
-14
-89
82
21
15
67
-108
-37
-6
-40
127
30
5
89
-28
317
292
-64
112
101
122
-123
-105
-42
305
336
-26
33
-376
-132
-288
78
-122
-113
-124
102
55
49
-114
304
159
131
262
-86
-74
-19
-20
-82
-123
-90
-33
-40
118
16
22
-94
359
237
240
137
284
-4
301
373
169
220
564
414
456
395
560
551
387
491
500
415
594
587
620
638
386
433
792
887
884
508
595
209
172
245
403
819
879
797
395
572
613
419
629
206
295
-25
-32
-111
-288
-169
-373
112
333
376
-21
51
-288
30
-75
313
325
-64
-282
-200
-252
-218
-190
-202
-205
-143
-296
34
48
42
63
103
-126
119
83
30
-310
-152
-186
-310
267
410
728
904
1006
1394
1565
1438
1478
1500
1854
1741
1764
1815
1223
994
973
999
1047
227
-527
-912
-1266
-1655
-1485
-1849
-1900
-1518
-1213
-1132
-654
-805
-432
-219
6
83
-291
-203
-245
-146
-295
-278
-299
13
-105
258
-15
-121
62
94
-58
303
355
344
282
-46
-72
-29
307
377
171
217
514
253
165
300
257
357
540
411
398
540
181
176
527
406
506
783
469
616
246
175
177
238
575
631
384
618
606
385
460
785
817
824
849
892
892
790
618
239
522
420
828
877
827
494
436
410
430
774
653
743
701
800
394
619
444
790
790
440
575
244
243
551
611
625
587
553
570
608
565
130
-105
17
62
-41
341
373
335
269
-55
-104
-87
278
166
232
141
-77
-299
-135
-315
100
-65
-126
-277
-384
-381
-322
-277
24
124
-19
-17
65
-162
-518
-209
-159
-232
-610
-608
-196
-310
-342
-250
-594
-219
14
-118
25
-233
-428
-432
-554
-187
-186
-231
-193
-297
94
67
-354
-224
-158
37
-104
64
-142
-532
-513
-170
-132
-144
-378
-292
30
-266
-373
-173
-373
5
112
-84
-62
-110
-257
-188
-527
-157
63
-75
92
-360
-223
-188
-332
16
79
-108
-40
-30
-96
75
40
59
89
99
96
85
36
-305
-339
23
-27
358
295
121
32
99
-72
114
-328
-148
18
292
145
-21
-296
-175
-348
75
-101
100
0
-300
-260
70
120
124
109
118
-100
-79
121
-267
-384
-384
16
-48
324
319
-15
-83
-104
-106
-118
-112
-41
333
140
296
64
-365
-293
258
527
523
-15
-331
-180
-310
125
-54
-84
124
99
75
25
-271
-259
37
57
45
43
66
83
71
55
81
-121
-87
-100
-122
-123
-124
83
-264
-293
93
341
555
593
187
-28
93
80
-128
-102
-121
90
40
-270
-292
36
-34
183
565
569
537
542
551
228
364
316
146
242
158
-128
-147
-187
2
-49
257
-63
-86
258
128
182
158
147
210
555
584
522
167
363
368
150
200
519
590
631
597
514
220
545
436
815
847
818
793
798
808
796
769
500
768
786
784
485
393
534
210
515
417
814
800
605
359
-22
278
380
154
355
292
258
-48
100
-258
22
-72
350
365
-32
67
15
49
72
52
51
110
-78
-94
45
-351
-164
-374
13
-100
-28
-71
69
-267
4
79
-114
-67
270
381
163
306
-118
124
364
490
1062
976
1343
1231
1642
1486
1811
1708
1974
2196
2424
2130
1534
1614
1567
1405
691
282
-587
-725
-958
-1188
-1441
-1850
-1531
-1542
-991
-725
-492
-540
-142
-346
-331
-265
102
-100
76
-339
-186
-162
-307
67
-115
-94
-128
62
13
34
109
-68
-3
337
179
213
375
-29
-74
295
188
223
157
374
149
147
299
-56
288
552
499
439
173
-45
-32
147
560
591
556
560
618
399
606
516
255
405
873
701
809
541
129
200
633
467
412
598
396
799
894
870
821
868
752
1125
1121
748
848
479
449
507
882
719
722
656
860
857
859
802
450
400
427
454
396
522
155
375
140
189
524
622
402
562
128
280
344
240
566
227
346
275
265
-21
-100
113
-69
336
172
368
-55
57
28
102
-60
-25
-88
37
-352
-172
-180
-171
-166
-379
8
-82
-24
104
-357
-179
-319
109
-110
19
-133
-200
-220
-538
-620
-608
-214
-322
-293
-373
-182
-153
-331
-276
12
68
-127
111
-267
-132
-135
-290
52
47
8
19
61
42
-307
-365
-268
-49
377
365
-57
19
-315
-291
19
57
74
83
83
59
13
-274
19
-115
298
130
346
-47
68
8
50
-110
-32
-11
-31
-42
-26
-24
-90
62
39
-91
343
135
-9
56
15
-113
298
345
296
-2
-12
-48
113
6
-284
35
-112
-13
303
303
-19
-115
77
92
-109
-96
99
8
-314
-334
-310
41
-31
180
537
185
-51
-265
-343
-312
-272
-287
-326
-345
-331
-283
56
-83
289
344
311
-31
-114
84
33
-271
-290
8
109
-16
350
133
334
-47
104
108
-37
335
338
-55
7
-369
-334
98
315
169
358
-78
50
82
-38
307
283
-12
307
185
238
147
291
316
218
606
586
223
167
200
225
164
329
325
177
547
563
240
186
218
568
407
478
796
838
817
455
579
516
551
617
631
602
603
402
443
400
567
553
410
788
497
527
-18
40
-277
5
58
120
-95
124
-269
-152
-160
-281
124
-113
38
-313
-310
-260
-262
-316
-311
78
258
343
268
108
-267
-295
-270
8
5
-271
-307
-369
-186
-218
-152
44
331
600
499
801
833
688
1133
1310
1387
1365
1323
1319
1335
1326
1018
933
1069
646
416
380
22
-405
-1135
-1557
-1527
-1505
-1597
-1207
-1189
-1202
-1353
-1101
-814
-604
-226
-383
-289
1
-301
-352
-301
-123
336
170
361
-46
80
32
61
-123
-44
276
326
368
148
166
163
158
194
542
392
424
587
164
288
272
361
211
523
527
245
195
381
326
347
211
634
503
781
451
592
512
526
638
509
791
429
545
248
589
450
772
810
881
707
697
804
620
551
632
490
779
504
780
857
643
832
469
460
823
646
824
385
515
536
629
437
477
812
661
691
855
488
484
825
872
814
465
434
439
624
204
318
311
157
253
517
208
153
377
361
359
372
128
369
331
294
-3
-68
102
62
126
-10
304
-32
53
-353
-152
-367
-267
120
-18
264
-96
5
-327
-268
109
-90
118
25
-304
-364
-172
-207
-155
-280
85
75
-304
-180
-217
-148
-306
4
1
-262
24
71
69
-263
-358
-131
-319
52
127
120
49
-294
-338
-295
81
-45
266
-27
-82
-92
-73
-100
82
59
-106
273
265
81
-134
-180
-272
-42
349
363
339
339
334
280
-57
-91
-41
290
297
-56
64
4
69
-49
328
379
366
333
301
266
-24
-39
-14
292
328
323
276
-59
105
34
35
-126
263
332
277
-111
54
84
-64
293
348
132
180
188
346
-87
53
123
334
234
170
-82
-312
-341
76
270
360
326
-15
-88
112
68
51
76
-111
-27
274
-7
-89
83
61
117
-52
267
286
278
-2
-56
-120
119
-77
267
289
-35
-124
112
-92
-37
-21
-8
315
177
533
553
230
379
293
276
329
142
161
382
356
138
217
517
514
553
443
881
671
507
525
178
567
784
880
799
390
539
231
189
153
169
234
527
204
324
-26
-12
312
354
352
345
344
302
-73
24
-350
-374
-307
69
-75
-38
-124
-284
-378
-301
-93
347
129
295
-72
127
127
-107
-81
-65
-72
-99
-126
108
75
31
44
-57
233
780
674
677
668
763
929
1299
1303
1003
990
986
1133
866
532
281
-100
43
-223
-688
-1239
-1681
-2139
-2099
-1918
-1453
-1276
-1380
-955
-737
-477
-212
11
-108
-75
122
31
-284
-279
23
81
-95
288
183
528
235
373
304
354
203
245
202
167
227
583
613
555
524
625
801
886
790
592
180
128
138
161
205
548
401
461
438
626
586
625
485
864
643
810
396
541
562
428
806
865
867
851
819
509
461
472
825
702
1048
1045
720
643
843
803
779
793
851
649
894
822
508
791
889
730
1032
1032
740
640
460
542
244
624
798
876
850
838
650
720
666
500
634
409
774
783
621
143
295
354
223
562
570
528
201
360
259
-51
-25
319
151
185
149
307
-81
68
36
91
-67
257
-7
-81
68
-273
-291
19
113
-76
-89
67
-341
-217
-251
-150
36
-86
-108
21
-308
20
-113
-106
26
-324
-268
110
109
-322
-248
-521
-137
-278
-258
4
79
-92
-108
39
-285
38
-88
-31
-71
-120
-126
116
32
-320
-306
89
-41
-74
-257
-170
-182
-290
-103
262
264
-48
-97
-116
-122
118
112
-101
-15
305
274
-100
53
66
-78
287
319
290
-7
-57
-128
61
66
-93
272
291
-51
111
95
-116
-82
-98
-123
-98
-34
269
-22
104
-317
-160
-365
76
259
278
106
-341
-343
-128
369
170
277
99
53
114
-123
29
-362
-365
72
313
167
322
115
-264
43
-64
298
276
-79
101
93
126
-103
-95
-76
-19
316
378
379
301
-83
72
80
-38
148
234
130
-89
14
45
-52
313
260
111
2
-266
8
-274
-310
2
-84
365
214
205
142
347
339
133
244
614
639
517
318
-55
-7
139
520
567
569
567
548
237
189
221
609
769
848
796
398
516
187
193
240
538
550
539
248
167
296
-79
-106
-23
323
301
-77
88
116
-72
-92
49
-286
32
-100
-87
15
-176
-236
-131
44
-64
286
317
266
-113
28
11
92
-83
-82
112
56
33
8
-279
1
115
-3
289
-64
84
125
360
428
716
933
1369
1266
1589
1251
1316
1142
1090
1139
915
1078
847
577
376
-2
119
-134
-505
-1146
-1190
-1657
-1836
-1715
-1698
-1452
-1306
-683
-494
-446
-411
-560
-150
-270
76
119
-126
121
-126
-78
-24
-14
-50
-66
-11
338
378
323
-30
-58
290
200
585
588
211
317
-18
-5
301
349
160
524
632
402
591
516
524
613
452
499
502
466
633
512
184
227
617
481
771
489
460
433
396
393
494
689
1092
1057
862
414
623
446
790
817
813
830
863
863
826
803
830
641
690
688
644
846
816
828
872
675
741
1069
1117
1084
685
497
388
413
501
795
506
477
481
443
561
157
172
626
802
480
193
-62
-78
355
518
540
212
152
374
308
-58
114
-125
-34
285
260
-70
-124
114
92
22
-296
-261
126
-29
-76
-268
-203
-244
-376
54
-128
38
-159
-578
-590
-205
-317
-280
-347
-154
-138
-358
-146
-256
-568
-211
-266
-118
-122
31
-306
-307
-271
-264
-285
-284
28
104
-119
118
91
111
-72
-1
270
-34
-123
19
-371
-233
-528
-186
3
-57
298
259
-110
83
-97
332
197
149
-35
61
40
109
-110
118
121
-34
352
379
282
-77
-82
-10
297
307
320
350
334
-28
108
101
-38
321
288
-83
120
-94
-73
89
-297
-297
113
266
-9
79
-309
-279
99
-99
113
78
-107
260
-7
52
-168
-179
69
370
210
303
54
-323
-276
84
-113
-102
-88
-61
-56
-92
114
83
89
127
-71
-28
-52
100
-277
-306
64
259
165
209
130
-13
116
72
122
-54
-21
-75
89
37
49
86
105
119
-87
274
382
165
358
-16
-112
124
-87
-34
-33
-101
66
26
69
-101
-35
-5
285
349
152
153
356
329
141
527
620
614
555
252
221
157
309
260
355
562
479
486
590
151
331
148
560
439
467
633
221
352
338
183
582
409
627
239
355
277
271
294
308
314
326
324
283
-54
117
59
31
16
18
54
96
82
-272
-132
-159
-327
48
98
75
41
8
-325
-197
-529
-179
42
-70
90
-178
-616
-540
-289
-98
-100
57
37
-115
262
322
380
542
818
1106
1333
1267
1446
1793
1436
1203
1342
1247
1519
1534
1376
790
211
541
444
523
-319
-745
-1193
-1621
-1450
-1825
-1897
-1801
-1554
-1022
-1045
-813
-558
-350
-277
-317
-351
-308
18
17
-326
-161
-163
-312
113
281
135
136
284
-121
57
97
-43
308
343
346
353
338
277
-37
275
231
457
489
543
301
-5
149
556
538
171
165
568
445
401
238
159
520
443
771
443
600
563
577
577
552
560
384
509
853
841
479
626
615
475
894
722
670
781
397
631
470
892
1050
1122
1087
747
660
836
500
458
783
684
1044
718
791
436
782
686
739
674
894
700
725
822
542
380
221
460
846
497
536
362
314
357
171
210
181
354
276
262
289
273
-95
35
27
-103
273
-29
26
-147
-383
47
-62
-58
121
112
-55
257
-96
-307
-203
-168
2
119
61
-132
-564
-592
-209
-289
66
30
-361
-238
-552
-524
-201
-148
-380
-363
-344
-346
-147
-247
-581
-570
-219
-379
-351
-130
-159
-383
-296
53
-123
-54
-9
-26
-122
8
-315
-291
44
-120
-45
261
258
-85
44
-273
57
-39
333
324
-26
-109
-122
-75
-20
266
268
-11
-55
-110
99
77
86
120
-80
-14
300
304
-48
34
-378
-149
-277
-100
-15
-64
94
60
98
-120
122
98
125
-64
-33
-86
80
46
117
256
379
166
366
-27
57
-328
-365
-317
19
88
-125
127
54
-312
-353
45
335
572
566
347
122
58
110
114
8
-374
-162
-130
-366
-383
-366
-259
-103
267
302
293
274
-35
103
-298
-375
-311
102
-25
-2
-75
99
92
-80
296
378
135
346
263
-105
36
-276
43
-51
348
363
265
-90
-113
-105
116
53
47
119
-92
83
-327
-378
21
-4
138
130
325
301
292
-34
88
3
59
-38
339
335
-2
-29
323
216
554
531
231
523
609
600
177
-27
-62
378
602
402
554
241
386
895
767
678
508
443
491
499
613
140
278
343
524
435
496
442
575
195
383
130
176
213
206
132
260
114
14
-258
58
126
-120
81
0
-330
-381
-134
-332
40
-106
-86
69
-339
-176
-151
-311
26
55
62
84
104
60
-315
-176
-200
-362
43
-104
-98
67
-301
-319
80
334
547
622
624
461
706
999
1204
1568
1415
1816
1679
1688
1862
1509
1434
1606
1225
1309
1079
490
296
-216
-683
-1284
-1218
-1259
-1192
-1350
-1306
-1331
-1323
-913
-882
-594
-184
-191
-531
-601
-612
-556
-182
-277
-112
265
316
303
-27
115
9
-286
40
-81
264
-37
85
13
123
359
543
558
215
180
238
529
180
278
-24
371
567
388
551
155
369
187
544
597
597
576
564
554
538
537
573
394
467
481
427
615
598
636
437
487
808
649
737
737
875
450
587
563
613
441
783
854
887
879
870
660
757
1088
1063
677
772
389
564
251
251
635
878
1087
1085
864
624
574
440
789
452
532
191
244
549
222
361
360
246
618
566
146
289
289
302
-15
-89
-62
305
333
-87
-338
-195
-340
125
256
260
-59
106
-283
-174
-242
-179
-331
-326
-171
-520
-527
-513
-568
-390
-605
-165
-261
-283
-179
-251
-137
41
92
-268
-132
-143
-337
-346
-238
-430
-508
-386
-143
51
83
-283
-161
-210
-163
-336
-263
50
90
103
88
65
62
69
60
40
39
54
27
-324
-161
-147
-259
-84
-1
-31
-103
84
16
-296
-269
-124
307
366
262
119
98
-43
332
346
281
-28
-44
-83
78
-266
-276
46
121
-108
-121
115
86
54
51
108
-47
273
-12
-105
54
-274
-339
-143
-148
-317
69
-111
123
59
51
123
-36
280
288
262
-47
124
23
-296
-285
53
-96
-12
262
-46
118
46
22
38
72
125
-54
-8
-76
-258
-169
-163
23
-33
262
-117
-270
-357
-373
-352
-292
67
-93
-81
104
39
50
111
-109
-113
-99
-24
318
323
-44
66
26
-106
343
183
363
-67
54
15
26
44
96
-53
297
265
108
-283
1
-101
264
-34
97
13
0
-262
-289
-283
68
-41
318
333
309
311
324
281
-85
76
86
-86
-47
117
-317
-176
-372
77
267
348
311
-46
112
63
99
-40
356
171
383
272
-66
-89
-97
121
88
-127
-10
341
322
-38
-90
269
230
419
467
388
525
180
146
170
518
406
797
852
821
495
426
616
535
200
176
221
527
516
198
171
239
614
451
488
495
471
630
198
282
-40
-7
265
-78
31
-337
-131
-172
-213
-178
-272
-72
265
-86
-262
-367
-349
-273
24
-259
-326
-373
-371
-336
-308
-312
-314
2
119
-38
-46
107
11
7
89
-70
-2
297
326
343
350
155
620
741
1190
1528
1884
1524
1658
1438
1889
2078
2097
1690
1512
1645
1234
920
455
-28
-169
-779
-918
-1591
-1904
-1758
-1678
-1470
-1164
-1051
-453
-246
-180
-159
-375
-344
-378
-177
-159
-320
9
-273
-319
-263
-105
276
281
-19
-8
293
-4
93
-307
-282
-109
306
349
337
360
143
379
320
354
542
479
464
236
274
277
198
589
584
536
561
621
595
223
178
566
778
892
853
507
467
452
398
584
609
506
668
702
865
775
796
651
743
747
685
876
839
819
792
504
495
811
684
1078
1149
1106
715
819
473
481
818
888
870
501
616
543
566
630
426
464
772
811
508
631
255
518
389
507
496
620
200
311
-66
-128
-86
290
359
275
103
8
60
-111
122
32
39
-66
317
-19
-276
-224
-205
-280
119
114
21
-312
-349
-375
-138
-372
-309
6
19
-286
-374
-210
-255
-200
-308
106
-83
-121
61
10
-274
-314
-342
-305
49
-125
126
44
-298
-331
-308
-259
39
42
-267
-353
-146
-366
-262
100
-92
-67
-67
-94
106
47
31
63
115
-91
-47
-14
-14
-67
103
40
49
125
-41
-2
-41
-127
64
56
100
-90
-25
276
265
-89
9
-367
-337
111
353
238
212
333
-40
-50
289
371
364
264
-122
37
-275
-307
-328
-313
16
123
-49
-35
-83
109
71
77
117
-76
258
316
294
-101
-296
-145
-321
-114
288
-15
70
-299
-257
121
-53
-34
-21
260
-24
103
-322
-152
-364
-259
76
122
-69
282
351
345
293
282
353
193
223
163
319
-18
-71
-122
96
102
-103
-60
-85
84
6
-261
66
-64
323
133
330
-97
-266
-304
65
-36
297
287
264
-3
-28
-80
-104
-52
286
299
-59
50
-290
-270
66
-103
-37
265
299
312
281
-63
83
27
89
-24
337
319
-35
-98
-79
-35
-31
-47
-20
296
313
-17
126
68
102
-70
-1
277
-8
-78
87
21
18
81
-87
-27
-21
-54
-88
-99
-91
-84
-66
264
161
588
404
575
166
354
177
578
398
625
555
252
245
517
577
467
676
1098
1117
731
809
451
475
831
650
879
509
387
571
559
578
615
419
482
497
421
523
370
296
312
370
139
345
-33
73
-301
-352
-344
-314
-288
-270
14
42
36
-270
-323
-317
30
-119
-109
14
-184
-566
-556
-213
-131
-325
18
-116
-44
-101
3
-355
-306
86
-105
76
-312
-361
-268
-79
139
620
863
1107
1325
1239
1611
1414
1429
1468
1860
2061
2169
1776
1439
1384
1004
963
740
210
-219
-1045
-1379
-1553
-1424
-1504
-1477
-1587
-1388
-927
-705
-477
-584
-586
-424
-446
-558
-339
31
-292
-173
-219
-378
52
-47
306
328
261
-124
37
70
-35
376
172
382
319
287
268
-12
-6
340
250
392
420
580
174
319
303
379
237
562
535
175
340
338
169
530
592
624
406
442
428
612
551
575
429
795
836
809
510
481
467
483
811
681
1045
1047
672
510
412
410
444
454
439
443
485
777
503
448
429
498
875
703
700
883
780
429
630
387
465
790
773
416
572
540
558
574
598
430
806
832
431
208
344
130
202
152
-8
-123
-100
-26
-37
109
36
121
308
168
357
-77
57
71
-114
-110
62
-275
-268
37
12
-138
-563
-595
-183
43
-88
124
-277
-139
-165
-382
-340
-335
-371
-181
-527
-611
-389
-597
-233
-135
-337
-282
75
-85
-114
-305
-515
-554
-151
-275
-342
-576
-507
-500
-617
-229
-131
1
-79
278
-58
5
-363
-278
-89
269
-61
14
-134
-166
-356
-259
77
125
-110
-107
-128
90
57
66
-126
-52
-32
-92
72
15
23
65
100
122
-103
-42
284
308
-8
-120
50
58
-105
-14
-9
-80
106
96
120
-126
-128
-87
269
344
286
98
-342
-371
32
-24
338
300
-81
51
-277
-299
-276
49
-102
-13
-7
-100
40
16
124
289
137
378
280
-102
34
-308
-309
61
-15
365
340
-54
74
49
118
-61
-51
-123
17
-339
-130
-378
-345
-320
-311
-289
41
-98
-3
-7
-109
41
37
-115
-6
275
-35
-94
-109
-110
125
122
-54
344
161
329
-103
59
122
256
334
334
321
313
-8
99
-299
-309
61
-110
85
-309
-365
-277
103
-124
75
45
-127
284
137
380
264
124
45
83
-24
152
229
142
-44
89
-105
369
595
428
592
136
-61
85
89
-75
311
150
153
324
-33
-69
-6
381
239
529
225
150
378
159
226
537
567
593
625
403
414
394
619
604
627
451
838
699
724
890
507
463
792
653
717
693
881
806
470
392
596
585
600
607
580
517
140
-48
8
-340
8
-60
277
-111
-357
-250
-203
-298
82
107
78
54
43
37
39
50
57
65
95
-107
-82
118
12
-315
-313
-292
-320
-358
-326
20
51
-311
-208
-222
-285
-11
166
200
199
550
506
763
1004
1208
1619
1444
1438
1649
1649
1485
1873
1683
1883
1491
1586
1376
1037
547
7
-458
-1074
-1401
-1476
-1739
-2090
-1751
-1816
-1572
-1003
-890
-564
-141
-152
-249
-567
-540
-170
-266
122
-109
39
-374
-182
-344
92
-12
320
335
306
-8
-49
-5
128
522
576
547
254
230
182
376
381
238
621
615
215
329
305
357
375
362
172
603
491
445
221
268
-21
361
253
572
548
252
241
522
571
639
462
796
858
875
829
490
438
470
840
726
1074
1080
754
656
847
853
661
739
1041
1034
730
646
801
467
452
771
869
682
687
655
640
679
749
766
675
510
636
602
596
250
340
-7
363
625
826
819
399
241
157
342
-34
107
92
-86
-43
-127
0
-267
-91
146
250
155
-39
68
2
-293
-349
-382
-345
-270
19
-278
-331
-323
3
60
55
18
3
10
-268
-339
-140
-367
-264
74
62
-283
-369
-160
-210
-562
-407
-411
-535
-359
-271
-320
-175
-238
-212
-378
-263
92
-125
77
-302
-134
-340
103
319
182
157
292
-100
65
43
86
-89
-9
294
295
-7
-90
84
61
-126
257
338
299
-77
98
120
-66
-41
-70
-85
-43
-7
-63
67
-258
78
262
155
180
368
289
-19
-44
-35
263
306
312
277
-10
-5
265
-11
-49
-44
277
338
315
-48
100
59
77
110
-108
-38
311
350
265
91
-301
-301
45
96
38
-303
-305
25
72
46
39
-94
363
200
329
76
-346
-320
67
-99
-86
-96
-93
-112
75
9
27
-125
-17
269
-32
-94
-126
124
126
-110
-46
308
378
345
-63
18
-295
96
349
535
526
357
-78
113
-105
-65
-80
-107
-59
325
174
153
283
-57
273
206
583
255
314
-83
-71
269
300
277
313
204
593
553
350
-83
-82
329
240
577
566
252
186
149
175
516
591
601
567
560
610
409
429
437
476
795
821
768
388
244
140
382
220
638
786
854
825
467
586
202
139
153
178
373
-48
39
-291
-270
36
89
-73
306
361
279
121
30
75
-77
-9
262
-9
-61
74
-340
-161
-348
43
105
60
5
22
74
64
-264
-286
75
-21
303
-31
112
114
272
246
468
674
1137
1338
1235
1576
1614
1626
1630
1641
1650
1606
1157
1032
581
259
-109
98
-132
-878
-1192
-1830
-1911
-1818
-1495
-1525
-1800
-1654
-1306
-884
-578
-216
-234
-218
-333
-120
290
289
-97
13
-290
66
259
173
219
380
-24
-107
-84
-14
286
304
354
200
554
569
233
140
383
212
581
629
571
209
153
210
607
486
783
476
409
631
614
561
214
150
182
554
414
455
417
620
618
411
463
485
482
485
502
506
473
423
410
481
868
717
714
853
454
396
464
865
745
1076
1089
1055
728
643
864
668
1026
1063
723
827
463
456
784
887
745
1102
1140
1082
703
842
771
456
389
606
387
464
480
393
532
240
554
614
593
244
382
262
-106
86
122
-1
137
179
376
294
-6
-19
-31
-28
279
