-1206
-1572
-1802
-1799
-1187
-1035
-727
-1327
-1439
-1482
-1235
-1003
-1008
-1230
-1830
-1963
-2233
-2194
-2066
-1563
-981
-946
-1321
-1155
-1396
-1295
-921
-916
-1156
-1878
-2020
-2011
-1829
-1332
-914
-1393
-1438
-1483
-1252
-980
-921
-1363
-1606
-1477
-1504
-1851
-2107
-2380
-2398
-2067
-1618
-1374
-1154
-1266
-1212
-966
-693
-841
-703
-973
-1227
-1568
-1155
-1089
-782
-402
-508
-766
-1010
-1359
-1290
-985
-1158
-1529
-2119
-1932
-1744
-1501
-1571
-1402
-971
-914
-1327
-1265
-1173
-722
-256
-199
-849
-1312
-1214
-1318
-1152
-935
-1364
-1212
-1165
-1312
-945
-1029
-489
-197
-145
-455
-938
-1248
-1201
-968
-1112
-1001
-1278
-1466
-1469
-1601
-1201
-1376
-1405
-1276
-1475
-1666
-1726
-1830
-1268
-1286
-1353
-1466
-2074
-2052
-1662
-1284
-1300
-1420
-1753
-1742
-1469
-1215
-1378
-1338
-997
-928
-986
-1389
-1204
-1386
-1015
-1006
-1376
-1249
-1568
-1564
-1266
-1192
-1355
-1010
-931
-762
-424
0
323
196
251
419
671
1032
829
185
93
-141
-626
-678
-1004
-1544
-1864
-2025
-2640
-2681
-2388
-2060
-1739
-2123
-2110
-1803
-1384
-1101
-756
-764
-1077
-937
-1292
-971
-1040
-743
-1290
-1466
-1881
-1599
-903
-706
-1102
-1021
-926
-830
-216
-314
-156
-402
-645
-1072
-940
-1319
-1388
-1284
-720
-631
-198
-375
-77
811
1364
1021
518
-577
-642
-498
-456
-1112
-1474
-1923
-2410
-2613
-2506
-2624
-2040
-2386
-3340
-4668
-5205
-3992
-2356
-786
34
88
546
1437
2730
3663
3397
2386
1045
-239
-1350
-1273
-923
-814
-892
-1323
-1568
-985
-519
-16
82
-829
-1210
-1491
-1477
-1422
-1456
-1500
-1429
-1244
-1314
-983
-1020
-1333
-1354
-1347
-1345
-1357
-1369
-1382
-1178
-1553
-1436
-1500
-1433
-1538
-1165
-1162
-1263
-1617
-1651
-1633
-1595
-1278
-1204
-1200
-1622
-1898
-2059
-1912
-1276
-985
-1015
-1257
-1639
-1183
-1047
-803
-693
-1191
-2053
-2216
-2289
-2356
-2151
-2119
-1928
-2080
-1655
-1080
-447
-435
-889
-1028
-1065
-1142
-1365
-1636
-1507
-1410
-1156
-1120
-893
-770
-507
-813
-822
-500
-452
-795
-764
-991
-1366
-1398
-1163
-1173
-1363
-970
-1139
-944
-1337
-1370
-1005
-913
-992
-1193
-1563
-1214
-1015
-906
-925
-944
-1107
-692
-870
-684
-1064
-1132
-1145
-917
-986
-1013
-919
-1035
-762
-912
-1343
-1351
-898
-662
-830
-665
-1072
-910
-914
-1110
-752
-893
-858
-719
-942
-1375
-1358
-899
-667
-812
-831
-877
-826
-402
-220
-152
-255
-474
-663
-702
-847
-435
-591
-565
-562
-533
-225
-172
-142
-151
-212
-609
-822
-768
-1121
-1093
-767
-746
-1050
-1093
-1068
-746
-703
-702
-688
-886
-838
-860
-671
-678
-822
-426
-436
-882
-1075
-1067
-864
-430
-478
-695
-1096
-762
-816
-463
-813
-711
-1039
-1034
-1028
-1037
-754
-680
-646
-716
-1069
-1025
-792
-245
-293
71
-93
281
131
203
535
403
803
870
812
461
403
605
170
47
-452
-1144
-1177
-1419
-1771
-2231
-2842
-2871
-2580
-1953
-1748
-1739
-1744
-1867
-1631
-1196
-1177
-1276
-1632
-1412
-1652
-1635
-1625
-1580
-1220
-1346
-1010
-1021
-1334
-1364
-1333
-1010
-962
-940
-923
-915
-933
-951
-1146
-704
-484
-636
-436
-782
-498
-619
-557
-426
-889
-717
-863
-471
-496
-886
-658
-469
-221
-149
-534
-417
-404
-558
-556
-465
-671
-753
-697
-869
-837
-825
-500
-629
-249
-187
-183
-185
-163
-382
-384
-213
-611
-465
-479
-415
-603
-584
-580
-536
-214
-196
-254
-577
-561
-211
-384
-129
-207
-564
-398
-456
-454
-633
-542
-537
-405
-835
-661
-854
-467
-406
-479
-887
-760
-1053
-755
-688
-657
-677
-718
-716
-649
-842
-870
-748
-906
-976
-920
-1091
-1113
-1282
-1232
-1567
-1216
-1314
-987
-1297
-1388
-1183
-1197
-1201
-1182
-1353
-994
-976
-1342
-1233
-1545
-1231
-1157
-1404
-1191
-1226
-1246
-1252
-1213
-1341
-925
-1131
-1011
-1221
-1559
-1196
-1295
-1024
-1164
-1546
-1246
-1308
-1135
-1118
-989
-1373
-1376
-1001
-1125
-1097
-930
-1010
-962
-1045
-890
-889
-1033
-907
-1149
-763
-680
-750
-905
-969
-1136
-733
-675
-733
-1067
-1075
-1045
-1063
-1137
-919
-1103
-705
-862
-864
-653
-668
-663
-698
-1036
-1096
-1072
-749
-733
-1042
-1086
-1037
-664
-829
-817
-830
-807
-509
-776
-853
-657
-877
-787
-494
-806
-862
-802
-397
-572
-396
-807
-870
-792
-435
-435
-512
-790
-449
-602
-581
-625
-628
-547
-225
-524
-629
-412
-599
-253
-233
-513
-228
-145
-384
-515
-454
-789
-451
-603
-389
-835
-754
-763
-888
-512
-777
-891
-736
-749
-707
-687
-713
-729
-681
-859
-842
-671
-1041
-1077
-762
-698
-717
-1049
-1090
-1049
-725
-703
-730
-758
-748
-720
-715
-734
-750
-727
-680
-892
-856
-779
-613
-382
75
-93
-87
-29
161
407
824
843
803
808
861
878
793
622
169
-31
7
-252
-816
-1144
-1176
-1618
-1439
-1446
-1431
-1662
-1611
-1537
-1219
-1167
-1338
-945
-1087
-1079
-898
-940
-1145
-1078
-1084
-1119
-1058
-887
-511
-836
-744
-1033
-856
-640
-607
-494
-877
-863
-771
-481
-772
-795
-498
-456
-477
-774
-503
-440
-402
-422
-445
-412
-604
-586
-613
-610
-545
-228
-254
-602
-395
-607
-536
-533
-586
-592
-233
-335
22
31
11
33
72
61
-281
-378
-141
-338
-295
-342
-173
-161
9
-34
301
-62
43
23
-116
-29
-109
-322
-247
-538
-204
-381
-365
-134
-147
-374
-306
36
115
-102
116
-266
-195
-609
-639
-525
-141
-159
-580
-448
-606
-344
57
-345
-630
-498
-624
-211
-540
-803
-719
-890
-431
-603
-426
-502
-455
-635
-418
-812
-642
-851
-774
-795
-650
-727
-695
-862
-801
-780
-772
-502
-492
-487
-485
-505
-832
-662
-679
-844
-460
-419
-492
-831
-823
-483
-435
-483
-838
-661
-702
-704
-644
-495
-572
-236
-580
-476
-769
-632
-234
-535
-486
-878
-772
-255
-352
-165
-607
-454
-423
-617
-611
-635
-405
-456
-802
-867
-815
-402
-248
-193
-208
-218
-215
-227
-236
-174
-313
0
-351
-522
-610
-551
-192
-170
-244
-577
-593
-566
-539
-243
-184
-145
-177
-518
-575
-544
-201
-167
-248
-392
-488
-459
-589
-221
-203
-521
-558
-223
-314
67
65
-275
-314
7
106
124
57
22
101
-34
-22
104
-311
-380
-378
-133
-165
-130
-267
84
57
-280
19
-42
137
378
-47
86
121
-52
-99
-284
-184
-163
-266
99
56
-353
-212
-189
-314
76
119
59
-301
-129
-166
-166
-162
-186
-240
-560
-601
-600
-554
-204
-343
-276
-310
-151
-167
-268
-61
-45
-283
-538
-534
-307
77
-335
-582
-594
-348
112
50
-371
-327
-11
571
412
580
549
436
645
757
730
672
677
736
757
656
446
237
381
333
-51
-334
-419
-874
-872
-801
-814
-645
-662
-796
-640
-579
-596
-548
-362
117
-35
-93
50
15
61
102
89
40
-263
-318
-143
-214
-189
-278
-60
313
273
-73
-63
320
172
141
269
-44
298
163
160
284
-54
294
224
559
186
262
-58
283
141
170
369
298
262
264
287
316
307
-33
85
-263
34
-86
271
269
-26
256
353
184
219
530
410
808
810
385
204
174
523
555
169
-10
-75
262
355
367
360
171
543
585
230
321
-44
-62
-50
-46
-24
322
195
540
534
219
193
224
513
215
343
-48
-112
-80
268
343
347
302
287
347
158
375
-48
71
118
289
327
107
-173
-187
107
358
-19
-149
-624
-158
-9
159
-45
-335
-360
-94
161
148
-71
23
94
315
184
320
67
-333
58
370
545
368
-284
-523
-380
-39
343
87
-516
-548
36
372
376
125
22
-12
548
595
364
-109
127
-59
-96
22
-295
56
-94
121
22
108
185
803
654
451
174
302
343
148
352
-49
92
73
108
-84
288
198
586
567
166
332
143
209
309
-296
-515
-325
152
776
783
588
537
508
1081
999
945
723
429
171
297
310
350
-9
10
-165
-359
-91
178
534
231
177
164
147
328
-61
62
-289
-360
-158
-161
-325
103
287
178
565
455
827
806
629
168
355
151
144
-38
-284
-361
70
324
164
318
-75
-73
348
570
468
505
446
609
569
593
601
514
361
278
340
191
194
357
321
167
550
530
374
263
306
382
323
-101
63
-112
261
-13
106
18
63
-126
88
-279
-292
124
339
174
338
-108
-275
-355
-344
-290
-265
-314
-154
-191
-359
68
-50
-14
-34
-43
-17
260
-16
-66
-111
-121
-68
313
217
622
473
810
882
683
731
1051
1142
944
1127
889
564
279
97
-271
-384
-561
-825
-1122
-1314
-995
-714
-439
-403
-831
-666
-451
-296
-45
104
-186
-603
-528
-140
-146
-246
-243
-323
-97
280
293
299
342
351
271
-94
-127
-75
-39
-98
62
70
-40
138
210
148
313
306
146
233
190
286
-107
-105
269
355
321
-23
-37
295
347
288
-78
-102
263
144
177
350
257
271
147
555
608
526
133
326
128
226
252
192
152
225
624
453
422
620
390
494
802
455
535
142
376
180
250
557
607
419
503
829
840
505
609
190
328
-5
-80
87
14
-273
-270
7
64
-73
322
376
300
-75
-111
-72
-80
76
-266
66
-5
330
-52
4
-331
-280
7
-317
-384
-335
45
104
72
70
-97
-27
-115
-328
-245
-560
-586
-391
-414
-588
-237
-547
-464
-769
-560
-286
9
-212
-399
-600
-192
-215
-421
-788
-631
-141
-136
-621
-770
-622
-316
91
-261
-136
-339
107
-47
113
-333
-183
-160
-371
-140
-213
-245
-190
-357
-334
-149
-237
-239
-384
45
-34
367
194
176
315
-81
119
-77
-12
-92
-332
-569
-620
-180
110
311
322
-47
118
-117
-32
-19
111
-346
-234
-240
-149
-323
-315
-364
-138
-346
18
93
45
-354
-204
-172
-285
94
-125
-119
-65
279
328
326
328
350
333
-12
-105
-108
-33
256
-82
64
68
-72
261
-74
1
-368
-311
105
-18
295
303
299
282
-24
-73
-58
269
297
-50
56
9
-108
352
166
315
-69
-53
322
355
-40
24
-292
62
-86
-87
84
31
62
123
-125
64
-271
-274
82
-42
273
-55
99
-118
340
528
225
-36
33
-96
242
444
577
284
114
-78
322
352
-8
126
66
42
22
20
71
-94
-20
-11
-72
84
5
17
-126
261
294
-49
125
-94
305
170
158
299
-50
-45
271
288
-40
89
-268
-283
52
-85
-10
-25
-76
-76
287
202
574
557
179
316
271
-4
-75
63
3
78
-35
282
-49
108
-117
303
197
213
357
-25
-81
-58
277
143
528
604
601
552
255
228
209
194
192
170
353
-7
-69
-51
-26
-91
28
-300
33
-108
119
-334
-252
-197
76
325
315
53
-244
-615
-538
-171
-181
-573
-448
-435
-534
-348
3
-266
-327
-370
-374
-375
-151
-193
-208
-179
-365
-258
-101
358
572
495
889
1037
984
1205
1617
1644
1573
1224
1152
1347
989
1062
785
175
51
-541
-788
-740
-990
-1537
-1516
-1842
-1482
-1554
-1365
-931
-741
-804
-393
-549
-210
-369
-280
1
-313
-147
-176
-336
110
277
323
-7
-113
95
106
119
118
-109
-14
350
368
273
-80
-82
-2
302
-9
-124
60
75
-94
281
145
229
239
173
342
313
354
153
153
323
-59
-118
-18
236
476
500
536
286
263
233
466
447
197
-8
307
559
491
456
552
215
553
441
486
385
230
168
513
392
406
252
320
289
174
591
631
566
532
584
619
557
200
180
241
253
140
-10
-47
283
321
-25
120
-76
179
407
616
302
-262
-316
99
-54
60
-229
-425
-416
-552
-188
-363
6
101
46
-169
-614
-560
-302
123
-259
-577
-802
-798
-422
-619
-401
-459
-783
-664
-1091
-1098
-806
-377
94
-327
-631
-427
-144
-113
78
-571
-675
-733
-834
-461
-477
-498
-400
-250
-197
-252
-558
-521
-193
-180
-209
-222
-228
-576
-778
-703
-680
-438
-210
-521
-859
-926
-905
-501
-257
258
-71
-291
-164
-376
6
68
-265
-209
-426
-778
-429
-202
4
70
16
-288
15
118
-85
113
-266
-371
-149
-160
-213
-552
-564
-204
-332
-339
-247
-638
-549
-308
50
-148
-445
-491
-212
77
39
-540
-510
-615
59
382
375
122
-375
-183
-379
-342
-147
-518
-586
-550
-189
-323
55
-94
-45
-112
-279
-170
-184
-361
-357
-240
-401
-410
-238
-316
-297
-383
-384
4
117
74
-304
-326
40
112
21
-351
-291
-89
-12
37
-533
-396
-250
-307
-274
-378
-179
-370
-281
-278
-348
-150
-151
-361
-289
23
6
-335
-383
-297
-127
-39
126
-299
-362
-287
43
9
-342
-384
-339
-265
14
-275
-337
-147
-175
-362
68
260
325
-40
37
-322
-272
116
-88
42
-193
-598
-516
-258
-28
277
-74
108
-120
-75
-126
6
-325
-300
4
17
41
-77
134
523
246
186
235
626
408
522
324
-8
272
-22
82
-258
-105
176
566
196
301
359
584
453
579
312
112
23
-309
-162
-230
-206
-159
-183
-253
-526
-229
-206
-526
-635
-455
-473
-476
-500
-800
-837
-831
-484
-563
-131
-352
-226
-387
-416
-571
-246
-570
-454
-787
-506
-438
-626
-534
-160
-349
-144
-515
-557
-189
56
348
590
501
883
1041
1016
1247
1618
1581
1250
1236
1221
1289
887
194
-82
14
-521
-1062
-1457
-2160
-1971
-1747
-1458
-1272
-1207
-1165
-1019
-731
-634
-129
-358
-255
-425
-483
-396
-236
-331
54
111
98
64
73
-120
-73
-99
106
127
-11
346
305
126
-306
-329
58
-57
-53
69
-315
-276
-57
178
239
369
-27
263
180
541
208
310
267
362
165
335
-62
-88
299
216
565
567
521
210
188
252
399
504
428
185
-30
-36
379
516
517
171
371
153
254
608
405
415
402
390
632
590
255
177
175
251
572
554
223
187
253
633
470
474
386
239
341
-18
-50
-52
-70
-114
101
77
51
17
5
32
55
5
-375
-238
-533
-524
-548
-613
-625
-256
-344
-277
-142
-621
-507
-473
-613
-609
-778
-728
-1028
-864
-385
-538
-577
-628
-592
-541
-589
-496
-667
-747
-761
-1053
-1124
-903
-1108
-752
-677
-658
-650
-878
-827
-777
-478
-443
-416
-420
-457
-499
-781
-792
-799
-806
-798
-770
-480
-471
-494
-783
-776
-444
-581
-250
-537
-392
-463
-634
-166
4
-282
-235
-438
-480
-400
-619
-435
-788
-785
-426
-565
-233
-167
-357
-324
-351
-134
-370
-322
-361
-521
-432
-465
-622
-521
-515
-564
-564
-217
-361
-297
-296
-312
-314
-310
-352
-212
-612
-434
-388
-517
-160
-147
-196
-244
-522
-251
-176
-304
35
-294
-244
-394
-594
-146
-303
-152
-595
-407
-576
-201
-157
-158
-135
-348
-330
-306
53
-47
-4
91
-154
-527
-197
-369
-197
-388
-473
-631
-238
-219
-513
-167
71
-14
-108
-137
-597
-572
-202
-227
-425
-840
-786
-573
-130
-306
2
102
-63
-106
-281
-177
-190
-375
-373
-230
-602
-581
-164
13
106
127
-128
116
67
-274
-350
-377
-349
-289
35
91
103
80
77
-109
261
305
-52
33
-286
71
-29
288
-17
-73
-53
273
306
286
275
298
316
285
-19
-13
316
137
163
128
319
-2
-39
-41
-26
-45
-112
93
126
-29
265
-122
-372
-569
-599
-248
-156
-158
-218
-531
-570
-606
-640
-387
-600
-516
-196
-227
-608
-477
-502
-419
-585
-589
-421
-489
-485
-453
-458
-467
-632
-166
32
57
-349
-237
-220
-329
36
4
-349
-348
78
354
407
743
1342
1594
1652
1562
1273
1443
1690
1715
1648
904
794
616
165
12
-797
-980
-1180
-1260
-1412
-1888
-1732
-1834
-1268
-1284
-953
-938
-1071
-798
-256
-130
-196
-566
-538
-341
116
125
-340
-571
-620
-245
-146
-208
-591
-577
-353
-88
256
-111
-257
-297
24
91
98
71
81
-109
-23
282
256
-73
-110
-38
358
165
323
-91
-117
308
535
389
619
563
545
544
530
524
540
524
173
307
265
332
141
356
265
263
138
549
618
620
402
498
822
790
440
394
432
489
479
400
594
635
506
868
858
500
411
386
611
244
380
169
401
842
466
356
93
-86
172
240
-6
-330
-157
38
260
294
-79
83
107
-65
-24
-82
41
-364
-209
-225
-168
-358
-351
-148
-227
-561
-622
-389
-630
-390
-511
-686
-752
-843
-536
-342
-165
-431
-646
-672
-825
-491
-788
-677
-1096
-920
-1124
-741
-889
-844
-817
-494
-403
-608
-601
-548
-159
-327
-170
-408
-817
-495
-581
-548
-449
-868
-858
-449
-608
-385
-447
-430
-608
-584
-403
-505
-797
-502
-435
-624
-553
-235
-224
-531
-575
-536
-166
-316
-280
-288
-279
-258
-282
-364
-171
-156
-129
-198
-584
-605
-169
63
103
-328
-239
-178
22
87
-349
-613
-484
-445
-624
-572
-213
-292
72
-291
-527
-622
-176
122
-43
4
-541
-632
-240
-341
-325
-152
-191
-155
-377
-135
-130
-290
111
-73
101
-343
-251
-541
-188
-330
-344
-255
-413
-614
-343
-105
-128
-343
-208
-350
89
89
-357
-519
-238
-363
-277
-266
7
56
77
33
-278
-303
-329
-134
-164
-335
62
97
-298
-218
-235
-341
30
-303
-242
-578
-163
101
-31
112
-350
-175
-328
69
89
-293
-191
-253
-190
-312
102
257
129
203
209
158
351
323
341
358
308
-72
89
-103
373
592
389
527
140
144
526
627
577
380
-89
75
-110
301
142
362
264
-32
300
165
219
175
368
355
371
329
-67
15
-334
-320
-297
-381
-562
-467
-484
-619
-221
-147
-135
-130
-362
-325
-264
82
-103
102
-357
-599
-457
-420
-637
-479
-655
-722
-842
-628
-516
-534
-554
-227
-366
-320
-372
-181
-170
-330
65
-20
209
500
1074
1348
1269
1626
1448
1797
1898
1683
1860
1411
1159
896
857
193
-343
-659
-1375
-1648
-1522
-1847
-1860
-1505
-1276
-1016
-1106
-1052
-741
-860
-461
-450
-849
-736
-717
-788
-571
-161
-301
75
-97
-108
72
23
18
-268
-343
-370
-290
71
50
-351
-152
19
298
154
262
81
-128
136
613
599
175
329
132
252
566
550
521
247
221
208
520
626
404
524
292
-91
-2
192
538
193
304
289
201
437
837
824
470
396
400
442
461
443
421
444
506
810
811
804
827
852
821
488
455
779
875
884
801
477
492
786
490
630
570
639
472
458
626
600
420
449
564
337
-13
328
142
265
24
-295
-63
232
522
-7
-332
-197
-376
-289
-308
-358
-341
-286
-284
-340
-343
34
-78
-96
-328
-619
-496
-415
-247
-382
-348
-358
-139
-214
-550
-565
-255
-251
-415
-694
-1117
-748
-455
-256
-563
-491
-823
-441
-251
-184
-549
-462
-824
-834
-781
-448
-626
-579
-579
-601
-594
-546
-247
-255
-565
-618
-385
-635
-597
-515
-157
-346
-342
-352
-328
-299
-339
-197
-560
-591
-569
-560
-559
-236
-329
102
-67
-80
121
69
25
-275
-321
-143
-540
-446
-487
-549
50
306
304
111
-305
-298
52
58
-325
-210
-245
-185
-129
-380
-346
53
-18
301
-76
-258
-330
-276
20
-307
-158
-149
2
-90
-49
122
13
-272
49
122
91
-345
-580
-429
-551
-296
111
59
-307
1
-42
363
279
62
-292
74
-24
-30
50
-352
-301
-98
322
307
-98
29
29
-115
262
318
317
313
361
211
553
536
165
301
279
356
186
204
190
242
399
838
661
842
419
518
183
174
170
380
287
-56
-77
-2
139
542
384
408
385
628
403
441
396
231
279
-106
-111
-89
105
-273
-316
36
-90
-85
36
-345
-348
-286
-286
-373
-186
-165
-360
-347
-364
-313
58
100
-290
-248
-583
-204
-319
-369
-566
-420
-552
-306
111
-120
-106
-15
361
181
521
458
766
1330
1258
1542
1195
1321
1003
1363
1600
1477
1257
701
376
47
-320
-246
-688
-1268
-1704
-2100
-1756
-1843
-1413
-1214
-969
-713
-508
-387
-583
-535
-221
-176
-170
-193
-204
-174
-356
-269
58
95
102
113
-104
-66
-90
55
-313
-300
103
-10
-2
-108
75
118
-34
291
323
132
240
550
213
294
-103
-109
260
129
160
325
-65
-110
260
198
570
531
167
140
241
626
398
563
204
193
535
632
409
388
405
506
870
866
490
639
398
480
473
585
199
251
474
680
725
648
846
860
883
841
481
612
245
183
223
627
787
843
789
486
802
657
685
837
431
589
556
525
215
169
129
322
-19
-55
272
145
232
221
160
375
364
342
280
-70
75
-307
-169
-231
-212
-156
-132
-152
-169
-151
-370
-354
-366
-166
-549
-475
-867
-846
-437
-598
-435
-886
-706
-819
-601
-256
-584
-413
-629
-240
-377
-332
-363
-187
-563
-415
-426
-576
-216
-530
-507
-709
-645
-547
107
283
-51
73
78
-70
-42
73
-130
-244
-530
-586
-423
-433
-530
-295
102
98
53
65
98
72
40
104
-17
290
-78
49
110
344
237
347
2
-248
-250
-370
-303
-345
-373
-281
-114
-11
-39
116
50
53
60
-266
-154
-253
-183
39
-29
-28
101
47
-105
280
283
-76
-113
-12
319
-59
-286
-338
-104
176
179
-107
-367
-330
-79
329
-53
-308
-169
-326
95
-113
54
-284
15
-95
298
359
376
151
183
165
330
-7
278
143
225
162
269
-49
315
233
547
197
336
332
181
544
599
403
779
650
676
819
638
226
134
349
339
345
346
332
317
329
378
176
196
167
343
-24
120
44
10
-279
-356
-178
-188
-130
-336
-335
-339
-289
40
41
-263
37
-29
145
357
-120
7
-119
360
374
120
-154
-193
-285
107
75
-304
-355
-261
-65
160
610
502
882
1052
1301
1551
1414
1634
1587
1413
1831
1870
1659
1303
738
817
420
168
27
-403
-717
-1091
-1042
-678
-862
-856
-885
-644
-874
-797
-421
-556
-244
-528
-563
-221
15
264
350
262
-105
-100
-14
266
-98
11
-290
58
-42
353
194
249
516
251
524
585
626
585
218
382
140
250
636
452
451
416
394
401
412
639
564
239
231
529
574
601
637
449
774
779
462
401
626
600
568
586
441
826
858
804
814
727
925
928
693
432
389
816
740
757
644
810
856
757
923
1001
952
1066
660
833
827
843
819
505
469
508
882
757
1066
760
674
891
664
689
869
434
513
190
239
548
252
135
319
138
574
447
413
522
175
223
587
610
246
369
305
272
-93
-275
-151
-154
-356
-378
-235
-572
-525
-158
-366
-134
-363
11
83
-300
-566
-463
-595
-342
-261
-195
-440
-455
-215
32
85
-275
-357
-319
28
69
60
72
102
87
0
-330
-309
36
71
-282
-166
-187
-292
-100
-30
-110
49
51
111
118
56
37
-113
268
-10
69
-332
-266
-37
371
315
-91
-121
286
201
245
199
204
548
593
217
-2
119
-103
261
298
-3
-27
298
145
182
135
328
313
345
137
168
150
329
-4
267
140
525
523
138
267
-16
271
275
265
317
167
227
205
193
517
597
565
184
370
167
207
362
-57
-94
294
172
181
147
209
585
601
236
194
629
879
662
463
549
385
870
673
476
526
554
497
871
812
504
647
1138
926
684
386
579
495
869
454
130
-49
327
613
797
507
608
224
171
148
382
370
360
300
-79
78
96
-39
296
-8
-115
103
-111
-113
36
-318
-259
-99
-45
77
-334
-302
-94
320
290
-90
113
-85
-30
-49
-102
127
109
50
-313
-144
-379
59
141
807
1123
985
1006
1153
1508
2118
1927
1688
1445
1451
1870
1904
1435
1389
921
738
406
-80
-526
-785
-644
-733
-1063
-1032
-657
-825
-814
-770
-571
-275
-99
93
-346
-185
-357
88
-14
285
-11
-61
-63
-12
298
293
-27
-76
-40
349
241
564
519
170
141
213
563
583
553
597
476
818
441
210
159
398
669
865
211
-123
-44
600
666
684
772
419
471
833
640
652
889
827
477
406
395
437
771
893
1058
940
969
900
1093
1093
1087
724
814
489
835
699
696
844
817
717
924
969
1083
690
727
1127
954
912
1098
1106
912
948
941
930
911
1085
686
846
875
695
675
793
428
472
856
647
797
389
578
594
602
548
218
138
299
-59
-102
-51
277
268
-86
76
58
77
66
11
-298
-326
-367
-173
-212
-193
-147
-135
-167
-199
-210
-218
-235
-242
-236
-252
-558
-585
-537
-211
-227
-594
-398
-555
-136
-367
-522
-429
-413
-239
-357
-378
-236
-554
-240
-352
64
-100
108
-314
-216
-239
-147
-345
-165
-546
-553
-142
49
-103
-78
-53
257
267
-67
69
-271
-286
5
47
70
72
27
-313
-349
11
-20
189
238
372
-33
-57
307
156
152
310
-64
92
3
-329
-360
-331
-276
19
32
46
55
34
13
49
-98
268
303
274
-8
-13
-40
-87
-89
-5
337
298
-111
22
44
-100
-29
-56
122
43
-276
-287
61
-20
365
333
-48
-96
-1
348
291
-89
-62
170
630
547
-10
80
258
584
423
170
91
23
269
587
477
429
573
236
191
154
380
357
314
257
-17
309
188
566
392
467
826
661
665
803
638
541
561
394
435
625
223
338
261
-14
-28
-75
107
32
-281
-297
1
80
-111
-97
-120
123
-128
118
70
3
-298
-307
-290
-277
-279
-278
21
115
-40
-11
-85
70
53
-125
-83
100
-288
-324
44
-69
-14
-24
279
195
455
727
982
1210
1630
1460
1517
1887
1788
2123
1763
1521
1562
1218
1163
940
493
-2
-301
-373
-174
-416
-1031
-979
-901
-728
-722
-1106
-1079
-462
19
-26
63
-199
-224
-272
-108
80
-361
-179
-341
52
105
111
-83
297
133
134
356
368
146
354
-43
113
-67
135
528
229
348
302
145
529
572
539
248
230
197
165
185
248
512
167
355
189
408
809
500
632
388
809
658
817
636
597
477
852
804
415
396
778
873
801
398
396
846
1053
1068
658
802
868
764
1065
697
821
822
700
1086
1100
750
891
849
641
730
1024
677
490
588
588
484
649
700
652
884
681
729
662
491
616
618
432
423
551
153
129
220
589
639
608
519
137
261
-99
76
-279
-156
-528
-558
-526
-525
-576
-592
-236
-364
-373
-539
-436
-424
-561
-524
-392
-790
-777
-599
-136
-268
36
33
-273
-349
-381
-344
-312
-383
-521
-560
-183
-330
-171
-414
-773
-577
-279
48
-174
-424
-421
-225
-359
-185
-578
-584
-202
-345
-318
-312
-271
36
43
36
76
-96
-60
-117
77
88
-114
-128
23
-314
-274
97
-105
101
53
87
126
33
-179
-558
-183
66
-67
74
-346
-305
-55
157
140
-41
87
-128
-16
263
-108
-272
-370
-355
-268
79
118
88
43
33
92
-67
257
-6
-90
53
-264
26
121
-92
78
-344
-179
-356
67
-93
125
50
45
90
89
43
70
-12
184
178
-75
-348
-131
88
332
363
-85
-320
-134
23
266
374
-21
-299
-228
-181
13
-100
-99
103
120
-60
-18
-43
-75
-68
-77
94
-287
-354
-312
38
91
68
11
-270
38
-112
-42
-76
88
60
-101
275
296
-22
-48
277
341
269
103
19
96
-25
292
284
320
178
536
527
176
365
138
226
542
532
216
161
160
222
563
606
574
252
208
197
206
226
513
555
579
559
529
558
406
488
433
518
134
195
405
801
459
224
320
332
382
282
42
-149
-156
-327
-335
-196
-240
-332
-82
-7
56
-202
-515
-342
96
74
-353
-172
-290
-78
-1
-97
49
76
-41
326
312
-48
110
69
78
88
69
16
-271
58
-5
216
608
409
782
1074
1205
1446
1421
1267
1251
1491
2095
2028
1938
1680
1458
1597
1227
970
774
-34
-542
-658
-1140
-1011
-1323
-1297
-906
-665
-638
-163
-338
-139
-250
-578
-600
-387
-502
-880
-872
-410
-368
80
92
43
98
-7
321
-52
7
-324
32
-74
280
350
201
564
577
242
171
144
340
-62
74
-120
361
528
224
302
-45
293
166
191
358
258
-36
-1
337
212
630
505
794
460
585
229
216
564
459
834
844
768
451
477
822
876
850
795
775
788
780
492
778
653
1033
732
787
636
457
661
707
493
234
210
410
836
804
445
483
893
680
511
568
571
482
809
632
356
-14
382
384
809
810
444
569
234
235
525
243
342
102
-323
-311
80
-63
-63
117
52
18
-294
-384
-186
-171
-141
-202
-593
-400
-549
-373
-333
-242
-447
-468
-550
-375
-349
-161
-165
-326
-277
-144
-606
-434
-600
-513
-621
-872
-734
-807
-209
0
-290
-176
-247
-239
-518
-579
-575
-215
-369
-133
-198
-380
107
263
-124
-186
-602
-179
101
-105
-357
-637
-638
-365
-98
-74
8
-134
-348
82
-54
-115
-303
-192
-155
27
-91
110
-324
-161
-293
-50
347
279
91
-308
-318
29
-117
-74
111
-319
-225
-246
-371
9
-304
-238
-591
-190
114
347
375
264
-68
-24
332
345
-57
-277
-158
-383
-265
54
39
59
-55
364
363
-86
-275
-279
87
80
-381
-596
-577
-336
-119
111
-379
-586
-601
-188
-275
36
-265
-313
-288
62
-101
-65
-55
-25
264
-29
105
-268
-265
92
-102
81
-307
-344
34
-35
320
287
-41
-36
302
349
271
99
-304
-352
-335
-333
-377
-157
-150
-150
-203
-521
-212
-271
-57
263
-91
66
120
289
143
344
-54
114
115
117
59
-264
17
126
-62
-119
5
-310
38
-62
261
-64
93
104
256
175
223
365
-80
29
-260
55
-111
-81
95
-325
-191
-374
-97
184
229
285
91
-96
218
505
799
393
526
519
547
530
237
512
551
255
154
135
531
459
775
435
602
606
636
602
537
554
395
413
255
309
291
226
390
586
140
336
242
444
471
572
140
307
-13
-120
15
-311
-335
-353
-351
-275
108
-93
84
-272
-259
105
-94
71
-330
-132
-353
-336
-146
-236
-228
-345
80
-109
62
-358
-202
-151
0
102
62
-317
-382
-337
-265
29
75
-27
225
450
816
647
1135
1253
1817
1890
1821
1884
1934
2239
2209
1788
1546
1290
969
1046
590
21
-398
-870
-1025
-929
-977
-1115
-740
-1076
-1024
-1296
-721
-568
-167
-579
-473
-628
-365
50
5
-333
-304
17
-295
-226
-622
-563
-336
-114
-17
-29
-64
-73
-58
-29
-45
89
-366
-243
-161
119
140
218
145
150
621
653
746
798
225
315
358
163
326
115
-268
73
288
210
541
575
638
453
476
454
453
784
876
852
397
377
-18
368
401
839
510
551
196
572
773
860
807
486
503
806
793
480
465
797
656
730
737
719
723
748
754
709
870
772
467
468
483
502
816
657
702
838
592
160
168
242
172
-71
-282
-278
-105
303
331
295
285
286
-3
-44
-29
271
-29
56
-384
-180
-353
-269
1
-258
40
87
23
-161
-585
-611
-527
-255
-402
-861
-658
-503
-545
-204
-524
-589
-513
-328
42
-311
-577
-815
-856
-467
-582
-566
-629
-398
-592
-256
-229
-234
-198
-133
-377
-181
-194
-313
-128
-101
-289
-224
-173
70
-76
-299
-397
-482
-168
-46
-21
-364
-430
-402
-360
124
95
-317
-133
-353
-326
-347
-338
1
64
-260
-139
-165
-259
-51
-2
-125
14
51
-73
-18
-106
19
-286
10
51
60
83
-108
-57
-100
35
-321
-356
-362
-141
-172
-383
-272
65
50
-262
-265
35
40
-295
-129
-132
-308
28
32
-275
-291
35
-113
-63
-119
32
-278
18
110
-58
267
340
140
382
288
-98
47
-292
-362
-172
-229
-551
-634
-407
-559
-356
48
24
-357
-154
-320
52
49
-323
-147
-353
28
116
-121
-107
-58
-9
-10
-58
-104
-109
-89
-96
87
-264
-293
49
-62
270
-47
90
54
-116
-19
-28
120
41
73
-117
100
-333
-253
-534
-139
23
81
34
-270
14
103
-58
264
282
-10
-91
98
106
-77
-18
-28
-58
-39
277
280
-94
21
23
-70
343
325
-103
35
118
311
137
-8
-260
-136
-322
91
-87
-121
98
-92
301
129
345
-18
-81
-64
-27
-40
-83
-52
360
575
461
465
407
418
791
673
702
845
430
592
567
549
219
133
129
226
581
580
225
383
366
166
237
532
254
153
-23
65
36
-105
268
-55
-327
-597
-638
-184
41
77
-321
-185
-384
58
-48
-44
116
8
-333
-144
-193
-182
-375
-313
-312
-363
-153
-160
-139
-357
-300
36
86
43
-352
-235
-526
-190
-318
27
45
27
71
288
455
968
1597
1428
1583
1575
1840
1968
2414
1997
1909
1634
1230
1289
877
311
-218
-860
-897
-1171
-1649
-1462
-1626
-1194
-1004
-1058
-850
-448
-422
-483
-512
-434
-551
-215
-227
-242
-154
50
-12
303
-53
56
5
71
-109
-125
46
19
-122
312
148
358
264
-7
350
221
249
143
-12
-71
277
185
530
220
136
152
524
603
558
216
226
554
531
133
329
537
870
724
481
177
207
824
1087
652
202
-19
231
688
911
751
471
395
821
767
1054
666
792
797
668
1057
1101
1026
683
702
1076
900
1062
831
407
442
872
738
727
685
736
1103
1123
744
859
846
656
878
417
193
132
211
237
369
-25
280
246
410
604
164
343
182
544
232
308
-112
76
60
29
-258
5
16
3
-266
14
27
-328
-523
-402
-601
-182
-129
-527
-452
-476
-590
-172
-380
-197
-580
-455
-808
-829
-769
-438
-419
-439
-400
-513
-344
-280
-355
-201
-223
-168
-380
-165
-543
-386
-386
-552
-189
-135
-141
-163
-166
-174
-205
-216
-148
-276
55
-280
-218
-631
-627
-246
-136
-358
-345
-261
-118
-5
293
308
338
312
-110
-353
-237
-177
-298
-299
-211
-599
-254
2
-25
321
323
312
279
-71
82
48
67
27
-366
-236
-225
-358
19
84
-92
322
229
547
245
188
192
189
330
85
-158
-525
-521
-249
-256
-207
-309
111
115
-298
-367
117
244
634
308
-190
-616
-323
322
378
94
-176
-178
-265
116
-116
-101
-83
107
-298
-345
107
174
584
185
-98
-267
17
-125
-62
-90
82
10
25
-118
288
364
301
-86
103
-113
-52
-64
-114
-111
-34
272
-31
-115
-120
-33
282
-61
10
-372
-355
5
87
-115
-31
324
329
-41
-124
-20
201
538
309
-311
-192
48
160
522
274
-283
-288
267
545
530
295
-93
347
444
646
803
554
382
368
148
132
320
256
-30
-10
363
563
470
475
603
523
617
768
501
532
300
268
155
553
604
624
419
464
436
623
627
485
883
667
815
621
170
298
258
260
-56
1
-514
-394
-567
-374
-264
-329
-194
-232
-179
-130
-383
-376
-314
24
67
63
57
57
2
-147
-550
-565
-197
-137
-528
-489
-480
-356
157
637
167
98
-117
616
1132
984
692
455
655
1207
1671
1730
1497
1562
1597
1461
1419
1369
685
583
327
40
-637
-1114
-1205
-1577
-1547
-1554
-1653
-1449
-1544
-947
-641
-789
-804
-460
-168
-100
-10
47
-191
-166
-126
158
159
-81
-269
41
-34
287
-69
82
111
-58
-39
-59
289
512
401
533
-27
31
94
278
344
-37
22
-372
-137
-268
273
632
858
778
227
301
211
888
944
1145
806
252
253
768
1028
1071
895
407
534
549
396
772
851
868
847
862
718
1142
964
1119
667
806
832
893
887
849
879
705
731
655
852
682
1109
904
725
458
596
438
872
715
734
762
1095
903
899
1110
1073
1029
668
777
411
385
397
627
585
638
804
664
810
515
293
358
622
791
434
183
303
136
545
538
345
-127
33
12
-336
-546
-480
-500
-613
-212
-162
-129
17
-29
298
105
-212
-636
-564
-189
-228
-407
-774
-425
-209
-306
-276
-306
-325
-331
-337
-328
-306
-334
-203
-616
-403
-534
-382
-380
-531
-408
-395
-569
-571
-392
-615
-373
-103
-90
-353
-575
-208
-109
354
-70
-152
-526
-290
313
204
369
-20
-53
-29
-48
-97
-87
-8
311
291
-31
-39
271
300
263
-47
-62
-37
-34
-76
-98
-49
283
296
-18
-62
-22
320
354
292
-47
-66
-21
272
267
-9
256
283
280
-26
-86
-102
-60
-1
285
273
-11
-16
-7
-1
-9
-10
286
349
373
329
259
-19
293
376
155
369
300
267
272
267
-50
106
48
86
-64
272
286
276
305
130
212
533
574
560
198
309
273
171
634
413
516
174
615
661
709
632
-23
-94
143
548
341
-288
-172
47
355
211
136
352
199
570
551
160
318
335
155
199
170
365
314
314
152
580
451
404
195
-1
261
203
388
391
255
187
579
827
697
840
622
543
430
867
850
618
157
202
444
887
870
500
501
662
1105
931
909
1112
1045
688
832
498
433
564
341
106
-260
61
-31
375
177
132
278
-75
-119
-128
109
51
-263
-273
29
99
-66
314
198
573
384
405
625
237
273
74
14
70
98
6
-373
-354
99
320
164
174
251
451
665
1025
1043
1124
1347
1627
1534
1520
1432
1417
1521
1877
1808
1247
1069
425
184
292
102
-201
-816
-1099
-963
-930
-1092
-760
-724
-675
-811
-605
-351
-98
364
213
168
-6
108
-72
211
423
530
78
-532
-198
-64
193
321
17
-308
-28
591
490
433
628
417
480
442
577
245
532
593
596
523
191
211
389
692
961
1003
1027
446
531
599
488
493
595
169
379
213
625
768
833
802
782
719
1186
1913
1697
1192
817
599
864
1127
697
215
-69
372
809
1138
1283
1162
1607
1435
1555
1334
1005
1376
1204
1340
1094
677
727
917
1376
1255
1277
1196
1325
1016
1382
1586
1428
1548
1004
1044
759
1073
763
810
385
467
753
966
900
662
791
879
706
784
166
-7
219
856
676
578
-105
53
290
227
342
-262
-207
-339
-46
174
225
155
311
256
278
342
368
296
-104
31
5
66
-62
370
515
241
287
67
69
296
209
332
-269
-251
-211
-301
16
-315
-348
21
-63
299
336
138
238
556
253
139
314
295
275
-37
-83
-62
287
146
231
513
218
377
-10
-128
72
80
98
96
102
-101
-8
336
169
577
782
646
795
244
-13
-35
150
609
457
497
807
879
684
1030
921
1294
940
848
240
181
430
674
874
565
361
550
1028
1367
1014
855
245
196
575
530
-80
-513
-428
-219
-104
376
162
527
641
1386
1642
1214
1068
781
460
634
312
-364
-243
62
250
428
569
255
792
1000
1255
1390
1105
673
652
815
250
119
-333
24
-27
-24
-318
-640
-630
8
361
-36
-619
-1056
-826
-81
770
501
369
-37
596
909
1373
1040
513
256
149
448
852
803
774
701
1291
1230
1390
1122
690
696
723
849
623
539
484
1118
1189
1598
1639
1409
1432
1638
1231
1282
1085
644
448
241
321
-26
261
153
403
713
1011
1213
1553
1556
1264
1197
1339
926
1069
1041
1069
1081
1077
1119
1006
1186
1262
1378
1037
627
344
355
448
959
1540
1184
1045
768
655
1332
1564
1287
398
121
34
316
385
777
509
491
785
821
797
482
444
414
620
568
577
427
877
1109
1012
942
829
317
2
92
180
420
412
411
758
1440
2324
2291
2363
2078
1689
1707
1720
1874
1452
1629
1467
1902
1715
1809
1254
1281
896
890
293
-493
-1294
-1318
-710
-637
-550
-572
-201
104
173
572
231
289
127
85
-118
-42
268
315
373
172
202
230
566
435
510
453
555
163
356
312
-31
-100
-38
165
636
460
416
396
498
885
890
485
581
561
399
445
626
564
415
654
1076
1056
705
708
1054
1067
682
799
797
894
679
867
777
473
410
542
214
600
864
746
886
451
506
1087
1382
1375
908
1072
1001
1259
1276
993
684
869
727
754
815
607
438
1085
1206
1550
1203
1263
1816
1778
1832
995
469
585
471
818
467
621
467
749
996
1319
1286
1280
1009
1107
782
194
312
148
571
395
605
237
371
-12
118
38
32
37
-285
-166
-250
-170
30
-84
-118
-261
-346
-352
-150
-580
-509
-778
-584
-383
-382
-534
-602
-198
39
-108
60
-317
-285
-119
-6
-63
25
-336
-301
35
38
-312
-156
-176
-379
-358
-182
-582
-428
-405
-536
-166
-184
-590
-455
-386
-143
66
67
-335
-375
89
345
332
-258
-571
-230
-15
398
605
-74
-358
-117
499
930
1031
186
-329
-182
7
-98
81
-378
-520
-523
-143
79
351
560
608
251
370
280
-58
72
-314
-332
33
-118
125
41
29
-119
-5
-22
95
-290
-292
69
-84
-65
-126
50
2
5
71
-68
264
-44
61
-270
-122
165
570
160
-127
37
-13
234
206
-72
-258
-113
221
414
595
182
168
541
609
552
222
512
633
452
397
517
129
292
-45
116
-264
-157
-566
-400
-634
-253
-344
57
-115
-81
-64
-38
257
276
-46
43
-148
-237
-164
-275
61
41
13
76
-33
380
226
525
543
565
595
614
598
545
248
544
405
498
444
253
308
-67
104
-293
-210
-543
-188
3
-87
299
226
482
688
701
793
604
254
234
215
191
194
229
251
514
574
472
653
738
673
768
629
585
638
465
771
505
425
567
241
521
601
622
539
189
229
408
507
567
-97
-357
46
160
544
-43
-240
-545
-73
469
822
199
77
63
318
208
311
36
-352
-290
78
127
-103
-34
297
301
-19
-72
-53
-6
-5
-52
-79
-45
-2
-26
-108
104
-79
327
166
382
294
333
582
668
900
975
1300
1244
1499
1881
1871
1697
2014
2607
2562
1778
1393
1083
1113
1052
560
-221
-1097
-1282
-909
-1042
-1044
-1090
-1064
-683
-499
-558
-147
-345
-382
-177
-152
-311
29
41
10
19
97
-79
-97
28
-360
-335
-110
158
234
304
45
-282
-119
316
286
53
-166
-197
-315
123
272
374
167
167
166
215
564
610
557
202
132
344
291
278
170
489
756
719
392
344
334
552
434
575
349
271
381
236
201
362
377
237
515
340
119
89
283
240
543
201
142
196
595
509
669
766
712
497
526
222
393
872
694
856
455
633
628
388
399
414
431
433
397
582
252
207
208
230
224
182
143
152
187
186
373
292
272
301
299
-22
-83
-63
257
-8
107
-338
-196
-212
-217
-549
-416
-493
-473
-634
-521
-161
-342
-323
-376
-210
-534
-558
-583
-423
-850
-752
-1044
-674
-496
-637
-640
-424
-634
-223
-334
-343
-518
-456
-771
-431
-601
-632
-505
-864
-843
-458
-565
-208
-175
-194
-234
-517
-253
-209
-161
-145
-173
-205
-197
-145
-351
-353
-148
-180
-140
-323
-315
-153
-251
-209
-267
-72
-54
37
-139
-172
-336
-279
-373
-567
-454
-454
-603
-233
-187
-220
-543
-576
-250
-321
-110
-6
-77
8
-370
-347
27
99
35
-375
-235
-235
-147
-315
-273
13
75
-103
-79
113
19
-271
34
88
60
-306
-157
-180
-377
-311
-303
-357
-171
-203
-175
-361
-296
-282
-320
-355
-326
27
122
-121
53
-316
-142
-183
-217
-531
-596
-630
-623
-597
-564
-518
-188
-356
-285
0
-266
-298
-333
-352
-350
-334
-319
-323
-341
-356
-359
-352
-342
-328
-306
-290
-295
-329
-374
-145
-379
-317
-258
11
-284
-324
-311
2
45
35
7
20
84
-124
104
20
-290
-261
70
115
101
60
25
1
-287
-328
-355
-351
-325
-303
-300
-309
-307
-288
-264
3
-257
-269
-275
-268
0
10
26
62
124
-57
256
274
259
-16
-13
260
263
-19
-48
-39
267
315
330
339
137
244
589
583
231
135
359
359
320
-28
-105
-118
-89
-57
260
138
553
605
226
286
-64
-25
-2
106
-169
-385
-410
-550
-176
-138
-165
-212
-252
-532
-522
-228
-200
-210
-255
-557
-583
-599
-610
-600
-556
-249
-238
-545
-624
-404
-608
-245
-178
-221
-609
-460
-452
-621
-572
-614
-405
-592
-148
22
82
104
-9
557
893
1092
899
952
1335
1243
1618
1434
1506
1828
1822
1452
1548
1389
906
497
-90
-414
-1041
-932
-1281
-1207
-1436
-1531
-1645
-1348
-1072
-660
-845
-770
-410
-582
-563
-594
-614
-580
-256
-200
-195
-246
-577
-628
-629
-590
-558
-564
-590
-587
-516
-144
-294
17
9
-284
-290
22
122
-47
-18
-39
-64
-46
281
131
220
231
142
281
-6
328
145
332
-124
-292
-283
-126
274
310
283
286
331
372
381
142
222
602
446
463
408
629
432
824
675
642
489
619
627
455
464
617
542
628
810
645
818
416
614
389
392
578
248
232
233
190
135
158
527
622
603
515
208
216
206
375
265
-36
-15
263
-12
-44
-44
-27
-42
-101
85
43
35
38
30
-267
-347
-186
-249
-520
-249
-227
-209
-202
-240
-594
-440
-464
-393
-568
-578
-417
-489
-476
-425
-444
-821
-711
-1043
-1037
-758
-1040
-1106
-1131
-1026
-804
-616
-630
-872
-1144
-946
-765
-828
-855
-1075
-981
-1140
-852
-603
-541
-618
-445
-458
-410
-609
-576
-582
-612
-632
-615
-569
-538
-537
-537
-522
-523
-576
-394
-394
-527
-347
20
1
-355
-189
-227
-235
-251
-552
-627
-467
-795
-790
-442
-578
-251
-239
-224
-159
-332
-319
-147
-255
-543
-216
-371
-336
-372
-155
-135
-320
2
16
-276
-330
-383
-172
-199
-197
-160
-359
-314
-291
-278
-259
16
9
-284
-327
-348
-357
-135
-210
-534
-525
-176
-341
-348
-193
-538
-527
-188
-147
-212
-578
-608
-252
-367
-316
-141
-518
-563
-250
-178
-197
-567
-420
-422
-575
-207
-165
-181
-175
-352
15
73
39
-300
-363
-377
-370
-370
-374
-357
-328
-328
-366
-140
-358
6
97
96
22
-281
16
92
95
-268
-140
-170
-348
-271
-301
-154
-215
-148
-267
73
63
31
50
94
72
-298
-161
-194
-165
-178
-530
-618
-587
-172
7
112
-112
-88
-49
-20
-37
-88
121
104
115
-117
-76
-13
324
156
234
538
546
527
254
249
235
177
342
283
313
156
224
186
328
-18
-24
267
-6
-96
63
34
71
108
96
39
-299
-142
-245
-572
-593
-610
-441
-853
-698
-871
-635
-175
-164
-564
-415
-606
-173
-323
-129
-541
-631
-586
-231
-198
-525
-627
-405
-611
-550
-548
-610
-420
-434
-389
-570
-227
-374
32
-36
179
429
718
995
1170
1220
1240
1621
1864
2050
1725
1410
1335
945
946
1049
541
-191
-1052
-1316
-1360
-1196
-1434
-1904
-1878
-1611
-1305
-1131
-1056
-679
-454
-227
-131
-189
-555
-613
-608
-594
-610
-393
-422
-418
-634
-557
-202
-369
-304
8
67
119
127
78
6
-281
15
104
-65
-9
273
283
289
287
268
-25
-70
-103
-107
-81
-37
259
283
295
314
352
150
189
188
161
156
210
559
631
394
392
409
437
433
399
392
452
782
791
490
490
845
702
717
641
851
889
653
786
557
151
189
581
393
612
582
397
782
850
816
491
468
490
496
453
634
581
585
392
479
782
496
411
592
572
581
555
217
372
300
268
-7
-41
-72
-77
-62
-65
-103
104
82
87
69
-265
-133
-248
-568
-589
-606
-390
-454
-781
-837
-857
-835
-790
-508
-789
-854
-662
-681
-650
-853
-805
-774
-501
-486
-465
-449
-442
-434
-408
-614
-571
-590
-434
-806
-838
-498
-629
-578
-630
-441
-431
-598
-518
-251
-539
-552
-525
-236
-234
-517
-547
-561
-555
-525
-226
-207
-253
-608
-430
-413
-566
-203
-163
-186
-209
-184
-377
-318
-298
-324
-372
-153
-154
-376
-338
-321
-323
-312
-283
-269
-305
-375
-175
-194
-211
-518
-567
-536
-145
16
98
75
32
58
-112
-51
-79
80
-276
-333
-341
-317
-282
-260
-272
-312
-323
-263
97
-99
114
12
-309
-293
13
17
-296
-368
-145
-384
-332
-276
7
-277
-357
-174
-183
-138
-366
-148
-213
-224
-152
-318
-286
-317
-349
-330
-271
30
25
-276
-315
-321
-299
-262
30
49
44
20
-260
-261
20
50
74
113
-61
305
368
332
-11
-36
306
166
188
352
-9
-22
310
382
135
359
337
335
334
327
346
154
242
566
585
562
522
232
214
197
152
332
259
-23
268
335
137
165
167
154
138
132
383
350
258
125
18
-270
8
20
1
-269
17
66
80
38
-272
-291
-279
-274
-309
-134
-233
-561
-553
-200
-337
-283
-301
-308
31
-98
-64
63
-383
-207
-130
-284
-318
-232
-608
-248
70
154
595
637
452
702
1331
1603
1623
1227
1180
1617
1874
1668
1414
1318
1144
916
1143
802
-73
-431
-1060
-948
-1292
-1178
-1583
-1624
-1260
-1321
-1123
-695
-794
-387
-250
-166
-156
-194
-215
-174
-358
-322
-350
-130
-365
-295
3
-282
-346
-365
-305
64
-83
-29
-58
106
30
55
-82
277
256
-122
52
119
286
148
132
289
-32
258
356
178
175
354
265
-12
320
181
249
230
166
128
140
176
206
225
233
222
198
192
240
587
420
469
481
481
484
484
489
507
789
802
793
792
830
648
714
734
714
687
672
667
655
877
809
461
639
616
403
481
794
801
505
451
411
394
392
385
607
536
193
383
374
167
236
524
225
383
291
256
262
-6
-69
107
75
98
104
31
-358
-208
-245
-252
-547
-624
-418
-406
-635
-398
-463
-506
-479
-407
-613
-617
-386
-391
-628
-609
-598
-591
-598
-640
-458
-510
-499
-448
-430
-467
-486
-425
-566
-246
-541
-609
-616
-573
-572
-390
-453
-413
-569
-543
-640
-490
-470
-608
-548
-638
-779
-788
-619
-162
-349
-163
-230
-167
-265
100
65
-317
-143
-365
-280
-270
-364
-203
-173
-278
115
-120
85
87
-80
-11
-69
44
-291
14
91
54
-345
-208
-210
-148
-383
-152
-134
-279
112
-95
102
5
-313
-334
-349
-380
-164
-204
-232
-220
-139
-263
110
-104
127
84
58
29
-293
-384
-191
-171
-325
53
-127
125
74
37
37
39
-263
-346
-140
-370
-299
7
29
85
-54
304
294
-77
69
56
106
110
24
-343
-138
-365
-309
-275
-269
-264
37
-99
322
179
149
256
-119
-87
302
366
269
118
88
-41
363
140
327
281
334
177
222
190
148
160
211
246
238
211
211
245
535
539
251
208
178
169
172
171
146
340
-5
-91
111
94
94
83
60
44
47
63
67
38
-274
-330
-350
-329
-296
-288
-309
-317
-264
103
-54
-45
123
7
-325
-336
-313
-302
-327
-132
-204
-243
-218
-137
-313
-279
-282
5
-127
333
556
501
700
946
1218
1428
1508
1502
1797
1692
2125
2167
1758
1521
1595
1207
970
777
-67
-589
-646
-1038
-1139
-1284
-1153
-1391
-939
-670
-476
-414
-407
-597
-214
-142
-222
-394
-480
-623
-135
28
11
-365
-168
-338
83
-52
-33
-78
-110
-91
-45
-14
-18
-31
-26
256
280
288
294
324
379
179
204
189
153
381
381
144
156
158
177
246
608
422
391
542
214
514
637
444
603
147
257
261
377
234
535
543
566
613
412
479
826
649
652
816
454
440
784
880
883
797
463
472
808
889
668
663
642
875
858
859
880
640
882
844
811
806
817
832
854
884
646
875
806
484
462
466
438
607
518
250
577
386
605
212
334
299
345
357
-7
53
-129
-224
-245
-253
-536
-572
-599
-613
-617
-612
-602
-598
-610
-624
-624
-614
-624
-405
-439
-442
-418
-400
-405
-413
-401
-629
-612
-611
-599
-546
-210
-161
-180
-243
-539
-513
-198
-177
-218
-535
-555
-525
-229
-208
-196
-179
-171
-187
-198
-163
-354
-327
-383
-211
-230
-162
-342
-335
-381
-156
-143
-374
-368
-351
-289
44
74
43
13
36
101
-105
-99
-119
111
74
32
9
12
8
-286
-328
-301
62
-95
-108
40
-288
24
-111
-64
104
-294
-358
-302
60
-126
-122
109
101
124
-99
-83
-103
111
89
126
-55
-1
-24
-99
109
-119
-55
-32
-80
112
97
-116
-65
-50
-67
-88
-108
120
81
40
-260
-315
-370
-382
-316
48
112
79
2
-272
66
-79
-34
-67
-95
-59
262
275
-38
-96
-87
-29
257
-41
-114
110
-122
-79
-42
260
329
134
133
331
281
303
379
186
191
167
167
197
229
245
512
535
557
547
243
192
179
210
512
540
548
552
555
538
226
134
286
-64
110
41
1
-258
15
15
-269
-279
33
-124
-90
63
-384
-524
-532
-213
-193
-241
-534
-224
-367
-302
-333
-143
-154
-357
-314
-346
-166
-204
-162
-331
-268
-263
-278
-265
37
90
-122
-59
319
250
475
700
923
1154
1621
1498
1534
1798
1872
1765
2127
2058
1806
1236
968
720
391
-57
-541
-683
-949
-1366
-1194
-1193
-1351
-938
-1028
-865
-425
-223
-324
-272
-318
-129
-139
-344
-283
-263
-283
-310
-318
-290
25
99
-97
-75
-77
-63
-14
301
326
322
316
312
281
-35
-61
256
367
176
161
141
199
552
569
218
375
130
212
227
378
-5
-28
317
171
236
532
583
636
422
462
771
807
778
445
416
489
866
664
867
788
778
849
672
698
679
660
662
675
684
695
718
747
755
729
688
664
674
716
764
1042
1025
728
693
680
685
676
891
828
780
775
804
835
845
837
815
777
466
405
613
572
250
145
289
-18
281
369
165
132
295
-48
-95
-120
97
31
-293
-334
-346
-364
-161
-231
-520
-234
-179
-176
-255
-629
-455
-460
-401
-574
-252
-240
-543
-610
-632
-581
-248
-221
-525
-605
-398
-387
-602
-577
-591
-624
-629
-575
-235
-190
-215
-517
-252
-185
-137
-171
-245
-523
-215
-166
-186
-237
-223
-374
-259
32
-273
-346
-136
-149
-142
-371
-336
-326
-356
-146
-156
-366
-303
-269
-267
-263
31
98
-96
-61
-47
-24
271
298
276
-55
115
69
74
90
80
54
58
110
-84
-67
-99
123
122
-113
-107
-127
112
114
127
-126
117
107
112
-128
-108
-91
-87
-104
-128
-127
-75
-5
276
-24
-90
-116
-96
-79
-91
-98
-62
-3
273
-27
-82
-78
256
351
140
375
317
-3
-55
-89
-95
-63
-7
285
257
-88
95
121
-20
335
312
-77
55
31
81
110
71
20
23
76
120
-128
-123
-86
-31
264
286
304
319
313
292
302
371
198
212
135
306
316
168
529
537
200
381
138
239
617
426
403
584
535
569
414
496
488
408
606
639
474
778
475
629
555
552
584
597
567
522
255
556
637
449
464
418
589
241
167
368
314
-5
-74
126
88
63
47
50
82
-125
-89
-88
-117
110
102
111
126
-114
-100
-93
-102
-125
111
115
-108
-61
-23
-22
-69
106
36
13
28
48
54
65
119
-30
370
538
488
734
999
1248
1451
1840
1902
1668
1717
2102
2013
2343
1969
1703
1423
1194
941
808
291
-213
-835
-1064
-967
-1333
-1344
-964
-758
-814
-408
-540
-160
-301
36
77
96
109
124
-111
-70
-7
301
300
-24
-112
107
-109
-30
284
304
319
356
152
197
233
527
556
555
523
244
521
569
596
582
554
548
565
585
605
639
429
468
488
504
779
791
773
481
473
773
841
892
655
666
678
689
707
757
1090
1136
1082
693
856
895
764
1093
1046
700
697
1059
912
918
1092
1029
1060
900
979
990
942
1140
1112
1135
938
985
974
896
1055
752
1032
1085
1110
1100
1084
1086
1086
1055
738
689
669
651
853
770
449
434
450
459
447
422
387
593
529
207
139
307
-47
-109
-104
-73
-87
100
43
47
71
33
-319
-384
-353
-290
-304
-156
-255
-248
-156
-343
-362
-172
-207
-187
-150
-136
-146
-150
-131
-360
-349
-369
-159
-205
-216
-173
-354
-294
-275
-275
-258
39
78
95
105
-123
-96
-109
98
71
104
-90
-62
-85
-116
-113
-77
-29
276
320
332
304
276
303
367
128
306
-55
-82
-18
287
-14
-106
118
-87
-31
-33
-54
-16
340
162
158
360
331
357
138
143
377
364
370
379
372
356
360
144
204
243
236
199
169
170
193
212
219
225
241
516
254
217
182
189
248
579
620
601
540
216
180
190
235
525
254
192
139
146
200
238
216
162
137
166
215
241
243
250
525
544
554
561
574
577
550
245
216
242
566
626
384
614
581
569
568
552
255
210
189
191
190
171
157
191
527
599
609
563
519
529
586
638
384
601
571
593
411
488
778
510
495
768
811
833
803
481
418
384
630
637
407
461
799
887
696
726
737
762
1072
1133
1151
1101
759
695
673
664
882
821
784
798
836
854
845
837
852
883
660
674
646
814
416
529
188
172
181
173
140
368
362
376
149
195
238
241
186
367
328
341
359
341
299
287
319
349
332
282
-3
270
308
323
311
306
331
370
139
143
141
159
208
534
613
443
810
726
977
1548
1864
2092
1931
1944
1983
2368
2261
2277
2342
1781
1530
1636
1198
1079
517
-306
-440
-889
-733
-1087
-920
-943
-1124
-703
-472
-218
-261
115
-104
-91
-53
259
304
334
372
167
198
193
177
189
223
245
241
244
546
623
424
428
407
411
456
510
789
779
770
790
837
881
647
649
651
660
672
677
676
680
698
724
742
743
732
722
722
733
755
1046
1089
1122
1122
1089
1055
1055
1091
1134
900
910
937
988
1281
1020
994
1003
1340
1205
1547
1539
1193
1354
1327
1370
1162
1395
1284
1150
1090
1145
1009
1345
1331
1017
1284
1155
1577
1623
1216
955
1035
1043
1141
1149
749
840
830
741
930
985
905
1060
762
751
709
883
800
479
406
566
222
181
174
151
343
261
-54
-77
-78
-67
-37
259
275
-11
-61
-86
-71
-66
-123
27
-320
-336
-280
46
85
86
70
47
15
-282
-311
-312
-298
-288
-278
16
89
-106
-117
61
-259
23
115
-90
105
-273
-324
18
-92
-11
-40
-100
-94
-23
279
-15
-95
-118
-44
323
131
381
352
352
376
128
365
336
312
281
-22
-60
-44
287
373
155
138
367
369
137
151
149
150
160
163
149
136
147
176
193
180
154
138
141
170
232
573
632
611
519
163
375
373
342
-16
105
19
41
-98
302
143
155
370
338
350
372
351
287
-18
-11
282
284
-7
-16
307
156
213
188
381
338
328
331
336
360
154
198
194
144
344
330
368
174
220
225
191
146
378
132
154
154
133
134
196
549
600
552
193
139
180
254
513
166
316
287
347
172
214
223
231
242
236
210
198
234
559
612
620
599
589
606
634
390
626
584
557
587
428
803
873
868
840
857
664
698
894
770
413
394
435
474
490
511
809
850
849
803
492
455
424
639
584
532
235
194
144
346
303
272
-5
-18
-18
-16
-41
-111
64
38
91
-98
-110
35
-331
-321
69
-56
-56
79
-293
-297
44
106
79
12
-259
65
-99
-45
-39
-46
-35
-2
321
199
416
672
907
1362
1555
1496
1908
1738
1786
2105
2157
2095
1863
1557
1332
958
1051
423
-128
-396
-719
-1117
-966
-1359
-1189
-1362
-1112
-830
-400
-604
-578
-234
-356
-267
-272
-329
-355
-318
-257
42
71
110
-116
116
37
-285
-279
38
93
124
-87
-3
334
357
337
347
162
239
244
184
135
151
197
206
167
138
166
231
535
549
560
589
614
603
569
561
599
635
614
557
550
387
770
818
502
416
401
452
489
469
438
459
784
853
893
665
695
714
713
711
730
749
730
682
660
695
741
739
700
688
734
1039
759
669
857
871
678
701
657
865
881
687
708
893
786
483
780
831
799
424
549
211
179
169
170
173
140
303
-69
-120
-82
-37
-86
29
-358
-150
-147
-172
-233
-524
-244
-199
-181
-189
-183
-160
-158
-195
-242
-523
-534
-552
-566
-555
-525
-517
-555
-604
-608
-562
-518
-525
-584
-393
-428
-420
-627
-561
-513
-517
-554
-577
-561
-529
-519
-527
-521
-230
-200
-206
-232
-230
-175
-350
-288
-275
-323
-166
-530
-587
-559
-231
-196
-240
-577
-613
-563
-198
-342
-268
11
2
-266
1
31
52
40
-257
-291
-293
-276
-273
-291
-303
-288
5
39
56
64
83
112
-122
-123
114
98
94
89
64
24
-274
-303
-318
-326
-331
-331
-318
-284
9
20
-261
-294
-294
-259
22
-267
-348
-165
-180
-131
-310
7
19
-282
-353
-140
-131
-360
-368
-151
-160
-362
-289
-257
-268
-271
8
27
14
-257
12
22
-280
-364
-146
-344
-259
-258
-344
-162
-160
-378
-380
-164
-175
-380
-317
-299
-321
-336
-324
-309
-300
-271
41
81
56
-275
-327
-309
-262
-257
-311
-368
-367
-305
25
74
99
119
-116
-101
-106
113
41
-290
-321
-278
70
-110
-94
-112
-104
-49
264
268
-27
-61
-64
-66
-93
-116
-82
261
334
350
342
383
226
565
565
234
153
378
133
150
147
374
334
306
314
369
188
240
238
187
375
319
281
-9
-51
-105
90
29
-284
-328
-352
-355
-343
-336
-339
-349
-352
-346
-347
-365
-132
-142
-138
-143
-169
-203
-219
-212
-194
-173
-147
-376
-374
-162
-233
-537
-533
-247
-232
-243
-249
-222
-177
-139
-357
-275
-118
345
551
471
649
1118
1347
1258
1577
1594
1408
1810
1665
1866
1641
1384
965
1104
858
136
-174
-879
-1115
-973
-1358
-1244
-1275
-1383
-1144
-712
-643
-827
-405
-197
-362
-205
-631
-434
-584
-185
-150
-220
-526
-209
-343
-261
7
2
28
67
78
67
68
79
60
-263
-339
-363
-321
11
83
-112
-54
-13
256
-10
-13
272
325
375
143
140
382
377
139
173
205
227
235
232
225
224
233
253
534
559
581
605
625
632
635
403
455
500
495
441
391
390
423
434
407
386
418
487
791
782
484
465
493
804
851
871
867
852
842
849
868
879
863
824
777
482
453
436
430
426
419
415
426
448
451
390
522
132
308
293
295
261
-72
100
49
43
67
89
77
20
-306
-341
-327
-310
-354
-202
-538
-516
-163
-368
-198
-636
-781
-797
-466
-414
-450
-801
-879
-893
-846
-506
-419
-620
-629
-434
-482
-473
-428
-407
-438
-485
-496
-465
-435
-429
-428
-407
-624
-586
-558
-535
-530
-568
-633
-407
-617
-538
-515
-578
-397
-387
-551
-220
-236
-562
-588
-531
-198
-174
-206
-237
-236
-219
-208
-204
-192
-170
-145
-379
-368
-379
-151
-150
-333
36
85
-258
-167
-531
-516
-187
-164
-221
-549
-571
-531
-196
-356
-271
21
-260
-306
-313
-282
-275
-330
-148
-162
-355
-298
-314
-371
-381
-321
-260
-268
-332
-375
-366
-361
-160
-232
-237
-161
-340
-337
-379
-135
-370
-377
-178
-204
-382
4
52
-289
-147
-160
-323
17
13
-304
-350
-374
-149
-190
-204
-182
-165
-177
-189
-158
-354
-319
-337
-370
-384
-135
-166
-205
-198
-136
-328
-329
-383
-158
-368
-274
52
59
25
-262
-274
-283
-295
-292
-266
23
24
-276
-331
-345
-297
34
72
45
-268
-285
29
125
-64
-62
-110
80
12
-303
-332
-317
-282
-284
-342
-150
-152
-348
-298
-312
-365
-381
-331
-257
53
99
-85
-4
285
-7
-53
-32
308
370
343
257
-50
-5
363
214
527
549
573
604
618
588
520
206
196
222
230
184
357
294
294
349
161
193
175
381
339
332
343
314
-42
76
-267
-259
42
17
-367
-518
-564
-221
-353
-315
-142
-521
-582
-545
-193
-367
-346
-132
-205
-524
-545
-523
-237
-229
-251
-540
-560
-558
-537
-250
-218
-195
-191
-203
-209
-200
-189
-186
-159
-299
-71
208
445
866
1027
989
1218
1606
1609
1592
1416
1822
1879
1490
1250
1312
931
732
593
63
-418
-740
-946
-1377
-1269
-1561
-1195
-1016
-1128
-1045
-718
-868
-493
-429
-439
-462
-415
-526
-363
-289
-333
-174
-227
-208
-182
-220
-575
-406
-411
-574
-170
-280
82
-126
124
85
58
81
-99
-20
-1
-49
-98
-76
269
344
329
-10
-66
-48
263
285
267
273
340
171
212
204
204
245
531
232
133
338
145
518
562
231
133
133
234
576
556
216
191
534
402
456
432
414
469
826
889
869
804
496
486
497
501
501
770
804
848
878
876
847
814
805
821
838
819
499
416
614
594
584
556
255
215
195
179
145
355
327
340
378
142
369
302
-27
-83
-119
107
71
24
-294
-370
-192
-247
-520
-247
-230
-241
-537
-576
-579
-546
-516
-541
-625
-462
-502
-477
-438
-449
-769
-835
-847
-798
-478
-441
-441
-449
-432
-390
-618
-638
-429
-444
-390
-566
-547
-619
-447
-438
-590
-245
-516
-592
-609
-534
-206
-236
-592
-635
-567
-215
-197
-523
-597
-612
-576
-520
-198
-137
-382
-185
-256
-247
-148
-320
-350
-209
-536
-236
-143
-366
-153
-194
-163
-339
-285
-284
-303
-308
-299
-305
-329
-348
-343
-326
-325
-351
-384
-135
-350
-278
40
56
28
-273
-299
-300
-287
-279
-278
-278
-288
-323
-384
-182
-183
-375
-293
4
-268
-301
-303
-270
12
-259
-299
-320
-310
-308
-354
-171
-196
-378
13
110
102
24
-288
-275
15
-263
-350
-172
-171
-359
-297
-289
-313
-317
-300
-293
-316
-347
-361
-368
-132
-151
-382
-306
32
65
51
36
48
70
73
61
58
69
60
16
-287
-291
-259
18
-265
-318
-343
-318
-271
20
32
36
41
51
68
94
119
115
71
6
-294
-279
42
109
-117
-126
118
-119
-66
-5
292
306
303
294
287
288
294
297
295
309
364
188
234
199
383
371
205
589
384
574
200
382
131
166
183
175
165
171
190
213
224
206
169
143
135
361
256
84
-331
-149
-147
-136
-150
-154
-370
-315
-312
-372
-176
-177
-139
-142
-221
-577
-617
-567
-219
-159
-163
-207
-229
-197
-143
-134
-199
-538
-553
-225
-144
-133
-170
-165
-339
0
-265
-350
-149
-342
81
279
211
404
892
905
1155
1582
1660
1440
1516
1909
1763
1724
1519
1265
1343
958
723
523
-337
-894
-1011
-1204
-1566
-1649
-1453
-1454
-1616
-1161
-1134
-839
-621
-518
-245
-254
-255
-248
-239
-225
-205
-190
-193
-203
-207
-201
-183
-153
-358
-286
48
103
110
73
28
27
92
-64
-4
-28
-104
105
-116
-37
260
-22
-70
-76
-31
281
310
322
343
374
137
135
133
146
170
187
187
188
207
246
547
580
593
597
610
390
448
508
802
806
786
510
506
775
795
804
799
788
785
792
802
810
827
868
669
701
681
878
829
825
854
872
853
814
789
795
823
843
835
794
488
456
444
424
620
522
176
146
168
190
168
373
333
311
278
-47
-127
78
63
50
21
-270
-297
-328
-382
-184
-211
-211
-238
-590
-466
-805
-791
-462
-400
-387
-411
-441
-462
-468
-462
-453
-450
-457
-469
-478
-486
-496
-494
-456
-390
-605
-632
-455
-777
-784
-491
-460
-454
-444
-407
-619
-608
-639
-414
-412
-391
-401
-455
-511
-772
-470
-409
-618
-586
-559
-539
-535
-532
-252
-215
-209
-516
-580
-578
-224
-351
-295
-353
-209
-529
-243
-158
-354
-367
-169
-207
-185
-375
-316
-296
-302
-306
-304
-320
-371
-172
-181
-381
-307
-283
-319
-360
-349
-295
-261
-287
-340
-357
-318
-265
3
-287
-327
-337
-322
-306
-298
-287
-272
-269
-290
-318
-320
-288
11
30
14
-279
-317
-340
-336
-310
-285
-278
-269
46
-100
-17
-49
60
-341
-372
-313
-297
-160
-603
-442
-618
-180
-291
-258
-293
-314
-284
20
33
-260
-315
-344
-333
-302
-285
-283
-269
32
87
117
107
72
35
6
-266
5
59
-127
-83
-76
-76
-53
-8
279
281
277
295
322
323
285
-7
261
321
381
158
181
225
534
540
218
134
364
158
214
216
191
213
555
621
581
204
374
130
167
363
-70
-258
-336
-292
42
66
29
-274
-293
-292
-299
-325
-351
-354
-342
-346
-132
-187
-208
-183
-144
-130
-150
-168
-163
-154
-164
-178
-156
-342
-275
-273
-344
-157
-141
-297
52
57
-264
-291
55
-34
371
220
612
857
930
1220
1625
1635
1602
1621
1460
1814
1804
1623
1327
1055
879
466
163
-342
-645
-1305
-1223
-1270
-1582
-1660
-1415
-1543
-1302
-1035
-808
-390
-546
-229
-189
-160
-145
-136
-364
-300
31
57
12
-314
-342
-311
5
53
88
-128
-82
-46
-26
-5
284
313
311
273
-21
-28
-4
284
325
130
191
200
134
313
337
228
630
627
214
316
310
163
231
169
299
-13
307
176
543
620
414
429
398
613
623
448
791
811
503
441
435
484
801
842
861
861
838
796
770
798
875
693
717
699
681
688
700
688
656
890
891
647
657
663
661
640
852
816
817
837
822
496
417
394
422
440
411
621
607
626
634
599
536
228
200
181
154
366
297
-56
92
20
30
110
-66
-71
76
-331
-171
-172
-132
-145
-247
-640
-462
-441
-620
-561
-558
-586
-597
-569
-528
-515
-541
-579
-590
-558
-517
-252
-532
-551
-527
-227
-223
-535
-589
-568
-212
-372
-356
-156
-217
-233
-215
-189
-159
-376
-351
-358
-367
-319
49
-115
123
7
-358
-383
-355
-355
-151
-191
-151
-302
50
94
99
104
120
-120
-112
-108
-101
-104
-121
110
97
106
127
-109
-95
-88
-97
-125
100
105
-92
-16
277
257
-30
-31
-16
-35
-100
107
-128
-66
-40
-68
-92
-64
-18
-16
-45
-25
321
131
325
-90
54
75
-95
-77
93
-261
-279
27
74
90
114
-78
-5
272
-30
-100
121
-119
-87
-90
111
45
30
87
-81
-25
-20
-29
-12
274
275
-14
-42
-33
-10
-14
-45
-54
-9
328
134
144
129
137
198
556
390
405
581
202
382
148
216
241
198
156
195
558
388
392
593
551
559
590
593
544
200
377
360
173
540
605
576
241
206
239
529
231
379
277
-28
-42
-71
-124
81
52
41
44
60
82
86
66
58
95
-99
-74
-110
91
75
99
107
72
39
76
-80
-6
-30
-119
80
104
-99
-101
85
22
41
-112
278
156
580
826
1142
1205
1439
1799
1794
1496
1489
1535
1824
1501
1566
1329
1147
764
846
528
87
-597
-642
-1063
-901
-968
-987
-927
-1051
-872
-408
-184
8
98
64
-280
-310
15
120
-82
-95
-114
-85
-22
273
260
-26
-15
306
129
173
167
141
136
167
204
212
187
155
150
178
208
218
219
234
517
518
219
166
163
233
578
615
583
535
537
581
609
585
543
547
613
437
477
480
490
790
841
863
856
842
839
837
836
852
644
703
731
717
694
705
741
751
712
664
671
748
1086
1106
1056
735
709
721
741
750
750
748
737
715
702
718
749
767
756
726
689
895
834
784
505
492
458
408
397
447
486
417
238
331
303
373
137
267
64
-321
-314
20
70
62
28
-260
-299
-356
-160
-195
-205
-214
-249
-562
-614
-634
-610
-559
-255
-228
-222
-222
-220
-221
-225
-229
-230
-231
-232
-230
-216
-190
-169
-163
-168
-162
-132
-354
-357
-158
-237
-540
-526
-222
-174
-132
-335
-275
16
11
5
42
104
120
55
-294
-342
-332
-328
-374
-181
-191
-134
-321
-295
-303
-295
12
77
117
124
124
-120
-113
123
90
83
126
-64
-26
-40
-80
-104
-93
-55
-16
256
-24
-80
-121
-102
-42
-10
-50
-118
-124
-53
266
-10
-80
-108
-69
-31
-43
-51
284
165
220
364
-78
96
-84
286
278
-123
-273
-305
39
-106
-54
-64
-94
-103
-83
-58
-58
-91
120
102
-127
-81
-51
-51
-60
-63
-64
-74
-77
-58
-37
-45
-81
-94
-53
265
277
-39
-110
-118
-68
-38
-81
103
99
-62
325
143
134
353
352
138
191
227
241
236
207
157
368
360
145
205
250
522
528
540
552
546
523
253
526
556
550
227
144
130
212
587
387
601
522
233
523
564
547
210
371
312
299
305
293
-19
-122
13
-337
-370
-352
-325
-322
-343
-366
-360
-319
-262
40
62
67
62
42
-257
-307
-314
4
99
-115
92
-257
-303
1
98
-92
-101
91
20
-276
-262
68
-57
368
550
478
677
922
1208
1457
1828
1796
1482
1533
1683
1759
1882
1618
1185
1174
1394
1089
518
-307
-633
-491
-859
-1079
-1286
-1293
-1079
-794
-593
-248
-207
-161
-373
-353
-351
-345
-321
-289
-261
29
73
119
-106
-96
-96
-92
-84
-85
-95
-90
-43
290
344
328
-6
-91
-122
-92
-34
276
311
331
342
351
367
144
200
515
551
552
534
533
567
626
416
423
400
384
395
415
406
617
567
559
599
395
423
423
427
459
507
796
807
812
823
827
806
769
500
795
863
654
655
891
891
654
660
892
861
868
667
735
1030
766
725
686
674
685
694
677
889
833
782
478
435
416
438
479
482
413
569
518
548
604
609
539
175
336
267
-48
-104
96
31
-300
-364
-383
-353
-322
-337
-138
-185
-182
-152
-152
-197
-255
-548
-569
-604
-397
-413
-634
-598
-622
-435
-463
-397
-556
-540
-629
-462
-445
-604
-555
-629
-493
-779
-435
-593
-594
-416
-458
-403
-565
-523
-542
-547
-234
-155
-135
-193
-522
-542
-255
-230
-245
-529
-526
-231
-194
-186
-186
-149
-327
-262
-272
-352
-170
-162
-326
30
62
29
8
60
-109
-78
109
-257
-313
-293
-265
-293
-364
-147
-358
-258
92
-117
-110
-116
-126
106
61
16
9
56
118
-126
72
7
27
-114
-2
260
-98
49
20
48
60
24
-276
-274
25
67
84
83
72
50
25
23
61
107
117
90
81
-127
-50
-16
-40
-67
-40
265
256
-102
25
-294
-265
58
91
81
61
58
71
89
113
-104
-58
-29
-38
-80
126
94
88
98
107
99
67
10
-308
-331
-279
82
-92
-95
90
30
42
109
-92
-96
113
78
100
-78
268
310
266
-94
72
54
80
75
2
-345
-364
-287
92
-63
-5
288
320
334
329
324
331
328
297
257
256
306
354
360
355
151
526
622
609
513
201
515
624
396
549
143
318
327
351
323
263
-12
309
157
216
193
373
300
-4
-56
116
15
-318
-348
-351
-365
-139
-150
-375
-314
-270
-274
-321
-378
-162
-185
-200
-214
-219
-207
-178
-144
-375
-365
-372
-382
-374
-335
-270
35
19
-319
-146
-153
-333
-257
-268
-355
-157
-349
90
300
206
590
501
1026
1370
1416
1800
1482
1631
1410
1874
2069
1775
1488
1169
1009
954
1033
607
59
-389
-656
-1084
-1001
-1400
-1162
-1296
-1118
-709
-838
-447
-563
-207
-179
-197
-200
-155
-341
-302
-320
-360
-362
-314
-263
4
3
46
-127
-80
-110
110
-86
314
147
325
-118
13
48
-79
270
284
278
304
348
365
355
360
142
181
190
178
182
217
514
532
525
523
546
577
584
560
537
549
603
405
431
426
424
449
486
497
472
448
464
776
826
828
792
510
784
834
884
669
711
749
754
707
895
862
877
646
893
849
809
790
776
501
495
781
838
869
835
498
423
390
397
411
408
639
599
557
526
513
250
228
179
367
314
297
301
284
-30
-112
81
54
38
-259
-332
-151
-196
-210
-226
-514
-546
-547
-528
-529
-578
-392
-431
-426
-415
-435
-473
-489
-467
-433
-412
-398
-635
-629
-403
-454
-483
-475
-475
-776
-822
-786
-407
-554
-560
-401
-470
-437
-606
-558
-576
-607
-613
-612
-623
-612
-549
-202
-156
-191
-255
-530
-235
-187
-174
-192
-208
-208
-198
-179
-144
-361
-348
-378
-157
-140
-319
16
42
17
-268
-279
-290
-311
-318
-281
25
19
-325
-166
-176
-342
17
46
10
-271
19
82
119
120
116
124
119
75
1
-313
-326
-302
-268
5
5
-259
-257
16
37
42
35
40
66
89
72
21
-268
17
82
118
93
36
-259
-273
-286
-308
-315
-290
-257
13
20
55
125
-66
-50
-75
-101
-115
109
36
-305
-353
-351
-332
-329
-331
-300
27
94
105
58
0
-268
28
72
74
31
-272
-277
28
101
-93
-68
-86
126
87
85
118
-111
-122
97
74
91
120
109
43
-285
-307
-260
72
111
74
-276
-355
-354
-268
89
122
75
21
29
95
-114
127
86
82
114
-124
102
57
48
77
106
120
-121
-92
-77
-106
92
67
102
-100
-83
-109
124
-118
-86
-73
-79
-68
-21
287
299
271
256
303
140
217
239
237
526
607
430
450
406
600
562
547
534
512
227
192
150
380
147
222
555
575
529
206
165
157
141
344
258
-88
95
38
-271
-321
-362
-379
-370
-353
-351
-365
-378
-374
-360
-356
-367
-378
-377
-381
-153
-199
-222
-192
-134
-354
-362
-130
-133
-378
-383
-153
-157
-355
-258
65
55
6
-264
35
86
98
112
-47
154
385
834
1042
1354
1488
1776
2079
1723
1705
2115
2000
2149
1532
1405
927
1042
511
286
-252
-652
-1140
-1304
-1200
-1541
-1229
-1312
-1124
-729
-867
-461
-546
-173
-155
-201
-241
-252
-523
-555
-545
-182
-275
72
31
-295
12
-71
316
275
-124
75
-97
-17
-97
-292
-145
-309
-107
284
291
-1
276
354
168
196
205
222
232
213
171
144
164
215
512
517
247
254
550
594
608
613
406
508
837
797
412
573
586
394
386
547
216
515
638
462
444
399
419
496
809
795
487
456
465
500
788
803
801
802
842
671
757
767
691
863
858
673
718
658
776
413
404
456
482
455
415
412
436
442
407
609
566
525
209
142
364
363
338
-7
-117
102
-98
-51
119
-341
-516
-545
-217
-184
-245
-573
-558
-221
-184
-236
-555
-545
-235
-244
-618
-503
-813
-771
-470
-494
-815
-843
-806
-480
-427
-407
-408
-421
-437
-437
-406
-624
-621
-404
-441
-428
-637
-610
-618
-621
-581
-525
-515
-564
-620
-616
-548
-215
-180
-202
-518
-583
-611
-571
-224
-143
-132
-174
-202
-174
-377
-349
-351
-342
-307
-284
-319
-139
-180
-140
-307
18
36
25
19
21
18
12
16
31
36
24
12
21
41
51
43
41
68
108
126
116
101
90
63
5
-310
-316
-267
37
22
-299
-342
-309
25
79
81
56
39
30
19
21
63
-123
-82
-110
88
74
119
-106
103
3
-318
-305
-265
-266
-305
-320
-293
-269
-286
-315
-302
3
7
-331
-177
-191
-346
34
74
22
-291
-287
20
60
67
71
97
122
94
8
-329
-345
-302
-261
-269
-312
-338
-325
-285
15
58
100
115
74
-267
-337
-347
-314
-298
-328
-370
-373
-326
-267
16
2
-293
-330
-337
-304
1
23
-260
-301
-297
31
122
-94
-123
77
36
24
30
47
74
102
117
118
114
103
73
15
-305
-344
-348
-342
-347
-354
-334
-272
74
-92
-22
281
306
313
305
286
-4
-50
-83
-76
-28
283
320
344
377
179
250
568
612
636
635
607
569
539
254
204
380
319
336
157
204
160
327
299
364
188
191
129
344
360
355
-20
33
-377
-140
-343
-355
-222
-611
-628
-250
-340
10
0
-312
-352
-356
-345
-345
-363
-132
-157
-189
-225
-253
-251
-211
-156
-375
-367
-370
-361
-348
-344
-348
-340
-305
-266
9
15
55
-83
367
599
842
1112
1156
1414
1793
1532
1533
1668
2164
2321
1992
1740
1481
1546
1319
662
360
-197
-881
-935
-1195
-1663
-1500
-1437
-1274
-1344
-902
-701
-496
-600
-532
-520
-251
-214
-166
-384
-354
-319
-288
-278
-283
-278
7
44
65
68
78
122
-72
-32
-33
-48
-42
-17
-8
-32
-47
-2
344
142
361
282
262
324
374
331
-5
278
202
392
410
248
346
362
518
624
561
140
288
313
154
220
225
211
234
557
628
408
405
391
399
431
461
471
471
489
786
821
822
794
776
802
864
662
669
886
847
856
652
688
661
847
805
827
867
846
499
411
398
455
771
777
481
433
402
390
398
426
456
444
620
237
374
296
-3
-41
-89
107
39
-290
-350
-369
-337
-290
-282
-340
-177
-252
-532
-528
-541
-595
-402
-427
-395
-597
-587
-398
-497
-799
-506
-445
-454
-807
-659
-673
-839
-482
-460
-505
-785
-488
-428
-426
-470
-477
-395
-542
-513
-595
-443
-476
-432
-390
-419
-491
-770
-443
-569
-213
-199
-248
-549
-535
-209
-150
-170
-527
-629
-638
-531
-380
-292
-304
-356
-367
-322
-295
-357
-230
-571
-537
-165
-339
-355
-160
-158
-318
57
106
64
-268
-312
-310
-289
-275
-274
-274
-265
8
24
33
40
52
64
62
33
-264
-281
-261
23
19
-268
-278
22
89
118
93
72
106
-87
-75
111
23
4
62
119
91
-274
-379
-145
-326
40
104
84
6
-309
-291
43
104
84
3
-323
-327
-294
-285
-316
-341
-309
29
103
121
79
15
-284
-281
21
73
80
21
-324
-367
-328
6
41
3
-318
-341
-311
-278
-284
-304
-283
59
-91
-32
-52
-117
82
58
51
33
-264
-310
-331
-318
-291
-270
3
39
105
-79
-44
-58
-92
-99
-61
-4
295
314
328
343
348
337
323
324
339
355
366
131
162
188
200
227
566
431
498
434
522
368
315
335
333
264
-74
-95
-39
295
344
364
371
356
291
-71
88
45
39
5
-339
-179
-209
-150
-315
-264
-281
-336
-382
-134
-359
-310
-274
-280
-314
-337
-328
-307
-316
-356
-132
-130
-367
-362
-376
-382
-364
-334
-314
-302
-287
-273
-272
-263
59
-52
144
595
787
1032
1346
1629
1488
1420
1588
1654
1838
1903
1659
940
804
387
575
338
-143
-685
-1324
-1264
-1637
-1477
-1490
-1617
-1394
-933
-1029
-856
-640
-188
-344
-343
-370
-371
-346
-325
-307
-278
11
26
32
55
95
108
55
-280
-290
80
264
382
353
-24
-103
-59
312
374
321
-32
-60
277
139
191
152
348
345
149
216
241
229
213
214
224
237
522
574
625
384
610
575
576
610
384
389
385
406
447
471
448
398
621
635
425
467
486
487
491
508
794
831
872
649
670
680
683
682
666
885
841
819
834
863
855
789
458
441
501
842
878
846
790
502
504
772
777
780
776
488
419
591
525
230
200
158
363
319
284
-8
-48
-81
-98
-111
118
72
16
-303
-380
-213
-539
-556
-527
-250
-535
-591
-615
-590
-565
-597
-416
-461
-443
-417
-463
-825
-894
-861
-776
-481
-509
-790
-492
-418
-397
-459
-789
-794
-463
-635
-606
-387
-448
-487
-478
-429
-624
-590
-597
-628
-393
-385
-607
-565
-528
-251
-517
-554
-596
-611
-591
-557
-536
-525
-241
-182
-363
-301
-275
-288
-329
-365
-367
-330
-290
-297
-353
-140
-359
10
109
114
43
-265
18
87
119
85
35
24
49
68
63
58
71
77
43
-277
-319
-311
-284
-287
-318
-333
-291
52
125
-113
117
84
64
44
22
20
57
112
-120
100
42
20
54
104
124
109
91
77
49
3
-281
3
66
109
99
63
40
38
38
30
32
60
102
-127
127
111
102
108
120
124
115
87
53
34
33
34
21
7
23
78
-122
-118
83
24
19
79
-106
-83
-114
99
79
89
108
127
-100
-51
-7
-1
-35
-67
-48
271
322
310
-8
-61
-60
-19
278
299
316
356
166
228
248
218
166
138
150
170
154
355
313
335
154
208
195
144
380
153
178
135
274
-114
58
38
55
64
27
-315
-155
-212
-204
-158
-132
-157
-213
-249
-228
-159
-345
-320
-354
-156
-185
-167
-140
-162
-250
-600
-628
-576
-236
-184
-176
-183
-175
-151
-380
-350
-301
22
99
-56
350
559
802
1050
1297
1267
1415
1440
1659
1449
1882
1788
1721
1660
1314
1148
1090
872
367
-246
-673
-1082
-1125
-973
-1376
-1176
-1346
-941
-1071
-699
-795
-602
-201
-169
-223
-525
-245
-157
-322
-284
-302
-337
-346
-333
-313
-286
22
103
-76
-33
-21
-16
-11
-15
-24
-12
286
323
323
302
308
352
137
137
368
360
371
372
361
374
173
234
251
237
246
548
577
548
254
547
394
450
630
233
177
253
607
597
245
203
560
472
817
783
468
487
836
651
892
824
781
796
841
875
884
881
888
657
696
722
711
664
873
865
647
687
684
644
861
854
869
873
860
846
841
833
796
470
391
595
587
606
611
564
216
128
348
359
357
302
-40
-102
121
67
-284
-355
-324
44
105
14
-174
-557
-546
-230
-522
-426
-842
-880
-804
-471
-476
-799
-847
-834
-781
-476
-454
-457
-469
-463
-423
-620
-588
-613
-421
-471
-483
-484
-506
-798
-803
-488
-639
-543
-240
-516
-590
-422
-475
-462
-419
-418
-483
-802
-772
-637
-233
-168
-187
-209
-182
-135
-382
-169
-225
-247
-226
-182
-139
-372
-371
-373
-358
-328
-300
-280
7
72
-111
-89
122
57
37
58
72
52
19
0
-270
-295
-303
9
108
-94
122
43
26
89
-103
-121
49
-275
-276
13
22
-266
-309
-324
-295
18
67
71
26
-274
-261
66
-109
-78
-104
107
87
95
101
84
58
68
-116
-14
291
-17
-122
77
109
-98
127
16
-335
-342
-296
-272
-275
15
110
-60
-65
105
25
13
37
39
9
-260
33
98
-108
-93
-100
-115
-124
-121
-114
-120
105
73
80
-118
-53
-41
-80
-98
-47
285
284
-86
35
2
88
-78
-97
59
4
60
-98
-57
-78
-84
-35
271
259
-43
-39
295
132
177
194
238
560
582
535
216
214
525
556
242
130
305
311
381
189
206
189
191
237
543
534
206
133
373
136
355
-39
46
-308
-312
-299
-341
-153
-167
-357
-283
-282
-348
-149
-140
-343
-312
-342
-153
-215
-239
-228
-204
-189
-182
-170
-146
-132
-152
-201
-236
-221
-164
-376
-380
-149
-139
-331
8
60
90
-94
326
556
772
669
1059
987
1212
1651
1484
1535
1891
1765
2052
1906
1421
1263
1183
1005
837
-20
-560
-874
-750
-1112
-1022
-1190
-1240
-1367
-1104
-832
-417
-401
-431
-637
-240
-381
-146
-523
-591
-519
-374
-285
-293
-324
-309
-266
3
-279
-288
23
118
-69
-72
-118
107
-123
-51
283
331
346
348
352
361
373
135
157
169
163
152
158
182
205
202
186
198
248
552
563
551
569
624
400
612
542
552
412
779
489
569
166
198
387
808
804
405
534
536
639
480
504
479
472
510
826
867
880
887
654
686
708
711
702
689
675
655
895
893
646
644
878
850
834
835
838
834
828
822
800
487
402
588
562
561
538
223
155
371
356
330
280
-22
-34
-17
-11
-44
-115
45
-312
-135
-163
-159
-192
-575
-505
-892
-890
-806
-500
-796
-862
-864
-792
-462
-446
-470
-485
-475
-473
-497
-781
-779
-500
-484
-494
-770
-505
-456
-392
-606
-606
-634
-398
-387
-613
-594
-596
-608
-614
-604
-574
-524
-210
-182
-208
-522
-553
-532
-253
-545
-628
-416
-625
-539
-249
-545
-582
-557
-239
-206
-207
-187
-375
-310
-311
-367
-147
-375
-315
-283
-301
-335
-348
-343
-333
-319
-289
24
87
109
71
20
32
121
-55
-81
67
5
71
-66
-53
70
-326
-325
48
113
31
-359
-141
-322
-261
-298
-354
-304
104
-41
-83
37
-295
7
94
107
29
-312
-334
-300
-257
28
58
100
-120
-106
-107
-117
112
60
8
10
73
-123
-125
83
75
-110
-28
-23
-88
126
-100
-67
-120
23
-294
3
76
94
88
-103
279
329
-41
39
-268
100
-51
-127
-347
-241
-168
58
-16
256
-97
85
107
-81
-67
119
36
38
-125
-35
-41
125
66
108
-60
-40
-115
64
83
-80
-4
259
-8
295
145
233
240
182
128
371
380
372
351
358
156
221
239
202
165
184
255
570
563
248
201
209
247
512
211
149
137
202
552
593
537
174
365
136
216
253
185
298
-96
93
96
111
90
30
-293
-332
-331
-308
-288
-283
-277
6
51
80
60
7
-286
-270
24
20
-318
-179
-248
-239
-199
-189
-211
-213
-162
-344
-300
-293
-283
19
76
98
71
35
56
-89
338
512
407
821
1049
1356
1649
1808
1827
1837
1707
2158
1984
2097
1821
1590
1180
950
507
-79
-583
-872
-763
-922
-1382
-1263
-1228
-1295
-1066
-878
-470
-582
-190
-355
-334
-363
-134
-372
-315
-258
22
8
-272
-282
-275
-259
24
75
-113
-55
-27
-19
-9
267
278
271
260
263
277
285
286
303
352
165
218
242
512
533
556
561
551
557
596
639
390
606
554
532
552
589
613
622
636
412
454
490
509
769
771
778
778
500
453
411
417
477
806
848
862
892
703
763
751
664
837
839
653
699
660
837
816
887
735
1046
1042
1031
1043
1047
751
687
652
662
675
650
859
830
822
802
501
465
468
484
445
591
213
150
143
128
333
293
303
334
318
-12
-88
-120
118
63
-281
-347
-364
-376
-170
-230
-245
-209
-178
-200
-253
-552
-583
-627
-424
-439
-388
-569
-540
-575
-627
-637
-591
-531
-249
-537
-614
-437
-469
-441
-394
-640
-413
-417
-610
-513
-211
-246
-554
-543
-206
-140
-166
-518
-594
-592
-534
-238
-245
-520
-251
-202
-149
-372
-356
-347
-346
-356
-365
-360
-350
-356
-131
-159
-158
-136
-373
-354
-311
15
65
49
-267
-292
22
118
-94
124
53
21
31
38
12
-283
-292
-266
19
24
20
51
-126
-33
274
258
-57
-112
113
93
60
7
-293
-295
1
50
75
76
80
94
104
99
98
127
-79
-59
-107
63
14
51
-121
-71
-97
84
23
16
58
117
-92
-77
-104
93
36
23
57
103
120
104
93
113
-110
-91
-82
-50
266
303
-1
-121
28
10
67
122
120
83
64
82
111
125
121
110
100
89
83
105
-92
-29
-7
-32
-56
-20
322
379
339
-36
115
91
120
-121
115
103
-116
-49
-12
-28
-53
-41
260
297
301
287
277
261
-38
-93
-106
-48
285
291
-60
82
71
-72
319
359
301
-9
291
158
522
550
517
233
512
569
616
626
613
611
634
400
389
604
574
574
568
516
177
134
175
519
575
565
527
517
533
537
246
189
137
352
300
-35
124
30
-294
-321
-319
-315
-333
-374
-150
-140
-347
-298
-283
-305
-337
-355
-370
-139
-165
-162
-383
-348
-344
-374
-153
-173
-173
-152
-355
-285
9
-277
-338
-349
-281
55
61
4
6
-94
183
457
657
1096
1354
1423
1694
2068
2081
2116
1959
2017
2161
1898
1626
1168
947
818
272
-520
-884
-1088
-996
-1170
-1270
-1202
-1001
-1053
-669
-833
-442
-520
-384
-361
-171
-232
-219
-149
-344
-320
-301
17
108
-95
-122
68
47
116
-31
284
-9
-98
115
-70
338
206
220
146
339
353
140
382
304
-4
300
145
185
129
322
360
233
591
582
240
185
224
567
626
622
590
587
631
427
445
417
637
626
386
412
446
504
838
643
653
881
861
881
679
746
1060
1097
1090
767
661
830
806
838
885
650
887
846
814
825
885
700
719
655
800
462
459
770
821
820
779
486
477
483
476
436
627
566
529
517
253
229
184
133
352
328
302
270
-15
-30
-42
-74
125
72
48
40
16
-292
-350
-145
-207
-556
-401
-462
-469
-469
-510
-837
-869
-823
-471
-391
-621
-629
-638
-636
-636
-397
-438
-482
-497
-468
-416
-635
-632
-635
-602
-539
-237
-250
-568
-625
-634
-593
-523
-198
-153
-150
-188
-246
-552
-583
-604
-632
-410
-433
-416
-605
-248
-158
-383
-154
-192
-188
-134
-331
-313
-342
-130
-155
-147
-357
-280
48
73
37
-276
-294
-262
23
6
-289
-288
32
105
114
51
-269
-258
93
-50
264
-13
-75
-122
124
-125
117
70
14
-277
-294
-314
-346
-365
-348
-305
-269
-262
-268
-262
13
31
44
61
85
106
115
109
97
77
50
29
37
67
86
68
23
-262
7
37
48
39
35
46
55
48
45
76
-120
-76
-79
-103
-106
-103
106
-262
-372
-141
-339
-290
-321
-141
-168
-355
16
94
101
67
40
42
61
72
56
26
13
36
80
101
73
24
5
35
84
115
119
115
120
-122
-117
122
102
108
-116
-102
117
49
21
66
-122
-96
-108
-100
-54
-42
-115
43
43
-93
278
266
-85
-116
-26
336
334
-16
-71
-17
331
360
323
299
343
174
251
553
577
570
515
171
359
345
366
130
139
159
204
246
248
211
174
163
146
318
-98
-262
-340
-316
-276
-308
-158
-249
-250
-184
-138
-148
-161
-364
1
72
31
-349
-206
-248
-245
-532
-626
-476
-512
-444
-577
-231
-211
-222
-197
-377
-301
-284
-325
-377
-145
-149
-158
-156
-365
5
-98
309
202
390
659
984
1272
1441
1512
1857
1784
1993
2306
2115
1530
1262
1365
897
435
19
-865
-990
-1161
-1551
-1459
-1799
-1428
-1166
-930
-1070
-748
-871
-411
-249
-225
-560
-614
-553
-148
-265
48
25
-277
-298
-291
-284
-294
-296
-260
75
-93
-41
-40
-67
-86
-85
-74
-67
-63
-49
-17
279
318
352
382
158
186
194
177
149
142
176
236
541
564
580
613
391
639
579
251
224
520
585
617
600
555
525
535
590
415
482
505
485
449
431
440
467
502
789
801
791
771
769
807
862
641
642
883
881
895
648
642
891
647
676
696
685
653
879
861
848
821
784
496
478
455
406
590
528
514
542
566
547
228
161
380
364
340
297
-5
-44
-92
84
-274
-345
-339
-283
1
-315
-183
-533
-529
-209
-194
-560
-494
-892
-651
-836
-787
-811
-865
-880
-849
-814
-794
-769
-469
-447
-502
-867
-686
-668
-840
-773
-511
-797
-813
-807
-795
-781
-487
-423
-621
-618
-416
-473
-478
-426
-629
-628
-420
-462
-455
-417
-397
-411
-422
-640
-559
-236
-226
-521
-561
-569
-551
-522
-234
-205
-193
-204
-215
-199
-152
-364
-358
-378
-375
-328
-278
-282
-347
-146
-368
8
118
116
6
-369
-129
-290
71
77
-277
-377
-382
-301
19
-265
-344
-365
-281
89
117
32
-334
-367
-314
0
-262
-320
-373
-379
-347
-312
-295
-291
-291
-289
-285
-287
-301
-321
-330
-317
-293
-285
-306
-336
-340
-315
-289
-292
-318
-328
-300
10
50
48
11
-282
-285
8
56
73
37
-284
-327
-316
-275
-259
-288
-325
-320
-274
13
-258
-290
-291
4
39
25
-271
-285
2
41
43
12
8
69
-95
-55
-114
23
-323
-323
-260
37
9
-317
-359
-337
-281
16
29
39
68
111
-114
-108
-126
107
111
-96
-17
298
283
-50
-110
-82
277
373
133
332
273
262
292
320
317
295
281
287
299
299
285
270
267
274
279
270
-8
-46
-105
74
-259
-309
-323
-321
-335
-381
-183
-215
-204
-163
-131
-133
-160
-186
-198
-212
-236
-255
-244
-197
-154
-140
-143
-131
-363
-369
-169
-237
-519
-246
-238
-524
-562
-566
-520
-208
-166
-374
-283
115
283
203
393
881
910
1198
1636
1646
1278
1196
1245
1602
1563
1293
667
398
521
352
-272
-789
-983
-1215
-1278
-1569
-1628
-1640
-1276
-1325
-1111
-683
-794
-407
-557
-250
-255
-530
-517
-205
-132
-326
-282
11
37
32
-268
-325
-337
-277
73
-123
-123
110
120
-99
-90
124
72
72
122
-96
-105
-113
-59
303
132
153
144
160
193
187
382
328
342
145
167
375
315
321
143
230
523
520
520
537
534
234
183
181
250
602
405
411
402
425
483
788
783
470
405
636
393
405
387
616
625
437
787
844
832
770
453
434
457
496
770
496
470
478
783
818
777
416
601
636
472
488
625
205
142
217
581
609
545
210
163
129
327
-3
-59
-88
-118
83
8
-318
-369
-139
-137
-371
-352
-364
-148
-190
-221
-513
-566
-612
-611
-573
-565
-387
-507
-817
-499
-399
-385
-485
-858
-885
-821
-498
-490
-772
-773
-487
-460
-449
-437
-413
-402
-427
-461
-449
-386
-590
-597
-386
-405
-628
-590
-595
-634
-406
-404
-389
-639
-632
-611
-588
-575
-558
-251
-165
-357
-367
-179
-232
-220
-169
-151
-197
-522
-560
-558
-535
-249
-210
-163
-377
-351
-328
-298
-279
-293
-323
-325
-285
3
-294
-134
-190
-138
-276
60
42
-287
-341
-353
-348
-353
-359
-351
-328
-300
-264
33
63
63
39
32
72
-123
-100
105
3
-337
-343
-269
79
106
39
-320
-358
-295
66
126
116
86
91
121
123
78
27
9
26
35
22
13
38
88
112
76
4
-295
-269
52
83
48
-265
-270
61
-85
-6
275
-1
-59
106
12
-290
-276
2
-287
-362
-136
-323
57
-103
-63
-38
259
289
270
-31
-46
-23
-16
-58
-104
-85
-1
333
354
349
382
208
539
551
255
222
233
525
535
237
168
381
131
162
175
166
167
192
217
209
170
134
367
310
-84
-278
-181
-224
-169
-365
-383
-221
-563
-564
-218
-360
-300
-307
-334
-334
-313
-307
-325
-325
-279
40
55
-259
-345
-143
-150
-142
-145
-152
-139
-362
-331
-314
-300
-284
-265
17
73
-66
363
543
436
836
1048
1339
1601
1438
1606
1237
1261
1660
1479
1591
1296
1051
691
857
580
91
-416
-734
-1099
-897
-1018
-1162
-1199
-1328
-1105
-643
-503
-410
-591
-527
-223
-191
-179
-186
-196
-172
-359
-292
-284
-338
-383
-364
-300
-258
-259
10
90
-50
267
-32
-128
75
113
-51
275
278
-24
-62
-34
332
218
565
562
243
199
225
551
585
539
188
370
360
135
155
147
148
206
577
430
471
443
397
384
395
387
597
549
549
609
437
506
808
852
647
688
702
689
678
687
696
668
857
809
835
665
719
684
864
839
891
698
706
681
687
732
748
692
870
854
651
690
641
781
418
623
606
591
574
564
553
525
225
186
170
165
142
350
293
-4
-26
-50
-105
71
-260
-299
-297
-294
-337
-174
-524
-566
-551
-256
-231
-225
-222
-219
-233
-533
-593
-640
-404
-404
-399
-392
-638
-639
-401
-413
-638
-566
-255
-545
-408
-786
-819
-504
-431
-414
-442
-452
-406
-595
-556
-551
-542
-247
-201
-189
-223
-526
-560
-586
-617
-386
-632
-583
-530
-251
-251
-237
-183
-360
-299
-289
-326
-375
-149
-161
-179
-220
-244
-192
-319
55
66
-276
-345
-305
61
113
32
-373
-208
-174
-308
75
-119
125
86
74
105
-121
103
5
-354
-153
-154
-129
-335
14
122
-95
90
-277
-311
16
95
82
-274
-366
-374
-304
42
114
-108
-118
88
21
-282
-290
-268
17
37
41
34
31
62
-128
-71
-74
115
41
29
94
-84
-74
115
58
100
-28
323
281
122
-273
-288
50
115
91
12
-294
-282
15
36
35
44
79
123
-116
120
83
70
94
-123
-104
-120
105
84
86
100
115
-127
-109
-78
-33
279
337
371
361
320
300
357
234
621
391
533
360
257
286
130
192
176
141
156
208
233
202
162
156
149
331
-71
68
77
-54
337
147
168
211
540
586
554
198
343
-1
-65
-119
94
63
42
38
48
46
-264
-373
-223
-514
-230
-210
-242
-525
-202
-312
46
5
-132
-224
-199
-129
-383
-215
-566
-586
-533
-224
-212
-210
-171
-350
-283
-269
-295
-305
0
114
280
228
454
679
1146
1349
1542
1425
1464
1432
1432
1531
1664
1694
1820
1614
1182
1015
744
568
61
-395
-762
-1319
-1547
-1644
-1582
-1172
-1017
-1134
-708
-508
-611
-573
-618
-394
-609
-528
-208
-179
-156
-368
-298
47
117
111
5
-384
-177
-366
-284
-292
-347
-296
-89
358
321
73
-383
-323
-93
282
-101
-312
-349
104
354
199
134
293
278
336
130
374
306
-25
-53
-9
352
210
531
537
519
525
556
579
566
536
539
598
423
471
476
477
768
819
833
787
468
458
774
853
888
865
826
814
835
857
857
850
868
657
695
689
646
868
873
888
863
796
484
485
776
506
413
562
527
571
615
596
536
252
532
558
537
230
199
205
210
177
372
313
269
-29
-70
-89
-76
-47
-27
-38
-100
28
-146
-552
-608
-576
-561
-394
-808
-655
-880
-497
-627
-560
-548
-574
-627
-418
-404
-572
-226
-231
-594
-448
-461
-388
-583
-597
-392
-394
-584
-513
-239
-523
-533
-239
-188
-179
-226
-549
-595
-614
-629
-637
-606
-515
-137
-303
-299
-364
-170
-178
-154
-158
-212
-528
-539
-253
-241
-529
-556
-256
-145
-311
-310
-369
-148
-369
-298
3
6
-263
-275
-290
-307
-306
-279
1
-267
-308
-328
-302
0
15
-261
-278
-267
5
-260
-278
0
74
-121
106
7
-317
-280
65
86
-262
-383
-157
-332
23
46
5
-274
25
88
88
18
-304
-287
59
125
102
34
20
92
-83
-85
87
16
23
62
38
-320
-158
-158
-329
13
33
-261
-298
-293
7
56
75
47
-273
-334
-356
-338
-306
-295
-305
-304
-262
73
-110
-86
-115
98
90
127
-80
-58
-66
-80
-81
-82
-98
-123
-123
-88
-49
-50
-101
98
85
124
-74
-42
-50
-77
-97
-106
-113
-120
-118
-91
-35
294
359
145
164
183
212
243
254
235
212
206
208
195
164
158
219
580
396
387
591
576
621
409
632
532
189
170
185
171
372
337
128
228
548
528
204
160
157
153
363
294
-10
-32
-74
92
-264
-311
-303
-297
-336
-131
-131
-338
-305
-329
-366
-341
10
90
82
2
-327
-341
-312
-292
-300
-312
-302
-279
-270
-297
-344
-364
-329
2
60
56
3
-292
3
-116
346
582
822
1068
1318
1538
1429
1499
1813
1686
2129
1975
2107
1525
1208
1331
1309
1147
425
25
-794
-1098
-963
-1324
-1214
-1569
-1264
-1335
-1107
-646
-469
-574
-223
-218
-534
-584
-569
-253
-217
-225
-234
-190
-359
-298
-304
-341
-342
-285
40
73
77
101
-93
-38
-45
-100
127
-91
-29
-25
-98
86
95
-69
276
286
-23
-56
-7
365
229
555
563
532
248
520
592
436
501
486
398
559
515
526
548
544
527
549
623
443
452
394
605
394
504
827
781
415
612
409
773
852
885
651
685
706
687
641
873
893
667
661
871
830
834
881
664
656
882
894
717
1054
1031
884
461
393
429
460
399
531
191
202
519
562
565
553
527
208
363
260
-66
-100
127
86
44
14
-263
-278
-295
-326
-383
-205
-532
-569
-565
-537
-248
-218
-208
-242
-570
-636
-640
-589
-560
-630
-772
-872
-840
-447
-582
-580
-431
-787
-505
-598
-157
-347
-179
-566
-586
-215
-352
-379
-557
-472
-488
-623
-249
-238
-558
-603
-584
-525
-195
-364
-277
14
-301
-153
-199
-384
1
77
60
11
-264
-262
-274
-296
-280
43
105
110
77
75
-127
-84
-125
18
-338
-365
-355
-380
-195
-250
-236
-161
-327
1
60
110
-122
107
36
-292
-318
-285
32
73
71
45
34
71
-113
-48
-38
-98
58
-276
-285
22
69
54
-267
-312
-280
68
-98
-43
-12
265
-9
-98
15
-355
-374
-322
-285
-306
-333
-293
79
-65
-32
-78
105
53
27
17
20
39
58
68
82
-127
-43
293
307
-12
-101
94
65
36
14
40
116
-80
-104
54
-291
-311
-280
15
62
-112
-18
266
-59
102
83
-103
-46
-96
24
-340
-339
5
98
-124
110
85
116
-43
317
351
299
-15
270
381
214
204
135
375
192
526
513
159
332
357
216
573
580
517
236
568
434
488
424
579
557
609
613
238
348
344
516
430
409
225
347
157
586
393
253
290
-92
-103
-104
87
0
-280
25
64
30
-307
-370
-380
-359
-336
-319
-307
-309
-329
-348
-340
-315
-308
-338
-365
-354
-316
-306
-356
-178
-213
-177
-368
-343
-377
-168
-165
-349
-257
55
63
62
87
-116
-49
315
255
795
1110
1380
1578
1483
1911
2112
2308
2425
2388
1933
1665
1441
1275
1301
885
311
-241
-881
-1109
-1291
-1220
-1599
-1585
-1187
-987
-1033
-826
-628
-222
-154
-166
-215
-256
-256
-202
-379
-318
-306
-324
-325
-296
-261
18
39
79
101
64
-263
-295
-260
41
26
-280
-278
49
99
51
-286
8
-43
183
252
159
322
363
512
388
430
404
623
606
620
420
499
795
504
429
388
396
392
587
240
209
527
627
442
469
481
509
806
833
829
797
500
467
448
438
433
442
479
805
872
881
834
803
845
672
703
649
858
665
1068
1146
1064
659
870
708
1033
672
448
557
582
400
612
216
146
251
455
800
447
561
523
569
544
368
-93
120
-33
277
-91
14
71
142
441
604
116
-616
-424
-130
51
-255
-1105
-1387
-757
-314
265
-367
-1046
-1361
-1105
-440
-393
-716
-1003
-988
-738
-479
-586
-519
-522
-604
-435
-441
-435
-794
-707
-684
-571
-71
130
124
-565
-505
-607
-325
51
-362
-430
-711
-762
-772
-149
-260
-246
-890
-1036
-807
-214
-348
-208
-556
-179
54
-83
105
-304
-195
-578
-422
-471
-479
-500
-791
-772
-628
-155
-272
-265
-327
-329
38
-86
-55
109
-266
-268
-98
345
305
1
-553
-531
108
211
144
-301
-422
-401
-380
39
-320
-237
-248
-327
120
-87
93
-291
-367
-332
36
86
-284
-219
-557
-155
81
-64
109
-274
-278
64
90
-299
-249
-581
-200
-269
29
-139
-567
-224
124
170
368
-270
-614
-607
-291
258
269
38
-209
-580
-536
-150
-266
74
49
-321
-164
-149
-334
-355
-537
-450
-615
24
175
248
-68
-180
-213
124
166
286
-206
-865
-849
-536
-281
41
92
274
196
166
-8
-41
157
574
366
-150
-797
-484
-362
-79
124
-384
-517
-158
27
92
-258
-372
-369
12
-94
266
321
349
357
370
187
587
488
791
407
196
325
341
149
149
349
341
165
541
638
433
441
393
552
192
376
307
-64
37
-321
-290
75
-93
-47
286
187
602
634
517
347
-60
72
-274
-267
-121
315
327
118
-362
-332
-46
182
321
-336
-403
-631
-347
-115
115
-329
-161
-286
-78
-36
42
-165
-209
-379
-365
-520
-418
-588
-293
-88
68
-177
-215
64
372
379
97
-152
-374
-121
375
227
534
633
823
1102
1186
1512
1706
1726
1689
1769
1978
2368
2011
1741
1505
1615
1402
706
353
-206
-836
-1087
-1324
-1275
-1603
-1243
-1307
-1115
-675
-441
-165
59
-94
-81
-75
-33
259
-34
126
71
125
-14
325
333
343
186
599
424
603
171
288
256
274
271
262
303
154
558
456
865
731
757
653
493
391
394
437
437
396
617
634
460
834
697
765
747
658
812
495
479
469
461
477
782
839
878
644
674
720
1032
1100
927
1017
1316
990
1085
687
667
765
1135
917
896
1129
1142
909
913
909
924
943
947
921
1135
1110
1133
958
1315
1336
950
739
885
721
896
911
684
404
587
496
689
720
853
460
392
390
428
495
794
486
602
247
558
436
452
540
338
268
299
-24
-259
-240
-536
-371
66
102
-270
-148
-192
-383
-261
79
46
-346
-208
-194
-321
47
51
12
35
111
122
14
-372
-137
-305
27
-270
-160
-562
-623
-590
-529
-534
-621
-440
-395
-230
-330
-306
-376
-140
-314
14
-289
-141
-174
-355
-288
-311
-355
-297
121
-7
-16
-121
56
56
92
115
125
-123
122
81
28
4
1
-265
-289
-299
-272
17
16
-260
9
78
-98
-60
-59
-42
272
315
269
-105
59
71
125
82
-352
-540
-582
-222
-375
-132
-209
-199
-300
-99
266
265
-12
277
324
293
-96
11
-304
12
106
-116
90
39
84
-54
268
-67
16
-363
-362
-302
-288
-322
-343
-330
-329
-357
-352
-260
111
119
-263
-135
-383
3
125
-118
71
36
88
-89
-96
27
-140
-182
-300
-113
-87
24
-339
19
263
136
293
-107
-69
360
143
-67
-316
-338
109
256
-56
70
71
-51
302
263
-92
120
-128
93
-261
-348
-362
-323
-281
0
15
38
97
-43
349
165
351
-48
-97
276
174
177
-2
54
4
111
-2
329
344
364
146
174
184
197
225
512
524
254
230
215
225
517
555
550
239
177
155
181
209
190
376
309
293
320
315
-35
63
-309
-315
1
19
-309
-136
-378
-272
53
-268
-136
-148
18
-37
270
-117
-275
-290
96
-34
-47
58
-364
-173
-163
-169
-229
-533
-218
-322
32
-293
-209
-527
-359
-93
286
-69
49
79
270
153
363
-16
262
523
655
988
1169
1202
1400
1336
1366
1239
1582
1183
1051
639
203
249
523
314
-333
-432
-861
-661
-751
-911
-1305
-1310
-922
-744
-867
-512
-388
-237
-375
-358
-163
-198
-152
-331
-299
-305
-261
127
-5
-5
-125
13
-265
37
75
62
21
-266
-258
57
-106
-24
-1
-20
-9
341
217
547
516
153
283
-77
112
91
97
64
-297
-149
-157
-303
79
112
90
-103
358
601
465
429
606
606
428
489
486
451
430
427
429
445
504
857
668
894
785
440
445
510
793
470
631
622
467
843
886
861
860
668
718
666
788
416
385
413
437
438
442
470
771
823
854
828
468
583
250
548
632
612
184
-11
-38
141
613
396
214
-43
72
84
119
47
-367
-224
-205
-363
-309
-336
-365
-314
40
61
-313
-229
-550
-202
-334
-349
-551
-785
-850
-453
-514
-203
-555
-633
-577
-217
-238
-393
-492
-626
-129
-300
-238
-789
-886
-438
-145
-268
-363
-548
-392
-604
-225
-383
-367
-160
-202
-176
-344
-283
-322
-171
-235
-196
-381
-136
-256
-639
-385
-516
-371
-303
-305
-310
-297
-315
-147
-515
-563
-519
-195
-185
-226
-240
-170
-303
58
123
-93
-67
-87
83
-281
-342
-313
32
92
48
-339
-200
-198
-329
59
93
37
-266
26
116
-68
-31
256
-1
-86
9
-368
-347
11
34
-336
-213
-221
-362
17
70
83
105
113
78
51
110
-24
287
-62
41
-286
-261
21
-268
-317
-314
-274
-272
-310
-309
29
118
108
5
-323
-284
51
34
-357
-218
-175
7
-96
-91
70
10
43
91
58
-286
-333
-315
-292
-314
-340
-290
92
-54
-41
-124
40
15
74
-92
-44
-84
75
31
119
290
141
350
-40
-104
-13
163
538
527
172
335
318
376
196
230
200
140
361
363
371
356
354
163
543
628
584
176
307
315
168
251
209
331
-36
-56
-14
274
265
-24
-51
-57
-55
-76
120
31
-318
-140
-209
-530
-552
-212
-290
113
118
8
-318
17
-93
-57
65
-379
-207
-155
-315
-282
-330
-131
-138
-345
-294
-313
-144
-203
-130
60
-11
327
357
205
427
669
1076
900
989
1349
1386
1325
1001
1298
1172
1226
1328
743
637
334
67
-228
-817
-1121
-1332
-1192
-1251
-1263
-1198
-1294
-1089
-663
-807
-466
-624
-527
-215
-203
-182
-380
-316
-300
-330
-331
-268
85
-117
104
19
-289
-264
75
-111
-104
113
97
-105
-10
305
302
282
300
328
289
-100
20
6
-127
262
272
-70
-111
-9
183
586
605
533
201
159
140
143
195
550
632
627
537
199
185
209
215
197
213
517
525
213
190
577
815
681
800
551
237
468
731
708
407
166
238
509
658
788
548
186
521
388
440
444
467
508
781
768
769
801
811
782
489
482
506
768
466
390
576
532
246
202
136
316
-6
-29
256
320
134
192
237
521
250
161
270
-126
43
-257
-323
-196
-603
-422
-633
-526
-200
-202
-217
-190
-157
-184
-521
-563
-255
-185
-217
-605
-443
-399
-539
-253
-611
-461
-434
-560
-227
-544
-395
-403
-552
-202
-219
-533
-250
-132
-328
-176
-614
-410
-256
-329
-341
-570
-801
-813
-597
-332
61
30
-345
-195
-214
-137
-292
-271
-381
-542
-600
-238
-317
41
8
-343
-130
-330
28
89
58
-285
-351
-337
-270
24
-269
-316
-270
-125
271
279
-105
14
-267
57
94
17
-134
-240
-245
-189
-379
-294
86
-49
-27
118
-279
-310
25
93
57
-297
-331
15
-108
-45
-76
117
73
48
17
-276
-295
-284
14
81
-98
-44
-46
-101
91
66
71
43
-302
-134
-382
-275
68
15
-159
-545
-237
-309
81
54
-332
-170
-151
-318
20
64
66
22
-303
-338
-291
57
113
85
34
42
109
-118
57
-332
-130
-300
80
97
9
-281
115
329
129
-59
-302
-338
97
-23
108
-188
-627
-551
-348
24
3
-307
-311
-283
-271
0
52
115
127
68
0
-276
15
87
-63
314
153
178
146
370
365
367
351
321
297
273
-15
-27
290
164
535
561
515
220
232
254
219
130
302
-7
-32
-15
323
200
553
524
143
300
320
162
215
170
324
-28
-118
32
-330
-375
-344
-310
-348
-181
-221
-136
45
-53
-14
-80
78
16
4
5
-293
-384
-224
-518
-213
-381
-355
-182
-563
-596
-214
-271
84
7
-378
-363
102
328
344
127
-349
-323
-51
228
580
570
444
1089
1555
1803
1483
1564
1275
1412
1512
1639
1333
1058
654
791
553
-74
-194
-479
-695
-1149
-1307
-1350
-1016
-911
-1117
-1093
-729
-774
-557
-189
-211
-550
-611
-613
-539
-147
-264
47
-275
-381
-149
-322
32
43
-274
-304
10
101
-117
122
107
126
-100
-95
-105
-93
-57
-29
-23
-17
264
302
324
299
-5
-37
-35
270
341
144
172
173
173
187
205
206
189
186
228
563
385
412
629
568
543
571
612
593
247
152
377
166
233
533
564
608
417
480
773
781
783
793
812
829
812
499
427
395
420
446
395
540
228
580
776
642
833
406
584
441
877
656
477
227
379
228
401
463
617
191
323
291
309
322
310
289
289
333
139
148
310
-98
58
69
113
59
-370
-537
-569
-228
-156
-183
-250
-248
-167
-354
-371
-194
-245
-240
-247
-568
-394
-403
-573
-226
-240
-607
-434
-620
-171
-278
-303
-226
-411
-484
-449
-398
-407
-474
-806
-831
-511
-615
-184
-341
-362
-189
-220
-153
-315
-301
-137
-517
-566
-523
-176
-340
-269
27
25
-271
-309
-304
-263
4
-327
-201
-537
-245
-365
27
84
76
80
-104
-18
-21
121
-257
-257
-127
256
-5
-111
85
-117
-51
-106
-274
-151
-151
-340
-338
-164
-213
-381
61
-54
-49
108
0
-305
-289
14
59
85
77
53
52
90
-114
-100
125
93
94
105
69
-280
-356
-342
-263
36
-263
-340
-368
-335
-299
-291
-278
32
110
-93
-79
-89
-128
40
-337
-173
-191
-163
-150
-171
-186
-154
-340
-262
75
-102
-66
-105
71
20
35
72
80
54
25
10
-265
-291
-311
-325
-345
-363
-343
-268
64
73
22
-269
22
89
113
63
-269
-312
-306
5
107
-35
272
-49
69
-279
-280
-273
-374
-560
-416
-605
-180
-337
-369
-164
-358
48
-107
123
42
26
95
-95
-106
99
88
-106
-35
-26
-77
119
96
101
108
120
-98
-28
306
354
370
378
138
154
160
158
148
373
312
259
291
175
599
407
602
529
566
443
789
460
515
322
-10
283
347
358
296
-42
-52
326
529
427
428
563
204
201
254
243
382
-24
-111
124
89
-269
-131
-146
-285
119
-97
50
-354
-135
-301
47
18
-365
-196
-157
-310
-257
-269
2
109
-27
-29
69
-384
-224
-208
-192
-521
-386
-430
-583
-148
-279
-276
-328
-327
33
-58
367
513
415
868
1100
1345
1574
1488
1822
1825
1831
1897
1728
1709
1516
1230
1000
1116
664
515
-319
-847
-1132
-938
-959
-1318
-1198
-1225
-1337
-1102
-883
-484
-408
-627
-603
-552
-191
-320
-257
-302
-379
-365
20
-119
99
-340
-253
-521
-138
-263
27
-274
-324
-327
-300
-268
19
62
119
-90
-66
-53
-28
271
311
324
313
297
305
337
365
366
359
383
190
235
209
130
345
148
238
247
159
352
176
621
491
436
539
225
594
489
493
598
224
557
508
866
473
235
165
600
826
842
628
165
190
422
891
663
804
439
423
458
481
473
452
442
454
483
511
510
475
446
461
497
499
460
425
429
444
421
619
575
563
541
210
353
265
-18
-10
-16
-62
126
93
-115
-12
306
-21
51
-371
-159
-371
-379
-517
-454
-819
-784
-402
-525
-171
-381
-144
-229
-583
-614
-553
-214
-214
-584
-462
-496
-403
-521
-183
-182
-221
-248
-520
-542
-562
-560
-546
-539
-546
-558
-564
-575
-597
-605
-578
-542
-527
-252
-182
-346
-332
-179
-549
-524
-346
78
80
-313
-173
-166
-340
-299
-353
-205
-550
-581
-553
-240
-202
-196
-168
-331
38
79
8
-350
-376
-329
-312
-379
-200
-182
-336
-272
-316
-145
-148
-301
59
77
21
-283
-282
-262
-261
-280
-297
-308
-313
-298
2
44
44
3
-277
11
60
57
-257
-289
2
44
19
-292
-288
38
64
-281
-157
-199
-383
-314
-306
-291
60
-97
110
-334
-201
-366
90
-119
-310
-539
-561
-364
95
-127
29
-315
-308
6
38
17
-294
-350
-366
-302
81
-67
-67
98
2
-289
-278
-269
-277
-297
-322
-353
-356
-290
85
-87
-107
75
52
94
111
38
-302
-274
106
-90
61
-361
-135
7
-102
-116
-262
-357
-291
112
-77
115
6
-285
38
-115
-66
-119
32
-277
43
-74
268
-38
94
39
116
-30
-26
121
36
91
-17
320
260
-117
89
-112
-38
-32
-81
-94
-22
351
171
164
382
156
538
418
427
520
303
-53
281
168
219
160
354
135
513
612
609
532
197
167
192
223
213
166
132
159
241
568
577
540
246
220
162
307
-69
113
79
29
-319
-165
-238
-528
-546
-557
-545
-250
-195
-383
-300
44
88
57
-278
-338
-355
-362
-144
-215
-518
-240
-165
-350
-336
-370
-145
-384
-345
-349
-162
-227
-197
-313
-128
280
147
556
776
1047
1321
1555
1464
1535
1800
1850
1754
1940
1971
1771
1464
1228
1323
1049
550
-291
-461
-668
-1095
-1384
-1444
-1822
-1422
-1163
-978
-1141
-1028
-831
-610
-205
-160
-184
-220
-229
-196
-147
-136
-183
-233
-218
-142
-334
-332
-354
-317
37
106
86
30
31
120
-26
260
-61
-128
-97
287
142
374
-24
-125
-45
172
591
561
155
324
134
250
519
152
286
-12
257
263
267
333
209
570
570
250
230
552
624
607
516
211
532
637
414
613
558
615
775
660
682
849
482
436
467
783
820
816
785
501
768
822
892
675
674
669
702
760
1035
708
835
483
476
779
794
469
599
231
189
218
536
578
561
236
153
350
329
329
325
303
260
-48
-59
266
378
167
313
88
-344
-355
-265
-262
-186
-442
-812
-424
-176
-290
-348
-236
-538
-183
-333
-375
-555
-455
-458
-609
-560
-386
-506
-777
-403
-514
-210
-522
-601
-627
-589
-531
-238
-225
-217
-202
-183
-195
-522
-631
-456
-456
-638
-560
-553
-612
-411
-637
-251
-360
-301
-356
-186
-195
-384
-338
-152
-558
-400
-622
-256
-191
-225
-543
-538
-187
-319
15
23
-266
-299
-315
-311
-310
-318
-327
-322
-298
-275
-279
-298
-288
17
54
19
-325
-363
-293
85
125
30
-358
-138
-302
70
84
-279
-151
-178
-335
64
-123
85
-260
-282
37
94
59
-285
-310
45
-86
-78
39
-382
-176
-349
10
24
-310
-132
-369
-258
105
118
36
-300
-302
9
33
-278
-353
-368
-314
18
65
82
69
27
-273
-279
29
94
105
64
41
84
-111
-127
9
-379
-151
-317
45
58
-285
-364
-332
55
-79
-48
-93
100
52
21
9
35
104
-85
-71
-111
93
69
84
-123
-58
-30
-94
16
-362
-354
13
84
30
-337
-367
-273
107
-106
109
53
33
53
95
-107
-58
-58
-122
44
6
56
-100
-14
266
-42
121
72
117
-40
262
-55
103
93
-52
328
347
277
-13
315
189
527
526
236
203
156
362
358
171
525
579
569
554
573
603
598
560
532
523
233
152
342
369
224
572
567
231
175
181
190
382
-13
102
22
-262
-297
-357
-150
-143
-344
-300
-309
-350
-376
-376
-381
-167
-233
-524
-249
-200
-161
-139
-367
-320
-292
-319
-378
-149
-357
-283
-291
-165
-582
-632
-531
-384
-337
-149
-197
-367
72
-30
296
137
632
736
1313
1205
1217
1232
1614
1834
1786
2134
2065
1872
1640
1169
937
850
358
-182
-874
-1144
-1311
-1200
-1570
-1570
-1168
-940
-733
-850
-771
-474
-447
-393
-535
-147
-359
-181
-546
-544
-154
-283
-305
-202
-581
-565
-191
-350
-329
-338
-317
0
62
95
98
74
49
62
-126
-30
294
312
321
353
134
379
317
269
296
130
206
220
189
165
165
163
151
149
186
247
542
533
248
246
536
579
601
601
591
588
609
410
475
483
398
550
548
426
816
773
563
141
205
457
668
676
797
441
466
821
645
672
664
889
831
506
463
469
506
785
504
439
626
592
605
388
410
394
612
578
551
252
182
363
319
319
339
337
294
-17
-35
261
323
324
-34
75
-272
-276
-263
-320
-193
-563
-587
-534
-205
-156
-147
-186
-523
-603
-615
-546
-210
-208
-558
-425
-510
-792
-783
-487
-426
-397
-452
-832
-670
-896
-506
-386
-632
-465
-807
-805
-465
-624
-588
-638
-473
-508
-431
-547
-206
-248
-622
-429
-621
-234
-149
-154
-190
-186
-150
-145
-203
-519
-243
-143
-317
-334
-156
-187
-371
-260
35
-285
-361
-368
-333
-354
-195
-537
-525
-201
-187
-256
-574
-541
-188
-134
-160
-186
-375
10
75
7
-377
-172
-346
43
106
53
-298
-337
-300
9
20
0
-260
14
20
-272
-320
-342
-318
-263
65
-125
-96
125
45
-267
7
59
79
26
-333
-180
-247
-256
-205
-134
-375
-179
-236
-193
-321
20
-275
-369
-141
-326
15
37
24
31
53
44
13
28
116
-63
-98
18
-362
-358
13
122
124
28
-305
-278
86
-88
-106
73
50
114
-82
-114
51
28
123
-25
-37
104
28
81
-79
-100
-259
-163
-180
-315
67
94
33
-286
-292
11
72
107
97
48
-263
-290
-276
16
44
68
96
124
-120
-127
122
-126
-118
127
115
-127
-81
-30
-10
-23
-48
-49
-9
317
372
362
292
-18
265
359
189
229
527
630
499
785
408
223
377
145
184
364
-76
38
86
316
564
403
573
178
128
171
189
335
-127
-309
-379
-360
-318
-276
25
52
11
-353
-195
-208
-152
-384
-194
-554
-596
-526
-135
-286
-269
-326
-144
-199
-237
-540
-594
-617
-575
-224
-141
-133
-185
-212
-149
-280
59
29
-343
-191
-196
-353
45
-88
290
231
809
952
1279
1656
1591
1272
1647
1667
2102
1711
1575
955
1075
1041
813
277
-628
-1109
-1367
-1565
-1814
-1760
-1748
-1528
-1273
-1354
-941
-698
-406
-219
-204
-245
-188
-299
33
-310
-195
-210
-345
7
-301
-172
-201
-345
23
12
-311
-268
-76
352
329
-104
35
113
295
140
354
276
278
368
203
226
173
334
-18
-61
-15
343
142
340
-24
-44
331
243
589
576
537
534
559
572
593
401
477
480
390
555
560
388
441
399
590
606
438
504
480
416
403
467
818
885
643
880
846
810
788
793
821
849
854
839
844
644
730
758
661
484
385
449
828
809
583
332
294
233
442
461
579
222
522
614
597
201
317
279
318
329
-11
124
69
-127
-18
283
-42
91
18
10
-265
-360
-222
-517
-214
-191
-524
-625
-611
-228
-159
-527
-465
-789
-423
-567
-626
-803
-888
-804
-422
-395
-436
-415
-581
-574
-473
-642
-896
-489
-405
-511
-681
-715
-855
-492
-492
-505
-411
-518
-234
-385
-822
-850
-468
-603
-612
-458
-780
-481
-623
-524
-226
-231
-240
-226
-198
-188
-209
-225
-197
-132
-344
-367
-173
-196
-163
-134
-163
-217
-209
-372
-257
52
28
-280
-305
-292
0
36
45
5
-328
-382
-364
-291
17
2
-306
-333
-313
-289
-301
-335
-343
-313
-281
-285
-313
-337
-342
-344
-353
-347
-312
-270
-264
-296
-325
-331
-333
-352
-369
-346
-285
7
-279
-326
-305
37
95
51
-314
-378
-354
-292
-265
-287
-316
-311
1
88
-100
-111
46
-332
-382
-341
-274
5
-264
1
44
69
36
-265
11
89
118
13
-175
-541
-208
4
-76
-60
97
32
98
-21
292
-60
29
-329
-317
-260
11
-277
-288
23
108
-85
-55
-47
-46
-51
-44
-15
277
292
282
287
347
181
224
176
332
281
344
223
571
547
191
376
146
228
516
197
353
299
310
319
271
-58
-60
316
223
555
221
307
-92
113
116
89
-257
-379
-231
-550
-546
-212
-343
18
41
-263
-312
-324
-334
-379
-187
-218
-201
-197
-238
-519
-198
-325
3
-315
-183
-233
-166
-329
-320
-141
-222
-237
-180
-331
57
-68
287
369
515
788
1130
1379
1181
1382
1382
1228
1563
1228
1022
1098
751
892
614
-76
-254
-828
-1078
-1362
-1421
-1881
-1864
-1432
-1257
-1161
-1328
-1132
-828
-550
-168
-179
-211
-196
-171
-191
-229
-207
-351
28
65
10
-312
-321
-270
62
-123
-77
-92
78
-270
-273
86
-53
-37
-103
119
-64
311
362
327
292
330
154
187
142
333
318
361
163
194
176
367
295
275
337
184
253
521
522
561
621
396
396
410
447
456
402
592
609
458
804
796
483
483
810
852
790
424
390
454
509
448
571
522
633
803
870
803
477
780
660
749
732
673
659
678
648
803
451
444
774
843
845
786
457
394
604
586
592
592
556
232
166
383
371
370
383
147
135
305
-97
40
34
126
-51
-80
40
-363
-178
-175
-167
-210
-559
-399
-457
-474
-455
-405
-608
-599
-393
-442
-412
-563
-232
-531
-394
-465
-435
-633
-634
-426
-446
-412
-392
-423
-452
-419
-601
-557
-553
-524
-214
-227
-614
-507
-509
-596
-181
-203
-617
-465
-399
-252
-180
-226
-555
-567
-523
-229
-236
-520
-538
-538
-519
-231
-180
-379
-337
-321
-327
-336
-341
-347
-362
-384
-151
-175
-214
-245
-211
-346
70
-87
-110
57
9
41
96
97
36
-280
-298
-288
-291
-317
-337
-313
5
58
48
-285
-369
-384
-311
45
81
27
-317
-358
-323
-259
22
-269
-330
-349
-300
33
75
54
12
9
38
38
-270
-315
-279
51
43
-336
-190
-131
78
-13
-48
47
-305
-261
89
120
87
39
-273
-351
-150
-352
53
-106
79
-347
-166
-326
67
74
-295
-371
-303
90
-92
-110
119
-110
-54
-23
-1
316
157
219
193
372
322
340
375
360
287
-39
-29
323
189
515
519
254
539
580
554
164
-15
123
120
-64
260
305
362
191
517
521
213
169
162
149
323
-71
73
44
67
62
4
-304
-295
6
3
-324
-138
-374
-262
97
97
8
-328
-344
-337
-368
-179
-217
-186
-380
-362
-135
-135
-303
76
108
-257
-143
-161
-288
99
71
-360
-240
-183
36
261
145
241
635
845
1092
1333
1540
1426
1475
1445
1661
1649
1616
1215
947
641
635
139
78
-609
-1053
-1364
-1209
-1157
-1336
-1317
-1329
-1284
-1119
-861
-610
-195
-138
-139
-158
-191
-248
-555
-530
-144
4
33
-355
-535
-592
-213
-288
41
-281
-370
-361
-261
90
123
114
106
104
110
-95
266
369
133
324
264
297
132
156
326
-40
-49
302
136
138
349
360
206
582
633
599
536
235
219
221
238
519
523
227
167
143
194
557
423
506
509
427
577
559
424
856
666
808
625
551
638
501
775
454
433
770
875
894
824
508
799
648
717
685
844
776
787
841
858
816
785
843
704
760
677
771
416
432
475
426
527
370
301
314
346
361
353
323
265
-61
-103
-106
-114
72
-313
-160
-160
-330
-261
-296
-163
-515
-241
-146
-355
-158
-243
-243
-175
-172
-564
-463
-450
-529
-144
-237
-471
-855
-503
-559
-193
-236
-594
-394
-392
-615
-562
-514
-251
-545
-571
-514
-149
-347
-136
-199
-170
-313
21
-284
-161
-514
-256
-200
-169
-173
-166
-362
-271
24
-289
-135
-191
-161
-354
-359
-213
-610
-390
-528
-320
110
-87
-122
91
102
-109
-101
87
-265
-304
5
95
-114
-104
-74
-12
267
-73
46
-264
73
-91
-123
1
-312
81
315
170
324
-121
42
93
-81
-90
55
-299
-293
59
-105
-85
-115
-126
-93
-50
-43
-81
-128
103
93
82
67
57
64
101
-96
-50
-72
81
-270
11
-92
309
308
-58
-116
-41
320
317
-33
-77
-10
317
-13
36
-144
-165
-317
46
78
52
32
51
106
-75
-6
295
312
296
-5
-52
-60
-14
293
288
-29
-73
-45
282
314
285
260
294
358
131
138
179
245
242
374
-24
-35
338
156
332
-80
-118
302
541
418
395
570
554
388
776
840
508
589
201
238
418
817
774
595
221
555
495
871
821
432
620
402
474
503
496
489
480
429
574
182
322
-21
-78
-75
-3
334
338
-25
103
86
-57
312
275
82
-375
-168
-293
-95
276
-8
-118
67
111
-15
336
297
-119
-277
-309
38
-93
-2
318
380
156
367
269
-17
353
551
432
443
437
814
1103
1214
1534
1732
2056
1779
1754
2066
1948
2040
1941
1904
1558
1292
1070
773
369
-286
-564
-472
-867
-748
-1063
-717
-779
-593
-232
-188
-149
-352
-317
-326
-347
-330
-260
80
-108
-31
353
242
546
172
-26
-113
-13
139
155
267
-114
-47
166
589
593
250
223
551
630
632
575
540
552
560
519
210
206
245
519
221
186
249
407
812
848
793
508
819
646
671
643
890
666
683
895
846
645
1069
962
961
1081
689
654
684
687
895
859
894
718
1032
1046
1071
899
1006
1309
1002
905
1097
1080
1072
1036
733
710
716
745
1072
938
1311
1325
947
1048
749
1091
908
1081
887
771
839
730
1035
700
884
664
742
724
856
494
509
845
844
474
599
554
584
585
242
374
309
326
357
319
-40
-123
-108
257
361
349
-46
41
-309
-305
-265
1
-282
-302
-272
48
84
48
-288
-320
13
-103
-18
-78
31
-308
10
-107
-41
-118
4
-300
43
-86
-43
-119
22
-272
52
-97
-46
-91
88
64
121
-34
301
319
292
265
271
305
320
287
-29
-57
-26
289
317
300
291
338
151
160
350
295
332
167
194
364
264
289
181
560
519
350
-39
-24
360
224
541
570
592
575
226
352
276
298
356
352
265
-81
-75
292
183
547
596
601
566
247
184
148
381
332
-10
-69
-37
338
192
218
177
153
190
244
249
197
137
359
345
324
301
305
334
352
338
323
364
206
546
542
204
381
362
361
306
-59
120
-112
-18
301
285
-14
-12
298
350
377
144
182
205
167
336
285
327
157
183
360
264
267
361
175
138
318
338
213
583
561
194
144
209
527
200
281
-84
-31
362
180
146
332
310
357
202
585
424
415
553
190
240
434
843
809
413
632
775
689
694
805
441
504
656
722
659
826
802
827
837
832
853
889
874
789
466
497
838
860
782
429
402
426
407
563
184
369
350
347
344
340
301
-70
28
-310
29
-36
344
297
-110
59
126
276
365
335
-19
-95
-110
-94
-84
-79
-49
267
312
296
-33
-108
-123
-84
-47
-56
-101
-119
-76
259
311
326
380
555
844
1142
1352
1254
1452
1716
1939
2009
1946
2161
1990
2379
2370
2114
1450
1332
1075
837
211
-301
-805
-1125
-988
-1017
-1298
-1284
-1141
-886
-399
-551
-541
-251
-143
-281
26
6
-266
17
64
106
-116
-72
-21
257
-34
-106
95
104
-75
277
331
327
302
301
325
354
140
227
590
616
240
299
-63
-4
364
365
-13
-97
-1
223
400
432
389
630
386
611
528
220
254
564
551
230
227
609
792
646
643
841
781
459
632
591
397
504
789
446
611
639
508
847
814
494
508
847
886
832
509
783
868
673
667
643
641
884
810
442
638
410
469
473
414
615
625
431
483
484
448
405
619
574
543
520
230
164
345
320
365
171
178
371
293
261
257
-25
-64
-54
258
-3
94
-155
-562
-238
-310
21
-377
-631
-785
-476
-548
-144
-133
-240
-628
-450
-440
-610
-517
-241
-574
-436
-493
-448
-636
-396
-481
-772
-407
-219
-133
-211
-578
-566
-179
-334
-374
-228
-536
-518
-548
-429
-827
-838
-462
-619
-385
-459
-438
-548
-129
-311
-320
-343
-352
-374
-170
-221
-250
-539
-603
-411
-410
-587
-220
-143
-129
-152
-168
-148
-338
-259
44
39
9
-263
-270
-300
-348
-366
-348
-367
-225
-622
-639
-222
-277
41
-315
-168
-141
-265
80
30
-343
-145
-346
8
54
30
-273
-298
-320
-368
-165
-159
-329
15
-270
-187
-631
-409
-244
-272
85
-273
-228
-623
-592
-191
-318
-291
-355
-188
-253
-523
-220
-131
-304
-286
-322
-355
-334
-281
7
0
-269
-266
-286
-362
-202
-239
-186
-353
-308
-313
-312
-284
-262
-287
-348
-150
-184
-203
-222
-240
-253
-254
-229
-156
-306
35
44
-268
-324
-333
-320
-339
-145
-203
-206
-157
-352
-321
-330
-366
-145
-160
-142
-352
-314
-297
-292
-284
-275
-280
-281
16
100
-113
78
-311
-379
-325
6
-283
-157
-240
-181
-303
24
1
-288
2
88
-76
286
147
201
367
-86
35
83
-26
295
-58
45
6
121
297
186
531
590
631
398
393
611
538
194
377
341
329
307
278
283
340
152
193
209
225
220
144
-15
79
12
38
53
-280
-152
-233
-225
-182
-161
-152
-367
-307
-286
-332
-145
-182
-186
-202
-251
-575
-632
-403
-385
-581
-244
-198
-216
-529
-559
-531
-233
-229
-516
-549
-566
-555
-256
-184
-354
-316
-364
-197
-195
-277
275
556
488
887
1092
1368
1612
1476
1509
1842
1745
2116
1790
1804
1559
1163
1289
736
244
-291
-449
-732
-983
-1231
-1646
-1645
-1268
-1390
-1300
-953
-1054
-868
-477
-431
-419
-628
-543
-230
-247
-557
-564
-252
-202
-228
-553
-560
-202
-330
-296
-370
-177
-376
26
112
45
-352
-138
-277
127
-108
54
19
-93
374
158
-32
28
83
362
562
203
-92
-270
72
273
357
288
-48
-26
310
354
352
367
162
194
169
130
138
188
204
162
132
193
580
425
426
612
555
548
557
542
515
513
524
245
173
370
156
557
445
489
432
629
396
476
774
465
623
577
617
428
436
627
562
568
627
394
569
159
308
334
190
236
374
-92
56
-91
369
160
-58
-372
-249
-378
79
120
-277
-163
-166
-332
-290
-338
-137
-131
-364
-170
-579
-469
-785
-774
-491
-461
-419
-395
-446
-823
-651
-868
-499
-456
-810
-712
-1048
-756
-684
-641
-870
-838
-820
-846
-884
-856
-497
-414
-437
-789
-829
-496
-640
-615
-420
-468
-429
-607
-582
-619
-385
-589
-250
-225
-536
-598
-580
-239
-186
-236
-605
-412
-627
-545
-526
-604
-435
-430
-587
-244
-255
-596
-387
-569
-153
-296
-332
-231
-622
-624
-514
-181
-236
-616
-397
-550
-166
-147
-215
-205
-292
-105
-101
-296
-231
-252
-159
-137
-253
-629
-617
-241
-132
-362
-379
-380
-362
-351
-350
-359
-137
-199
-225
-143
9
94
23
-136
-222
-174
-363
-171
-607
-487
-449
-542
-147
-362
-372
-367
-353
-381
-178
-182
-370
-313
-363
-230
-540
-194
-294
36
-280
-136
-193
-180
-166
-192
-231
-240
-205
-143
-331
-283
-280
-327
-383
-129
-321
1
4
-300
-332
-312
-280
-290
-327
-323
-258
48
-270
-166
-533
-243
-364
-281
-339
-211
-521
-182
-284
67
56
8
5
57
94
55
-286
-335
-299
32
57
-262
-355
-133
-339
-266
15
-267
-289
1
76
-120
-118
110
112
-84
-4
287
-3
-55
-44
297
373
366
309
307
166
571
614
526
170
167
236
522
209
139
381
132
345
263
-18
307
378
335
-54
109
117
-94
-109
83
48
61
54
-279
-371
-130
-321
-277
-325
-158
-192
-167
-160
-224
-562
-559
-204
-365
-362
-172
-211
-171
-363
-363
-181
-253
-519
-229
-219
-515
-553
-526
-172
-317
3
7
-273
-302
-342
-144
-194
-180
-337
66
-49
347
535
818
912
1212
1602
1577
1265
1564
1445
1529
1422
1404
1115
663
494
201
-267
-785
-945
-1236
-1476
-1694
-2060
-1731
-1521
-1563
-1155
-1015
-1064
-801
-580
-220
-212
-218
-192
-156
-137
-379
-342
-300
-305
-379
-204
-202
-354
26
62
4
-296
29
-80
266
-44
77
11
88
-28
286
-47
84
40
120
-9
327
328
290
278
328
180
534
547
194
315
-8
281
317
-13
82
-258
106
348
541
570
242
212
534
615
619
547
227
233
530
533
225
186
233
608
454
469
416
632
394
447
490
769
786
810
827
824
810
809
814
796
491
444
442
472
469
397
568
559
639
460
447
622
576
603
614
526
141
353
159
197
356
-66
126
-36
331
309
-79
82
85
99
37
-319
-374
-378
-150
-216
-231
-153
-331
-361
-202
-210
-336
24
-337
-615
-834
-852
-775
-799
-696
-1066
-752
-859
-787
-832
-876
-819
-456
-435
-787
-888
-872
-497
-407
-442
-804
-836
-464
-540
-209
-566
-482
-828
-786
-432
-635
-626
-598
-541
-515
-562
-635
-391
-584
-526
-551
-388
-457
-439
-612
-537
-239
-192
-358
-273
-281
-142
-535
-578
-525
-223
-514
-587
-607
-551
-229
-202
-174
-358
-277
-271
-353
-167
-143
-317
-279
-325
-134
-135
-323
4
22
-265
-306
-315
-277
33
46
-268
-365
-176
-185
-179
-215
-526
-541
-244
-200
-203
-224
-189
-345
-270
-303
-158
-221
-180
-380
-168
-536
-557
-135
101
-68
44
-179
-513
-133
42
86
-284
-174
-225
-169
-341
-309
-330
-352
-349
-352
-131
-180
-179
-364
-285
-269
-309
-326
-286
15
-279
-151
-526
-529
-164
-297
3
-286
-323
-304
25
90
100
43
-311
-165
-518
-570
-539
-182
-333
-289
-287
-260
72
-111
-102
114
83
73
39
-302
-137
-172
-158
-134
-377
-349
-281
60
-124
-70
-33
-35
-57
-38
313
153
377
-44
75
121
298
139
308
-99
-118
283
170
172
346
331
171
515
222
353
280
325
154
158
330
269
312
165
235
220
178
179
220
243
224
185
133
307
-69
71
12
4
-266
-315
-371
-132
-364
-340
-349
-132
-168
-166
-375
-314
-294
-333
-129
-136
-356
-342
-367
-366
-288
54
4
-201
-397
-404
-230
-329
-347
-250
-640
-635
-514
-362
4
30
-283
-360
-347
84
373
389
853
1048
1023
1231
1573
1553
1571
1452
1852
1813
1546
947
697
805
613
265
-197
-893
-962
-1166
-1544
-1610
-1608
-1263
-1331
-1085
-869
-492
-449
-419
-620
-579
-602
-400
-398
-581
-248
-232
-242
-193
-351
-302
-350
-165
-139
-272
80
58
-276
-261
-117
290
301
-84
40
30
124
-44
-25
-42
-34
268
326
371
149
168
178
187
201
216
217
199
197
224
247
230
187
198
546
637
601
172
258
-10
136
533
536
179
380
201
599
434
441
414
399
639
590
539
548
624
462
770
778
779
789
798
802
816
845
847
787
442
400
441
771
798
778
782
836
893
888
826
768
490
471
435
409
407
394
583
253
532
399
469
602
346
-85
-68
265
-59
-293
-513
-557
-195
-340
-299
-302
-313
-353
-177
-240
-239
-202
-208
-539
-614
-634
-615
-602
-596
-577
-561
-586
-406
-484
-785
-802
-797
-496
-413
-602
-617
-436
-451
-605
-223
-196
-518
-559
-256
-223
-582
-782
-643
-826
-408
-595
-414
-503
-474
-591
-199
-146
-162
-201
-251
-572
-632
-385
-593
-526
-216
-178
-149
-131
-138
-171
-196
-190
-176
-198
-252
-519
-169
-270
102
109
57
45
93
114
24
-140
-526
-547
-238
-196
-195
-183
-373
-284
3
-308
-382
-131
-320
-273
-313
-146
-180
-131
-343
-375
-169
-130
2
87
3
-181
-519
-142
65
-105
67
-312
-332
-259
48
15
-305
-308
15
76
63
0
-303
-289
4
-267
-348
-184
-213
-177
-146
-173
-232
-240
-164
-310
7
-259
-285
-265
54
84
23
-367
-226
-244
-188
-160
-214
-544
-515
-352
80
123
22
-337
-312
70
-105
104
-258
-308
-268
49
75
91
124
-114
85
-278
-330
-270
67
36
-367
-217
-142
65
-47
-90
10
-346
-309
54
111
80
9
-294
-291
1
41
69
91
-118
-19
358
167
376
265
-54
-18
313
312
-39
-125
-93
302
178
204
143
341
354
163
205
176
367
356
186
586
424
401
555
211
196
213
184
361
304
336
173
239
223
161
131
166
226
229
131
-48
15
-374
-154
-380
-359
-158
-518
-577
-518
-376
-262
23
19
56
121
123
4
-178
-560
-583
-564
-587
-389
-411
-606
-235
-132
-338
-340
-365
-378
-354
-298
-263
-289
-360
-131
-305
124
301
181
558
460
685
967
1249
1444
1475
1640
1573
1651
1807
1839
1647
1369
935
1103
657
517
43
-582
-852
-901
-1251
-1454
-1631
-1403
-1020
-1306
-1288
-1048
-440
-221
-220
-548
-542
-225
-220
-541
-557
-208
-352
-331
-154
-217
-184
-344
12
97
-70
263
261
-90
66
63
-110
-65
106
-300
-362
-265
-109
-44
-94
118
-62
343
156
330
-61
-101
-13
336
326
257
257
365
230
517
219
211
541
619
621
555
251
521
537
249
208
237
600
450
481
445
405
393
392
395
409
447
475
456
400
620
389
459
799
879
679
681
872
804
817
654
713
890
457
588
604
432
451
638
586
631
471
500
421
567
523
548
572
550
250
236
240
216
139
307
277
298
290
-60
64
-258
34
97
103
57
35
54
33
-352
-530
-611
-541
-170
-167
-550
-405
-631
-236
-154
-229
-387
-459
-385
-514
-220
-568
-443
-508
-479
-398
-580
-552
-595
-445
-794
-782
-420
-590
-620
-469
-776
-465
-387
-387
-441
-427
-556
-164
-141
-231
-561
-518
-151
-343
-380
-200
-229
-182
-368
-328
-350
-166
-249
-554
-532
-180
-324
-277
-339
-206
-530
-213
-336
-263
-331
-228
-565
-243
-370
-316
-372
-177
-133
-274
30
-316
-188
-186
-284
-128
107
-321
-177
-329
-101
262
127
-351
-156
-265
-115
98
-367
-524
-231
-334
14
-272
-347
-378
-362
-330
-270
94
-48
-24
118
-300
-374
-329
1
-259
-340
-155
-141
-319
0
-265
-321
-359
-345
-293
4
-257
-311
-382
-154
-374
-309
-260
4
-260
8
27
11
-307
-370
-371
-308
18
49
52
72
122
-93
-98
122
94
90
74
14
-319
-349
-308
20
50
17
-285
-292
-257
38
61
84
103
101
72
47
68
127
-91
-107
113
101
115
110
72
43
64
126
-60
266
338
134
376
292
-38
-10
375
235
238
155
353
142
516
603
625
633
410
431
637
530
204
216
249
215
132
369
206
558
520
364
263
331
215
247
379
-28
-79
-45
-38
-105
71
34
14
-294
-366
-147
-135
-377
-144
-183
-182
-134
-344
-347
-136
-171
-146
-328
-268
-279
-346
-382
-330
14
37
-276
-307
35
-84
-74
-260
-227
-523
-355
73
56
-364
-190
-273
355
468
699
1098
1281
1265
1455
1504
1491
1828
1784
1965
2170
1890
1577
1380
957
875
318
-538
-725
-985
-1165
-1577
-1645
-1565
-1393
-983
-1129
-743
-800
-588
-208
-210
-531
-562
-253
-150
-331
-330
-384
-168
-141
-331
-284
-280
-270
48
-127
-98
109
20
-309
-342
-340
-315
-280
7
36
99
-40
347
157
130
331
320
346
337
269
-43
-4
369
207
211
152
366
376
156
177
180
186
205
230
249
513
536
598
432
501
498
434
637
401
485
809
794
448
608
573
604
388
634
567
522
593
770
676
710
891
832
863
672
679
887
866
643
640
779
621
582
459
875
877
463
565
556
397
446
389
572
582
389
396
553
172
376
143
162
132
341
326
324
289
-45
-112
119
107
58
-274
-325
-329
-320
-354
-171
-229
-242
-238
-528
-614
-466
-807
-811
-460
-564
-199
-215
-585
-417
-639
-523
-205
-530
-415
-508
-509
-470
-445
-418
-599
-235
-171
-218
-590
-408
-635
-551
-256
-549
-604
-595
-523
-204
-203
-240
-517
-513
-514
-535
-566
-580
-576
-562
-532
-216
-133
-322
-297
-299
-287
3
29
11
-300
-351
-367
-358
-365
-145
-177
-165
-376
-343
-355
-383
-366
-306
1
6
-270
-274
-261
-260
-274
-272
10
24
-266
-320
-333
-294
-262
-278
-310
-318
-316
-357
-176
-204
-133
-282
7
-309
-363
-323
35
105
102
74
57
25
-309
-131
-382
-296
33
26
-265
13
88
111
30
-326
-323
32
100
42
-342
-151
-349
18
83
71
28
13
31
39
-261
-336
-365
-309
49
110
74
-279
-351
-362
-338
-317
-312
-315
-314
-308
-285
6
29
22
8
20
45
15
-340
-178
-169
-299
104
-99
103
26
14
71
-117
-90
-112
104
82
84
100
115
-128
-99
-49
-9
-12
-55
-80
-61
-36
-59
-120
125
-39
343
371
269
-98
-82
310
164
142
310
280
347
180
234
548
406
786
814
453
569
253
520
241
134
276
266
370
228
254
190
372
353
135
182
173
336
-64
84
84
-78
262
-10
-113
40
-269
-301
-367
-195
-237
-207
-155
-132
-384
-338
12
80
61
-277
-328
-301
8
-258
-354
-220
-546
-538
-233
-194
-193
-226
-249
-225
-149
-315
-260
19
59
-90
327
247
434
667
962
1250
1424
1453
1423
1471
1883
1789
2078
1699
1505
1585
1170
949
856
136
-371
-823
-1149
-1339
-1186
-1254
-1538
-1202
-973
-662
-418
-575
-562
-518
-166
-380
-218
-624
-405
-530
-356
-317
-158
-243
-218
-142
-378
-150
-368
35
-85
-88
67
25
119
-11
265
-63
-105
-64
-26
-77
98
119
-5
340
265
93
8
101
273
367
333
-4
-12
346
232
547
223
363
351
243
419
439
537
381
148
580
458
410
521
214
577
460
481
393
608
471
671
752
858
584
152
174
551
614
563
232
247
631
811
710
1044
1039
744
749
1090
911
1090
838
580
517
395
784
484
567
210
546
452
785
472
628
576
570
539
191
348
322
379
187
170
309
-90
105
-97
-3
264
-104
-279
-149
-153
-322
23
36
-292
-132
-203
-256
-583
-414
-472
-478
-473
-785
-891
-676
-829
-405
-607
-485
-673
-717
-831
-399
-600
-403
-457
-443
-418
-445
-487
-450
-603
-548
-618
-481
-508
-420
-583
-586
-633
-590
-180
-304
-313
-174
-520
-528
-521
-578
-411
-449
-441
-468
-792
-777
-580
-300
88
-293
-521
-607
-225
-314
-310
-217
-629
-631
-252
-133
-355
-377
-366
-306
-266
-311
-144
-166
-347
3
8
-338
-155
-378
-274
47
22
-313
-372
-367
-299
47
87
6
-173
-577
-560
-138
10
0
-370
-164
-333
39
39
-339
-190
-173
-339
-326
-192
-607
-640
-250
-334
-272
-348
-180
-151
-283
56
35
-273
0
70
75
-290
-168
-206
-157
-145
-237
-606
-588
-144
86
-64
118
-294
-135
-373
-301
-280
-353
-212
-539
-522
-183
-332
20
89
111
68
-268
-340
-363
-354
-357
-137
-174
-168
-365
-288
17
29
46
120
-23
281
-88
-319
-225
-170
41
-69
118
-325
-142
13
262
137
343
-10
-17
313
355
310
-11
-13
309
368
379
367
374
145
151
376
349
360
147
173
135
292
-57
-58
309
193
242
175
366
178
616
477
634
372
-117
67
88
42
-377
-555
-622
-555
-184
-364
-345
-351
-343
-319
-308
-342
-161
-220
-202
-383
-333
-375
-217
-523
-219
-134
-354
-383
-170
-193
-210
-252
-557
-570
-538
-248
-251
-531
-532
-236
-168
-344
27
-49
170
625
778
688
935
1230
1436
1471
1427
1483
1677
2089
1756
1469
1184
1295
929
895
363
-250
-741
-1315
-1277
-1463
-1849
-1852
-1443
-1185
-914
-712
-851
-491
-594
-182
-136
-231
-609
-624
-545
-239
-522
-523
-151
-262
-263
-181
-609
-607
-201
-322
-293
-315
-300
8
57
109
-59
301
346
296
-42
-62
-1
337
130
138
144
167
186
183
154
369
346
358
142
159
128
342
360
201
567
601
545
225
238
573
630
592
221
382
136
245
617
389
590
560
387
791
873
826
481
468
793
819
465
574
522
606
474
789
791
801
833
832
775
470
504
842
865
785
425
414
770
869
870
790
470
470
490
462
386
571
550
568
582
574
545
248
203
168
146
374
314
-45
93
2
-309
-335
-347
-368
-163
-239
-551
-552
-516
-523
-620
-495
-803
-470
-584
-240
-522
-623
-462
-494
-460
-406
-395
-465
-840
-667
-658
-827
-454
-598
-251
-215
-523
-639
-459
-415
-556
-238
-556
-416
-460
-394
-547
-229
-219
-230
-237
-224
-175
-350
-284
-290
-362
-171
-171
-135
-140
-211
-548
-576
-553
-513
-211
-143
-313
9
41
82
-90
-8
-15
117
-286
-347
-323
-326
-175
-570
-599
-204
5
-122
-117
96
101
-96
-51
-68
-127
81
60
49
33
29
57
117
-74
-42
-61
-121
72
38
37
55
79
116
-85
-34
-14
-36
-80
-113
127
-128
-122
-127
94
40
9
38
104
-111
-108
-80
280
142
153
282
-115
-116
285
147
339
127
-286
15
-39
139
158
303
-63
-84
-32
265
-16
-90
96
75
107
-83
-16
268
-10
-49
-59
-23
272
280
276
302
348
355
296
-19
266
360
139
294
-110
123
290
525
391
616
542
551
384
443
406
585
580
424
789
801
470
424
490
874
668
831
409
560
565
615
629
608
621
433
781
847
871
862
816
473
626
550
250
195
356
261
-30
-7
-1
-50
-104
-91
-18
284
-10
-87
-105
-41
303
352
357
350
336
295
-33
-87
-75
258
337
348
290
-40
-59
-4
330
367
349
313
298
340
204
403
645
1113
996
1370
1559
1817
1750
1750
1872
1803
1911
2073
2083
1884
1640
1242
1155
938
784
306
-336
-613
-873
-1134
-1286
-979
-1026
-792
-610
-194
-259
-68
304
326
309
319
361
139
139
131
164
250
598
637
581
217
157
208
566
589
226
349
349
249
409
408
512
128
164
587
489
804
799
799
817
821
811
808
832
870
888
872
846
844
878
691
1024
1070
1071
1056
1083
918
1290
1345
1314
980
915
1130
1087
767
705
679
694
750
1109
995
1379
1400
1286
1125
1058
1123
960
956
1106
757
1036
897
1010
1308
1307
1324
1367
1389
1360
1312
1305
1352
1401
1398
1351
1320
1350
1407
1155
1327
973
956
1285
1350
1321
962
1127
1098
1093
1057
738
688
664
891
837
802
828
885
640
827
481
436
433
414
598
246
190
203
523
594
625
590
237
373
290
267
260
-51
100
-266
-318
-288
69
-53
303
319
260
-56
-45
281
337
325
273
-10
264
290
294
291
306
327
321
299
315
130
215
515
253
234
229
226
218
206
189
143
326
278
316
179
539
552
252
240
549
610
615
581
575
619
410
398
584
514
239
543
631
452
466
403
572
548
617
452
474
428
400
449
774
502
398
568
593
424
444
618
531
537
614
392
605
573
630
463
444
534
357
335
227
405
461
393
567
554
596
638
398
401
394
600
517
204
217
535
576
572
570
601
618
564
232
253
402
789
490
539
368
140
558
395
559
359
-28
269
179
601
396
577
207
161
223
575
590
247
163
187
563
405
399
602
621
508
