-305
-360
-165
-163
-329
34
53
-293
-136
-379
-263
81
33
-381
-531
-590
-566
-521
-241
-231
-220
-211
-212
-224
-234
-207
-377
13
127
-111
62
-300
-332
-264
86
111
39
-325
-371
-311
64
-93
-62
-72
-64
-13
299
316
293
273
302
374
193
241
519
535
546
526
199
362
307
331
141
158
346
260
271
161
611
455
391
229
348
302
316
329
321
323
367
180
236
527
554
589
610
589
529
196
379
301
-53
105
66
111
-53
270
260
-64
-127
-120
-33
340
164
183
169
157
147
347
-34
77
0
34
-128
-65
-77
119
90
-109
269
377
132
289
-108
57
50
80
89
74
77
121
-77
-61
-106
82
45
57
89
101
76
23
-294
-341
-366
-371
-361
-347
-333
-322
-304
-268
38
83
97
68
4
-312
-334
-318
-304
-319
-341
-307
74
-33
276
-79
-265
-150
-163
-341
-275
-299
-139
-207
-159
-259
-102
-45
-61
-36
332
152
285
-263
-231
-200
2
108
-268
-216
-539
-177
-301
5
19
82
-96
-116
28
-300
17
-123
-108
47
-281
39
-107
-125
-304
-213
-184
7
-102
120
-263
-291
91
-34
-57
44
-315
5
-113
-107
-293
-250
-516
-280
260
362
-15
53
-286
26
127
-87
121
30
-289
-276
68
-83
-42
-89
94
87
-93
-15
-14
-67
-90
-57
-21
-20
264
130
541
559
347
42
-348
49
308
171
306
76
-324
-314
41
-120
-79
-97
87
17
26
127
-21
-5
-56
-31
139
579
561
300
11
-306
125
296
-7
23
-134
-314
-101
274
-78
-280
-381
-307
82
108
-280
-196
-516
-169
-263
99
96
32
-274
-283
-274
-277
-276
10
56
68
15
-328
-376
-335
35
-95
-30
-49
-123
67
71
-95
295
148
182
144
327
264
-27
-42
-55
-69
-67
-45
-46
-126
-270
-378
-348
58
-55
-36
118
-259
-306
-267
78
-94
-59
-103
55
-282
-302
-293
-315
-365
-137
-141
-188
-570
-447
-512
-795
-876
-728
-667
-549
-1
417
833
688
1305
1666
2218
2656
2219
1929
1733
1865
1427
1394
1068
799
603
177
-5
68
-337
-160
-163
-372
-322
-317
-375
-211
-547
-573
-544
-236
-217
-525
-638
-494
-783
-446
-555
-192
-203
-553
-617
-582
-516
-534
-390
-476
-430
-560
-520
-631
-508
-488
-563
-155
-196
-623
-469
-394
-233
-147
-192
-541
-579
-540
-206
-133
-350
-374
-209
-564
-570
-190
-272
74
28
-325
-357
-317
-294
-345
-172
-195
-152
-136
-218
-614
-423
-594
-174
-336
-140
-546
-393
-626
-521
-173
-141
-143
-156
-199
-552
-410
-467
-438
-632
-605
-607
-580
-242
-155
-142
-202
-513
-253
-221
-236
-590
-456
-772
-482
-392
-571
-533
-254
-226
-206
-232
-555
-612
-603
-540
-226
-222
-250
-252
-209
-150
-349
-290
23
27
-315
-182
-223
-133
-259
33
-302
-375
-326
81
-61
-89
40
-312
-303
41
-122
-61
-39
-57
-110
101
-124
259
155
213
371
-70
68
123
322
518
568
201
317
291
129
204
145
267
-19
129
566
573
133
-39
-18
143
236
146
-18
-83
-18
326
343
317
302
288
-22
-93
-117
-84
-67
-126
54
66
-70
307
313
-46
100
61
86
122
-105
-79
-51
-45
-65
-80
-65
-44
-60
-118
80
62
76
87
87
98
-111
-39
264
-26
109
-292
-360
-291
120
-38
-87
35
-276
96
288
371
277
125
79
-94
-9
-34
123
60
86
-125
116
48
5
20
47
25
-299
-367
-149
-176
-220
-556
-431
-863
-1025
-1077
-717
-792
-425
-468
-840
-896
-852
-787
-784
-821
-821
-775
-504
-825
-660
-680
-853
-501
-486
-807
-860
-844
-797
-795
-840
-843
-489
-628
-638
-801
-701
-657
-427
-244
-563
-799
-683
-834
-629
-582
-499
-702
-729
-844
-457
-449
-503
-498
-414
-582
-555
-570
-578
-583
-612
-412
-461
-473
-450
-425
-426
-458
-509
-809
-817
-797
-790
-811
-818
-491
-607
-236
-222
-537
-561
-246
-161
-141
-202
-542
-605
-403
-468
-771
-500
-421
-581
-246
-194
-174
-216
-586
-444
-458
-621
-545
-616
-814
-711
-675
-492
-616
-413
-856
-753
-766
-691
-657
-707
-762
-709
-798
-636
-617
-498
-644
-885
-446
-537
-580
-820
-1034
-763
-815
-391
-397
-489
-488
-603
-209
-207
-564
-635
-620
-589
-616
-418
-434
-395
-628
-398
-408
-579
-174
-343
-382
-212
-222
-156
-145
-519
-405
-408
-515
-133
-190
-633
-478
-635
-202
-151
-525
-410
-433
-624
-625
-506
-686
-768
-720
-642
-894
-707
-741
-870
-546
-86
385
1025
1307
1547
1814
2104
2343
2191
2376
1920
1668
1426
1215
1281
1106
699
839
507
476
488
770
504
420
544
179
149
190
249
550
580
602
610
607
627
429
476
417
212
-52
22
-272
13
-258
-347
-185
-211
-184
-177
-233
-571
-618
-615
-610
-405
-510
-871
-655
-875
-797
-478
-479
-821
-708
-1070
-1044
-653
-806
-869
-1064
-961
-951
-1110
-1103
-998
-1176
-1215
-1347
-933
-1124
-1149
-922
-1143
-1064
-745
-719
-717
-727
-759
-1089
-946
-1314
-1373
-1371
-1350
-1363
-1160
-1209
-1207
-1156
-1339
-1013
-947
-1139
-1098
-1098
-1120
-1124
-1095
-1063
-1058
-1059
-1032
-728
-709
-747
-1032
-711
-814
-438
-460
-829
-865
-475
-523
-167
-227
-564
-246
-310
95
66
-349
-207
-177
-320
18
31
36
66
71
2
-330
-279
-80
360
334
117
-316
7
265
218
222
350
273
337
208
538
520
198
153
179
532
629
638
541
192
233
408
822
828
464
396
432
478
413
529
205
533
616
547
352
-14
372
635
778
432
252
194
546
630
571
182
153
540
449
505
461
442
777
645
720
719
695
701
741
1048
1092
1112
1090
1030
712
693
712
728
714
705
751
1114
985
1346
1171
1233
1266
1250
1206
1193
1248
1595
1650
1630
1573
1540
1543
1538
1240
1169
1348
997
1125
734
668
711
1069
1123
1084
743
688
676
653
843
497
434
419
441
474
493
479
421
600
546
537
551
563
571
595
614
597
549
532
603
469
796
495
639
589
424
865
755
760
645
782
504
827
876
830
477
460
856
1096
1302
1397
1157
1168
1207
1255
1539
1274
1214
1363
982
909
933
1021
1332
1290
927
1095
1079
1112
1145
899
1138
1087
750
670
890
645
645
829
457
392
429
499
486
616
221
180
228
254
176
271
103
-298
-179
-565
-426
-797
-702
-918
-1380
-1252
-1580
-1442
-1910
-2128
-1968
-1933
-2155
-1992
-2202
-2670
-2533
-2560
-2833
-2910
-2783
-3180
-3029
-3342
-3355
-3329
-2997
-3128
-2752
-2717
-2809
-2965
-3063
-3042
-2976
-3006
-3203
-3467
-3879
-3843
-3701
-3609
-3639
-3710
-3693
-3306
-3414
-3342
-3337
-3065
-3002
-3172
-3091
-2746
-2904
-2838
-2829
-2826
-2479
-2287
-2351
-1999
-1972
-2167
-1780
-1901
-1824
-1518
-1663
-1204
-977
-1065
-719
-657
-797
-578
-279
259
165
208
516
446
741
991
1349
1389
1276
1805
2059
2161
2162
1991
2243
2548
2752
3087
3149
3021
3426
3258
3268
3253
3252
3245
3447
3337
3175
2724
2544
2445
2685
2652
2237
1971
1743
1898
1867
1799
1458
1504
1754
2356
2628
2542
2722
2995
3290
3469
3467
3584
3375
3111
2537
2198
2148
1901
1427
1180
1146
871
421
582
520
148
-40
3
-178
-574
-441
-832
-730
-1145
-1284
-1373
-1169
-1238
-1627
-1796
-1909
-1668
-1918
-1749
-1951
-2423
-2285
-2297
-2279
-2297
-2628
-2489
-2867
-2942
-2942
-2916
-2712
-3140
-3344
-3438
-3380
-3026
-3022
-3384
-3241
-3246
-3382
-2959
-3084
-2775
-2800
-3130
-2968
-3053
-3368
-3412
-3207
-3274
-3607
-3668
-3694
-3681
-3638
-3315
-3237
-3415
-3071
-2957
-3078
-2707
-2900
-2858
-2489
-2262
-1988
-2058
-1758
-1776
-1724
-1819
-1634
-1271
-1241
-1207
-1357
-949
-1072
-726
-896
-775
-390
-568
-551
-531
-193
-327
1
-278
-312
26
-7
245
638
633
598
402
826
750
1097
1082
1040
1059
908
1313
1184
1268
1592
1419
1513
1855
1678
1782
1922
2327
2188
2261
2298
2563
2286
2246
2232
2263
2563
2296
2201
2320
1947
2124
2054
1713
1871
1508
1629
1200
1295
953
946
937
1110
715
847
503
388
195
-29
64
-279
-368
-252
-638
-421
-393
-408
-781
-661
-690
-848
-482
-475
-829
-676
-698
-646
-850
-865
-690
-759
-744
-653
-825
-801
-795
-453
-252
-287
96
114
96
122
-56
295
129
213
542
607
420
498
824
865
878
642
676
692
658
856
846
652
738
1045
1056
1064
1088
1093
1048
732
747
1123
1008
1324
1298
1284
1373
1279
1412
1477
1533
1878
1681
1894
1794
1531
1693
2162
1985
2143
1760
1773
2170
2023
1995
2144
2104
1942
2363
2226
2255
2239
2244
2561
2651
2469
2494
2476
2448
2434
2683
2668
2658
2442
2557
2695
2759
2694
2828
2550
2704
3198
3340
3033
3128
2772
2810
3148
3118
2924
2669
2248
2212
2210
2378
1946
2057
1780
2096
2120
1784
1903
1535
1471
1424
1626
1578
1549
1259
1190
1340
979
911
1142
1127
1061
656
459
565
528
565
579
524
223
542
443
813
777
628
246
228
534
553
239
140
322
297
296
283
-24
-98
95
52
9
-328
-190
-555
-604
-585
-539
-253
-513
-540
-576
-606
-636
-422
-481
-806
-849
-855
-855
-892
-705
-734
-663
-787
-472
-825
-764
-911
-940
-919
-961
-1340
-1203
-1250
-1259
-1563
-1660
-1481
-1499
-1526
-1911
-2138
-2345
-2430
-2416
-2405
-2196
-2256
-2251
-2177
-2364
-2379
-2224
-2610
-2454
-2500
-2503
-2485
-2473
-2494
-2551
-2861
-2860
-2519
-2645
-2292
-2278
-2588
-2652
-2681
-2666
-2633
-2617
-2620
-2635
-2648
-2654
-2655
-2641
-2592
-2241
-2389
-2333
-2362
-2185
-2241
-2218
-2390
-2041
-1971
-2162
-2073
-1702
-1834
-1459
-1606
-1258
-1196
-1153
-1335
-952
-1063
-716
-714
-745
-712
-832
-424
-637
-470
-830
-796
-609
-156
-337
-342
-273
-67
141
162
-9
81
94
-17
326
259
-111
-112
282
177
228
191
141
364
307
-64
48
-294
4
-65
244
883
1017
1617
1672
2010
2653
2758
2963
2950
2795
2899
2817
2488
2582
2323
2078
1676
1854
1467
1214
902
655
771
410
246
289
119
62
85
85
1
-141
-517
-572
-580
-595
-412
-792
-644
-658
-816
-431
-632
-426
-503
-495
-386
-527
-254
-597
-442
-464
-400
-573
-538
-550
-546
-206
-314
70
104
63
25
42
65
23
-329
-384
-344
-264
8
-313
-374
-359
-305
-310
-147
-240
-238
-159
-372
-162
-216
-152
38
-33
271
-74
65
1
-270
-264
31
121
-37
-13
-72
123
-97
284
145
174
379
310
262
-9
269
321
363
352
286
-42
-73
-81
125
39
10
108
267
337
-1
123
104
-32
356
371
279
-53
-52
-35
-87
66
24
99
-57
-71
38
-356
-328
113
284
304
-35
-41
379
598
424
585
219
248
635
460
418
599
601
396
639
542
203
203
233
189
326
-30
-46
-3
299
345
153
218
226
158
327
291
316
341
309
-37
-127
91
88
52
-299
-372
-305
-97
337
312
112
-295
24
-45
287
-115
-366
-532
-573
-582
-611
-599
-230
-334
-272
-329
-144
-140
-341
-313
-307
3
125
-25
-15
-52
-9
144
537
529
166
146
582
876
1098
921
957
1340
1566
1510
1806
1412
1210
1350
1389
1538
1430
1523
1868
2048
2326
2592
2472
2469
2682
2681
2452
2446
2645
2578
2295
2563
2582
2591
2602
2625
2621
2276
2353
2161
2058
2068
2105
2061
1680
1837
1857
1710
2051
2057
1781
2056
2080
1767
1884
1529
1823
1680
1707
1835
1413
1629
1487
1873
1879
1507
1646
1614
1640
1629
1270
1368
986
948
984
1017
975
1099
679
822
788
773
428
253
353
329
155
191
313
73
-345
-323
61
-121
83
-270
-317
-325
-362
-194
-528
-531
-221
-188
-229
-584
-420
-443
-633
-517
-178
-195
-555
-399
-411
-597
-532
-550
-633
-442
-441
-412
-421
-474
-780
-784
-504
-498
-787
-838
-886
-666
-682
-662
-858
-808
-831
-659
-706
-876
-424
-246
-198
-526
-618
-400
-393
-639
-387
-391
-415
-502
-649
-1040
-1099
-1138
-1287
-1591
-1909
-1790
-1711
-1858
-1908
-2089
-1934
-2070
-1837
-1470
-1814
-1691
-1688
-1826
-1525
-1666
-2132
-1950
-2090
-1669
-1881
-1716
-2070
-2074
-1751
-1699
-1701
-1717
-1700
-1914
-1884
-1886
-1892
-1857
-1503
-1617
-1226
-1400
-1375
-1379
-1387
-1395
-1394
-1353
-998
-1133
-1063
-1063
-1059
-700
-507
-588
-517
-532
-553
-546
-552
-599
-393
-638
-545
-142
10
126
-90
127
86
-103
330
216
162
-59
35
114
347
215
366
-58
-43
162
571
225
-8
-127
-23
152
199
373
326
146
249
255
182
160
247
605
606
525
209
225
250
205
369
330
379
169
353
-87
26
65
264
201
230
360
-35
-69
-7
313
308
-18
-93
119
110
115
93
34
-292
-331
-362
-199
-637
-834
-673
-648
-860
-867
-834
-603
103
588
645
1040
938
1267
1709
2037
2317
2055
1448
1204
1359
1010
1037
431
380
257
275
272
-96
9
-304
21
104
61
-133
-622
-494
-456
-586
-520
-590
-455
-465
-564
-366
-294
-362
-166
-358
22
47
-328
-206
-213
-351
21
55
46
72
-118
-86
127
55
35
78
126
127
80
33
24
66
-112
-20
311
324
257
-103
89
112
-57
283
316
310
306
334
383
160
153
363
299
-28
-97
111
110
-119
-126
56
-276
9
-102
281
257
101
-288
-272
107
-55
-65
120
57
28
26
38
36
-270
-363
-173
-135
-277
43
-283
-163
-211
-355
74
-111
55
-359
-190
-170
-377
-137
-213
-516
-218
-132
-360
-164
-231
-208
-350
25
76
79
77
74
51
27
53
127
-86
112
-263
-322
-272
68
83
47
74
-51
336
334
-46
120
-70
349
195
155
303
-19
-18
-1
-4
276
360
196
194
325
-90
101
-75
329
161
134
307
285
377
254
551
196
306
261
344
175
376
-78
-263
-278
-122
323
148
355
259
-37
260
335
367
315
-44
-115
-112
-63
-44
-75
-95
-49
303
348
279
-108
64
93
-69
-12
-56
82
-283
-327
-311
-302
-355
-206
-552
-558
-230
-134
-325
-290
-264
20
39
42
19
-288
-372
-216
-546
-557
-236
-362
58
-63
-24
-84
100
119
-43
-20
87
-133
-200
-278
-40
-1
72
-337
32
334
517
137
109
-303
17
-123
115
-267
-328
2
90
56
-320
-358
25
-49
283
-42
113
85
110
109
66
57
-118
-15
-26
62
-376
-378
89
331
136
-8
92
112
277
131
316
-94
115
-21
133
154
295
-85
-124
-109
-118
95
71
84
76
7
-313
-273
-124
268
272
-91
68
50
53
-262
-363
-143
-316
71
123
70
23
92
-1
375
337
-74
57
66
-89
-26
-52
-86
-35
339
158
377
288
-14
-8
-35
106
-288
-338
-276
49
19
-344
-149
-334
81
-68
-92
71
31
84
-98
-93
97
36
21
17
-269
-305
-300
-258
34
53
99
-72
-12
-55
79
9
78
-26
324
269
111
-283
-314
4
73
71
3
-299
-268
54
65
11
-279
20
86
71
-296
-140
-164
-162
-196
-212
-362
87
-68
89
-340
-376
-257
60
-346
-585
-401
-220
29
120
42
-287
30
-62
347
151
369
-12
59
-356
-154
-372
-353
-192
-614
-471
-465
-402
-631
-633
-572
-162
-266
42
8
-264
59
-97
-48
-73
-116
110
70
4
-302
-276
72
-119
108
37
41
-100
276
274
-92
103
-39
188
579
232
261
118
-78
332
130
268
87
3
49
123
-126
74
19
-271
-327
-185
-584
-442
-504
-797
-805
-460
-205
-70
580
887
901
1252
1705
2375
2301
2200
1950
1715
1811
1415
1223
963
681
436
526
184
131
315
-52
95
44
38
15
-310
-134
-177
-175
-167
-184
-224
-516
-537
-544
-529
-239
-201
-182
-184
-170
-368
-301
-298
-148
-553
-611
-253
-343
-298
-177
-610
-633
-216
-289
13
-318
-373
-340
-299
-362
-513
-617
-574
-176
-339
-133
-537
-633
-577
-153
-282
-301
-159
-231
-193
-380
-140
-245
-577
-545
-195
-160
-213
-523
-229
-135
-368
-227
-635
-405
-528
-139
-183
-397
-831
-791
-573
-131
-375
-214
-528
-237
-171
-132
-375
-374
-151
-237
-595
-408
-437
-457
-469
-437
-624
-589
-624
-412
-621
-245
-178
-243
-607
-605
-217
-368
-179
-620
-468
-621
-134
19
-282
-197
-575
-542
-147
-286
-277
-348
-149
-384
-304
14
11
-292
-315
-268
78
-120
103
-258
-354
-363
-278
88
-115
112
44
13
50
-124
-54
-37
-61
-90
-95
-76
-49
-21
-8
258
297
135
249
537
166
-15
-87
292
230
544
159
258
-17
342
153
348
-19
-56
-16
261
-44
-96
-78
-2
314
333
355
150
187
148
291
-91
80
36
21
50
124
-47
-1
262
285
363
197
224
167
339
278
-29
-103
91
104
-71
-28
-108
7
-294
69
-51
-42
118
67
-122
-36
-66
77
43
-95
299
284
-126
21
84
-18
314
262
-64
-51
277
292
-49
93
40
62
100
118
-118
-67
-5
266
-37
-82
-54
292
353
318
-23
-52
268
342
312
-86
37
30
-123
-54
110
-382
-578
-555
-317
-52
302
-44
91
76
-96
-20
-14
-52
-108
58
-321
-142
-353
23
87
51
23
103
-29
-29
69
-344
-343
29
83
-270
-146
-158
-293
76
82
28
34
-124
-24
-20
-118
34
14
73
-125
-123
93
59
28
-305
-171
-250
-205
-329
3
-318
-189
-225
-374
22
68
25
9
78
-98
-109
60
10
58
-119
-106
95
52
68
86
33
-313
-332
12
99
65
-318
-384
-304
83
107
17
-290
70
-8
304
-89
-290
-379
-326
8
0
-358
-218
-542
-536
-208
-362
-286
-268
-274
-260
11
-282
-353
-353
39
-43
-13
85
-354
-134
-316
-304
-169
-545
-518
-131
-323
-379
-155
-281
-46
346
280
113
19
55
-122
-91
-104
-88
266
156
528
556
238
135
319
299
304
300
282
265
265
275
300
350
160
199
157
288
-104
82
88
125
-112
-111
-92
-46
-9
-28
-109
56
3
-273
-336
-242
-458
-868
-893
-853
-848
-861
-485
-383
381
815
1056
956
1218
1873
1988
2403
2336
1920
1788
1689
1816
1625
1394
901
659
398
136
-64
100
84
61
-284
-143
-182
-359
22
73
3
-369
-180
-184
-187
-233
-556
-602
-625
-639
-627
-558
-200
-149
-212
-607
-463
-482
-426
-621
-588
-576
-574
-594
-391
-449
-446
-612
-240
-213
-592
-789
-888
-790
-578
-190
-229
-598
-620
-254
-145
-169
-548
-623
-569
-196
-133
-157
-206
-226
-227
-249
-558
-618
-419
-467
-480
-442
-630
-596
-620
-386
-578
-178
-331
-132
-582
-511
-806
-443
-565
-521
-583
-425
-466
-415
-578
-519
-536
-586
-582
-244
-160
-170
-528
-605
-559
-183
-149
-546
-769
-889
-821
-412
-583
-604
-390
-626
-566
-547
-587
-606
-536
-170
-145
-522
-443
-770
-412
-235
-141
-185
-529
-531
-172
-319
-309
-132
-189
-140
-266
109
-102
-116
119
110
105
106
-120
-60
-12
-29
-110
72
72
-108
-9
327
381
167
186
151
328
274
305
380
136
300
-55
-20
148
538
234
324
-8
379
588
389
209
-43
120
-6
200
557
253
149
345
330
304
-10
-54
-41
-4
-26
127
27
49
-48
380
161
284
92
4
73
-61
-37
97
-299
-274
-54
171
177
-40
14
45
-5
364
-30
-274
-352
66
264
265
69
-355
-318
121
-13
-79
10
-338
-266
-103
273
283
-36
-109
89
54
47
67
75
33
-299
-342
-311
6
37
48
107
-23
327
277
106
-297
-309
24
59
-266
-379
-196
-211
-195
-162
-360
-294
-261
-275
-298
-289
-269
-294
-367
-162
-380
-277
55
55
21
10
22
16
-273
-279
32
94
66
-317
-187
-198
-354
3
22
-277
-299
-263
48
67
46
17
9
22
48
74
94
87
53
29
54
121
-91
117
-292
-216
-569
-522
-129
-274
-268
-332
-367
-325
6
38
4
-304
-338
-377
-186
-248
-239
-132
14
120
-99
-103
-113
-117
-118
-120
-127
101
45
-284
-353
-140
-156
-157
-158
-168
-179
-175
-143
-358
-328
-312
-307
-314
-328
-320
-271
47
53
-281
-378
-142
-335
-278
-293
-349
-379
-131
-168
-217
-178
0
-58
-12
117
-259
67
293
209
180
278
-82
-39
337
151
372
286
-22
-13
296
349
361
309
-48
99
36
49
-120
-9
310
286
-57
125
-118
-5
131
174
305
64
-157
-256
-238
-198
-205
-241
-513
-255
-535
-598
-402
-420
-411
-389
-555
-314
334
496
1066
1289
1551
1673
2325
2562
2568
2419
1975
2050
1856
1646
1195
1006
755
407
280
-257
-359
-329
-286
-328
-200
-581
-609
-516
-373
-301
-367
-522
-394
-436
-445
-504
-863
-653
-836
-455
-405
-467
-794
-502
-638
-572
-397
-821
-672
-655
-855
-878
-714
-747
-886
-421
-538
-563
-426
-486
-427
-587
-578
-433
-837
-645
-841
-459
-624
-628
-432
-461
-414
-577
-250
-222
-210
-199
-209
-519
-576
-565
-218
-376
-356
-171
-527
-586
-577
-527
-233
-515
-631
-798
-664
-671
-838
-482
-423
-397
-636
-631
-412
-475
-512
-499
-444
-400
-392
-412
-444
-465
-443
-624
-551
-563
-435
-847
-889
-774
-611
-545
-591
-618
-517
-357
-311
-177
-585
-602
-245
-198
-556
-435
-420
-254
-379
-164
-547
-559
-384
88
-98
43
-375
-182
-374
7
104
122
68
-258
-283
19
110
-71
-40
-26
267
321
347
313
-4
-19
303
158
242
254
206
147
370
369
135
164
177
149
348
310
334
141
175
146
358
361
147
160
358
271
-14
305
156
239
513
214
133
307
267
278
284
-23
-120
83
-121
-15
292
258
-31
271
376
178
382
-7
107
4
-294
-257
107
-56
-82
41
-317
6
-37
150
163
272
105
33
56
102
123
122
125
-112
-96
-107
104
40
-262
-264
30
71
84
70
67
109
-68
-13
-48
85
-298
-332
-259
79
65
-285
-344
-295
63
98
38
-285
-281
8
-289
-148
-209
-382
38
119
32
-380
-176
-316
-127
-34
-110
-275
-375
-328
53
111
41
-330
-367
-307
5
-269
-319
-307
36
-125
-83
-74
-59
-60
-118
46
7
53
110
89
-267
-354
-357
-312
-291
-295
-265
86
-63
-38
-120
8
-336
-346
-301
4
17
-274
-322
-320
24
-91
269
275
-51
125
70
16
-306
-343
-318
1
49
71
116
-57
-5
-58
75
-258
27
75
23
-360
-156
-303
-123
-31
-50
-58
284
357
-3
-285
-525
-517
-302
-124
106
-286
-317
88
274
311
-61
77
61
106
106
45
8
60
-103
-70
-121
71
58
72
37
-309
-375
-331
84
269
130
147
356
310
314
357
373
284
93
-341
-131
-290
100
-83
-52
261
349
374
266
97
19
97
-15
314
292
281
361
234
550
233
375
295
-6
-86
1
-238
-472
-880
-655
-838
-479
-443
-479
-460
-207
309
884
1008
1405
1250
1513
2138
2368
2036
1754
1505
1658
1609
1211
958
688
470
533
328
-98
85
92
63
-328
-236
-546
-197
-330
-305
-134
-247
-577
-614
-620
-577
-235
-169
-176
-220
-216
-164
-165
-540
-447
-772
-453
-615
-591
-617
-619
-581
-572
-626
-410
-595
-186
-367
-213
-421
-806
-487
-553
-157
-185
-582
-429
-399
-538
-199
-212
-527
-539
-235
-212
-547
-434
-775
-467
-590
-514
-567
-418
-436
-563
-129
-320
-166
-581
-635
-543
-174
-183
-572
-433
-422
-572
-254
-566
-421
-468
-418
-605
-597
-626
-612
-525
-161
-368
-151
-234
-540
-526
-219
-194
-242
-619
-491
-804
-509
-428
-386
-413
-451
-428
-598
-525
-528
-572
-562
-193
-300
29
-278
-139
-243
-559
-580
-570
-529
-223
-203
-205
-177
-349
19
105
-101
-52
-10
-25
-107
76
107
-30
328
347
331
353
142
383
293
-47
-48
270
307
267
-64
-102
-62
278
352
132
140
145
166
181
158
366
340
369
156
136
301
-34
-21
324
139
134
361
144
246
552
214
312
-27
290
144
142
-6
88
64
-75
299
294
-76
74
55
102
-118
114
44
-276
-279
66
-37
350
371
281
-95
113
-97
-17
257
-89
8
-133
-189
-158
-347
-294
0
55
-123
-73
-105
52
-279
-264
63
86
-258
-153
-254
-240
-149
-323
-282
-257
30
43
8
-313
-349
-328
-284
1
13
36
75
97
85
67
81
116
121
67
-265
-301
-292
-280
-298
-332
-330
-282
24
22
-286
-322
-278
91
-63
-48
-123
32
-291
-309
-309
-334
-150
-251
-574
-523
-345
116
-57
114
-266
-258
-102
286
-22
23
-158
-164
-284
111
-102
102
21
-306
-351
-358
-318
1
41
35
5
2
42
79
36
-357
-253
-563
-232
-380
-361
-187
-254
-192
-284
105
110
14
-344
-146
-172
-184
-164
-348
13
96
-126
-124
-116
-82
-38
-19
-48
-114
79
54
65
82
90
105
-111
-58
-31
-48
-87
-100
-61
276
354
382
340
258
-63
-75
-51
-37
-52
-64
-40
265
286
-14
-109
58
35
81
-119
121
16
-353
-383
-337
-340
-233
-451
-833
-819
-795
-883
-728
-848
-376
235
705
979
1251
1677
2397
2646
2591
2403
2022
1960
2058
1477
1365
1113
732
873
432
220
319
-34
112
-302
-204
-544
-544
-524
-550
-620
-422
-424
-627
-554
-229
-158
-337
-288
-323
-193
-591
-417
-447
-489
-823
-882
-861
-792
-504
-770
-483
-613
-213
-184
-544
-393
-638
-555
-527
-586
-629
-567
-198
-166
-514
-634
-420
-387
-622
-404
-463
-476
-433
-639
-615
-602
-573
-525
-222
-198
-204
-233
-518
-525
-251
-229
-237
-542
-614
-432
-494
-789
-791
-490
-424
-392
-425
-493
-789
-769
-478
-499
-841
-664
-659
-845
-815
-893
-753
-765
-877
-446
-411
-802
-712
-756
-663
-815
-799
-850
-875
-832
-776
-780
-848
-663
-677
-887
-834
-824
-857
-892
-641
-869
-823
-503
-424
-623
-385
-481
-826
-810
-445
-622
-392
-456
-431
-555
-188
-223
-612
-415
-563
-382
-292
-337
-145
-356
48
-79
-55
-87
-67
294
137
372
-24
103
113
-2
128
363
-48
74
95
-13
371
376
295
-20
-16
-14
-79
83
59
-125
-51
-73
77
7
56
-85
-27
-74
112
120
-59
-21
-106
-267
-364
-301
-121
285
284
-100
41
56
-74
290
273
-96
66
52
68
42
-286
-352
-130
-156
-189
-195
-144
-336
-338
-146
-169
-329
91
-61
-75
102
26
-310
-169
-532
-534
-151
-261
30
-310
-381
-332
57
-116
87
-317
-186
-220
-194
-168
-144
-336
44
-88
-65
82
-327
-157
-146
-363
-378
-188
-232
-211
-159
-140
-173
-208
-194
-140
-362
-135
-196
-204
-369
28
121
119
78
91
-98
-69
101
-309
-142
-345
37
100
42
-330
-132
-332
52
-85
-29
-32
-67
-94
-95
-76
-51
-32
-31
-53
-87
-90
-28
332
149
141
342
336
178
579
407
390
589
597
428
772
775
452
413
460
777
482
606
525
620
822
662
794
574
229
595
474
440
248
354
142
569
411
592
194
159
534
422
431
533
336
-6
317
185
250
221
156
373
365
341
281
-58
112
0
-175
-397
-837
-643
-843
-769
-506
-775
-399
-306
178
830
760
1099
1286
1632
1712
2072
1893
1577
1289
1074
879
404
163
-91
-361
-638
-878
-1033
-1103
-1145
-954
-1306
-1395
-1194
-1238
-1566
-1422
-1526
-1811
-1491
-1662
-1658
-1507
-1890
-1918
-1825
-1465
-1470
-1844
-1719
-1783
-2057
-2086
-2120
-2092
-1710
-1811
-1478
-1504
-1810
-1797
-1470
-1422
-1450
-1518
-1805
-1519
-1466
-1443
-1457
-1470
-1453
-1410
-1633
-1639
-1432
-1492
-1508
-1445
-1590
-1245
-1207
-1193
-1155
-1349
-1329
-1390
-1218
-1237
-1177
-1392
-1199
-1575
-1602
-1213
-1018
-925
-978
-1310
-1292
-950
-917
-1005
-1399
-1220
-1206
-1156
-1385
-1395
-1162
-1176
-1164
-1379
-1322
-1017
-994
-999
-1283
-1334
-1391
-1408
-1350
-985
-898
-1146
-936
-956
-913
-1105
-1084
-1114
-1138
-1131
-1129
-917
-975
-954
-1060
-854
-471
-478
-784
-486
-591
-205
-226
-632
-509
-772
-428
-610
-617
-415
-450
-431
-611
-229
-336
31
59
20
-272
14
102
-59
-4
-5
-43
-90
-104
-54
307
168
240
245
202
167
195
540
638
426
407
636
418
785
881
855
433
246
190
548
415
404
513
148
228
442
843
810
442
420
510
824
497
634
617
458
788
485
637
608
419
470
419
572
545
385
778
845
825
796
841
699
1050
1058
751
705
682
890
784
419
394
456
502
439
551
175
129
365
320
277
287
309
-20
47
-375
-345
-126
338
361
-22
-127
-113
-54
-75
74
-280
-321
-361
-192
-518
-209
-281
-82
266
-7
-30
268
334
337
261
-82
-110
-83
-47
-34
-15
292
358
135
367
313
275
268
276
293
312
313
283
-10
270
131
524
551
172
259
-77
-48
-10
-50
-119
-108
261
367
363
284
267
383
548
604
226
276
-117
-119
-45
269
281
278
301
352
154
200
232
517
542
534
213
361
288
331
228
631
407
598
549
583
388
631
538
205
203
243
524
539
593
412
429
611
255
218
240
235
152
303
267
311
371
144
166
226
570
633
638
591
530
224
205
230
540
589
587
528
201
187
524
413
790
807
462
604
546
551
566
553
528
251
211
134
343
181
419
641
675
783
634
633
475
768
416
520
176
190
249
542
544
541
564
627
459
793
830
844
889
740
1140
1021
1387
1239
1619
1464
1484
1658
1265
1162
1406
1193
1201
1155
1167
1645
2093
2600
2722
3199
3398
3690
3769
3987
3998
4112
3923
3474
3261
3032
2797
2538
2217
2107
1533
1588
1224
1387
1008
1147
1054
675
486
559
236
544
572
186
-58
5
-292
13
39
15
5
32
37
-282
-364
-367
-271
76
55
-328
-201
-241
-218
-216
-537
-636
-447
-462
-460
-512
-653
-1105
-1285
-1404
-1234
-1605
-1503
-1884
-1667
-1908
-1677
-1764
-2068
-1733
-1857
-1854
-1787
-1999
-2022
-2116
-1739
-2058
-1938
-1947
-2085
-2054
-1987
-2247
-2568
-2386
-1930
-1945
-2398
-2283
-2210
-2022
-1922
-1985
-2360
-2398
-2339
-2011
-1994
-2026
-2315
-2310
-1999
-2147
-1768
-1714
-1781
-2164
-1958
-2121
-1721
-1917
-1709
-1751
-1705
-1879
-1876
-1695
-1734
-1919
-1814
-1801
-1874
-1900
-1522
-1576
-1180
-1159
-1178
-1399
-1322
-1289
-1328
-1373
-1351
-1006
-920
-1135
-1114
-1066
-736
-663
-846
-489
-615
-244
-188
-157
-332
78
-20
318
329
345
160
519
596
622
617
613
394
500
662
1067
1127
1088
1031
1034
1085
1109
1065
734
668
848
484
384
636
492
879
653
822
465
449
508
809
784
470
446
478
773
769
460
403
632
624
594
524
171
340
282
-6
-23
-30
-39
-77
95
-269
-343
-349
-316
-308
-355
-157
-154
-326
35
71
2
-378
-209
-207
-147
-364
-132
-189
-210
-170
-371
-358
-135
-160
-134
-342
-346
-157
-206
-150
7
-106
-88
62
-317
-366
-349
-346
-136
-181
-160
-335
-262
4
-275
5
108
-24
282
-40
93
18
54
-92
-8
-4
-28
261
349
134
308
-86
-128
-17
380
150
319
280
146
597
424
593
209
197
547
588
219
285
-68
272
205
601
608
255
142
344
370
184
229
195
363
315
371
229
540
223
370
316
339
351
280
-92
107
-91
290
134
167
157
141
131
374
331
-8
-116
56
37
53
31
-316
-179
-252
-244
-201
-179
-198
-253
-596
-455
-820
-886
-678
-1038
-965
-1386
-1394
-985
-1082
-1072
-935
-1016
-945
-1075
-1091
-1310
-1581
-1445
-1632
-1255
-1207
-1221
-1192
-1339
-968
-930
-959
-974
-922
-1101
-1097
-946
-1344
-1157
-1362
-997
-931
-949
-1013
-1318
-1349
-1155
-1260
-1595
-1578
-1234
-1194
-1558
-1521
-1698
-1715
-1850
-1468
-1434
-1484
-1528
-1517
-1472
-1436
-1427
-1437
-1469
-1530
-1833
-1534
-1641
-1228
-1184
-1252
-1553
-1198
-1004
-1143
-954
-1391
-1542
-1605
-1636
-1433
-1482
-1484
-1459
-1467
-1517
-1534
-1449
-1560
-1215
-1247
-1619
-1468
-1513
-1515
-1514
-1532
-1824
-1880
-1680
-1688
-1876
-1521
-1487
-1809
-1900
-1911
-1824
-1491
-1533
-1692
-2098
-2114
-1745
-1857
-1535
-1829
-1897
-1906
-1828
-1472
-1457
-1815
-1670
-1909
-1499
-1610
-1625
-1527
-1905
-1837
-1622
-1180
-1155
-1275
-1414
-1463
-1657
-1268
-1388
-1326
-1371
-1225
-1554
-1270
-1172
-1344
-1322
-1333
-1320
-1011
-954
-925
-917
-904
-1138
-1129
-905
-980
-1327
-1399
-1175
-1159
-1368
-1318
-1289
-1022
-1013
-981
-935
-900
-1147
-1151
-1148
-1148
-915
-948
-938
-1129
-1075
-1109
-950
-980
-1125
-702
-888
-698
-1030
-727
-831
-454
-440
-472
-460
-406
-393
-458
-796
-791
-423
-544
-234
-554
-407
-444
-614
-212
-381
-156
-240
-524
-207
-370
-305
-261
57
116
114
22
-363
-184
-173
-365
-314
-308
-323
-308
4
54
32
-309
-360
-303
56
56
-334
-148
101
440
1379
1863
2110
2322
2666
3101
3444
3318
3247
3070
3143
2776
2757
2772
2706
2509
2279
2177
2260
2674
2499
2463
2639
2598
2613
2638
2636
2614
2598
2602
2611
2588
2265
2199
2200
2298
2686
2493
2683
2277
2396
2347
2395
2236
2570
2576
2247
2418
2416
2286
2470
2854
2872
2828
2556
2848
2900
2927
2690
2744
3084
3138
3116
2794
2766
3084
3195
3005
2964
3090
2943
2825
2465
2583
2391
1929
1774
1696
1909
1828
1435
1556
1237
1244
1241
1160
1295
978
1017
1332
1298
903
767
740
1071
1131
1076
657
483
397
427
782
872
894
832
463
632
634
473
855
676
670
878
879
739
951
1157
1266
1538
1563
1435
1895
2059
2110
2090
2099
2164
1957
1933
2123
2097
2123
2127
2054
1716
1733
2106
1940
2152
1763
1684
1719
1785
1767
1680
1892
1689
1767
1766
1679
1837
1525
1492
1441
1629
1569
1257
1180
1349
1309
1332
1359
1310
927
1059
741
713
660
842
814
871
691
680
823
439
391
419
439
392
575
547
563
552
224
162
200
582
415
624
217
335
272
-7
-44
-93
-117
-125
91
-257
-353
-135
-367
-335
-350
-158
-238
-553
-590
-626
-418
-473
-508
-772
-787
-852
-692
-755
-744
-709
-731
-1061
-1094
-1033
-702
-734
-1123
-939
-1082
-879
-804
-689
-1137
-899
-724
-825
-881
-1089
-957
-1128
-708
-676
-1059
-1143
-734
-399
-138
-137
-576
-436
-591
-375
-286
-176
-415
-770
-408
-519
-528
-439
-846
-840
-472
-410
-456
-774
-492
-397
-598
-611
-596
-225
-328
-276
-361
-202
-178
-303
56
72
85
-52
158
589
396
407
464
842
708
1041
1080
1092
1067
763
750
1071
900
899
1025
841
450
388
607
552
221
135
307
-4
-1
284
259
-119
-275
-373
-151
-204
-591
-490
-835
-847
-841
-847
-841
-804
-775
-793
-837
-851
-833
-854
-711
-1116
-931
-1146
-1091
-1142
-1305
-1193
-1193
-1308
-1145
-1078
-1135
-1009
-1389
-1178
-1363
-956
-1087
-1106
-1007
-1403
-1366
-1147
-652
-803
-826
-864
-849
-816
-817
-824
-776
-424
-610
-607
-613
-540
-382
31
122
-95
-63
-40
-67
104
28
33
99
-121
81
-275
-322
-274
77
-105
-76
-62
-50
-44
-44
-20
290
322
258
101
-291
-269
-83
368
142
-7
93
101
272
194
242
176
369
380
178
205
201
218
537
599
589
237
383
329
341
364
367
375
167
242
539
240
133
278
-53
-90
-102
-95
-90
114
-270
-381
-345
102
289
287
96
-350
-133
-319
-286
-337
-376
-328
-259
-273
-345
-349
10
89
8
-189
-573
-547
-224
-524
-406
-474
-634
-235
-217
-602
-481
-493
-405
-600
-636
-474
-798
-812
-804
-825
-888
-698
-719
-666
-836
-799
-861
-718
-764
-670
-505
-417
-466
-818
-833
-492
-404
-408
-477
-770
-485
-458
-511
-882
-710
-706
-655
-890
-663
-672
-841
-414
-256
-212
-540
-637
-413
-623
-571
-588
-430
-789
-818
-497
-388
-552
-252
-231
-205
-182
-207
-562
-442
-790
-798
-775
-813
-673
-1055
-1108
-1082
-764
-679
-790
-561
-282
-5
516
817
922
1570
1674
1946
2347
2337
2175
1671
1449
1563
1185
986
684
617
129
277
-6
-14
-35
-87
73
-321
-194
-516
-514
-242
-248
-256
-218
-136
-329
-334
-136
-182
-169
-361
-290
-262
-299
-137
-219
-194
-290
-108
-72
23
-196
-525
-155
11
92
102
-104
264
338
285
-92
117
-83
-45
115
-312
-382
-271
-90
-12
-77
94
113
-36
286
-29
103
49
123
259
342
326
259
-51
-67
-65
-66
-80
-117
87
58
111
-4
141
175
325
-70
-94
282
165
152
-59
-341
-238
-179
-272
71
3
-381
-171
-351
19
73
65
51
59
56
20
-270
-274
-276
-324
-131
-374
3
-116
-79
103
15
-260
24
39
37
45
66
63
40
68
-80
299
314
-52
73
15
8
-292
-140
-218
-193
-338
38
112
-106
-78
-56
-45
-29
272
328
349
321
294
333
187
559
611
582
526
250
532
566
561
535
558
421
851
711
695
842
494
480
499
457
589
199
131
145
183
221
529
601
399
402
634
629
637
581
165
-7
-36
372
561
622
538
198
233
599
391
575
179
302
-69
78
2
17
125
-2
331
347
337
312
-15
-128
29
1
25
20
-316
-174
-227
-161
-278
77
51
-354
-540
-408
-423
-625
-576
-570
-575
-533
-178
-332
-304
-364
-191
-220
-184
-131
-371
-142
-185
-224
-253
-518
-239
-185
-136
-149
-226
-572
-603
-543
-170
-324
-291
-332
-157
-240
-546
-553
-536
-535
-574
-625
-616
-254
-376
-328
-144
-232
-205
-319
44
-269
-189
-563
-251
-346
4
-313
-201
-547
-524
-177
-343
-278
24
39
3
-331
-383
-353
-270
30
-283
-139
-197
-153
-322
-291
-345
-184
-250
-515
-223
-165
-368
-345
-356
-371
-339
-257
102
-79
-64
-114
44
-300
-325
-279
36
60
77
-114
-15
272
-71
68
69
-42
354
329
-95
14
13
115
-67
-81
-123
-117
-60
-5
-6
-58
-110
-116
-70
-32
-56
119
71
-123
267
349
313
-21
-16
341
150
329
-82
112
-30
147
207
361
-36
-72
-2
325
327
286
-7
-47
-124
38
-262
42
-122
-66
-70
-91
-86
-59
-41
-30
-6
294
332
343
335
317
283
-37
-107
-118
-39
317
320
-72
7
-323
1
105
123
73
62
-114
-22
-23
-96
-110
-3
370
358
-41
92
100
-92
-119
-267
-138
-374
13
94
38
-329
-352
17
-94
-48
-120
45
21
36
-265
-141
-519
-529
-194
-154
-212
-533
-221
-313
53
2
-373
-144
-324
-298
-185
-396
-465
-603
-199
-188
-535
-566
-211
-353
-364
-230
-572
-522
-146
-352
-159
-249
-241
-352
121
297
359
318
-23
-102
98
69
76
114
-128
63
-312
-378
-313
99
-22
279
256
-62
85
-311
-133
-327
71
114
-258
-129
-333
-122
289
-1
123
70
-122
-69
115
-327
-535
-445
-818
-878
-887
-880
-879
-809
-549
-84
432
1071
1291
1244
1814
2164
2368
2328
2105
1850
1409
1553
1205
1318
1080
768
219
299
-10
-24
-76
114
98
-122
-111
77
-268
-281
41
80
3
-155
-526
-525
-189
-369
-336
-338
-356
-378
-145
-153
-138
-379
-143
-199
-248
-245
-187
-137
-173
-567
-454
-468
-570
-366
-294
-155
-586
-630
-256
-130
-153
-561
-432
-429
-616
-593
-623
-614
-518
-150
-367
-139
-158
-153
-185
-521
-561
-227
-348
-310
-183
-619
-436
-633
-563
-574
-628
-386
-605
-570
-569
-560
-244
-160
-373
-139
-201
-544
-405
-788
-845
-779
-640
-535
-516
-533
-243
-142
-299
-275
-337
-180
-522
-579
-615
-396
-441
-457
-408
-562
-222
-227
-554
-611
-601
-563
-569
-617
-385
-611
-577
-594
-630
-591
-200
-333
-336
-194
-548
-539
-219
-196
-225
-238
-190
-376
-343
-327
-273
81
-104
-107
106
96
124
-118
121
114
-112
-83
-91
-109
-66
302
144
158
370
354
150
232
542
545
238
142
287
-42
-45
-4
288
308
333
377
151
137
355
346
128
164
133
287
-76
-107
-39
325
145
173
190
219
237
191
339
-18
-33
285
355
378
367
357
356
375
177
539
607
512
-7
-262
-314
92
-22
-66
27
-297
83
262
305
-71
44
20
102
-83
-99
80
18
22
75
-120
-73
-46
-44
-89
78
-260
-261
89
-59
-33
-92
126
-74
280
305
-26
-112
-114
-40
266
-14
-63
-80
-61
-35
-24
-28
-44
-73
-103
-113
-103
-109
100
31
12
93
-8
381
152
329
-32
-78
-56
-16
-14
-55
-119
67
33
91
266
209
523
382
-86
91
-66
302
-2
76
-324
-329
-263
3
-304
-307
72
-5
347
307
-39
-53
279
353
344
275
-10
293
343
309
-42
-70
303
222
563
244
370
281
-16
-71
97
20
5
53
116
-84
-29
284
319
307
264
-17
264
290
-18
94
-313
-342
33
-71
-14
-59
-88
-33
309
327
269
-31
-6
282
-4
-84
-121
-64
300
132
185
209
198
135
317
311
380
171
359
-26
-62
312
196
187
298
-50
304
247
589
217
275
-86
-50
279
295
-18
-94
127
-112
-59
259
302
322
347
154
235
538
521
192
360
288
-1
284
362
169
149
294
-84
-122
-64
270
285
-32
-117
89
102
-98
-19
313
350
307
-87
-257
-353
-327
18
62
32
7
74
-46
294
-3
-106
120
-27
135
207
136
286
291
178
581
606
546
552
431
823
793
627
550
463
745
1120
676
605
179
547
788
658
839
442
414
783
659
672
815
439
403
427
424
627
590
633
458
483
417
582
541
539
247
139
-5
-119
60
-267
-341
-379
-331
86
340
409
1041
1181
1829
1964
2602
2914
2789
2922
2620
2313
2135
2050
1901
1601
968
660
488
406
598
520
180
343
-25
120
64
94
-78
-20
-47
110
-268
-358
-148
-172
-197
-219
-201
-137
-333
-346
-190
-554
-569
-244
-199
-528
-415
-488
-425
-580
-589
-468
-842
-831
-488
-489
-893
-1060
-1078
-666
-481
-411
-463
-794
-813
-783
-505
-512
-795
-850
-674
-760
-1065
-1054
-744
-688
-666
-684
-714
-730
-719
-696
-701
-750
-1060
-1051
-706
-860
-826
-887
-738
-1078
-1115
-1117
-1108
-1102
-1106
-1104
-1065
-714
-854
-789
-806
-852
-847
-799
-800
-681
-904
-1315
-1294
-1138
-717
-886
-871
-883
-650
-690
-735
-756
-751
-757
-1064
-1130
-1138
-1060
-681
-825
-487
-423
-633
-638
-460
-840
-694
-746
-735
-670
-815
-441
-625
-611
-610
-555
-181
-349
-138
-577
-773
-831
-467
-558
-210
-213
-223
-165
-318
1
-271
-320
-329
-280
47
95
94
60
44
90
-71
-16
-87
10
-335
10
-68
-12
104
-308
-260
-22
154
325
82
-294
86
295
358
-10
121
110
-90
-91
74
-282
-314
-291
-270
-257
31
82
93
37
-280
-262
97
-74
-110
1
-144
-191
-148
-339
-303
-299
-307
-318
-310
1
100
-79
-91
71
-265
-261
52
72
14
-319
-325
26
-93
-5
-26
114
-279
-334
-270
98
-119
51
-313
-305
99
256
285
-65
106
123
-78
-107
11
-379
-384
-277
66
36
-317
-355
-264
-114
-40
-85
89
106
-10
129
128
-9
121
122
-49
-17
-101
44
13
62
98
82
73
124
-55
-30
-63
-101
-118
110
56
27
78
-96
-92
62
-296
-269
-116
286
314
263
-13
305
379
373
285
-58
-78
-57
-76
93
10
11
85
-112
-116
122
-101
-34
-14
-86
54
-269
13
105
-48
273
285
267
275
344
165
155
293
-92
-124
-73
-50
-117
60
76
-73
279
295
267
265
291
296
272
275
351
204
255
203
356
292
323
168
255
241
132
276
257
331
148
153
378
129
183
208
152
322
302
370
192
187
346
-11
-23
325
182
198
333
-83
125
259
217
586
516
356
-1
272
353
152
131
293
-93
52
30
118
-4
337
329
264
-56
-101
127
-116
-44
298
312
-25
-109
-72
345
514
569
513
196
207
252
252
185
367
352
383
142
355
285
-10
258
297
327
341
362
149
199
219
166
285
-126
66
-107
304
128
323
-48
-91
-38
267
-27
-113
80
20
-377
-596
-495
-471
-602
-573
-436
-504
-529
260
845
969
1391
1559
1896
2336
2656
2436
2223
1934
1699
1508
1538
982
660
393
201
292
-118
24
-275
-276
-295
-345
-134
-143
-148
-185
-238
-245
-195
-163
-227
-613
-429
-631
-516
-211
-522
-604
-630
-622
-402
-487
-774
-407
-222
-137
-237
-423
-772
-449
-562
-206
-173
-164
-155
-169
-210
-228
-185
-378
-132
-238
-623
-429
-416
-636
-604
-549
-197
-363
-343
-141
-205
-225
-217
-233
-541
-599
-624
-610
-577
-543
-534
-553
-578
-577
-555
-570
-418
-819
-647
-874
-797
-500
-486
-420
-539
-159
-133
-179
-209
-194
-195
-254
-583
-610
-589
-568
-544
-226
-137
-350
-148
-247
-557
-558
-579
-401
-476
-459
-600
-219
-163
-177
-209
-223
-226
-243
-533
-559
-560
-550
-564
-599
-592
-215
-266
-117
114
-291
-374
-264
-52
301
-70
-264
-320
76
256
295
-77
68
111
285
170
150
269
-83
-43
321
350
-3
-105
-70
353
234
212
348
303
157
560
579
201
337
347
186
231
176
365
141
245
554
242
165
184
561
403
389
561
254
253
220
365
-12
-25
335
180
175
351
313
368
193
196
350
-43
-126
-121
-67
-50
-118
34
-258
88
-20
289
-82
-279
-156
-169
-371
-320
-273
33
58
30
-270
3
90
-94
-119
41
-281
-272
13
-268
-340
-141
-161
-176
-224
-535
-553
-533
-255
-519
-529
-234
-147
-311
-274
-317
-143
-203
-201
-166
-175
-523
-385
-412
-554
-377
-263
1
-299
-336
-377
-204
-565
-629
-623
-590
-558
-253
-160
-329
-333
-160
-210
-149
-309
-320
-208
-619
-395
-558
-188
-383
-363
-359
-381
-185
-249
-522
-234
-200
-192
-187
-167
-149
-162
-193
-211
-214
-220
-226
-187
-343
17
39
-278
-323
-280
62
79
-265
-369
-129
-317
-259
-259
-262
57
-94
-53
-120
38
1
20
11
-306
-341
-277
100
-95
125
72
88
-104
-68
-79
-99
-117
72
-318
-166
-381
52
-41
-12
-72
-86
265
135
185
149
366
381
156
383
285
-53
-35
317
378
315
-81
99
-78
346
200
186
373
355
160
238
515
196
344
-3
-23
284
329
290
-92
50
35
79
55
-345
-516
-595
-594
-629
-777
-718
-1087
-1039
-845
-567
-267
259
226
447
755
1177
1884
1951
2039
1925
1738
1837
1476
1613
1164
1146
858
624
191
272
67
-377
-233
-535
-583
-413
-494
-775
-494
-480
-499
-506
-458
-392
-386
-470
-833
-865
-795
-425
-617
-386
-455
-499
-487
-462
-471
-504
-505
-466
-449
-771
-870
-879
-489
-572
-248
-563
-389
-404
-635
-636
-402
-629
-530
-189
-198
-537
-605
-615
-605
-617
-634
-616
-578
-567
-589
-578
-224
-334
16
9
-299
-316
-299
-331
-199
-595
-632
-545
-193
-191
-247
-230
-350
39
29
-352
-162
-315
105
-127
-285
-188
-164
16
-111
82
-363
-235
-203
-333
-259
-310
-177
-518
-236
-374
-257
36
-266
-322
-301
52
-109
-98
94
46
79
-86
-27
-56
123
90
-123
-42
-3
-40
-105
-118
-37
352
183
166
349
334
184
585
625
512
348
276
317
357
296
-80
-124
-6
218
388
402
546
183
191
562
411
386
252
159
224
392
493
431
558
527
628
467
412
229
339
353
238
636
439
435
418
388
569
196
356
325
327
289
-49
-106
-64
309
138
381
303
-8
-5
262
-34
113
-282
-137
-180
-147
-322
-257
1
-301
-321
5
-111
-6
-34
57
-143
-246
-212
-130
-141
-537
-411
-601
-328
-63
-38
-257
-220
-227
-317
56
-285
-247
-423
-463
-404
-582
-518
-214
-186
-174
-156
-365
-303
5
37
63
76
34
-338
-208
-254
-198
-364
-306
-274
40
-125
-51
-30
-36
-34
-30
-62
125
75
102
-63
286
337
347
349
371
144
134
300
-115
-257
-272
118
294
366
308
-16
291
198
589
583
217
383
369
367
307
-29
-33
326
169
136
-11
-111
-39
138
227
133
-38
-87
309
249
580
234
354
304
351
150
141
333
279
267
280
284
287
329
155
235
519
242
231
526
581
585
525
213
220
530
558
254
166
383
184
553
616
566
178
327
336
197
575
610
561
247
239
522
527
231
169
376
348
327
309
298
286
258
-38
-76
-92
-95
126
17
-168
-620
-485
-497
-445
-416
-436
-432
-553
-258
370
466
767
1321
1658
1749
2017
2387
2349
1976
2107
1733
1821
1541
906
782
250
355
262
-94
47
-293
-324
-326
-341
-382
-179
-228
-524
-553
-580
-628
-440
-491
-461
-596
-203
-149
-225
-632
-775
-869
-663
-680
-662
-873
-820
-779
-497
-475
-440
-391
-605
-612
-442
-850
-741
-1048
-739
-657
-892
-682
-722
-691
-861
-798
-814
-892
-710
-737
-732
-745
-1062
-1118
-1103
-752
-647
-868
-894
-661
-890
-836
-801
-814
-869
-701
-1050
-1082
-741
-837
-471
-771
-664
-766
-724
-851
-773
-824
-710
-1095
-1141
-1094
-737
-896
-856
-887
-704
-760
-767
-742
-743
-1066
-906
-945
-1126
-734
-676
-1037
-976
-1347
-1289
-902
-1112
-929
-1019
-1286
-978
-931
-1136
-1040
-679
-686
-1110
-1299
-1315
-1127
-654
-847
-678
-766
-748
-649
-825
-804
-813
-819
-802
-770
-488
-488
-508
-487
-630
-206
-360
-145
-522
-580
-252
-382
-320
-335
-333
9
-122
-52
-61
-78
-28
317
344
-2
126
91
-59
329
333
-59
72
112
306
217
223
348
-44
-96
-80
-40
266
326
375
366
291
-59
-106
-84
-24
269
-28
105
-270
-275
123
321
175
144
308
257
272
305
310
287
257
-27
-47
-44
-17
-6
-25
-35
270
365
164
368
-8
-88
-53
321
179
220
192
135
374
177
523
554
223
359
306
361
194
216
150
323
303
371
233
608
442
482
478
454
433
404
602
513
182
163
172
140
305
-18
308
248
423
436
559
169
139
162
129
301
267
323
372
322
-30
-24
132
553
563
170
308
335
194
252
191
340
287
308
341
322
264
-27
258
315
325
271
-25
270
329
280
108
-267
84
309
136
-47
-308
-360
81
-19
-115
-356
-198
-301
-86
-43
69
-333
-335
25
94
59
-298
-142
-195
-200
-175
-142
-368
-342
-330
-371
-242
-407
-497
-451
-585
-516
-544
-585
-542
-185
-146
-213
-540
-251
-147
-144
-584
-830
-664
-789
-599
-532
-592
-385
-591
-247
-211
-200
-377
23
112
70
-275
-271
100
-61
-89
63
-260
-265
-271
-305
-304
41
-108
-95
84
47
-118
272
288
-112
-271
-290
75
-87
-90
127
-123
-102
92
-313
-160
-359
47
95
-300
-514
-632
-626
-606
-402
-505
-865
-703
-762
-657
-520
349
645
922
1281
1260
1764
2300
2495
2234
1768
1446
1634
1655
1565
1324
1027
777
598
218
137
348
309
-22
107
-285
-373
-357
20
-78
261
-77
-288
-219
-242
-368
5
-304
-516
-448
-449
-533
-349
-294
-364
-187
-177
-342
-265
-272
-352
-174
-191
-150
-366
-369
-154
-200
-235
-523
-562
-596
-600
-552
-214
-145
-138
-205
-551
-590
-545
-215
-211
-590
-783
-676
-710
-654
-845
-828
-842
-824
-501
-444
-479
-869
-757
-1059
-748
-702
-1026
-922
-1021
-965
-1044
-874
-803
-816
-849
-875
-667
-752
-1104
-910
-930
-960
-1299
-1159
-1232
-1196
-1333
-978
-983
-1342
-1210
-1276
-1258
-1186
-1383
-1391
-1214
-1553
-1554
-1209
-1390
-1191
-1621
-1500
-1465
-1560
-1180
-1189
-1256
-1267
-1205
-1408
-1397
-1362
-1003
-1139
-1109
-936
-1287
-1302
-990
-942
-949
-976
-963
-899
-1081
-1040
-1034
-767
-706
-848
-479
-430
-462
-780
-815
-805
-511
-462
-391
-548
-189
-376
-341
-310
10
106
-58
-5
-1
-24
-41
-38
-1
318
137
190
179
362
298
324
176
520
249
178
176
542
402
397
538
186
192
236
200
329
-37
-31
337
220
588
408
464
496
496
469
422
620
558
247
215
208
234
548
606
620
574
255
240
537
556
219
310
-90
-107
256
134
197
162
338
287
297
334
359
366
128
163
180
137
302
-35
-52
-10
298
314
286
-18
-26
302
168
248
219
134
382
237
603
554
368
-9
335
530
591
180
-22
-67
309
169
168
369
380
194
204
362
-12
-50
-25
-39
-127
61
121
286
166
166
322
257
306
151
177
328
-86
87
126
-27
315
363
145
182
187
134
315
281
310
352
363
338
307
281
264
276
315
331
259
117
13
45
-92
-35
-102
67
99
256
134
378
-5
120
39
-274
-346
-147
-144
-357
-339
-381
-172
-138
-265
127
-87
86
-304
-384
-358
5
127
-48
-16
-4
266
287
308
327
342
341
326
306
295
289
271
-26
-69
-93
-102
-123
79
7
-309
-323
-264
125
295
166
180
355
284
302
366
342
-76
6
-277
107
-34
-57
98
85
-56
300
-10
78
-310
-358
-170
-599
-793
-854
-497
-616
-529
-145
-102
595
745
1006
1214
1523
2174
2203
2226
2040
2077
1667
1795
1628
1164
944
715
479
532
164
138
363
-14
46
-382
-190
-153
-342
-303
-297
-303
-317
-346
-130
-155
-142
-364
-357
-143
-202
-222
-188
-149
-165
-234
-555
-550
-207
-342
-262
-280
-130
-246
-526
-173
-293
12
-332
-218
-544
-249
-164
-367
-358
-350
-319
-288
-287
-330
-149
-224
-247
-180
-317
8
-303
-179
-243
-154
7
84
9
-130
-206
-195
-187
-243
-577
-594
-538
-250
-581
-463
-788
-465
-592
-534
-582
-394
-385
-557
-228
-224
-255
-249
-196
-151
-168
-236
-571
-635
-423
-439
-417
-626
-598
-620
-413
-451
-451
-430
-407
-390
-388
-414
-465
-512
-783
-770
-486
-442
-626
-540
-245
-547
-621
-636
-568
-250
-541
-391
-448
-632
-235
-147
-149
-155
-337
44
107
49
-321
-375
-309
70
-112
-124
92
98
-109
-85
-119
103
-103
287
150
163
363
351
161
234
221
381
288
-3
-5
-32
-80
-92
-10
154
605
510
837
797
417
545
214
186
158
363
315
308
331
353
372
156
223
518
210
339
-42
-94
-76
-49
-29
285
165
590
418
599
168
282
-15
-23
-103
0
-355
-285
-91
337
150
175
250
618
390
518
312
-83
-101
-74
-90
113
101
-93
-2
308
298
-5
-54
-87
-88
-76
-81
-125
75
74
-93
289
353
299
-94
26
-310
-332
-318
-284
13
49
86
-113
-34
291
323
321
301
262
-83
29
-362
-147
-334
21
72
83
118
-58
260
-28
109
-261
-304
-294
-303
-357
-159
-165
-373
-309
-269
7
32
66
88
86
65
48
57
93
-126
126
63
-283
-343
-348
-326
-329
-363
-134
-376
-342
-339
-382
-175
-194
-180
-150
-371
-342
-346
-144
-214
-225
-136
-275
4
-370
-549
-412
-433
-400
-610
-536
-167
-331
-330
-143
-160
-285
-72
309
261
118
43
93
-73
-54
-123
46
-261
-277
-289
-305
-318
-329
-337
-310
38
-91
-15
-55
89
9
17
66
74
33
1
19
61
75
59
54
90
-112
-96
117
38
-302
-367
-142
-151
-191
-580
-795
-718
-759
-696
-663
-711
-708
-472
3
519
886
1122
1386
1508
2167
2431
2235
2399
1974
1760
1510
1252
1018
1059
844
638
209
339
-7
-85
83
-277
-135
-228
-522
-521
-530
-583
-635
-605
-247
-169
-192
-522
-541
-225
-192
-524
-397
-435
-579
-180
-154
-520
-635
-639
-543
-184
-374
-323
-259
27
-287
-155
-252
-244
-162
-375
-201
-634
-784
-793
-403
-237
-159
-202
-548
-574
-247
-148
-378
-188
-521
-515
-182
-138
-192
-537
-549
-212
-153
-203
-559
-574
-212
-373
-162
-574
-416
-607
-198
-374
-180
-557
-623
-614
-591
-602
-624
-619
-589
-582
-612
-634
-590
-228
-144
-156
-516
-638
-461
-506
-800
-823
-796
-464
-401
-406
-469
-782
-778
-473
-421
-400
-421
-476
-789
-812
-781
-472
-433
-409
-619
-538
-211
-218
-558
-639
-636
-566
-522
-567
-413
-490
-496
-448
-638
-561
-196
-306
107
-19
301
283
-42
-99
-89
-32
-23
123
-316
-166
-350
93
-26
-46
103
57
-116
276
347
327
291
307
357
129
380
370
370
350
282
-63
-118
127
121
88
53
78
-90
-14
-21
-74
-62
324
218
225
301
87
41
-56
137
171
300
-91
-109
-27
312
347
341
285
-106
-286
-137
-350
30
87
28
-290
10
116
-90
125
83
119
-80
-104
69
64
-62
331
304
127
12
126
373
238
362
-128
36
-101
342
164
352
-26
-122
62
-270
-334
-335
1
-127
-22
-1
-64
111
108
-42
336
334
-80
-270
-339
-265
80
82
55
127
305
174
368
-72
83
-91
314
336
-62
42
20
117
-57
-72
118
98
-111
-63
-82
96
25
11
54
117
-95
-80
-91
-109
-124
120
116
110
71
-263
-334
-331
13
113
-113
95
49
63
104
105
63
30
31
35
17
13
68
-106
-96
62
-318
-356
-307
-273
-310
-362
-324
69
-70
-86
44
-305
4
-108
-38
111
-365
-520
-247
-376
-282
-282
-313
-305
-280
-305
-132
-187
-143
-297
13
-293
-141
-204
-185
-371
-300
-274
-303
-372
-183
-205
-178
-136
-381
-153
-171
-130
-287
59
65
-273
-361
-366
-295
7
-301
-165
-249
-241
-177
-378
-341
-289
34
68
50
26
48
106
-118
117
100
-123
-60
-46
-115
39
-285
-293
-266
23
57
87
99
76
35
20
63
-122
-87
-124
64
52
-114
278
361
349
297
280
278
-67
-295
-566
-465
-440
-607
-624
-780
-685
-680
-463
-382
-41
517
796
1061
1300
1271
1533
2100
2366
2179
1981
1871
1542
1371
1289
1145
883
597
168
133
133
321
-66
91
86
121
88
-301
-189
-233
-159
-318
-308
-133
-199
-158
-290
49
-258
-156
-543
-565
-251
-217
-254
-569
-573
-522
-230
-514
-564
-561
-243
-197
-221
-540
-570
-529
-203
-151
-137
-157
-204
-253
-529
-519
-255
-517
-239
-148
-303
-296
-132
-189
-350
81
-108
36
-375
-157
-352
-350
-208
-582
-574
-233
-228
-616
-506
-775
-389
-230
-153
-168
-218
-516
-547
-575
-601
-634
-427
-486
-772
-488
-413
-595
-570
-602
-640
-621
-532
-181
-163
-232
-582
-634
-385
-388
-400
-392
-614
-616
-458
-859
-656
-801
-629
-571
-408
-501
-447
-558
-246
-605
-475
-454
-550
-163
-178
-540
-603
-573
-251
-210
-187
-163
-148
-162
-184
-168
-365
-315
-309
-314
-277
46
63
-262
-340
-308
109
260
-3
91
-318
-322
65
-66
-38
-60
-36
311
143
169
156
155
171
166
382
348
355
371
344
278
-10
296
372
372
284
-50
-25
338
161
153
373
379
157
382
-7
91
18
44
103
127
111
105
-110
-21
335
134
375
312
263
-1
-3
-44
-108
-122
-48
309
355
348
344
355
317
-58
85
107
-2
367
306
123
7
68
-32
315
282
-63
-125
98
59
27
50
-109
262
319
293
-33
-90
-113
-113
-105
-105
116
27
-347
-158
-371
10
113
-125
110
-101
296
168
158
278
-86
-40
370
209
141
-34
80
35
41
27
-276
-316
-317
-275
57
-111
-41
-14
-20
-19
270
301
-1
108
-324
-161
-371
19
123
111
2
-356
-368
-306
3
-279
-365
-164
-376
-258
110
-89
-75
-73
-81
-111
94
45
7
-295
-350
-130
-376
-336
-314
-324
-335
-328
-331
-359
-370
-306
73
-102
121
41
30
101
-123
37
-377
-199
-152
-336
-355
-189
-229
-146
12
-108
-43
-51
-120
29
-312
-310
33
108
75
-300
-383
-348
14
81
67
31
23
22
-278
-351
-381
-331
2
30
7
-264
10
14
-300
-376
-367
13
-107
-95
40
-335
-329
33
106
75
13
33
-128
-74
126
37
37
124
-89
76
-346
-202
-219
-206
-209
-190
-368
-275
21
15
41
115
-111
56
-343
-137
-300
87
121
43
-301
-295
60
-75
-9
-26
-114
35
-291
-305
-302
-309
-314
-264
95
-82
-111
40
-269
64
-48
278
-54
29
-374
-168
-376
-288
25
9
-329
-159
-182
-384
-315
-298
-334
-359
-315
47
-98
-35
-32
-70
-118
112
-125
-74
-67
97
-322
-166
-337
-98
360
354
-80
44
123
328
167
279
34
-326
31
-73
-26
-71
-93
-65
-61
-105
-104
274
166
145
-99
-359
-383
86
258
124
-517
-821
-790
-513
-321
-168
-445
-856
-495
-527
-382
-323
71
128
508
1044
972
1217
1839
2150
2166
1881
1563
1207
1271
1221
1149
434
380
317
332
-34
-267
-191
-203
-142
-172
-558
-633
-540
-362
-288
-136
-569
-418
-426
-427
-485
-808
-787
-416
-569
-573
-394
-416
-560
-379
-277
-328
-214
-592
-633
-617
-580
-547
-536
-574
-398
-461
-441
-598
-238
-184
-159
-370
-317
-328
-178
-578
-401
-385
-603
-629
-457
-770
-462
-573
-174
-375
-149
-179
-132
-302
-298
-183
-639
-494
-476
-422
-426
-453
-409
-557
-243
-555
-635
-594
-175
-305
-334
-188
-215
-362
23
21
-376
-532
-590
-546
-225
-239
-600
-451
-423
-212
43
120
-316
-578
-411
-527
-361
-132
-593
-499
-457
-539
-172
-203
-525
-235
-360
7
14
-301
-332
-317
-309
-326
-316
8
58
-278
-224
-392
-626
-187
-265
44
7
-268
46
-109
-10
328
132
149
369
309
277
288
309
307
275
-17
-30
-10
282
296
257
-71
-93
-11
135
225
177
289
-83
-89
266
141
231
248
196
370
320
339
141
148
306
-105
59
99
-54
-23
-105
62
97
-19
331
272
-123
80
-85
315
136
383
352
330
290
-38
-109
123
-111
-83
-68
-80
-126
71
38
46
50
-281
-172
-546
-536
-162
-299
6
9
24
66
110
-108
-94
121
-267
-189
-543
-223
-301
93
82
-296
-139
-382
-286
40
19
-315
-354
-304
32
53
6
-276
51
-85
-49
102
-301
-348
-272
58
12
-377
-194
-373
31
85
-277
-168
-183
-281
-102
-81
24
-380
-345
118
313
345
256
-63
-35
-9
-93
-261
-378
-367
-296
-284
-336
-335
51
-26
306
-32
96
67
-99
-7
-46
34
-148
-189
-317
126
-33
-79
58
-274
0
72
111
85
45
56
-128
-54
-41
-83
-109
-68
259
-3
107
-365
-232
-151
72
263
301
-22
-43
308
178
197
326
-88
112
-86
-16
-30
-105
104
123
-92
-100
98
54
68
108
104
48
5
46
-77
322
379
328
-32
-104
-106
-60
-9
284
312
325
307
259
-44
-52
-29
-16
-29
-59
-97
113
60
39
83
-96
-63
-111
86
101
-76
-44
-128
-261
-307
37
-98
-82
63
-320
-337
38
-54
282
-46
46
-318
-280
107
-74
119
8
10
-90
337
351
-57
53
53
-84
-13
-101
-279
-377
-306
98
-98
69
-318
-340
20
108
45
-129
-235
-145
63
-57
-85
60
-265
-263
-262
-309
-359
-365
-359
-154
-255
-560
-214
-291
100
107
16
-327
-353
-341
-350
-146
-214
-251
-227
-153
-346
-359
-193
-542
-550
-212
-133
-138
-216
-521
-214
-358
-277
2
26
99
-75
-74
86
-266
0
108
-51
-61
105
39
64
-114
-60
-62
-79
-69
-47
-56
-105
101
77
62
31
-260
-258
54
106
109
78
86
-96
-16
-12
-97
49
-285
-330
-383
-221
-603
-475
-834
-643
-679
-679
-869
-429
-360
304
438
761
1331
1458
2118
2371
2354
2153
1710
1891
1821
1612
1019
696
498
396
564
235
217
225
155
-33
17
-319
-275
20
-294
-156
-237
-525
-565
-625
-386
-552
-142
-296
-311
-154
-232
-220
-142
-340
-360
-173
-210
-185
-171
-249
-385
-437
-573
-376
-295
-133
-523
-521
-377
25
56
-263
-329
-370
-176
-524
-572
-248
-360
-267
-306
-166
-223
-154
-280
35
-302
-207
-575
-557
-205
-149
-202
-559
-594
-513
-378
-293
-294
-344
-139
-185
-231
-248
-193
-337
-257
-280
-367
-157
-368
-288
-265
-323
-163
-253
-592
-418
-470
-458
-399
-601
-585
-585
-561
-525
-529
-584
-389
-405
-634
-621
-403
-467
-498
-463
-388
-588
-577
-583
-549
-192
-331
-280
-316
-380
-147
-141
-186
-565
-430
-450
-386
-590
-585
-552
-171
-281
-268
-155
-543
-239
-297
111
82
-308
-365
-277
107
-111
89
43
74
126
96
-271
-351
-283
-102
300
301
-55
-115
-65
288
338
324
309
336
376
379
337
289
-2
-47
-119
66
55
-127
-9
325
311
-29
-109
-118
-54
280
301
-23
106
-261
-282
62
-71
-36
121
-275
-323
-259
62
43
3
63
-36
321
256
113
79
-56
330
313
-89
44
32
79
99
100
-110
-10
336
365
353
340
321
262
-90
91
76
96
83
13
-318
-325
4
101
-93
-72
-45
267
322
327
273
-57
-107
-128
112
87
55
20
-273
-292
-260
88
-51
294
333
338
332
316
288
263
261
274
-4
-83
84
57
108
-72
-36
-56
-91
-111
-107
-84
-41
265
285
264
-12
259
281
-27
82
-318
-331
44
-104
121
-266
-338
3
-79
300
310
258
-42
-54
-55
-81
101
-277
-143
-177
-340
63
-125
72
-275
-261
127
-11
-24
110
12
10
44
21
-322
-129
-362
-303
-307
-143
-230
-205
-339
25
31
-287
-325
-298
-267
-292
-348
-345
16
-113
-87
63
-329
-367
-284
82
112
66
32
56
92
62
-277
-343
-350
-334
-359
-155
-178
-161
-143
-140
-360
4
-124
-74
120
15
-300
-294
-273
-268
-274
-277
-283
-282
1
56
96
78
14
-303
-334
-352
-376
-142
-384
-332
-261
76
-84
260
278
-65
44
-319
-315
23
74
16
-361
-167
-351
44
108
45
-292
5
-104
-25
127
-308
-347
77
278
304
-101
8
2
87
-125
86
18
9
72
-97
-42
-62
103
13
11
96
-100
84
-332
-166
-347
48
105
70
77
-52
353
381
283
-65
-73
-80
64
-363
-188
-379
-281
-276
-321
-274
-94
333
338
-62
50
5
23
23
4
23
82
124
-122
-93
-9
327
323
-14
-67
-28
296
302
-8
-34
277
354
355
264
-95
121
-124
-113
-118
-100
-32
303
320
-6
-100
-128
-63
286
321
272
-64
-94
-63
-34
-60
119
33
-302
-157
-586
-769
-860
-829
-501
-477
-450
-248
-39
810
1011
1192
1225
1616
1682
2001
2041
1736
1552
987
1137
1068
868
573
365
353
165
372
-83
-264
2
-89
269
-104
-349
-254
-227
-370
-336
-164
-247
-226
-146
-144
-517
-390
-390
-249
-378
-162
-615
-796
-808
-415
-543
-539
-620
-404
-601
-250
-216
-253
-539
-255
-199
-179
-202
-213
-186
-168
-204
-523
-535
-208
-372
-339
-375
-166
-179
-184
-214
-250
-247
-199
-167
-192
-248
-523
-219
-144
-371
-152
-213
-243
-230
-211
-223
-254
-254
-196
-139
-178
-583
-474
-489
-636
-558
-620
-480
-462
-252
-258
104
59
15
61
122
74
-343
-239
-551
-536
-252
-219
-146
-296
30
19
-312
-134
-175
-186
-203
-240
-545
-578
-569
-516
-190
-149
-157
-195
-221
-208
-157
-351
-305
-296
-316
-315
2
87
104
3
-155
-236
-174
-286
86
-122
-101
-63
-12
286
321
349
338
265
-94
120
-80
270
313
292
281
340
175
217
179
357
296
264
-2
278
348
181
216
153
289
-43
-11
363
217
233
152
308
263
281
310
315
316
333
319
-44
34
-323
12
-61
289
-51
61
40
-85
300
286
-93
82
115
-75
-79
116
105
-68
289
301
-33
-108
-109
-71
-82
83
-269
-272
92
-40
-3
-75
77
30
59
96
67
-289
-133
-167
-137
-361
-381
-170
-160
-312
85
-110
77
-316
-146
-380
-288
59
111
-127
112
56
-282
-357
-146
-166
-180
-178
-140
-322
11
53
80
-104
282
131
363
-51
32
-283
43
125
101
-275
-369
-341
36
124
82
-294
-354
-279
103
116
-280
-168
-137
71
256
-17
60
-333
-310
50
75
-274
-361
-330
48
-118
126
45
-275
-274
37
102
-124
98
19
-294
-278
51
108
99
65
88
-71
285
287
-89
5
-337
-302
66
-94
-75
-119
85
65
84
119
-107
-94
-102
-127
107
114
-97
-36
-9
-46
-126
70
73
118
-118
92
31
41
-102
292
332
-22
82
-260
12
67
91
87
109
-87
-41
-50
-79
-57
282
331
257
88
-304
-314
10
45
17
9
83
-82
-102
5
-136
-381
17
-115
-115
50
-278
-277
35
102
-105
-89
-120
72
31
54
114
-103
-115
102
65
29
-275
-320
-328
-295
-257
18
26
53
101
-114
-99
-107
121
70
0
-329
-137
-198
-528
-618
-438
-461
-416
-571
-195
-364
-358
-179
-522
-543
-215
-358
-295
-328
-163
-242
-521
-225
-141
-301
36
79
77
38
6
33
122
-46
-43
121
16
-267
39
70
6
-362
-159
-364
-266
44
32
7
25
104
-38
320
365
343
283
-31
-88
67
-359
-562
-484
-864
-689
-731
-729
-695
-654
-841
-390
9
522
668
1094
912
1394
1838
2015
2414
1979
1702
1531
1443
1536
987
681
482
614
176
-113
-147
-550
-516
-135
-296
-293
-361
-170
-163
-325
57
114
42
-362
-219
-238
-213
-236
-578
-639
-590
-190
-316
-296
-367
-157
-358
6
47
-309
-225
-594
-585
-254
-202
-196
-180
-366
-266
64
78
44
-274
-373
-252
-635
-431
-387
-545
-198
-140
-345
-281
36
70
56
-266
-371
-227
-552
-532
-174
-306
24
23
-291
-378
-213
-540
-569
-557
-534
-517
-244
-192
-344
33
121
-108
125
73
-262
-369
-226
-564
-592
-573
-529
-222
-169
-367
-318
-288
-283
-310
-363
-164
-202
-207
-185
-170
-207
-556
-392
-409
-595
-251
-229
-527
-559
-527
-212
-197
-224
-203
-339
57
72
-335
-519
-563
-184
-289
-259
-353
-192
-197
-140
-345
-312
13
-112
257
-13
100
-285
-262
-99
302
281
122
-280
-307
11
72
101
-125
-75
-25
272
328
151
203
177
353
311
336
348
267
122
33
69
-103
-85
117
82
122
-62
-29
-22
274
342
359
291
-41
-38
267
-12
108
-279
-271
108
-70
120
-261
-294
53
-107
-111
77
62
-114
-31
-46
110
31
55
-110
-60
-120
5
-352
-359
-296
9
-260
-288
-257
93
-95
121
0
-341
-315
29
78
40
-283
-298
14
85
120
127
-104
-42
261
-39
67
-354
-147
-290
-113
-32
-104
20
-267
108
272
325
-30
77
2
17
36
-270
-353
-374
-281
126
-22
-3
-41
-91
125
100
112
-80
-6
263
-57
-125
-123
-68
-44
-85
124
-117
-82
-121
16
-325
-273
-126
-15
-2
-23
-6
276
-13
-105
81
82
89
20
-349
-376
-257
-105
-77
84
36
-105
339
130
-37
8
-276
-88
131
187
318
-105
75
101
-90
-41
-36
-81
100
57
112
261
140
149
276
119
59
115
-72
-100
13
-155
-220
-383
59
-51
-39
118
24
24
108
-61
-44
-85
-122
126
112
47
-299
-335
-271
79
89
-276
-157
-200
-130
-299
-291
-358
-167
-181
-159
-134
-357
-297
16
10
-334
-176
-195
-384
-339
-142
-524
-573
-200
-260
83
-281
-212
-527
-138
18
-277
-526
-769
-811
-432
-594
-625
-418
-605
-194
-379
-212
-604
-638
-580
-576
-443
-829
-814
-413
-568
-619
-478
-479
-588
-182
-178
-543
-604
-530
-155
-135
-228
-562
-245
-332
65
83
6
-323
-317
40
-70
294
292
-66
75
48
112
-80
-85
123
104
126
-125
89
39
31
73
-105
263
155
540
581
533
234
540
401
466
637
172
-48
99
-112
282
375
319
-112
-257
-259
76
87
6
16
304
826
1328
1626
1793
1778
2420
2544
2723
2911
2684
2406
2119
1842
1599
1405
979
1058
882
481
637
567
254
215
194
161
348
262
-54
-74
-85
-115
100
70
48
20
0
31
110
-83
-96
105
103
-63
297
299
-57
121
-94
279
337
281
-49
-23
339
382
281
127
84
-69
294
-3
76
-337
-348
18
-119
-71
-89
123
76
30
-273
-315
-351
-378
-137
-148
-180
-238
-538
-522
-194
-144
-183
-538
-611
-612
-595
-389
-508
-869
-880
-795
-429
-623
-388
-474
-822
-857
-807
-451
-630
-638
-476
-852
-669
-652
-822
-487
-498
-867
-733
-743
-867
-437
-610
-397
-478
-495
-455
-449
-798
-693
-1068
-1111
-1103
-1096
-1111
-1129
-1122
-1071
-727
-893
-859
-664
-1044
-1137
-1122
-752
-892
-858
-647
-692
-660
-801
-421
-621
-403
-488
-795
-509
-415
-577
-533
-552
-603
-640
-631
-569
-226
-166
-172
-229
-519
-215
-367
-283
-258
1
34
82
67
-298
-159
-151
12
-58
-9
-107
50
84
-34
328
323
271
285
376
199
183
351
270
-4
277
296
279
-25
-79
-115
-123
-106
-85
-71
-66
-88
99
-259
-323
-287
75
-103
-111
101
104
-100
-98
52
-342
-368
2
118
98
-300
-141
-324
119
-2
-28
95
-269
-283
20
39
1
-309
-315
3
91
-128
82
-269
-330
-322
-286
-280
-307
-307
-259
38
15
-303
-311
37
-94
-37
-73
-116
-69
306
129
329
-84
45
31
79
40
-154
-637
-450
-562
-358
-291
-381
-208
-148
13
111
66
-305
-355
-302
34
50
-271
-355
-130
-346
-289
-288
-377
-514
-604
-577
-191
-310
-266
-344
-224
-565
-538
-197
-188
-583
-786
-881
-797
-402
-413
-880
-1110
-1130
-671
-467
-487
-716
-934
-969
-1105
-728
-699
-736
-1044
-1104
-928
-998
-1014
-987
-966
-975
-973
-913
-1069
-738
-721
-734
-734
-704
-667
-650
-663
-715
-1053
-1130
-898
-1110
-1033
-741
-1065
-954
-1337
-1348
-979
-1095
-1042
-1095
-909
-1146
-764
-873
-796
-791
-798
-775
-490
-769
-849
-666
-665
-850
-794
-826
-665
-726
-695
-867
-822
-862
-686
-728
-692
-860
-791
-803
-641
-729
-699
-789
-603
-534
-574
-587
-220
-326
-294
-149
-249
-184
6
-120
91
-325
-195
-205
-136
-315
-275
-287
-339
-137
-135
-311
63
-105
-82
-122
56
-288
-345
-344
-304
-280
-290
-304
-279
28
51
27
3
-260
-309
-217
-463
-667
-742
-720
-672
-833
-592
92
597
757
1292
1279
1852
1954
2202
2214
2022
1772
1839
1459
1567
1341
1085
656
857
826
426
141
113
-262
61
-97
-120
9
-311
37
-72
-51
69
-337
-365
-310
-323
-202
-588
-562
-130
44
90
49
50
-100
295
345
267
-110
93
-112
-33
-26
-98
102
-102
284
359
311
-36
-37
317
375
288
-119
105
-19
372
332
-105
41
-128
288
304
122
-329
-342
60
-94
82
-368
-234
-179
-263
-113
-85
75
-320
-154
-145
-330
-299
-383
-558
-450
-486
-431
-385
-420
-494
-507
-430
-600
-614
-471
-821
-806
-473
-471
-849
-749
-1059
-751
-722
-1090
-1300
-1189
-1159
-1283
-966
-1327
-1239
-1537
-1370
-1109
-695
-709
-1049
-1073
-1030
-766
-1105
-946
-958
-1150
-1107
-1139
-933
-905
-1042
-657
-856
-863
-865
-820
-773
-798
-658
-1032
-1044
-672
-771
-412
-633
-596
-253
-156
-371
-142
-181
-181
-165
-181
-244
-563
-570
-530
-234
-207
-156
-298
99
-76
-91
-117
-49
358
201
153
283
-16
345
218
208
315
-74
-64
298
343
-14
80
8
91
263
137
153
342
271
260
306
375
172
174
356
-27
-120
-86
326
212
194
273
89
30
68
67
-304
-202
-528
-243
-189
-169
-151
-353
-298
-317
-153
-212
-156
-293
10
-353
-549
-452
-506
-482
-457
-488
-841
-711
-1064
-1091
-1061
-762
-733
-711
-700
-747
-1128
-1007
-1289
-919
-1034
-751
-1099
-929
-910
-1083
-1053
-1119
-950
-978
-960
-965
-1023
-1344
-1365
-1354
-1350
-1363
-1356
-1306
-994
-999
-1327
-1395
-1378
-1294
-996
-1329
-1222
-1567
-1544
-1258
-1595
-1514
-1884
-1834
-1445
-1650
-1467
-1808
-1526
-1410
-1580
-1585
-1636
-1409
-1423
-1459
-1508
-1524
-1498
-1485
-1522
-1839
-1874
-1887
-1677
-1771
-2112
-2127
-2074
-1771
-2058
-1925
-2352
-2235
-2274
-2211
-2379
-2374
-2221
-2590
-2577
-2411
-1946
-2093
-2116
-1930
-1957
-1930
-2160
-2169
-1946
-1964
-1944
-2129
-1745
-1842
-1468
-1464
-1818
-1912
-1898
-1520
-1658
-1648
-1463
-1488
-1626
-1391
-900
-758
-697
-645
-819
-476
-441
-474
-780
-772
-427
-565
-226
-182
-380
-262
-118
-22
-8
-30
-19
285
307
-14
124
61
-119
326
237
513
138
287
351
583
808
857
495
427
820
1122
1389
1223
1187
1191
1591
1817
1741
2065
2056
1790
2083
2171
2034
2407
2225
2231
2182
2356
2019
1954
2169
2149
2138
2124
2082
1747
1912
1864
1906
1756
2087
1771
1813
1545
1357
1295
1280
952
1044
844
427
595
558
527
199
327
-76
72
11
-315
-186
-562
-534
-283
363
471
729
948
1231
1831
2128
2033
2310
1987
2113
1900
1612
1322
1115
745
640
458
215
268
-91
113
7
-163
-543
-519
-144
-345
-174
-558
-581
-221
-374
-137
-253
-609
-633
-619
-623
-386
-639
-606
-565
-529
-241
-208
-196
-219
-513
-521
-238
-208
-207
-241
-545
-584
-593
-554
-225
-160
-140
-171
-220
-242
-230
-199
-188
-215
-527
-567
-546
-225
-193
-248
-595
-607
-239
-361
-350
-227
-631
-409
-599
-547
-572
-620
-625
-597
-596
-638
-401
-609
-545
-554
-385
-458
-455
-432
-487
-870
-688
-877
-485
-444
-826
-756
-1099
-1032
-643
-808
-785
-780
-491
-435
-386
-608
-565
-247
-207
-520
-436
-880
-682
-819
-390
-586
-409
-489
-430
-515
-360
-307
-335
-381
-145
-363
14
-84
-15
-121
-304
-341
119
128
198
298
-121
-97
311
133
323
271
131
609
486
457
409
508
713
1085
750
848
798
892
741
758
744
1080
1020
1243
1415
1802
1683
2071
2150
1922
1967
2343
2268
2455
2880
2780
3180
3328
3262
3511
3762
4150
4116
3787
4121
4383
4646
4715
4342
4228
4252
4615
4657
4330
4232
4455
4478
4236
4474
4447
4407
4064
4199
4122
4134
4169
3835
3877
3653
3316
3646
3479
3704
3304
3426
3396
3448
3453
3330
3119
2940
2869
2852
2520
2611
2190
2395
2181
2186
2333
1930
2137
1957
2035
1965
1711
1645
1174
1157
1258
1541
1370
1073
874
641
1033
1062
644
429
573
556
253
376
-32
113
10
-380
-243
-548
-584
-466
-686
-1067
-727
-817
-816
-1043
-1295
-1353
-974
-1117
-1134
-949
-964
-917
-1138
-1150
-926
-964
-1022
-1345
-1364
-1325
-1324
-1191
-1627
-1655
-1166
-1071
-873
-680
-1086
-1072
-854
-630
-588
-449
-794
-485
-615
-551
-589
-634
-605
-542
-529
-571
-576
-216
-328
-273
-370
-540
-638
-601
-245
-211
-577
-786
-704
-722
-833
-625
-236
-236
-585
-433
-500
-784
-789
-795
-825
-647
-756
-1095
-1116
-1087
-1054
-1034
-743
-667
-832
-792
-832
-658
-704
-669
-846
-813
-895
-1058
-915
-1114
-666
-500
-472
-780
-504
-631
-545
-395
-890
-1044
-739
-863
-849
-719
-1069
-738
-824
-490
-820
-665
-655
-818
-786
-885
-1027
-1064
-703
-817
-504
-807
-876
-882
-826
-785
-815
-886
-665
-883
-814
-777
-779
-775
-480
-419
-619
-573
-525
-229
-232
-528
-566
-580
-598
-640
-406
-607
-242
-181
-224
-534
-213
-283
126
111
-283
-381
-348
20
117
-84
-35
270
300
316
340
373
372
326
293
328
136
128
281
-78
-74
275
339
319
282
303
349
315
-66
100
-99
320
170
373
-28
-112
-60
326
157
133
280
-91
116
124
99
-319
-605
-844
-867
-435
-533
-593
-832
-730
-816
-336
225
644
1130
1287
1254
1836
2174
2373
2337
2122
1888
1494
1414
1260
972
658
482
484
789
470
530
317
-39
-22
277
257
-74
-127
-114
-69
-64
-111
116
-76
301
353
-4
63
-329
-334
-261
41
19
-301
-365
-129
-326
62
-76
-79
48
-332
-327
26
64
-273
-359
-301
-109
319
362
302
-23
-68
-117
89
81
109
105
35
-291
-261
114
-43
-38
-71
-54
275
316
268
-62
-65
257
310
298
269
297
374
164
374
280
-27
-13
274
290
323
157
521
561
244
166
186
580
464
489
401
573
599
473
874
711
1025
1093
913
952
938
932
1009
1165
1574
1636
1619
1612
1425
1802
1901
1681
1677
1915
1892
1870
1871
1665
1747
2068
2081
2071
2080
2100
2075
1720
1858
1806
1851
1677
1699
1880
1501
1662
1635
1412
1471
1526
1805
1519
1435
1592
1536
1539
1556
1273
1189
1343
1018
988
976
967
970
997
1286
1290
979
1128
759
689
672
651
809
387
539
611
792
866
445
184
356
531
481
430
371
68
14
-97
267
-43
85
18
7
-294
-130
-182
-132
-306
-314
-182
-566
-577
-218
-369
-354
-172
-517
-567
-592
-637
-465
-822
-891
-649
-874
-818
-501
-451
-433
-462
-769
-785
-480
-410
-416
-805
-748
-1136
-1118
-745
-660
-687
-1039
-1097
-1062
-713
-646
-649
-696
-731
-724
-697
-688
-721
-1050
-1137
-943
-953
-909
-1101
-1048
-764
-749
-722
-661
-814
-437
-608
-626
-512
-713
-1117
-1135
-1066
-1025
-1083
-932
-963
-1117
-698
-857
-887
-730
-1053
-1043
-760
-1052
-1143
-938
-1120
-694
-801
-492
-499
-489
-449
-437
-491
-812
-814
-501
-465
-495
-795
-777
-440
-612
-566
-524
-191
-380
-149
-527
-640
-633
-521
-177
-221
-620
-455
-398
-254
-170
-216
-559
-548
-163
-308
-361
-563
-494
-783
-445
-396
-448
-511
-473
-610
-553
-633
-493
-486
-605
-518
-388
-669
-1133
-1114
-695
-856
-684
-1104
-928
-1120
-737
-656
-660
-704
-724
-698
-895
-834
-806
-823
-862
-866
-807
-444
-616
-612
-420
-477
-464
-639
-556
-529
-554
-582
-571
-522
-208
-169
-160
-179
-202
-197
-167
-156
-215
-597
-459
-499
-448
-607
-514
-206
-202
-230
-241
-187
-339
-269
-307
-170
-518
-514
-208
-201
-515
-551
-227
-348
-271
-327
-209
-562
-547
-202
-133
-141
-212
-547
-593
-586
-532
-206
-168
-209
-582
-456
-782
-509
-432
-615
-598
-628
-399
-631
-567
-525
-537
-558
-525
-193
-185
-552
-425
-411
-237
-329
-334
-196
-213
-282
-29
314
-74
-257
-315
8
59
-262
-142
-247
-534
-525
-254
-222
-138
-267
93
105
21
-344
-132
-334
26
90
59
-298
-133
-163
-144
-131
-152
-187
-207
-212
-219
-222
-200
-176
-199
-547
-405
-498
-856
-758
-902
-1095
-452
124
600
848
1030
1380
1893
2306
2393
1948
1716
1843
1505
1595
1310
732
459
515
379
265
121
-323
-235
-542
-200
-327
-272
-305
-328
-272
79
103
-257
-172
-561
-598
-565
-536
-560
-630
-447
-483
-475
-450
-432
-422
-415
-414
-435
-472
-486
-454
-400
-387
-439
-772
-808
-783
-498
-784
-868
-674
-655
-834
-787
-815
-863
-840
-471
-604
-574
-398
-775
-857
-891
-660
-706
-754
-764
-728
-673
-894
-650
-689
-729
-753
-752
-761
-1081
-965
-1393
-1238
-1197
-1310
-937
-949
-1322
-1182
-1216
-1181
-1400
-1157
-1234
-1618
-1508
-1864
-1870
-1808
-1525
-1866
-1765
-2111
-2073
-1734
-1752
-2165
-2340
-2387
-2046
-1961
-2002
-2407
-2284
-2576
-2563
-2597
-2688
-2501
-2477
-2638
-2561
-2291
-2570
-2582
-2569
-2293
-2268
-2237
-2219
-2251
-2593
-2671
-2662
-2296
-2419
-2359
-2379
-2403
-2362
-2019
-1964
-1974
-1985
-2169
-1761
-1884
-1858
-1918
-1702
-1905
-1793
-1456
-1446
-1480
-1497
-1472
-1435
-1415
-1660
-1622
-1272
-1393
-1281
-1001
-1310
-1363
-1327
-959
-1133
-913
-1308
-1190
-1238
-1206
-1160
-1405
-1157
-1389
-1310
-950
-1137
-1135
-908
-908
-1102
-750
-674
-647
-644
-893
-870
-832
-503
-638
-251
-160
-354
4
-75
368
200
172
142
199
550
557
187
342
147
625
851
685
645
854
894
764
1144
936
897
1086
1080
918
1325
1165
1387
1004
910
936
1293
1328
953
735
815
770
823
872
853
769
390
245
366
300
325
371
331
-73
28
-282
4
7
-322
-381
-317
108
-10
274
269
349
243
581
521
171
200
619
500
478
622
616
797
766
1084
700
822
853
1029
924
937
1128
1120
953
1317
1347
1307
1015
1280
1313
1345
1379
1174
1229
1260
1268
1274
1544
1550
1546
1540
1266
1202
1348
1005
1289
1165
1262
1194
1004
1122
1146
998
1294
967
1145
1147
919
1115
697
803
507
786
492
609
224
206
517
515
148
279
263
351
179
181
374
307
-4
-66
-128
93
65
-285
-214
-410
-506
-483
-435
-449
-509
-803
-796
-801
-867
-725
-1086
-1150
-911
-1149
-1107
-1064
-1051
-1079
-1112
-1105
-1054
-747
-752
-1092
-963
-1316
-1326
-984
-1136
-1109
-922
-1007
-1024
-965
-901
-897
-922
-1139
-749
-848
-783
-843
-699
-766
-748
-688
-654
-683
-759
-1072
-1050
-684
-801
-464
-464
-490
-480
-440
-441
-787
-674
-1048
-1110
-1136
-908
-940
-957
-951
-933
-906
-1129
-1088
-1038
-715
-643
-866
-676
-1078
-938
-923
-1070
-766
-1123
-1023
-1317
-939
-1062
-1067
-914
-946
-1082
-669
-895
-737
-1054
-690
-473
-574
-580
-438
-796
-818
-777
-464
-435
-454
-778
-852
-882
-851
-801
-790
-835
-888
-645
-885
-645
-736
-1131
-976
-970
-1140
-1087
-913
-1368
-1555
-1622
-1585
-1571
-1422
-1855
-1720
-1741
-1756
-2120
-2311
-2227
-2578
-2656
-2541
-2745
-3182
-3018
-3024
-2971
-3112
-2895
-2564
-1927
-1840
-1576
-1362
-1143
-679
-826
-653
-913
-1231
-1497
-1706
-1928
-2189
-2685
-2842
-2941
-2795
-3175
-2995
-2997
-2994
-3331
-3225
-3326
-3301
-3227
-3251
-3679
-3896
-3750
-3959
-3853
-3567
-3913
-3790
-4120
-3834
-3738
-3894
-3569
-3524
-3475
-3648
-3275
-3416
-3357
-3363
-3373
-3054
-3164
-2742
-2866
-2496
-2614
-2185
-2016
-2115
-1670
-1420
-1173
-1300
-1313
-1335
-928
-819
-135
-97
279
364
562
856
1093
926
946
1296
1239
1433
1793
1870
1781
2308
2562
2445
2489
2512
2521
2472
2640
2616
2460
2878
2716
2705
2940
2759
3184
3346
3417
3399
3344
3053
3060
3356
3411
3453
3224
3262
3327
3672
3497
3541
3530
3474
3678
3683
3506
3867
3926
3938
3714
3805
4164
4215
3980
4069
4248
4659
4666
4305
4256
4348
4733
4497
4667
4614
4668
4498
4489
4646
4328
4632
4725
4485
4645
4247
4389
4058
3996
4188
4115
3773
3942
3879
3874
3922
3714
3955
3872
3523
3483
3480
3675
3215
3160
2896
2555
2879
2923
2554
2588
2186
2235
2657
2493
2670
2235
2349
2032
1978
2119
1711
1880
1893
1670
1876
1485
1642
1410
1508
1811
1492
1657
1646
1440
1422
1269
1326
974
1020
1352
1329
929
754
644
883
646
872
494
578
202
192
238
218
343
-50
-50
364
541
583
216
315
-38
-46
-4
301
325
300
-13
-51
-28
292
336
317
268
-18
-36
-89
69
-272
-287
4
32
41
68
127
-93
112
-258
-342
-342
-319
-362
-224
-573
-555
-192
-360
-355
-131
-372
-302
-269
-369
-574
-493
-785
-466
-436
-505
-847
-839
-490
-433
-490
-861
-672
-690
-757
-933
-1405
-1537
-1554
-1545
-1608
-1474
-1818
-1813
-1500
-1489
-1817
-1919
-1703
-1914
-1862
-1886
-1725
-1792
-1760
-1672
-1885
-1915
-1678
-1857
-1474
-1423
-1495
-1844
-1834
-1480
-1434
-1529
-1681
-1733
-1905
-1810
-1834
-1691
-1745
-1916
-1523
-1481
-1825
-1677
-1675
-1799
-1621
-1234
-1180
-1200
-1278
-1629
-1424
-1645
-1563
-1260
-1541
-1575
-1269
-1380
-971
-1149
-1124
-1069
-696
-845
-852
-723
-1121
-900
-1061
-668
-843
-835
-845
-804
-443
-574
-225
-170
-376
-309
4
4
-305
-331
14
-44
142
210
202
534
793
1125
1315
1291
945
975
1374
1185
1314
1109
1041
923
1378
1212
1192
1189
1536
1408
1491
1523
1804
1827
1827
1822
1865
1707
1774
1728
1863
1535
1832
1673
1725
1701
1906
1880
1900
1727
2141
2331
2195
2193
2384
2355
2380
2397
2368
2346
2392
2225
2289
2566
2608
2466
2881
2769
3135
2970
3017
2998
2965
3014
3427
3318
3586
3237
3451
3293
3680
3687
3303
3205
3269
3694
3542
3504
3662
3631
3686
3477
3688
3294
3371
3189
2772
2907
2842
2545
2469
2593
2209
2415
2180
2428
2307
2121
1734
1721
1766
1760
1664
1530
1411
1557
1166
1018
910
1133
1122
1045
876
428
568
558
579
525
365
-88
45
38
92
120
96
81
121
-92
109
-326
-520
-608
-606
-392
-812
-765
-1146
-903
-1128
-1066
-887
-551
67
267
298
370
639
728
1110
881
211
-110
11
-345
-581
-695
-1309
-1552
-1440
-1833
-1769
-1992
-2182
-2289
-2587
-2642
-2505
-2902
-2716
-2927
-2843
-2855
-2759
-2977
-3380
-3411
-3381
-3363
-3369
-3387
-3424
-3227
-3255
-3422
-2961
-2768
-2735
-3127
-3029
-3066
-2981
-3138
-3099
-3087
-2783
-2700
-2877
-2535
-2643
-2430
-2002
-1969
-2043
-2345
-2020
-2158
-2112
-2166
-1959
-2138
-1682
-1465
-1602
-1615
-1442
-1482
-1642
-1191
-1291
-1294
-1159
-1214
-1331
-1070
-878
-857
-682
-713
-888
-504
-429
-437
-488
-773
-475
-619
-233
-164
-205
-576
-392
-585
-144
38
95
31
-280
65
287
221
230
339
-54
-76
-30
-36
-116
70
75
122
-105
-83
-10
366
185
151
329
332
203
624
451
416
566
221
223
597
776
891
842
417
561
637
832
686
874
499
769
658
737
866
387
567
470
710
1090
1068
1037
1109
977
1023
951
1111
1092
1136
1127
735
797
462
854
1125
1330
1338
948
1091
1080
1098
1046
659
794
492
508
796
839
665
1034
1101
1058
678
818
492
432
569
154
318
367
250
598
566
205
143
163
204
182
338
-41
114
47
6
-281
-319
-367
-146
-137
-364
-367
-163
-200
-152
-297
11
-320
-193
-233
-159
-356
-179
-589
-408
-581
-176
-352
-361
-367
-309
22
33
-287
-372
-184
-236
-528
-531
-240
-212
-226
-248
-199
-328
32
5
-144
-545
-562
-192
-300
34
14
-304
-322
18
-74
329
374
321
-3
-19
260
266
-13
-24
267
324
362
371
367
364
351
313
268
-15
-13
257
-7
-66
88
0
-257
99
-19
306
272
-58
-94
-80
-79
-127
61
42
88
127
75
-311
-145
-354
56
-77
-83
83
41
94
-114
75
-328
-149
-338
18
-269
-193
-618
-630
-253
-154
-177
-546
-397
-457
-491
-500
-457
-620
-553
-599
-498
-657
-705
-875
-487
-415
-452
-812
-891
-869
-492
-600
-528
-575
-435
-776
-775
-465
-438
-468
-778
-803
-790
-770
-509
-774
-776
-511
-509
-769
-495
-430
-581
-218
-157
-164
-210
-243
-213
-374
-274
7
-310
-377
-347
54
-45
266
-52
-114
-60
352
233
250
164
338
337
160
251
542
245
162
358
378
227
630
493
788
505
463
458
501
816
844
831
805
796
798
782
484
447
439
444
443
437
455
492
504
478
466
783
886
660
801
599
188
140
141
361
285
-27
-29
-23
-59
-127
69
24
-310
-196
-631
-802
-715
-923
-1183
-1452
-1687
-2151
-2374
-2612
-2828
-2769
-2984
-3229
-3687
-3506
-3492
-3552
-3806
-4429
-4702
-4505
-4685
-4647
-4713
-4561
-4867
-4592
-4555
-4521
-4723
-4637
-4298
-4264
-4277
-4267
-4430
-4009
-4108
-3771
-3768
-3781
-3772
-3761
-3793
-4127
-4199
-4222
-4205
-4194
-4216
-3989
-4000
-3990
-3986
-4005
-4032
-4029
-3972
-4134
-3798
-3780
-3808
-3802
-3952
-3515
-3637
-3653
-3527
-3892
-3877
-3499
-3634
-3319
-3310
-3302
-3268
-3201
-3363
-2997
-3144
-2752
-2487
-2009
-1638
-1067
-437
-157
279
710
1412
1779
1721
1489
1647
1465
1500
1606
1354
930
1148
1109
703
501
400
448
804
840
803
800
656
1098
970
967
1146
1127
961
1340
1380
1331
1305
1407
1616
1811
1916
1717
1787
2106
2084
1712
1865
1865
1915
1873
1424
1202
1369
1156
1176
1316
1133
1034
1058
1076
714
792
432
451
478
637
159
-55
97
92
110
118
127
-124
112
65
24
14
1
-314
-140
-172
-375
-306
-328
-204
-606
-410
-386
-621
-402
-456
-458
-405
-612
-596
-564
-211
-352
-330
-187
-579
-582
-176
-293
-338
-552
-466
-416
-203
-316
-158
-433
-654
-666
-784
-422
-453
-800
-804
-420
-522
-222
-551
-616
-567
-186
-370
-170
-567
-443
-504
-484
-390
-252
-137
-377
-192
-245
-180
-268
-109
-48
-83
105
46
15
33
102
-79
-68
112
22
16
119
264
129
224
592
476
843
867
809
495
771
855
655
878
792
494
798
887
695
729
766
1060
1065
1029
762
1090
951
1006
953
1123
1091
1110
1100
1025
692
685
743
1061
1101
1136
929
958
936
1150
903
969
1020
982
1128
1041
1038
1087
1107
1065
751
749
1077
906
924
1110
759
714
734
766
1024
749
751
1035
1055
1039
1029
1077
910
946
1125
724
887
649
730
1041
1030
719
659
853
795
770
804
874
659
887
832
823
874
671
668
864
783
458
400
609
586
577
541
204
144
192
596
439
601
349
-102
-66
153
583
541
340
-74
-68
281
294
-91
-268
-364
-354
-325
-359
-189
-525
-567
-597
-630
-638
-584
-238
-192
-236
-584
-634
-604
-540
-527
-601
-467
-835
-644
-649
-856
-781
-484
-788
-641
-699
-880
-476
-416
-787
-719
-1061
-742
-666
-714
-1108
-908
-1047
-861
-788
-870
-727
-728
-886
-818
-870
-731
-1046
-748
-667
-882
-874
-848
-793
-503
-775
-787
-473
-400
-440
-878
-1044
-747
-776
-597
-409
-649
-1065
-753
-865
-839
-698
-1055
-759
-888
-812
-837
-883
-866
-804
-510
-776
-800
-814
-831
-845
-793
-620
-373
63
83
7
-278
71
-42
280
-7
-39
281
161
525
561
592
446
878
764
1055
759
717
698
679
659
683
1033
1122
1112
750
656
667
753
1073
1063
763
736
740
1025
1081
897
919
1090
681
847
640
739
741
861
451
423
783
652
694
644
810
473
422
415
442
471
469
432
626
541
184
375
160
541
612
255
301
-70
284
229
575
209
268
-109
-112
-69
-61
-88
-110
-106
-79
-37
-3
-13
-80
90
36
18
-264
-316
-346
-289
83
-105
115
52
99
277
188
187
280
122
90
-119
123
12
-341
-321
19
20
-359
-235
-250
-174
-146
-235
-626
-441
-445
-455
-500
-783
-489
-426
-418
-492
-843
-658
-722
-1062
-1144
-920
-925
-985
-1390
-1278
-1554
-1198
-1360
-1343
-1310
-1092
-404
88
212
471
731
1330
1448
1718
1787
1910
1643
1359
900
1056
732
850
631
163
293
-38
113
-297
-163
-182
-144
-168
-554
-428
-400
-182
68
-120
-306
-589
-456
-569
-305
96
41
-317
0
256
514
576
186
282
-16
303
361
343
276
-26
-21
292
147
554
438
494
439
586
519
544
622
432
434
636
583
587
406
496
774
446
615
614
450
784
482
585
192
177
520
605
620
573
519
243
516
558
587
580
535
234
239
544
566
247
381
284
263
291
290
-25
-109
78
46
57
114
-44
297
295
-76
25
-306
15
-102
-12
-41
104
0
-301
-295
-262
36
61
27
-331
-188
-229
-168
-329
-274
-267
9
81
-80
-19
-2
263
283
291
266
-41
-94
117
78
56
83
-94
-2
321
357
131
163
194
229
518
516
192
343
293
361
223
520
187
359
141
547
418
429
621
567
535
225
147
369
155
196
143
286
-2
372
535
579
204
305
258
306
327
260
-85
-95
-9
344
379
363
335
310
283
273
318
143
173
348
-41
-107
-61
265
-2
-89
100
101
113
55
-308
-358
-300
57
93
23
-360
-203
-223
-177
-359
-314
-338
-157
-221
-238
-234
-519
-597
-420
-468
-771
-853
-704
-1032
-1028
-720
-682
-679
-682
-678
-675
-687
-707
-715
-721
-759
-1093
-923
-975
-974
-949
-933
-931
-919
-1110
-732
-870
-845
-680
-1055
-1087
-754
-664
-666
-741
-1045
-748
-671
-885
-867
-814
-451
-600
-550
-566
-624
-431
-453
-406
-576
-555
-426
-888
-742
-654
-457
-578
-562
-573
-521
-173
-369
-333
4
-100
314
164
233
563
627
390
620
598
592
554
225
203
573
496
819
459
592
634
830
723
677
503
633
625
421
463
774
886
737
731
870
511
791
643
695
876
474
632
633
439
481
444
579
194
149
205
529
249
160
151
541
445
443
250
303
262
348
142
328
-46
-97
-72
-38
-31
-30
-23
-27
-57
-68
-21
307
322
-6
-92
-108
-41
300
330
294
-13
-35
-42
-96
27
-375
-161
-332
29
20
-353
-172
-355
50
112
34
-334
-364
-339
-373
-232
-580
-548
-160
-290
27
55
87
109
89
51
67
-93
263
-1
-126
2
12
-74
374
168
310
-76
-68
331
206
197
337
260
306
149
161
277
62
-349
-373
-296
49
73
8
-363
-207
-222
-377
44
-90
-92
64
-284
-269
118
285
128
361
-4
-103
-112
-36
286
263
-68
-86
-9
326
302
-53
-88
265
143
163
306
-60
-52
300
373
352
262
-89
125
-95
-8
304
-8
90
-305
-306
66
-80
-75
106
45
46
94
-109
-92
106
-299
-244
-416
-772
-829
-644
-732
-767
-658
-617
67
245
817
733
1138
1158
1815
2142
1924
1919
1574
1362
1289
948
745
467
224
316
-75
40
-337
-141
-155
-176
-241
-585
-385
-633
-569
-240
-196
-190
-187
-157
-368
-359
-166
-515
-556
-255
-177
-168
-517
-631
-395
-551
-158
-356
-153
-225
-208
-360
-267
-276
-371
-191
-186
-382
-345
-367
-158
-189
-192
-176
-378
-264
-126
-52
-85
83
43
80
125
121
91
107
-85
-57
118
-280
-352
-279
-128
-43
-106
-262
-130
-140
-296
89
-85
-76
-114
98
75
78
98
101
61
-278
-363
-151
-155
-142
-384
-343
4
113
-102
89
-279
-309
49
-74
-47
92
-309
-342
10
112
97
-277
-370
-336
45
-112
-99
-120
-110
-89
118
-267
-368
-339
23
40
-356
-253
-208
48
288
309
-87
98
-64
299
-31
12
-345
62
323
168
292
121
126
312
243
538
190
331
-3
-46
-60
-26
302
343
307
-8
273
153
558
597
524
207
249
594
585
177
-11
-98
-64
-4
266
-5
266
304
313
270
-47
-82
-85
-72
-54
-40
-53
-102
110
-128
-52
-1
-41
-124
126
-10
140
183
347
-25
-27
359
234
214
274
33
-340
-282
111
-72
-100
111
-119
-41
260
-23
-77
-108
122
36
-370
-516
-593
-587
-256
-135
-264
60
31
-290
-274
117
268
282
127
-323
-151
-370
-318
-335
-136
-158
-134
-370
-376
-366
-303
21
9
-339
-143
-328
78
-118
16
-189
-545
-215
-341
-303
-378
-215
-238
-204
-175
-168
-168
-176
-224
-556
-589
-530
-156
-324
-290
6
109
-21
280
-61
30
-378
-214
-521
-559
-577
-567
-544
-535
-540
-515
-176
-332
-306
-143
-556
-416
-443
-426
-440
-485
-498
-447
-640
-395
-503
-655
-1027
-1072
-1064
-1050
-1077
-904
-1004
-1316
-1291
-955
-1143
-1136
-945
-1319
-1187
-1256
-1220
-1365
-1286
-1333
-1213
-1568
-1547
-1207
-1195
-1554
-1420
-1429
-1556
-1397
-1322
-1321
-1288
-901
-727
-888
-658
-720
-704
-875
-831
-883
-700
-674
-780
-608
-249
-196
-380
-272
62
53
-271
-314
-278
63
-120
-102
120
78
72
-126
-25
315
325
260
-66
-68
264
355
151
169
203
518
540
231
164
188
567
410
616
184
309
349
252
627
618
550
541
620
446
457
434
482
642
1082
1142
1028
834
449
426
434
386
542
216
222
534
587
629
426
481
508
768
798
875
681
649
805
507
866
1050
921
929
1142
1129
1135
1089
743
716
1076
981
1317
1285
1001
1369
1614
1854
1705
1675
1855
1816
1846
1686
2081
1965
2043
2037
2004
2037
2400
2232
2198
2320
1969
2016
2399
2178
2031
2054
1913
1676
1748
1724
1828
1644
1275
1247
1243
1222
1194
1181
1165
1366
1004
1147
1072
1038
757
715
668
891
846
483
566
142
309
288
-18
94
-345
-201
-214
-217
-569
-484
-861
-821
-613
-304
301
393
712
998
1552
1910
2025
2245
2427
2100
1476
1260
1199
1395
951
647
572
277
31
-155
-528
-603
-435
-809
-667
-716
-685
-854
-488
-396
-634
-457
-835
-888
-825
-482
-499
-883
-733
-710
-870
-847
-701
-1100
-1135
-1030
-885
-817
-845
-641
-886
-802
-461
-451
-781
-855
-842
-491
-415
-438
-775
-802
-466
-612
-583
-393
-464
-451
-629
-562
-545
-537
-231
-161
-140
-216
-603
-451
-470
-415
-586
-249
-201
-197
-233
-537
-556
-539
-514
-527
-596
-418
-434
-616
-246
-181
-206
-519
-256
-178
-382
-198
-616
-470
-442
-585
-520
-557
-633
-401
-629
-625
-425
-502
-789
-499
-450
-445
-502
-838
-888
-878
-823
-511
-487
-772
-841
-671
-750
-1044
-768
-715
-690
-740
-1097
-901
-1105
-708
-824
-509
-792
-837
-844
-803
-486
-439
-428
-446
-468
-450
-623
-242
-142
-377
-158
-182
-140
-302
45
105
-116
-101
-105
-110
-70
301
176
219
146
318
343
219
578
543
168
376
202
564
553
181
381
237
425
484
585
353
257
358
522
579
251
161
136
152
148
381
379
134
352
-12
-106
-100
-23
262
-68
97
105
-42
305
284
-72
94
47
16
-262
9
75
-116
-108
118
118
-76
267
336
134
194
238
227
164
378
153
231
546
570
597
638
396
613
573
625
770
882
854
461
632
453
648
1066
1114
1096
1103
1149
925
898
1098
1067
1067
1061
767
723
709
729
755
1028
1060
1122
924
923
1104
760
726
747
756
699
866
820
842
867
823
454
622
622
414
416
613
576
621
436
408
250
337
290
354
137
310
-92
79
88
114
86
26
3
38
71
38
-313
-144
-153
-338
3
33
-265
-321
-312
32
-125
-95
104
12
-310
-337
-347
-358
-368
-375
-132
-156
-182
-189
-170
-147
-151
-192
-239
-252
-226
-203
-239
-588
-414
-413
-598
-542
-573
-418
-509
-799
-789
-503
-459
-397
-605
-612
-418
-498
-814
-851
-868
-859
-824
-801
-831
-642
-661
-828
-416
-576
-611
-462
-770
-457
-622
-607
-412
-425
-542
-309
96
60
-339
-156
-335
48
82
-257
-348
-338
11
94
121
121
-112
-67
-22
266
286
296
293
280
284
319
373
156
166
144
353
302
282
323
151
215
211
170
176
533
427
791
803
494
447
453
492
778
502
429
596
557
596
420
461
421
601
582
405
780
851
828
477
619
533
244
531
599
631
566
165
306
315
157
212
375
-82
-261
-359
-193
-623
-865
-1060
-1133
-1124
-1081
-689
-608
-92
401
678
1040
951
1576
1746
2172
1695
1250
1128
706
891
469
162
73
-193
-624
-779
-682
-1055
-1095
-1113
-951
-1372
-1223
-1172
-1286
-968
-1316
-1179
-1170
-1311
-1019
-1171
-1655
-1489
-1645
-1253
-1242
-1607
-1441
-1422
-1594
-1265
-1217
-1163
-1375
-1153
-1276
-1652
-1660
-1550
-1175
-1389
-1393
-1350
-979
-1130
-1115
-908
-926
-1122
-1033
-725
-708
-680
-646
-664
-729
-743
-879
-436
-617
-469
-884
-888
-434
-198
-360
-164
-236
-202
-354
-295
-344
-199
-534
-541
-224
-384
-292
11
-260
-296
-296
26
-122
-32
-1
-24
-70
-106
-108
-65
264
320
312
-8
-67
-56
276
352
369
339
342
163
520
552
235
170
207
595
432
628
192
288
258
327
381
346
257
-41
273
129
196
179
130
142
238
584
567
195
364
150
550
417
439
386
584
557
565
607
413
456
441
393
386
453
785
790
475
430
451
497
509
489
488
506
488
415
617
403
504
785
421
537
520
633
470
416
526
194
245
554
207
257
-118
-21
192
564
235
341
271
304
333
279
-73
-124
-120
-125
90
83
-92
286
342
302
-13
-16
278
285
-15
-64
-75
-70
-89
-125
-128
-83
-47
-75
102
44
70
-95
-16
-25
121
-279
-352
-308
54
126
127
97
85
96
106
122
-100
-73
-116
23
-320
-282
94
-100
104
52
-123
308
130
257
32
-341
-279
104
-103
110
78
117
-65
-10
280
318
350
323
-27
-113
-114
-50
-15
-58
-113
-72
326
188
168
299
-46
-28
280
257
-86
-120
-50
281
-20
99
31
106
-34
-26
-123
59
78
113
78
10
10
83
-126
95
55
101
-57
-23
-77
-113
-49
294
283
-79
107
-98
257
284
-26
-72
-50
259
280
263
-26
-62
-86
-67
275
368
372
272
-71
-16
161
550
244
298
111
71
-78
319
380
321
-64
91
92
-88
-40
-89
80
85
-42
351
361
276
-4
370
518
534
148
271
-17
-14
-84
48
-262
64
-101
-107
64
19
72
-101
-80
122
46
-276
-339
-143
-182
-194
-191
-178
-383
-280
78
95
11
-350
-133
-358
-330
-354
-150
-158
-359
-293
-268
-270
30
-102
283
290
-123
-338
-189
-376
45
-100
-124
19
-323
-296
80
-59
-41
-121
58
75
-81
-3
-23
-100
121
-83
-2
294
288
271
-7
-40
-61
-13
373
253
548
221
381
354
146
194
176
350
-8
-76
-90
-73
-76
125
54
28
49
28
-371
-601
-790
-846
-820
-801
-780
-394
-348
314
441
760
1338
1467
2119
2405
2239
2386
2142
1861
1640
1259
1172
1013
736
419
201
150
201
222
149
273
-96
107
107
117
96
33
-306
-371
-151
-179
-239
-580
-629
-581
-201
-356
-359
-186
-242
-206
-133
-145
-529
-414
-433
-561
-147
-359
-183
-530
-525
-185
-136
-203
-593
-423
-399
-573
-527
-541
-552
-248
-178
-168
-235
-556
-546
-226
-201
-245
-531
-211
-344
-283
-343
-184
-194
-363
-280
-287
-362
-162
-169
-166
-185
-203
-181
-139
-148
-245
-620
-388
-521
-332
36
-259
-132
-215
-175
-330
-291
-376
-253
-563
-245
-163
-168
-513
-587
-564
-223
-174
-203
-519
-544
-522
-241
-240
-247
-233
-200
-181
-205
-516
-560
-558
-516
-232
-249
-541
-527
-171
-304
3
-291
-347
-342
-288
-269
-326
-149
-174
-135
-346
-337
-340
-317
-258
69
118
122
79
20
5
74
-60
284
277
-53
-104
-76
272
367
173
210
228
217
175
137
160
255
605
604
235
345
275
320
166
243
517
240
211
177
376
287
-66
-125
-112
-45
272
277
-23
-50
257
374
212
205
354
-33
-106
-99
-58
-45
-78
-121
121
-121
126
79
34
38
88
120
87
24
7
79
-60
277
267
-67
118
115
-81
-34
-66
85
-267
-281
26
58
7
-344
-131
-329
25
48
-302
-156
-131
56
-2
272
89
-355
-343
111
279
-24
17
-162
-187
-375
-328
-295
52
-71
-26
110
-328
-377
22
-64
-52
54
-350
-359
-265
57
42
16
50
97
52
-348
-204
-156
11
107
14
-162
-202
-278
-36
286
-119
-289
-280
-112
282
264
-101
91
95
81
13
-265
113
299
362
-34
26
-257
-65
164
217
326
-122
44
55
89
112
-95
-2
328
309
-36
-89
-33
333
362
-12
57
-304
11
-91
263
-41
78
-258
47
-110
-106
31
-352
-339
59
-86
-124
11
-273
112
261
-8
53
-152
-201
-352
23
55
15
-272
7
78
-82
272
325
277
-107
29
-257
50
98
92
70
89
-123
123
17
-376
-185
-374
43
-53
283
-3
-89
127
-47
371
218
157
-20
96
89
-97
-72
119
31
-262
-259
-272
-321
-362
-368
-378
-170
-211
-174
-323
16
7
-312
-331
-293
-295
-144
-528
-553
-206
-377
-148
-235
-245
-139
-282
-285
-144
-513
-541
-254
-237
-254
-522
-244
-218
-222
-244
-238
-179
-360
-324
-351
-161
-216
-227
-202
-178
-186
-211
-219
-190
-131
-341
-342
-377
-143
-369
-284
77
-93
-47
-29
-18
260
303
364
174
230
516
243
181
377
379
212
583
626
549
144
281
257
318
153
224
252
247
240
529
610
437
469
453
435
428
634
244
314
-97
73
11
-352
-516
-442
-857
-696
-657
-420
-263
187
805
1097
1183
1878
2034
2225
2391
2139
1899
1480
1578
1326
712
603
357
265
-13
-106
-310
-531
-393
-637
-587
-595
-400
-434
-406
-606
-567
-561
-581
-615
-636
-610
-549
-520
-569
-388
-633
-524
-183
-230
-598
-614
-240
-138
-176
-253
-172
66
-38
92
-178
-533
-359
102
56
-195
-592
-182
99
-61
28
-182
-210
-329
39
37
-257
11
49
55
38
46
43
-320
-523
-411
-633
-517
-529
-443
-804
-386
-314
-124
23
-221
-585
-248
-169
-247
-410
-467
-612
-220
-218
-598
-445
-419
-557
-224
-532
-421
-808
-859
-826
-503
-447
-416
-412
-420
-428
-437
-444
-443
-411
-604
-552
-568
-398
-497
-807
-796
-475
-633
-537
-246
-562
-385
-599
-134
98
-120
-304
-244
-234
-311
64
-269
-173
-203
-309
119
-91
116
110
-58
288
290
-22
-42
282
367
128
325
261
271
360
221
580
399
444
446
415
417
511
664
751
688
804
497
878
1061
1115
741
864
886
1032
1105
731
775
409
458
821
871
857
843
846
812
477
403
631
622
552
152
270
-38
263
337
367
340
296
293
357
183
211
179
168
246
634
433
608
223
179
223
231
376
-27
-67
267
326
266
-95
-102
268
380
359
-20
-117
-108
-38
-9
-67
104
85
-99
-31
-95
-300
-238
-514
-366
19
-302
-254
-639
-568
-135
-274
14
67
-61
308
312
-9
-31
268
269
-114
-301
-150
-383
-331
-345
-153
-170
-366
-280
33
74
-126
-97
98
-298
-164
-175
-362
-341
-203
-409
-795
-478
-528
-337
-290
-369
-196
-192
-134
-131
-231
-627
-446
-429
-639
-625
-627
-595
-521
-216
-252
-602
-408
-630
-539
-238
-565
-461
-843
-869
-839
-857
-742
-959
-1388
-1188
-1403
-1340
-1294
-993
-946
-927
-972
-1322
-1153
-1197
-1212
-1237
-1545
-1604
-1638
-1644
-1628
-1609
-1592
-1573
-1547
-1277
-1554
-1622
-1457
-1526
-1530
-1466
-1637
-1587
-1605
-1420
-1500
-1796
-1523
-1453
-1620
-1569
-1601
-1441
-1526
-1517
-1659
-1262
-1204
-1267
-1643
-1463
-1443
-1598
-1223
-1397
-1362
-1357
-1350
-1313
-982
-903
-1115
-1119
-1137
-1125
-1068
-735
-661
-842
-492
-400
-620
-406
-477
-485
-404
-569
-557
-617
-396
-578
-168
-292
14
15
27
61
101
-95
280
202
598
585
168
260
-12
368
224
196
318
-15
333
539
447
482
449
455
785
849
816
434
563
536
625
492
802
499
406
612
637
418
639
519
148
142
248
609
604
516
217
550
430
492
422
564
530
599
415
406
615
638
500
850
804
637
252
545
459
866
894
836
793
804
826
808
502
462
445
413
595
253
212
242
572
392
432
429
637
553
205
142
129
149
154
376
313
264
259
267
-43
48
-164
-556
-554
-217
-190
-531
-634
-575
14
541
1057
1385
1253
1585
1803
1944
2594
2486
2567
1975
1720
1877
1803
1612
1323
1061
887
476
539
366
297
303
269
-101
48
34
58
-259
-155
-521
-231
-371
-312
-351
-142
-367
-276
41
18
-326
-175
-243
-237
-155
-327
-330
-177
-531
-249
-360
32
34
-354
-513
-590
-555
-201
-371
-343
-366
-146
-151
-379
-348
-337
-348
-366
-130
-148
-143
-345
-262
48
18
-326
-134
-381
-340
-363
-217
-580
-563
-165
-265
47
7
-297
-308
-319
-363
-158
-171
-168
-215
-581
-419
-417
-581
-227
-191
-215
-516
-550
-548
-237
-135
-292
1
-284
-320
-315
-288
-303
-134
-253
-584
-571
-234
-144
-345
-323
-307
-287
-284
-324
-381
-138
-349
-306
-351
-204
-513
-164
13
-127
120
63
66
120
-127
56
-268
39
-66
299
260
118
9
15
89
-104
-81
-85
-104
121
112
-74
331
213
240
164
351
374
204
247
192
353
315
368
186
199
130
289
-13
283
376
191
187
128
337
348
141
168
148
383
163
237
252
135
-49
106
-81
340
178
369
-44
107
115
-83
-69
-105
-119
-52
312
370
335
272
283
134
246
243
369
-40
-94
-39
282
281
-18
-32
258
278
-21
-90
-114
-78
-37
-49
-106
97
80
108
-95
-44
-31
-71
100
-259
-355
-160
-165
-363
-287
7
9
48
-86
307
328
-62
41
22
123
-72
93
-327
-138
-322
32
45
13
57
-56
315
270
93
-322
-335
19
95
58
-308
-376
-327
51
-124
114
62
78
-82
-11
-55
82
35
-118
292
339
-5
-106
-108
-63
-116
-294
-202
-204
-329
31
11
-305
5
-48
181
535
216
351
295
315
332
277
-81
114
-115
-48
-22
-62
-124
93
80
84
123
-37
333
373
293
-104
68
98
-71
-28
-88
43
-308
-291
85
-44
-12
-88
85
87
-90
-32
-68
96
43
61
107
-123
-117
-107
-84
-72
-85
-101
-89
-34
295
343
316
-42
101
65
-117
-6
280
-67
58
8
76
-66
260
271
269
271
259
-45
-82
-56
263
277
-69
50
-267
45
-118
-95
105
61
106
-52
-14
-93
26
-314
-295
37
90
93
80
76
59
-260
-339
-368
-317
-259
-288
-150
-513
-513
-158
-316
-297
-338
-358
-307
22
28
-338
-245
-595
-562
-204
-158
-218
-559
-557
-209
-131
-148
-216
-230
-164
-364
-155
-536
-621
-578
-190
-344
-330
-357
-332
24
121
-119
69
-272
-299
-272
-258
-308
-141
-186
-132
5
-124
-95
84
-280
-336
-313
8
58
72
37
-304
-144
-183
-376
-258
68
37
-291
-314
-295
-319
-174
-539
-527
-158
-362
-239
-489
-667
-672
-838
-776
-479
-564
91
620
1070
1347
1550
1846
1995
2601
2463
2573
2310
2076
1901
1445
1406
1066
796
396
558
132
117
-378
-176
-313
62
30
-133
-522
-532
-214
-174
-172
-171
-174
-222
-562
-595
-250
-351
-278
-356
-230
-530
-214
-152
-174
-226
-219
-141
-333
-355
-170
-204
-168
-367
-341
-345
-339
-329
-351
-157
-226
-513
-244
-216
-191
-171
-148
-374
-331
-299
-323
-164
-536
-568
-232
-149
-202
-640
-776
-452
-232
-318
-327
-170
-193
-360
-280
-320
-179
-227
-155
-314
-316
-170
-532
-562
-553
-590
-420
-471
-428
-601
-572
-620
-406
-633
-572
-556
-603
-388
-638
-632
-428
-510
-781
-441
-591
-580
-422
-786
-811
-479
-617
-529
-516
-575
-397
-415
-604
-522
-514
-598
-426
-415
-583
-513
-528
-592
-618
-567
-220
-151
-134
-160
-201
-220
-187
-355
-265
27
9
-263
41
126
-94
116
58
91
-48
293
-3
-112
91
127
-91
-123
97
-81
360
234
164
-33
121
-24
167
217
324
-108
-119
273
381
346
-5
261
140
252
196
266
-125
-102
269
340
315
257
-17
260
275
263
-10
-9
270
294
292
-8
-86
111
119
-78
-36
-54
-95
-100
-69
-50
-40
267
367
157
303
99
-274
51
-54
259
-60
-115
-78
-18
-41
111
41
65
115
113
81
99
-64
296
344
335
303
278
276
295
298
-24
99
4
68
261
155
374
-59
69
98
-45
-2
-76
76
45
104
-64
-12
-20
-68
-122
120
-90
-20
262
-50
103
31
28
63
72
28
-295
-329
-311
-266
26
45
83
-77
309
376
301
111
-306
-317
50
-117
93
-297
-376
-327
36
90
75
63
104
-93
-95
83
-270
-326
-328
-297
6
56
78
41
-285
-311
3
93
103
-265
-172
-524
-249
-164
-347
-331
-358
-380
-352
-265
94
-124
49
-362
-205
-163
-299
0
-373
-566
-407
-570
-367
43
65
10
1
94
-37
261
-58
106
70
80
23
-151
-608
-417
-546
-345
21
9
-268
64
-59
-1
-90
1
-369
-129
-381
-177
-528
-581
-555
-247
-220
-190
-358
24
71
-289
-203
-534
-198
-324
-264
-280
-293
-271
-276
-347
-171
-186
-153
-160
-240
-572
-566
-243
-197
-192
-161
-317
49
73
-261
-334
-298
84
-86
121
7
-266
-125
291
289
-128
19
122
348
211
140
301
350
235
531
157
304
345
195
170
-15
85
119
277
373
333
-8
-45
-47
-70
-105
-83
257
333
342
293
-22
-75
122
55
-268
-341
-169
-250
-557
-576
-577
-521
-325
304
496
1096
1005
1356
1562
1676
2331
2563
2287
2335
2082
1893
1796
1461
1276
942
821
575
255
514
174
259
-122
-125
-88
126
15
-297
10
66
14
-365
-158
-326
41
31
-360
-221
-219
-145
-377
-186
-247
-209
-341
1
-289
-131
-163
-315
108
-51
-104
-257
-147
-219
-234
-233
-236
-241
-254
-531
-545
-529
-222
-156
-360
-330
-323
-335
-365
-147
-181
-204
-220
-234
-245
-251
-521
-557
-606
-633
-603
-514
-149
-334
-340
-145
-198
-182
-363
-296
-289
-336
-136
-174
-203
-230
-230
-185
-129
-129
-219
-601
-403
-590
-188
-339
-356
-189
-229
-166
-336
-358
-251
-392
-389
-520
-165
-191
-546
-592
-544
-213
-166
-378
-301
19
-273
-151
-517
-232
-354
-274
-348
-521
-640
-608
-225
-131
-143
-217
-251
-199
-369
-341
-145
-228
-243
-167
-320
-268
-274
-272
63
-72
-30
-126
-267
-278
-113
317
288
64
-369
-281
271
513
533
163
381
230
610
613
245
139
373
145
147
353
287
-4
272
339
178
520
556
513
150
291
-12
289
370
133
299
-89
110
-76
301
367
353
326
342
376
372
329
305
327
340
262
111
6
52
-49
315
274
-100
127
-1
169
206
329
-84
-115
-25
308
293
-4
280
350
341
-62
12
-316
-263
61
66
56
-125
293
174
193
379
324
325
316
-56
-288
-527
-635
-546
-325
-117
-39
-69
-96
-44
308
349
284
-75
-122
-102
-96
105
33
34
121
-45
-36
-117
34
-289
-301
-269
48
113
-116
112
52
8
1
9
3
-278
-308
-319
-309
-282
-260
-270
-310
-324
2
120
-85
104
6
11
-125
-16
-21
-93
-125
125
43
-378
-216
-368
86
-109
11
-372
-264
279
202
345
72
-340
-266
-108
-57
105
-277
-325
-278
72
-93
-40
-54
-126
63
64
126
-71
-36
274
130
516
567
248
142
347
362
366
319
282
341
222
579
574
531
573
462
841
803
603
375
-9
256
358
233
591
624
591
558
607
483
861
881
803
459
416
402
395
419
508
881
681
874
489
406
422
491
776
460
598
241
215
242
252
195
360
316
366
223
568
579
536
240
225
222
217
231
519
519
173
278
-79
-46
327
147
377
333
377
236
570
544
231
251
596
638
555
164
375
209
593
635
572
246
527
393
509
502
603
144
291
325
150
147
290
-79
-73
314
223
606
431
474
459
635
536
229
222
175
286
87
-313
-336
-289
-266
-306
-366
-133
-368
-359
-160
-541
-403
-390
-160
264
486
1122
1370
1586
1887
2004
2297
2602
2388
2048
1501
1572
1166
958
694
449
550
220
162
321
-73
49
-293
-321
-310
-292
-286
-302
-341
-150
-221
-526
-534
-526
-558
-392
-477
-473
-614
-217
-156
-201
-535
-562
-536
-530
-606
-462
-510
-451
-612
-588
-392
-444
-401
-551
-235
-517
-544
-212
-298
81
39
-131
-528
-525
-145
-285
-285
-157
-579
-409
-607
-194
-315
-310
-171
-555
-600
-566
-526
-527
-550
-563
-580
-615
-387
-622
-577
-578
-639
-425
-622
-234
-151
-186
-533
-582
-566
-534
-530
-552
-578
-604
-630
-386
-627
-605
-594
-590
-574
-562
-583
-608
-565
-178
-308
-303
-159
-513
-247
-180
-188
-567
-450
-485
-396
-255
-139
-344
-383
-245
-613
-596
-176
-268
-289
-238
-414
-616
-373
80
73
-320
-148
-375
-331
-360
-150
-348
71
-47
-38
-126
74
-128
-21
286
-9
-72
-61
293
137
383
256
127
120
-20
346
334
-27
-78
266
167
247
184
318
265
323
146
136
296
-31
284
201
611
635
550
221
223
246
200
345
279
320
137
383
283
-53
-23
332
132
357
290
-5
-10
-14
-33
-56
-77
-108
105
68
27
-292
-364
-130
-325
18
36
-297
-382
-376
-286
63
99
88
59
12
-302
-332
-298
15
5
-360
-207
-173
10
-46
272
-79
29
-308
-279
62
99
22
-139
-533
-542
-156
3
73
34
-289
-317
-320
-341
-373
-358
-269
87
103
22
-331
-340
18
-104
-39
-82
64
-285
-312
-285
7
18
6
-269
-267
18
70
-128
-99
-127
65
26
54
115
121
13
-151
-224
-369
116
283
261
95
-307
-319
27
89
45
-325
-156
-161
-363
-303
-270
-262
-270
-276
-260
38
82
91
45
-279
-319
-310
-279
-262
-272
-299
-326
-335
-290
96
276
147
148
309
-35
-58
-57
-100
73
11
-265
-289
-341
-358
1
-58
343
339
-3
-15
353
211
190
293
-109
122
-79
-74
72
-343
-183
-168
-336
0
34
36
51
111
-70
-39
-91
69
16
71
-57
292
261
121
-285
-341
-271
-128
-4
282
-43
106
50
102
-22
341
322
-85
-261
-317
43
-63
-21
-109
62
114
282
147
345
-85
55
98
-37
-1
-118
-286
-344
22
-57
285
-42
76
13
73
-87
-78
69
-324
-380
-329
15
47
-271
-131
-213
-189
-326
49
67
-285
-158
-231
-231
-204
-198
-211
-218
-195
-140
-333
-299
-317
-352
-340
0
93
99
8
-348
-355
-260
121
-30
305
355
340
-6
-99
-106
-27
286
-30
72
-317
-346
-286
36
53
24
-262
-267
18
61
89
95
79
45
-265
-303
-274
69
123
53
-361
-227
-238
-209
-520
-423
-846
-697
-761
-1042
-665
-550
-2
478
725
1097
1323
1479
2151
2337
1994
1779
1829
1647
1181
935
702
771
603
169
-6
-124
94
97
72
-269
-373
-167
-150
-377
-135
-166
-146
-316
25
37
-259
-270
36
81
36
-347
-207
-237
-200
-169
-174
-181
-153
-362
-337
-352
-379
-137
-146
-171
-201
-195
-384
-291
19
10
-287
-324
-363
-172
-253
-540
-224
-373
-316
-355
-169
-179
-361
-273
8
-280
-297
-263
30
5
-341
-165
-164
-351
-293
-301
-344
-365
-364
-376
-147
-379
3
-97
-62
38
-206
-610
-592
-521
-543
-399
-466
-637
-203
-343
-354
-159
-154
-322
4
-299
-201
-632
-478
-492
-458
-416
-626
-567
-240
-175
-366
-282
69
124
83
-305
-195
-533
-549
-555
-581
-589
-524
-143
-297
-284
-330
-349
-307
-263
-295
-155
-537
-592
-581
-567
-570
-543
-180
-294
24
-296
-130
-362
41
-91
-127
-285
-132
-327
74
-118
63
-294
-294
59
-102
-69
-60
-22
284
281
-47
-105
-67
298
367
333
-3
-21
306
133
153
374
335
299
-34
83
-299
-324
8
90
105
79
88
-110
-55
-53
-83
-95
-92
126
15
-378
-197
-164
-320
17
40
44
86
-91
-34
-50
123
37
5
21
40
13
-312
-372
-362
-272
101
-96
127
42
-278
-297
-309
-339
-347
-287
80
-103
-116
96
97
-101
-63
-87
127
-126
-86
-69
-100
-127
-97
-29
271
266
-24
-66
-125
54
6
34
-120
-15
266
-62
81
21
64
-80
257
-21
126
26
24
116
-46
-36
-108
75
76
-99
-2
304
293
264
270
323
132
149
356
280
-17
260
300
300
256
-26
274
349
341
-66
-268
-357
-271
-115
-55
117
-265
-304
36
-81
282
302
-20
127
56
76
-104
-63
-101
98
111
-61
260
-19
-91
-117
-53
303
351
308
-45
-115
-101
-22
293
-10
117
26
77
-38
279
-94
-282
-329
92
302
330
-115
-324
-348
65
-45
-55
81
4
26
62
16
-341
-376
-297
62
84
20
-298
-289
8
18
6
33
104
-110
104
32
33
113
-99
72
-339
-139
-286
-126
-87
46
-366
-135
19
-9
145
138
256
96
30
77
-98
-94
63
-319
-372
-332
0
58
74
67
49
28
18
25
27
-271
-371
-214
-223
-361
66
-88
-115
49
17
102
-31
258
-94
26
-287
-259
19
-262
-265
80
-58
-47
79
-292
41
270
164
321
57
-142
-172
-140
-183
-544
-587
-256
-137
-314
-274
25
70
66
13
-278
14
81
88
2
-369
-171
-133
-284
69
82
-281
-207
-604
-615
-520
-151
-331
-259
108
-26
298
288
-6
-13
260
-3
-52
-118
81
40
29
74
-86
-3
261
-53
-90
-44
302
339
292
-16
264
350
145
345
-31
-117
-114
-70
-73
126
92
-104
270
328
-4
118
78
-77
277
-84
-167
-794
-707
-895
-777
-780
-858
-802
-215
303
802
906
1182
1475
1790
2018
2339
2005
2110
1666
1450
1222
1009
1062
829
570
353
-15
-45
-89
82
48
-108
310
358
-41
23
-278
90
-97
0
-581
-830
-829
-634
-185
-378
-160
-191
-156
-343
-304
-338
-196
-592
-423
-406
-580
-538
-610
-503
-859
-830
-445
-576
-522
-514
-242
-211
-197
-219
-248
-252
-250
-557
-434
-850
-667
-839
-631
-173
-350
-148
-241
-520
-205
-142
-152
-236
-586
-624
-595
-537
-235
-224
-523
-616
-457
-503
-477
-435
-439
-500
-801
-498
-634
-535
-533
-595
-619
-562
-236
-254
-628
-478
-452
-574
-209
-244
-411
-834
-865
-476
-525
-129
-151
-561
-465
-509
-419
-549
-247
-567
-423
-509
-798
-779
-451
-600
-248
-218
-252
-539
-514
-190
-130
-364
-367
-379
-383
-370
-336
-306
-313
-352
-362
-292
76
-127
87
16
-266
-262
-295
-364
-130
-303
84
-94
-86
-68
284
169
529
553
516
178
309
-76
-126
-66
288
318
274
-1
336
197
242
195
144
163
203
160
277
-116
95
-121
-73
-63
-56
-3
346
158
159
372
352
133
188
187
360
-4
-60
-43
260
291
303
324
354
360
319
271
280
353
169
174
364
283
-18
-24
-24
-37
-56
-74
-98
116
66
40
60
120
-76
-45
-35
-10
302
354
365
343
337
361
361
277
127
15
11
72
86
29
-272
31
-121
-68
-116
54
10
11
8
2
37
110
-117
69
-292
-296
86
-34
-28
122
47
97
-47
-2
-53
-117
-117
-77
-64
-93
-127
113
92
57
44
81
116
75
-293
-130
-382
-305
25
66
99
-126
122
60
13
54
-105
-62
-126
47
53
-118
-71
127
24
-267
43
98
82
20
-271
-260
5
-267
-267
49
126
120
-270
-185
-247
-149
27
-108
-107
70
-265
-287
26
-121
-28
-28
110
-315
-167
-147
-289
97
-73
-52
-82
126
104
-126
-73
-49
-92
75
1
-271
16
48
38
-271
-332
-340
-272
76
116
78
17
21
101
-68
-32
-27
-1
297
282
-83
44
11
93
-72
-79
88
38
100
-42
263
-33
-67
-14
330
327
-59
64
73
-38
342
318
-70
96
-110
285
378
348
-22
-115
-120
-69
-55
124
22
18
-109
299
323
-51
83
88
-71
-23
-87
75
60
118
-111
97
37
44
106
-107
-93
-54
288
345
284
-128
-261
-293
-271
-287
-361
-172
-173
-376
-306
41
-83
299
324
-42
70
26
88
115
-261
-199
-553
-235
-131
-135
-246
-581
-536
-172
-377
-149
-158
-323
89
-57
-54
-113
111
-121
-90
-109
70
-273
-321
-314
-268
54
124
-91
-115
56
-281
-273
93
-26
313
318
269
-56
124
66
58
95
114
52
-318
-379
-315
98
-14
284
-30
-125
51
-284
-156
-596
-509
-837
-822
-818
-866
-844
-573
-56
471
1029
1133
1296
1430
2162
2420
2321
1773
1823
1812
1860
1496
1171
757
427
238
370
-33
64
-281
-275
17
-257
-329
-375
-345
-270
41
39
-272
-380
-527
-401
-440
-625
-253
-184
-197
-237
-237
-181
-367
-326
-325
-330
-304
4
26
-290
-161
-522
-517
-157
-327
-356
-213
-539
-226
-350
-272
-317
-169
-218
-165
-342
-341
-174
-519
-516
-176
-365
-132
-204
-219
-384
5
69
31
-301
-346
-363
-141
-211
-540
-579
-585
-573
-540
-231
-186
-175
-178
-143
-317
-259
-300
-174
-538
-544
-221
-175
-193
-235
-245
-214
-182
-180
-205
-239
-530
-561
-561
-251
-174
-153
-256
-443
-829
-769
-546
-328
-288
-181
-617
-417
-596
-241
-224
-548
-638
-442
-460
-435
-639
-594
-592
-618
-598
-227
-332
-273
-373
-538
-603
-252
-374
-362
-233
-613
-596
-197
-323
-296
-327
-320
-264
27
-258
-297
-267
63
80
8
-323
-297
58
94
3
-365
-348
64
-42
-23
-95
-124
-48
319
354
292
-52
-106
120
53
-336
-217
-523
-188
-298
50
24
-316
-340
5
-125
-76
110
-261
-322
-310
-292
-333
-171
-254
-530
-240
-202
-200
-232
-527
-556
-586
-611
-595
-514
-164
-147
-249
-390
-434
-575
-373
18
-264
-169
-600
-400
-553
-374
-261
-294
-175
-565
-617
-593
-539
-231
-198
-207
-523
-605
-394
-633
-587
-562
-570
-578
-562
-529
-232
-188
-145
-378
-146
-219
-561
-609
-584
-251
-199
-250
-640
-474
-402
-207
-331
-143
-592
-439
-599
-165
-356
-189
-552
-551
-226
-227
-604
-496
-806
-499
-423
-390
-398
-405
-391
-617
-563
-236
-180
-178
-239
-569
-603
-591
-555
-518
-226
-200
-202
-236
-528
-519
-193
-349
-257
59
68
17
-330
-145
-148
-362
-346
-134
-182
-158
-320
7
-278
-363
-135
-322
7
-294
-192
-566
-528
-375
-262
-286
-129
-166
-345
27
77
34
-298
-343
-345
-317
-265
66
-123
-118
70
-285
-330
-275
107
-47
-53
77
-336
-143
-311
117
-17
-36
95
-269
-265
104
-19
298
256
-93
95
89
116
-119
-110
-82
-29
263
-20
-87
-118
-52
339
209
543
590
637
400
598
219
374
362
145
144
327
258
281
371
172
153
135
198
557
570
195
328
339
217
578
553
207
184
252
569
547
236
235
543
557
237
173
194
536
577
248
374
300
320
370
370
315
268
275
306
318
311
334
151
222
221
165
156
512
402
459
632
252
216
545
389
429
411
634
609
587
556
246
153
288
-68
-95
-63
-61
104
-308
-186
-239
-193
-293
-19
575
880
1106
1310
1581
1664
1972
2401
2402
1995
1744
1479
1553
1216
1394
969
741
836
773
430
211
-67
27
22
29
-352
-548
-632
-531
-365
-286
-325
-132
-133
-338
-302
-330
-155
-214
-190
-361
-319
-142
-537
-575
-194
-275
41
-296
-132
-377
-292
9
-293
-132
-230
-578
-395
-401
-581
-226
-183
-203
-213
-175
-137
-153
-211
-250
-520
-582
-469
-872
-649
-791
-631
-548
-579
-420
-507
-787
-485
-386
-536
-234
-547
-430
-819
-858
-785
-421
-385
-458
-830
-884
-833
-478
-418
-426
-456
-456
-433
-439
-509
-875
-703
-703
-881
-795
-770
-809
-841
-792
-433
-633
-438
-809
-846
-770
-437
-488
-658
-1043
-743
-803
-613
-570
-425
-832
-885
-784
-590
-182
-171
-537
-390
-638
-520
-150
-138
-218
-551
-546
-216
-150
-149
-200
-237
-208
-131
-319
-309
-366
-198
-513
-241
-145
-262
121
-45
281
346
137
136
351
332
366
146
342
-81
27
33
-67
341
348
-27
-118
-69
335
196
196
368
298
304
381
202
210
373
-35
105
83
-120
-73
-69
-72
-37
284
321
299
259
260
303
330
314
287
304
372
189
221
201
157
129
137
159
147
337
259
-12
324
187
515
241
173
376
369
147
187
193
135
296
-25
-17
298
340
340
345
130
152
327
-105
5
8
-112
273
282
-84
42
-266
57
-44
373
192
139
277
-64
-73
-64
-98
108
113
-75
-16
-15
-29
265
327
326
-13
-70
-12
362
140
291
-104
110
-83
-19
-35
-100
114
118
-127
-128
-115
-64
261
302
288
-13
-40
-22
278
296
268
-33
-58
-51
-36
-34
-31
-7
289
308
283
-24
-59
-57
-27
263
283
282
269
-5
-30
-74
113
54
51
110
-80
-71
-118
96
113
-72
-10
261
-14
-15
264
-1
-96
19
-314
5
-111
-30
-65
124
-122
-53
-48
94
-282
-261
-116
-33
124
-314
-359
80
348
236
187
313
-16
-10
-9
-74
82
24
44
100
113
53
-278
-284
57
-93
-53
-99
87
72
127
-53
-5
268
270
262
-26
-90
91
29
-268
-298
-321
-315
-267
50
64
11
-314
-325
0
85
91
2
-372
-171
-138
-323
-287
-308
-349
-360
-326
-291
-309
-381
-176
-134
-265
85
39
-369
-220
-166
13
-84
-44
-89
-121
-91
-34
-3
-4
-13
-17
-8
276
325
357
328
-26
119
72
115
-65
-50
105
-318
-162
-347
124
333
147
333
-6
259
320
322
-23
-118
-111
-29
-3
-107
-271
-360
-320
6
-292
-230
-479
-651
-702
-685
-673
-651
-778
-209
-9
451
1062
1331
1610
1672
1934
2019
2160
1692
1498
1596
1183
1010
1089
664
489
548
368
-21
-113
48
-322
-141
-378
-303
-261
-292
-335
-315
3
-259
-136
-560
-614
-529
-187
-234
-617
-390
-248
-338
-348
-532
-435
-420
-572
-564
-422
-487
-620
-143
-298
-151
-592
-421
-619
-515
-208
-226
-542
-617
-412
-408
-621
-600
-631
-411
-626
-241
-379
-372
-204
-529
-238
-135
-343
-180
-392
-855
-659
-785
-570
-186
-221
-574
-569
-185
-325
-356
-241
-588
-545
-198
-195
-537
-597
-546
-177
-379
-175
-526
-584
-594
-606
-403
-478
-499
-411
-517
-174
-231
-626
-440
-621
-237
-214
-593
-482
-770
-448
-396
-405
-399
-558
-162
-347
-383
-193
-220
-239
-567
-421
-460
-624
-225
-166
-234
-582
-568
-172
-260
81
59
-261
-305
-306
-284
-260
30
89
-96
-57
-88
81
3
-266
53
-99
-10
281
262
-29
-21
321
185
248
230
196
236
594
386
560
172
141
246
621
616
254
191
242
582
589
524
235
530
548
197
290
-54
267
155
244
226
158
380
141
158
379
297
-28
-31
279
328
324
300
338
207
588
595
219
339
290
295
-5
-113
84
-83
346
178
369
-1
-29
292
335
294
-27
-43
-33
-73
107
105
-21
141
180
322
-78
126
-111
125
26
-335
-356
-281
97
-32
337
138
355
-1
-65
-35
279
-6
104
-316
-366
-272
122
-62
-70
-96
-100
-121
28
-141
-251
-209
-316
42
3
-341
-315
109
270
263
113
-268
-262
56
36
-335
-157
-361
11
52
-274
-347
-326
-259
-270
-375
-189
-356
99
-29
-76
47
9
124
258
264
-112
32
23
65
53
-282
-343
-324
-260
20
-275
-324
-337
-325
-335
-375
-139
-351
-263
50
20
-329
-129
-328
74
-62
-59
108
36
55
-120
-63
-72
-105
-105
-83
-107
37
-368
-195
-148
-272
93
96
24
-274
36
-109
-28
-15
-40
-65
-96
99
28
-258
14
19
-276
-313
-269
110
-54
-94
30
-298
39
-43
325
285
-103
77
-110
319
221
527
211
373
321
319
308
-28
98
7
29
-127
-51
-51
-83
-64
265
308
-3
-125
24
-289
-322
-363
-130
-357
-280
71
-85
275
332
272
111
-283
-289
52
69
-313
-209
-204
-271
-52
301
295
313
155
242
203
312
-59
-46
301
339
281
-36
256
360
145
304
-105
95
-81
268
-13
126
62
-123
-3
294
-2
-2
341
150
318
124
10
80
-33
257
-92
88
116
-127
-284
-575
-776
-488
-618
-408
-667
-1112
-653
-303
626
1029
1150
993
1258
1852
1763
1665
1447
1566
1536
1217
1290
1059
650
842
501
584
135
273
-37
-116
11
-331
-295
65
115
69
2
-271
-287
-143
-599
-773
-810
-462
-602
-529
-235
-214
-219
-248
-515
-208
-142
-180
-635
-886
-732
-845
-578
-151
-165
-249
-233
-338
68
72
-328
-220
-251
-179
-383
-194
-604
-453
-402
-214
-289
2
-365
-246
-534
-183
-324
-293
-338
-374
-369
-130
-242
-407
-490
-430
-576
-561
-404
-467
-615
-130
34
20
-353
-153
-348
-260
-262
-366
-243
-585
-610
-595
-555
-240
-169
-363
-341
-375
-186
-223
-180
-336
-276
-336
-216
-551
-238
-373
-328
-159
-542
-600
-578
-565
-630
-473
-494
-385
-210
-341
-325
-363
-369
-324
-284
-308
-365
-378
-320
-267
-305
-151
-173
-275
-35
342
-14
34
-333
-267
-125
-53
-79
-111
-88
-59
-91
92
79
-88
294
358
342
310
327
382
157
134
337
305
321
368
148
134
330
287
325
185
538
254
366
-9
282
186
562
521
375
295
129
559
631
255
284
119
111
-37
319
331
267
-52
-47
294
156
250
543
526
219
141
302
-32
-59
-36
-19
-61
105
39
38
66
45
-281
-317
13
-96
-14
-84
22
-283
112
315
378
-23
13
-357
-333
-297
-339
-148
-372
16
112
70
-298
-323
58
-22
323
280
-86
75
41
87
-68
258
-45
55
-342
-363
-285
27
-265
-332
-337
-271
70
-115
-46
258
-27
117
19
52
-56
304
-16
52
-351
-351
1
81
109
123
-115
122
45
-277
21
-90
281
-14
75
-328
-346
-273
33
15
-267
30
112
-109
103
41
43
117
-59
-32
-57
-94
-122
107
70
34
12
0
-272
-298
-307
-271
58
-123
-70
-17
326
175
221
147
-12
110
93
-92
-46
-100
52
19
113
256
319
-1
-102
-112
-11
363
372
257
116
68
-114
258
310
258
-107
63
46
83
124
-124
115
109
-111
-56
-42
-96
90
94
-48
350
130
271
95
-257
41
-96
259
286
-3
-63
-128
83
84
-113
-17
318
332
267
-91
107
-111
-1
343
331
-36
95
37
51
81
89
86
102
-128
-122
110
90
103
122
77
-301
-150
-134
-259
105
75
-301
-357
-267
-116
-61
92
-344
-215
-231
-163
-315
38
90
77
18
-286
-285
-273
-328
-209
-601
-637
-555
-192
-165
-211
-222
-132
7
79
48
-265
-273
16
27
14
46
-105
-2
-2
-95
75
62
88
110
-100
277
146
136
-49
-262
-311
72
-73
107
-366
-254
-182
37
-59
-71
68
-263
46
-90
-54
75
-143
-545
-538
-208
-235
-414
-888
-749
-744
-679
-815
-562
109
578
692
961
1254
1909
2306
2249
2179
1947
1697
1484
1542
1342
1146
684
442
184
-12
-87
-94
91
-354
-540
-573
-176
-273
9
-358
-207
-189
-333
11
-258
-332
-381
-363
-319
-338
-190
-573
-603
-223
-280
95
54
-324
-373
-293
67
41
-132
-580
-402
-613
-546
-537
-559
-529
-153
11
124
-119
69
-281
-344
-352
-317
-269
17
5
-305
-364
-130
-357
-291
27
47
17
-285
-286
44
-111
-80
94
-292
-367
-369
-133
-237
-616
-626
-234
-326
-279
-357
-179
-165
-343
-300
-331
-372
-364
-332
-336
-384
-171
-177
-180
-224
-533
-523
-178
-348
-365
-213
-540
-234
-366
-302
-358
-213
-535
-536
-531
-565
-604
-593
-536
-245
-538
-607
-605
-229
-307
71
70
-273
-361
-146
-154
-164
-173
-152
-344
-278
-262
-293
-297
46
-68
277
-27
86
-283
-297
-259
-265
-327
-353
-272
126
-46
-72
107
79
-103
312
242
632
387
255
322
-50
-43
-5
-54
74
-266
31
-115
-48
-33
278
148
513
513
179
139
167
168
329
-37
-35
329
381
268
91
49
-66
344
340
-51
118
-89
-1
-27
92
4
79
-17
302
-54
76
85
-33
314
-22
45
-344
-344
-280
7
-260
-257
33
64
82
122
-62
-26
-100
0
-363
-329
52
-110
-86
-66
-6
292
-12
-101
-98
285
379
273
29
-359
17
-22
285
-125
9
98
276
285
93
-304
83
373
519
154
-13
-2
162
251
134
-78
65
109
-63
-64
97
-260
-275
69
-60
277
272
-40
-77
-76
-82
125
70
91
-62
284
-1
116
0
28
-83
294
306
-13
-48
-6
322
377
165
220
521
241
128
-5
-71
-60
-45
-94
68
13
52
-105
-29
-28
-84
113
90
99
113
109
86
49
1
-299
-318
-285
55
-107
-55
-78
109
53
66
-94
297
140
146
320
-36
-81
-58
-16
-13
-54
-113
95
73
78
109
-108
-92
-100
-106
-91
-75
-105
73
14
46
-100
-19
-59
50
-335
-333
36
-124
95
-300
-141
-349
49
126
63
-304
-307
82
-46
-78
4
-148
-149
-294
51
43
-271
-302
-288
-265
3
10
10
-285
-365
-161
-360
39
120
29
-162
-250
-379
85
118
-367
-420
-798
-421
-237
-181
-245
-539
-224
-152
-181
-555
-392
-626
-519
-169
-162
-234
-563
-555
-182
-289
24
-305
-147
-375
41
-97
77
-135
-227
-306
-11
362
-77
-370
-206
10
341
514
178
-25
95
100
-71
260
285
278
269
272
291
339
155
223
253
220
140
310
-10
-60
-114
88
60
52
7
-362
-254
-608
-625
-604
-575
-220
63
539
1059
1198
1458
1714
2312
2653
2544
2666
2357
2065
1884
1493
1546
982
648
413
599
633
393
566
129
-62
82
54
58
54
36
13
-305
-176
-575
-618
-233
-280
74
-290
-227
-552
-166
11
56
-287
-369
-367
-351
-163
-536
-577
-248
-165
-186
-538
-582
-256
-146
-344
-344
-339
-311
-303
-331
-339
-304
-285
-359
-237
-545
-191
-311
-320
-236
-638
-590
-135
17
4
-344
-364
-293
8
-319
-200
-532
-246
-197
-233
-613
-468
-459
-593
-205
-155
-179
-208
-198
-184
-225
-562
-614
-616
-628
-436
-487
-424
-527
-180
-253
-637
-622
-169
2
-324
-595
-806
-511
-566
-197
-537
-436
-470
-615
-254
-554
-458
-817
-498
-592
-247
-589
-775
-894
-838
-389
-206
-160
-255
-621
-616
-232
-358
-338
-159
-215
-170
-335
-302
-358
-169
-177
-132
-327
-263
62
113
102
47
13
35
62
41
6
45
-85
286
298
-14
-30
297
380
372
269
-97
122
-93
-20
306
374
185
240
512
225
178
152
150
146
371
333
329
357
367
317
-4
261
362
202
174
276
126
109
-14
153
231
196
381
356
368
339
-31
92
60
-92
287
271
100
-320
-305
-119
317
346
259
-39
296
158
182
354
265
264
320
326
-31
85
19
76
-67
264
264
-33
-58
-47
-31
-41
-71
-89
-65
-8
284
262
-56
-81
-23
326
346
-1
-111
-112
263
363
331
-32
-42
374
566
592
152
-93
27
30
77
91
78
89
126
-100
-92
-75
-15
336
157
157
333
-24
-86
-97
-98
-121
109
115
-118
-128
72
35
73
-105
-75
-106
-126
-73
-7
-41
74
-305
-286
104
-42
-56
108
60
-128
280
163
204
381
-23
103
33
2
-296
-350
-367
-317
8
26
-263
-279
26
110
-95
-99
-119
126
100
29
-315
-337
8
-114
-52
126
-285
-369
-296
121
-48
-128
-277
-304
126
350
382
-95
-366
-168
20
-28
-26
54
-328
-260
-96
-45
93
-287
4
-103
-49
44
-209
-562
-162
70
-84
90
-286
-309
-257
22
-280
-330
-323
-296
-319
-373
-372
-271
-116
257
299
289
-11
-91
52
-305
-351
-350
-354
-147
-227
-531
-234
-129
-294
-281
-323
-331
-262
73
67
-278
-342
-302
46
84
55
53
-121
-23
-16
-99
102
-99
283
371
367
308
-4
-27
-23
256
278
276
-14
-57
-87
-99
-101
-84
-38
266
263
-48
-81
-36
309
345
302
264
310
137
139
277
-116
106
-95
-62
-120
28
-316
-129
-242
-403
-787
-801
-461
-617
-529
-130
-106
566
762
1161
1484
1765
2014
2189
2228
2367
2140
1881
1646
1194
1019
1088
870
633
161
279
-4
304
341
280
127
-274
-327
-303
-292
-337
-138
-157
-158
-200
-540
-601
-594
-551
-535
-549
-550
-533
-553
-631
-433
-632
-226
-380
-178
-591
-448
-432
-592
-523
-535
-597
-386
-636
-582
-528
-526
-575
-605
-538
-136
-291
-348
-534
-427
-399
-225
-331
-338
-218
-586
-562
-183
-347
-371
-214
-536
-518
-216
-225
-564
-398
-426
-387
-591
-567
-566
-560
-556
-593
-409
-449
-387
-243
-382
-376
-194
-246
-221
-169
-167
-207
-214
-165
-143
-240
-415
-773
-451
-547
-190
-209
-531
-556
-544
-543
-555
-543
-250
-513
-601
-450
-467
-627
-249
-186
-176
-174
-165
-173
-205
-225
-210
-192
-205
-220
-170
-303
64
75
2
-311
-284
57
-125
-96
-91
-91
-96
-82
-15
361
194
165
285
-102
127
-66
266
306
329
369
162
195
213
237
252
232
171
370
359
143
194
232
254
514
237
206
200
227
240
188
343
273
297
140
234
539
564
591
585
515
163
383
183
244
212
354
271
310
172
514
514
220
192
147
297
-95
94
-107
259
313
277
-44
-62
-28
257
-13
-66
-122
107
115
-117
-109
127
101
108
-83
268
338
343
273
-99
58
48
-110
270
296
-80
-259
-350
-292
101
-65
-75
-122
-118
-44
287
291
-34
-110
121
-117
-119
97
59
75
123
-123
76
9
11
74
105
31
-364
-198
-179
-341
12
83
-122
-86
-88
-127
98
123
-60
-1
-14
-109
4
-131
-204
-168
-298
85
114
33
-318
-327
4
89
-124
-110
-113
97
-258
-337
-312
63
-97
-112
68
48
115
-69
-67
-102
-116
-116
104
36
-259
11
21
-284
-346
-324
51
-91
-76
127
117
-65
270
257
-91
95
102
-117
127
57
-265
-275
11
30
26
37
87
-116
-107
120
111
-98
-23
281
289
280
-11
-94
60
26
124
283
328
-72
-285
-371
-261
-74
290
289
258
258
269
269
282
326
353
297
-93
36
-282
-323
-151
-238
-203
6
260
362
266
-124
-108
328
242
237
326
-106
98
-104
-64
-98
96
79
112
-123
100
53
47
81
108
112
-119
-38
307
314
-39
96
29
5
-296
-372
-149
-346
6
32
-291
-355
-315
67
-105
89
-328
-184
-153
-291
40
2
-349
-144
-372
-324
-328
-378
-152
-380
-323
-291
-287
-277
4
14
0
8
88
-45
274
-31
-121
114
-85
-54
125
14
9
-115
272
-11
73
-321
-271
-72
348
318
113
-359
-174
-331
84
-82
-114
56
20
70
-119
127
28
-334
-350
-267
69
45
-351
-520
-634
-422
-449
-498
-833
-667
-747
-1028
-668
-628
78
543
889
1107
1318
1617
1708
1964
2016
2143
1694
1532
1651
1228
1009
1033
840
430
533
359
-69
57
-283
-342
-147
-214
-518
-250
-173
-340
-325
-162
-558
-617
-544
-163
-371
-187
-557
-617
-612
-601
-607
-592
-533
-229
-526
-399
-500
-460
-550
-142
-377
-203
-517
-211
-369
-334
-145
-223
-202
-344
0
-295
-172
-520
-212
-306
92
-122
97
69
94
-126
122
62
-266
-317
-348
-371
-382
-134
-153
-187
-192
-129
-296
-299
-190
-389
-473
-640
-235
-173
-217
-251
-184
-315
11
-283
-372
-161
-130
-335
-343
-174
-550
-626
-610
-524
-183
-164
-219
-548
-571
-533
-232
-247
-576
-630
-589
-211
-367
-373
-195
-231
-155
-284
5
-377
-569
-405
-592
-206
-163
-239
-566
-513
-369
-281
-334
-198
-244
-171
-313
2
-257
-258
27
66
96
-124
-66
-17
-24
-89
113
-127
-49
281
311
315
324
325
266
-105
65
92
-46
311
312
-13
-61
-58
-59
-109
74
46
93
-72
269
325
341
317
285
293
343
373
309
-88
54
52
-110
-20
-15
-92
63
9
29
101
-105
-123
92
-126
288
214
518
377
-107
-264
-304
-301
-330
-129
-142
-333
29
124
-63
257
318
340
282
-95
28
-320
-360
-358
-317
16
82
79
-261
-348
-350
-270
51
37
-261
17
102
-108
97
26
46
-108
-58
105
-326
-199
-224
-180
-354
30
-68
286
-10
117
38
89
-64
-52
72
-357
-165
-322
108
-30
-32
-97
-116
-34
342
375
260
80
-281
16
-121
-43
-51
-94
-104
-95
-125
56
4
42
-115
-63
-113
52
31
102
-71
-41
-38
-2
316
326
-6
-90
-83
271
359
361
292
-43
-109
84
38
48
104
-121
77
-292
-346
-270
-109
269
285
-19
-53
-44
-32
-57
-114
99
86
83
80
92
-120
-69
-59
-85
-87
-21
319
327
-31
95
33
43
49
4
-288
22
-103
256
259
-46
-31
345
218
216
305
88
-285
-263
58
61
2
-275
69
-38
303
-15
88
-286
-297
2
-259
-334
-146
-130
-315
-266
0
29
118
-59
-90
20
-379
-151
-333
3
32
31
40
55
56
41
32
36
38
35
53
101
-112
-126
68
21
40
108
-99
-124
37
-340
-164
-149
-304
55
63
-293
-138
-136
-293
40
20
-307
-322
7
75
39
-326
-137
-368
-323
-343
-157
-187
-137
-325
-327
-143
-199
-174
-352
-300
-321
-145
-229
-531
-535
-256
-209
-141
-326
-303
-360
-198
-214
-335
-110
308
301
-66
-107
274
219
566
203
262
-90
-38
277
-66
-263
-362
29
297
206
144
-20
-79
259
336
258
70
-309
-272
97
-111
113
111
-39
369
162
304
-124
51
79
92
-289
-517
-425
-396
-240
-147
-215
-578
-234
-92
466
910
1356
1167
1623
1781
2209
2609
2381
1748
1509
1473
1441
1203
1030
628
179
174
191
379
258
-71
-66
-69
105
-269
-310
20
89
16
-194
-627
-621
-222
-369
-374
-154
-371
-292
-300
-158
-241
-172
-265
78
13
-366
-166
-156
-163
-218
-515
-233
-191
-210
-538
-587
-561
-228
-155
-364
-347
-372
-182
-255
-527
-217
-152
-134
-147
-130
-327
-289
-329
-148
-161
-356
-317
-147
-582
-455
-435
-575
-238
-514
-569
-553
-192
-332
-308
-150
-557
-394
-619
-255
-195
-530
-440
-790
-461
-555
-212
-523
-625
-389
-579
-540
-600
-446
-491
-458
-415
-410
-410
-630
-587
-608
-437
-497
-440
-555
-205
-254
-408
-789
-770
-610
-161
-307
-319
-134
-168
-133
-353
-153
-571
-473
-510
-432
-617
-387
-450
-409
-210
30
-119
71
-303
-340
-295
-270
-316
-366
-320
62
-103
-127
40
12
88
-76
-71
97
15
19
90
-106
-93
-77
-9
358
190
199
382
272
-70
-108
-114
-119
111
64
15
-272
-263
72
-32
144
244
209
349
278
316
141
144
304
-35
-9
352
157
370
293
289
357
144
354
262
-35
-6
278
-17
-85
-87
-2
348
343
-28
88
17
32
81
124
-105
-104
109
32
-273
33
-94
272
290
-11
-37
-16
258
-33
-100
122
-119
-101
-109
-128
124
121
109
115
-70
307
376
308
-112
18
34
-100
-4
-20
-108
101
-108
-33
-29
125
7
-280
37
98
80
2
-303
0
-126
264
312
-27
57
-327
-292
-119
265
-80
-314
-180
-279
279
170
290
51
-293
71
-62
-78
67
-268
-279
-280
-283
33
-76
302
268
100
-285
0
111
-105
68
