-185
-487
-878
-783
-624
-571
-606
-388
-472
-662
-1108
-1057
-462
-134
-189
-878
-1320
-1220
-1165
-1376
-1365
-961
-894
-597
-226
-132
-26
862
1154
1257
920
482
539
429
1098
1657
1991
2535
2992
3325
3688
3446
2875
1931
1568
725
-13
-884
-1272
-1266
-874
-77
565
371
-379
-769
-645
-644
-693
-1101
-1005
-1335
-1331
-1319
-1299
-934
-707
-482
-459
-726
-1378
-1622
-1538
-914
-456
-353
73
49
-372
-564
-392
-535
-287
-84
-51
118
94
-31
136
141
-94
-185
-447
-826
-891
-689
-659
-461
-132
-94
302
344
141
238
569
574
551
533
222
333
-52
296
401
767
1053
772
580
807
1319
1640
1248
1117
845
776
470
555
339
-23
272
356
201
608
790
707
1131
1009
990
693
232
-61
-16
140
298
-322
-551
-372
-34
256
-329
-627
-605
-236
-437
-929
-1217
-955
-388
-299
-135
-609
-537
87
184
253
300
-290
-397
-738
-966
-1004
-947
-990
-1162
-1246
-988
-503
-215
-392
-1112
-1405
-1324
-903
-1302
-1465
-1718
-1467
-1115
-395
-411
-1057
-1159
-1218
-1311
-916
-983
-1248
-1822
-2058
-2099
-1905
-1543
-949
-1107
-1281
-1269
-1557
-1306
-724
-849
-726
-930
-1004
-909
-1026
-751
-904
-1181
-1410
-1629
-1295
-854
-630
-495
-752
-1083
-885
-637
-623
-881
-941
-1369
-1364
-1008
-1116
-706
-679
-904
-1265
-1467
-1568
-933
-705
-1078
-1385
-1610
-1413
-1414
-1450
-1525
-1715
-2195
-2981
-3937
-3717
-3199
-1953
-1461
-1817
-1860
-948
-1
954
1328
803
273
108
123
-275
-583
-817
-839
-453
-580
-566
-447
-881
-657
-423
-293
-92
-285
-420
-664
-702
-1045
-1334
-1564
-1175
-1117
-1140
-1436
-2044
-2319
-1501
-1292
-1223
-2129
-2563
-2386
-1868
-1584
-1513
-2147
-2314
-1929
-1779
-2089
-2026
-2393
-2047
-2112
-1716
-1894
-1490
-1247
-1020
-1146
-1090
-1072
-1146
-1375
-1659
-1513
-1614
-1357
-955
-965
-981
-1131
-725
-708
-1151
-1175
-1610
-1573
-1373
-901
-737
-813
-256
-97
254
604
210
375
575
729
1002
1143
486
198
580
740
987
702
-73
-653
-1367
-1397
-1365
-1631
-1927
-2616
-2300
-2075
-1627
-1559
-1467
-1454
-1393
-1125
-1311
-1827
-2083
-1458
-1070
-856
-1323
-1908
-1869
-1106
-274
-66
-219
-831
-581
158
754
685
305
-568
-459
-209
-268
-203
-649
-939
-1109
-828
-420
-476
-774
-595
-269
-65
124
-315
-382
-294
47
-273
-194
-579
-564
-185
-330
-309
-371
-201
-212
-310
-36
172
162
-65
-308
-367
-282
19
-321
-185
-130
-81
586
885
670
490
516
160
247
639
576
-26
-212
-424
-522
73
324
175
527
458
885
877
446
522
178
362
-87
-135
-399
-512
-511
-452
-597
-139
100
-22
-37
-98
-23
172
541
180
-80
-304
-130
-154
-217
-245
-371
112
-62
-265
-596
-500
-403
-525
-625
-700
-1011
-1367
-1311
-978
-901
-740
-503
-573
-530
-584
-639
-447
-851
-1076
-1300
-1241
-1439
-1902
-1681
-1653
-951
-650
-877
-661
-497
-142
107
45
-202
-412
-800
-697
-1126
-909
-746
-786
-474
-864
-737
-700
-810
-430
-395
-418
-480
-854
-707
-682
-491
-562
-624
-697
-1281
-1297
-709
-597
-516
-417
-485
-224
259
602
577
302
64
19
86
98
18
-338
-140
-374
-262
-110
-31
-110
8
-260
111
120
-153
-787
-882
-547
-111
-38
-148
-841
-703
-451
-357
64
21
-337
-342
47
-80
-125
-303
-129
38
272
-30
-152
-500
-469
-162
30
-334
-539
-522
-285
-85
-90
43
-311
-363
-170
-232
-224
-148
-315
11
25
-314
-216
-601
-576
-165
-344
-198
-619
-390
-229
-313
-278
-303
10
-98
-5
-90
-278
-165
-192
-141
-352
-317
-300
-326
-144
-225
-234
-133
-260
52
41
113
138
818
898
1004
966
983
1388
1542
1273
1368
962
950
1300
1335
943
643
536
-27
20
-130
-567
-845
-913
-1383
-1360
-899
-713
-716
-1126
-985
-913
-707
-803
-777
-801
-469
-241
49
260
321
-24
63
-343
-132
-321
11
-282
-177
-579
-605
-517
-146
-301
59
-96
-72
79
-310
-277
-31
519
624
241
312
-2
332
148
338
-105
-290
-343
39
276
211
213
263
2
-344
95
158
600
253
285
-46
149
419
478
528
287
-28
305
314
-72
71
-126
295
381
350
353
541
849
1079
1130
1059
729
695
675
887
801
407
237
354
325
130
180
141
300
261
335
207
550
563
531
213
361
-42
100
56
53
14
-376
-561
-440
-467
-452
-493
-854
-890
-456
-361
-90
95
-539
-887
-853
-221
101
42
-584
-891
-896
-456
-614
-465
-677
-1131
-1019
-1362
-1358
-992
-1119
-1051
-746
-882
-427
-256
-202
-225
-525
-621
-787
-889
-773
-245
-346
-184
-578
-227
46
125
-185
-650
-1134
-1077
-1036
-946
-1408
-1366
-1102
-895
-883
-689
-648
-783
-438
-386
-517
-314
64
-273
-211
-561
-219
-346
-363
-585
-647
-1125
-1136
-710
-800
-809
-722
-1100
-760
-812
-455
-806
-705
-759
-678
-808
-432
-567
-246
-584
-814
-1062
-935
-970
-1302
-1215
-1603
-1543
-1022
-675
-395
-253
-226
-229
-187
-356
-312
-132
-553
-396
-576
-359
111
-57
-90
96
48
34
50
68
33
-361
-558
-425
-635
-217
-133
-533
-844
-1081
-1058
-848
-438
-485
-843
-486
-162
98
6
-394
-762
-1082
-658
-794
-875
-764
-745
-495
-179
-265
-286
-371
-370
-296
-289
-168
-585
-600
-215
-383
-192
-557
-255
-288
-91
-106
4
-293
120
346
515
411
872
1066
1080
667
844
1033
1346
1211
1324
930
1288
1206
1332
812
258
66
-69
-69
-199
-730
-965
-735
-570
-337
-133
-544
-607
-550
-244
-564
-433
-479
-604
-341
112
84
-374
-543
-601
-426
-689
-1308
-1241
-1356
-1027
-497
-581
-381
-91
155
207
338
-75
76
-270
-363
-166
-141
-329
-264
69
-61
331
147
155
189
536
539
337
50
-328
52
-47
-117
-134
-574
-220
40
-57
-99
48
34
117
-79
-117
45
-261
50
-50
133
536
638
455
507
487
607
152
291
353
524
639
611
521
241
579
431
475
446
386
580
518
198
141
356
330
305
272
-18
-39
-39
-32
-50
-94
-117
-73
-9
-31
65
-161
-561
-564
-234
-162
-360
-276
78
119
71
2
-257
64
85
-284
-232
-407
-467
-428
-624
-594
-613
-394
-392
-585
-243
-215
-529
-596
-557
-160
-310
-364
-525
-624
-584
-536
-626
-817
-887
-461
-189
-306
-380
-524
-569
-247
-186
-221
-606
-512
-664
-1041
-1100
-1074
-721
-836
-405
-188
-259
43
-299
-368
-269
-76
-62
-141
-882
-1095
-822
-330
-90
-293
-389
-464
-165
-43
318
106
-185
-563
-216
-310
-266
-141
-605
-434
-522
71
302
-52
-136
-387
-544
62
298
-35
-270
-382
-276
121
106
-312
-227
-579
-610
-571
-164
72
-15
-29
110
76
-90
-7
-26
-72
-67
-117
-130
-474
-486
104
391
794
371
-316
41
549
859
635
-67
44
-5
360
50
-458
-696
-784
-518
-202
-550
-543
-378
27
70
-118
334
196
-62
-628
-1034
-670
-526
-378
-430
-1072
-1085
-482
-201
-520
-773
-875
-486
-573
-564
-415
-456
-598
-155
-296
-318
-167
-225
-137
39
-126
39
-347
4
374
481
511
250
336
533
671
1078
835
533
571
646
1067
469
60
-447
-822
-773
-653
-1282
-1631
-1449
-1274
-1342
-1330
-1198
-1245
-1319
-729
-501
-802
-743
-1025
-464
-295
-117
-313
-615
-421
-201
15
-303
-603
-884
-673
-500
-533
-144
-377
-148
-149
-331
56
-105
93
-131
-388
-461
-537
-290
0
-242
-498
-460
-384
-124
4
-385
-826
-541
-56
355
-261
-495
-857
-234
-56
285
33
-224
-228
-297
112
115
25
-299
-287
62
-83
-59
58
-175
-564
-229
-306
8
-144
-607
-410
-555
-150
-333
-332
-354
-381
-167
-185
-136
-297
22
-277
-382
-198
-195
-149
-370
-362
-383
-169
-197
-149
-263
-115
-105
-260
-163
-175
-330
-305
-205
-413
-484
-427
-427
-821
-674
-821
-546
-359
-148
-557
-612
-544
-249
-583
-445
-494
-487
-779
-881
-700
-672
-814
-423
-572
-523
-537
-585
-615
-620
-399
-507
-645
-688
-843
-442
-400
-473
-788
-455
-517
-365
-134
-556
-450
-478
-414
-610
-590
-566
-551
-395
-644
-1129
-1084
-488
-165
-194
-782
-762
-880
-517
-314
-152
-572
-564
-172
-376
-202
-253
-181
-375
-204
-615
-638
-242
-152
-537
-482
-456
-129
-31
289
42
-251
-625
-608
-636
-501
-856
-837
-475
-623
-527
-377
49
106
-268
-175
-173
17
-83
68
-245
-469
-628
-297
-55
-114
-131
-583
-535
-341
36
-280
-167
-214
-364
36
58
-334
-247
-545
-175
1
-125
-71
-46
-37
-43
-24
307
137
362
-115
-137
-232
-312
-48
300
-91
18
85
353
595
634
515
145
141
168
338
111
-129
-254
-522
-535
-606
-396
-567
-374
16
-280
-162
-219
-137
-296
-348
-546
-470
-477
-580
-154
-369
-211
-557
-244
-327
41
-295
-237
-610
-547
-142
-308
-277
39
-118
-95
35
-142
-197
-361
3
0
-338
-344
81
370
393
823
883
889
886
869
815
475
402
593
216
-11
-274
-175
-198
-245
-495
-919
-1250
-1271
-1295
-1076
-1052
-1148
-1150
-691
-639
-155
-341
-377
-171
-211
-246
-241
-139
42
-62
-56
68
-326
-371
-347
-342
-379
-133
-328
22
80
95
117
-80
-4
331
162
232
216
342
-75
-110
286
217
533
164
-11
-104
-73
277
363
162
187
181
142
358
367
173
207
142
264
-77
-16
140
250
517
518
610
507
835
507
399
639
440
438
564
148
366
203
554
542
194
382
136
199
530
603
404
406
600
513
200
201
236
519
247
182
375
134
222
541
226
343
289
151
555
244
-39
-299
-281
-51
336
-57
-289
-347
70
-4
286
-24
-20
303
316
-20
-112
95
10
-195
-415
-438
-217
31
63
-355
-200
-319
-58
335
-19
18
-155
-221
-211
-171
-365
-301
-266
-259
-262
-296
-166
-623
-499
-436
-241
-370
-168
-546
-532
-339
110
-106
93
113
-9
325
-55
-294
-152
-280
-56
265
95
-145
-238
-143
2
54
13
-279
19
84
63
-328
-232
-530
-161
10
84
19
-316
7
-12
244
578
166
-86
23
51
-100
-79
63
-345
-136
-281
-119
-43
-111
16
-296
26
-123
-94
96
51
-110
339
157
-51
-175
-414
-546
64
288
-98
-182
-636
-236
-125
186
250
331
85
-308
6
-74
275
-90
-295
-364
42
-52
-122
-153
-591
-169
-60
366
-93
-162
-239
10
307
356
-94
-309
-133
-359
-312
-276
40
121
-79
-63
-48
-8
-3
-89
29
-321
-332
-316
-362
-204
-248
-170
-269
91
56
-319
-378
-300
114
-32
-36
-115
72
79
-106
-19
290
258
-126
-277
-353
-315
34
81
59
50
113
-61
-68
90
16
70
-55
-7
106
-160
-608
-586
-379
114
-31
-65
-128
-104
273
141
162
352
309
349
143
371
266
-51
285
196
552
246
370
262
-39
-65
-109
86
38
7
-277
-284
-262
12
-270
-336
-377
-362
-340
-365
-156
-382
9
-118
-120
31
-285
59
-65
-80
-279
-214
-194
1
126
9
-223
-553
-376
82
38
-242
-473
-422
-157
40
5
-376
-352
-108
220
462
864
765
946
1286
934
758
718
1148
1333
983
796
-17
-378
-192
-148
-231
-777
-1132
-1344
-1314
-1121
-681
-862
-854
-808
-452
-624
-591
-544
-144
34
86
-305
-192
-382
120
281
-96
-141
-579
-231
-266
115
93
50
85
-106
-94
-105
-54
307
359
300
-50
-69
-11
284
262
-4
317
146
141
290
-70
-65
309
195
547
564
227
339
-3
333
530
386
541
349
318
250
430
624
129
258
144
390
463
575
169
183
552
598
528
202
215
255
227
147
149
553
477
772
627
175
355
164
230
168
-2
125
-102
317
235
578
592
591
587
560
250
192
142
338
-6
-95
116
124
-99
-64
-26
259
-20
125
-280
-355
-279
-113
-23
-108
-311
-206
-187
-305
59
39
-327
-159
-171
-142
-383
-375
-325
23
95
98
28
-321
-369
-368
-353
-339
-307
9
63
62
0
-322
-333
-322
-362
-216
-568
-551
-181
-349
-362
-137
-309
-109
307
279
99
-315
-339
-290
-289
-359
-153
-363
-264
54
58
68
-128
-70
-75
124
91
110
-115
-114
127
-112
-68
-50
-72
-93
-93
-110
74
4
43
-63
316
292
-94
61
63
112
-121
-122
-109
-104
111
47
48
-118
-14
283
282
316
367
341
-43
87
72
-122
-106
91
55
110
-73
-95
61
38
-66
169
553
222
293
-94
-87
269
340
294
-112
-265
-312
13
115
-94
-81
-30
321
376
314
-59
-108
-49
274
-32
69
-310
-297
66
-91
-41
259
332
136
377
309
272
295
314
270
-55
-57
280
339
303
-40
-68
259
368
186
208
193
138
293
-59
-80
-23
266
-62
79
62
-60
366
170
375
351
179
537
247
313
117
67
-114
-54
-79
-122
-81
303
164
198
175
160
183
220
237
225
193
157
140
161
230
567
628
438
802
661
681
825
426
400
509
852
502
524
346
345
170
163
296
-54
-16
338
349
256
-67
-4
128
155
261
69
25
-99
300
274
92
-306
19
-8
147
320
92
-298
42
-20
333
282
-41
260
383
180
335
-75
-99
334
601
772
783
769
668
1286
1662
1807
1426
1256
1540
1485
1841
1645
1284
1057
1084
915
1024
582
59
-541
-632
-614
-390
-480
-802
-507
-608
-153
3
80
104
118
-124
116
83
95
-74
289
333
295
257
270
283
-25
-95
-67
339
210
185
315
266
355
188
136
-1
-32
364
252
216
299
-42
357
617
505
450
602
617
481
806
482
386
411
788
836
456
527
223
595
435
628
239
240
431
645
681
783
608
561
384
492
779
470
409
415
493
825
830
791
816
687
1060
1026
864
498
829
752
1096
744
805
395
568
521
244
255
532
519
223
237
600
463
469
609
243
250
579
569
180
316
355
227
531
188
335
316
338
284
-92
-121
257
374
308
114
5
59
99
-291
-239
-525
-335
102
100
15
71
282
155
299
87
24
-112
-33
72
-214
-613
-223
60
-12
-19
-119
77
100
-91
-36
257
281
270
-42
-115
109
120
-128
100
82
110
-105
-125
49
-267
40
-87
-4
-46
111
93
-66
295
282
-92
98
-63
365
171
318
-56
-7
159
219
329
-114
-123
286
359
-21
75
118
340
240
195
331
299
332
271
91
-288
57
267
380
328
-6
285
142
169
308
-94
-127
-61
-10
-51
-111
-64
358
527
574
234
369
284
-12
-47
-93
119
94
100
-108
-19
319
340
310
288
289
269
-63
121
-100
280
347
284
-34
333
590
476
567
-27
59
-65
157
167
-78
-323
-332
110
265
-10
-114
-125
263
173
231
151
284
-23
299
183
550
554
202
360
340
138
199
213
208
233
559
611
583
232
158
180
538
614
598
526
514
630
815
672
888
492
630
589
581
554
249
215
226
526
587
413
492
791
504
408
562
254
236
192
346
-26
-67
-27
259
-53
98
83
-35
142
159
-23
32
29
-36
134
349
126
-320
-318
92
-43
-66
123
-84
341
184
316
77
4
-57
159
346
24
-196
-304
302
224
143
359
401
945
1636
1511
1477
1515
1673
2067
2063
1691
1805
1418
1544
1386
938
715
494
566
140
-95
-181
-783
-712
-662
-465
-538
-209
-250
-579
-574
-166
82
-28
-126
-359
-171
85
211
623
198
-34
-39
151
522
146
-83
52
108
-3
371
172
176
163
211
612
507
493
538
336
378
387
855
799
561
158
217
606
388
576
527
551
592
604
638
502
661
741
690
839
795
845
668
685
864
483
409
471
646
1057
1048
876
440
419
800
641
833
400
529
574
483
867
857
505
472
816
673
669
809
769
687
929
933
848
178
337
585
794
389
290
-85
208
837
875
591
137
550
859
656
606
-8
-100
290
347
-85
-306
-318
-109
337
309
-112
59
-121
-13
-13
-109
83
101
-128
65
-339
-204
-207
-353
37
77
-269
-153
-213
-132
14
81
10
-368
-168
-138
-353
-369
-170
-187
-383
-293
9
-266
-301
-291
32
100
94
-262
-380
-162
-341
25
60
14
-270
66
-28
353
359
274
-59
-64
-6
313
331
275
-103
16
-323
-311
33
-116
-51
-47
-94
80
15
44
-74
347
156
330
-61
-105
-8
145
254
535
235
380
-42
85
100
-27
318
-23
29
-346
-259
-47
367
378
289
-52
-66
259
371
190
159
292
-75
-89
-31
257
-11
273
377
196
371
-72
86
-75
325
295
97
-267
-87
254
420
537
316
310
543
480
633
294
5
-286
126
270
291
-10
-16
287
333
341
368
197
541
528
137
-5
-25
328
142
345
-15
-10
381
231
182
312
320
532
770
820
405
217
180
552
446
804
857
880
879
864
844
822
799
506
489
770
805
773
426
626
416
511
507
603
143
311
359
159
352
-72
30
-292
-282
14
62
98
77
-262
-310
39
-1
183
192
307
-71
-61
293
381
159
150
366
278
-90
99
113
-106
-127
62
37
108
-30
313
379
236
430
890
748
1061
932
1191
1454
1805
1500
1532
1784
2334
2343
1738
1577
1399
1393
935
604
-367
-799
-848
-801
-696
-1000
-1170
-1285
-681
-610
-173
-373
-361
-337
-284
48
108
-115
-104
-108
126
67
17
44
-88
287
276
-120
17
56
-36
337
304
-33
293
553
773
426
292
-307
-265
378
459
407
288
-278
29
370
434
772
401
524
225
512
580
433
824
645
843
439
629
478
655
709
833
420
426
828
663
853
488
498
859
644
820
771
644
1107
1130
893
385
400
653
1065
885
520
328
219
485
820
430
581
436
649
700
501
250
178
548
399
621
535
541
628
401
539
357
271
303
333
259
119
32
65
-90
-12
258
-21
-38
-43
-62
126
18
-315
-300
42
72
-300
-232
-566
-209
-332
-365
-572
-483
-425
-193
-277
-306
-185
-515
-234
-196
-186
-148
-302
31
-297
-223
-559
-149
116
-39
22
-571
-769
-449
-515
-163
-252
-416
-469
-599
-382
15
-263
-141
-253
-254
-189
-155
-197
-252
-249
-175
-343
-295
-275
-257
6
-287
-358
-138
-343
16
79
52
-280
-335
-343
-330
-326
-303
11
55
4
-143
-521
-236
-340
26
-265
-374
-134
-281
57
-275
-185
-240
-347
120
-87
14
-157
-141
62
-8
256
109
-289
-320
-294
-328
-199
-592
-631
-557
-192
-370
-333
-305
-269
8
-271
-320
-343
-303
35
83
43
-332
-198
-234
-159
-298
12
-309
-186
-521
-210
-299
114
-107
73
0
24
114
-109
73
-259
46
-58
285
-60
31
-284
58
-114
81
-320
-362
17
-93
-72
107
96
-23
158
240
210
172
169
144
317
-8
280
134
189
362
-51
103
97
127
123
74
-257
-356
-202
-253
-236
-208
-215
-233
-196
-378
-359
-185
-521
-210
-287
95
40
-382
-234
-222
-179
-211
-574
-416
-451
-430
-399
-386
-394
-413
-424
-408
-614
-541
-200
-382
-356
-371
-350
54
330
626
835
666
692
717
762
1120
1329
1592
1483
1622
1298
719
771
599
305
-137
-850
-960
-1243
-1464
-1811
-1427
-1390
-908
-916
-1315
-1321
-1066
-463
-578
-469
-676
-668
-421
-175
-137
-516
-598
-556
-245
-550
-399
-415
-560
-178
-159
-213
-219
-136
-287
7
-279
-309
-321
-338
-347
-286
119
281
332
-6
-107
121
-114
124
55
19
82
-66
-36
-128
20
28
-87
333
148
351
-21
-102
-83
266
338
307
-58
-122
-51
357
179
128
316
128
588
497
457
254
331
325
191
519
192
314
282
157
585
630
514
377
380
253
599
527
334
-77
-95
-22
285
259
-49
-48
273
312
-1
-112
98
-73
297
265
47
-186
-235
-338
69
32
-141
-230
-370
77
109
-344
-600
-447
-629
-526
-514
-573
-615
-616
-618
-634
-619
-544
-212
-234
-608
-447
-428
-590
-535
-566
-622
-622
-576
-561
-622
-464
-795
-800
-489
-424
-390
-417
-484
-783
-492
-636
-240
-147
-141
-224
-583
-609
-521
-148
-143
-542
-432
-423
-525
-135
-377
-162
-146
-343
-361
-228
-591
-562
-188
-134
-193
-249
-199
-331
-260
-289
-350
-382
-160
-229
-536
-216
-311
60
22
-372
-187
-366
20
60
-279
-151
-227
-229
-195
-164
-384
-341
-302
-281
-297
-367
-226
-588
-608
-522
-157
-130
-201
-521
-247
-171
-372
-358
-324
17
81
41
-347
-187
-166
-317
43
105
-126
115
48
-291
-324
-272
71
103
56
-277
-309
1
122
-6
338
363
354
363
133
381
302
-48
-72
-15
289
-23
108
19
37
114
-103
118
37
-290
-309
-276
15
-295
-221
-440
-790
-434
-531
-521
-443
-872
-825
-570
-314
4
-382
-558
-394
-635
-570
-515
-254
-568
-393
-417
-584
-179
-335
-368
-240
-591
-570
-206
-136
-178
-533
-556
-150
-116
193
432
851
726
1087
904
977
1349
1217
1211
1002
687
450
594
203
-97
-229
-491
-829
-661
-922
-1261
-1663
-1239
-938
-1031
-1062
-1120
-1046
-849
-398
-546
-515
-520
-531
-527
-227
-153
-366
-141
-206
-206
-366
-257
26
-274
-264
-115
348
189
355
-72
96
-123
-77
124
-265
-355
-306
107
265
352
372
368
372
369
343
314
331
146
208
181
322
-31
257
148
529
528
185
382
139
166
160
165
237
605
388
564
202
204
592
489
773
411
558
553
629
400
557
159
369
191
535
527
199
201
571
419
637
227
378
167
536
562
209
372
167
593
457
393
196
289
270
340
350
-33
44
-279
81
-9
292
-101
-286
-352
-290
19
-288
-130
-171
-164
-215
-598
-407
-537
-295
61
-136
-462
-862
-454
-209
-156
-607
-832
-861
-456
-579
-605
-468
-773
-420
-525
-212
-562
-476
-845
-834
-480
-637
-609
-402
-480
-789
-788
-484
-420
-623
-587
-564
-558
-563
-567
-546
-243
-218
-519
-615
-421
-627
-234
-382
-148
-252
-540
-162
10
43
-363
-557
-610
-252
-130
-339
-323
5
102
122
38
-308
-304
8
5
-335
-149
-136
-332
-298
-284
30
122
-105
56
-342
-151
-379
-343
-340
-317
22
81
2
-154
-182
4
-27
-3
42
-167
-143
78
275
311
264
262
311
322
273
-13
284
323
-35
-260
-154
-321
-69
340
-25
-266
-339
-107
250
448
398
517
231
556
574
206
316
-10
-16
-57
92
14
40
112
126
72
46
107
-61
-63
75
-342
-201
-248
-524
-520
-231
-205
-222
-529
-567
-540
-194
-360
-316
-308
-305
-304
-323
-365
-153
-153
-349
-282
-274
-345
-178
-182
-321
100
-44
-13
262
352
518
458
670
1143
1315
1372
1299
937
930
1004
1020
1111
799
515
368
278
71
-582
-1052
-1379
-1189
-1318
-925
-905
-986
-1024
-1150
-864
-557
-376
-351
-146
-179
-164
-380
-341
-312
-299
-316
-361
-157
-185
-181
-149
-346
-291
7
39
88
-80
294
381
130
297
-108
19
-276
40
127
-108
90
48
-125
331
519
575
530
241
529
558
250
147
354
382
145
318
-95
74
-103
344
519
578
535
222
223
546
632
427
417
619
554
243
196
152
131
170
533
393
438
385
563
550
602
630
606
597
425
800
802
638
206
205
630
511
453
516
132
160
244
235
129
302
328
144
142
305
-54
-80
-35
263
-16
-110
32
-295
-282
55
-122
-125
26
-344
-352
2
93
46
-382
-545
-582
-516
-214
-254
-593
-387
-386
-635
-390
-386
-589
-532
-548
-396
-505
-769
-416
-565
-544
-607
-413
-408
-614
-594
-622
-385
-591
-247
-206
-249
-578
-605
-590
-584
-594
-571
-220
-351
-285
-306
-359
-382
-359
-319
-298
-329
-185
-598
-446
-417
-547
-192
-192
-231
-198
-350
-280
-321
-153
-167
-339
-266
-290
-363
-354
31
-72
-30
-113
57
57
101
92
28
6
90
-76
121
-333
-219
-153
12
14
-230
-500
-502
-214
95
-79
55
-321
-298
85
-58
-5
260
-17
-80
93
48
83
-65
317
156
182
371
-3
-63
274
174
227
364
-24
291
241
563
321
-302
-162
83
141
164
-120
-141
-139
92
302
342
272
-64
112
-268
-153
-217
-168
-333
-300
-353
-188
-243
-239
-171
-308
51
34
-135
-610
-446
-589
-137
-301
-362
-192
-181
-346
-304
-370
-211
-247
-235
-248
-551
-557
-231
-384
-330
-320
-262
-91
160
409
857
737
1083
1141
922
950
975
985
976
939
1125
751
859
467
634
543
351
20
-624
-661
-1061
-1126
-947
-1282
-1013
-1120
-650
-481
-405
-617
-556
-226
-167
-384
-341
-294
-300
-379
-209
-207
-365
-274
-282
-375
-188
-182
-132
-330
26
-45
146
177
258
33
-275
-111
346
140
306
-15
288
377
153
383
383
182
225
192
363
300
299
333
357
370
131
156
181
189
183
183
224
557
631
400
618
561
545
575
606
592
558
570
396
487
772
487
478
819
698
738
865
395
547
386
810
843
424
227
184
555
388
577
166
348
161
520
550
524
527
573
568
192
268
-105
-93
-29
-36
108
-275
-282
114
284
343
262
-113
94
108
90
-257
-359
-384
-330
-298
-345
-171
-208
-203
-223
-548
-603
-581
-514
-235
-546
-613
-629
-627
-398
-431
-635
-241
-152
-239
-464
-884
-831
-625
-226
-538
-472
-860
-809
-619
-183
-381
-159
-156
-295
112
-113
15
-378
-355
44
85
-356
-604
-396
-203
-272
-323
-553
-427
-559
-322
42
-305
-183
-192
-344
2
-283
-137
-201
-150
-292
24
-278
-367
-364
46
-18
276
95
-380
-381
-113
193
251
293
38
-286
67
-121
61
-320
-336
16
86
59
16
58
-119
104
-327
-218
-167
-268
3
-214
-440
-628
-262
338
375
-94
-268
10
124
-102
83
24
53
-128
-77
-48
-17
267
258
-42
-96
105
29
-315
-359
-327
-272
8
20
59
116
121
47
-275
35
-53
348
348
-32
113
124
-29
291
-31
74
-261
77
-16
312
-21
-105
-21
218
396
619
235
237
401
501
610
320
-87
-7
343
-41
-334
-256
-183
-257
86
59
66
-95
-33
-124
-307
-153
-356
-267
-283
-145
-240
-227
-134
-317
-329
-142
-191
-177
-138
-153
-239
-571
-538
-147
-296
-333
-210
-544
-234
-135
-136
-247
-586
-529
-383
-290
-309
-357
-296
-88
191
421
815
643
746
1150
1293
1390
1192
1273
1655
1479
1637
1350
1044
646
879
466
269
-569
-686
-719
-896
-756
-1314
-1238
-1334
-722
-483
-466
-494
-390
-211
-378
-138
-366
50
-57
-115
-377
-627
-419
-543
-143
-381
-221
-589
-620
-525
-352
53
115
107
107
-96
-39
-28
-58
-97
99
4
-330
-293
127
294
332
263
270
203
467
846
483
248
303
-39
-14
337
189
232
179
359
148
598
782
783
604
172
379
138
356
290
315
217
385
435
401
407
494
811
502
410
418
782
834
441
197
320
152
594
413
574
191
198
596
454
413
525
186
245
610
608
181
-13
-60
314
197
223
154
368
156
194
378
-27
-116
-93
-56
121
-309
-156
-352
19
9
-147
-526
-208
-264
-118
109
-285
-377
-352
-280
-277
-133
-555
-419
-460
-463
-473
-769
-800
-495
-604
-159
-301
-343
-237
-559
-152
99
-83
-325
-410
-494
-238
46
31
-243
-435
-593
-378
-343
-526
-439
-409
-255
-176
-215
-236
-145
-287
-293
-163
-522
-242
-154
-132
-201
-244
-156
19
126
85
-264
-279
54
95
-278
-240
-625
-530
-282
-98
-125
-276
-323
110
371
193
-23
-350
-249
-154
12
39
-352
-244
-526
-181
-325
0
8
-303
-147
-224
-198
-301
-96
291
280
-105
9
-293
36
-96
-46
-126
-258
-314
-257
69
61
19
68
-24
378
366
-46
54
-259
5
-262
-289
-280
11
-259
-346
-165
-381
18
-116
-104
82
14
-263
0
17
47
85
100
96
-128
-28
338
353
258
-118
89
109
119
72
0
-296
-292
7
97
-31
325
311
-65
82
84
-100
-86
87
20
79
-58
-52
68
-274
103
334
139
-83
-372
-185
-258
-60
-32
-107
-128
-69
-31
-49
-54
-13
-17
-127
9
36
-59
285
-84
-258
0
-50
136
370
-67
40
15
50
66
58
56
52
46
93
-33
352
359
-14
-105
-65
282
264
113
-261
36
-85
-3
-2
274
362
174
369
-47
71
4
-286
-312
-257
-79
378
161
263
90
94
-7
336
-33
10
-357
-304
62
-116
-26
381
517
239
324
-68
-27
358
362
-63
42
105
334
239
206
333
285
350
153
132
323
290
298
296
295
359
517
439
787
508
435
389
387
406
426
427
624
213
258
110
116
-18
326
260
90
-279
14
127
-77
116
13
-303
-302
-274
12
49
82
72
11
-314
-326
-273
59
105
92
31
-304
-338
-257
-86
296
-4
65
-340
-332
19
57
23
38
-107
259
269
281
232
888
974
1316
980
985
1405
1576
1638
1434
1859
2060
2062
1803
1237
1325
958
692
517
123
-358
-255
-476
-678
-675
-489
-635
-506
-710
-711
-484
-548
-594
-769
-818
-390
-152
-277
9
26
43
-267
-141
-223
-139
64
-47
-67
101
127
312
232
242
372
273
282
314
270
-53
-5
156
530
234
379
351
162
216
203
198
520
582
570
579
486
715
739
445
340
271
250
443
567
-17
78
-21
253
393
637
639
469
798
505
399
604
408
505
788
479
416
402
443
508
841
657
704
692
871
782
476
458
448
436
449
494
795
789
495
484
778
804
478
563
374
-14
-74
-93
-105
-126
99
74
92
-86
263
277
-80
37
-258
108
266
329
262
-111
83
98
120
95
44
9
19
23
-280
-355
-362
15
-68
266
-80
9
-316
26
-108
-113
-277
-206
-513
-177
-365
-175
-582
-397
-537
-309
123
-120
15
-371
-162
-374
-289
18
-261
-333
-367
-294
100
-89
101
-257
12
-113
-45
75
-156
-218
-273
-17
288
127
-264
39
-100
-108
28
7
-67
136
379
-92
-259
46
-38
278
-99
2
-281
69
-86
-49
-47
-32
-7
273
307
336
307
-67
31
-322
-280
-126
296
130
369
268
-79
-57
347
244
255
370
-41
-73
-9
275
-48
-113
-67
314
136
342
-37
-115
-102
-58
-63
119
27
-269
44
-90
282
330
322
307
321
339
312
-18
-79
-110
-126
108
111
-81
265
262
116
-299
-279
-50
175
153
-103
-294
83
164
625
229
-97
-271
108
342
165
309
-66
-24
128
225
195
376
362
143
381
-9
77
-260
68
-34
334
332
-11
-93
-79
295
164
172
287
111
61
-85
293
288
-66
-92
314
520
565
137
-91
80
-95
258
-24
105
17
45
-122
-59
-14
314
154
186
358
-12
-3
151
543
230
273
110
-119
-4
-5
85
-343
-366
-266
78
99
120
-59
257
-34
-105
-77
344
239
200
-7
81
105
262
371
358
300
276
284
260
-56
-63
299
189
221
345
-86
126
267
190
236
359
-77
110
-89
-42
-118
-289
-138
-322
-122
304
333
260
-58
-36
302
373
149
161
163
134
318
-12
-18
316
157
197
169
142
181
521
572
555
522
544
635
454
428
583
517
563
421
486
456
399
398
438
421
557
161
359
371
348
-23
90
33
83
-105
-111
81
60
-115
276
352
314
-43
-115
117
81
3
-328
-337
-316
-339
-142
-375
69
329
192
308
23
-164
-381
59
-47
-43
101
5
29
-86
336
179
215
536
445
685
923
1362
1255
1411
1842
1751
2125
2157
2094
1715
1839
1456
1271
954
777
345
10
-248
-775
-1067
-1013
-1019
-1108
-653
-783
-457
-610
-180
-261
72
33
-312
-359
-331
-285
-285
-338
-142
-377
12
-75
264
-38
123
108
-42
350
140
346
302
318
329
-2
-118
-127
297
516
609
553
224
239
554
546
202
370
341
332
288
-12
279
137
235
252
237
540
390
450
411
593
578
629
409
388
639
471
863
662
840
465
424
469
506
467
398
385
448
504
481
417
403
469
797
772
404
587
385
772
850
828
780
784
812
771
405
595
394
480
422
192
-32
-67
315
164
367
-29
-85
-1
376
166
383
335
322
316
283
-18
-51
-87
87
-304
-145
-366
41
-84
-96
23
-352
-348
1
64
46
-264
-289
-293
-335
-166
-236
-222
-150
-348
-366
-165
-200
-202
-182
-133
-311
26
35
-321
-200
-251
-190
-131
-192
-602
-432
-605
-170
-328
-132
-245
-244
-351
62
64
-361
-560
-616
-230
-273
-122
-88
-117
117
-128
-124
99
41
1
6
38
71
100
121
-113
-84
-51
-19
-8
-38
-120
25
-306
-268
-97
370
188
282
-265
-186
-375
58
83
-382
-602
-545
56
147
215
285
100
82
-107
-126
0
-361
-346
-269
8
-288
10
-44
218
618
544
328
-127
78
-80
298
289
114
-341
-367
51
-51
-90
26
57
337
579
189
-272
-631
-575
-272
101
-141
-477
-799
-556
-264
118
112
126
-52
-4
-67
72
25
83
-80
-55
-119
67
99
-15
367
350
-68
10
-312
-262
93
-71
256
276
-24
-89
-90
-16
279
-65
35
-283
55
-96
-95
105
-119
282
135
322
122
-303
-367
-382
-149
-132
-281
109
-112
61
1
95
288
133
279
42
-133
-140
-289
68
109
115
123
-124
127
121
-112
-55
260
281
261
-29
-43
-33
-12
-2
-22
-78
115
94
-121
-64
-49
-72
-73
-23
285
279
-21
-14
339
192
198
361
293
342
211
546
514
141
261
-90
-69
374
400
828
475
184
-34
257
191
545
156
-113
-333
-149
-344
43
-89
-54
114
-271
-322
-268
57
47
-271
-289
25
79
60
-257
-280
4
18
-293
-372
-149
-368
-301
-258
-259
-288
-309
-297
-257
42
53
28
23
90
-39
345
169
222
581
779
761
920
935
1134
909
1375
1410
1817
1415
1314
736
870
869
506
162
-317
-472
-708
-1073
-1151
-960
-963
-1147
-1043
-692
-862
-775
-433
-609
-531
-195
-129
-356
-351
-330
-279
13
11
12
65
-113
-105
62
-276
22
-78
305
287
-91
75
82
120
89
-265
-330
-285
106
-16
302
296
282
310
372
163
143
329
275
292
368
166
139
326
311
139
249
533
198
368
376
225
605
409
392
597
554
527
235
168
362
381
241
608
588
186
344
189
422
795
401
157
328
222
405
398
229
375
221
459
881
848
414
255
235
609
496
793
443
547
188
174
191
190
175
164
145
347
278
-7
266
273
-27
-84
-94
-72
-87
80
-285
-335
-317
-280
-275
-320
-149
-248
-571
-562
-233
-186
-245
-624
-412
-560
-149
-370
-237
-623
-607
-210
-381
-222
-423
-813
-787
-407
-553
-255
-530
-571
-606
-596
-538
-224
-233
-566
-610
-536
-149
-372
-231
-605
-550
-325
-126
105
-129
-633
-479
-430
-596
-565
-610
-422
-432
-607
-209
-340
-291
-304
-318
-286
28
64
60
53
70
91
63
-262
-304
0
124
-39
-72
32
-367
-375
5
-124
122
-278
-133
-323
125
260
-36
85
43
-98
291
257
51
-156
-197
-321
85
119
33
-303
-275
113
-6
298
-17
-125
34
-286
-306
-268
92
-49
-9
-84
40
-281
31
-119
-75
-115
86
96
-98
-58
-87
94
43
49
82
76
17
-308
-332
-309
-280
-259
34
114
-49
-21
-91
58
-266
-280
-292
-330
-357
-340
-310
-335
-157
-178
-318
119
-40
-77
105
117
-61
-40
-128
22
8
69
105
68
10
-260
29
73
115
-98
-94
105
30
11
64
105
60
-274
-282
38
68
-262
-367
-373
17
-61
309
333
283
-74
65
2
46
-127
123
-275
-184
-214
-346
72
-93
-62
-34
256
-7
-54
-78
-23
319
360
341
321
358
169
192
145
341
340
164
541
384
407
598
241
192
254
614
600
129
78
-349
-294
96
96
-309
-142
-270
-54
-31
-285
-571
-601
-143
-257
-129
-396
-496
-579
-332
1
-365
-209
-154
2
112
111
49
-261
-297
-310
-288
38
108
81
-332
-252
-529
-327
-21
192
520
596
860
1285
1623
1651
1166
972
1285
1245
1584
1373
761
792
782
824
454
142
6
-604
-884
-1081
-928
-962
-973
-976
-912
-738
-799
-476
-797
-823
-406
-148
-279
-130
-571
-616
-222
-299
55
65
34
-297
-170
-514
-170
83
308
304
78
-145
-154
32
-33
-13
81
-354
-373
71
339
218
368
123
-287
41
-17
336
-22
75
70
-14
141
128
284
294
193
572
254
322
-48
258
129
231
572
414
458
623
187
334
373
198
168
292
-47
265
137
233
552
390
506
794
441
571
547
634
450
405
537
211
532
417
771
498
411
596
597
384
406
637
579
529
236
196
155
142
153
147
334
-36
-111
-78
294
382
342
-71
22
-310
-312
-334
-163
-241
-214
-371
-342
-206
-386
-455
-609
-225
-242
-417
-830
-804
-626
-212
-207
-569
-403
-416
-635
-628
-406
-419
-388
-613
-623
-635
-582
-209
-380
-154
-524
-619
-398
-415
-430
-394
-537
-187
-225
-608
-392
-514
-355
-143
-387
-820
-470
-225
-142
-566
-487
-407
-365
100
16
-516
-451
-413
-240
-356
-324
-369
-191
-536
-594
-563
-180
-291
25
-281
-342
-313
40
92
40
-285
-257
96
109
-292
-195
-145
111
313
-13
1
-366
40
-23
-96
-190
-503
-472
-164
74
31
-149
-181
3
-58
-49
101
82
-22
382
317
70
-372
-309
-85
286
-117
-139
-522
-379
120
-75
-290
-592
-442
-521
1
96
-291
-221
-253
-351
124
259
-22
87
-347
-202
-179
-292
112
-115
42
-339
-351
14
-114
-73
114
9
-296
-261
56
58
-269
-339
-318
38
106
58
-321
-136
-353
-274
2
-296
-331
-324
-331
-146
-241
-540
-515
-215
-177
-375
-297
-258
-295
-339
-284
110
-70
103
-315
-143
-352
-277
-265
-279
42
-67
301
271
-117
41
51
108
96
-283
-173
-221
-156
-325
-316
-370
-375
-270
-127
-78
94
-280
-324
-292
-259
5
38
-128
-48
-79
53
-293
-257
119
-60
-81
102
25
-297
-331
-281
105
-55
-107
5
-298
127
378
202
306
121
109
-19
306
-41
81
51
119
-71
-26
341
537
443
438
552
183
203
539
555
220
366
288
-2
-11
269
310
327
281
-71
73
-305
-183
-546
-558
-202
-340
-326
-166
-243
-174
7
-118
95
-347
-530
-599
-579
-566
-612
-428
-451
-397
-559
-206
-357
14
103
121
76
32
46
84
81
18
-291
0
-115
351
585
823
1036
920
975
999
1316
1174
1269
1265
1154
1023
966
966
1139
853
148
-263
-205
-236
-579
-862
-971
-1168
-1312
-754
-497
-419
-470
-780
-498
-410
-573
-252
-200
-375
-267
44
-289
-209
-602
-576
-181
-368
-231
-458
-837
-455
-140
-87
297
-43
36
-323
-281
87
119
11
-381
-133
24
-36
309
287
-2
279
321
315
265
-22
256
286
256
-93
96
-117
280
164
198
130
321
358
240
634
417
614
533
247
525
544
526
242
246
540
578
586
576
582
595
575
249
186
212
584
420
633
227
380
184
610
460
411
555
533
625
434
613
220
195
566
397
542
296
-95
263
188
220
350
-6
286
313
-92
-334
-143
63
296
-9
-319
-558
-219
59
-58
48
-207
-570
-240
-169
-238
-636
-427
-572
-145
-322
-382
-245
-557
-252
-177
-168
-240
-569
-580
-545
-534
-563
-568
-533
-517
-571
-391
-636
-539
-219
-539
-406
-444
-609
-227
-163
-148
-137
-160
-528
-431
-489
-633
-232
-242
-416
-796
-437
-183
-262
-275
-371
-135
-328
-321
-184
-577
-575
-161
-264
0
-346
-370
-260
126
-118
25
-356
-147
-135
-380
-369
-329
-286
-305
-372
-138
-314
68
-121
101
5
-345
-146
-136
-298
97
-86
93
-342
-212
-181
-294
90
125
81
9
-304
-314
7
-122
-22
-40
93
2
42
-102
-72
60
-362
-147
-300
52
-259
-152
-211
-355
71
-124
49
-298
-270
108
-59
-85
68
-269
-291
-284
-298
-358
-184
-231
-194
-327
78
-88
-103
62
-303
-371
-381
-351
-323
-331
-360
-358
-283
102
-54
-26
-49
-66
-48
-49
126
-281
-155
-161
-304
69
90
34
3
47
94
68
22
75
-36
285
-122
-382
-251
-142
45
116
60
23
78
-105
-114
62
0
-264
-273
-317
-353
-339
-282
27
62
95
-119
-61
269
323
288
-119
-281
-313
50
-122
65
-331
-342
80
-20
-55
51
17
-77
349
316
103
-327
-311
60
92
8
-331
-304
55
121
85
6
-276
34
-127
-54
-25
-10
291
373
176
164
347
290
288
287
-29
-123
112
-37
141
537
612
420
488
484
605
149
292
311
343
269
-125
103
267
252
628
574
203
168
211
199
288
17
-180
-169
11
-92
125
-330
-233
-200
-284
91
58
-321
-158
-196
-222
-248
-219
-378
-299
-325
-172
-237
-196
-352
-297
-325
-379
-136
-376
-380
-181
-516
-551
-251
-175
-156
-208
-225
-339
-50
219
591
603
443
717
1301
1231
1206
1355
1337
1191
1594
1410
1613
1202
983
754
811
612
331
-317
-454
-689
-744
-768
-1149
-1309
-1300
-1041
-452
-561
-393
-777
-505
-392
-617
-465
-800
-446
-229
-346
-141
-521
-548
-186
-314
-292
-375
-215
-230
-141
-261
89
89
24
-258
77
-60
-38
96
-308
-335
33
-94
-59
-104
116
-127
-103
-91
-47
312
143
366
-39
83
97
-10
144
208
199
195
230
546
608
411
435
638
255
139
373
162
170
347
-8
-6
383
558
421
444
637
519
163
172
569
477
501
621
230
518
433
802
487
587
240
533
596
581
231
133
334
316
325
373
185
226
203
134
342
344
356
325
-23
104
-281
-376
-148
-339
48
-99
-99
65
-284
-299
-275
-307
-158
-515
-526
-209
-190
-528
-636
-633
-233
-323
-282
-133
-564
-455
-769
-460
-582
-206
-217
-635
-792
-494
-513
-304
-328
-526
-394
-553
-378
-364
-548
-483
-505
-394
-584
-385
-446
-638
-236
-163
-247
-634
-398
-538
-158
-133
-172
-166
-343
-274
-304
-157
-234
-218
-162
-159
-245
-620
-409
-569
-362
90
-103
79
-279
-302
6
42
15
-290
-313
-334
-137
-202
-180
-309
74
104
54
12
-263
-311
-134
-156
-317
51
23
-163
-581
-538
-312
-90
-41
108
-275
-320
-286
10
8
-293
-335
-313
54
-43
337
360
279
-111
19
-308
-324
-323
-344
-137
-179
-166
-352
-259
75
-124
-93
-114
37
-383
-514
-533
-196
-363
-354
-146
-151
-307
101
-74
-111
73
88
-49
301
-7
59
-379
-163
-317
49
43
-333
-183
-146
31
-46
-15
116
-268
1
-119
-24
-109
-302
-146
-305
-124
-60
77
-355
-168
-363
-278
-257
-282
-302
-310
-333
-353
-319
25
101
112
97
-126
-56
-34
-95
100
122
-72
-71
104
47
89
-112
73
-343
-143
22
264
333
-94
-330
-175
-376
-284
16
35
67
93
81
64
102
-90
-96
57
-304
-308
23
60
7
-283
90
343
558
582
183
276
-28
298
367
338
-26
-107
-62
355
530
619
605
550
537
587
401
432
397
574
515
525
576
569
194
277
-93
-84
-11
278
-7
-48
-41
282
129
226
252
154
-30
93
127
275
319
122
-192
-610
-255
-321
-279
-162
-548
-254
-358
-267
-314
-152
-158
-325
-257
-294
-159
-536
-596
-584
-255
-384
19
118
123
45
-297
-338
-349
-133
-223
-565
-574
-238
-358
106
163
823
935
1381
1378
1325
1384
1576
1504
1795
1416
1232
1358
1301
978
1037
397
-94
-525
-780
-649
-1033
-959
-1357
-1337
-919
-725
-864
-817
-779
-460
-385
-577
-536
-527
-532
-251
-156
-297
-274
-384
-523
-545
-177
-325
-329
-132
-361
40
-90
-108
36
2
105
-42
-82
-265
-166
-167
-312
46
75
80
111
-88
-31
271
324
132
183
203
200
182
133
320
287
342
204
544
519
166
370
174
539
579
527
227
567
505
890
827
385
528
596
486
788
444
594
581
630
639
598
597
421
490
436
549
224
573
462
489
625
246
522
403
496
446
578
522
573
388
639
560
244
526
599
629
560
177
348
345
353
268
73
-360
-382
-261
111
100
9
-284
31
80
19
-368
-189
-164
-374
-138
-204
-248
-254
-253
-235
-179
-359
-342
-185
-607
-464
-458
-622
-519
-190
-166
-213
-589
-465
-510
-423
-532
-191
-219
-558
-588
-520
-159
-348
-321
-290
5
-275
-159
-594
-409
-570
-170
-161
-577
-481
-468
-538
-360
-339
-173
-213
-376
23
73
-262
-375
-158
-375
-326
-312
-307
-281
6
-268
-346
-159
-154
-347
-308
-327
-367
-365
-311
28
-125
-1
358
369
260
105
-257
-294
-305
-321
-321
-283
28
54
31
-261
-264
30
79
95
45
-323
-173
-185
-340
49
123
125
124
-94
-68
126
-257
-343
-327
-280
-308
-149
-198
-374
33
-123
-118
116
-119
-75
-66
-105
99
49
-282
-373
-154
-329
76
-118
52
-306
8
-49
337
258
82
27
-120
-35
108
-376
-203
-289
-53
-23
10
-234
-248
-283
-76
-100
-309
-195
-354
-109
300
-24
72
48
-43
374
323
86
-361
-344
66
-97
115
39
48
111
-118
104
67
55
33
-264
-262
85
-56
-25
-103
45
-262
11
50
90
117
84
-287
-146
-372
102
366
222
381
-54
114
-87
288
364
355
282
-52
-73
-22
306
352
362
378
157
178
151
372
130
183
205
164
356
334
360
378
372
377
166
226
245
208
152
357
290
-86
18
-353
-132
-373
-363
-384
-162
-176
-154
-345
16
-118
-56
-112
-271
-173
-231
-182
-379
-138
-218
-527
-244
-178
-151
-198
-517
-529
-231
-193
-217
-535
-564
-527
-188
-357
-267
104
-6
134
237
587
489
735
977
1354
1348
1352
1230
1426
1462
1203
1024
422
532
176
-108
-596
-1071
-1320
-1349
-1323
-1332
-1315
-943
-1046
-743
-1080
-1138
-760
-484
-254
-238
-398
-781
-453
-195
73
-80
78
-354
-185
-384
-278
4
-343
-186
-165
-287
90
92
2
-302
19
-123
-62
-71
-78
-29
284
268
-74
-124
-47
367
219
192
341
259
259
319
381
162
165
378
295
-31
-21
331
173
191
382
314
296
314
325
312
297
305
335
132
219
562
589
526
168
381
177
240
216
367
292
328
204
587
639
610
543
222
174
135
362
344
353
144
211
516
521
227
173
128
341
302
272
-22
-84
91
28
30
119
267
158
228
151
-72
-321
-176
-370
-267
-289
-192
-556
-216
-280
70
-262
-374
-131
-327
-317
-139
-222
-236
-209
-203
-195
-129
-305
-317
-185
-556
-546
-207
-199
-560
-401
-634
-513
-169
-181
-239
-534
-556
-588
-600
-551
-207
-163
-206
-528
-517
-169
-359
-167
-589
-467
-454
-578
-214
-237
-582
-576
-165
2
13
-134
-527
-513
-135
-307
-320
-358
-352
-335
-366
-151
-373
-272
38
-293
-167
-211
-134
-285
14
9
23
77
112
87
24
-273
4
77
-100
-72
-114
64
47
-115
271
305
-58
42
-287
11
78
76
14
-272
61
-41
351
144
342
-42
67
-303
-361
-375
-379
-131
-132
-358
-303
9
67
-116
-39
-30
115
-312
-146
-334
67
-128
47
-310
-295
74
-106
114
28
14
93
-77
-56
-88
-122
110
80
49
42
69
100
111
106
106
127
-83
-29
-1
-29
-110
66
48
100
-96
-93
-122
-103
-5
337
297
-118
6
33
-90
-27
-106
59
120
299
375
-36
-267
-299
-89
356
-3
-357
-632
-593
-325
-95
-40
-75
-58
281
355
136
177
250
562
543
196
362
341
144
254
616
419
429
445
778
881
652
801
387
587
426
787
477
520
339
367
569
499
798
492
468
498
508
444
612
569
572
540
163
-2
-116
119
-105
-94
121
63
32
57
-128
-53
-28
-74
116
104
-87
-20
-44
90
-286
-301
40
127
-103
-102
-68
-22
-43
108
0
-278
32
62
10
-315
-286
-117
373
575
469
874
1076
1320
1279
1646
1647
1616
1651
1526
1912
1880
1626
995
696
822
501
557
-110
-594
-663
-727
-645
-874
-718
-1071
-737
-469
-184
-325
-380
-178
-356
61
-97
127
48
21
52
77
77
104
-63
293
334
322
320
361
148
135
338
317
358
161
166
370
328
354
174
232
237
234
552
433
819
844
779
477
801
680
733
876
421
559
608
496
864
644
647
666
705
738
757
764
754
719
687
697
742
765
723
668
695
1081
959
978
1144
1071
1118
981
1286
944
1068
1033
1136
1001
998
1123
742
1026
949
1377
1392
998
1087
754
1031
1067
1062
1034
765
762
743
717
714
742
757
723
653
851
809
479
619
530
558
425
497
401
209
373
229
422
473
566
347
272
354
166
336
-123
-293
-312
51
-93
-66
-126
53
34
98
-63
-14
-21
-25
256
-6
-110
-271
-336
52
280
144
326
-78
125
-68
-1
-16
-66
-69
-26
-9
-69
102
86
-97
-1
292
271
-23
-48
-62
-83
-96
-80
-43
-26
-46
-61
-17
325
378
364
336
358
170
206
171
359
323
323
322
313
321
361
134
380
349
334
358
158
224
532
527
182
330
342
522
481
786
630
181
130
221
557
517
157
362
135
178
179
159
161
194
245
564
612
608
546
226
209
209
154
303
257
353
253
550
178
312
319
155
172
327
-7
323
223
535
180
350
195
438
856
777
521
294
-24
306
150
199
192
151
367
377
212
597
410
615
244
192
250
582
554
173
332
368
233
560
239
345
-15
270
129
212
192
374
375
251
408
433
554
146
380
215
535
238
148
341
313
293
329
220
425
776
415
225
149
235
600
594
243
198
522
626
413
407
427
497
810
783
435
602
560
541
526
553
408
823
668
652
835
822
895
698
648
505
631
585
604
636
410
452
502
795
812
829
844
822
485
633
554
514
213
376
268
-49
-44
-22
-44
-107
108
-114
-33
265
-37
-123
96
-124
-75
-79
-119
124
-94
-52
-53
-82
-74
-10
303
287
-38
-75
-27
305
315
-12
-77
-36
368
527
617
404
499
733
1342
1434
1890
1903
1830
1830
1706
2116
2130
1696
1432
1207
1289
1068
473
325
-275
-231
-594
-414
-504
-840
-858
-800
-438
-579
-224
-152
-380
-144
-181
-173
-345
29
99
100
96
-116
-69
-109
24
-321
-284
91
-100
107
28
30
-123
272
137
229
542
536
224
184
210
535
563
246
133
307
293
325
365
142
183
517
625
448
438
596
225
186
251
614
412
628
545
251
551
396
483
494
428
617
639
768
671
754
735
680
672
738
1079
1123
1095
743
869
503
479
806
641
659
847
773
779
845
893
884
863
892
695
699
870
773
779
647
754
713
801
401
390
468
777
510
492
778
803
473
574
212
249
603
602
201
304
290
134
189
355
-57
-118
-48
295
282
-73
104
93
107
106
116
-79
257
259
-102
22
-297
-282
-267
-308
-384
-183
-201
-219
-255
-524
-218
-129
-337
-372
-193
-227
-182
-373
-366
-148
-147
-319
28
32
-295
-329
-261
87
91
2
-320
-279
58
47
-327
-178
-144
4
122
110
8
-313
-277
59
102
83
55
56
48
-286
-165
-248
-188
-286
74
18
-145
-524
-245
-365
25
74
56
40
70
120
-106
-93
-59
260
301
-13
104
-265
-261
82
120
32
-365
-158
-305
124
-41
-90
61
37
-120
-2
-8
95
-334
-135
-340
-308
-357
-143
-318
112
-35
-99
5
-324
-270
59
37
-318
-129
-373
-325
-300
-298
-276
27
61
60
47
60
99
126
110
77
81
-128
-84
-105
53
-306
-336
-285
53
97
91
79
95
125
-126
96
49
13
-260
-272
-291
-311
-320
-306
-266
33
44
11
-305
-347
-350
-321
-283
6
34
59
85
125
-71
-28
-56
104
16
19
88
91
-304
-234
-546
-161
18
82
23
-286
3
71
91
78
113
-55
271
267
-32
-45
-24
261
294
349
146
144
355
336
131
194
187
129
381
219
566
522
345
-71
-82
305
206
529
224
368
289
310
155
228
170
264
127
100
-128
86
-315
-191
-200
-372
-338
-177
-589
-415
-385
-575
-550
-562
-556
-513
-220
-227
-515
-526
-236
-191
-177
-191
-221
-527
-581
-596
-538
-191
-154
-217
-574
-593
-233
-346
-277
-302
-323
16
-59
378
229
561
470
764
1314
1173
1350
1023
1160
1441
1836
1645
1020
1038
1036
1035
509
-22
-544
-847
-730
-1126
-1290
-1362
-1288
-936
-941
-998
-936
-696
-434
-608
-477
-896
-660
-791
-390
-569
-536
-232
-161
-383
-167
-242
-537
-242
-152
-328
-293
-297
-298
-260
65
108
82
10
-290
-257
69
100
77
64
117
-47
272
266
-36
-81
-122
83
39
32
69
119
-103
-70
-14
314
369
137
143
161
195
226
226
204
186
195
233
535
569
587
594
577
535
247
536
385
486
480
599
167
322
324
359
355
321
319
372
182
218
246
575
434
498
416
226
331
331
174
216
133
260
-28
328
195
223
143
284
-60
-104
-108
-84
-65
-92
85
8
-268
14
28
-262
-315
-343
-352
-382
-196
-530
-577
-579
-560
-551
-568
-609
-396
-411
-627
-537
-193
-175
-516
-410
-804
-879
-645
-893
-855
-770
-410
-620
-423
-784
-816
-476
-624
-624
-505
-668
-731
-668
-804
-443
-626
-586
-594
-639
-417
-400
-616
-615
-412
-456
-422
-585
-515
-249
-537
-563
-559
-543
-531
-526
-554
-614
-404
-637
-531
-143
-324
-343
-171
-526
-599
-605
-539
-208
-223
-611
-499
-511
-627
-209
-154
-187
-169
-290
125
-97
41
-361
-152
-367
-372
-229
-621
-404
-577
-228
-231
-544
-538
-171
-300
-266
-325
-133
-141
-370
-357
-360
-342
-303
-278
-298
-353
-158
-211
-247
-247
-203
-144
-130
-161
-182
-149
-346
-341
-154
-231
-237
-193
-179
-226
-536
-513
-141
-264
57
22
-329
-167
-210
-180
-360
-306
-325
-141
-207
-220
-192
-161
-136
-358
-304
-266
-285
-344
-376
-331
7
34
-300
-180
-522
-250
-187
-166
-189
-178
-351
-267
-294
-180
-571
-594
-530
-239
-535
-575
-527
-153
-318
-302
-312
-287
22
42
-258
-330
-383
-149
-155
-135
-325
27
99
108
76
63
97
-108
-96
-128
84
63
62
58
41
27
35
65
105
-109
-62
-12
291
326
333
327
329
342
347
306
-56
83
32
55
110
-98
-50
275
331
304
-65
98
126
-11
307
-46
11
-144
-189
-181
-193
-224
-239
-256
-581
-455
-823
-823
-454
-585
-546
-599
-419
-444
-394
-562
-514
-549
-392
-482
-481
-408
-612
-385
-473
-769
-437
-544
-184
-197
-542
-599
-573
-246
-184
-368
16
-55
358
178
251
437
737
996
1328
1018
1286
1193
1625
1616
1399
1148
729
831
514
7
-512
-1107
-1000
-1350
-1227
-1585
-1551
-1381
-930
-1075
-1042
-741
-891
-506
-440
-460
-509
-504
-438
-628
-612
-640
-403
-393
-631
-624
-612
-571
-238
-144
-312
19
69
76
41
-257
-275
-295
-362
-203
-254
-209
-370
-322
-349
-373
-306
95
-22
305
302
262
-44
-79
-62
256
307
280
-81
69
45
111
-35
325
139
161
147
142
200
563
639
623
545
236
247
522
225
149
129
199
552
606
613
604
588
542
226
225
572
422
426
564
190
204
578
392
573
174
145
535
427
398
184
-18
-18
159
553
227
-3
67
62
-72
284
283
-35
-81
-104
108
18
-344
-158
-175
-173
-188
-237
-570
-631
-385
-601
-544
-254
-253
-531
-576
-634
-422
-408
-579
-221
-189
-518
-389
-481
-506
-491
-486
-505
-771
-493
-442
-638
-589
-568
-583
-622
-394
-639
-593
-551
-547
-586
-386
-419
-420
-404
-395
-405
-430
-455
-462
-435
-613
-242
-143
-376
-162
-186
-139
-324
-337
-200
-573
-572
-209
-378
-139
-210
-241
-185
-343
-277
-275
-314
-336
-302
13
19
-310
-368
-291
-111
-39
27
-554
-427
-207
-118
-3
39
-244
-555
-372
71
81
-300
-146
-142
-336
-302
-307
-309
-289
1
34
78
-119
-78
-114
14
-129
-158
-280
-103
-63
41
-161
-224
-363
44
64
-325
-232
-546
-209
-324
21
10
-322
-376
-346
-259
43
-269
-381
-176
-356
38
114
86
17
-268
-259
-277
-344
-145
-378
-282
55
52
1
-279
12
77
122
-113
-118
86
-277
-378
-378
-262
112
114
8
-326
-278
80
99
16
-311
-269
90
127
52
-299
-296
60
-120
89
-299
-383
-330
55
121
66
-269
27
-45
140
154
-7
73
28
95
-106
-120
-124
-32
378
219
202
140
128
181
226
185
320
-61
-122
-100
-36
277
300
302
315
351
379
349
-12
104
-263
-307
-304
-309
-369
-215
-556
-579
-538
-202
-371
-305
-305
-132
-244
-541
-214
-366
-371
-514
-411
-425
-549
-166
-170
-528
-602
-586
-541
-537
-573
-583
-546
-245
-221
-201
-156
-341
-285
-260
34
-111
348
622
679
967
1388
1386
1305
1338
1572
1831
1810
1161
647
600
537
181
82
-425
-1073
-995
-1353
-1239
-1600
-1545
-1387
-1286
-1010
-913
-644
-624
-568
-451
-777
-581
-261
-123
-266
-221
-238
-315
93
43
-145
-252
-151
72
-43
-89
21
-302
54
-19
339
284
-103
86
-120
-20
291
285
265
268
276
-7
-49
-37
314
165
187
373
305
330
171
234
202
378
333
338
361
377
136
146
377
325
319
152
543
614
582
525
526
565
558
240
206
512
581
579
512
227
555
418
495
768
508
488
421
582
550
639
779
820
464
600
590
403
408
539
141
128
237
569
525
205
524
434
500
591
318
-71
268
370
-5
-322
-569
-251
61
337
354
-93
-260
3
117
-93
65
-341
-158
-147
-151
-233
-595
-607
-243
-381
-373
-231
-627
-440
-410
-587
-255
-213
-235
-565
-397
-448
-446
-419
-396
-637
-623
-623
-386
-387
-579
-197
-363
-143
-528
-634
-396
-391
-458
-840
-658
-860
-475
-628
-590
-565
-240
-145
-344
-355
-156
-226
-538
-568
-568
-548
-542
-550
-522
-159
-266
89
63
-330
-213
-244
-143
0
44
-323
-235
-545
-166
7
54
-313
-163
-380
10
62
-306
-187
-177
-278
110
96
-268
-324
-281
30
9
-323
-363
-327
1
47
41
4
-297
-309
12
-115
-17
-56
23
-161
-210
-381
-298
-331
-177
-219
-142
-267
64
49
2
-258
41
88
94
41
-303
-370
-368
-312
-267
-293
-358
-373
-310
-257
-300
-148
-177
-309
-125
-63
60
-152
-250
-164
6
88
9
-152
-246
-195
-305
84
-128
107
93
113
-127
101
28
-303
-333
-305
9
47
43
15
21
101
-42
267
-42
115
77
125
-82
-118
54
40
-111
283
350
341
329
335
301
-60
93
97
-58
277
-11
-99
-114
-7
136
205
176
375
343
317
257
-87
118
-95
280
133
157
369
345
139
210
203
362
-1
-52
-101
21
-160
-226
-358
63
62
-346
-167
-293
-123
75
-196
-615
-197
96
125
-206
-807
-796
-215
36
-311
-599
-477
-576
-313
58
-282
-159
-188
-370
-302
-324
-151
-192
-383
32
-35
155
633
668
979
1193
1234
1162
1361
1401
1228
1245
1153
1021
935
1144
1042
810
214
106
-226
-791
-1065
-983
-1000
-898
-1051
-755
-716
-846
-408
-562
-628
-775
-818
-421
-208
-347
-375
-189
-176
-319
40
38
-302
-369
-365
-340
-375
-199
-216
-346
103
-75
70
-355
-381
40
-6
331
280
-14
305
151
170
328
-53
-107
-89
-50
-22
265
303
321
291
-25
-27
346
552
464
477
597
205
210
590
421
597
138
-26
-65
-31
-7
278
141
595
474
447
582
523
588
431
460
443
459
504
490
636
520
248
586
389
591
234
199
254
570
574
561
616
481
799
450
515
152
236
411
468
569
343
261
366
229
175
-44
16
-263
98
-85
124
24
-285
-277
-269
-295
-323
-305
-274
-296
-364
-147
-363
-312
-372
-547
-427
-389
-242
-181
-545
-425
-394
-205
-328
-156
-627
-773
-508
-435
-403
-410
-391
-594
-558
-562
-569
-561
-566
-597
-612
-578
-535
-554
-630
-406
-582
-193
-361
-335
-319
-316
-133
-538
-633
-564
-154
-369
-227
-572
-205
20
94
-340
-549
-516
-266
-93
57
-205
-606
-525
-345
9
8
3
33
56
32
-268
-285
-260
19
3
-302
-330
-290
69
-94
-92
92
70
-75
339
358
-75
-276
-286
-105
298
-17
45
-325
-264
115
-106
103
92
-96
-49
-119
10
-263
-91
151
515
136
-106
-272
-262
101
-119
17
-161
-219
-347
110
-50
-115
32
32
-97
287
311
261
-1
330
382
317
-81
105
-91
-9
-59
21
-376
-363
-262
47
31
63
-57
328
297
125
1
51
-60
264
-34
-67
-22
279
-26
-123
-128
-30
272
-98
5
13
-58
347
311
-60
-48
359
177
279
23
-324
90
324
154
316
-75
-115
-52
279
273
-82
47
-261
72
-49
261
-63
123
-44
190
631
611
184
300
293
356
373
343
344
148
203
182
353
293
326
186
560
598
548
241
562
479
858
788
589
226
591
772
787
594
155
199
417
806
462
526
174
209
229
373
-63
95
-123
-39
-27
-110
58
37
77
115
105
51
-279
-347
-384
-363
-273
78
109
71
45
96
-73
-66
62
-365
-179
-364
10
59
35
11
42
117
-71
-48
-74
-124
89
99
-59
129
622
872
1134
1159
1650
1479
1638
1244
1259
1456
1878
1522
1196
924
906
1003
901
485
-42
-145
-557
-430
-649
-1130
-942
-1093
-666
-777
-389
-241
-350
-268
-279
-324
-333
-291
16
29
-267
-334
-367
-334
-262
48
56
60
124
-9
356
379
331
282
272
262
-48
-118
114
-108
-84
-106
-95
317
590
779
457
195
-9
270
186
543
198
-1
111
104
-53
343
231
607
414
424
418
441
498
797
781
460
390
609
609
625
388
398
401
407
426
464
511
808
842
877
666
708
718
682
887
871
651
684
894
499
600
545
633
769
803
424
242
165
521
439
773
449
600
577
629
638
546
170
141
204
239
158
261
-101
-98
-39
262
263
-12
-25
-34
-56
-89
-108
-89
-28
283
-1
117
-323
-169
-384
-272
45
7
-344
-166
-183
-139
-322
-274
-308
-161
-255
-253
-180
-155
-239
-607
-613
-239
-381
-131
-230
-549
-246
-160
-383
-158
-179
-137
-322
-288
-310
-331
-291
80
-58
-43
93
-336
-173
-382
-273
35
3
-288
10
116
-47
-3
270
266
-55
57
-361
-188
-158
-350
-343
-133
-137
-279
-77
353
150
337
-49
94
30
15
44
106
-89
-73
-99
-109
-47
325
145
369
267
-79
-119
105
56
37
97
-50
284
287
-11
-55
-99
94
37
48
-123
-38
-35
-117
77
127
268
380
367
273
-33
270
338
329
267
263
364
211
171
-12
75
46
120
-99
103
33
19
39
23
-277
-266
92
-40
268
-16
-56
-68
-72
-88
-96
-63
-32
-66
91
19
47
-117
-49
-40
-42
-19
268
286
324
162
515
237
333
-75
-64
327
364
-75
-335
-159
2
-60
-46
84
23
-127
268
258
122
64
-64
376
141
-37
33
38
-55
336
332
-7
-42
-2
280
-21
-97
-119
-67
-13
-12
-51
-71
-33
294
355
133
172
244
590
629
568
183
354
134
247
567
255
146
359
150
203
201
193
522
403
477
407
539
518
622
457
406
254
158
186
513
254
192
196
574
466
770
448
628
622
390
604
222
342
266
-26
-103
1
-130
-379
49
268
365
281
120
38
77
-106
-110
60
-278
-300
-295
-326
-377
-381
-311
8
-273
-365
-155
-336
45
77
-289
-167
-182
-316
82
102
-267
-129
-376
53
328
603
816
715
1127
1331
1541
1657
1643
1621
1478
1709
2102
1717
1422
1217
1191
1391
1055
225
-292
-550
-403
-843
-1129
-1319
-995
-745
-796
-486
-507
-471
-581
-384
15
36
-315
-179
-225
-193
-178
-247
-577
-518
-342
23
-317
-205
-149
-98
211
237
-13
-267
-301
90
-74
118
-268
-300
65
-17
367
136
351
315
334
136
154
345
-9
-47
262
333
341
311
342
217
627
429
617
255
212
243
544
536
234
205
220
253
529
535
560
620
429
433
619
545
536
586
639
384
615
624
421
463
438
634
629
458
826
874
845
806
795
508
418
588
589
403
418
553
138
358
212
571
530
148
367
232
621
583
379
-67
-94
274
380
364
-19
93
16
30
91
-128
94
22
-275
-261
-257
-335
-188
-198
-320
73
24
-201
-632
-572
-357
2
-149
-403
-501
-633
-211
-193
-571
-398
-580
-168
-337
-376
-195
-192
-359
-297
-355
-232
-569
-528
-162
-344
-345
-379
-146
-154
-138
-346
-294
-323
-218
-396
-454
-607
-209
-161
-189
-173
-329
12
-266
-354
-137
-348
-301
-320
-368
-134
-371
-332
-266
90
-82
-91
55
-315
-337
-296
-279
-288
14
-128
-61
101
-351
-186
-308
-64
320
-12
81
2
49
127
-122
64
-259
-262
51
112
116
48
-291
-299
56
-78
-58
76
-338
-132
-305
69
111
72
37
65
121
-126
77
13
-283
-299
-299
-274
39
88
70
-261
-310
-273
69
108
66
7
9
64
98
89
85
119
-115
78
-323
-193
-198
-340
50
112
89
35
3
13
39
41
-257
-323
-378
-382
-334
-262
53
77
59
26
23
60
96
66
-297
-151
-183
-374
-270
60
81
81
85
90
78
44
11
5
26
51
42
2
-277
26
-123
-30
-23
-94
89
73
83
50
-288
-346
-317
23
71
25
-316
-343
-277
83
-107
-103
111
42
-292
-333
-289
92
-38
-6
-57
-95
-55
294
352
336
305
321
361
354
284
-35
-7
377
526
614
611
549
235
221
512
549
551
517
231
237
255
236
180
145
169
207
175
321
-30
-26
304
322
-43
66
12
73
-126
53
-135
-534
-526
-161
-333
-341
-136
-154
-133
-380
-155
-192
-199
-180
-166
-169
-169
-173
-214
-542
-573
-246
-381
-342
-187
-567
-558
-151
-260
19
-305
-341
-303
15
60
114
-41
350
516
768
1112
1406
1228
1390
1381
1625
1692
1750
1446
1310
1123
1096
687
532
45
-528
-410
-799
-762
-973
-1306
-1000
-909
-1080
-720
-849
-475
-391
-586
-546
-543
-567
-568
-517
-204
-227
-596
-438
-420
-564
-206
-176
-179
-147
-332
-259
48
90
-126
-122
69
-294
-367
-347
-267
41
24
3
71
-43
314
300
-19
-2
371
196
130
-6
-39
326
161
323
112
28
-64
204
587
240
346
348
525
459
505
415
567
541
586
615
568
218
159
203
589
438
417
542
185
234
407
802
773
617
513
562
429
479
415
600
621
443
469
411
604
608
403
439
429
406
397
636
575
236
174
153
160
177
191
179
373
270
-73
-82
-17
300
276
-97
20
-314
-311
-278
-275
-321
-135
-193
-217
-204
-172
-152
-169
-198
-192
-131
-334
-375
-517
-415
-480
-446
-400
-408
-444
-438
-627
-548
-247
-222
-187
-153
-173
-519
-620
-404
-633
-603
-619
-635
-576
-184
-329
-343
-190
-242
-177
-331
-323
-172
-530
-538
-242
-251
-552
-513
-349
63
40
-139
-513
-161
43
116
-283
-231
-560
-239
-184
-240
-601
-630
-556
-194
-376
-323
-273
15
11
-260
4
24
6
-312
-359
-345
-290
-265
-285
-283
48
-91
-11
-2
-38
-94
94
43
63
-89
261
-31
57
-351
-357
6
92
89
50
33
9
-318
-382
-338
54
125
12
-194
-553
-223
-325
36
75
108
-119
127
89
93
-110
-102
45
-355
-376
7
127
102
-272
-306
76
-11
291
-64
54
-286
-317
-339
-338
-264
121
-50
-64
-114
-92
-4
285
-65
70
78
-49
268
113
-146
-250
-359
110
-111
-273
-149
-335
112
-40
-104
43
39
-116
-34
-59
99
11
-279
-263
41
109
-85
-52
-38
-13
275
278
-11
-24
285
369
154
375
323
325
368
142
161
204
251
210
316
-79
-37
179
619
603
194
373
217
619
638
530
188
208
244
177
294
-19
337
230
536
221
166
179
190
361
-49
92
69
66
-258
-357
-366
-260
110
121
60
45
121
-69
-123
-264
-366
-372
-355
-379
-153
-365
-261
46
-275
-365
-358
7
88
40
-329
-376
-325
-266
-267
-289
-263
67
121
-120
-70
335
550
481
879
1055
1309
1562
1432
1660
1585
1572
1593
1275
1325
1046
806
633
185
-118
-251
-858
-1063
-1115
-1112
-901
-1000
-1320
-1001
-1055
-794
-577
-194
-147
-157
-192
-215
-195
-379
-291
21
20
-279
-321
-310
27
-113
-36
-56
120
91
-86
289
322
-19
-111
-100
-13
296
279
285
133
530
576
243
153
144
175
136
260
123
74
116
-58
294
139
215
230
212
246
615
460
445
591
248
249
532
254
232
576
505
887
831
417
613
470
878
895
770
385
616
410
453
471
506
832
891
652
657
695
746
730
868
455
621
389
473
776
481
392
583
594
412
496
801
814
806
778
460
636
587
592
616
589
230
339
-42
-90
-53
285
341
308
-59
113
-117
-12
306
-4
-116
78
83
80
3
-374
-204
-211
-157
-339
-299
-335
-183
-254
-202
-316
22
-313
-202
-231
-356
26
-270
-181
-539
-215
-330
-271
-328
-168
-233
-254
-242
-188
-370
-343
-144
-229
-519
-246
-235
-236
-183
-314
35
-269
-150
-203
-359
20
-259
-147
-226
-130
30
72
-284
-379
-329
93
-20
266
-61
100
50
76
-107
-41
-26
-44
-42
-10
267
-10
-26
290
153
217
147
-8
124
91
124
-93
-71
-81
121
55
60
-75
328
354
-27
95
114
279
172
188
360
289
277
286
284
282
270
-50
99
27
69
-41
367
194
200
148
314
-20
-28
292
330
-12
89
37
-92
335
364
-10
-79
294
225
513
339
-106
-126
-11
319
266
-85
-116
-88
-78
-106
-103
-37
280
258
-76
-116
-74
-15
-10
-32
-1
350
179
186
135
357
375
132
362
318
293
298
315
348
156
215
201
369
315
146
565
608
167
-90
102
325
632
485
602
157
382
252
638
413
392
412
482
780
492
420
387
415
446
408
566
233
249
614
468
510
504
784
863
674
641
509
630
572
557
240
369
273
272
304
259
-116
81
-80
340
153
355
305
347
148
349
-49
-109
-19
330
-24
-288
-235
-202
11
-67
-63
72
-283
-276
60
118
97
38
28
106
-40
269
261
281
162
636
846
755
937
1179
1661
1506
1470
1411
1447
1809
1857
1498
1270
1022
1085
680
496
231
-96
-161
-426
-886
-1025
-1067
-733
-833
-452
-405
-621
-225
-264
122
38
-171
-529
-167
14
53
-323
-154
-304
-60
377
376
269
-57
-36
269
272
-27
-69
-76
-52
-20
265
310
131
228
551
542
237
238
575
392
588
153
264
304
225
615
606
540
558
390
404
551
211
583
834
692
769
205
358
579
653
1034
870
622
518
581
430
473
462
461
501
814
860
883
893
651
682
723
752
761
759
748
715
642
810
508
789
847
878
854
800
503
506
816
895
687
652
780
631
555
583
405
457
440
632
569
539
536
535
249
187
374
330
317
303
268
-16
260
323
360
310
-62
93
45
5
-342
-199
-240
-169
-331
-337
-201
-577
-591
-247
-166
-176
-246
-538
-238
-163
-150
-222
-569
-573
-226
-138
-151
-240
-539
-212
-362
-354
-203
-562
-559
-224
-189
-243
-574
-590
-531
-174
-305
85
-96
96
-324
-162
-317
-103
-21
48
-513
-393
-254
-281
43
-345
-229
-211
-341
-272
-320
-381
-336
67
-58
-19
-69
98
27
22
98
-54
-24
-114
36
46
-75
297
-4
83
-278
57
260
180
222
138
260
-103
125
-68
268
-10
80
-131
-217
-367
78
-61
-60
-102
-114
-108
126
90
76
88
78
15
-309
-309
40
-91
260
310
329
325
314
299
279
-29
-121
54
58
-117
-47
-46
-74
-38
312
357
282
-101
104
-99
-66
88
-358
-219
-150
47
-47
-8
-57
-112
126
119
104
92
113
-103
-94
109
39
15
54
107
120
96
82
81
57
11
2
70
-88
-35
-27
-7
305
328
265
-82
-87
-4
323
309
257
258
300
302
261
271
365
177
373
259
270
193
626
628
250
209
591
474
437
241
337
355
223
540
215
358
317
370
181
205
205
249
583
608
514
363
289
338
149
346
-91
-264
-333
-337
-376
-209
-249
-176
-324
-309
-157
-523
-526
-189
-136
-171
-231
-206
-356
-285
-347
-213
-216
-299
-113
126
-370
-613
-393
-246
-137
-195
-574
-585
-193
-299
9
12
103
315
537
396
434
771
701
918
1303
1320
1331
1180
1585
1640
1539
1359
946
1049
772
333
-381
-409
-499
-818
-757
-1285
-1188
-1381
-912
-692
-802
-479
-458
-458
-440
-615
-220
-349
-315
-383
-229
-550
-558
-541
-529
-523
-243
-192
-135
-351
-328
-297
22
103
-119
77
-299
-374
-330
59
-88
-72
-117
119
-104
-76
-120
43
5
79
-41
315
341
347
383
167
147
328
291
345
151
363
-29
-104
-8
166
243
190
145
229
626
400
550
213
533
404
410
537
205
566
482
489
549
369
150
595
447
618
213
189
559
406
398
590
578
622
391
619
581
589
630
391
631
621
631
618
532
136
284
268
320
360
332
-21
121
55
76
-91
-23
-46
98
-283
-347
-343
-293
42
118
-121
41
-143
-552
-580
-523
-256
-620
-511
-809
-448
-558
-251
-586
-456
-783
-772
-471
-474
-807
-645
-666
-839
-448
-595
-545
-243
-160
-331
-339
-218
-392
-470
-402
-543
-521
-625
-502
-778
-640
-191
-342
-377
-222
-539
-254
-181
-142
-168
-212
-206
-381
-279
0
-366
-537
-631
-572
-172
-370
-224
-394
-438
-552
-342
30
17
-308
-353
-355
-324
3
102
-110
65
-362
-219
-157
33
-84
120
-322
-199
-141
62
-41
-73
15
-348
-284
119
-69
115
3
-276
27
35
-303
-136
-365
22
-127
108
-264
-353
-362
-356
-146
-202
-160
7
-106
100
-364
-223
-318
265
189
302
-270
-203
-147
6
43
-309
-129
-322
92
-71
-110
51
0
17
48
53
47
62
89
84
57
69
-119
-62
-96
54
-290
-304
-287
-304
-330
-290
69
-121
111
75
-128
-16
272
-89
37
14
76
89
5
-325
-286
70
99
34
-271
30
97
62
-330
-179
-153
-294
53
77
82
122
-70
-7
315
139
217
517
254
204
380
273
-88
121
-98
-14
294
269
-51
-63
300
254
441
468
585
178
172
539
566
383
-117
107
337
564
515
-10
79
-55
193
530
367
-96
92
125
103
-267
-353
-329
-278
-336
-237
-594
-519
-330
52
28
-331
-373
-312
23
13
-356
-229
-539
-256
-208
-190
-201
-219
-234
-240
-208
-359
50
-114
78
-356
-228
-195
-328
-283
-372
-198
-337
-17
558
452
495
650
992
1587
1433
1561
1207
1580
1803
1849
1633
1363
1004
1009
1108
414
-120
-223
-612
-463
-696
-957
-1298
-913
-756
-742
-1076
-1029
-486
-359
94
-293
-594
-497
-614
-340
19
-162
-423
-478
-551
-367
-368
-204
-164
31
-81
94
-129
-520
-213
-344
-289
-298
-270
83
-62
265
315
130
206
231
182
366
331
335
340
319
290
290
318
341
338
327
353
176
528
596
620
624
623
607
568
526
237
210
183
159
150
162
184
204
226
522
599
453
824
876
801
612
169
369
203
575
592
512
186
220
600
477
813
835
818
785
504
499
494
448
603
247
219
516
527
172
281
-35
295
141
133
272
-70
-41
287
-6
94
-280
25
-84
-43
51
-189
-563
-249
-140
-153
-564
-471
-500
-389
-521
-251
-590
-399
-629
-560
-547
-609
-412
-400
-613
-633
-479
-810
-502
-618
-536
-612
-790
-644
-830
-621
-182
-148
-232
-591
-395
-427
-464
-487
-470
-453
-484
-787
-481
-552
-372
-135
-594
-486
-394
-179
-139
-639
-660
-653
-595
-266
58
-364
-523
-530
-192
-156
-202
-518
-543
-546
-556
-551
-251
-184
-133
-361
-330
-291
-283
-340
-175
-223
-196
-141
-381
-159
-210
-255
-555
-582
-559
-201
-312
37
23
-320
-147
-175
-166
-172
-214
-538
-602
-628
-576
-190
-304
25
11
-273
22
121
-80
102
-310
-166
-165
-345
-278
-262
-278
-309
-356
-163
-219
-231
-203
-175
-178
-194
-173
-359
-283
2
-269
-268
36
81
38
-360
-249
-538
-190
-327
-292
-347
-149
-139
-335
-289
-288
-298
-291
-292
-342
-163
-187
-370
-260
44
7
-279
18
77
57
-291
-336
8
-109
-85
29
-152
-223
-172
-384
-193
-573
-621
-529
-378
-309
-357
-164
-378
27
-107
-121
24
-324
-340
-325
-320
-306
13
87
108
64
37
80
-111
-102
109
80
115
-73
-14
288
322
312
-3
-41
285
193
573
545
145
274
259
336
178
242
231
379
-45
94
-124
307
208
205
317
-88
-125
-58
282
302
-19
115
-278
-136
-194
-194
-157
-375
-361
-368
-377
-366
-327
-274
6
-317
-212
-606
-630
-548
-247
-615
-810
-864
-404
-368
-285
-232
-464
-420
-383
65
-348
-416
-498
-195
-71
-31
-371
-453
-427
-316
307
166
353
361
589
678
943
1303
1333
1160
1591
1523
1853
1504
1557
1361
994
919
734
594
55
-419
-671
-745
-1060
-920
-1000
-930
-744
-847
-811
-837
-818
-487
-442
-468
-504
-484
-430
-403
-396
-594
-208
-359
-368
-186
-186
-312
80
83
-274
-318
33
-97
-114
-282
-159
-354
112
275
271
-94
101
-105
-8
294
270
-26
-30
266
314
342
343
321
293
283
302
330
342
325
286
269
312
158
254
524
199
141
191
590
448
438
620
600
418
491
448
551
136
298
271
301
150
561
396
584
170
377
537
770
848
457
530
229
589
442
444
635
593
605
625
608
552
228
173
150
172
229
538
532
195
338
260
-7
284
316
307
270
-39
-81
-99
-114
108
45
-281
-324
-338
-356
-129
-380
-291
108
-72
105
-340
-252
-576
-590
-390
-497
-830
-807
-446
-593
-530
-254
-245
-227
-207
-212
-255
-579
-637
-396
-386
-618
-576
-237
-379
-298
-306
-131
-224
-536
-555
-556
-549
-532
-521
-533
-547
-521
-189
-353
-296
-269
12
39
40
-261
-325
-363
-344
-293
1
3
-275
-281
25
127
-45
-46
-126
69
106
-63
-56
72
-343
-382
-288
46
-271
-158
-221
-146
-298
-274
-290
38
-55
311
256
127
122
285
190
173
258
105
82
-126
-118
100
91
-120
-86
-118
71
34
41
69
104
-105
-68
-82
126
107
-94
-19
-27
-127
39
52
122
-117
75
22
79
-29
351
373
325
278
-5
-44
-104
105
100
113
99
61
49
88
-103
-49
-3
322
145
172
368
266
-53
-42
271
317
315
275
-34
-70
-63
-6
313
324
276
-45
-82
-78
-41
280
371
209
524
533
248
199
129
302
-12
-18
275
298
272
-23
-3
358
241
582
573
512
223
523
618
436
447
434
469
821
661
686
894
825
772
466
405
620
385
455
484
421
580
563
407
803
879
856
793
485
441
631
537
180
352
309
320
371
152
379
293
-21
277
381
173
363
-11
-75
-48
268
282
-10
-40
-33
-21
-46
-108
116
-83
297
142
158
379
369
157
186
130
291
268
358
222
530
531
618
874
973
1546
1495
1860
1901
1903
1667
1785
2005
2184
2398
2109
1495
1246
1353
1126
454
-51
-191
-394
-489
-841
-670
-648
-493
-544
-136
-305
46
-72
321
379
352
309
331
161
514
575
590
565
512
196
179
237
587
633
595
531
538
639
489
502
437
402
473
852
892
791
404
412
851
1056
1094
707
851
662
1112
973
908
764
715
1038
1083
750
880
871
1040
1023
1177
1181
1336
968
916
945
1015
1298
967
1100
1042
1097
946
1010
1013
1018
1322
1373
1366
1303
997
1011
1330
1400
1199
1237
1252
1236
1204
1183
1167
1386
1321
1012
1015
1300
1292
971
909
933
1289
1364
1332
964
1129
1124
912
917
1107
1027
744
1033
1068
1049
721
647
872
882
644
645
861
511
391
576
608
447
486
384
206
346
355
154
146
346
355
222
601
582
181
323
353
210
252
163
291
-20
-2
266
-22
-50
-9
332
366
307
-39
-67
-24
273
261
-14
287
145
248
513
201
170
226
596
412
384
536
184
159
191
201
129
272
-24
331
247
610
589
518
519
606
436
453
423
410
424
417
631
606
395
478
786
780
503
508
770
474
398
609
633
418
392
535
167
156
255
613
618
538
215
244
600
433
463
469
499
807
842
830
779
466
420
403
420
456
461
397
551
230
248
580
399
433
425
384
584
564
626
502
881
647
835
509
492
503
495
478
487
508
481
385
527
211
221
255
523
250
220
208
512
632
504
770
629
224
515
472
888
792
514
322
365
525
594
548
530
612
424
607
196
161
585
798
838
427
519
525
418
805
823
781
789
855
891
845
778
778
845
646
892
843
824
848
881
641
665
721
1026
746
640
801
808
659
750
722
844
476
479
825
882
829
454
385
429
785
834
771
634
255
202
204
209
182
133
357
352
350
325
278
-1
285
337
352
320
276
258
-3
-28
-43
259
357
151
340
-47
-108
-56
264
-37
99
81
260
512
611
239
366
228
878
1299
1218
1383
981
977
1370
1262
1587
1597
1576
1243
1344
914
1070
1051
732
494
336
-382
-493
-700
-766
-764
-761
-1028
-752
-884
-395
-157
-287
-275
8
-121
290
323
-64
28
-266
84
-93
117
-265
-334
-272
108
-85
127
53
60
-71
339
145
325
-74
110
-81
320
172
167
337
259
-4
304
351
337
279
-10
295
147
235
249
223
234
555
604
569
223
154
142
152
138
370
134
206
535
563
553
548
567
590
600
597
592
576
538
216
155
145
215
599
453
473
394
546
247
540
597
612
575
529
520
565
636
426
425
409
432
489
773
458
605
538
536
525
186
328
288
334
364
292
-81
-122
-63
-5
-32
-99
-114
-85
-126
-278
-185
-230
-164
-372
-177
-550
-614
-596
-561
-561
-579
-581
-592
-394
-471
-490
-441
-404
-453
-790
-775
-386
-536
-616
-846
-768
-750
-855
-493
-510
-845
-642
-648
-891
-845
-485
-627
-602
-445
-853
-682
-647
-792
-420
-600
-588
-392
-478
-778
-488
-428
-419
-481
-817
-855
-848
-814
-770
-464
-431
-423
-420
-404
-393
-414
-452
-455
-396
-573
-535
-526
-254
-235
-250
-535
-254
-154
-329
-132
-555
-422
-421
-391
-457
-847
-890
-770
-591
-244
-241
-213
-363
-261
-267
-365
-197
-213
-199
-245
-621
-481
-501
-395
-233
-131
-152
-250
-582
-563
-215
-131
-383
-200
-533
-559
-530
-244
-518
-566
-586
-540
-209
-167
-183
-220
-223
-186
-142
-370
-369
-150
-233
-584
-618
-555
-191
-145
-208
-567
-602
-534
-176
-141
-203
-544
-556
-207
-345
-330
-190
-587
-603
-214
-319
-298
-139
-222
-197
-368
-343
-153
-220
-199
-362
-276
14
34
75
124
-110
-110
-102
-89
-117
52
-298
-323
3
119
-37
283
310
297
-21
-89
-84
277
150
188
354
-41
-106
-58
286
316
268
-56
-81
-66
-51
-55
-53
-18
292
320
287
-50
103
-265
-370
-169
-143
-332
-326
-181
-578
-614
-517
-157
-170
-523
-562
-218
-351
-327
-162
-255
-522
-233
-232
-529
-561
-563
-561
-576
-564
-231
-376
-319
-362
-186
-207
-156
-374
-148
-187
-364
125
145
571
389
777
1058
1371
1250
1407
997
991
1366
1397
961
680
482
386
234
-85
-252
-873
-1098
-961
-1293
-1336
-1326
-1013
-938
-1114
-764
-663
-835
-772
-460
-401
-614
-604
-609
-593
-528
-177
-364
-367
-189
-539
-568
-516
-173
-366
-331
-279
54
103
57
-339
-218
-243
-155
-308
-281
-315
-308
50
-74
-20
-73
116
118
-111
90
-296
-362
-266
-103
-51
-123
95
-61
333
332
-52
-117
260
196
245
375
-15
-13
345
146
361
308
324
134
179
165
379
373
183
558
403
411
583
235
226
564
638
608
224
349
300
337
138
158
134
358
362
166
513
575
565
238
157
371
383
155
152
348
-22
115
51
54
89
107
89
53
16
-284
-329
-327
25
-81
-5
-94
-300
-220
-518
-207
-164
-188
-256
-588
-413
-498
-806
-779
-447
-428
-773
-887
-893
-505
-617
-610
-490
-881
-878
-498
-388
-395
-488
-830
-840
-810
-794
-806
-819
-798
-494
-461
-465
-481
-465
-402
-592
-572
-601
-633
-385
-405
-464
-777
-489
-617
-245
-255
-622
-428
-609
-208
-134
-184
-547
-623
-637
-615
-587
-572
-575
-595
-600
-565
-241
-175
-143
-134
-380
-368
-368
-384
-154
-187
-207
-181
-368
-313
-328
-134
-148
-323
23
3
-131
-234
-182
-273
110
111
32
-294
-320
-318
-285
35
70
5
-145
-518
-241
-371
-263
20
3
-260
-277
-350
-193
-230
-162
-317
-292
-371
-224
-525
-227
-156
-145
-215
-555
-543
-158
-283
-294
-180
-539
-199
15
-100
105
-303
-140
-378
-337
-357
-161
-192
-182
-175
-200
-215
-172
-331
17
40
-263
-318
-320
-269
37
34
12
39
112
-111
70
-308
-349
-281
28
-301
-203
-544
-228
-377
-363
-185
-233
-162
-283
57
44
-273
-326
-357
-364
-325
6
55
12
-346
-135
-316
49
54
-313
-150
-350
61
-116
45
-135
-221
-383
56
-89
-106
69
31
66
-120
-53
273
344
373
303
-91
69
106
-26
314
285
-45
-37
349
518
612
600
539
250
531
561
254
350
-108
27
40
118
-116
87
55
116
-50
-44
124
57
106
-42
-20
109
-338
-204
-201
-144
-132
-198
-540
-569
-542
-529
-577
-622
-554
-133
-299
-163
-638
-463
-561
-356
-356
-564
-477
-419
-228
-134
-218
-606
-639
-591
-570
-588
-558
-189
-336
-333
-152
-169
-292
-65
131
234
552
401
805
681
759
1089
994
1222
1622
1543
1298
1104
1116
957
1109
415
74
-639
-849
-703
-1127
-1317
-1391
-1329
-1001
-984
-914
-667
-591
-156
-233
-410
-464
-639
-596
-433
-816
-812
-424
-557
-525
-533
-251
-199
-174
-168
-382
-307
-259
-270
-274
50
-112
-104
59
-276
24
-123
-108
8
-166
-198
-303
-82
327
379
371
355
349
336
306
262
-45
-89
-115
-123
-123
-106
-39
351
245
576
546
216
195
249
563
547
218
170
192
230
224
200
240
604
422
628
515
248
388
781
478
529
144
515
511
890
501
512
129
174
516
520
208
195
253
565
547
209
142
147
195
206
130
-9
-121
-123
-44
262
-49
100
69
-109
-40
-114
-313
-217
-217
-361
-283
-300
-352
-358
-343
-382
-214
-247
-155
-275
1
-148
-594
-390
-532
-141
-143
-550
-473
-826
-832
-793
-480
-401
-583
-568
-627
-447
-461
-407
-628
-425
-792
-862
-840
-776
-504
-798
-816
-493
-632
-562
-589
-397
-396
-575
-251
-525
-598
-614
-513
-358
-268
-287
-346
-360
-325
-299
-316
-344
-338
-324
-378
-252
-612
-570
-132
24
-267
-205
-610
-549
-345
30
-321
-519
-592
-208
-292
-269
-145
-514
-209
-299
74
54
-300
-355
-329
-271
28
50
83
-125
-73
-44
-57
-113
55
-263
-257
58
89
21
-363
-178
-375
23
-117
-94
-126
115
-114
-91
-110
94
32
-275
-330
-138
-192
-214
-226
-254
-541
-245
-342
-120
293
306
-24
-70
-45
-6
-19
-87
77
-288
-160
-245
-186
13
-57
-53
51
-320
-267
124
-91
79
17
93
-40
-22
-122
73
-107
263
-3
116
3
33
-128
-121
15
-360
-349
23
103
78
5
-270
40
95
100
88
114
-73
-24
-62
80
-291
-339
-304
23
65
58
31
40
111
-37
316
354
303
-80
31
-319
-324
-282
-261
-289
-326
-309
33
-116
-48
-48
-91
-127
-106
-7
382
197
157
313
266
335
203
525
244
192
182
220
518
540
564
602
625
597
523
188
130
348
336
365
174
240
524
255
239
238
228
188
146
144
178
173
325
-88
73
93
-96
-91
74
-306
-380
-134
-373
-366
-377
-145
-165
-171
-166
-167
-195
-242
-513
-191
-330
-264
-316
-182
-515
-231
-153
-374
-146
-179
-169
-131
-357
-336
-280
69
-118
-126
83
100
-28
156
576
471
691
983
1228
1566
1275
1554
1465
1917
1692
1523
1579
1223
1400
897
443
-66
-201
-452
-656
-1112
-1002
-1306
-1281
-961
-1084
-847
-589
-216
-545
-426
-456
-633
-584
-388
-457
-639
-168
20
41
-324
-148
-364
-258
44
-282
-140
-177
-343
73
-57
-11
259
312
153
210
163
313
-7
269
299
262
-80
119
-121
-72
-45
-14
321
174
225
176
351
323
360
158
212
542
618
625
543
223
557
479
822
445
217
356
178
580
612
239
363
372
545
773
656
650
811
481
493
796
785
446
627
630
424
422
591
248
532
432
859
660
818
637
224
176
249
626
415
572
137
275
307
184
559
588
528
172
330
-4
-55
-78
-88
-106
118
74
42
39
50
42
-271
-357
-146
-371
-322
-359
-232
-592
-552
-143
-283
-290
-355
-130
-137
-191
-535
-561
-238
-198
-555
-471
-779
-388
-227
-244
-423
-807
-484
-560
-204
-526
-640
-403
-566
-203
-169
-185
-190
-175
-176
-199
-198
-148
-355
-383
-225
-549
-516
-177
-164
-520
-627
-611
-208
-308
-263
-336
-166
-167
-341
-268
-285
-378
-202
-193
-383
-361
-147
-161
-303
-120
-52
58
-183
-550
-194
-266
82
50
-260
-260
23
21
9
57
-82
265
-35
42
-148
-212
-381
4
51
-277
-139
-198
-158
-320
24
82
107
88
29
-266
39
-117
-83
57
-133
-224
-150
-267
49
13
-281
8
96
-68
265
312
287
-89
13
-323
-304
-277
-325
-144
-133
-280
69
57
-261
3
108
-72
125
-279
-363
-321
-257
-294
-139
-144
25
-37
-36
16
-151
-309
-17
164
300
37
-330
46
-72
117
-353
-212
-368
47
65
-310
-132
-314
93
-78
-77
-74
-28
-11
-92
41
7
96
-58
-80
27
-360
-326
97
-31
-68
36
-308
25
-88
-47
110
22
100
290
383
266
78
38
-86
263
-127
-149
-555
-193
21
121
70
17
55
119
117
99
-70
366
195
315
85
19
-48
201
521
373
-35
258
200
634
409
598
574
391
488
492
629
223
159
198
513
521
238
247
575
389
636
530
138
319
328
370
363
273
-95
-128
-36
365
181
367
-63
21
-346
-137
-145
-380
-338
-305
-317
-374
-166
-150
-327
14
33
-297
-156
-221
-192
-369
-327
-354
-136
-377
-311
-266
-300
-379
-168
-141
-323
-258
37
65
102
-89
291
238
480
684
1065
896
1015
1163
1254
1238
1191
1223
1590
1659
1583
1154
999
1111
839
377
-141
-773
-696
-1074
-1014
-1240
-1607
-1269
-1322
-1104
-663
-508
-392
-591
-570
-522
-150
-267
79
91
49
-265
-321
-362
-369
-325
23
110
-111
-114
-116
-85
-30
274
291
275
-37
-122
72
99
-30
376
178
362
-18
-82
-49
296
362
372
368
141
212
527
513
173
354
367
205
548
564
537
536
570
601
607
606
625
633
589
520
248
570
411
466
473
477
496
509
504
481
444
395
626
420
798
887
836
426
592
408
806
842
469
595
604
469
801
471
578
252
566
411
436
621
544
543
602
629
562
181
359
377
166
376
-45
40
27
-59
134
165
261
50
-299
3
78
75
3
-313
-332
-353
-152
-209
-200
-379
-318
-347
-185
-251
-238
-181
-152
-182
-242
-558
-612
-411
-464
-506
-779
-496
-423
-602
-583
-633
-428
-397
-547
-217
-251
-607
-405
-615
-526
-228
-252
-551
-574
-572
-552
-251
-199
-190
-247
-579
-582
-220
-334
6
4
-288
-297
-293
-313
-339
-313
37
110
46
-131
-250
-175
28
-105
80
-320
-347
0
40
-327
-212
-190
-272
110
53
-338
-349
46
-88
-107
55
29
95
-115
91
5
-263
70
-107
-93
-126
113
-119
-86
-96
106
58
68
-107
-8
271
-76
32
-328
-320
33
-127
-103
93
3
-309
-300
6
42
41
31
43
54
15
-316
-331
47
-11
342
-17
46
-279
88
-41
-85
-273
-133
-308
118
-86
60
-308
-260
-83
303
272
127
-262
-305
-259
102
-55
-30
-114
12
-282
92
-1
283
-121
-288
-301
89
-57
-114
-287
-148
-364
24
126
-110
-128
116
109
100
114
-71
294
364
342
263
-44
-13
319
361
346
314
321
379
189
220
214
196
182
179
187
204
222
215
165
353
322
369
212
556
596
606
624
401
406
589
191
304
-29
-55
125
-321
-552
-413
-596
-173
-334
-368
-182
-182
-365
-302
-287
-273
30
64
15
-368
-218
-224
-142
-294
33
71
74
28
-309
-366
-352
-289
-265
-333
-194
-540
-551
-205
-282
-45
189
609
452
821
744
931
1023
1019
1304
1190
1599
1575
1324
754
830
773
627
-13
-538
-694
-1116
-1138
-951
-1372
-1236
-1159
-914
-676
-838
-849
-817
-422
-515
-181
-193
-196
-139
-337
-349
-145
-155
-360
-304
-283
-265
48
120
-103
-102
-73
-3
296
-4
-81
-92
-22
282
-33
106
57
-128
-16
282
-25
-101
127
-80
274
370
163
166
170
209
529
563
563
591
426
503
450
522
360
373
527
391
603
195
350
130
244
588
611
604
603
613
616
608
608
625
392
407
415
419
421
417
404
398
398
390
632
636
430
507
794
479
627
572
623
471
785
503
440
405
401
401
392
392
396
625
548
192
372
329
296
271
271
296
305
-3
-84
-118
-86
-44
-55
-89
-62
271
271
109
-376
-215
-359
50
22
-198
-411
-454
-634
-606
-420
-470
-410
-579
-606
-484
-814
-453
-249
-143
-213
-601
-395
-591
-517
-517
-572
-599
-568
-253
-231
-528
-594
-622
-578
-231
-174
-210
-560
-611
-560
-209
-185
-247
-545
-217
-327
10
-306
-148
-129
8
102
25
-155
-251
-188
-343
-354
-205
-515
-187
-334
-305
-355
-133
-381
-151
-240
-537
-157
64
-91
40
-146
-171
-278
101
39
-130
-223
-169
-317
-263
-261
17
77
-125
-105
-115
102
34
-302
-349
-330
4
85
110
62
-268
-289
42
-97
-54
116
-289
-383
-373
-315
-276
-261
13
33
18
-291
-320
-289
9
-265
-329
-357
-303
38
68
36
3
18
57
60
15
-281
-259
55
69
-259
-353
-361
5
-119
-88
82
-271
-270
74
-102
-87
-101
-92
-61
-63
-127
36
-283
-274
62
-77
274
310
302
310
371
191
217
165
330
259
-27
-26
274
381
515
604
602
550
517
515
237
155
308
-5
269
331
377
363
290
-58
-106
-76
-19
-33
85
-349
-183
-145
-329
-326
-142
-198
-170
-339
-287
-331
-191
-550
-544
-161
-261
45
-310
-210
-540
-226
-378
-336
-363
-144
-151
-144
-146
-149
-133
-361
-338
-300
39
-124
-75
-54
302
553
877
1106
905
1133
905
1018
1395
1207
1210
1382
924
888
634
528
252
379
36
-404
-729
-1094
-1084
-1092
-1145
-922
-1141
-1037
-877
-413
-229
-177
-542
-416
-630
-156
31
-268
-236
-398
-587
-363
57
49
-309
-353
-277
112
-70
-108
67
65
-58
378
176
276
30
-345
2
-74
265
-51
119
124
-41
309
359
131
159
154
348
288
304
135
189
142
315
318
167
524
524
202
188
516
580
549
205
177
517
636
421
604
236
190
514
402
791
834
782
449
422
452
510
846
696
765
709
772
572
539
436
870
893
485
551
215
540
435
825
859
510
611
247
251
564
559
207
365
372
215
542
240
380
308
337
150
151
306
-100
33
-281
-283
4
33
24
-298
-384
-163
-377
-323
-347
-204
-563
-569
-248
-213
-517
-587
-594
-535
-233
-243
-519
-227
-157
-146
-256
-426
-784
-496
-632
-550
-584
-443
-788
-512
-390
-247
-165
-181
-253
-563
-555
-521
-524
-578
-623
-586
-216
-371
-360
-164
-218
-217
-184
-166
-175
-202
-240
-554
-618
-638
-575
-181
-300
18
-258
-313
-324
-264
81
118
66
-296
-131
-161
-136
-341
-286
15
34
13
-279
-274
30
58
7
-361
-188
-169
-333
-268
-285
-347
-372
-310
70
-70
-38
-113
12
-341
-339
-268
36
2
-330
-354
-282
71
87
18
-285
36
-100
-56
110
-283
-341
-303
-262
-273
-282
47
-73
267
-37
109
66
115
-99
90
-326
-201
-206
-369
-296
-323
-134
-367
58
280
373
-3
27
-354
-279
-112
-48
85
-370
-195
-352
71
-102
121
91
-96
270
285
-76
108
-37
206
611
527
333
-2
366
517
538
181
361
138
213
225
174
160
213
526
521
214
186
208
217
151
306
270
344
210
519
210
382
361
145
146
293
124
19
46
122
117
-270
-185
-515
-194
-332
-277
-317
-380
-132
-358
-370
-180
-209
-367
54
114
-273
-211
-526
-147
10
51
-262
-301
-279
-262
-319
-163
-221
-211
-175
-149
-373
-298
95
300
572
884
912
1354
1153
1371
1315
1318
1399
1245
1265
1401
931
728
839
438
204
-127
-230
-807
-1064
-975
-1022
-969
-898
-1137
-1127
-758
-782
-560
-230
-557
-387
-628
-252
-375
-315
-344
-161
-206
-189
-130
-340
-337
-351
-326
8
93
-118
-123
110
103
122
-98
-76
-83
-120
105
110
-108
-67
-45
-41
-42
-42
-37
-14
298
128
207
240
222
176
374
310
263
279
373
233
551
541
524
583
454
805
772
625
220
176
232
539
254
183
181
558
476
829
800
448
638
633
397
410
432
482
792
802
503
456
472
819
654
648
776
612
531
573
404
429
626
565
581
628
596
210
331
293
342
131
381
373
148
170
376
272
-42
-4
319
302
-77
25
-322
-334
-310
-290
-299
-359
-194
-516
-244
-150
-317
-302
-347
-135
-142
-149
-192
-250
-540
-543
-549
-571
-580
-562
-548
-553
-545
-229
-149
-144
-226
-542
-226
-354
-315
-175
-576
-600
-515
-213
-552
-440
-511
-487
-427
-607
-231
-336
2
-312
-178
-230
-177
-369
-376
-142
-352
-283
-321
-217
-548
-364
-13
194
312
-295
-539
-523
-149
-150
-551
-427
-432
-622
-598
-600
-519
-331
101
125
21
-298
39
-62
261
-96
-270
-359
-293
91
123
12
-377
-129
-260
127
-99
-109
-13
193
570
174
99
-148
-135
30
83
-347
-591
-407
-253
-298
53
13
-293
-262
62
65
-282
-349
-263
-69
307
-35
22
-328
20
-105
-127
-299
-160
-337
111
-18
-11
-33
256
309
309
-9
-81
107
-261
-164
-521
-202
-268
-115
-121
3
-352
-312
80
-69
-64
-126
72
50
66
112
-69
274
320
294
-23
-37
281
343
318
-23
-63
261
379
177
131
310
287
330
140
209
542
599
593
521
194
201
535
586
540
186
138
174
218
200
148
135
184
235
225
174
151
158
382
268
-123
82
123
-95
99
-316
-213
-521
-194
-307
77
110
39
-323
-363
-319
-270
-308
-159
-231
-201
-380
-360
-167
-218
-172
-317
0
-309
-160
-210
-164
-354
-364
-187
-238
-198
-370
-329
-341
-306
122
144
411
867
1040
969
1379
1181
1172
1224
1641
1526
1489
1277
1312
960
927
1033
428
-27
-177
-454
-867
-701
-1032
-1134
-982
-1003
-1120
-874
-437
-432
-771
-497
-573
-365
-294
-358
-158
-380
-327
-364
-220
-562
-553
-231
-180
-155
-373
-307
22
87
-107
-51
-18
-24
-72
107
30
-258
52
-72
320
358
276
-90
-120
-39
340
171
201
201
177
372
293
261
326
186
242
186
359
133
553
458
452
544
151
195
636
504
434
244
383
186
606
464
457
392
612
620
624
588
538
532
587
386
628
544
206
218
592
466
504
428
569
252
526
578
614
629
624
586
255
192
211
561
620
549
143
325
150
528
516
352
-55
-46
332
382
283
-121
71
85
55
-319
-161
-363
58
-111
41
-153
-242
-165
-306
-316
-215
-635
-428
-625
-558
-563
-620
-393
-591
-219
-151
-215
-635
-511
-497
-614
-242
-520
-632
-450
-415
-589
-558
-582
-590
-536
-206
-170
-165
-149
-371
-341
-309
3
57
31
-366
-544
-391
-400
-386
-389
-609
-247
-149
-161
-245
-241
-341
79
65
-361
-236
-191
-312
-261
-328
-135
-365
-300
-278
-298
-312
-318
-349
-378
-327
62
-95
-120
57
64
-82
-17
-113
-290
-371
-295
59
33
-353
-186
-153
-311
17
41
59
93
114
102
70
63
95
-114
-99
96
-290
-163
-201
-361
65
-71
-73
98
33
49
118
-95
-111
94
61
64
52
-282
-130
-163
-324
79
-116
66
-302
-316
37
-127
123
43
-266
12
51
36
-284
-337
-342
-315
-287
8
61
104
97
42
-262
7
63
86
47
-260
7
77
-124
-127
115
-111
-63
-93
19
-150
-227
-190
-369
-318
-289
-266
-262
-293
-319
-273
91
-88
-116
52
21
93
-61
-4
269
310
135
190
157
325
274
304
372
156
165
178
209
213
157
339
323
381
208
242
217
187
216
549
588
527
148
355
197
608
391
240
284
-65
-12
283
-108
-376
-589
-629
-558
-252
-254
-241
-156
-294
36
35
-264
-316
-359
-137
-153
-147
-381
-362
-373
-157
-192
-183
-371
-296
-298
-380
-201
-191
-368
-317
-327
-341
-306
-268
-309
-163
-220
-378
95
308
187
545
468
751
1289
1183
1183
1157
1253
1475
1669
1670
1474
1220
1021
1127
675
633
258
-146
-798
-1131
-1336
-1381
-1308
-950
-1118
-1028
-664
-807
-442
-584
-210
-136
-145
-206
-237
-207
-162
-160
-178
-147
-311
11
-283
-135
-207
-175
-322
33
70
57
32
23
37
75
126
-78
-49
-49
-75
-105
-117
-106
-85
-70
-67
-57
-9
328
137
149
129
138
211
554
568
238
158
156
210
231
186
147
185
528
574
554
526
545
583
590
581
608
404
397
544
167
150
238
573
560
250
250
575
389
410
406
412
427
434
432
420
630
529
147
340
142
529
623
622
561
239
187
162
179
231
514
192
291
-107
-128
-46
296
297
-36
-124
88
94
120
-123
120
91
80
107
-126
78
-330
-252
-602
-583
-540
-573
-424
-510
-495
-640
-248
-153
-384
-167
-254
-602
-402
-408
-401
-411
-435
-433
-635
-567
-546
-585
-387
-413
-396
-623
-619
-630
-614
-548
-211
-166
-174
-192
-173
-133
-383
-192
-557
-638
-622
-243
-338
14
-274
-142
-238
-200
-321
18
-314
-233
-592
-538
-169
-139
-211
-520
-198
-309
38
13
-320
-344
-292
31
54
47
52
70
58
-261
-333
-363
-354
-349
-379
-142
-355
-270
33
-265
-322
-288
97
-47
-61
69
-301
-309
24
96
91
8
-339
-370
-332
-270
4
-294
-336
-319
-267
0
-309
-355
-325
-265
-285
-133
-190
-342
93
-107
1
-191
-199
7
-34
-18
64
-373
-160
-339
4
47
69
106
-123
103
10
-359
-179
-180
-375
-297
-261
-305
-146
-206
-150
3
-109
-88
62
-329
-130
-345
-273
10
-276
-318
-326
-299
-273
-263
-260
1
12
31
54
81
93
71
23
-274
-275
22
79
121
-117
-109
-96
-67
-14
322
155
203
165
297
-90
-125
-48
310
351
312
265
281
368
222
548
534
183
336
349
250
415
396
156
-109
99
284
213
182
-24
73
98
-34
264
-88
32
-297
-294
-273
-291
-363
-200
-255
-233
-148
-344
-138
-519
-592
-540
-180
-161
-514
-626
-398
-616
-605
-394
-427
-395
-583
-529
-231
-173
-129
-168
-529
-570
-192
8
88
-280
-172
-147
95
148
629
768
669
1138
1326
1397
1379
1397
1543
1512
1907
1838
1581
1006
728
491
221
120
-559
-733
-1346
-1563
-1612
-1272
-1408
-1319
-987
-1116
-663
-463
-598
-561
-557
-558
-569
-589
-586
-543
-245
-516
-564
-569
-244
-165
-142
-150
-370
-276
58
56
14
18
70
92
35
-294
-289
54
-110
-61
-26
299
375
134
327
-1
-13
297
367
144
130
351
328
357
177
249
254
199
164
213
555
584
530
228
550
439
787
483
594
210
154
149
146
138
145
179
232
532
537
245
224
540
416
510
454
542
183
519
433
501
397
516
255
624
430
600
202
169
541
425
466
409
611
619
389
618
534
209
207
237
204
328
-88
99
-100
-14
-15
-107
83
124
-45
-36
113
-266
-305
-270
-268
-355
-222
-555
-562
-538
-522
-255
-243
-248
-540
-596
-389
-412
-397
-602
-543
-537
-624
-490
-773
-636
-181
-370
-516
-486
-825
-446
-529
-247
-639
-499
-444
-528
-169
-236
-636
-434
-605
-233
-201
-243
-529
-518
-520
-571
-603
-526
-349
56
67
-293
-131
-137
-353
-350
-132
-138
-316
41
50
-330
-236
-545
-177
3
84
-266
-194
-554
-215
-259
-81
-48
120
32
30
83
91
19
-325
-339
-267
72
91
46
3
15
65
91
66
22
10
44
90
111
112
127
-89
-72
123
10
-327
-331
-301
-315
-368
-368
2
-99
-48
106
-299
-348
-263
121
-81
121
6
-352
-381
-319
45
115
93
3
-328
-335
-277
73
-91
-47
-81
88
39
82
-106
105
-342
-524
-515
-331
76
43
-343
-367
30
-58
-21
-97
98
108
115
50
-285
-274
85
-95
121
25
-260
77
-73
-41
-87
127
-108
-45
-15
-57
-126
119
-52
340
186
201
165
156
205
517
513
179
348
325
353
362
311
-15
-38
-1
298
300
268
-2
284
318
296
-34
-98
-104
-79
-84
112
18
-333
-159
-217
-234
-203
-155
-139
-164
-188
-180
-171
-197
-241
-246
-185
-373
-379
-210
-553
-559
-234
-162
-141
-162
-187
-205
-243
-549
-519
-342
-103
-14
72
-213
-584
-134
-38
188
184
380
249
844
942
1369
1373
1378
1235
1630
1613
1370
1024
496
606
224
-3
-337
-423
-683
-1102
-935
-959
-923
-1122
-1097
-1098
-1053
-660
-479
-622
-627
-426
-415
-564
-174
-358
-356
-362
-327
-273
-265
-323
-148
-190
-168
-375
-332
-298
-265
36
100
-79
-24
-35
-126
30
25
-105
315
379
301
-68
-79
285
146
167
361
311
329
366
344
259
-67
-52
292
130
188
213
219
213
208
227
543
594
554
153
257
-38
299
134
136
340
348
205
591
624
557
240
522
605
407
418
429
457
457
393
581
607
469
801
468
558
226
575
478
797
475
404
424
471
416
242
342
340
211
562
250
351
-14
263
371
199
190
354
-28
122
82
112
-104
106
-308
-215
-245
-377
10
-269
-177
-566
-533
-135
-301
-341
-188
-244
-247
-531
-613
-427
-412
-592
-563
-386
-496
-502
-628
-221
-197
-565
-409
-638
-546
-553
-452
-860
-835
-402
-519
-539
-390
-419
-592
-530
-571
-639
-619
-531
-239
-574
-418
-407
-549
-199
-208
-517
-519
-210
-192
-256
-580
-536
-375
48
101
36
-321
-129
-143
-373
-306
25
34
-323
-213
-531
-187
-288
44
-270
-373
-143
-337
-268
6
-278
-302
-299
-278
-262
-268
-309
-377
-159
-367
8
111
127
86
65
74
61
-264
-334
-329
14
99
111
68
45
76
-104
-27
257
-46
98
-277
-322
-285
27
45
32
40
78
97
79
70
115
-86
-91
108
79
-127
-65
-96
39
-300
13
-110
-67
68
-367
-166
-288
-88
-4
-86
54
41
122
-93
68
-344
-145
-305
93
126
35
-294
40
-8
165
177
320
-32
-17
310
312
-34
-117
-80
325
208
244
208
189
205
195
377
299
295
364
162
134
312
275
311
366
382
357
322
284
-41
108
10
-270
46
119
126
62
-270
-317
-348
-145
-224
-551
-582
-585
-608
-400
-414
-590
-175
-278
32
-282
-380
-178
-177
-173
-205
-517
-560
-575
-580
-584
-561
-223
-369
-308
-321
-337
6
-43
187
580
625
445
647
903
1296
971
1060
722
1043
1127
1074
867
639
240
143
-37
-356
-482
-1040
-920
-912
-1114
-1105
-1149
-927
-1129
-709
-506
-625
-601
-395
-444
-443
-392
-579
-514
-197
-377
-277
86
-105
-122
48
-286
-290
26
74
51
-287
-349
-326
26
-121
-57
-50
-68
-74
-62
-52
-65
-98
-104
-47
291
323
270
-69
-84
266
139
192
145
337
345
178
521
533
229
198
224
519
250
177
356
333
128
240
387
777
824
482
566
175
177
537
618
590
228
137
128
208
603
485
803
488
607
253
524
602
632
589
542
559
617
384
614
597
629
421
433
410
384
618
567
228
153
374
373
373
357
332
306
281
-2
-35
-84
109
51
22
10
-282
-336
-338
18
-110
-107
-274
-224
-556
-239
-206
-586
-802
-655
-810
-586
-158
-136
-222
-566
-595
-569
-536
-532
-554
-590
-639
-435
-453
-394
-528
-183
-229
-389
-785
-803
-475
-414
-404
-397
-601
-517
-188
-135
-341
-307
-321
-374
-168
-187
-223
-576
-450
-777
-475
-620
-532
-219
-155
-328
-295
-380
-518
-553
-170
-261
19
-383
-548
-571
-192
-309
2
-282
-336
-381
-139
-360
-283
38
37
0
7
70
98
29
-326
-330
28
109
66
-290
-306
36
90
27
-354
-165
-146
-370
-368
-348
-285
25
11
-286
12
-115
-25
-96
-306
-250
-574
-245
-362
15
78
74
33
19
78
-63
306
373
380
315
-73
35
-300
-287
3
-270
-339
-131
-378
-365
-130
-139
-335
44
-117
-106
108
79
81
102
126
-115
100
-277
-153
-172
-296
125
-72
-125
105
-47
369
174
341
-37
-54
277
307
-43
82
82
-16
148
151
265
-79
283
230
566
183
-2
-40
340
212
229
179
162
172
383
282
-20
320
196
212
338
-29
276
161
197
294
83
45
-38
157
173
263
99
80
-95
-53
-116
38
-280
-309
-353
-141
-130
-306
18
11
-286
-274
42
42
-334
-221
-224
-328
66
23
-173
-585
-553
-384
8
0
-354
-151
-355
-262
25
-301
-147
-190
-146
-310
41
-103
320
552
816
1054
967
1307
1304
999
948
910
1105
742
872
790
509
450
249
-87
-181
-422
-801
-641
-767
-1139
-923
-1115
-716
-798
-390
-561
-543
-545
-534
-536
-590
-388
-564
-308
-45
-9
31
-209
-238
-350
-280
-157
-614
-402
-246
-301
55
65
85
-90
259
311
310
263
-80
80
29
61
-116
-63
-58
-45
277
366
141
342
273
296
175
582
626
549
197
183
242
536
233
157
146
215
526
245
205
527
451
849
821
422
612
452
831
797
596
158
143
235
516
173
349
146
568
462
769
509
790
856
895
860
783
469
464
473
408
251
344
300
163
601
438
398
570
539
547
526
205
171
219
546
530
153
279
-19
274
317
301
-27
-112
73
22
-276
-348
-219
-597
-590
-169
0
-278
-513
-489
-494
-548
-382
-173
-632
-792
-793
-437
-612
-606
-403
-462
-479
-439
-390
-394
-449
-473
-401
-535
-210
-233
-532
-514
-203
-182
-210
-231
-230
-255
-588
-390
-592
-193
-370
-200
-625
-440
-596
-190
-172
-575
-471
-428
-179
73
108
-341
-562
-614
-241
-375
-378
-219
-555
-562
-527
-221
-137
-269
80
58
-322
-159
-379
-262
50
-283
-169
-228
-135
28
116
84
3
-296
-290
-276
-262
44
123
-105
72
-298
-313
60
-71
-81
34
-365
-161
-146
-378
-342
-274
41
14
-344
-151
-347
19
31
-343
-211
-208
-343
9
-268
-349
-365
-275
106
-79
-85
124
74
18
-310
-373
-381
-309
72
-92
-100
68
-259
41
-66
323
331
-23
-110
-123
-115
72
-313
-379
-315
62
113
73
38
77
-99
-50
-34
-4
299
300
-47
78
1
7
52
77
51
-279
-365
-151
-338
82
-37
-45
78
-297
-289
71
-102
-109
84
30
7
13
41
81
97
63
9
7
73
-122
120
73
107
-9
130
160
356
328
133
209
202
373
294
276
309
378
241
394
496
466
599
515
548
634
396
551
133
-1
-53
-21
338
224
598
390
617
548
222
163
138
154
179
129
-45
-260
-362
-281
120
-113
-260
-185
-239
-175
-143
-245
-395
-417
-520
-332
-276
-358
-192
-181
-351
-294
-301
-326
-321
-319
-369
-180
-179
-334
48
78
-264
-384
-186
-170
-146
-171
-217
-203
-328
-88
192
430
855
722
1085
933
1284
1380
1238
1610
1412
1628
1268
1200
1196
1397
1141
406
112
-580
-845
-754
-902
-1284
-1320
-975
-1058
-877
-478
-627
-535
-197
-153
-174
-251
-573
-560
-219
-140
-136
-172
-151
-313
13
-285
-141
-188
-359
16
27
-330
-156
-358
42
-125
103
54
93
-48
277
-39
87
17
61
-95
-21
268
302
358
158
186
193
197
186
147
348
316
332
377
163
197
242
563
636
431
432
635
547
223
237
586
430
461
434
434
488
777
464
613
570
637
465
454
618
571
392
800
647
641
824
502
462
417
608
564
592
427
499
475
385
581
604
401
388
560
236
238
515
212
373
342
182
576
606
222
291
-80
-94
-79
-94
114
77
90
-122
-99
123
49
-259
16
75
95
38
-311
-374
-138
-164
-224
-544
-569
-552
-533
-537
-552
-556
-544
-514
-203
-133
-351
-159
-571
-461
-485
-637
-518
-224
-519
-536
-216
-377
-344
-137
-193
-195
-171
-209
-592
-458
-461
-590
-189
-146
-195
-232
-184
-350
-314
-353
-380
-310
88
-71
-105
34
-291
-264
62
81
29
-291
-317
-328
-372
-168
-157
-308
73
114
60
-273
-300
-283
-283
-328
-139
-191
-223
-234
-213
-159
-354
-318
-302
-262
71
-126
123
63
16
17
29
10
-269
5
44
40
-288
-360
-346
13
101
92
10
-321
-335
-315
-294
-293
-306
-324
-328
-292
37
90
71
-263
-299
21
117
120
-267
-175
-222
-376
27
93
48
-292
-329
-304
-275
-306
-142
-217
-190
-338
-266
-316
-163
-182
-326
66
109
83
94
-104
-102
59
-269
58
-65
-86
-301
-233
-169
62
-99
-273
-241
-234
-260
-83
101
-371
-219
-369
71
-103
89
-278
-336
-333
-321
-338
-363
-346
-258
101
120
31
-327
-319
56
-96
-115
49
18
89
-94
121
0
-308
50
-40
275
-92
-275
-367
-296
-122
295
374
381
355
329
301
264
-36
-65
-64
-43
-37
-58
-66
-6
141
575
426
409
577
524
559
628
621
244
346
293
128
516
544
185
315
292
374
190
158
301
-56
-106
120
79
46
33
9
-314
-384
-138
-346
-312
-339
-372
-328
31
82
22
-347
-168
-192
-195
-196
-182
-170
-209
-544
-581
-517
-157
-134
-203
-256
-205
-370
-364
-195
-248
-163
-263
68
0
-374
-143
-276
-61
164
625
829
1053
1005
1395
1200
1277
1431
1855
1873
1417
1392
965
915
1057
471
262
-382
-601
-499
-709
-943
-1323
-1309
-1001
-991
-963
-1072
-826
-623
-572
-635
-420
-620
-247
-146
-356
-366
-162
-236
-551
-545
-202
-336
1
-268
-355
-176
-168
-330
34
77
48
-259
-282
-268
23
82
-87
-6
278
-12
-56
-55
-5
306
338
364
141
148
349
294
327
185
515
183
273
-54
318
239
527
379
-36
-25
158
604
403
581
216
160
165
203
245
528
538
541
572
390
477
778
502
448
413
416
430
410
608
553
536
585
421
483
462
626
534
251
537
570
566
539
529
532
515
207
152
136
160
178
154
344
270
-38
-51
-30
-3
-2
-45
-121
57
11
-268
-300
-349
-383
-358
-286
12
-294
-148
-226
-223
-190
-202
-251
-524
-231
-233
-624
-830
-668
-803
-590
-250
-633
-822
-880
-509
-594
-243
-248
-561
-628
-435
-466
-441
-638
-608
-624
-636
-590
-252
-196
-183
-172
-134
-371
-171
-533
-592
-561
-514
-528
-589
-593
-220
-322
-265
-338
-180
-177
-323
29
18
-342
-172
-173
-134
-135
-186
-223
-184
-350
-288
-299
-358
-153
-165
-137
-345
-306
-305
-357
-178
-220
-190
-380
-337
-348
-140
-171
-152
-355
-308
-301
-335
-358
-323
21
88
68
-271
-343
-360
-344
-334
-321
-279
18
-263
-348
-144
-335
58
-123
71
-306
-354
-285
71
90
15
-322
-307
52
-120
100
-302
-170
-148
-257
121
97
-294
-149
-152
-349
-318
-334
-346
-311
13
68
75
28
-302
-336
-286
72
118
26
-155
-532
-238
-343
50
99
90
77
76
75
68
64
70
76
76
70
53
17
-272
-271
35
102
-123
106
54
26
32
61
97
125
123
80
19
-259
35
91
104
82
96
-69
308
369
338
275
-3
281
308
292
-19
-79
-107
-78
265
376
213
520
544
553
537
230
170
134
377
357
327
338
162
235
207
355
316
191
391
456
567
358
287
372
189
361
-91
3
-301
-297
-335
-165
-226
-202
-374
-315
-321
-355
-352
-304
-267
-302
-131
-194
-178
-367
-325
-347
-155
-209
-218
-181
-377
-336
-352
-173
-513
-544
-515
-221
-208
-200
-155
-343
-300
-292
3
-104
148
407
852
729
1105
953
1018
1324
1184
1635
1535
1477
1187
1094
887
827
453
352
-199
-715
-1013
-1373
-1181
-1553
-1649
-1602
-1380
-1102
-663
-871
-861
-776
-627
-522
-544
-625
-631
-521
-380
-309
-305
-282
57
-119
-102
124
115
-117
-116
94
59
101
-59
-9
-62
90
34
63
-125
-79
-69
-83
-100
-109
-101
-60
263
329
371
130
374
349
324
318
348
147
200
229
220
189
178
234
608
452
451
614
525
512
548
539
203
129
152
527
401
474
494
496
493
481
475
504
813
835
791
455
404
417
467
502
491
437
632
603
618
389
391
386
436
828
714
722
800
551
150
166
235
204
306
-107
112
-63
289
319
305
312
355
380
331
-35
126
97
117
-123
108
47
-285
-353
-138
-141
-378
-375
-155
-210
-236
-225
-231
-551
-387
-423
-626
-556
-564
-398
-476
-456
-611
-254
-215
-227
-516
-567
-387
-457
-473
-426
-630
-631
-412
-427
-407
-393
-413
-419
-614
-524
-246
-581
-415
-401
-541
-193
-213
-543
-546
-187
-335
-339
-179
-245
-206
-372
-341
-149
-236
-513
-220
-207
-519
-583
-564
-194
-327
-282
-311
-341
-322
-272
14
9
-263
-260
25
54
60
43
36
70
-127
-101
105
13
-288
10
85
108
59
-264
-295
-296
-308
-341
-369
-360
-309
19
78
84
28
-309
-353
-344
-322
-334
-368
-383
-363
-331
-310
-281
36
111
-109
112
22
-333
-149
-164
-364
-261
87
-124
-110
-90
-59
-50
-79
-111
-115
-122
62
-334
-196
-203
-357
21
80
84
93
-125
-96
-115
90
57
59
68
45
1
-273
10
46
48
33
62
-110
-52
-102
22
-320
-259
-99
268
-20
122
59
103
-75
-63
-110
-125
-50
317
368
336
295
314
373
151
141
372
370
128
141
177
255
596
632
614
604
634
391
569
188
148
514
417
467
625
234
170
159
349
-69
7
-353
-375
-129
-178
-239
-239
-138
24
-98
-69
106
-280
-377
-157
-167
-187
-211
-199
-141
-332
-298
-280
20
90
120
55
-340
-205
-244
-208
-159
-137
-132
-377
-340
-268
88
-58
288
351
175
603
887
946
1407
1181
1371
1358
1207
1594
1592
1390
1073
784
586
175
-32
-319
-386
-670
-1133
-994
-1294
-1287
-1000
-952
-1134
-764
-868
-458
-606
-565
-579
-598
-574
-236
-137
-335
-344
-142
-196
-223
-228
-215
-175
-360
-295
-278
-308
-318
10
-112
-21
-34
-115
92
124
-60
-3
297
361
172
175
336
-54
-128
-105
-37
264
269
275
309
362
152
173
181
204
512
558
537
169
288
-14
336
233
554
218
353
337
199
589
611
532
224
549
431
503
451
616
592
384
428
425
421
470
794
795
452
613
597
393
425
385
562
249
233
235
242
527
589
399
415
618
530
209
203
513
572
564
205
303
-84
122
-126
-126
79
1
-304
-312
-306
-316
-344
-371
-133
-155
-189
-215
-214
-196
-196
-226
-252
-233
-173
-134
-177
-561
-443
-499
-452
-617
-567
-575
-587
-542
-199
-156
-203
-552
-605
-598
-585
-625
-462
-810
-844
-788
-397
-246
-180
-253
-393
-450
-620
-239
-233
-638
-812
-867
-800
-473
-466
-494
-498
-455
-639
-555
-218
-183
-215
-517
-223
-336
61
75
-292
-154
-188
-163
-160
-185
-176
-368
-314
-334
-143
-155
-330
20
12
-361
-224
-245
-178
-368
-362
-130
-354
7
126
-73
-98
92
45
46
90
-102
-58
-70
120
34
-284
-319
-360
-168
-230
-240
-190
-383
-352
-339
-299
46
-113
-80
126
35
-304
-360
-153
-196
-204
-146
-300
31
36
2
-265
12
19
-276
-330
-337
-295
-269
-307
-369
-361
0
123
-93
103
19
-275
-264
12
14
-257
-272
-288
-301
-289
4
44
68
77
87
82
17
-360
-198
-185
-345
-267
-267
-287
-257
69
110
111
-108
257
354
324
-72
93
-102
295
353
287
-46
-22
338
153
383
317
303
358
173
211
210
195
181
148
324
-49
124
-111
267
134
157
355
336
175
556
562
150
-49
106
101
75
-305
-208
-520
-167
2
100
60
-317
-150
-149
-354
-341
-153
-246
-544
-532
-521
-554
-599
-578
-230
-152
-177
-533
-596
-549
-186
-381
-147
-195
-203
-173
-161
-182
-200
-167
-318
107
327
569
780
677
1070
993
1199
1586
1574
1212
1373
1318
972
1048
845
457
621
172
65
-609
-891
-722
-738
-1075
-961
-1302
-989
-1092
-680
-820
-483
-408
-599
-568
-571
-584
-574
-522
-197
-152
-139
-375
-312
28
69
30
-299
-333
-322
-311
-320
-302
35
121
119
27
-282
66
-15
321
-23
89
40
87
101
23
-302
22
-61
306
269
-62
-22
131
240
199
342
301
351
141
375
356
187
614
491
775
480
437
632
518
151
129
189
224
163
334
345
202
574
389
463
819
843
429
165
275
373
581
400
533
383
139
563
468
499
432
384
417
489
774
469
630
551
531
548
548
250
189
151
129
338
-10
-98
-117
-59
270
274
-75
52
-273
19
99
109
-262
-178
-534
-249
-156
-362
-379
-153
-147
-378
-375
-130
-372
-330
-314
-376
-233
-576
-597
-594
-633
-466
-802
-807
-481
-390
-599
-619
-413
-435
-402
-595
-546
-546
-593
-403
-444
-432
-389
-629
-412
-452
-411
-560
-253
-584
-434
-385
-143
103
-121
-299
-221
-231
-134
-348
-159
-248
-528
-247
-218
-184
-382
-333
-349
-145
-145
-323
-262
-322
-195
-245
-158
-295
-270
-325
-343
-278
37
-263
-379
-181
-361
37
109
61
-295
-333
-269
76
97
40
-282
-290
2
11
-300
-131
-175
-135
-301
25
21
-312
-138
-154
-344
9
65
72
71
82
76
16
-338
-143
-375
-299
0
-299
-142
-215
-202
-355
29
95
74
5
-306
-318
-309
-301
-279
15
24
-297
-158
-234
-202
-358
-290
-300
-325
-279
87
-83
-102
49
-300
-303
13
38
-290
-163
-226
-144
22
124
79
-300
-343
5
116
87
-346
-250
-240
-346
26
5
-327
-317
55
-104
-125
51
40
125
-61
-112
7
-332
-286
91
-76
-44
-9
323
137
136
343
347
196
574
571
148
-51
-109
261
161
218
162
345
329
349
351
338
354
160
215
219
194
191
222
247
229
182
141
355
275
-112
18
-308
-324
-338
-366
-370
-315
4
-262
-342
-132
-328
29
30
-359
-244
-513
-169
-383
-199
-536
-235
-349
-270
-348
-240
-557
-232
-142
-136
-194
-225
-202
-171
-158
-139
-337
-257
64
117
-43
383
596
815
1038
996
1388
1397
1348
1398
1604
1794
1472
1397
1076
757
1117
1033
568
-322
-497
-878
-662
-1096
-1360
-1219
-1366
-952
-923
-958
-1122
-860
-594
-237
-534
-558
-235
-161
-181
-238
-207
-336
-263
-375
-606
-487
-401
-184
-286
-276
-322
-306
43
119
107
55
56
-110
259
299
-6
-69
-64
-6
276
-30
-102
-106
-48
-38
103
-320
-368
31
-5
371
347
299
360
521
406
433
626
556
255
217
178
157
166
189
208
241
562
630
639
585
539
565
392
442
414
621
615
639
626
566
539
598
429
432
593
246
249
568
590
552
531
579
637
609
241
158
197
565
619
543
382
-3
-36
-6
269
-10
-49
-58
-23
280
296
257
-86
78
34
54
95
77
-286
-167
-234
-194
-373
-345
-135
-200
-240
-520
-548
-570
-565
-551
-568
-621
-403
-391
-618
-625
-404
-394
-555
-193
-183
-530
-606
-558
-165
-342
-157
-577
-440
-445
-386
-614
-395
-459
-490
-457
-620
-237
-132
-361
-169
-515
-545
-238
-171
-165
-231
-566
-591
-547
-211
-138
-360
-363
-378
-139
-171
-236
-563
-566
-201
-305
21
-305
-168
-195
-346
42
79
8
-323
-320
-264
18
-269
-306
-285
45
100
85
21
-300
-334
-332
-285
52
125
-123
67
3
14
84
123
79
3
-266
56
102
46
-339
-173
-143
-285
60
58
-268
-327
-332
-301
-270
1
12
19
-260
-320
-369
-339
19
108
109
39
-272
-259
35
35
2
8
89
-74
-50
-106
84
56
43
-260
-357
-200
-240
-232
-217
-185
-334
117
298
326
-65
58
96
-3
281
29
-620
-835
-464
-188
-303
-145
-565
-572
-133
77
-99
104
43
54
114
-106
-115
127
-108
-60
-15
285
330
344
298
-24
-17
373
538
561
130
-87
119
270
209
546
250
200
203
218
186
369
318
330
142
228
539
518
168
314
277
353
212
226
320
41
-195
-519
-175
-304
6
-296
-383
-170
-143
-336
-289
-287
-334
-158
-236
-536
-536
-521
-533
-581
-622
-610
-555
-516
-523
-539
-250
-181
-151
-206
-549
-575
-525
-222
-248
-560
-543
-161
17
-76
326
217
612
482
886
1093
1315
1193
1210
1218
1576
1462
1503
1658
1269
1181
1295
684
135
-133
-448
-874
-1082
-1366
-1567
-1548
-1369
-958
-1148
-1071
-885
-403
-566
-416
-846
-654
-821
-445
-418
-472
-497
-414
-521
-153
-130
-150
-144
-355
-307
-282
-266
30
75
66
-284
-152
-181
-322
109
-72
96
-296
-321
42
-89
-50
-68
-49
275
314
266
-70
-76
278
139
169
363
299
317
155
236
220
379
316
382
529
605
525
128
362
513
444
495
395
539
525
571
576
514
198
192
217
211
174
165
217
551
615
426
785
884
874
458
252
178
548
438
403
168
-64
-91
343
535
581
240
147
376
377
334
-2
-55
-42
263
291
276
-11
-29
-35
-74
88
-271
-331
-339
-346
-146
-223
-249
-198
-379
-349
-368
-141
-167
-213
-537
-605
-387
-399
-402
-406
-411
-429
-463
-483
-444
-605
-522
-525
-595
-391
-631
-584
-576
-627
-430
-444
-406
-611
-570
-537
-254
-240
-240
-233
-213
-193
-207
-526
-607
-637
-575
-197
-358
-352
-147
-176
-148
-373
-150
-220
-234
-155
-313
-305
-370
-131
-285
123
-77
93
-294
-357
-359
-380
-201
-527
-255
-165
-343
-342
-132
-154
-382
-328
-275
45
-120
-52
-87
28
-353
-314
-114
313
260
7
-205
-183
8
127
52
-357
-137
-276
88
35
-135
-247
-199
-312
40
37
7
36
124
-61
-66
121
57
50
86
107
76
3
-318
-330
-299
-270
-281
-322
-362
-382
-133
-378
-328
28
-123
-69
-74
-95
-96
-93
-114
107
86
73
39
-265
-271
60
-103
-89
97
44
96
-37
304
298
-4
-17
280
347
155
183
133
-3
107
73
-66
342
383
299
-39
-4
370
189
161
340
303
326
375
150
147
369
327
329
144
232
236
374
-32
-100
-94
125
-282
-206
-529
-219
-177
-245
-607
-608
-216
-322
-280
-335
-131
-134
-383
-155
-201
-215
-191
-172
-184
-217
-246
-525
-543
-528
-210
-138
-381
-193
-540
-559
-224
-361
-267
62
-94
302
179
545
446
727
1323
1274
1227
1298
979
1400
1607
1581
1022
672
768
508
399
256
-591
-1101
-1337
-1339
-1299
-1355
-1230
-1564
-1211
-944
-879
-639
-535
-526
-532
-254
-212
-176
-158
-148
-140
-132
-134
-146
-158
-151
-361
-290
36
82
108
-128
-111
-109
117
72
49
67
110
-113
-109
-117
-99
-47
280
341
365
342
287
-29
-64
-64
-51
-50
-53
-33
261
273
-20
-60
-37
313
150
171
150
161
221
522
255
246
570
427
465
628
247
223
561
634
630
602
385
482
801
782
478
469
493
493
442
387
630
637
619
576
563
608
420
446
397
564
242
234
255
248
187
364
331
364
158
152
342
283
289
326
315
-23
-128
55
7
-308
-366
-361
-276
62
23
-147
-572
-589
-186
-282
-264
-144
-564
-638
-613
-557
-531
-535
-551
-582
-385
-456
-477
-425
-594
-541
-546
-581
-601
-602
-608
-629
-403
-423
-436
-451
-450
-413
-612
-592
-636
-436
-420
-573
-208
-186
-246
-558
-555
-531
-549
-597
-608
-562
-531
-577
-396
-404
-570
-201
-146
-144
-143
-137
-154
-194
-219
-193
-146
-375
-370
-368
-382
-177
-220
-167
-270
97
32
-156
-515
-169
-261
39
-316
-145
-357
-264
-257
-335
-374
-314
18
11
-300
-299
14
28
-304
-134
-380
-296
-264
-345
-199
-220
-133
-285
9
-259
11
92
-58
-18
-94
24
-318
-282
87
-109
84
-291
-341
-295
21
-263
-356
-151
-362
-278
6
-304
-358
-322
57
-76
-39
-96
70
13
15
55
112
-79
-22
264
264
257
-3
-28
-102
62
29
92
-72
-54
-111
127
-25
146
245
211
134
363
371
341
264
-43
-4
333
366
336
294
270
-13
-55
-70
-35
260
-38
91
-287
-342
-357
-140
-198
-212
-164
-367
-354
-350
-303
22
37
-278
-337
-340
-336
-151
-531
-588
-251
-376
-340
-162
-221
-164
-305
-278
-132
-524
-552
-209
-366
-345
-137
-166
-349
103
361
576
435
494
843
725
1069
1035
704
756
974
1160
1331
720
602
182
181
341
-270
-791
-980
-1197
-1217
-1164
-1361
-1284
-908
-751
-852
-474
-385
-568
-246
-198
-184
-201
-218
-204
-158
-371
-368
-153
-195
-194
-139
-320
-274
-270
0
75
-48
321
344
276
-71
-128
111
117
-110
-47
275
287
-30
-94
-60
323
180
184
345
263
286
382
188
154
323
289
353
212
549
546
221
131
320
295
318
370
152
145
359
337
375
198
512
254
230
233
516
518
215
178
234
626
493
768
426
586
542
538
540
532
514
223
164
364
360
174
536
610
614
570
548
589
402
425
619
515
211
513
559
208
-40
-287
-357
26
-69
-22
-75
-113
-80
-34
-55
-127
71
49
13
-340
-206
-521
-230
-158
-383
-153
-181
-158
-367
-371
-204
-590
-422
-420
-605
-517
-190
-160
-181
-230
-250
-206
-146
-159
-542
-458
-822
-824
-507
-450
-413
-632
-592
-552
-514
-222
-207
-232
-536
-561
-538
-246
-237
-515
-528
-255
-226
-210
-189
-142
-349
-334
-353
-362
-341
-327
-366
-192
-520
-556
-575
-599
-598
-528
-141
-278
33
33
18
0
-295
-348
-369
-331
-275
-281
-369
-202
-190
-332
40
63
-259
-331
-352
-347
-358
-355
-288
86
-91
-126
20
-296
8
86
64
-336
-219
-211
-317
72
47
-370
-244
-215
-312
83
102
34
-286
-298
-281
-262
28
91
-113
126
42
-284
-260
101
-64
-55
-110
97
97
127
-94
-64
-54
-82
117
91
-89
313
137
308
125
33
-116
356
232
179
284
-51
278
192
590
614
515
371
266
-26
-39
-93
71
9
17
50
30
-305
-371
-359
-295
-263
-292
-338
-354
-344
-344
-366
-381
-360
-318
-294
-312
-361
-157
-193
-205
-188
-132
-303
22
20
-309
-376
-357
-262
69
48
-292
-343
-315
17
117
261
214
438
836
882
666
1024
1134
1135
762
679
734
1087
765
487
188
324
335
-25
-384
-846
-1137
-921
-1130
-916
-1013
-998
-1059
-807
-406
-639
-621
-524
-139
-341
-382
-178
-151
-318
-259
-288
-355
-369
-293
65
108
87
54
59
87
103
123
-74
265
296
-26
-127
105
-69
288
311
256
-47
-23
290
302
-4
-53
-28
318
136
378
301
-8
283
370
162
139
363
149
517
595
566
210
156
200
541
574
531
216
193
201
222
518
591
415
457
450
421
394
614
566
547
584
632
611
526
241
619
816
652
816
404
615
440
494
398
211
365
188
620
473
446
607
556
579
608
571
219
128
337
307
-8
-93
101
103
-105
-73
-100
78
-258
-273
51
-109
-73
123
20
-293
-286
-288
-380
-549
-440
-475
-396
-534
-219
-253
-572
-559
-176
-292
-285
-182
-608
-396
-606
-631
-782
-658
-853
-629
-195
-201
-572
-625
-561
-216
-202
-516
-578
-614
-391
-427
-437
-396
-573
-226
-146
-356
-365
-150
-163
-351
17
55
-310
-239
-603
-571
-234
-232
-555
-551
-143
63
-107
69
-304
-338
-318
-346
-184
-241
-183
-322
-265
-290
-301
36
-89
-18
-55
99
-259
-332
-370
-363
-308
20
52
13
-318
-362
-349
-314
-306
-332
-345
-308
6
32
5
-291
-284
28
68
32
-317
-134
-371
-274
70
82
24
-286
-258
101
-70
-85
66
-273
27
-92
256
-75
-293
-240
-548
-188
-304
6
-293
-354
-339
8
101
-124
103
79
97
-121
-123
83
36
42
98
-104
-98
124
81
55
57
75
94
113
-113
-54
295
382
162
145
137
198
555
599
533
168
370
382
368
-2
103
33
61
86
13
-370
-179
-142
-337
-324
-325
-279
32
-264
-164
-569
-578
-214
-142
-201
-572
-612
-559
-255
-536
-580
-548
-196
-144
-203
-563
-587
-248
-141
-362
-145
-160
-360
-292
-303
-145
-219
-162
12
-60
330
195
627
850
1030
1092
1059
766
1038
1084
1095
1037
680
845
794
476
570
-13
-210
-656
-962
-1365
-1156
-1163
-1394
-1320
-943
-1037
-847
-631
-190
-365
-139
-205
-235
-220
-207
-217
-209
-152
-340
-327
-380
-184
-182
-364
-262
77
127
-95
-58
-17
266
-12
-103
33
-284
34
-49
128
202
157
336
327
135
195
175
341
256
-32
-21
261
302
381
233
566
571
531
246
243
236
195
142
379
156
204
218
200
196
248
604
438
460
412
589
524
239
249
563
396
450
413
577
534
600
459
768
477
434
444
470
441
621
591
625
398
607
532
543
639
424
565
140
135
590
777
462
190
-12
311
523
570
346
72
20
-64
326
-24
6
-374
-313
62
90
22
-314
-370
-172
-225
-212
-380
-337
-185
-394
-801
-777
-638
-523
-244
-535
-554
-527
-220
-189
-213
-559
-415
-483
-486
-452
-434
-449
-456
-428
-634
-580
-515
-175
-357
-359
-206
-603
-414
-625
-542
-532
-624
-488
-778
-439
-569
-224
-184
-158
-377
-353
-366
-131
-382
-371
-164
-534
-614
-558
-146
-307
-383
-556
-633
-523
-334
15
-299
-155
-199
-144
-295
76
-70
-14
-69
16
-175
-518
-210
-352
-278
-280
-328
-376
-369
-278
121
-35
-66
59
-295
-272
59
54
-303
-370
-299
94
-108
74
-281
-299
7
46
47
40
33
4
-282
6
105
-84
124
36
70
271
204
177
-59
-289
-338
12
73
-267
-181
-575
-613
-560
-195
-324
32
65
43
25
44
67
37
-307
-380
-376
-314
-264
-258
-257
56
-103
-39
-53
-104
-108
-50
-1
-41
98
-257
-272
35
77
62
18
10
60
-116
-49
-2
313
374
131
312
-68
120
-79
296
345
284
-38
278
206
618
626
526
209
521
628
405
582
203
133
136
150
376
303
-29
-94
80
-287
-380
-381
-263
-117
-69
96
-313
-134
-341
10
46
1
-329
-384
-157
-188
-224
-219
-155
-322
-289
-352
-203
-254
-202
-345
1
23
-263
-303
-332
-349
-343
-303
4
19
-273
-311
-284
77
-36
360
247
423
645
1119
1009
1300
1283
1322
1201
1593
1593
1180
995
915
1142
725
593
105
-529
-484
-650
-1139
-1380
-1236
-1176
-1017
-1095
-643
-415
-207
-357
-368
-161
-166
-376
-331
-330
-372
-165
-181
-151
-346
-283
17
63
-124
-59
-44
-87
114
95
112
-124
-111
-90
-65
-58
-66
-42
292
376
131
319
262
282
325
314
264
281
162
581
629
532
142
356
179
551
604
559
208
154
184
519
573
561
532
542
574
556
220
170
247
415
792
793
494
778
867
645
812
422
631
452
798
782
417
596
638
498
812
495
635
573
594
622
583
246
204
235
530
517
221
225
538
549
178
266
-56
289
157
156
276
-105
-111
-54
-56
123
74
115
-95
105
-279
-330
32
-68
-38
81
-347
-148
-342
-285
-332
-188
-517
-244
-182
-157
-205
-549
-620
-395
-631
-572
-514
-253
-576
-412
-445
-633
-526
-221
-513
-575
-594
-572
-569
-591
-576
-228
-370
-339
-165
-536
-568
-235
-384
-332
-341
-349
-329
-329
-139
-242
-556
-535
-245
-520
-565
-544
-169
-287
35
39
65
-120
-79
116
-261
-343
-344
-322
-336
-367
-358
-314
-300
-343
-154
-185
-161
-353
-274
52
73
32
-262
40
-100
-44
104
-352
-207
-147
-302
-325
-217
-570
-221
0
-93
-95
57
-263
34
-119
-41
-46
121
11
-295
-258
68
85
22
-298
-292
27
68
43
-260
-258
50
87
64
7
-288
-286
-261
17
36
72
120
-101
-102
120
69
14
-287
-307
-302
-286
-281
-296
-321
-328
-317
-282
33
102
-114
117
36
-284
-266
75
-112
-111
112
-127
-43
275
-32
82
-283
-259
109
-93
71
-349
-171
-355
37
97
51
-258
38
-120
-95
44
-368
-129
41
261
339
-21
104
126
308
234
526
165
304
-1
-1
262
278
326
380
376
315
291
371
242
563
531
220
221
516
527
244
229
241
213
348
-49
-68
333
247
245
281
9
-351
25
-53
-27
55
-174
-534
-224
-369
-305
-298
-309
-309
-315
-331
-336
-330
-334
-353
-363
-345
-329
-361
-181
-235
-221
-170
-153
-185
-209
-187
-149
-149
-182
-184
-129
-325
-329
-383
-137
-302
112
257
376
524
484
723
1150
962
975
1017
1396
1585
1518
1868
1817
1652
1201
1023
1068
468
-17
-523
-652
-1143
-1303
-1191
-1276
-1223
-1294
-1069
-877
-445
-252
-349
-312
-152
-520
-528
-190
-151
-247
-416
-773
-471
-569
-129
19
112
-111
-121
-123
-99
-102
66
-333
-160
-365
0
51
32
59
-33
187
551
213
292
-86
-88
-13
320
355
343
316
329
148
229
230
141
335
152
563
618
220
270
-28
146
613
405
552
212
515
610
612
526
238
583
436
433
580
250
569
447
505
449
630
635
445
473
416
581
525
522
538
553
581
623
391
615
543
238
512
564
583
550
512
252
513
221
173
201
575
407
577
322
82
25
-125
-28
-64
71
-271
-269
33
83
-116
-56
-48
119
-288
-164
-232
-518
-548
-571
-564
-544
-544
-532
-194
-314
19
-311
-220
-577
-542
-217
-255
-398
-508
-485
-615
-240
-178
-145
-372
-363
-134
-171
-182
-174
-192
-237
-522
-247
-212
-209
-230
-222
-173
-134
-145
-185
-205
-195
-188
-199
-188
-373
-259
84
91
33
-283
-301
-278
-265
-311
-151
-232
-240
-180
-131
-138
-144
-311
117
-13
-66
-274
-205
-222
-327
108
-82
104
-268
-309
34
-62
303
271
124
-263
-279
44
89
62
25
48
113
-110
99
30
19
70
112
106
78
75
97
93
48
4
-265
-264
-279
-295
-258
94
-80
-84
92
32
52
108
112
39
-306
-340
-321
-291
-262
54
-101
-14
-21
127
11
-263
79
-89
-93
84
29
58
124
-110
108
76
102
-99
-84
-111
-111
-46
287
296
-20
-73
-66
-23
-18
-82
78
17
21
69
124
-97
-91
-98
-99
-92
-95
-116
124
-111
-71
-72
117
32
13
91
-60
-14
-50
-113
113
125
-105
-79
-42
260
280
-1
-51
-74
-43
281
349
139
165
174
164
137
366
359
380
174
243
555
547
214
148
198
385
850
668
819
399
583
636
448
418
574
521
576
403
395
545
204
223
554
578
523
202
174
132
277
-126
44
45
46
-276
-363
-380
-322
-272
-265
14
109
-31
-16
114
-303
-367
-323
-273
-313
-171
-516
-244
-131
-271
6
-327
-138
-354
29
107
55
-316
-356
-275
102
-91
-82
-52
281
382
252
438
701
962
1353
1334
1021
1328
1271
1502
1862
1530
1640
1577
1634
1647
1390
818
-121
-630
-852
-683
-1100
-1368
-1567
-1263
-976
-873
-598
-180
-324
22
48
-288
-165
-219
-372
50
112
13
-375
-373
21
-128
85
-285
-301
85
-9
333
367
166
238
512
193
383
131
165
140
303
-18
287
164
535
577
584
613
398
404
612
557
560
638
469
479
388
525
512
404
871
715
885
449
605
407
785
821
491
420
465
852
690
678
874
869
684
759
765
717
679
672
667
641
875
647
717
767
754
702
681
725
1035
1029
713
670
692
736
713
859
494
476
794
838
795
447
395
423
495
803
819
798
483
384
523
179
135
366
330
290
271
292
339
381
137
369
322
291
292
289
-39
58
-363
-164
-344
31
81
53
39
101
-65
-47
127
12
-301
-292
-266
-273
-318
-371
-151
-156
-381
-312
20
64
43
-277
-316
-283
55
116
113
85
93
-124
-123
68
10
52
-88
-34
-124
-269
-315
31
-117
-96
121
118
-76
-36
-72
-117
-77
301
130
345
-33
-126
124
-80
-36
-38
-70
-83
-44
296
364
359
290
-24
-7
321
375
360
283
-66
120
90
116
-68
-7
-3
-25
268
134
245
235
369
258
-2
309
299
-52
116
120
-62
269
323
382
184
178
357
293
317
138
158
337
-2
264
334
348
278
-56
-48
290
356
351
312
292
297
310
329
365
153
162
362
270
-32
287
174
546
534
135
-36
-111
-68
-2
-14
-96
119
-49
370
206
151
279
-28
306
154
146
298
-12
329
197
191
301
-56
297
240
558
140
-59
-71
355
249
250
188
193
241
199
295
-86
-43
371
207
146
296
283
381
249
589
387
442
472
434
595
515
514
588
429
493
486
412
589
587
441
840
888
792
394
604
418
489
446
575
250
578
457
775
475
417
427
477
475
400
574
535
254
182
330
-3
-13
-5
-38
-102
125
-102
-66
-74
-122
92
88
112
-110
-80
-80
-126
63
45
98
-92
-102
66
-260
23
96
96
1
-336
-297
77
-115
88
-267
-292
42
-87
300
194
639
841
1026
948
1393
1553
1634
1408
1470
1835
1878
1476
1189
951
1114
1035
771
302
-192
-806
-1048
-1017
-1225
-1557
-1197
-1023
-910
-1100
-707
-457
-207
-333
-321
-329
-305
-291
-332
-129
-363
-262
88
98
44
12
49
-127
-63
-46
-44
-11
313
368
370
328
301
333
149
202
205
199
230
534
533
203
375
365
173
235
237
201
183
203
246
571
418
775
780
387
191
358
175
555
589
521
225
563
457
805
811
826
665
1032
1029
895
493
448
480
477
403
601
400
810
698
752
725
690
699
746
1037
748
880
475
403
456
815
845
510
417
413
475
493
412
559
524
570
611
586
527
248
535
565
546
240
191
148
355
298
260
-10
-25
-62
-87
-48
289
305
-76
-285
-159
-131
-290
-277
-383
-228
-214
-383
-351
-154
-195
-376
-257
-268
-207
-428
-476
-589
-179
-175
-535
-572
-214
-340
-337
-221
-627
-409
-606
-563
-588
-633
-624
-557
-236
-223
-241
-240
-211
-200
-251
-597
-393
-609
-246
-157
-144
-177
-193
-180
-176
-204
-221
-175
-359
-355
-198
-566
-552
-147
-270
-291
-176
-523
-210
-338
-290
-372
-224
-223
-376
-278
-265
-314
-348
-330
-294
-279
-291
-327
-380
-184
-226
-226
-208
-212
-227
-209
-130
-292
-258
-302
-368
-378
-319
20
74
76
23
-320
-141
-161
-137
-382
-156
-181
-148
-322
-279
-326
-130
-347
41
124
39
-165
-570
-565
-214
-152
-158
-160
-359
-281
5
-278
-320
-339
-354
-135
-180
-203
-194
-175
-161
-148
-381
-337
-260
115
-24
-11
103
-355
-197
-381
-267
-301
-513
-465
-464
-254
-274
87
68
33
43
62
50
17
9
23
20
-263
-266
57
-97
-60
-124
38
28
126
-18
-1
-80
115
-81
326
191
194
366
308
330
128
383
314
-9
-2
337
162
163
334
-34
-95
-82
-41
-38
-102
79
60
85
55
-351
-531
-576
-188
-293
-320
-529
-452
-411
-196
-293
-341
-254
-617
-583
-247
-229
-529
-552
-252
-188
-174
-229
-568
-637
-424
-446
-439
-387
-555
-221
-197
-224
-246
-211
-376
-288
6
31
122
306
520
447
869
1064
1013
1386
1369
1312
1342
1190
1194
982
658
414
557
140
15
-780
-979
-1180
-1186
-1165
-1204
-1241
-1189
-1286
-1074
-881
-496
-449
-467
-507
-783
-512
-471
-412
-592
-246
-172
-143
-148
-164
-162
-134
-349
-318
-316
-330
-320
-263
74
104
49
-286
-285
81
-44
-7
-75
107
116
-50
291
318
307
295
276
-23
-69
-72
-11
318
340
297
-23
-56
-46
-21
263
304
367
179
221
230
228
239
515
526
518
246
238
221
176
377
380
229
629
427
594
222
237
390
510
448
527
185
542
439
450
560
167
184
565
393
623
559
549
597
624
583
255
231
534
600
590
204
260
97
62
-108
-5
-4
-126
-274
-313
59
-22
321
-18
50
-353
-372
-322
-340
-213
-607
-615
-226
-346
-341
-197
-546
-543
-236
-239
-567
-632
-637
-616
-634
-431
-442
-386
-582
-591
-405
-463
-471
-471
-507
-803
-787
-458
-405
-439
-787
-848
-823
-480
-387
-566
-251
-228
-516
-599
-423
-449
-412
-629
-392
-465
-775
-482
-618
-244
-202
-220
-229
-199
-152
-136
-162
-184
-171
-135
-365
-359
-356
-348
-356
-143
-191
-188
-132
-337
-344
-137
-149
-347
-274
-263
-308
-327
-270
67
90
57
41
79
109
62
-291
-341
-307
-270
-307
-134
-156
-331
24
43
1
-263
45
72
-266
-154
-217
-382
33
108
47
-325
-366
-307
28
48
10
-288
-308
-334
-130
-178
-155
-295
120
-18
260
-54
114
48
32
61
93
70
-291
-179
-513
-208
-336
15
23
-258
21
95
-113
117
66
61
105
122
63
-277
-296
34
-118
-79
-124
64
47
77
87
22
-349
-163
-382
-269
81
99
74
84
-107
-40
-23
-43
-47
-11
297
322
314
306
324
378
199
520
537
240
185
172
207
243
243
232
523
599
636
565
169
334
368
232
576
547
150
-20
-114
-84
259
292
-46
67
-285
-293
-270
-291
-349
-383
-366
-326
-287
-259
-262
-328
-178
-228
-154
-293
-307
-254
-500
-827
-417
-194
-348
-149
-243
-246
-147
-298
-289
-140
-525
-568
-244
-130
-303
29
-76
169
417
835
695
1107
1019
1314
930
1054
1125
1376
1546
1199
970
1119
924
1149
785
-68
-572
-796
-891
-1112
-1222
-1484
-1428
-1362
-748
-784
-447
-420
-390
-598
-537
-222
-212
-524
-586
-568
-205
-367
-378
-200
-216
-378
-264
7
-333
-142
-365
-283
-257
-302
-330
-278
64
90
43
12
79
-31
354
149
134
346
300
271
271
284
261
-85
54
1
44
123
-106
121
107
-95
-5
324
374
163
206
229
251
579
439
786
771
408
566
555
612
396
617
535
219
230
552
613
619
572
526
538
610
428
441
392
593
601
424
771
804
497
406
586
528
201
377
341
379
191
202
151
370
161
252
543
222
364
264
-65
121
62
36
38
31
12
28
89
120
59
-304
-352
-319
-296
-358
-196
-208
-131
-330
-372
-186
-160
-288
67
12
-164
-577
-613
-543
-196
-148
-160
-211
-523
-544
-514
-220
-222
-521
-560
-564
-566
-615
-432
-434
-561
-380
-280
-309
-132
-162
-132
-362
-134
-193
-228
-225
-217
-232
-514
-252
-178
-302
79
123
64
-280
-296
30
91
58
-293
-337
-275
77
108
72
42
61
102
116
107
101
84
21
-318
-339
0
120
-82
-106
-116
-51
294
296
-75
37
-300
-316
-336
-143
-218
-246
-203
-353
42
-85
-18
-31
-78
-99
-95
-107
116
105
-123
-123
36
-363
-147
-262
-52
277
-99
-262
-290
74
-87
-114
47
-264
2
11
-281
-323
-315
-274
21
57
121
-54
-32
-99
70
50
93
111
70
44
103
-58
-39
-124
45
52
-125
-71
-74
-90
-84
-88
124
69
61
80
47
-328
-206
-245
-167
-309
11
3
-270
19
99
-98
127
37
-266
48
-101
-57
-104
115
-72
318
135
364
328
373
205
217
380
273
261
342
181
232
234
206
168
149
180
254
568
568
529
233
210
188
163
149
150
160
181
242
578
590
212
287
-51
292
167
158
-21
34
-285
35
83
29
-331
-129
-365
-331
-339
-353
-302
72
-87
-100
42
-314
-316
-269
-291
-177
-584
-598
-199
-288
18
-305
-369
-345
-267
29
-262
-325
-361
-357
-319
25
-60
185
446
664
1096
1011
1178
1277
1277
1260
1608
1798
1910
1524
1208
949
1150
915
750
551
-271
-435
-879
-694
-1038
-1151
-947
-899
-1035
-893
-505
-389
-554
-247
-238
-252
-249
-192
-350
-282
-302
-382
-155
-305
-114
281
283
-70
101
86
114
-124
123
102
80
49
24
37
100
-62
274
322
352
373
373
337
296
299
346
362
302
-36
-25
357
219
196
326
272
141
599
427
596
217
204
558
399
413
629
587
554
524
520
574
409
473
477
448
435
450
464
452
410
621
595
597
606
584
522
212
241
628
774
817
481
625
586
621
638
577
225
175
198
229
202
131
354
138
206
228
200
176
178
156
315
-84
94
-118
-25
-5
-110
7
-302
9
75
65
-265
-329
-345
-350
-143
-224
-532
-524
-236
-238
-538
-572
-549
-239
-221
-524
-583
-572
-207
-338
-301
-382
-244
-531
-183
-318
-293
-155
-586
-425
-400
-585
-573
-388
-458
-442
-607
-534
-542
-587
-560
-170
-272
40
-274
-359
-131
-373
-139
-203
-236
-190
-371
-354
-147
-180
-130
-275
80
112
67
-298
-184
-555
-572
-227
-361
-292
-282
-266
55
-128
-115
84
24
27
77
107
78
18
-264
32
111
-86
-75
-106
88
10
-316
-343
-318
-280
-281
-323
-345
-296
57
115
99
66
82
127
118
29
-321
-331
-267
31
-266
-350
-381
-328
11
64
81
82
77
62
43
45
80
101
59
-285
-328
14
-58
333
300
-106
57
-127
267
274
98
-355
-384
-259
76
-280
-205
-249
-333
-92
271
-54
85
39
55
45
-275
-330
-319
-272
-272
-350
-176
-157
-279
-123
-48
-69
-115
-120
-89
-63
-73
-105
121
99
79
55
31
15
8
19
72
-84
294
370
350
267
-38
272
383
158
298
120
39
116
259
339
348
374
207
564
596
560
536
564
601
592
535
226
205
198
181
162
163
189
223
255
539
556
551
512
193
136
358
332
276
-82
49
-309
-359
-372
-382
-134
-365
-305
-258
-279
-354
-131
-309
85
-101
76
-344
-190
-157
-316
-292
-379
-223
-215
-356
0
-278
-132
-199
-134
-258
53
-290
-183
-253
-191
-321
44
-125
268
241
781
1041
975
1353
1186
1537
1412
1824
1674
1902
1471
1252
1355
1009
1115
803
361
-338
-434
-697
-1152
-1012
-1012
-925
-1081
-757
-677
-779
-569
-142
-338
-133
-229
-559
-577
-547
-250
-236
-513
-530
-236
-140
-292
27
43
46
51
60
70
80
88
83
62
41
33
48
98
-63
313
135
364
256
-66
269
198
590
557
142
271
277
368
167
137
342
348
157
216
