90
74
48
21
7
7
10
-260
-296
-337
-364
-374
-378
-380
-374
-365
-370
-144
-182
-193
-173
-145
-129
-375
-354
-334
-344
-383
-156
-143
-367
-372
-176
-253
-559
-586
-621
-408
-422
-390
-607
-614
-409
-452
-452
-427
-418
-430
-439
-433
-430
-449
-469
-459
-414
-621
-602
-608
-616
-618
-624
-385
-399
-396
-639
-636
-394
-404
-389
-611
-586
-585
-598
-610
-617
-630
-401
-437
-467
-479
-468
-430
-626
-563
-527
-532
-564
-589
-584
-558
-545
-574
-638
-444
-466
-438
-639
-597
-597
-387
-451
-498
-508
-494
-488
-775
-843
-666
-725
-749
-746
-732
-712
-672
-851
-475
-593
-226
-175
-186
-225
-525
-576
-400
-512
-882
-698
-699
-882
-500
-609
-210
-339
31
-127
-70
-85
83
-288
-377
-166
-195
-233
-519
-250
-186
-357
-284
24
68
112
-111
-101
-123
79
4
-317
-338
-308
-268
-279
-353
-181
-205
-148
-304
47
124
-62
266
335
148
227
562
590
516
337
115
-334
-211
-559
-635
-444
-492
-770
-510
-472
-403
-574
-253
-233
-516
-566
-608
-623
-628
-401
-486
-870
-736
-1068
-1100
-1122
-1144
-1131
-1036
-867
-436
-566
-229
-153
-335
-308
-364
-215
-551
-551
-203
-280
-19
562
655
992
1544
1482
1487
1260
1147
803
541
-33
-582
-1338
-2069
-2573
-2887
-3190
-3288
-3551
-3569
-3628
-3386
-3187
-2699
-2607
-1943
-1866
-1645
-1170
-1107
-462
-373
121
297
211
620
456
502
818
645
675
829
632
214
186
250
530
179
-2
61
-371
-544
-449
-787
-468
-517
20
292
518
452
890
1071
964
1016
941
1031
857
467
590
145
-74
58
-115
158
483
748
960
1189
1431
1836
1792
1557
972
884
552
-7
51
46
-17
531
805
1039
1292
1587
1838
1917
1518
1242
975
1055
702
885
814
509
506
796
836
848
809
453
546
339
116
-348
-517
-627
-415
-401
-613
-577
-569
-580
-581
-547
-212
-351
50
-50
358
236
600
427
477
469
633
214
310
262
379
589
484
472
594
209
137
290
38
-608
-737
-998
-1166
-1608
-1847
-1778
-2058
-1667
-1485
-1601
-1246
-1389
-976
-1043
-841
-631
-163
34
-77
-13
-37
-120
50
-259
-291
-348
-207
-610
-476
-800
-825
-827
-804
-491
-409
-592
-544
-246
-208
-204
-538
-434
-842
-668
-685
-706
-1032
-1113
-1123
-1039
-674
-866
-840
-780
-390
-221
-344
-261
77
-73
258
-34
83
-286
26
-8
225
591
627
773
1125
1557
1841
1893
1830
1525
1461
1266
934
863
417
599
512
345
-96
60
80
-81
-15
-84
-344
-482
-1115
-1338
-1402
-1392
-1340
-914
-812
-300
243
706
1301
1228
1220
1292
1034
824
438
592
220
128
135
253
409
786
858
643
653
855
459
520
344
-1
267
338
152
177
135
301
-41
-47
328
543
507
889
640
858
895
1057
1020
1391
1015
658
195
52
-187
-536
-552
-539
-244
-144
61
129
782
1133
1308
1006
1074
890
809
840
664
727
730
694
668
698
1037
1119
1135
1068
691
809
440
439
643
1286
1642
1434
1339
792
364
-57
-70
-105
90
-103
194
656
1370
1474
1754
1993
2407
2405
1980
1737
1530
1637
1231
1296
1085
655
799
472
431
446
787
893
687
659
869
881
694
751
744
682
867
822
829
664
1099
1306
1197
1232
1402
933
805
-23
-446
-1320
-1480
-1901
-1825
-1260
-721
-270
469
1357
1800
1767
1753
1486
979
561
-150
-752
-1401
-1553
-1249
-1321
-1056
-507
-247
-339
-279
-265
32
-125
272
198
457
1085
1276
1917
2091
1733
1420
1294
680
572
98
-512
-1402
-1893
-1934
-2406
-2680
-2766
-3047
-3385
-2987
-2941
-2295
-2119
-1435
-1321
-764
-487
-186
113
329
146
358
279
-19
-9
280
310
324
317
307
320
365
171
228
531
582
395
466
507
504
471
440
428
439
476
791
863
666
688
669
879
839
832
865
662
705
723
738
1031
1096
912
966
1002
1289
1320
1342
1350
1353
1370
1402
1176
1185
1169
1398
1373
1358
1360
1382
1161
1189
1200
1193
1180
1167
1405
1379
1361
1369
1402
1177
1186
1178
1181
1203
1220
1201
1402
1340
1292
995
951
920
944
1295
1171
1269
1542
1223
1366
968
1053
859
405
225
326
-65
88
42
70
-114
-66
-85
96
17
-290
-320
-358
-153
-195
-203
-179
-151
-152
-197
-528
-607
-404
-414
-393
-625
-617
-616
-599
-551
-228
-175
-169
-221
-563
-388
-434
-448
-456
-469
-475
-458
-420
-388
-636
-386
-634
-606
-580
-584
-618
-406
-448
-488
-782
-797
-499
-394
-523
-180
-155
-154
-383
-327
-297
-341
-185
-517
-254
-184
-381
-376
-137
-363
-261
112
-92
-126
59
20
36
69
80
68
60
63
47
-264
-334
-364
-332
-276
-259
-299
-352
-357
-294
48
92
54
-307
-164
-216
-178
-352
-308
-335
-383
-369
-275
79
87
0
-352
-374
-320
-263
-267
-334
-160
-215
-239
-249
-255
-256
-242
-216
-188
-170
-168
-166
-143
-345
-277
16
-276
-384
-247
-557
-521
-187
-143
-160
-191
-169
-343
2
43
37
22
13
-267
-324
-136
-169
-158
-136
-131
-381
-339
-267
44
40
-265
-311
-327
-326
-327
-330
-321
-302
-286
-273
6
47
81
73
24
-277
-273
40
120
-62
-3
303
341
357
349
320
280
-8
-10
287
352
149
169
174
194
228
237
192
355
-8
-102
83
49
60
95
111
80
29
2
7
0
-317
-153
-208
-189
-382
-338
-337
-353
-352
-330
-317
-331
-359
-376
-377
-379
-149
-201
-246
-245
-188
-378
-367
-174
-249
-229
-315
-48
208
402
849
1111
1188
1506
1692
1672
1457
1379
1026
437
318
-213
-916
-1897
-2177
-2471
-2930
-2956
-3293
-3483
-3634
-3041
-2912
-2575
-1982
-1835
-1155
-1077
-874
-468
-542
-334
65
92
55
57
-108
281
143
231
560
622
392
621
563
524
532
574
617
627
590
522
219
238
567
627
626
605
389
511
889
661
850
776
771
818
847
823
779
504
774
790
790
786
793
803
800
783
773
788
821
857
892
682
738
1035
1039
759
740
744
750
738
716
714
729
734
719
722
1037
1123
905
1109
752
682
676
701
716
723
740
765
1035
1030
765
758
743
704
641
823
487
402
585
542
527
515
236
221
231
240
190
323
-65
-120
-89
-53
-103
14
-384
-197
-192
-176
-198
-256
-570
-601
-607
-602
-600
-610
-630
-399
-423
-456
-512
-853
-683
-728
-710
-653
-868
-877
-656
-663
-865
-788
-769
-844
-699
-746
-702
-652
-689
-1035
-1038
-880
-418
-620
-770
-698
-712
-808
-417
-465
-885
-704
-841
-629
-245
-525
-622
-428
-416
-616
-558
-528
-552
-628
-448
-451
-612
-224
-142
-130
-136
-367
-328
-332
-137
-208
-234
-210
-178
-170
-177
-169
-137
-348
-307
-284
-285
-320
-383
-190
-212
-177
-372
-334
-332
-327
-275
62
92
20
-359
-171
-135
-318
-315
-137
-201
-163
-296
62
60
-286
-131
-182
-180
-159
-145
-141
-139
-130
-369
-356
-359
-130
-170
-197
-190
-148
-352
-329
-348
-131
-141
-355
-290
1
-277
-325
-350
-339
-319
-315
-321
-319
-309
-307
-313
-301
2
66
115
-110
-73
-12
311
345
322
258
-65
-90
-53
276
327
318
280
289
379
224
236
139
274
-43
-67
120
-269
-374
-369
-289
1
-325
-174
-209
-160
-368
-131
-190
-225
-226
-243
-544
-560
-231
-357
-276
-309
-147
-195
-158
-366
-139
-239
-579
-568
-225
-138
-370
-156
-225
-530
-521
-179
-292
122
272
189
433
759
1367
1651
1521
1448
1195
1093
463
366
-262
-462
-991
-1502
-2162
-2205
-2462
-2710
-3169
-3011
-2975
-2813
-2533
-2405
-1713
-1561
-970
-692
-435
-206
-307
4
-267
-299
-318
-311
-260
102
-17
347
137
148
165
187
176
128
363
177
574
427
419
577
243
520
616
431
409
575
252
536
386
485
506
455
394
386
428
463
454
413
392
428
494
774
452
588
255
551
420
775
771
452
439
784
654
711
676
877
873
663
704
711
704
709
722
725
721
729
747
737
667
810
458
433
489
839
663
704
717
736
1035
1072
1054
706
833
482
452
454
427
613
548
539
581
617
590
243
381
279
-47
-89
-117
108
70
36
21
20
9
-283
-329
-365
-145
-218
-592
-444
-474
-419
-606
-595
-387
-434
-438
-417
-430
-498
-837
-877
-854
-808
-792
-820
-858
-856
-803
-473
-424
-415
-434
-456
-475
-495
-770
-778
-774
-773
-797
-844
-887
-893
-858
-800
-486
-436
-390
-615
-607
-618
-615
-578
-529
-520
-568
-629
-385
-587
-519
-242
-523
-535
-229
-133
-316
-307
-350
-137
-147
-384
-366
-375
-162
-219
-248
-212
-367
8
84
100
83
72
71
57
15
-298
-339
-351
-345
-329
-311
-297
-294
-290
-257
65
120
97
-276
-158
-215
-163
-327
-287
-317
-353
-334
-262
66
102
116
117
83
-267
-134
-205
-186
-129
-375
-168
-185
-344
93
-24
-22
-127
24
-262
22
46
28
-278
-326
-344
-323
-268
51
84
76
56
63
99
126
118
93
99
-103
-37
-9
-30
-62
-58
261
361
192
223
189
134
369
135
155
377
292
-45
-83
-102
105
21
-302
-312
-286
-282
-321
-366
-378
-360
-352
-369
-141
-176
-230
-563
-630
-640
-594
-540
-516
-239
-169
-308
30
7
-356
-193
-203
-160
-139
-169
-206
-198
-150
-364
-349
-326
14
-79
142
387
642
906
1175
1419
1820
1518
1249
1088
403
291
-334
-812
-1396
-1689
-2312
-2252
-2671
-2905
-3160
-3029
-3186
-2900
-2282
-1927
-1856
-1280
-946
-861
-549
-319
60
98
94
87
94
-125
-42
343
222
563
574
538
245
227
217
206
203
230
551
385
468
777
786
506
476
464
479
501
509
494
475
472
489
772
796
815
832
843
840
823
811
819
843
853
831
792
769
780
814
850
882
658
690
715
730
741
753
763
1024
1024
767
762
750
739
738
744
746
747
767
1070
1103
1076
738
675
698
1048
1128
1124
1052
725
702
718
729
704
646
830
774
488
476
457
425
401
402
416
404
591
228
382
319
298
299
290
-9
-88
79
22
14
27
9
-321
-173
-525
-583
-606
-610
-619
-387
-416
-423
-389
-600
-604
-432
-798
-846
-805
-499
-789
-646
-727
-691
-833
-497
-502
-783
-487
-394
-600
-398
-508
-838
-848
-840
-856
-879
-863
-809
-498
-463
-418
-586
-227
-184
-246
-626
-464
-476
-442
-427
-447
-452
-390
-526
-152
-348
-345
-360
-358
-340
-332
-349
-134
-180
-212
-228
-229
-216
-179
-373
-312
-291
-320
-357
-345
-268
81
118
68
-298
-153
-212
-199
-135
-328
-307
-323
-326
-271
82
-99
-93
108
36
-277
-313
-333
-343
-349
-345
-313
19
114
-95
116
9
-330
-342
-317
-330
-147
-223
-233
-178
-368
-338
-327
-296
3
5
-322
-166
-211
-168
-346
-307
-320
-331
-290
43
100
101
64
31
28
44
49
23
-286
-337
-357
-342
-314
-293
-274
13
47
52
12
-297
-311
-268
49
75
52
9
-271
2
61
-116
-52
-39
-79
126
116
-95
-29
273
289
298
319
350
377
134
132
375
366
379
157
187
189
172
178
217
244
200
346
-16
-53
-36
-39
-101
77
53
94
-114
-126
49
-303
-361
-368
-350
-327
-299
-262
23
12
-303
-371
-143
-381
-362
-136
-203
-242
-209
-134
-339
-330
-324
-289
-258
-289
-382
-202
-196
-373
-293
5
38
124
306
581
657
983
1238
1650
1458
1421
1237
1135
420
-11
-377
-788
-1362
-1771
-2300
-2550
-2885
-2757
-2989
-3411
-3333
-2776
-2684
-2395
-2104
-1469
-1290
-661
-411
-236
-322
93
-75
-68
-70
258
157
583
442
492
769
791
812
816
806
796
802
814
820
824
839
865
887
887
870
853
848
855
874
650
698
746
1031
1028
741
699
660
644
660
705
754
1044
1061
1079
1106
1136
904
924
950
973
975
947
909
1140
1133
1141
906
942
981
996
973
940
933
960
984
972
931
900
1151
903
906
917
962
1292
1354
1366
1335
1299
1023
1013
995
967
933
1145
1088
1037
1026
1061
1100
1093
1040
733
723
731
702
871
509
437
413
400
615
540
197
379
324
291
278
276
259
-54
108
6
-328
-369
-383
-132
-142
-160
-179
-186
-176
-166
-178
-217
-254
-515
-238
-239
-542
-606
-626
-579
-252
-219
-246
-558
-602
-618
-610
-592
-571
-558
-555
-551
-538
-517
-242
-224
-200
-169
-150
-159
-182
-188
-164
-129
-364
-356
-344
-322
-303
-295
-284
0
38
69
87
101
121
-123
122
88
51
35
51
88
125
-114
-122
122
-120
-67
261
314
323
286
-27
-77
-92
-65
-16
262
-36
-121
77
107
-50
287
283
-42
-89
-62
256
267
-58
116
105
-81
-7
258
-43
-75
-52
-1
281
263
-37
-78
-100
-104
-98
-101
-120
126
-96
-21
293
274
-73
97
71
90
98
83
82
124
-72
-36
-33
-35
-26
-22
-39
-58
-55
-42
-50
-80
-86
-31
308
348
313
-4
-21
270
303
291
-5
-16
276
315
309
263
-22
263
328
364
338
278
-15
-4
278
275
-20
-56
-53
-22
-10
-38
-80
-77
-7
353
175
196
169
381
342
313
295
288
292
299
300
295
294
312
355
157
210
234
215
166
375
359
376
152
172
171
165
172
203
514
576
630
408
424
437
456
474
471
436
384
605
602
625
398
420
431
433
435
449
481
768
505
433
568
193
369
318
266
-57
-116
111
104
92
65
49
78
-111
-53
-47
-87
-128
116
111
74
-259
-329
-344
-306
-269
-268
-284
-259
84
-69
-10
-9
-27
-41
-68
117
23
-283
16
-94
136
437
1052
1168
1495
1744
2145
2127
1869
1373
772
-36
-522
-1069
-1499
-2202
-2708
-3194
-3038
-3440
-3628
-3682
-3221
-3076
-2648
-2024
-1676
-1548
-1152
-811
-540
-298
-68
361
167
151
162
533
469
641
727
742
732
719
694
654
877
879
666
734
1065
1130
910
906
1132
1108
1114
1141
909
913
898
1126
1093
1073
1084
1123
905
919
913
917
949
997
1298
1337
1367
1373
1340
1023
969
951
970
1002
1288
1316
1338
1339
1315
1294
1311
1367
1161
1154
1350
1291
1282
1319
1357
1367
1360
1368
1407
1200
1230
1232
1217
1204
1196
1184
1158
1375
1331
1283
980
944
934
956
987
993
958
1149
1078
753
689
884
831
786
485
435
395
635
639
637
609
553
220
375
-18
85
-292
-336
-315
-291
-312
-363
-130
-349
-285
-261
-307
-132
-196
-230
-519
-578
-387
-411
-630
-568
-541
-577
-394
-447
-447
-406
-618
-595
-588
-577
-560
-549
-547
-538
-255
-223
-217
-251
-550
-561
-529
-238
-246
-554
-607
-617
-576
-514
-214
-206
-223
-232
-193
-346
42
-124
127
41
-301
-318
-266
41
29
-295
-352
-348
-309
-299
-342
-377
-325
70
-56
-33
-114
59
66
-95
256
269
-56
114
77
101
-103
-63
-55
-76
-109
119
110
122
-111
-92
-89
-100
-115
-123
127
118
108
103
100
88
61
33
26
43
62
54
21
-264
-264
16
38
44
46
57
73
81
79
72
64
42
-261
-320
-356
-337
-270
58
98
97
72
53
53
66
76
69
50
29
7
-275
-304
-317
-291
27
87
100
68
31
27
50
74
87
96
92
51
-284
-349
-336
7
91
104
60
35
69
126
-116
100
58
58
93
117
106
78
62
70
82
81
65
56
66
89
105
102
92
96
120
-111
-106
-122
109
86
68
57
67
100
-114
-92
-100
-125
121
-117
-84
-58
-52
-65
-83
-95
-100
-106
-115
-114
-91
-51
-30
-53
-94
-90
-9
365
186
200
205
522
618
405
613
539
547
397
502
500
398
557
547
593
608
549
214
188
223
517
255
218
197
204
201
151
320
-13
-59
-96
107
48
24
52
98
113
77
13
-302
-339
-361
-133
-176
-230
-533
-556
-544
-248
-195
-151
-136
-150
-170
-164
-377
-318
-278
-274
-299
-340
-139
-214
-546
-584
-553
-203
-334
69
275
587
743
1170
1518
1745
2098
1777
1498
1010
427
-119
-616
-927
-1897
-2656
-2999
-3600
-3549
-3777
-4033
-4407
-3987
-3577
-3337
-2874
-2184
-1724
-1244
-1058
-444
-173
25
-97
-32
-13
264
326
183
575
443
792
845
865
863
852
845
853
886
686
748
1040
1026
715
657
895
657
678
679
686
735
1076
1146
903
1130
1109
1119
1126
1088
761
717
748
1094
925
972
984
987
989
983
968
954
949
945
933
921
928
962
1014
1316
1344
1355
1354
1339
1311
1021
996
988
997
1011
1021
1023
1019
998
952
896
1124
900
975
1282
1005
932
1140
915
994
1292
985
1121
749
683
660
643
871
843
834
836
824
777
444
608
516
172
349
283
-25
-73
123
44
-299
-381
-192
-242
-539
-573
-605
-629
-632
-611
-584
-575
-592
-613
-615
-610
-636
-454
-798
-845
-828
-778
-490
-504
-799
-831
-836
-815
-778
-483
-462
-480
-792
-845
-846
-788
-462
-444
-487
-806
-840
-834
-798
-477
-640
-553
-520
-550
-581
-546
-205
-160
-212
-559
-586
-525
-206
-227
-567
-617
-577
-229
-160
-138
-134
-384
-133
-155
-166
-135
-333
-300
-316
-342
-330
-289
-274
-312
-349
-315
43
-126
-124
65
9
15
56
69
31
-279
-312
-324
-335
-350
-339
-283
39
57
6
-319
-338
-292
26
44
15
-275
-279
-265
-265
-286
-306
-307
-305
-324
-367
-145
-137
-352
-328
-357
-164
-203
-184
-384
-349
-360
-133
-129
-326
7
55
52
8
-317
-136
-192
-203
-165
-374
-359
-372
-370
-327
-267
21
11
-271
-286
-294
-312
-337
-352
-350
-341
-322
-278
47
97
76
-265
-337
-329
0
51
14
-337
-147
-131
-324
-286
-300
-323
-307
2
33
12
-280
-273
41
83
45
-314
-137
-383
-315
-289
-353
-190
-201
-345
66
-115
96
4
-290
7
66
75
32
-273
-295
-291
-273
22
91
-92
-62
-84
-122
-126
-93
-57
-42
-29
268
336
144
176
178
172
174
185
206
236
516
248
192
128
365
153
213
226
176
372
354
376
133
367
341
352
133
135
319
-50
118
82
65
24
-291
-329
-331
-330
-365
-179
-239
-517
-516
-531
-577
-631
-406
-394
-602
-533
-213
-175
-175
-207
-244
-518
-519
-519
-525
-538
-556
-575
-587
-582
-570
-566
-571
-564
-517
-179
-324
95
356
469
1134
1230
1464
1818
1494
1226
1044
546
79
-389
-970
-1697
-2444
-3043
-3706
-3748
-4002
-4416
-4393
-4186
-3874
-3256
-3076
-2287
-1714
-1211
-1087
-799
-556
-365
1
37
58
120
-31
335
175
532
396
509
822
795
463
402
393
422
450
464
484
788
856
658
688
705
734
1031
1053
1032
728
699
715
753
764
726
670
643
666
717
758
1027
755
720
677
650
668
741
1097
920
950
948
951
982
1021
1295
1280
986
945
915
899
900
919
948
980
1008
1284
1295
1299
1300
1300
1290
1007
973
950
943
936
909
1125
1104
1119
1148
901
1139
1118
1106
1082
767
685
872
830
789
463
632
563
524
227
165
361
345
368
360
260
92
-308
-363
-357
-371
-192
-549
-609
-611
-596
-617
-421
-488
-787
-800
-794
-790
-806
-839
-866
-850
-786
-462
-446
-498
-826
-863
-857
-850
-875
-664
-690
-683
-669
-679
-708
-721
-689
-880
-824
-813
-837
-858
-846
-808
-786
-798
-817
-795
-474
-422
-434
-487
-501
-428
-573
-517
-549
-614
-633
-595
-546
-517
-243
-216
-195
-206
-238
-252
-231
-206
-217
-255
-526
-232
-167
-379
-375
-138
-147
-382
-331
-266
32
16
-313
-137
-162
-378
-330
-339
-154
-225
-232
-178
-371
-342
-341
-344
-347
-367
-152
-185
-184
-156
-136
-145
-163
-158
-130
-370
-139
-191
-223
-212
-180
-171
-202
-246
-522
-254
-227
-208
-196
-187
-191
-226
-542
-584
-561
-213
-367
-328
-366
-174
-193
-152
-352
-333
-360
-144
-168
-182
-198
-214
-215
-201
-185
-174
-158
-132
-370
-382
-166
-201
-204
-184
-171
-184
-213
-221
-180
-348
4
51
21
-312
-364
-355
-318
-318
-372
-166
-155
-345
-283
-266
-279
-291
-296
-314
-335
-326
-281
7
-284
-369
-161
-358
27
110
79
-268
-309
0
82
107
72
52
104
-47
302
347
352
344
346
128
218
580
614
514
335
-44
-27
335
147
366
282
-6
293
353
363
328
289
265
-38
116
-277
-131
-172
-170
-180
-226
-531
-537
-242
-196
-167
-143
-360
-328
-354
-195
-562
-613
-593
-563
-581
-626
-630
-565
-235
-221
-513
-526
-223
-170
-189
-534
-602
-582
-250
-208
-213
-180
-278
-22
239
454
671
963
1560
1799
1531
1268
920
657
470
169
-154
-944
-1681
-2410
-2671
-2944
-3354
-3526
-3744
-3908
-3595
-2946
-2531
-2339
-1875
-1195
-1103
-815
-566
-376
-268
24
31
31
28
40
116
276
198
549
532
212
173
176
193
218
532
629
466
768
775
789
824
844
824
790
782
792
770
445
388
404
479
789
774
483
506
855
685
688
875
819
834
890
658
882
841
843
888
675
695
707
730
754
759
760
1045
1107
906
913
1131
1079
1032
728
677
648
666
721
1043
1101
897
940
961
954
930
898
1105
1026
670
838
789
775
775
783
805
836
852
831
777
455
397
611
582
550
240
163
345
307
296
259
-106
-261
-377
-140
-354
-341
-150
-248
-557
-537
-233
-217
-515
-594
-423
-489
-770
-489
-437
-403
-420
-467
-498
-492
-474
-482
-779
-829
-864
-884
-645
-659
-660
-895
-854
-804
-505
-494
-787
-852
-890
-856
-506
-418
-393
-428
-472
-486
-470
-444
-412
-627
-586
-567
-574
-584
-572
-539
-255
-253
-534
-572
-606
-618
-590
-527
-201
-154
-136
-383
-368
-361
-381
-169
-213
-227
-205
-157
-356
-311
-288
-286
-285
-271
7
13
-272
-328
-378
-133
-354
-297
0
5
-271
-285
-279
-267
-276
-308
-340
-346
-328
-311
-313
-334
-360
-379
-129
-378
-357
-328
-301
-282
-269
0
16
27
19
-273
-331
-133
-165
-162
-139
-378
-380
-134
-129
-353
-308
-285
-305
-355
-381
-338
18
113
-121
78
-260
-305
-302
-285
-300
-358
-179
-229
-222
-162
-344
-288
7
51
101
114
55
-296
-337
-274
100
-82
-88
-113
-85
-10
299
292
259
256
281
289
264
-4
308
164
517
544
515
235
245
253
206
360
262
-29
-8
272
264
-2
283
343
371
334
276
268
311
321
-32
58
-324
-351
-327
-343
-160
-221
-215
-173
-170
-215
-238
-183
-342
-304
-368
-218
-525
-241
-193
-191
-234
-526
-518
-225
-195
-182
-162
-369
-313
-296
-337
-146
-165
-351
55
-4
237
800
906
1260
1523
1892
1829
1598
987
841
178
-274
-853
-1544
-1930
-2606
-2544
-2941
-3180
-3215
-3630
-3293
-3039
-2740
-2688
-2318
-1861
-1386
-731
-432
-192
16
-80
256
262
-15
-14
280
338
147
219
554
633
438
466
466
460
463
474
494
781
820
848
844
818
808
840
643
693
710
705
691
665
872
820
803
842
649
683
677
665
687
734
765
757
738
745
1033
1048
765
722
711
749
1062
1093
1093
1084
1086
1095
1110
1137
929
977
990
959
916
904
925
943
935
923
942
992
1286
1023
987
954
931
901
1115
1094
1123
922
944
902
1090
1045
1030
752
697
885
830
785
482
442
446
497
795
502
631
222
365
297
-27
-116
61
32
42
42
-261
-332
-382
-137
-139
-173
-250
-597
-410
-435
-424
-399
-387
-406
-455
-773
-822
-834
-798
-479
-426
-420
-460
-509
-786
-781
-793
-854
-684
-732
-710
-642
-834
-800
-778
-489
-443
-405
-394
-407
-432
-460
-483
-494
-484
-457
-424
-396
-630
-608
-584
-570
-573
-582
-562
-244
-168
-136
-172
-235
-517
-226
-170
-148
-167
-191
-181
-141
-357
-336
-321
-291
9
35
15
-298
-346
-351
-319
-288
-284
-285
-263
29
35
-262
-313
-311
8
72
77
22
-289
-294
2
45
58
33
-272
-328
-375
-146
-152
-142
-368
-317
0
37
25
-276
-307
-296
-265
-263
-306
-356
-361
-319
-278
-279
-311
-325
-297
-260
-267
-325
-131
-144
-367
-331
-330
-356
-369
-347
-309
-291
-311
-345
-346
-283
87
-57
-2
-15
-52
-59
-16
294
307
261
-70
-125
125
-87
-3
350
168
191
172
156
177
218
223
168
345
294
284
281
271
274
304
332
315
261
-27
-1
292
267
-87
77
63
108
-128
61
-321
-174
-216
-206
-190
-205
-248
-541
-546
-520
-238
-231
-237
-235
-221
-209
-211
-226
-247
-532
-555
-541
-220
-145
-131
-198
-545
-583
-551
-240
-198
-145
-296
-118
382
428
1034
1386
1412
1815
1531
1569
923
434
-41
-187
-822
-1287
-1858
-2418
-2833
-3085
-3018
-3220
-3656
-3708
-3322
-3037
-2916
-2228
-1765
-1565
-900
-811
-523
-297
109
-74
-56
-59
-56
-20
324
199
581
638
607
533
229
236
537
597
417
776
890
714
730
695
649
868
830
782
487
488
793
856
895
653
675
723
763
747
674
862
867
689
1026
1048
764
741
748
761
754
750
1049
1130
927
904
1090
1055
1094
908
937
902
1097
1057
1047
1054
1075
1115
914
965
1002
1283
1297
1290
1000
955
928
932
943
925
1129
1075
1057
1077
1098
1091
1060
1042
1059
1090
1089
1034
693
882
853
842
814
502
433
630
582
531
208
128
305
-23
-92
96
43
31
64
108
111
51
-293
-360
-148
-213
-590
-477
-824
-827
-794
-794
-829
-831
-487
-606
-523
-558
-414
-512
-805
-812
-843
-648
-697
-704
-680
-664
-662
-653
-870
-814
-770
-496
-485
-461
-433
-429
-459
-503
-780
-507
-471
-445
-445
-468
-496
-508
-482
-410
-573
-244
-219
-229
-236
-218
-183
-147
-376
-357
-355
-376
-154
-171
-154
-380
-372
-136
-158
-151
-375
-345
-330
-316
-288
-265
-280
-333
-383
-132
-353
-317
-300
-279
31
103
-113
119
46
-286
-331
-346
-347
-345
-343
-341
-331
-303
5
71
124
-114
122
80
37
6
-266
-267
9
41
65
51
-261
-330
-377
-139
-147
-160
-165
-147
-372
-350
-340
-313
4
67
76
20
-311
-349
-347
-346
-370
-137
-370
-300
24
45
35
46
104
-82
-58
-99
88
43
37
45
43
45
83
-90
259
312
307
279
280
327
129
148
369
321
318
379
206
251
240
207
193
203
205
166
353
291
267
278
301
318
323
319
300
261
-48
-94
-122
117
85
26
-303
-366
-153
-177
-185
-179
-172
-194
-518
-599
-629
-570
-201
-377
-378
-171
-195
-161
-367
-359
-143
-183
-185
-163
-165
-213
-529
-544
-247
-195
-187
-221
-242
-193
-333
81
278
547
647
1283
1595
1516
1797
1659
1348
651
186
28
-390
-937
-1891
-2578
-2790
-3006
-3394
-3607
-3876
-3764
-3913
-3591
-3182
-2504
-2321
-1861
-1163
-1037
-462
-183
51
-50
266
276
302
383
241
586
619
609
597
614
396
421
426
439
502
868
721
1029
761
721
694
689
683
660
884
874
653
728
1062
1099
1079
1026
729
731
1025
1070
1097
1101
1093
1080
1065
1043
763
755
1038
1086
1111
1078
761
755
1111
1016
1386
1390
1330
1300
1339
1400
1406
1342
998
943
935
955
978
994
1007
1280
1314
1367
1167
1197
1176
1360
1010
929
1148
902
939
967
957
913
1127
1121
1145
898
1115
1038
700
884
804
456
635
606
614
607
555
227
183
176
169
131
333
287
-13
-88
45
-353
-207
-516
-529
-538
-565
-608
-394
-416
-416
-403
-396
-410
-452
-774
-844
-643
-678
-712
-760
-1054
-1035
-687
-830
-772
-788
-819
-796
-467
-416
-440
-773
-837
-846
-820
-800
-794
-786
-501
-460
-436
-442
-470
-494
-490
-457
-418
-403
-413
-420
-397
-606
-572
-575
-596
-590
-546
-243
-237
-527
-559
-548
-240
-185
-164
-184
-226
-516
-525
-246
-195
-381
-307
2
11
-286
-351
-135
-376
-324
-285
-289
-321
-333
-299
26
92
126
122
84
27
-283
-315
-325
-334
-359
-130
-130
-355
-318
-305
-319
-334
-332
-316
-299
-298
-322
-372
-173
-198
-163
-347
-298
-313
-368
-146
-381
-333
-310
-327
-352
-352
-330
-312
-312
-314
-300
-274
1
-261
-282
-301
-311
-328
-365
-152
-163
-381
-324
-301
-332
-378
-381
-331
-278
-276
-329
-130
-143
-371
-343
-341
-352
-341
-294
31
85
103
89
64
46
34
21
11
22
68
-126
-89
-100
-127
-116
-42
309
357
331
266
-32
-10
326
173
255
542
525
237
229
252
524
245
191
146
135
141
129
348
315
312
339
366
365
336
296
259
-29
-66
-115
87
41
10
-275
-326
-153
-250
-572
-575
-530
-227
-221
-515
-554
-543
-211
-368
-313
-340
-172
-518
-561
-558
-540
-531
-535
-540
-529
-245
-217
-205
-209
-212
-207
-202
-212
-229
-212
-384
37
276
578
670
1281
1595
1820
1902
1530
1199
727
234
33
-460
-1349
-2083
-2479
-3158
-3400
-3631
-3918
-4136
-4126
-3889
-3306
-2991
-2898
-2422
-1833
-1004
-830
-555
-362
76
-1
383
160
361
291
291
129
516
601
614
600
615
409
462
494
771
802
847
644
703
763
1058
1044
719
652
659
756
1135
938
902
1083
1046
1075
1128
1151
1135
1123
1146
928
935
1148
1087
1051
1050
1066
1086
1119
917
975
1004
999
991
1016
1317
1336
1298
963
896
1138
925
996
1321
1366
1379
1363
1333
1314
1324
1364
1159
1199
1217
1218
1209
1192
1167
1390
1354
1319
1282
979
929
1145
1125
1121
1115
1104
1092
1071
760
646
486
590
247
236
514
521
249
237
247
252
208
363
-11
-102
85
-257
-381
-247
-562
-543
-239
-227
-527
-584
-602
-577
-556
-588
-415
-500
-791
-775
-501
-781
-838
-881
-879
-852
-842
-861
-880
-874
-851
-832
-819
-792
-491
-454
-458
-498
-799
-821
-818
-801
-776
-501
-504
-792
-827
-812
-471
-610
-516
-217
-205
-202
-203
-225
-526
-578
-613
-619
-597
-562
-533
-522
-518
-242
-195
-141
-365
-367
-383
-138
-143
-150
-156
-140
-345
-278
26
33
7
-288
-327
-367
-147
-160
-138
-350
-315
-304
-299
-266
68
-100
-57
-95
57
-316
-130
-129
-330
-267
20
10
-267
-262
38
92
109
67
-271
-348
-131
-136
-132
-132
-383
-358
-323
-300
-305
-331
-354
-362
-360
-356
-356
-359
-367
-382
-144
-153
-146
-383
-367
-361
-361
-352
-332
-312
-306
-311
-300
-257
52
75
45
-273
-331
-365
-379
-380
-371
-359
-350
-345
-322
-270
51
94
96
72
43
-260
-341
-180
-230
-188
-338
7
31
13
18
70
127
-118
100
67
82
126
-119
84
6
-286
-260
32
12
-320
-377
-350
-260
58
34
-286
-299
24
92
71
-293
-129
-371
-264
99
-108
-89
-43
289
350
367
364
375
128
352
286
256
322
198
552
561
530
551
384
452
413
542
170
139
166
182
162
134
374
352
313
294
343
172
197
363
-30
-88
-29
305
276
-117
14
-259
47
36
-342
-233
-543
-238
-191
-229
-581
-386
-626
-578
-560
-565
-541
-218
-148
-381
-147
-182
-207
-229
-254
-523
-250
-225
-236
-541
-567
-513
-142
-309
-318
-144
-206
-173
-284
-45
526
895
1009
1574
1517
1830
1456
1155
723
255
53
-443
-1301
-1714
-2570
-2758
-3354
-3694
-3772
-3969
-4177
-3928
-3611
-3039
-2930
-2186
-1852
-1021
-830
-546
-383
-269
106
-33
302
319
306
324
146
514
604
397
423
442
449
443
448
495
842
686
758
1043
1033
733
668
870
862
642
690
726
761
1068
1110
1087
727
874
863
711
1099
899
1129
1094
1116
921
964
959
928
896
1122
1093
1082
1103
1134
1142
1131
1145
955
1300
1355
1356
1339
1335
1336
1315
1019
993
1002
1281
1280
1003
998
1296
1365
1159
1162
1383
1334
1291
1006
991
977
940
1130
1071
1063
1112
903
1142
1063
729
698
690
640
780
385
547
517
521
527
519
230
156
301
-62
-115
-122
111
18
-382
-256
-592
-392
-458
-507
-489
-411
-617
-409
-775
-829
-512
-414
-407
-775
-647
-679
-882
-854
-666
-1031
-1063
-717
-838
-771
-803
-864
-869
-809
-489
-476
-508
-800
-819
-834
-858
-876
-866
-825
-769
-464
-432
-424
-445
-484
-506
-489
-449
-435
-463
-491
-470
-399
-579
-529
-229
-166
-359
-349
-159
-244
-528
-230
-178
-188
-515
-564
-530
-175
-350
-337
-357
-339
-273
28
-272
-131
-228
-243
-196
-155
-147
-140
-348
-273
39
51
43
52
75
71
11
-333
-133
-379
-324
-276
-263
-273
-283
-292
-318
-368
-167
-203
-220
-234
-244
-221
-150
-313
4
12
-258
6
39
52
4
-350
-193
-252
-526
-521
-255
-240
-220
-205
-194
-171
-377
-313
-271
-281
-331
-380
-138
-380
-372
-384
-137
-363
-296
18
18
-292
-347
-355
-319
-282
-281
-313
-347
-367
-374
-368
-342
-288
40
97
102
37
-328
-172
-205
-159
-337
-293
-310
-342
-326
16
124
-72
-94
81
2
-285
-270
4
-275
-336
-376
-346
-262
55
40
-273
-292
12
73
75
23
-270
6
50
61
40
38
84
-115
-107
111
85
118
-62
259
286
294
310
332
348
369
157
220
528
551
561
583
607
593
527
190
151
164
184
162
357
302
290
313
329
311
271
-13
-9
261
-13
-85
69
-269
-306
-326
-371
-189
-248
-253
-219
-196
-204
-204
-157
-343
-320
-378
-217
-531
-527
-251
-515
-545
-558
-540
-519
-518
-520
-234
-175
-130
-132
-172
-206
-206
-168
-369
-312
-259
55
-117
275
232
783
1135
1236
1508
1852
1453
1154
1093
831
536
59
-887
-1628
-1964
-2623
-2719
-3390
-3545
-3770
-3719
-3475
-3436
-3132
-2504
-2030
-1512
-1301
-667
-621
-129
28
111
-103
-69
-42
-28
-6
318
183
556
605
587
553
552
593
398
464
782
825
829
801
770
505
506
495
475
477
779
847
649
685
719
753
759
715
648
875
660
729
755
719
672
682
756
1092
1125
1114
1102
1115
1130
1114
1060
742
706
710
753
1077
1142
925
934
945
988
1301
1319
1013
941
923
979
1302
1299
959
1124
1104
906
975
983
913
1060
713
674
686
724
754
761
749
728
701
660
865
830
825
821
508
389
527
226
254
532
221
362
267
-22
-34
-96
43
-320
-356
-336
-332
-136
-237
-572
-589
-564
-551
-580
-637
-421
-421
-408
-423
-473
-770
-503
-450
-410
-426
-482
-788
-812
-820
-820
-809
-798
-822
-889
-694
-683
-855
-511
-484
-511
-789
-775
-489
-468
-450
-429
-423
-461
-770
-772
-440
-601
-575
-636
-454
-462
-401
-588
-565
-587
-617
-623
-601
-555
-234
-168
-132
-151
-205
-241
-223
-172
-146
-161
-166
-357
17
94
69
-266
-292
19
72
31
-346
-194
-204
-138
-316
0
52
101
-124
-122
119
94
46
-290
-364
-383
-344
-303
-302
-320
-305
8
63
73
35
-286
-370
-207
-525
-251
-151
-301
-265
-299
-326
-282
69
-120
122
43
-303
-367
-157
-198
-222
-197
-368
-266
56
66
51
44
34
-277
-383
-227
-514
-223
-179
-163
-147
-334
36
-126
-98
-117
117
98
50
-297
-136
-187
-184
-160
-144
-138
-134
-132
-375
-326
25
-126
-78
-120
32
-315
-344
-318
-287
-292
-332
-359
-327
17
108
-105
-103
-91
-49
-28
-96
17
-345
-309
108
273
329
283
-24
-8
314
364
363
335
318
326
356
163
516
616
398
592
207
343
277
-13
-63
122
77
109
-37
359
211
252
223
142
286
-106
1
-139
-236
-523
-250
-227
-216
-189
-370
-266
48
10
-341
-148
-143
-132
-189
-554
-607
-535
-137
-311
-356
-204
-250
-201
-131
-130
-201
-527
-542
-516
-235
-213
-150
-273
-100
324
243
486
1076
1176
1441
1797
1481
1567
1332
1057
496
146
-283
-790
-1300
-1451
-1715
-2174
-2181
-2536
-3131
-3047
-2975
-2706
-2606
-1992
-1917
-1593
-984
-849
-212
69
-72
-111
38
-294
-294
22
111
-35
345
191
230
205
162
156
191
218
205
191
240
622
494
792
478
406
400
450
471
406
567
554
400
776
793
441
601
618
474
819
818
778
795
888
722
734
679
876
838
793
464
406
420
768
870
660
656
665
736
1108
939
930
1079
685
857
862
671
735
763
765
761
751
731
708
700
714
736
752
764
1032
1038
1026
748
730
713
667
836
489
453
480
510
484
414
632
411
472
466
612
196
327
270
256
-11
-38
-72
-109
101
45
-271
-331
-129
-173
-209
-250
-555
-588
-574
-252
-187
-188
-523
-628
-443
-468
-483
-774
-815
-830
-808
-773
-499
-500
-502
-489
-465
-451
-463
-498
-794
-824
-836
-826
-797
-499
-456
-423
-406
-411
-448
-508
-817
-829
-801
-771
-504
-488
-429
-603
-563
-585
-601
-538
-166
-370
-193
-583
-627
-533
-383
-289
-283
-325
-378
-181
-230
-240
-214
-212
-532
-621
-632
-521
-362
-281
-321
-141
-138
-288
90
-127
73
7
15
97
-88
-106
51
-302
-338
-333
-348
-141
-167
-374
-264
84
102
72
62
100
-111
-124
44
-329
-160
-197
-206
-224
-248
-234
-156
-298
35
36
-259
-268
30
77
67
1
-322
-341
-315
-282
-258
18
40
48
22
-295
-376
-198
-243
-228
-150
-303
35
86
126
-95
-81
-107
108
79
38
-324
-234
-608
-572
-152
-262
18
-284
-261
127
263
273
-97
45
37
108
-113
82
-268
-292
35
-128
-87
-97
-97
-57
-1
290
297
284
-1
-27
258
373
515
557
194
309
302
193
577
515
294
118
126
-5
309
-35
81
33
113
-34
-13
-104
11
-357
-146
-133
-345
-308
-321
-144
-243
-526
-185
-313
-280
-139
-547
-567
-158
31
87
-259
-359
-345
16
89
51
-327
-186
-232
-213
-175
-169
-212
-523
-514
-134
90
348
584
796
750
950
1378
1250
1576
1545
1377
1114
888
790
495
585
-56
-532
-888
-1066
-978
-1580
-2063
-2186
-2255
-2034
-1708
-1429
-1212
-992
-745
-778
-634
-577
-568
-568
-565
-566
-565
-525
-159
9
-72
299
321
263
-83
94
60
78
117
-118
-114
-73
298
188
254
184
297
-53
-40
287
326
311
289
303
339
372
159
242
607
418
638
518
156
143
204
250
221
155
134
188
516
551
575
384
468
481
391
550
564
405
430
556
131
364
249
634
605
233
216
627
832
674
894
819
793
804
787
446
568
187
128
152
212
240
216
199
255
621
445
429
590
218
370
285
-29
-47
-47
-64
-89
-85
-53
-57
113
7
-269
62
108
16
-166
-529
-229
-133
-380
-216
-550
-528
-191
-145
-168
-210
-226
-225
-241
-537
-583
-639
-445
-482
-449
-616
-547
-558
-610
-615
-546
-226
-247
-592
-394
-611
-522
-220
-513
-595
-402
-409
-633
-597
-583
-578
-550
-220
-381
-321
-311
-297
15
58
-277
-235
-445
-481
-579
-142
-354
-173
-194
-312
-107
-15
-95
23
-301
-305
-351
-240
-407
-475
-419
-564
-204
-359
14
119
-109
92
34
57
-106
-47
-113
-287
-180
-187
-315
78
107
40
-269
18
84
83
-263
-365
-379
-286
97
-86
-98
104
71
96
-88
-28
-40
119
-271
-372
-139
-339
16
105
-116
101
11
-335
-375
-345
-269
39
14
-319
-353
-266
-96
275
-32
57
-326
-322
1
-265
-142
-538
-539
-379
76
-92
120
51
66
-113
-96
31
-173
-551
-514
-138
-318
-326
-359
-359
-328
-281
41
126
-78
-115
49
12
99
-6
338
320
268
267
315
340
301
-29
-75
-76
-69
-99
79
-266
-305
5
-126
-16
258
-69
110
103
-103
-73
-104
94
66
70
60
15
-277
5
71
90
2
-152
-528
-548
-244
-215
-245
-544
-532
-187
-325
2
2
-298
-343
-366
-363
-332
-286
5
6
-263
21
106
-70
-74
92
5
1
86
-44
360
549
508
688
1043
1086
1111
1096
713
467
208
297
-68
-281
-441
-969
-1659
-1871
-1669
-1723
-2107
-1970
-1936
-1692
-1568
-937
-664
-499
-388
-528
-135
-267
54
42
-268
-296
4
122
256
342
357
327
292
281
299
350
168
238
530
526
518
543
594
618
572
218
143
147
208
253
240
206
214
534
599
604
553
516
553
386
446
426
612
568
577
592
565
521
533
620
450
449
630
585
637
482
795
773
472
471
511
795
776
474
442
435
435
419
634
581
539
532
578
413
503
798
778
490
496
789
797
473
619
554
576
633
637
569
252
540
395
483
463
604
228
166
147
379
334
278
-38
-104
90
62
88
-117
-93
-120
95
82
93
88
47
-262
-291
-306
-348
-178
-527
-568
-546
-252
-254
-552
-574
-514
-382
-269
-269
-131
-519
-548
-212
-134
-170
-565
-432
-434
-591
-237
-211
-236
-248
-223
-195
-203
-240
-526
-523
-233
-186
-150
-145
-170
-187
-151
-330
-289
-344
-191
-222
-381
14
61
-263
-336
-318
6
10
-333
-166
-166
-353
-287
17
98
-33
312
285
-81
104
-119
-49
-64
65
-332
-371
-294
63
99
80
91
-71
308
347
-1
99
1
17
97
-106
-114
107
95
114
-125
111
71
61
118
-48
-6
-58
106
69
125
-53
-48
-123
66
81
-105
-76
116
14
-290
5
75
89
14
-346
-382
-307
75
-106
-125
70
55
109
-82
-67
-97
125
110
96
64
33
38
91
-101
-79
-115
77
36
35
39
6
-311
-338
-285
67
119
88
32
37
125
-27
273
-11
-71
-126
78
24
-265
13
86
-110
124
23
-328
-322
45
-90
-58
-124
50
39
117
-15
351
138
335
-56
73
42
97
124
28
-137
-208
-343
-112
316
356
339
368
182
212
171
372
366
380
341
-2
-44
284
166
255
512
240
539
610
618
530
167
129
149
148
336
-17
-80
-87
-66
-39
-8
277
280
-13
-62
-85
-76
-73
-112
64
-274
-328
-352
-365
-381
-137
-381
-341
-291
-263
-268
-288
-308
-337
-133
-186
-192
-130
-304
-277
-326
-383
-352
39
-74
-55
63
-377
-187
-317
-79
133
519
639
848
1140
1403
1276
1245
1340
1077
487
165
-69
-260
-580
-1139
-1805
-2033
-2180
-2410
-2264
-2871
-2969
-2991
-2842
-1970
-1437
-1359
-1139
-649
-623
-351
92
-91
-105
103
79
107
-70
307
210
389
777
773
625
193
383
201
557
561
227
196
561
501
649
669
852
511
452
416
398
408
438
449
418
630
624
418
492
808
846
879
652
666
662
659
677
708
725
704
641
810
479
455
496
834
651
681
670
643
882
877
887
662
710
742
715
883
794
781
866
725
1027
718
886
861
668
757
1055
1047
1039
1059
1076
1049
733
692
702
734
728
659
816
475
414
605
253
139
311
301
357
172
206
197
187
211
514
534
224
348
-73
44
-291
-328
-378
-208
-548
-562
-243
-191
-243
-631
-452
-631
-210
-378
-186
-557
-575
-231
-173
-250
-399
-471
-413
-581
-578
-395
-439
-638
-521
-177
-160
-195
-246
-552
-584
-585
-563
-546
-550
-551
-520
-206
-162
-160
-183
-203
-213
-218
-207
-172
-131
-139
-207
-528
-247
-135
-297
-319
-180
-521
-221
-335
34
29
-321
-136
-360
14
-125
-77
-94
-118
-110
-79
-68
-96
103
38
-287
-345
-359
-302
53
123
124
89
89
-115
-61
-58
-100
114
94
81
64
76
-112
-24
266
-41
-127
77
70
69
41
5
-266
-258
3
4
20
67
122
-105
-111
113
60
-268
-342
-384
-371
-324
-285
-272
-275
-275
-267
-260
5
20
36
39
18
-269
-285
-274
12
50
81
92
75
35
-268
-300
-304
-279
21
60
65
25
-293
-331
-310
11
63
52
-274
-349
-366
-318
0
13
-295
-358
-370
-326
-277
-270
-299
-319
-304
-272
9
36
82
-121
-100
-127
98
118
-75
-45
-116
-259
-376
-143
-361
-340
-359
-357
-268
-119
-20
-49
95
17
35
93
89
-257
-354
-361
-268
101
-95
-81
-59
-3
304
297
-21
-78
-80
-35
265
287
313
376
214
556
604
625
636
637
620
585
537
213
375
273
-44
-41
258
300
328
357
128
381
339
309
336
382
350
-63
-269
-143
-150
-357
-345
-137
-200
-237
-242
-228
-203
-177
-170
-193
-224
-233
-218
-197
-173
-374
-279
67
80
0
-366
-169
-170
-170
-209
-525
-562
-551
-250
-173
-305
112
282
200
425
745
1357
1612
1415
1555
1356
1124
838
218
29
-500
-1379
-1785
-2595
-2918
-2806
-2964
-3250
-3533
-3563
-3244
-2740
-2283
-1936
-1841
-1400
-685
-608
-187
-365
-284
62
107
95
79
-125
265
180
589
433
471
455
402
599
564
566
595
632
421
488
830
644
656
865
804
780
805
851
881
883
867
857
868
640
671
689
696
705
723
741
737
709
686
696
726
723
652
804
489
776
854
645
891
876
659
745
1067
1065
762
738
1032
1114
938
983
989
961
907
1111
1093
1118
900
903
1108
1027
711
698
722
748
750
721
669
865
810
777
783
831
642
692
696
653
840
775
476
451
411
583
209
362
327
352
379
358
294
-23
-69
-125
39
-317
-370
-372
-382
-198
-561
-618
-589
-531
-523
-565
-584
-541
-243
-557
-458
-846
-846
-491
-432
-491
-856
-882
-787
-404
-608
-393
-456
-477
-448
-404
-634
-639
-407
-431
-437
-419
-637
-591
-543
-251
-242
-521
-560
-597
-624
-389
-390
-612
-561
-539
-560
-570
-238
-344
26
9
-373
-234
-521
-238
-223
-234
-228
-177
-362
-306
-269
15
28
11
-277
-290
-275
-267
-294
-342
-369
-347
-293
19
53
53
19
-277
-276
43
-126
-86
-126
58
27
44
42
-293
-158
-210
-384
33
-114
126
42
8
80
-60
-13
-85
35
-324
-349
-333
-332
-355
-362
-325
-275
-275
-343
-171
-188
-371
-275
10
-304
-379
-131
-311
48
99
77
15
-296
-327
-347
-364
-370
-355
-333
-336
-362
-369
-314
44
112
84
-264
-320
-279
67
108
58
-290
-348
-349
-327
-310
-295
-260
50
90
86
39
-279
-320
-324
-305
-300
-337
-154
-226
-250
-201
-341
52
-110
-108
74
2
11
98
-79
-91
68
-283
-307
-274
21
49
104
-58
276
260
-108
35
21
101
-78
-89
92
52
109
-38
292
309
332
174
575
414
399
574
524
544
580
555
200
339
269
258
275
291
299
315
343
377
143
142
378
358
346
322
-9
113
-285
-367
-372
-361
-149
-515
-619
-385
-568
-201
-367
-325
-319
-333
-347
-347
-335
-333
-373
-206
-564
-632
-638
-592
-522
-209
-191
-210
-229
-210
-162
-383
-382
-382
-327
47
-57
370
600
666
1295
1621
1810
1816
1627
1004
787
313
-381
-856
-1206
-2167
-2546
-2976
-3244
-3480
-3716
-3831
-3967
-3654
-3038
-2702
-2570
-2053
-1216
-739
-462
-565
-144
76
-3
279
-73
113
-65
134
571
385
623
612
397
454
473
462
461
490
786
816
840
872
652
667
643
848
804
807
879
741
1101
1139
1117
1095
1124
925
936
1120
759
708
743
1070
1097
1057
739
722
766
1088
1130
1135
1129
1137
900
907
897
897
934
999
1305
1298
980
910
1131
1141
913
930
941
977
1302
1365
1376
1338
1309
1335
1380
1357
981
1109
1094
948
1305
1016
1135
1051
1125
1018
1325
944
745
883
895
692
677
830
445
610
567
547
530
516
247
215
136
265
-120
62
52
49
-276
-147
-242
-223
-377
-311
-361
-222
-546
-527
-246
-570
-473
-878
-665
-858
-504
-438
-416
-416
-409
-391
-635
-391
-428
-479
-779
-811
-835
-857
-860
-826
-502
-428
-638
-633
-396
-408
-397
-626
-608
-609
-621
-622
-604
-589
-596
-618
-624
-583
-250
-181
-152
-158
-163
-144
-366
-350
-366
-143
-162
-151
-377
-353
-342
-327
-289
21
59
43
-286
-381
-187
-186
-133
-317
4
57
103
-119
-99
-89
-81
-83
-117
71
-257
-289
-261
56
111
-116
-111
-122
110
71
23
-277
-306
-312
-288
13
62
100
121
127
104
45
-296
-366
-382
-348
-307
-299
-318
-322
-275
68
-112
-92
120
42
-287
-329
-334
-311
-279
-261
-271
-303
-337
-357
-348
-315
-276
-259
-284
-344
-144
-145
-334
21
88
76
-266
-369
-158
-363
2
82
72
0
-299
3
105
-83
-106
70
8
-261
11
21
16
2
-286
-347
-161
-192
-154
-335
-288
-289
-304
-284
37
115
-83
-53
-41
-45
-72
-117
95
70
71
104
-84
263
339
370
371
135
206
558
615
597
535
233
230
246
247
238
243
517
247
168
319
275
329
162
188
383
312
321
148
215
199
130
339
331
305
-56
29
-129
-203
-190
-145
-382
-149
-194
-227
-234
-220
-206
-203
-211
-221
-229
-240
-248
-242
-216
-179
-146
-130
-384
-141
-179
-241
-541
-520
-180
-366
-129
-215
-255
-162
34
-11
183
414
732
1361
1448
1669
1684
1431
933
607
-128
-231
-668
-1617
-2215
-3166
-3243
-3600
-3499
-3800
-4062
-4067
-3802
-3672
-3013
-2555
-1999
-1422
-945
-854
-556
1
-5
359
328
271
290
380
204
232
518
611
496
852
847
779
492
801
644
725
763
1028
758
708
888
832
835
888
696
757
1091
938
1282
1309
1283
1000
1002
1010
987
941
917
928
936
899
1089
1056
1089
903
955
971
972
977
978
961
940
945
978
1008
1008
989
996
1309
1396
1220
1269
1548
1544
1236
1396
1302
1021
1337
1165
1196
1162
1383
1156
1229
1269
1227
1389
1304
999
961
899
1075
754
731
752
1053
1086
1072
738
872
497
422
390
624
576
246
168
369
341
324
302
269
-29
-82
100
3
-356
-182
-228
-248
-526
-566
-620
-410
-433
-434
-431
-444
-471
-496
-499
-486
-487
-783
-848
-891
-871
-800
-474
-446
-460
-471
-452
-409
-640
-409
-478
-814
-865
-871
-845
-818
-804
-782
-462
-614
-527
-521
-601
-433
-446
-638
-581
-600
-410
-427
-608
-248
-205
-232
-247
-187
-340
-303
-380
-248
-559
-248
-158
-382
-156
-174
-131
-330
-341
-168
-222
-154
-261
81
19
-370
-153
-289
-111
-27
-79
79
41
66
81
40
-282
-317
-316
-319
-350
-383
-379
-340
-304
-285
-265
28
60
47
-266
-315
-311
-271
2
-283
-324
-329
-300
-275
-273
-272
9
37
28
-288
-356
-134
-139
-149
-174
-182
-150
-355
-328
-333
-334
-303
1
30
27
9
-281
-347
-180
-234
-203
-361
-268
32
56
102
-100
-89
117
49
0
-304
-135
-245
-559
-515
-145
-299
8
40
104
-65
-37
121
-326
-225
-235
-378
-278
-281
-330
-285
-112
327
133
333
269
269
292
268
-57
-117
109
89
80
-127
264
179
554
587
587
622
451
783
779
416
516
144
378
156
172
147
140
209
572
609
526
143
335
346
333
-44
16
-137
-170
-369
-304
-283
-295
-307
-301
-290
-292
-315
-358
-158
-220
-530
-563
-575
-582
-597
-613
-599
-535
-190
-380
-367
-140
-181
-234
-561
-624
-627
-553
-217
-217
-538
-559
-190
17
-46
359
561
647
1331
1434
1864
1854
1464
1236
915
769
296
-518
-912
-1841
-2420
-2848
-3191
-3280
-3863
-3803
-3798
-3896
-3669
-3376
-2700
-2408
-1839
-1363
-746
-438
-144
108
266
319
303
259
-34
-35
281
149
548
394
418
631
586
599
419
511
824
854
640
696
711
642
781
452
471
794
835
842
863
668
736
1027
1037
1062
1108
1136
1114
1057
753
741
759
1042
1067
1093
1123
898
918
911
1133
1098
1104
900
953
955
905
1107
1102
1147
958
1017
1308
1310
1283
1003
1019
1333
1392
1403
1362
1301
995
963
947
947
959
966
954
935
921
908
1133
1081
1035
767
1042
1060
1052
755
692
875
809
511
493
473
423
599
518
203
159
359
284
-58
122
67
27
-273
-343
-181
-518
-541
-250
-217
-250
-607
-454
-496
-473
-429
-402
-402
-420
-443
-461
-463
-451
-449
-477
-775
-790
-500
-443
-413
-429
-461
-475
-472
-479
-769
-814
-837
-829
-801
-780
-783
-805
-822
-813
-779
-484
-453
-423
-633
-578
-532
-247
-225
-206
-215
-534
-619
-403
-613
-532
-250
-567
-636
-600
-185
-261
65
-271
-161
-514
-513
-201
-161
-166
-181
-159
-346
-263
44
39
-257
-286
-268
42
81
54
-296
-139
-162
-343
15
53
2
-333
-360
-332
-315
-360
-172
-180
-359
-261
34
-258
-309
-314
-264
62
113
106
20
-376
-230
-227
-376
-273
-278
-369
-165
-351
38
103
48
-308
-348
-317
-291
-325
-141
-191
-198
-189
-184
-165
-370
-312
-295
-326
-359
-343
-276
57
101
93
49
-265
-303
-288
35
120
-84
-86
-119
113
124
-83
-17
281
263
-61
-118
-109
-39
287
312
320
368
209
561
604
591
555
523
239
213
188
155
356
291
-2
269
311
333
319
297
294
297
279
-23
-76
-115
116
87
35
-308
-161
-253
-538
-244
-189
-172
-184
-174
-372
-303
-281
-303
-324
-321
-331
-131
-210
-254
-240
-207
-203
-232
-516
-516
-242
-235
-256
-549
-563
-253
-379
39
-75
309
248
826
971
1594
1849
1720
1702
1495
1350
859
145
-287
-829
-1543
-2017
-2529
-2767
-3170
-3415
-3711
-3584
-3677
-3058
-2934
-2606
-2017
-1890
-1245
-902
-849
-537
4
-81
-64
-122
-123
-23
362
168
162
163
223
565
597
544
219
228
602
770
889
650
854
808
812
847
858
814
484
428
411
421
450
510
857
677
678
861
790
798
885
728
1041
1055
1049
1036
761
750
764
1048
1063
1055
1037
755
706
648
641
737
1141
960
903
1058
1052
901
990
951
1086
1033
1112
972
987
1146
1052
1064
906
991
1004
966
929
914
904
1136
1099
1054
754
729
730
733
697
869
795
809
642
683
819
582
152
177
587
411
559
358
259
336
216
246
379
-62
49
-291
-354
-160
-203
-214
-214
-232
-519
-533
-517
-243
-520
-593
-433
-503
-771
-485
-458
-464
-490
-496
-469
-446
-477
-807
-853
-811
-452
-635
-399
-480
-794
-789
-496
-472
-466
-457
-449
-476
-794
-835
-797
-435
-599
-587
-392
-467
-512
-776
-499
-448
-628
-561
-533
-540
-552
-551
-547
-546
-525
-212
-152
-136
-163
-158
-320
80
-97
102
-294
-141
-140
-337
-310
-346
-383
-341
32
124
100
-279
-381
-368
-277
29
-271
-332
-302
68
-103
-128
41
4
46
91
63
-276
-328
-300
34
97
107
72
20
-281
-304
-313
-326
-345
-343
-296
30
64
25
-313
-366
-360
-331
-336
-129
-178
-172
-356
-262
52
53
25
28
84
-98
-67
-98
113
118
-78
-18
-6
-32
-43
-19
258
-28
-99
115
-104
-16
299
283
-22
-14
345
226
553
519
177
373
360
355
328
297
300
329
338
301
-2
-12
263
-8
-104
14
-335
-339
-291
-273
-324
-155
-214
-214
-180
-173
-228
-574
-628
-593
-229
-379
-340
-363
-135
-138
-145
-195
-532
-580
-554
-227
-180
-187
-209
-192
-135
-352
-368
-160
-192
-180
-377
8
-9
598
723
1288
1257
1442
1823
1504
1159
883
136
55
-520
-762
-1423
-2010
-2601
-2514
-2720
-2999
-3426
-3340
-2814
-2544
-2592
-2325
-1897
-1372
-657
-604
-152
-279
34
15
-284
-276
46
112
-108
-65
291
176
552
608
611
589
551
250
227
521
619
471
789
797
779
506
493
478
454
422
638
607
611
408
484
788
781
490
490
808
891
675
644
845
829
870
667
683
659
643
670
715
725
686
644
665
760
1130
941
940
905
1135
1129
1116
1065
730
667
656
685
712
709
704
740
1073
1134
1121
1045
731
754
1092
896
1138
1071
762
756
1033
1036
742
669
843
777
493
501
770
483
384
253
163
151
173
151
307
-75
103
97
120
123
102
74
34
-301
-157
-244
-517
-234
-226
-519
-555
-545
-251
-242
-543
-600
-630
-393
-442
-779
-847
-872
-878
-644
-669
-641
-803
-443
-403
-442
-506
-787
-499
-444
-415
-437
-504
-831
-854
-814
-495
-465
-479
-486
-437
-612
-577
-628
-456
-475
-400
-562
-533
-571
-603
-574
-513
-222
-222
-216
-182
-160
-191
-248
-518
-204
-382
-345
-341
-311
17
72
44
-297
-351
-324
-262
11
-282
-313
-293
11
23
-267
-301
-293
-262
1
-287
-326
-336
-323
-312
-309
-292
5
41
34
-265
-288
12
100
-97
-106
105
89
118
-115
109
48
27
64
94
46
-320
-141
-365
-260
71
54
-278
-335
-335
-301
-264
39
121
-31
298
293
-25
-62
-17
337
144
368
276
-36
-2
351
178
205
197
199
226
246
225
159
338
290
284
302
317
323
334
362
131
374
304
-45
-105
-104
-81
-98
83
6
0
72
-115
119
3
-379
-184
-190
-199
-237
-528
-527
-249
-242
-248
-228
-167
-373
-132
-202
-253
-243
-209
-219
-539
-594
-580
-256
-197
-186
-209
-234
-248
-251
-231
-161
-279
-77
171
445
727
994
1236
1431
1517
1656
1297
790
307
-316
-387
-1063
-1574
-1767
-2026
-2406
-2302
-2556
-2807
-3160
-2802
-2824
-2276
-1939
-1819
-1193
-1129
-852
-578
-311
-115
-46
-87
102
84
-117
-12
357
193
250
533
546
557
566
565
559
566
601
409
486
801
816
785
485
479
784
843
842
508
424
423
509
840
818
475
443
794
697
1055
1050
746
745
1055
1104
1084
733
860
497
468
796
678
1055
1098
1074
1054
1092
917
995
1296
1302
1016
959
905
897
941
990
993
951
912
908
917
901
1115
1087
1099
1133
1150
1133
1098
1072
1063
1069
1082
1093
1085
1045
729
684
679
691
675
867
788
491
498
507
464
622
520
204
175
132
309
-46
-126
84
55
31
14
1
-281
-347
-195
-555
-610
-607
-585
-601
-417
-505
-801
-511
-453
-449
-778
-861
-861
-506
-393
-622
-432
-500
-493
-424
-639
-421
-498
-801
-800
-788
-788
-773
-459
-637
-598
-622
-417
-446
-453
-462
-478
-472
-437
-408
-419
-449
-433
-603
-242
-189
-201
-221
-207
-179
-184
-234
-536
-528
-214
-148
-365
-350
-337
-319
-301
-285
-264
8
-262
-326
-161
-228
-230
-173
-359
-312
-286
-262
19
19
-279
-334
-341
-279
59
83
26
-306
-311
30
-125
-101
80
-284
-350
-356
-332
-307
-276
25
60
61
33
20
38
49
12
-313
-354
-342
-324
-356
-165
-191
-145
-332
-302
-314
-312
-264
50
65
34
-259
-268
-257
6
-264
-305
-360
-136
-368
-287
63
-125
-79
-37
-14
-53
108
38
78
-51
296
263
-98
120
-41
371
210
189
361
294
274
286
311
355
163
226
512
244
214
195
201
214
207
170
375
347
359
134
146
382
349
322
288
-40
106
-262
-346
-159
-240
-569
-578
-246
-149
-374
-155
-183
-148
-353
-372
-214
-558
-557
-243
-227
-549
-623
-606
-233
-364
-319
-349
-380
-365
-335
-341
-131
-168
-168
-152
-165
-203
-208
-383
61
334
397
722
999
1190
1539
1267
1372
1067
390
-66
-517
-751
-1580
-2149
-2288
-2435
-2475
-2881
-3185
-3456
-3224
-2978
-2872
-2272
-1939
-1810
-1388
-752
-449
-189
50
-38
-4
-81
100
106
-79
-16
270
315
165
563
417
455
447
445
473
773
815
855
640
667
654
854
786
494
500
776
778
508
769
819
645
717
735
690
872
828
859
693
1032
1049
745
701
729
1079
911
922
1108
760
709
717
756
1047
1068
1086
1106
1123
1135
896
924
946
935
1150
1110
1097
1089
1055
760
1041
908
1312
1374
1320
986
981
1300
1343
1314
996
956
931
1130
1045
735
749
1047
1047
743
700
697
699
653
822
503
503
779
490
637
245
147
363
352
333
293
-19
-78
125
85
64
58
56
42
3
-322
-155
-235
-537
-557
-580
-630
-440
-499
-797
-829
-859
-877
-866
-826
-776
-487
-493
-794
-852
-876
-836
-503
-452
-461
-497
-496
-439
-635
-628
-411
-435
-412
-628
-622
-401
-444
-465
-467
-460
-438
-389
-585
-546
-535
-528
-248
-221
-214
-221
-219
-207
-226
-552
-626
-625
-535
-173
-136
-170
-202
-179
-378
-342
-343
-349
-340
-333
-348
-366
-343
-274
49
66
34
-260
-268
2
9
-263
-292
-316
-324
-317
-295
-267
7
-259
-292
-318
-311
-277
6
-257
-288
-318
-345
-380
-161
-165
-374
-321
-343
-204
-581
-587
-197
-287
39
-269
-351
-366
-304
24
43
11
-286
-310
-326
-349
-364
-348
-310
-296
-348
-184
-237
-198
-364
-313
-347
-150
-141
-303
54
70
-261
-360
-156
-148
-369
-341
-335
-356
-138
-169
-164
-378
-320
-276
4
24
45
59
53
32
10
0
-263
-283
-334
-150
-209
-213
-147
-303
22
30
5
3
39
67
32
-315
-131
-379
-311
-261
-282
-337
-342
2
-119
-20
259
-14
-14
279
311
292
-31
-90
-83
-11
315
327
290
280
361
516
402
455
414
592
539
529
533
254
184
349
299
320
373
129
332
274
285
351
378
310
-55
-113
-93
-59
-66
-96
-99
-86
-123
16
-371
-169
-133
-345
-376
-218
-558
-561
-239
-172
-154
-179
-206
-210
-204
-207
-222
-230
-215
-184
-152
-379
-358
-369
-175
-522
-573
-543
-206
-144
-383
-362
-278
-104
154
485
1110
1167
1590
1609
1561
1233
1326
720
215
-302
-488
-920
-1444
-2027
-2518
-3096
-3333
-3328
-3549
-3844
-3632
-3013
-2904
-2567
-1933
-1479
-1008
-864
-565
-354
29
76
83
125
-27
350
174
212
525
633
493
807
797
511
771
808
844
865
890
670
696
692
669
661
675
681
656
875
874
666
726
747
715
670
656
686
734
1025
1025
744
718
713
726
740
745
761
1070
896
960
968
939
928
957
986
964
905
1138
941
1287
1312
985
896
1144
969
1298
1020
921
1097
1099
897
941
958
978
1005
988
1144
759
703
1025
1148
957
929
1136
1150
972
1288
1004
899
1042
714
669
864
772
419
607
571
546
512
215
176
137
335
257
-79
123
105
104
96
68
27
-276
-329
-138
-216
-551
-617
-413
-468
-796
-867
-890
-831
-463
-626
-597
-614
-620
-591
-560
-574
-637
-450
-488
-500
-770
-791
-799
-774
-469
-424
-400
-388
-634
-632
-396
-430
-445
-423
-390
-393
-445
-500
-492
-407
-556
-238
-231
-227
-182
-368
-332
-366
-192
-525
-561
-564
-560
-561
-562
-553
-528
-226
-150
-307
35
59
12
-313
-332
-288
15
-263
-344
-145
-375
-301
-261
-286
-317
-288
51
-127
-92
-84
-85
-107
94
41
39
79
78
-281
-186
-543
-522
-165
-332
-292
-268
26
63
68
39
7
-260
-258
-268
-297
-331
-349
-339
-305
2
52
74
50
-269
-339
-378
-373
-344
-322
-318
-323
-321
-309
-301
-309
-328
-340
-338
-330
-336
-369
-161
-191
-172
-363
-301
-292
-334
-376
-370
-318
-262
31
61
97
120
101
41
-279
-322
-349
-372
-382
-364
-333
-322
-337
-335
-280
61
110
94
56
51
76
86
51
3
-265
21
45
17
-316
-141
-176
-143
-319
14
48
32
5
6
40
68
58
23
2
11
25
18
-260
-260
33
80
101
91
74
75
88
97
97
96
103
116
-126
-120
117
65
-260
-300
-278
50
118
-109
-103
-82
-36
270
300
314
324
333
333
323
319
334
370
171
247
584
392
421
426
428
433
425
392
600
554
252
191
381
348
375
183
222
191
370
312
321
371
139
342
-22
-120
83
49
-283
-155
-530
-568
-520
-196
-172
-192
-206
-175
-369
-317
-297
-309
-342
-133
-187
-241
-542
-575
-586
-563
-253
-195
-155
-140
-130
-367
-336
-315
-331
-134
-210
-249
-202
-327
115
335
609
702
1350
1440
1889
1872
1655
1303
890
204
-264
-817
-1211
-2142
-2472
-3160
-3206
-3700
-3906
-3787
-3798
-3900
-3327
-3141
-2637
-2139
-1441
-1319
-733
-438
-184
28
-53
332
144
155
155
197
542
630
406
639
601
581
585
601
633
435
770
857
686
764
1084
1105
1070
747
696
694
733
1031
1043
765
724
683
666
688
751
1086
1143
897
1125
1094
1090
1112
1128
1102
1038
732
747
1074
1131
1115
1053
1037
1125
1014
1363
1340
992
933
960
1298
1358
1346
1021
948
920
941
978
990
972
953
956
974
982
968
952
954
969
980
979
966
943
910
1135
1132
1149
1138
1052
657
794
493
497
479
410
587
554
578
613
608
545
184
325
-19
-56
-65
-100
57
-333
-171
-184
-147
-130
-165
-233
-555
-613
-415
-451
-430
-614
-550
-549
-592
-616
-606
-633
-505
-684
-1028
-692
-788
-456
-779
-875
-848
-432
-529
-240
-589
-458
-803
-853
-875
-857
-789
-444
-637
-609
-571
-239
-164
-160
-243
-602
-387
-610
-558
-543
-564
-572
-529
-187
-366
-344
-129
-195
-232
-214
-170
-150
-167
-180
-139
-316
-267
-295
-365
-137
-344
-273
-261
-315
-361
-336
-262
26
-286
-382
-168
-377
-295
3
-268
-285
9
99
-68
-38
-82
81
-275
-347
-375
-367
-348
-338
-332
-317
-290
-267
-261
-259
20
62
80
24
-361
-243
-556
-240
-368
-271
-266
-323
-356
-319
10
45
13
-308
-361
-141
-181
-225
-248
-229
-176
-372
-325
-297
-289
-296
-301
-289
-274
-290
-348
-155
-176
-159
-151
-186
-250
-554
-565
-548
-516
-209
-140
-326
-282
-267
-257
16
26
4
-310
-377
-166
-175
-158
-383
-340
-289
6
12
-268
-286
-265
41
66
30
-303
-366
-134
-142
-162
-176
-146
-320
20
50
23
-265
4
61
115
112
36
-330
-144
-379
-290
39
35
-270
-278
46
123
118
21
-335
-354
-296
30
71
90
101
98
81
77
110
-107
-118
58
-299
-350
-333
-283
19
48
67
82
102
-114
-50
263
266
-49
-126
99
-121
-60
-40
-81
126
-99
308
512
395
409
611
599
409
479
461
619
531
515
528
234
144
343
134
246
567
526
167
340
304
286
-1
-37
-69
-116
52
-304
-358
-345
-322
-357
-186
-242
-226
-185
-195
-254
-539
-221
-365
-299
-320
-378
-136
-349
-306
-315
-370
-165
-178
-174
-191
-234
-521
-247
-193
-147
-149
-196
-516
-568
-595
-577
-242
-350
-127
170
792
929
1545
1800
1895
1533
1222
767
526
55
-422
-980
-1866
-2177
-2553
-2771
-2999
-3598
-3958
-4134
-3769
-3706
-3070
-2694
-2282
-2051
-1266
-1039
-416
-178
-288
66
-123
-98
-107
-116
-72
298
196
598
451
776
801
768
435
621
610
420
786
888
685
689
667
654
674
721
1031
1069
1079
1065
1040
759
738
723
720
728
729
698
885
812
799
875
743
1096
1123
1113
1119
905
954
984
995
996
982
948
914
911
944
986
1014
1293
1333
1373
1374
1317
986
951
969
1004
1012
986
954
940
950
976
1008
1296
1313
1293
982
913
1121
1101
1088
1052
737
687
680
717
765
1040
756
701
654
884
857
786
398
244
137
364
372
349
283
-29
-37
-33
-88
38
-352
-152
-139
-141
-218
-591
-401
-633
-576
-572
-389
-479
-770
-486
-455
-476
-796
-840
-816
-489
-430
-420
-442
-460
-463
-468
-488
-512
-777
-772
-773
-789
-804
-792
-491
-430
-634
-614
-637
-445
-773
-805
-508
-417
-593
-567
-579
-582
-557
-530
-530
-541
-526
-230
-211
-243
-546
-543
-218
-130
-331
-310
-297
-296
-347
-202
-565
-584
-248
-153
-379
-147
-135
-294
86
-125
63
-294
-334
-304
-282
-325
-144
-170
-368
-269
62
99
127
-94
-69
-85
111
40
-261
-269
-259
-262
-290
-328
-346
-328
-290
-266
-273
-299
-320
-321
-303
-274
15
42
46
13
-306
-368
-148
-162
-187
-240
-552
-562
-244
-146
-323
-288
-271
24
84
125
106
18
-363
-217
-524
-248
-183
-378
-354
-362
-376
-377
-367
-345
-312
-284
-290
-340
-145
-156
-349
3
67
68
24
-284
-319
-341
-365
-149
-197
-222
-195
-384
-325
-313
-331
-332
-299
-272
-297
-354
-373
-325
5
37
15
-262
22
82
107
60
-288
-364
-129
-355
-304
0
38
68
89
102
107
100
72
20
-296
-328
-309
-261
25
10
-266
27
118
-74
-112
22
-340
-344
0
109
-71
-38
-30
-33
-32
-12
283
322
335
321
306
318
367
185
513
556
560
551
575
384
440
415
563
189
147
184
235
234
180
367
313
279
272
307
365
133
321
-86
11
-333
-340
-323
-344
-152
-208
-206
-152
-364
-131
-212
-539
-532
-195
-364
-341
-129
-177
-167
-349
-270
7
-316
-182
-548
-581
-529
-181
-377
-382
-171
-214
-236
-247
-513
-235
-138
47
298
599
693
1343
1483
1776
2102
1908
1272
1109
489
132
-346
-738
-1430
-1973
-2299
-2534
-3115
-3294
-3921
-3766
-3556
-3425
-2763
-2642
-1989
-1801
-1354
-719
-423
-185
-257
92
67
-268
-280
98
291
176
214
205
239
580
385
621
561
549
625
487
832
863
856
832
794
480
426
411
447
506
806
825
837
857
881
647
666
682
681
650
865
853
893
704
761
1054
1089
1121
1128
1102
1075
1092
1146
921
1135
1049
737
751
1060
1088
1074
1062
1099
922
987
994
964
950
976
1008
999
950
920
943
986
978
902
1081
1071
1127
922
905
1085
760
747
1048
1103
1119
1079
751
685
892
836
493
398
600
605
625
593
238
132
345
383
178
153
274
77
-338
-134
-352
-301
-308
-370
-182
-221
-249
-552
-614
-395
-387
-622
-627
-401
-419
-414
-410
-431
-454
-447
-434
-483
-868
-744
-768
-674
-819
-792
-833
-840
-500
-385
-597
-394
-479
-789
-810
-835
-872
-890
-870
-829
-803
-789
-498
-427
-603
-557
-559
-590
-628
-408
-437
-438
-392
-568
-253
-253
-550
-570
-530
-194
-132
-382
-169
-234
-543
-559
-527
-205
-148
-134
-158
-176
-154
-357
-306
-283
-285
-301
-323
-355
-137
-167
-166
-377
-307
-259
-264
-300
-303
9
71
60
-284
-358
-342
-264
22
-304
-150
-175
-356
-266
8
-309
-379
-144
-374
-342
-328
-333
-342
-343
-333
-328
-348
-135
-170
-156
-347
-281
-260
-293
-342
-370
-362
-335
-320
-337
-382
-173
-186
-158
-375
-360
-372
-375
-344
-295
-264
-261
-261
13
44
71
84
71
8
-366
-243
-572
-546
-209
-152
-144
-146
-363
-285
42
72
69
54
36
16
-264
-289
-315
-334
-328
-292
9
30
27
31
60
93
98
90
122
-45
303
322
-4
-104
97
121
-51
306
380
140
373
370
186
572
412
392
522
374
287
276
298
304
281
-5
-8
289
352
131
351
-10
123
41
11
4
-276
-336
-155
-195
-163
-325
16
12
-353
-236
-572
-574
-559
-580
-612
-586
-229
-368
-308
-299
-279
39
100
90
0
-376
-211
-255
-519
-240
-188
-133
-371
-378
-344
60
317
601
842
1043
1013
1545
1524
1813
1556
1094
624
269
-299
-488
-1388
-2083
-2604
-2873
-2764
-2947
-3420
-3274
-3429
-3162
-2846
-2268
-2163
-1488
-1325
-724
-460
-242
-316
49
59
12
-268
31
122
-33
316
140
193
220
242
541
599
635
628
600
593
610
616
593
576
615
446
769
510
480
507
877
753
1055
733
876
791
500
496
773
831
656
708
691
885
847
867
658
687
686
681
683
680
662
647
651
664
662
652
657
683
711
729
760
1073
1126
1131
1085
1040
1034
1048
1040
762
1033
1105
924
939
897
1112
1110
1123
1108
1066
1038
1049
1082
1089
1051
735
686
658
883
818
463
630
595
608
605
540
191
153
198
246
185
257
64
-263
62
-92
-71
108
3
-317
-337
-349
-375
-159
-201
-246
-546
-579
-591
-593
-607
-386
-427
-453
-462
-478
-512
-806
-814
-776
-455
-407
-406
-443
-479
-487
-481
-496
-797
-837
-827
-775
-480
-494
-789
-782
-446
-599
-558
-602
-416
-448
-436
-418
-410
-392
-603
-554
-543
-573
-598
-578
-520
-217
-208
-229
-254
-529
-541
-539
-254
-198
-137
-353
-343
-354
-370
-130
-145
-157
-156
-136
-360
-337
-339
-353
-351
-318
-272
8
-257
-281
-291
-279
-263
-259
-270
-285
-289
-273
13
35
33
20
35
95
-92
-75
125
43
0
10
20
-271
-338
-380
-365
-318
-286
-291
-310
-308
-273
29
48
16
-312
-374
-375
-303
45
86
51
-276
-321
-314
-278
0
-263
-282
-288
-267
23
41
20
-288
-333
-326
-268
50
71
49
22
11
0
-283
-301
-273
50
95
66
-271
-324
-294
56
-106
-48
-17
-3
-9
-41
-66
-43
279
322
286
-63
-116
-58
337
201
237
217
211
241
520
231
152
339
319
330
334
318
304
311
336
363
128
136
362
279
-89
86
67
76
47
-287
-361
-378
-361
-382
-212
-561
-581
-518
-187
-166
-195
-222
-215
-185
-162
-157
-164
-169
-166
-150
-380
-363
-381
-169
-195
-163
-357
-341
-157
-516
-536
-154
66
298
515
507
1067
1373
1597
1431
1630
1159
1049
601
-79
-198
-887
-1224
-2150
-2654
-2856
-2895
-2788
-3382
-3688
-3686
-3350
-2903
-2294
-2020
-1681
-1227
-766
-427
-223
-326
87
-39
-3
-61
116
108
-58
338
200
514
536
564
616
417
449
447
431
436
481
801
831
790
441
629
396
501
867
657
647
895
663
694
687
895
845
817
804
790
782
806
862
663
691
697
712
749
1049
1078
1088
1084
1068
1043
765
758
764
759
726
680
663
700
1033
1108
896
897
1124
1094
1095
1139
935
940
1141
1079
1075
1130
924
922
1148
1151
948
993
965
1119
753
711
750
1073
1090
1026
665
860
885
701
731
672
820
482
443
401
566
185
343
307
304
285
-30
-121
32
-317
-380
-146
-141
-148
-191
-256
-560
-574
-570
-577
-603
-634
-404
-435
-482
-796
-844
-863
-847
-807
-503
-469
-469
-506
-809
-828
-801
-496
-470
-497
-821
-884
-646
-874
-831
-809
-816
-832
-826
-789
-478
-427
-395
-385
-389
-395
-389
-626
-604
-589
-583
-577
-565
-558
-564
-580
-588
-579
-568
-567
-560
-522
-198
-139
-130
-164
-190
-176
-144
-138
-166
-184
-155
-357
-337
-369
-148
-382
-306
17
22
-277
-307
-290
14
58
84
96
89
52
-267
-332
-369
-365
-333
-292
2
22
25
22
27
37
36
14
-274
-298
-324
-375
-191
-232
-188
-328
26
19
-339
-172
-149
-277
105
-125
58
-282
-299
5
57
60
10
-318
-368
-369
-320
-261
14
-283
-341
-346
-272
79
120
83
18
-274
-274
-278
-306
-340
-354
-357
-382
-184
-232
-225
-153
-309
37
111
-72
-6
282
270
-12
-6
286
303
258
-86
110
126
-54
286
349
148
208
255
518
232
198
183
174
141
334
265
-39
-59
-56
-39
-17
-7
-17
-34
-35
-14
264
266
-11
-47
-104
67
-290
-381
-193
-250
-561
-594
-582
-534
-239
-234
-232
-188
-352
-264
19
-273
-335
-131
-174
-214
-250
-523
-521
-256
-252
-256
-520
-525
-526
-527
-528
-521
-238
-188
-129
-304
108
133
781
916
1194
1587
1614
1265
981
490
-77
-548
-656
-1339
-1694
-2609
-2782
-3135
-3109
-2976
-3259
-3697
-3303
-3165
-2499
-2203
-1935
-1818
-1350
-658
-602
-136
30
-102
-60
-87
-101
-32
361
230
555
587
627
426
469
480
474
468
467
466
474
505
804
829
823
819
849
645
673
662
658
713
1068
1136
1122
1054
749
752
1032
1027
735
705
702
709
694
657
891
666
750
1108
929
958
942
904
1127
1122
1145
913
906
1120
1080
1083
1133
937
971
972
964
966
973
964
933
1149
1132
907
974
1290
1303
1017
983
972
976
977
988
1021
1306
1020
920
1079
1066
1117
1134
1060
699
665
705
718
885
485
390
630
625
557
187
350
309
284
-18
-70
-96
-108
96
-269
-382
-171
-152
-149
-225
-599
-403
-619
-550
-558
-405
-770
-788
-457
-639
-388
-461
-783
-792
-499
-461
-445
-450
-470
-773
-842
-896
-888
-823
-504
-505
-823
-879
-871
-814
-774
-790
-828
-829
-775
-461
-459
-511
-810
-787
-450
-624
-589
-596
-606
-589
-552
-518
-239
-222
-206
-189
-173
-172
-197
-245
-541
-536
-234
-194
-191
-195
-147
-299
44
49
1
-267
45
92
38
-361
-225
-228
-140
-317
-308
-342
-356
-330
-293
-277
-284
-293
-290
-280
-276
-283
-291
-285
1
43
68
57
19
-274
-287
-277
-267
-266
-265
6
26
22
-277
-334
-354
-313
16
62
42
-284
-353
-384
-377
-366
-378
-155
-177
-160
-369
-323
-294
-270
28
79
99
60
-272
-332
-343
-322
-305
-302
-294
-264
38
83
117
-125
124
98
69
52
40
3
-321
-135
-163
-133
-326
-263
47
93
124
117
75
44
75
-91
-8
259
-50
-87
-43
323
167
203
195
196
221
232
198
140
368
133
167
167
128
348
344
358
362
353
349
361
365
340
290
-15
-59
-118
59
-264
-282
-258
10
-286
-357
-146
-142
-382
-147
-211
-538
-579
-584
-564
-528
-226
-186
-172
-183
-204
-220
-234
-244
-237
-203
-163
-162
-224
-572
-620
-585
-256
-223
-515
-568
-558
-202
-289
-59
251
888
995
1238
1605
1643
1613
1168
752
210
-274
-389
-1065
-1437
-2183
-2767
-3030
-3371
-3279
-3568
-3762
-3903
-3253
-2793
-2666
-2311
-1883
-1391
-693
-636
-181
-297
55
94
95
117
-59
315
163
237
562
639
448
470
444
403
639
403
461
802
893
706
740
754
763
766
746
701
657
641
662
710
1028
1088
1115
1097
1063
1066
1121
910
1132
1027
674
649
676
693
684
692
751
1088
1134
1129
1106
1095
1101
1122
908
967
1014
1014
981
968
1010
1338
1385
1385
1361
1339
1318
1287
1006
1022
1338
1392
1387
1322
995
968
981
1001
1004
985
948
899
1101
1065
1064
1089
1116
1128
1122
1098
1051
730
667
879
842
785
437
590
253
210
186
153
354
288
-24
-60
-85
-120
67
-296
-152
-220
-222
-188
-183
-244
-598
-411
-417
-392
-394
-441
-497
-781
-794
-830
-645
-711
-726
-689
-641
-871
-868
-869
-866
-850
-810
-488
-419
-387
-410
-462
-493
-479
-443
-421
-428
-443
-436
-406
-631
-619
-612
-581
-523
-221
-234
-564
-637
-399
-623
-602
-631
-431
-454
-419
-615
-578
-573
-568
-539
-242
-219
-219
-221
-204
-186
-190
-215
-217
-157
-308
28
29
-285
-327
-302
18
56
34
-279
-326
-343
-343
-332
-301
10
63
79
50
5
-272
-265
6
10
1
-268
-279
-294
-319
-354
-131
-152
-155
-148
-147
-163
-194
-218
-213
-170
-361
-305
-281
-293
-318
-325
-300
-261
16
-258
-304
-351
-382
-143
-157
-169
-160
-376
-314
3
37
42
32
18
3
-278
-318
-367
-153
-182
-198
-203
-186
-136
-320
-258
21
0
-293
-319
-318
-297
-265
25
47
39
-263
-334
-142
-170
-160
-138
-132
-142
-140
-350
-263
84
-116
-90
-66
-28
264
267
-16
-35
-14
289
311
283
-23
-38
-6
289
287
260
277
129
541
639
616
520
199
216
512
217
330
-84
107
-94
261
323
338
356
148
193
185
378
294
-50
105
-266
-364
-158
-180
-221
-550
-602
-571
-208
-362
-341
-140
-202
-221
-209
-212
-248
-552
-571
-551
-522
-517
-538
-562
-563
-538
-244
-216
-229
-550
-635
-425
-396
-574
-253
-227
-196
-361
63
289
565
647
1280
1620
1832
1864
1456
1401
728
527
67
-437
-1323
-2069
-2528
-3043
-3594
-3551
-3796
-4027
-4083
-4129
-3469
-3012
-2827
-2379
-1888
-1372
-643
-530
-296
72
113
-118
-68
256
318
367
174
535
416
795
856
846
801
511
768
798
832
855
868
877
888
650
677
710
733
736
733
756
1077
899
939
916
1118
1087
1096
1110
1095
1060
1048
1081
1127
1136
1102
1064
1062
1089
1110
1100
1075
1062
1071
1095
1125
907
954
1005
1304
1327
1320
1023
965
936
970
1310
1380
1389
1354
1342
1392
1209
1234
1186
1360
1295
995
947
1145
1115
1142
948
994
1005
1005
1013
1012
960
1113
754
703
701
689
875
504
407
633
408
448
444
636
533
173
354
316
295
259
-72
88
13
-263
8
-258
-335
-200
-553
-588
-583
-596
-392
-450
-467
-430
-637
-624
-407
-470
-774
-793
-798
-818
-854
-875
-847
-777
-461
-457
-505
-808
-806
-502
-456
-461
-776
-844
-874
-847
-789
-479
-441
-416
-410
-443
-770
-831
-818
-460
-590
-519
-519
-536
-523
-240
-245
-546
-587
-590
-571
-565
-572
-552
-230
-148
-347
-319
-295
-271
-279
-338
-156
-183
-145
-340
-308
-307
-304
-284
-269
-281
-301
-292
-264
-265
-325
-141
-147
-329
4
5
-316
-359
-315
37
93
66
4
-275
14
51
43
-266
-322
-353
-368
-378
-371
-328
-259
46
37
-273
-323
-335
-317
-311
-340
-384
-155
-156
-152
-160
-173
-170
-149
-133
-143
-169
-176
-141
-329
-264
21
5
-300
-357
-142
-150
-381
-343
-321
-320
-313
-265
76
-116
123
24
-344
-140
-381
-355
-368
-157
-186
-166
-355
-267
68
116
112
57
-273
-320
-320
-290
-269
-275
-301
-321
-314
-280
15
25
3
-265
31
107
-115
80
-282
-314
42
-54
297
280
-32
-38
271
323
333
327
347
132
162
176
201
515
586
631
636
623
607
577
512
168
360
355
146
200
217
190
146
368
342
310
276
260
263
-13
-99
26
-328
-336
-291
-297
-150
-560
-392
-623
-541
-225
-207
-182
-376
-306
-286
-331
-143
-183
-186
-186
-214
-518
-555
-552
-515
-213
-185
-185
-201
-211
-210
-218
-248
-544
-552
-235
-361
80
325
390
1028
1404
1445
1867
1881
1464
1375
891
352
-193
-1032
-1434
-2377
-2707
-3370
-3652
-3920
-4197
-4379
-4095
-4102
-3463
-3034
-2840
-2366
-1881
-1156
-723
-591
-277
-71
277
293
291
304
343
148
236
604
456
780
794
779
776
807
851
885
647
669
704
722
693
884
842
878
720
1072
1116
1113
1092
1063
754
678
872
865
659
725
1027
1054
1090
1151
967
1023
1304
1298
1007
945
1129
1083
1099
918
1004
1296
1009
952
929
962
1282
1329
1336
1315
1292
1287
1298
1310
1308
1295
1281
1022
1285
1289
1283
1021
1285
1306
1325
1327
1312
1287
1000
963
925
902
910
943
971
959
1151
1066
757
752
759
713
852
452
605
559
528
210
377
305
273
260
-25
-77
121
64
1
-319
-358
-353
-334
-365
-216
-601
-407
-634
-576
-581
-414
-779
-831
-811
-511
-501
-786
-812
-794
-479
-430
-440
-769
-847
-864
-810
-488
-487
-821
-655
-675
-864
-771
-472
-503
-816
-840
-815
-781
-775
-790
-777
-458
-634
-589
-591
-602
-584
-551
-542
-569
-603
-613
-605
-607
-624
-633
-611
-561
-248
-202
-171
-154
-149
-152
-154
-147
-382
-352
-329
-331
-363
-152
-178
-167
-384
-342
-311
-291
-286
-301
-331
-351
-339
-308
-297
-326
-369
-379
-342
-293
-278
-305
-344
-368
-375
-384
-142
-147
-379
-324
3
64
92
85
63
51
47
24
-295
-376
-173
-168
-139
-138
-177
-212
-192
-378
-319
-325
-138
-215
-245
-213
-139
-315
-270
-292
-129
-245
-565
-531
-180
-367
-380
-181
-186
-347
46
119
79
-276
-351
-373
-379
-153
-205
-241
-239
-206
-155
-349
-285
18
27
-258
-308
-353
-384
-145
-149
-147
-138
-377
-349
-316
-294
-287
-278
9
51
61
14
-318
-359
-330
-260
47
51
30
16
16
25
49
96
-108
-89
-124
69
35
67
-103
-6
316
331
307
286
314
147
249
560
549
250
214
182
128
322
297
336
141
158
381
360
149
235
540
251
171
363
341
334
301
-25
-111
75
41
33
19
-289
-371
-187
-215
-214
-226
-521
-548
-523
-206
-175
-216
-559
-629
-385
-605
-554
-522
-523
-551
-570
-540
-205
-379
-349
-375
-151
-149
-381
-131
-190
-520
-549
-253
-171
-338
19
-67
225
889
1335
1437
1849
1505
1221
1101
457
308
-183
-1056
-1493
-2401
-2928
-3329
-3650
-3922
-4134
-3995
-3985
-3819
-3489
-3035
-2521
-2004
-1492
-983
-773
-167
24
103
-105
-60
-35
-38
-28
308
197
600
432
459
465
477
494
496
476
446
432
459
784
865
650
879
821
809
877
726
1037
752
697
700
1039
1133
1141
1035
881
787
819
688
1065
1097
1043
722
723
1044
1111
1126
1099
1087
1117
907
923
901
1136
914
1000
1339
1352
1285
937
1145
908
959
997
1002
992
986
996
1282
1329
1377
1394
1366
1315
1023
1017
1023
1016
995
984
998
1021
1022
986
922
1111
1059
763
728
690
650
854
784
446
635
606
607
595
531
171
332
282
263
-21
-82
95
29
-266
-293
-334
-153
-244
-559
-553
-241
-205
-249
-617
-473
-786
-806
-837
-641
-699
-711
-672
-870
-820
-791
-781
-787
-801
-821
-847
-888
-690
-745
-767
-738
-666
-846
-809
-820
-839
-812
-477
-405
-399
-457
-511
-774
-512
-807
-882
-653
-833
-455
-393
-427
-484
-474
-393
-574
-564
-599
-615
-587
-534
-231
-190
-145
-363
-358
-136
-186
-216
-225
-244
-549
-606
-615
-533
-382
17
75
32
-318
-141
-171
-166
-160
-175
-216
-527
-568
-554
-208
-326
36
54
3
-293
-276
22
22
-293
-368
-155
-163
-160
-155
-139
-368
-344
-331
-317
-297
-289
-322
-135
-206
-245
-243
-213
-177
-158
-168
-191
-187
-144
-354
-354
-144
-175
-140
-316
-266
-290
-353
-378
-330
-258
7
-338
-217
-548
-252
-134
-289
-272
-317
-359
-362
-345
-351
-384
-161
-170
-154
-384
-349
-301
2
12
-286
-354
-141
-133
-357
-355
-145
-197
-188
-344
55
-107
-127
19
-339
-342
12
-126
-76
-103
115
126
-78
-44
-57
-88
-87
-49
-5
288
341
176
534
592
583
529
211
149
329
-15
-86
-108
-72
-1
330
136
171
168
129
319
-19
-110
44
-310
-129
-174
-197
-212
-224
-222
-195
-161
-145
-163
-206
-245
-520
-514
-235
-197
-145
-349
-326
-354
-162
-216
-221
-188
-173
-212
-548
-614
-620
-560
-210
-135
-384
-189
-521
-530
-179
-284
121
282
549
711
1179
1526
1901
1822
1635
1392
1087
440
-41
-612
-1000
-1902
-2185
-2817
-3091
-3372
-3683
-3918
-3950
-3497
-3411
-2764
-2610
-2173
-1459
-1020
-649
-631
-201
-358
-294
17
67
109
-92
256
380
242
572
616
405
436
402
554
207
224
614
770
851
852
850
642
702
707
643
835
842
657
709
680
848
787
813
645
728
1026
1040
1054
1055
760
684
878
880
687
754
1031
745
706
695
715
746
1027
1044
1057
1068
1074
1091
1138
954
1006
981
1139
1042
1029
1097
903
1144
1091
1108
976
1373
1406
1321
970
949
961
913
1054
713
737
1075
1104
1037
691
662
687
700
664
853
777
435
607
574
625
453
463
612
200
357
341
338
280
-70
119
95
59
-286
-133
-169
-373
-319
-362
-242
-618
-630
-564
-542
-624
-484
-776
-455
-392
-422
-779
-846
-818
-480
-437
-473
-800
-842
-842
-837
-861
-642
-657
-896
-882
-649
-694
-704
-644
-806
-498
-779
-837
-852
-801
-471
-440
-465
-507
-512
-460
-630
-563
-560
-622
-442
-465
-414
-596
-568
-598
-638
-640
-617
-605
-603
-567
-227
-155
-168
-514
-581
-536
-147
-296
-295
-366
-160
-141
-345
-323
-350
-134
-145
-379
-345
-328
-338
-363
-375
-350
-295
15
34
14
-279
-315
-351
-132
-157
-154
-384
-364
-371
-136
-136
-356
-297
7
14
-290
-380
-213
-249
-219
-176
-182
-233
-249
-161
-268
72
18
-362
-161
-358
-283
-305
-161
-246
-222
-134
-337
-350
-373
-348
-292
-261
-283
-336
-129
-155
-147
-363
-316
-308
-362
-184
-213
-157
-309
30
55
37
11
8
41
108
-74
-41
-83
80
8
12
80
-115
-109
115
98
122
-96
-71
-51
-3
331
139
153
132
380
139
132
318
-43
-94
-45
307
358
332
290
303
360
136
355
288
-8
-28
-89
45
-337
-136
-372
-351
-381
-177
-192
-159
-384
-140
-169
-159
-356
-300
-318
-167
-561
-393
-639
-545
-181
-382
-138
-166
-142
-298
79
-119
88
-289
-149
-209
-217
-212
-209
-177
-328
123
132
433
747
1321
1623
1843
1879
1413
1015
833
209
115
-618
-1010
-1667
-2365
-2287
-2633
-2825
-3113
-3067
-3068
-3152
-2923
-2686
-2401
-2051
-1437
-1384
-1108
-807
-226
49
-56
-30
-58
-69
-32
312
183
569
390
385
586
548
566
607
609
554
239
243
582
437
503
496
448
427
483
863
723
748
660
785
455
489
847
674
687
895
836
816
850
660
710
706
652
851
850
660
749
1060
1060
1028
750
756
1032
1042
1033
759
746
748
764
1047
1073
1083
1071
1042
760
755
1037
1078
1112
1118
1091
1044
745
730
754
1061
1112
1129
1103
1066
1072
1144
979
995
1150
735
885
880
660
643
814
482
487
800
810
454
540
138
325
314
302
-5
-93
67
-257
-271
25
85
113
74
-274
-369
-167
-176
-170
-179
-206
-239
-528
-557
-572
-562
-545
-567
-395
-501
-807
-772
-453
-447
-773
-847
-850
-786
-464
-447
-470
-499
-787
-836
-646
-693
-687
-888
-816
-503
-464
-427
-631
-562
-238
-197
-199
-239
-548
-585
-598
-595
-588
-579
-562
-539
-526
-535
-553
-545
-231
-142
-340
-352
-152
-181
-146
-335
-305
-340
-151
-192
-186
-160
-145
-147
-139
-347
1
108
-66
-35
-50
-83
-108
-116
-117
-127
97
39
-279
-312
-298
-260
27
50
93
-97
-57
-93
69
3
21
87
114
63
-278
-333
-344
-338
-333
-323
-314
-325
-358
-373
-329
14
85
104
95
100
120
115
63
-261
-297
-282
16
49
61
59
53
48
45
46
41
25
5
-257
16
38
44
32
22
31
48
46
10
-295
-324
-314
-267
65
-100
-17
290
299
281
261
-3
261
283
325
380
169
189
198
234
566
387
404
594
224
380
326
311
319
341
375
152
163
142
355
306
-8
-85
73
-285
-371
-180
-223
-235
-205
-144
-342
-318
-324
-335
-335
-340
-369
-155
-168
-384
-317
-276
-290
-336
-368
-363
-342
-343
-383
-179
-210
-207
-186
-175
-181
-195
-206
-201
-184
-158
-367
-271
-79
228
865
962
1204
1583
1615
1545
1315
666
222
116
-168
-781
-1303
-1873
-2003
-2392
-2197
-2671
-2792
-3355
-3383
-3155
-2852
-2581
-2032
-1882
-1381
-654
-570
-354
54
-83
-16
-14
-44
-51
-3
333
156
218
520
557
584
596
595
584
567
559
584
406
774
854
852
781
460
461
771
815
813
792
802
851
893
888
855
846
886
689
725
733
738
754
758
727
679
653
666
691
696
688
699
737
1038
1075
1119
931
1000
1017
968
1148
1106
1116
1146
898
1134
1106
1093
1102
1121
1132
1120
1093
1082
1115
930
999
1287
1022
1008
1016
1295
1307
1282
958
1111
750
687
693
739
753
687
831
507
793
877
657
851
485
410
393
630
541
138
261
-59
-79
-122
31
-352
-185
-205
-180
-161
-181
-230
-528
-538
-530
-544
-592
-634
-618
-557
-536
-622
-776
-886
-890
-835
-809
-830
-839
-788
-462
-436
-466
-496
-487
-460
-464
-503
-799
-816
-816
-822
-832
-827
-795
-495
-462
-457
-475
-493
-486
-443
-640
-596
-582
-588
-595
-597
-600
-599
-580
-537
-221
-163
-377
-358
-354
-343
-313
-281
-288
-354
-183
-222
-189
-130
-369
-151
-194
-190
-141
-354
-355
-137
-167
-158
-365
-304
-261
4
-270
-296
-307
-290
10
61
78
35
-304
-362
-344
-273
28
-258
-327
-353
-308
7
14
-274
-277
40
114
123
51
-300
-347
-330
-282
11
19
9
-265
-278
-280
-276
-272
-277
-294
-321
-347
-361
-357
-347
-345
-351
-352
-341
-334
-352
-136
-168
-167
-139
-360
-325
-277
39
81
77
44
24
47
92
110
72
-259
-329
-359
-341
-295
-257
4
-272
-285
-264
44
93
124
-109
-76
-47
-45
-66
-75
-48
-15
-21
-63
-90
-58
266
314
324
337
139
233
564
580
546
242
202
162
366
307
265
261
289
313
304
275
269
311
371
134
347
278
-27
-60
-120
32
-334
-149
-181
-225
-570
-408
-440
-387
-552
-232
-207
-179
-377
-316
-313
-382
-214
-252
-228
-199
-218
-538
-593
-595
-552
-252
-234
-237
-242
-245
-517
-549
-567
-525
-154
8
-52
198
781
1142
1184
1610
1414
1645
1231
1110
535
-327
-819
-978
-1474
-2343
-2891
-3180
-2994
-3340
-3593
-3870
-3905
-3604
-3132
-2452
-2385
-2061
-1648
-932
-779
-218
-259
-106
-12
270
-8
-37
-24
314
197
603
445
452
391
594
622
482
880
716
729
703
688
698
700
662
849
791
777
806
857
655
708
752
1036
1043
1038
1028
753
724
703
713
754
1042
1028
729
715
765
1096
1128
1090
1037
1045
1129
977
1283
1001
944
914
937
989
1286
1288
1000
954
917
1149
1140
899
941
996
1284
1017
985
986
1300
1378
1159
1387
1329
1293
1282
1002
941
1133
1117
1151
922
1146
1065
739
720
735
741
711
657
859
822
809
811
798
484
390
559
249
202
359
-63
22
-333
-340
-304
-283
-292
-308
-315
-323
-345
-382
-171
-224
-545
-623
-445
-503
-784
-776
-493
-467
-454
-455
-465
-480
-493
-490
-463
-422
-400
-416
-455
-490
-510
-790
-829
-857
-837
-511
-443
-428
-468
-506
-486
-407
-581
-555
-594
-400
-432
-412
-619
-573
-546
-529
-256
-236
-215
-199
-198
-221
-513
-526
-231
-160
-371
-129
-166
-166
-370
-317
-309
-334
-354
-369
-150
-206
-219
-134
10
108
97
25
-268
21
66
55
-275
-358
-138
-373
-322
-269
30
65
96
118
113
70
-258
-327
-367
-377
-378
-379
-366
-328
-284
-266
-284
-311
-318
-313
-324
-348
-348
-299
27
62
41
5
1
25
25
-292
-141
-232
-515
-218
-141
-324
-279
-261
4
15
27
30
18
-266
-310
-366
-156
-162
-380
-327
-292
-275
8
56
87
58
-286
-373
-146
-372
-336
-331
-352
-370
-370
-361
-349
-320
-268
39
45
-264
-337
-364
-327
-266
27
39
57
90
105
82
48
55
105
-111
-117
117
-126
-75
-35
-36
-45
-19
283
299
269
-10
277
348
148
173
206
535
614
632
572
228
175
168
164
133
339
301
298
331
138
212
529
551
528
216
152
341
260
-97
59
-268
-299
-315
-346
-145
-200
-216
-181
-376
-332
-332
-367
-150
-160
-141
-369
-356
-367
-146
-197
-513
-562
-582
-564
-528
-238
-210
-179
-151
-137
-142
-149
-151
-167
-207
-240
-213
-371
23
-61
197
846
1306
1414
1818
1511
1598
1332
678
163
-370
-859
-1368
-1737
-2683
-2984
-3272
-3635
-3512
-3740
-4166
-3826
-3467
-2994
-2818
-2181
-1769
-1545
-1056
-389
-355
80
-73
-16
285
348
177
516
568
593
618
403
443
448
414
639
402
476
824
643
694
733
1026
1055
1061
1037
731
680
666
713
1055
1124
1137
1107
1081
1087
1116
1146
911
919
898
1096
764
711
710
745
1044
1091
1151
965
1011
1007
970
941
949
985
1016
1018
993
973
996
1323
1406
1198
1193
1166
1403
1383
1334
1008
961
966
997
1014
1022
1325
1168
1257
1256
1162
1308
998
990
968
898
1067
760
763
1056
1099
1129
1131
1091
753
653
823
500
435
616
549
518
527
537
243
148
296
-37
-85
110
0
-143
-520
-571
-550
-239
-195
-196
-248
-585
-402
-442
-457
-473
-506
-802
-828
-837
-833
-813
-772
-464
-426
-413
-408
-640
-609
-613
-417
-497
-790
-510
-471
-481
-807
-882
-649
-867
-805
-502
-483
-479
-472
-462
-449
-434
-411
-626
-572
-524
-245
-249
-522
-535
-542
-552
-561
-558
-539
-514
-241
-225
-195
-145
-339
-275
40
72
49
-287
-376
-151
-371
-328
-343
-154
-207
-201
-154
-369
-343
-308
2
43
41
5
-274
-266
12
21
12
1
-260
-271
-297
-322
-319
-281
19
29
-258
-295
-290
14
54
45
6
2
52
98
62
-317
-190
-238
-201
-149
-139
-164
-177
-149
-347
-292
-260
-258
-288
-347
-169
-245
-559
-591
-588
-537
-184
-334
-268
-259
-274
-268
18
27
-276
-349
-384
-351
-292
-264
-281
-298
-278
23
43
18
-288
-333
-363
-378
-369
-326
-268
21
4
-293
-309
-282
15
31
14
-268
-285
-295
-310
-327
-329
-301
6
56
72
38
-275
-297
7
97
-99
-106
119
-128
-74
-38
-67
-118
-107
-15
332
332
257
-44
269
137
227
241
228
255
576
615
592
532
237
234
231
198
141
351
335
340
353
377
159
200
212
172
345
267
-16
270
303
265
-119
-271
-352
-340
-311
-364
-251
-386
-413
-589
-241
-222
-516
-524
-191
-324
8
-273
-369
-215
-539
-582
-615
-629
-613
-576
-550
-546
-542
-247
-174
-366
-359
-145
-182
-160
-330
34
-107
309
576
694
1346
1650
1525
1463
1227
1120
439
256
-218
-1056
-1513
-2248
-3085
-3434
-3646
-3869
-4131
-4055
-4028
-3793
-3696
-3038
-2832
-2041
-1484
-994
-873
-582
-338
125
269
334
346
350
129
204
556
390
448
474
476
463
444
435
455
773
864
695
755
1049
1083
1106
1088
753
642
826
848
692
1058
1112
1095
1044
763
1052
1129
947
971
936
1132
1094
1098
1133
911
926
914
1139
1107
1104
1145
944
964
937
920
983
1375
1239
1246
1395
1017
983
1309
1407
1185
1382
1020
944
950
1283
1369
1404
1378
1336
1327
1362
1405
1162
1392
1350
1314
1288
995
926
1087
751
725
744
751
701
873
825
853
662
683
884
794
471
440
410
604
248
382
261
-93
111
99
86
27
-334
-178
-221
-212
-200
-222
-528
-584
-633
-422
-449
-436
-390
-616
-390
-470
-798
-818
-798
-776
-508
-486
-448
-433
-477
-819
-886
-889
-851
-821
-825
-835
-816
-505
-443
-400
-389
-404
-436
-473
-502
-771
-512
-497
-472
-434
-639
-576
-256
-210
-200
-233
-548
-590
-579
-518
-199
-188
-233
-538
-533
-210
-133
-357
-380
-164
-184
-182
-188
-216
-245
-245
-201
-138
-356
-365
-141
-146
-350
-259
69
83
44
-262
-295
-306
-302
-283
4
29
23
-271
-307
-308
-272
17
13
-283
-326
-346
-352
-370
-159
-211
-228
-199
-149
-378
-132
-152
-138
-338
-275
3
-284
-340
-130
-152
-151
-137
-372
-346
-321
-300
-284
-285
-310
-356
-158
-210
-242
-243
-219
-194
-197
-222
-220
-147
-280
54
19
-351
-181
-170
-363
-341
-130
-180
-162
-345
-291
-304
-356
-130
-364
-312
-268
5
-263
-293
-323
-332
-313
-279
-257
3
6
14
11
-270
-301
-301
-266
20
9
-281
-289
3
47
60
64
106
-69
-13
-30
-83
-90
-25
307
325
295
286
329
130
151
149
182
527
623
407
386
610
594
575
518
172
343
292
265
-12
-30
-33
-9
295
359
163
185
136
282
-89
93
52
-260
-356
-202
-517
-527
-527
-547
-567
-545
-216
-140
-371
-150
-205
-227
-206
-170
-164
-206
-528
-571
-567
-530
-233
-199
-163
-381
-355
-356
-379
-154
-186
-226
-522
-525
-195
-280
-20
558
658
1017
1602
1842
1908
1479
1332
808
284
-214
-764
-1418
-2355
-2918
-3046
-3599
-3925
-4008
-4463
-4404
-4122
-3493
-3364
-2935
-2408
-1817
-1009
-833
-519
-284
-112
-24
-26
-62
-59
270
380
225
572
413
508
810
773
432
638
415
503
845
645
682
710
715
686
651
652
699
757
1040
1032
764
1031
1060
1084
1084
1068
1044
761
736
727
750
1059
1115
1148
897
1146
1141
1138
1133
1136
903
940
965
959
936
933
974
1297
1349
1366
1360
1356
1363
1372
1372
1367
1365
1369
1369
1353
1309
985
919
1150
933
1007
1305
1288
995
1001
1306
1335
1299
983
968
990
963
1093
685
883
677
730
691
855
819
868
643
808
622
211
159
147
322
-99
3
-309
-287
-275
-315
-367
-366
-317
-296
-362
-228
-575
-586
-565
-596
-443
-805
-837
-794
-499
-784
-854
-894
-872
-829
-819
-837
-836
-802
-776
-797
-850
-880
-870
-858
-886
-686
-717
-688
-872
-803
-510
-507
-781
-801
-803
-774
-462
-408
-640
-397
-424
-437
-429
-410
-388
-613
-575
-555
-578
-628
-390
-592
-244
-197
-236
-565
-589
-546
-242
-247
-534
-519
-175
-324
-275
-304
-365
-148
-150
-137
-141
-171
-219
-515
-525
-245
-202
-159
-378
-344
-314
-303
-319
-352
-129
-157
-189
-228
-255
-250
-221
-202
-213
-229
-200
-373
-285
-260
-313
-134
-175
-173
-162
-175
-206
-238
-521
-550
-579
-589
-564
-513
-198
-144
-361
-347
-369
-169
-233
-525
-523
-254
-531
-595
-392
-617
-235
-342
-269
-297
-355
-370
-350
-367
-195
-544
-563
-251
-189
-170
-174
-157
-381
-366
-369
-352
-309
-294
-357
-202
-244
-185
-349
-315
-345
-352
-279
85
-122
95
33
25
74
125
-116
123
104
98
115
-93
-15
317
357
365
380
169
211
203
145
348
341
363
369
337
287
-1
259
301
363
149
130
305
-52
123
53
-294
-147
-217
-217
-194
-218
-548
-590
-534
-163
-353
-142
-252
-596
-621
-602
-572
-535
-235
-204
-212
-254
-538
-247
-162
-350
-346
-137
-176
-171
-143
-140
-187
-514
-573
-605
-603
-554
-171
50
357
472
1133
1538
1885
2077
1766
1458
1006
817
182
36
-777
-1231
-1924
-2679
-2722
-2977
-3301
-3878
-3761
-3893
-3596
-3014
-2696
-2565
-2066
-1270
-1073
-508
-555
-383
13
79
67
48
107
260
183
570
631
398
420
442
444
420
390
626
622
632
396
417
435
451
471
489
488
464
453
501
868
721
750
685
856
827
860
888
857
796
786
858
699
738
707
676
705
1027
1058
1033
747
765
1065
1073
1033
751
1049
1127
899
1104
1034
762
1052
1072
1047
764
1040
1093
1118
1092
1057
1062
1094
1096
1059
1037
1069
1117
1117
1078
1083
915
1002
977
1098
723
711
748
709
833
469
484
829
854
488
572
189
139
374
335
276
-50
124
39
-271
-262
47
89
79
33
-258
-277
-317
-147
-248
-555
-543
-537
-612
-497
-855
-839
-492
-444
-491
-822
-826
-499
-445
-479
-833
-649
-647
-852
-802
-782
-803
-864
-685
-722
-677
-830
-499
-512
-840
-881
-833
-472
-391
-636
-418
-454
-460
-454
-465
-506
-813
-841
-832
-798
-511
-502
-504
-484
-417
-566
-204
-152
-161
-187
-182
-146
-137
-197
-544
-577
-255
-152
-368
-160
-214
-175
-298
80
86
-284
-169
-238
-215
-157
-133
-150
-165
-135
-330
-291
-311
-371
-157
-136
-323
-269
-284
-362
-174
-159
-312
62
98
27
-337
-133
-365
-327
-348
-171
-241
-235
-156
-333
-321
-376
-184
-202
-172
-139
-135
-154
-170
-166
-149
-130
-368
-352
-342
-349
-383
-178
-214
-198
-382
-290
13
-272
-340
-375
-339
-275
-260
-324
-159
-184
-354
51
-87
-68
-128
72
87
-98
-47
-74
95
24
21
77
-108
-46
266
318
350
353
343
348
375
149
159
135
330
-8
-80
-100
-56
268
296
261
-50
-64
-29
-3
-47
99
-264
-317
-339
-133
-225
-560
-556
-219
-142
-137
-191
-233
-227
-203
-213
-252
-524
-231
-178
-168
-209
-246
-228
-179
-162
-199
-245
-247
-216
-208
-252
-576
-624
-635
-625
-594
-518
-383
63
301
594
682
1286
1575
1497
1515
1582
927
421
-24
-336
-386
-1122
-1514
-2357
-2667
-2499
-2873
-3163
-3223
-3306
-3071
-2933
-2582
-2310
-1756
-1607
-1140
-477
-214
-353
-314
-280
30
84
118
-105
-24
376
530
607
583
525
250
538
568
559
528
522
562
626
433
486
785
805
793
506
488
505
802
842
862
858
830
787
495
492
781
821
840
836
840
866
645
668
673
668
659
651
659
693
738
748
697
875
838
877
699
746
733
685
658
677
734
1056
1108
1132
1130
1112
1095
1092
1107
1133
903
910
1147
1106
1059
764
739
730
737
757
767
747
690
882
852
868
659
694
680
865
506
414
618
587
533
179
326
260
-15
-41
-119
33
-273
28
112
-117
74
-287
-354
-359
-350
-376
-185
-516
-583
-640
-430
-447
-432
-408
-403
-410
-387
-584
-543
-587
-454
-825
-855
-825
-824
-889
-714
-741
-715
-696
-701
-685
-865
-512
-473
-508
-801
-509
-408
-571
-538
-551
-573
-596
-628
-396
-386
-608
-601
-387
-431
-406
-572
-245
-245
-520
-209
-339
4
-300
-185
-540
-526
-202
-186
-249
-578
-594
-563
-537
-538
-539
-253
-193
-384
-331
-288
0
20
32
51
86
120
125
90
37
2
-258
9
20
36
62
82
67
17
-288
-302
-287
-283
-310
-343
-350
-335
-329
-341
-347
-329
-308
-315
-353
-382
-368
-318
-273
3
14
32
49
44
16
-270
-287
-300
-322
-337
-307
35
-126
-81
-106
104
102
-104
-60
-81
90
-259
-313
-317
-288
20
89
-99
-56
-49
-45
260
365
230
561
562
516
214
190
173
135
331
280
265
281
302
311
318
336
362
376
369
336
269
-103
-259
-152
-240
-253
-233
-235
-528
-566
-571
-546
-525
-528
-534
-253
-198
-156
-167
-218
-249
-224
-175
-163
-204
-251
-256
-226
-207
-224
-244
-218
-150
-347
-347
-139
-185
-186
-137
-312
66
260
540
865
905
1395
1566
1643
1538
933
406
118
-612
-1085
-1657
-2021
-2493
-2700
-2749
-3117
-3359
-3313
-3281
-2976
-2817
-2205
-1927
-1889
-1258
-1088
-444
-165
-261
79
123
-114
-114
-126
-119
-64
296
169
535
597
608
584
549
522
246
229
221
248
584
440
788
824
813
805
837
646
702
719
698
662
888
867
854
851
863
884
895
891
886
645
687
736
763
756
730
703
687
681
688
711
748
1045
1068
1057
764
735
752
1070
1121
1109
1048
761
1069
914
976
963
930
953
1282
1327
1290
946
1137
1124
1141
903
925
962
990
973
910
1096
1060
1060
1062
1039
732
666
852
798
786
817
846
811
437
549
210
215
249
229
141
305
270
279
260
-84
51
-294
-332
-350
-382
-170
-212
-256
-571
-625
-640
-608
-580
-608
-433
-509
-791
-785
-799
-845
-877
-856
-799
-777
-828
-650
-658
-807
-392
-558
-603
-475
-829
-834
-783
-501
-792
-853
-885
-869
-828
-790
-501
-463
-414
-621
-588
-580
-597
-625
-640
-630
-611
-611
-636
-402
-390
-607
-581
-594
-619
-604
-530
-185
-142
-154
-176
-159
-360
-311
-302
-327
-354
-364
-363
-363
-369
-369
-346
-294
25
66
59
16
-280
-288
-265
11
-261
-316
-380
-156
-135
-336
-286
-271
-280
-282
-267
-270
-318
-138
-181
-151
-335
-286
-287
-308
-298
8
58
69
36
-271
-315
-346
-366
-381
-136
-135
-364
-301
31
75
51
-281
-357
-131
-369
-345
-354
-137
-165
-147
-347
-288
3
21
45
75
87
72
54
73
-126
-70
-52
-70
-92
-100
-105
-113
-111
-75
-8
321
376
165
210
252
532
536
538
534
236
136
268
-71
-75
-36
-15
-24
-24
270
309
298
-14
-59
-60
-57
-109
48
-282
-288
-260
-269
-330
-135
-148
-134
-145
-202
-526
-557
-536
-229
-178
-148
-144
-165
-208
-514
-547
-533
-214
-146
-134
-191
-515
-519
-195
-379
-377
-190
-528
-569
-569
-554
-531
-224
-348
-94
537
710
1334
1561
1656
1655
1544
1016
837
333
-143
-860
-1399
-1764
-2568
-2881
-2727
-2815
-3026
-3267
-3322
-3359
-2738
-2665
-2412
-2133
-1486
-1024
-866
-576
-138
-264
105
-65
-16
264
286
330
134
195
246
545
585
612
604
567
553
606
462
826
871
855
824
807
793
504
472
488
828
686
1028
1065
1081
1105
1129
1123
1074
746
689
660
644
870
816
771
787
895
1054
919
929
1101
762
759
1085
1149
1141
1070
731
673
646
656
713
1073
925
985
981
955
962
1015
1332
1348
1300
961
1148
1128
900
945
975
985
988
1001
1021
1283
998
930
1098
765
717
697
685
673
667
675
683
666
877
828
793
498
414
535
142
317
296
289
-4
-61
-102
-116
125
84
22
-292
-327
-342
-352
-372
-165
-240
-562
-574
-530
-239
-544
-411
-774
-795
-506
-777
-874
-718
-724
-644
-843
-883
-712
-733
-650
-796
-498
-791
-838
-844
-822
-815
-830
-830
-790
-476
-444
-452
-475
-479
-453
-415
-638
-613
-594
-588
-598
-604
-581
-522
-200
-171
-186
-213
-224
-232
-517
-557
-559
-243
-161
-384
-167
-221
-211
-133
-311
-299
-350
-139
-132
-347
-321
-332
-352
-344
-308
-276
-264
-266
-273
-290
-317
-329
-304
-263
-259
-314
-377
-375
-306
13
4
-314
-352
-328
-288
-301
-366
-160
-140
-323
-261
11
-261
-280
-304
-345
-136
-158
-148
-136
-160
-212
-243
-215
-148
-346
-324
-326
-333
-346
-379
-172
-205
-194
-149
-365
-362
-131
-139
-356
-286
15
5
-292
-315
-311
-319
-367
-172
-186
-137
-327
-298
-317
-351
-372
-372
-352
-321
-300
-313
-346
-350
-300
19
24
-289
-325
-267
108
-73
-101
79
55
113
-56
-5
257
-16
-43
-84
-120
-105
-19
353
177
204
228
552
384
414
600
213
357
308
299
281
-15
-53
-65
-56
-40
-20
269
306
315
267
-81
88
47
48
45
-257
-353
-210
-549
-576
-543
-224
-175
-172
-205
-236
-234
-202
-174
-177
-203
-225
-232
-231
-239
-245
-228
-184
-141
-133
-169
-219
-244
-232
-202
-184
-176
-158
-367
-296
39
-115
317
601
712
1315
1552
1646
1609
1185
1129
444
-22
-208
-661
-1210
-2107
-2449
-3108
-3060
-3208
-3653
-3574
-3855
-3672
-3347
-2721
-2582
-2137
-1658
-948
-827
-524
-284
-112
-10
301
350
144
180
205
251
596
431
460
415
608
592
634
445
502
803
838
867
643
683
719
716
663
856
841
883
674
684
675
695
749
1041
766
722
714
764
1092
1142
898
1138
1110
1082
1071
1082
1106
1127
1147
915
936
933
905
1141
908
957
982
952
897
1121
1125
1144
904
928
974
1284
1303
1003
913
1094
1088
896
973
1001
971
939
968
1311
1391
1401
1347
1288
999
972
912
1075
740
712
725
738
728
708
701
706
687
869
495
637
564
522
203
342
-57
101
95
-108
-85
110
-261
-349
-364
-345
-371
-211
-576
-620
-588
-548
-564
-628
-419
-406
-616
-604
-401
-485
-800
-810
-800
-797
-795
-508
-442
-635
-622
-414
-478
-508
-498
-491
-782
-848
-894
-890
-849
-803
-505
-448
-629
-571
-575
-635
-438
-443
-401
-623
-632
-397
-631
-552
-213
-181
-203
-224
-194
-382
-334
-357
-181
-250
-247
-172
-342
-310
-339
-383
-141
-384
-129
-159
-183
-160
-353
-306
-312
-346
-343
-283
37
32
-304
-129
-136
-332
-279
-287
-325
-309
44
-95
-50
-110
32
-321
-372
-135
-141
-135
-371
-348
-338
-335
-316
-263
60
98
75
-263
-364
-176
-181
-138
-340
-311
-313
-322
-317
-304
-309
-341
-377
-376
-326
-268
1
-301
-364
-136
-369
-325
-306
-327
-374
-166
-195
-198
-179
-148
-375
-353
-337
-331
-336
-351
-360
-354
-339
-335
-349
-371
-380
-369
-347
-327
-310
-296
-282
-261
17
26
4
-302
-343
-339
-301
-278
-300
-338
-338
-292
2
-272
-333
-376
-370
-340
-328
-335
-329
-287
31
83
119
-101
-60
-33
-37
-64
-82
-68
-30
258
267
261
258
271
303
352
160
218
243
223
178
151
165
206
231
214
156
338
286
280
323
131
175
183
170
155
136
348
276
-59
-126
66
-270
-366
-197
-251
-525
-515
-229
-180
-132
-368
-131
-171
-202
-221
-238
-514
-528
-528
-524
-526
-531
-523
-242
-217
-208
-214
-220
-223
-231
-238
-215
-131
-261
88
79
-275
-372
-129
-317
14
74
-59
223
646
1319
1590
1439
1438
1600
1355
672
136
-165
-742
-1653
-2358
-2704
-3334
-3288
-3514
-3826
-4069
-4027
-3929
-3436
-2728
-2584
-2133
-1588
-1044
-628
-377
21
-125
-27
292
313
315
343
166
541
411
768
833
867
872
847
803
772
788
852
674
729
747
744
729
706
681
678
722
1050
1101
1095
1047
746
724
709
684
665
683
735
1041
1066
1084
1125
938
1004
1291
1287
1005
963
909
1121
1116
899
946
960
941
922
931
964
1010
1326
1392
1184
1181
1381
1317
1293
1300
1292
984
911
1123
1133
915
940
944
951
994
1326
1396
1402
1328
956
1124
1102
1120
1120
1079
1027
744
735
709
651
842
799
770
465
385
562
516
242
220
178
382
331
261
-115
-270
-140
-181
-144
-359
-384
-213
-544
-551
-248
-215
-251
-599
-429
-466
-466
-470
-501
-801
-830
-831
-807
-776
-501
-512
-811
-861
-891
-887
-857
-811
-496
-427
-627
-617
-406
-473
-504
-478
-439
-451
-788
-879
-648
-838
-469
-627
-575
-561
-570
-592
-619
-636
-634
-623
-616
-614
-613
-617
-628
-622
-558
-171
-289
28
-262
-327
-344
-305
-277
-315
-142
-205
-206
-162
-371
-338
-311
-274
25
59
71
62
40
6
-301
-364
-155
-151
-346
-267
33
23
-268
-285
-266
27
57
71
70
54
24
-267
-289
-293
-294
-312
-349
-382
-129
-361
-334
-325
-326
-320
-315
-342
-164
-519
-567
-524
-169
-355
-352
-379
-368
-306
7
12
-279
-296
-279
-268
-305
-378
-169
-152
-355
-320
-331
-372
-158
-186
-202
-205
-196
-178
-165
-156
-131
-336
-283
-270
-319
-144
-195
-185
-129
-329
-302
-299
-292
-260
50
91
85
27
-307
-369
-147
-160
-147
-344
18
125
-93
106
6
-317
-327
-317
-337
-132
-174
-167
-363
-280
50
102
-119
-87
-70
-97
80
-264
-289
33
-117
-53
-52
-65
-37
271
293
273
261
306
133
185
180
166
206
548
603
567
213
140
134
147
362
263
-63
-20
367
219
221
147
345
343
342
273
-111
31
-279
-299
-332
-380
-155
-148
-383
-382
-148
-176
-204
-245
-553
-590
-589
-557
-523
-253
-513
-517
-513
-254
-519
-534
-539
-522
-245
-250
-540
-555
-248
-144
-312
-300
-348
-146
-181
-221
-532
-547
-206
-269
-23
238
793
906
1566
1882
1717
1528
1382
652
206
25
-506
-1184
-2166
-2500
-3128
-3371
-3630
-3926
-4138
-4155
-3728
-3701
-3344
-2895
-2366
-1845
-1162
-1085
-778
-212
50
-60
-41
-81
-92
-28
359
250
620
422
449
484
781
791
486
417
408
506
674
1066
1096
1028
684
649
677
732
1024
1024
741
710
695
711
762
1089
1149
907
1121
1058
1027
1051
1092
1093
1040
729
735
1057
1117
1116
1075
1067
1135
980
1292
1008
926
1121
1129
938
1006
1281
988
946
950
1002
1309
1314
1286
1021
1309
1346
1341
1300
1280
1307
1347
1349
1305
1002
989
1001
1000
957
1136
1058
764
1038
1089
1112
1058
688
854
859
685
745
706
828
415
554
234
201
172
134
335
256
-100
58
-265
-287
-279
-288
-354
-214
-578
-614
-578
-539
-573
-427
-800
-855
-847
-837
-874
-692
-751
-759
-728
-695
-685
-696
-722
-762
-1073
-1124
-1139
-1102
-1040
-744
-748
-768
-761
-714
-647
-853
-842
-879
-696
-1030
-1061
-760
-662
-832
-795
-784
-499
-442
-391
-633
-390
-407
-427
-471
-793
-843
-842
-799
-500
-476
-445
-627
-520
-177
-151
-180
-223
-243
-240
-240
-516
-546
-554
-525
-225
-208
-223
-229
-176
-326
12
-261
-364
-201
-196
-366
-301
-337
-197
-552
-553
-209
-361
-301
-292
-295
-286
-273
-289
-345
-157
-196
-188
-163
-163
-196
-223
-213
-175
-147
-146
-154
-150
-155
-202
-543
-600
-571
-212
-370
-335
-348
-353
-334
-326
-357
-149
-164
-138
-381
-169
-247
-542
-248
-175
-138
-163
-198
-187
-130
-337
-337
-368
-382
-357
-326
-331
-380
-184
-217
-213
-194
-181
-174
-154
-371
-328
-307
-318
-344
-360
-371
-144
-190
-221
-205
-147
-350
-329
-318
-276
53
99
71
-272
-346
-355
-305
18
76
125
-102
-109
109
81
103
-102
-90
100
7
-273
67
-56
295
340
130
213
555
581
545
246
238
243
206
372
289
269
298
313
282
-6
275
353
148
369
273
-60
-84
-97
110
39
5
20
17
-316
-182
-516
-246
-191
-176
-225
-545
-569
-549
-519
-245
-228
-202
-178
-184
-232
-552
-587
-564
-247
-203
-216
-514
-521
-213
-151
-143
-195
-248
-513
-235
-221
-216
-180
-346
48
-10
562
757
1253
1885
1764
1670
1452
1195
903
772
-33
-503
-1569
-2039
-2546
-3100
-3336
-3628
-3932
-3833
-3747
-3474
-3387
-2764
-2592
-2098
-1614
-963
-661
-392
-136
57
-124
107
64
85
-69
331
208
559
612
400
463
794
841
828
776
480
493
806
863
886
874
851
837
836
845
862
888
667
706
733
734
704
665
651
676
727
1026
1029
727
656
857
846
871
645
670
716
1065
924
991
978
939
956
1296
1357
1306
905
1032
744
1042
1089
1108
1118
1140
899
1141
1117
1128
929
990
1003
968
937
949
991
1019
1007
968
930
915
920
926
906
1103
763
697
681
699
697
648
839
819
851
874
833
495
442
435
413
558
378
-31
-87
-81
-99
72
-293
-364
-383
-383
-138
-156
-171
-186
-219
-532
-599
-390
-405
-391
-631
-640
-429
-493
-798
-811
-805
-811
-839
-863
-854
-820
-795
-794
-798
-781
-494
-480
-500
-796
-834
-872
-674
-748
-1057
-1047
-720
-885
-815
-779
-511
-506
-497
-472
-430
-390
-639
-419
-464
-468
-414
-592
-544
-542
-557
-549
-518
-239
-253
-542
-546
-240
-169
-135
-158
-197
-194
-140
-335
-322
-354
-130
-378
-339
-308
-306
-313
-298
4
46
41
-277
-360
-156
-156
-132
-378
-379
-354
-286
45
66
27
-264
17
81
101
34
-328
-138
-137
-371
-363
-357
-322
-267
18
-261
-304
-316
-288
-263
-281
-334
-130
-156
-165
-181
-209
-217
-179
-366
-318
-337
-147
-193
-175
-370
-325
-325
-346
-353
-337
-305
3
83
-95
-76
115
12
-311
-319
-321
-365
-176
-201
-156
-343
-310
-323
-337
-315
-267
29
33
10
-274
-290
-293
-296
-307
-312
-291
10
45
34
-270
-298
-264
65
111
89
29
-262
9
51
82
95
117
-85
-6
323
352
325
268
-27
-17
284
324
339
347
377
180
242
539
561
577
586
560
221
356
-4
-42
-15
286
300
280
-1
-8
-4
-5
-5
258
-9
-80
46
-333
-372
-329
-288
-327
-179
-531
-548
-241
-186
-178
-214
-255
-520
-236
-196
-181
-207
-253
-533
-248
-183
-130
-135
-196
-515
-528
-240
-218
-243
-538
-527
-202
-140
-151
-202
-190
-304
-68
182
428
710
1298
1615
1798
1505
1250
1112
426
262
-203
-1070
-1835
-2590
-3110
-3070
-3400
-3299
-3568
-3767
-3965
-3657
-3005
-2903
-2562
-2160
-1442
-1011
-686
-452
-240
-269
-62
312
321
280
287
141
570
456
504
482
455
458
471
469
465
491
811
885
679
697
696
689
675
654
895
647
687
739
1024
752
707
677
695
755
1072
1100
1091
1062
1037
1034
1058
1095
1112
1081
759
712
728
1049
1110
1126
1113
1108
1130
914
947
960
956
947
951
978
1015
1282
991
927
1138
1139
911
932
937
950
982
1011
1005
971
968
1286
1384
1181
1392
1281
936
929
978
1008
968
1131
1039
730
710
694
665
891
878
880
872
830
499
424
632
600
550
206
357
276
-29
-80
88
-279
-363
-133
-130
-157
-229
-562
-599
-599
-602
-630
-406
-408
-640
-631
-415
-491
-824
-869
-867
-828
-783
-775
-818
-872
-872
-797
-449
-421
-476
-811
-857
-869
-885
-657
-658
-868
-809
-786
-800
-799
-492
-418
-632
-386
-419
-437
-440
-445
-454
-451
-422
-631
-587
-561
-547
-535
-522
-251
-240
-237
-241
-238
-224
-214
-227
-513
-523
-229
-159
-366
-361
-374
-362
-320
-285
-279
-279
5
49
66
33
-278
-303
-289
-266
-265
-289
-316
-332
-330
-310
-285
-270
-264
6
48
108
-111
-127
70
2
-311
-359
-143
-158
-140
-371
-366
-378
-356
-266
113
-70
-99
49
-316
-366
-347
-289
21
37
5
-310
-341
-313
5
31
-280
-381
-183
-160
-356
-337
-373
-146
-363
-275
40
13
-326
-134
-140
-366
-345
-347
-351
-336
-304
-270
6
2
-279
-302
-297
-264
18
-257
-306
-327
-281
53
90
62
17
10
33
28
-294
-378
-157
-376
-304
2
3
-278
-288
6
88
-76
-23
-30
-71
-97
-90
-73
-70
-74
-56
-12
284
296
301
341
174
538
626
415
407
597
233
133
350
378
154
133
333
315
374
206
241
197
380
337
330
316
-2
-115
9
-352
-134
-364
-325
-337
-160
-255
-548
-252
-182
-144
-155
-194
-227
-238
-231
-222
-222
-230
-231
-219
-206
-210
-230
-236
-205
-150
-366
-372
-160
-208
-229
-221
-211
-218
-236
-230
-169
-304
-122
129
453
1069
1384
1599
1456
1468
1581
963
427
127
-588
-753
-1548
-1981
-2903
-3349
-3310
-3469
-3944
-4143
-4151
-3902
-3233
-2791
-2629
-1951
-1502
-1295
-860
-245
-258
122
-85
-51
-1
304
342
136
219
578
394
410
402
411
441
462
463
475
789
889
734
1046
1050
1025
751
762
1053
1078
1059
738
674
667
727
1057
1071
750
662
881
673
767
1098
1118
1097
1080
1090
1118
1141
898
921
963
1001
996
940
1133
1118
903
949
946
1150
1102
1104
1148
930
935
937
984
1335
1164
1172
1355
1008
967
984
1015
1015
985
962
969
1000
1289
1308
1309
1297
1280
1008
987
949
1140
1062
742
712
708
707
689
650
857
808
502
448
403
635
630
608
526
383
-14
-79
-59
-25
-63
77
-306
-376
-130
-384
-151
-194
-237
-528
-564
-603
-640
-413
-435
-454
-479
-774
-827
-871
-874
-839
-796
-780
-788
-788
-507
-483
-495
-796
-832
-831
-809
-813
-860
-660
-670
-869
-780
-456
-429
-422
-407
-640
-636
-411
-460
-494
-491
-451
-396
-607
-590
-601
-621
-621
-591
-551
-527
-529
-544
-556
-560
-562
-558
-533
-228
-177
-156
-173
-198
-190
-139
-336
-310
-326
-355
-369
-369
-361
-339
-295
11
25
-263
-298
-285
25
51
0
-348
-136
-346
0
53
41
7
-259
11
21
11
-260
-269
-281
-309
-345
-361
-340
-297
-268
-278
-325
-384
-167
-172
-151
-372
-334
-294
-264
-258
-275
-280
18
96
-115
98
-269
-359
-374
-355
-130
-231
-577
-571
-219
-376
-342
-351
-340
-283
41
77
69
34
-278
-350
-158
-176
-136
-334
-309
-327
-348
-337
-304
-288
-298
-299
-264
40
53
23
-259
14
54
64
32
5
27
66
51
-299
-148
-169
-340
28
73
28
-302
-335
-309
-262
23
27
27
33
37
33
45
102
-60
279
308
300
302
330
340
290
-45
-75
-23
316
360
366
136
218
576
636
384
616
586
540
211
128
325
301
301
308
315
319
315
302
293
298
306
288
-19
-86
111
58
-268
-349
-146
-134
-336
-315
-381
-242
-566
-523
-156
-338
-362
-188
-239
-223
-182
-176
-214
-513
-525
-513
-255
-539
-578
-596
-572
-522
-220
-197
-185
-174
-176
-212
-523
-544
-224
-341
91
291
550
643
1296
1653
1890
1701
1825
1233
751
232
2
-493
-1344
-1788
-2464
-2973
-3303
-3569
-4107
-4090
-4403
-4211
-3578
-3391
-2691
-2233
-1736
-1221
-746
-621
-352
78
-64
269
323
357
380
155
212
554
393
469
504
498
469
456
491
836
684
753
763
742
737
758
766
732
684
686
757
1090
1087
741
646
888
698
1029
1054
1035
762
1039
1099
918
975
979
926
1111
1076
1097
1140
897
1137
1135
925
1002
1315
1324
1307
1302
1325
1354
1362
1350
1337
1341
1356
1360
1338
1304
1286
1302
1340
1364
1345
1288
978
979
1302
1390
1170
1380
1292
980
988
1283
1300
1281
1004
998
983
923
1082
746
725
741
743
697
869
778
439
624
580
571
571
527
151
-13
105
39
32
38
33
20
6
-276
-321
-369
-144
-155
-180
-249
-613
-468
-797
-824
-825
-827
-838
-851
-853
-839
-818
-800
-790
-785
-785
-792
-810
-836
-866
-891
-650
-655
-650
-892
-875
-867
-880
-649
-660
-888
-826
-504
-457
-418
-620
-556
-529
-567
-639
-424
-407
-633
-395
-466
-789
-789
-457
-607
-517
-205
-174
-158
-158
-174
-208
-246
-514
-218
-135
-315
-296
-333
-376
-377
-346
-336
-132
-218
-532
-529
-232
-195
-166
-375
-300
26
45
6
-298
-307
-285
-288
-350
-186
-234
-202
-373
-301
-278
-289
-288
9
74
105
54
-329
-204
-253
-197
-358
-322
-372
-188
-197
-135
-334
-350
-168
-224
-219
-185
-179
-208
-223
-188
-129
-349
-341
-320
-270
20
-274
-360
-145
-332
49
105
25
-131
-249
-531
-253
-244
-516
-524
-246
-206
-167
-379
-317
9
47
25
-296
-355
-372
-356
-352
-382
-165
-172
-131
-338
-327
-357
-133
-379
-323
1
44
46
13
-293
-334
-342
-320
-301
-326
-135
-190
-180
-362
-276
33
67
122
-55
-1
-17
-83
-126
-100
-30
273
266
-29
-55
-53
-29
271
345
184
518
544
527
252
516
535
521
194
354
286
271
284
289
279
280
304
328
329
323
345
381
358
-35
22
-362
-344
6
28
-353
-553
-435
-440
-608
-530
-529
-592
-390
-627
-535
-185
-161
-209
-519
-528
-250
-250
-537
-554
-524
-216
-187
-190
-197
-190
-188
-202
-219
-217
-199
-188
-178
-139
-300
110
327
628
749
1401
1467
1879
1826
1585
971
844
213
32
-820
-1556
-2014
-2546
-3161
-3236
-3863
-4156
-4207
-3747
-3689
-3380
-2788
-2593
-1780
-1232
-1044
-456
-205
-293
42
61
67
75
80
104
-58
374
552
384
386
638
421
461
440
624
584
638
494
827
816
506
485
780
837
855
840
852
679
1052
1127
1124
1088
1073
1074
1040
705
643
651
699
709
668
655
738
1130
942
1146
1054
1029
1073
1083
743
890
882
752
918
1011
1023
1287
1344
1162
1184
1396
1339
1321
1336
1333
1023
936
1122
1106
1148
967
1291
1323
1311
1023
1007
1019
1300
1307
1017
944
1113
1038
739
726
726
728
725
714
679
867
788
481
464
440
622
255
175
167
188
154
291
-118
33
0
2
-267
-314
-381
-189
-233
-243
-222
-204
-227
-568
-431
-795
-862
-877
-850
-810
-798
-842
-662
-702
-657
-813
-490
-512
-853
-666
-675
-641
-862
-847
-852
-874
-648
-659
-883
-826
-806
-865
-711
-1026
-733
-643
-848
-890
-727
-1034
-730
-866
-503
-468
-490
-505
-476
-426
-396
-386
-617
-559
-249
-242
-528
-542
-515
-225
-232
-534
-568
-559
-535
-543
-582
-602
-560
-217
-143
-378
-144
-168
-176
-179
-200
-232
-244
-212
-149
-346
-318
-311
-298
-262
47
94
99
36
-349
-234
-556
-246
-377
-294
-322
-159
-212
-178
-368
-352
-141
-190
-208
-226
-542
-614
-612
-251
-380
-344
-163
-254
-251
-149
-294
-265
-327
-152
-179
-142
-346
-337
-383
-191
-226
-219
-186
-143
-344
-280
19
2
-331
-157
-175
-376
-308
-302
-379
-236
-567
-562
-231
-137
-329
-319
-346
-369
-352
-291
39
94
110
88
37
-285
-344
-367
-341
-287
7
9
4
43
-121
-29
-5
-55
-123
102
107
98
52
6
15
95
-46
322
159
234
538
548
533
522
531
526
211
360
274
267
325
373
358
307
283
306
328
292
-54
-128
126
-72
-30
-65
84
-278
-318
-295
-271
-298
-366
-168
-183
-166
-151
-157
-186
-233
-534
-543
-239
-165
-130
-164
-220
-224
-157
-340
-335
-147
-226
-519
-523
-536
-568
-584
-555
-239
-190
-175
-169
-382
-278
-104
145
472
1101
1195
1448
1814
1508
1574
1289
711
630
-25
-557
-951
-1828
-2002
-2221
-2641
-2912
-3038
-3620
-3470
-3323
-3016
-2906
-2261
-2100
-1658
-970
-849
-552
-330
80
-97
-111
58
-285
-292
49
-84
280
381
513
399
475
446
628
609
417
497
781
498
465
454
457
457
468
507
813
837
824
806
827
881
659
884
806
496
506
814
844
820
777
769
805
849
880
658
718
1036
1048
743
688
689
734
753
712
658
674
1040
918
990
981
940
926
949
969
940
1108
742
686
730
1109
975
1019
982
920
1145
1146
1144
1116
1072
1035
757
752
1025
1061
1102
1127
1128
1107
1053
703
842
495
461
463
444
637
561
254
224
194
161
144
138
353
-6
-126
60
40
-262
-133
-539
-604
-557
-234
-255
-613
-430
-403
-575
-531
-563
-631
-441
-511
-849
-646
-871
-510
-421
-423
-502
-826
-821
-507
-461
-473
-808
-665
-758
-1038
-730
-651
-867
-877
-891
-868
-830
-827
-866
-896
-868
-791
-467
-445
-450
-441
-399
-597
-554
-538
-543
-551
-547
-535
-526
-526
-529
-527
-518
-254
-245
-228
-213
-227
-536
-599
-617
-562
-210
-137
-378
-145
-162
-142
-344
-275
37
58
38
-257
-281
-273
0
-264
-308
-365
-138
-373
-327
-301
-319
-360
-365
-306
34
68
23
-311
-346
-321
-289
-299
-335
-342
-306
-279
-311
-380
-153
-358
-281
-261
-323
-146
-165
-375
-323
-310
-314
-284
36
66
5
-371
-207
-216
-169
-133
-133
-151
-161
-154
-377
-311
20
41
-282
-380
-147
-316
48
59
-285
-360
-328
31
88
33
-338
-157
-134
-298
55
107
106
79
76
121
-73
-51
-98
91
75
123
-72
-40
-6
344
237
613
618
253
363
-2
-52
-63
-47
-18
260
260
260
301
130
199
183
331
-59
112
93
94
71
27
5
31
79
106
89
44
-264
-323
-143
-219
-252
-216
-148
-373
-149
-200
-207
-160
-363
-354
-383
-163
-194
-236
-546
-577
-545
-204
-380
-357
-131
-173
-195
-190
-166
-384
-343
-308
1
-122
141
769
901
1226
1469
1882
1891
1417
992
510
366
23
-418
-1282
-1920
-2372
-2583
-2457
-2691
-3013
-3231
-3438
-3147
-2509
-2407
-2074
-1457
-1313
-661
-584
-350
36
77
60
26
14
53
-109
271
380
182
199
222
532
592
612
587
564
584
634
408
399
637
393
426
437
401
610
616
442
809
871
843
502
439
439
471
471
426
396
447
833
702
743
701
642
875
888
642
886
868
868
891
665
689
703
718
745
1035
1060
1067
1061
1060
1066
1070
1067
1072
1102
1145
908
1131
1063
749
744
1049
1118
904
1150
1104
1071
1087
1141
930
933
897
1097
767
672
841
811
849
891
869
792
489
782
851
852
501
638
576
567
539
192
327
-12
-30
-14
-8
-34
-88
99
20
-312
-382
-186
-241
-546
-581
-597
-605
-619
-386
-408
-419
-429
-450
-477
-489
-484
-488
-787
-860
-662
-673
-649
-889
-642
-651
-885
-824
-486
-408
-608
-590
-614
-416
-481
-780
-789
-773
-493
-474
-465
-465
-459
-427
-623
-565
-552
-602
-425
-474
-464
-417
-633
-611
-575
-241
-153
-371
-143
-182
-166
-352
-300
-323
-138
-182
-165
-130
-137
-189
-220
-178
-335
6
23
-274
-321
-332
-305
-268
13
17
4
-277
-305
-324
-319
-290
-257
14
6
-257
13
40
52
42
39
69
111
116
58
-275
-305
-261
65
96
62
-264
-324
-351
-347
-333
-332
-352
-370
-349
-286
35
52
16
-281
-284
-261
-257
-295
-351
-133
-139
-374
-322
16
96
120
69
-267
-303
-274
33
49
22
-266
-270
-257
0
-282
-316
-331
-322
-305
-301
-313
-321
-296
28
116
-69
-33
-15
259
276
272
-18
-53
-54
-23
262
265
263
297
371
183
204
191
191
225
252
221
129
293
262
291
330
339
313
282
268
270
275
273
265
-5
-30
-82
89
-266
-339
-358
-341
-341
-142
-235
-554
-546
-236
-196
-199
-213
-195
-139
-342
-333
-366
-142
-135
-355
-336
-375
-201
-519
-517
-201
-144
-141
-178
-185
-380
-298
-288
-379
-235
-250
-134
50
-20
174
435
1032
1384
1657
1798
1513
1275
1099
582
121
-254
-655
-1181
-1751
-2420
-2580
-2626
-2520
-3074
-3329
-3068
-2781
-2644
-2320
-2079
-1816
-1190
-746
-593
-301
115
-75
-70
-112
85
55
104
-31
361
210
535
587
626
635
624
631
422
470
467
419
398
451
794
836
814
789
819
883
660
893
856
849
859
847
811
798
834
891
664
662
677
737
1066
1085
1024
672
863
863
653
705
737
750
761
1043
1085
1126
1149
1150
1141
1132
1115
1078
1032
750
1024
1073
1120
897
931
984
1296
1323
1305
1016
1008
1284
1298
1017
960
910
1151
904
912
908
900
897
1139
1087
741
644
834
805
790
772
499
491
488
481
473
473
478
457
638
520
145
312
-14
-97
61
-275
-305
-295
-292
-331
-152
-234
-546
-576
-599
-634
-428
-488
-798
-832
-835
-805
-498
-452
-437
-463
-509
-797
-789
-497
-472
-495
-823
-649
-691
-665
-846
-775
-500
-786
-815
-796
-481
-441
-463
-777
-798
-493
-417
-388
-433
-504
-792
-507
-446
-397
-635
-638
-387
-634
-611
-576
-534
-237
-213
-219
-246
-514
-232
-193
-188
-213
-209
-380
4
69
20
-336
-378
-335
-276
-274
-324
-360
-342
-290
3
7
-261
-263
14
41
41
-267
-353
-157
-142
-320
7
16
-281
-313
-292
31
101
-120
-124
105
72
37
4
-284
-311
-331
-341
-345
-344
-332
-302
0
49
84
92
72
35
-261
-292
-315
-336
-357
-361
-331
-274
33
34
-287
-129
-199
-196
-382
-299
0
-259
-265
25
96
-101
-88
-111
124
113
87
28
-296
-335
-333
-323
-334
-360
-373
-373
-380
-143
-131
-304
88
-58
-38
-104
67
20
8
-265
-313
-371
-139
-359
-278
59
106
121
-122
-91
-60
-68
121
31
-280
-275
19
45
48
51
71
91
89
87
125
-51
266
-4
-69
-98
-46
297
339
324
311
350
161
197
188
178
205
244
252
217
166
134
380
128
140
156
164
154
128
348
304
-7
-64
-105
-127
106
60
-259
-305
-322
-342
-149
-251
-592
-611
-568
-523
-531
-587
-639
-626
-538
-168
-360
-132
-222
-547
-534
-201
-131
-371
-132
-383
-347
-326
-355
-155
-182
-170
-162
-184
-204
-168
-335
21
-110
372
488
911
1207
1552
1265
1214
1356
1047
522
-311
-511
-1130
-1569
-2138
-2664
-2944
-2745
-2805
-3014
-3259
-3309
-3338
-2715
-2628
-2321
-1694
-1223
-743
-628
-137
19
-117
-43
-31
-43
-20
313
149
213
512
572
402
476
496
461
412
385
384
405
455
794
878
652
860
775
469
491
820
893
688
720
746
761
759
748
744
747
747
737
726
729
745
760
762
759
1024
1052
1085
1099
1086
1056
1033
1038
1077
1127
899
1146
1115
1091
1092
1112
1134
1148
1146
1132
1117
1115
1135
910
930
936
937
944
954
962
971
990
1009
1007
986
978
1006
1304
1304
985
898
1098
1087
1082
1051
745
701
666
878
821
778
771
782
510
436
577
207
128
347
334
316
260
-107
12
-350
-377
-339
-293
-295
-340
-384
-137
-379
-384
-184
-540
-388
-459
-496
-785
-841
-651
-685
-664
-868
-837
-839
-842
-810
-498
-461
-469
-502
-778
-774
-770
-794
-853
-675
-744
-1031
-755
-695
-876
-807
-493
-446
-415
-408
-415
-407
-631
-594
-588
-621
-404
-403
-600
-255
-188
-175
-211
-523
-567
-581
-563
-517
-201
-156
-147
-173
-196
-185
-143
-356
-339
-349
-129
-184
-237
-247
-194
-373
-333
-349
-366
-323
19
77
73
58
95
-86
-50
-96
80
35
29
6
-319
-132
-141
-349
-305
-310
-349
-371
-351
-304
-263
8
-263
-303
-350
-380
-383
-371
-363
-363
-363
-369
-141
-191
-224
-195
-356
0
46
33
12
29
79
109
87
33
-263
-266
-260
-284
-348
-155
-170
-134
-342
-324
-341
-364
-372
-365
-355
-345
-328
-306
-294
-305
-329
-340
-322
-284
-258
-273
-327
-132
-152
-368
-295
17
30
22
34
91
-89
-41
-55
-124
44
-285
-324
-335
-336
-347
-376
-151
-149
-345
11
93
106
52
-273
-299
-280
2
7
-257
-258
-261
-295
-362
-163
-158
-341
4
50
36
1
-258
49
126
-76
-75
-110
119
120
121
83
20
-258
61
-83
-13
-25
-67
-64
-6
297
280
-40
-89
-95
-84
-86
-95
-81
-24
322
167
248
541
529
244
236
514
538
531
235
182
135
355
340
362
161
211
213
175
141
142
164
159
362
275
-66
-127
88
44
-283
-384
-220
-254
-213
-138
-354
-372
-156
-164
-135
-364
-371
-153
-198
-244
-560
-631
-423
-417
-616
-552
-255
-232
-201
-152
-354
-315
-294
-289
-297
-327
-131
-206
-523
-538
-232
-382
30
-1
571
707
1356
1661
1838
1883
1522
1230
754
189
-357
-874
-1192
-2106
-2462
-3106
-3005
-3370
-3604
-3902
-3769
-3558
-3360
-2897
-2561
-2028
-1673
-1199
-697
-541
-264
-97
-1
294
289
274
291
364
206
546
602
393
448
496
509
484
457
473
789
859
650
669
679
697
728
1029
1092
906
949
939
1137
1063
747
700
659
885
887
665
702
717
725
764
1097
904
898
1088
1032
1032
1056
1034
702
647
691
1074
932
965
945
948
1006
1331
1357
1336
1300
1013
973
925
897
920
985
1298
1313
1297
1292
1314
1343
1358
1362
1368
1374
1359
1314
1001
961
939
909
1104
1027
713
692
691
685
669
663
683
716
728
688
854
488
398
607
591
574
526
190
355
273
-49
-100
120
87
31
-326
-196
-546
-568
-553
-570
-389
-466
-463
-631
-541
-534
-609
-426
-427
-627
-592
-640
-499
-869
-670
-660
-873
-834
-818
-818
-813
-791
-508
-501
-786
-831
-853
-830
-780
-489
-489
-508
-507
-465
-389
-575
-560
-615
-448
-496
-452
-598
-251
-240
-535
-545
-232
-159
-147
-212
-542
-552
-248
-208
-225
-530
-550
-516
-207
-180
-183
-178
-142
-352
-333
-345
-355
-331
-283
3
-268
-318
-371
-147
-158
-146
-352
0
123
-36
-8
-53
-125
82
74
77
43
-308
-184
-541
-550
-211
-354
-293
-306
-339
-324
-261
33
-274
-134
-219
-207
-383
-325
-339
-135
-150
-351
-264
44
32
-272
-309
-311
-297
-297
-314
-318
-286
15
19
-297
-379
-156
-373
-320
-323
-134
-200
-198
-137
-330
-310
-321
-333
-343
-364
-140
-158
-149
-142
-165
-199
-188
-372
-292
-274
-321
-356
-317
28
84
64
10
-275
-276
-296
-346
-376
-332
23
93
82
20
-281
-274
17
36
22
-268
-301
-323
-330
-314
-282
3
9
-267
-293
-309
-315
-323
-341
-355
-338
-281
48
94
93
69
56
61
57
27
3
38
-120
-36
-45
112
16
9
77
-126
95
-263
-353
-376
-340
-280
29
55
36
-284
-363
-148
-383
-327
-278
5
22
51
90
127
-102
-90
-97
-125
91
58
46
49
52
48
53
82
123
-106
-116
110
104
-100
-9
328
358
342
317
303
288
-3
-49
-62
-15
329
155
201
234
548
633
446
459
415
610
569
546
522
234
206
195
197
197
195
195
196
181
140
350
330
341
352
320
-21
-124
46
-267
-305
-332
-348
-350
-349
-355
-363
-364
-363
-371
-138
-167
-200
-249
-573
-635
-387
-580
-223
-137
-344
-318
-297
-288
-309
-348
-369
-364
-370
-169
-256
-572
-567
-515
-209
-177
-132
-301
104
332
407
1087
1265
1849
1740
1702
1494
1379
867
284
-553
-1134
-1521
-2226
-3132
-3326
-3557
-3946
-3825
-4185
-4144
-3916
-3314
-3199
-2557
-2369
-1868
-1377
-707
-631
-353
-123
280
315
278
-1
309
177
564
398
447
490
794
832
837
820
803
790
507
466
445
483
822
642
670
672
706
1058
913
967
935
1119
1069
1058
1058
1036
746
729
738
754
761
1030
1066
1113
1134
1114
1083
1090
1148
968
1013
1005
960
909
1138
1146
915
923
1143
1085
1054
1082
1140
917
907
896
942
1299
1393
1166
1379
1314
1280
1286
1305
1305
1011
950
910
922
977
1022
1020
987
960
940
1143
1044
706
718
1067
1133
1088
709
868
845
838
770
389
530
210
175
136
356
342
330
284
-48
-97
-97
-108
41
-150
-558
-562
-190
-347
-372
-235
-592
-615
-601
-636
-495
-893
-729
-731
-669
-855
-820
-822
-830
-807
-494
-440
-430
-473
-792
-840
-861
-862
-844
-800
-483
-436
-439
-487
-783
-507
-432
-630
-396
-481
-801
-779
-447
-407
-435
-463
-406
-533
-183
-195
-513
-248
-133
-262
14
-344
-209
-248
-198
-134
-375
-152
-188
-189
-150
-354
-327
-345
-132
-142
-335
33
118
125
75
37
51
83
65
-283
-145
-212
-194
-378
-314
-283
2
71
-81
-2
-9
-99
52
-257
2
17
13
5
15
31
15
-289
-315
-275
59
91
32
-326
-383
-365
-326
-325
-359
-374
-345
-310
-323
-133
-200
-222
-199
-162
-130
-353
-318
-298
-304
-324
-324
-292
1
9
-282
-343
-145
-180
-181
-144
-339
-288
-279
-322
-383
-163
-147
-350
-301
-295
-334
-380
-131
-335
0
50
42
2
-278
-274
-274
-304
-349
-368
-341
-299
-282
-301
-334
-354
-344
-293
47
121
-127
59
-282
-305
-261
31
-258
-328
-357
-321
-273
-268
-287
-267
56
107
90
37
16
47
71
32
-307
-360
-344
-300
-285
-308
-328
-320
-314
-346
-135
-375
-279
81
95
8
-339
-332
26
122
-126
70
26
45
100
-126
122
114
-110
-52
-19
-55
103
-258
-315
-302
15
80
113
109
103
-106
263
141
215
182
337
-3
-23
-3
259
-8
274
375
524
392
450
462
467
467
428
585
198
343
279
-9
-21
-4
312
158
516
571
567
535
251
221
158
298
-103
35
-286
-329
-142
-250
-601
-615
-534
-168
-373
-145
-195
-197
-157
-149
-221
-588
-389
-610
-549
-547
-605
-390
-607
-515
-189
-170
-179
-187
-195
-205
-196
-149
-343
-307
-309
-314
-286
42
-73
181
812
964
1542
1466
1520
1455
1220
1049
518
-257
-769
-1396
-1927
-2721
-3301
-3887
-4139
-4458
-4502
-4564
-4303
-4116
-3680
-3015
-2513
-2115
-1168
-881
-554
-364
47
-62
293
334
354
133
176
209
519
385
813
689
687
825
457
446
774
844
870
888
682
743
762
724
673
650
656
668
688
735
1062
1117
1117
1069
1030
1040
1086
1119
1107
1067
1041
1048
1070
1078
1076
1096
903
986
1286
1000
924
1125
1133
938
1002
1294
1304
1307
1311
1313
1312
1310
1307
1295
1281
1289
1333
1398
1192
1206
1202
1208
1222
1210
1399
1293
944
908
932
989
1303
1349
1373
1366
1327
1285
1021
1312
1343
1305
923
1026
675
659
670
641
818
476
422
388
595
513
166
359
332
308
-7
-104
52
-279
-345
-175
-519
-547
-232
-152
-150
-244
-591
-582
-243
-217
-578
-489
-842
-826
-781
-805
-642
-716
-705
-896
-855
-874
-649
-890
-827
-776
-780
-812
-814
-769
-472
-489
-809
-864
-866
-827
-777
-472
-422
-635
-617
-615
-593
-540
-251
-557
-432
-816
-858
-809
-480
-429
-389
-579
-238
-191
-213
-519
-527
-223
-178
-200
-523
-550
-238
-144
-349
-349
-336
-271
42
-257
-142
-523
-520
-143
-268
39
25
17
50
101
124
104
46
-288
-368
-164
-166
-131
-359
-364
-374
-340
-263
61
63
10
-298
-313
-317
-354
-168
-218
-199
-132
-338
-351
-152
-190
-168
-351
-270
35
34
-262
-319
-360
-370
-366
-380
-174
-241
-539
-540
-521
-250
-229
-177
-361
-321
-353
-170
-201
-150
-317
-278
-316
-378
-150
-146
-152
-177
-180
-134
-331
-312
-327
-311
30
-125
-96
92
-265
-320
-327
-355
-194
-574
-636
-576
-167
-266
69
53
-259
-285
-261
28
16
-303
-372
-152
-151
-130
-351
-295
31
83
91
68
44
22
-275
-342
-147
-159
-375
-329
-330
-374
-153
-377
-276
95
-103
126
57
18
41
83
76
-262
-361
-146
-363
-295
-263
-279
-293
10
124
-1
340
351
317
279
257
-19
-49
-77
-73
-25
302
366
168
243
602
444
490
458
619
236
363
256
-63
-69
-43
-18
-3
285
350
163
183
141
340
320
323
283
-89
18
-334
-340
-296
-279
-325
-159
-245
-550
-559
-543
-524
-528
-562
-610
-388
-391
-629
-608
-595
-582
-556
-515
-219
-201
-213
-246
-526
-522
-245
-238
-530
-599
-401
-411
-626
-571
-524
-204
-325
-87
235
845
937
1537
1861
2065
1758
1659
1117
582
-127
-611
-1015
-2070
-2533
-2991
-3243
-3488
-3816
-4095
-4399
-4204
-3922
-3672
-3406
-2750
-2214
-1671
-1235
-1144
-791
-161
-114
284
286
261
299
143
250
588
384
406
391
605
573
597
423
774
840
871
641
689
761
1089
1129
1120
1076
1039
1041
1077
1101
1083
1035
742
737
759
1046
1074
1090
1078
1033
726
712
752
1069
1105
1109
1105
1125
925
1005
1338
1368
1328
990
937
962
1294
1348
1346
1327
1351
1162
1210
1200
1160
1400
1163
1176
1403
1351
1320
1325
1340
1334
1312
1299
1308
1327
1333
1323
1315
1328
1357
1382
1388
1377
1344
1019
910
1045
697
659
663
683
702
709
683
874
801
772
781
492
601
375
-61
-108
-63
-36
-72
-123
115
101
29
-357
-213
-252
-248
-531
-613
-444
-483
-474
-455
-450
-459
-486
-795
-861
-654
-665
-653
-646
-642
-880
-850
-843
-883
-685
-704
-661
-849
-808
-802
-803
-793
-782
-788
-811
-844
-884
-667
-684
-659
-859
-810
-793
-794
-769
-443
-604
-536
-526
-572
-637
-420
-413
-626
-577
-549
-541
-534
-253
-211
-165
-130
-369
-371
-133
-162
-204
-249
-537
-538
-234
-148
-324
-289
-310
-358
-384
-371
-348
-349
-376
-140
-375
-320
-276
-280
-320
-351
-344
-310
-284
-285
-307
-330
-344
-331
-277
63
119
79
-317
-214
-532
-217
-372
-331
-378
-197
-226
-183
-363
-303
-280
-281
-287
-284
-271
1
11
3
-287
-332
-360
-356
-342
-356
-135
-134
-305
88
-85
-123
23
-300
-275
35
27
-311
-381
-367
-280
65
104
99
76
49
20
-268
-291
-294
-285
-274
-265
10
52
107
-113
-125
73
0
-311
-339
-346
-328
-276
54
109
116
95
99
-99
-16
283
269
-19
-15
291
344
355
332
322
355
148
160
378
342
375
230
617
444
457
421
616
532
184
373
355
369
375
363
364
146
197
214
193
177
189
185
364
-27
123
110
-105
-102
78
-279
-322
-289
21
38
1
-318
-370
-135
-130
-384
-155
-206
-241
-223
-156
-341
-299
-291
-312
-356
-146
-160
-382
-332
-319
-351
-377
-354
-292
9
23
52
-101
346
598
888
948
1279
1859
2113
1945
1790
1663
915
430
-62
-417
-1193
-1992
-2861
-2970
-3224
-3507
-3786
-4146
-3731
-3643
-2995
-2842
-2360
-1812
-1321
-752
-848
-435
-186
90
-20
-65
76
83
284
567
769
825
800
786
804
806
770
468
452
480
803
649
759
1080
1062
737
702
742
1058
1066
758
713
720
749
753
744
1024
1074
1091
1038
717
723
1049
1088
1042
722
749
1123
964
954
1136
1118
938
1023
1018
922
1085
1065
1101
1138
898
920
962
1003
1017
1011
1012
1284
1289
1011
991
1020
1352
1157
1403
1339
1307
1354
1181
1208
1398
1291
959
931
921
919
943
995
1283
984
1136
1048
1039
1084
1108
1068
732
661
866
806
451
584
229
185
192
206
181
362
276
-20
264
310
288
-106
-308
-208
-239
-173
-369
-132
-212
-530
-526
-237
-248
-587
-431
-478
-464
-440
-452
-481
-477
-427
-631
-627
-413
-451
-463
-481
-812
-690
-1071
-1103
-1026
-649
-831
-840
-880
-868
-769
-636
-552
-555
-607
-385
-632
-613
-629
-431
-489
-495
-428
-575
-219
-168
-170
-191
-205
-204
-205
-230
-531
-568
-573
-552
-531
-518
-230
-151
-300
18
-280
-146
-249
-255
-185
-129
-140
-177
-159
-321
46
108
126
-109
-76
-80
91
-304
-152
-164
-368
-319
-314
-326
-311
0
64
104
113
108
102
79
23
-305
-350
-339
-293
-268
-289
-324
-314
14
90
96
16
-342
-381
-334
5
51
24
-306
-373
-144
-134
-371
-368
-371
-366
-346
-323
-306
-289
-257
37
57
46
24
19
26
3
-319
-382
-371
-275
88
113
49
-271
14
-124
-12
265
-57
118
77
77
