815
885
783
584
176
136
156
162
152
161
180
163
381
145
518
418
491
451
403
454
846
693
652
454
188
-13
-69
257
361
171
207
525
621
442
454
414
603
230
285
77
9
127
282
267
83
-304
37
-26
279
73
-233
-394
-601
-214
-129
-334
44
288
599
858
743
1028
742
722
720
699
889
820
802
825
799
434
583
601
503
655
645
490
632
441
882
240
518
603
570
311
-305
-232
-362
-94
-15
2
-565
-584
32
191
249
92
-787
-996
-1372
-947
-662
-409
-242
-356
-54
858
1857
2896
3323
3495
3591
3379
2947
2924
2416
1468
756
166
8
-198
-184
-317
-272
-135
-552
-574
-194
-359
-182
-626
-478
-430
-597
-600
-426
-452
-610
-221
-181
-520
-631
-413
-637
-398
-801
-760
-909
-925
-909
-1014
-1226
-1618
-1275
-1282
-1066
-715
-686
-641
-843
-847
-655
-722
-1027
-1064
-1075
-747
-843
-458
-472
-833
-857
-461
-526
-218
-629
-890
-1088
-1129
-1067
-1029
-1089
-967
-1326
-1302
-914
-1037
-746
-1050
-1074
-738
-840
-472
-472
-803
-838
-507
-639
-610
-493
-703
-1074
-1028
-673
-656
-707
-693
-788
-554
-140
-358
-367
-340
-308
-151
-424
-732
-1101
-691
-430
-560
-618
-408
-249
65
280
-16
71
5
96
-64
-80
-127
-78
320
179
199
181
190
194
376
256
-52
278
181
607
768
669
1050
1092
1039
688
832
402
371
27
-211
-221
-295
-80
322
190
399
682
1132
1095
874
387
515
157
-9
74
74
311
623
823
882
656
714
721
644
843
651
759
708
461
512
601
683
967
979
1041
860
814
862
644
863
456
223
293
310
526
463
434
238
380
228
426
780
465
592
223
151
179
634
879
641
579
-59
-103
227
506
596
95
-247
-143
-78
282
64
-177
-159
28
76
-161
-484
-815
-522
-63
253
557
220
251
476
752
1097
653
600
142
381
174
150
311
276
383
569
453
491
452
612
205
289
-75
-79
-41
-73
52
-335
-349
37
-17
155
224
137
-81
-287
-333
30
101
-292
-581
-820
-876
-824
-834
-681
-729
-830
-231
-115
179
493
1287
2109
2738
3326
3688
3440
3132
2912
2675
2008
1421
1043
225
71
-366
-304
-126
-38
-115
35
58
-100
-124
-323
-254
-515
-160
-167
-573
-404
-530
-311
19
-370
-537
-592
-573
-583
-629
-634
-574
-515
-513
-558
-616
-408
-432
-422
-386
-388
-494
-668
-1060
-1085
-1032
-720
-715
-1047
-940
-1338
-1376
-1282
-918
-924
-1022
-1285
-1079
-783
-397
-805
-1109
-1355
-1203
-1228
-1241
-1238
-1190
-1357
-985
-1081
-889
-497
-782
-703
-1130
-904
-1085
-1059
-1145
-974
-920
-736
-804
-444
-391
-591
-577
-388
-472
-450
-560
-201
-559
-795
-674
-830
-616
-233
-244
-525
-210
-365
-281
62
-53
351
373
-18
85
106
330
625
842
672
659
846
501
476
818
687
695
772
561
563
831
1151
1002
1102
890
825
890
683
893
803
508
815
658
744
759
659
491
633
404
771
816
471
584
527
589
412
409
585
248
232
533
599
395
405
638
591
544
519
248
238
213
158
368
162
603
816
875
446
181
309
128
250
228
284
30
-132
-129
45
329
582
409
589
550
440
666
709
470
137
-25
-11
-35
16
-227
-536
-364
123
-25
-32
-26
305
380
372
285
-87
62
-284
-335
-306
67
-27
363
172
213
571
506
697
1031
713
876
865
656
881
439
205
373
221
629
408
605
607
486
884
867
457
601
628
428
599
370
-73
-82
258
-8
101
-279
10
125
124
-302
-215
-190
17
-44
-20
-110
94
100
27
-218
-792
-702
-840
-544
-287
100
-8
406
1190
2396
3132
3422
3367
3009
2984
3109
2620
1525
670
359
67
-180
-489
-706
-655
-391
-145
-287
60
-3
210
518
130
261
279
329
-56
-344
-246
-323
287
172
-71
-182
-560
-130
39
-320
-630
-861
-845
-414
-521
-211
-208
-224
-230
-181
-305
65
-268
-559
-857
-672
-791
-419
-466
-806
-489
-569
-229
-581
-450
-419
-518
-169
-228
-565
-514
-352
33
59
25
-298
-201
-468
-732
-1128
-904
-966
-1378
-1256
-1215
-1019
-1074
-695
-836
-403
-234
-207
-585
-476
-829
-658
-1030
-1100
-1043
-692
-761
-1012
-1206
-1344
-716
-412
-401
-823
-882
-455
-179
20
97
119
123
80
-280
-133
-163
-319
121
268
273
-93
100
-13
562
864
710
882
511
489
812
652
728
747
688
840
781
832
679
707
866
498
511
649
766
738
836
429
410
509
862
840
435
544
537
433
883
731
714
648
837
509
437
439
814
710
753
665
831
867
725
740
833
611
212
150
336
264
304
238
444
496
386
547
595
431
623
357
62
-294
82
-4
299
-35
-106
-76
261
279
-63
65
1
61
-41
372
181
357
-88
-280
-382
-182
-584
-859
-1104
-1117
-664
-476
-454
-475
-564
60
365
377
-54
-101
371
418
805
465
600
616
502
654
730
720
644
785
432
400
434
486
768
771
777
788
793
819
662
1073
914
1097
875
406
587
622
618
514
157
197
386
811
820
469
433
771
823
413
308
-328
-553
-634
-439
-512
-504
-593
-301
292
411
904
1817
2566
3008
3510
3721
3878
3291
3125
2434
1952
1620
707
131
36
-344
-349
-310
9
92
-120
73
-334
-246
-602
-610
-546
-190
-140
-214
-633
-507
-501
-403
-638
-805
-1085
-1288
-1302
-931
-1082
-1052
-1059
-768
-685
-889
-680
-1075
-944
-937
-1055
-677
-729
-938
-1347
-987
-671
-405
-395
-823
-647
-771
-580
-540
-414
-770
-436
-527
-208
-570
-491
-849
-836
-774
-493
-806
-642
-660
-796
-600
-520
-413
-695
-1147
-907
-1114
-927
-1392
-1560
-1245
-954
-852
-597
-234
-211
-178
-373
-365
-252
-809
-1137
-1022
-1140
-853
-389
-636
-473
-472
-574
-141
-359
-210
-570
-572
-549
-624
-774
-832
-454
-525
-213
-555
-614
-239
20
-8
334
312
258
-45
-60
268
178
600
621
215
298
278
170
597
387
558
208
214
573
416
402
528
132
367
231
386
439
387
638
805
1084
1299
1322
948
1076
720
852
447
611
627
407
589
178
154
419
1113
1156
1376
1122
676
696
1078
1100
679
425
230
158
174
222
545
388
493
809
803
510
474
431
597
189
315
314
179
552
555
230
512
467
741
1105
714
489
630
397
391
235
-5
85
55
73
29
-337
-164
-159
-360
-335
-131
-250
-625
-393
-538
-352
65
-67
346
580
792
823
422
546
568
637
539
279
96
-95
377
240
202
183
566
488
772
634
515
573
510
672
686
802
546
-26
-317
-244
-599
-478
-688
-1076
-676
-525
-107
355
365
352
150
153
-75
-556
-1125
-1545
-1419
-1258
-926
-838
-530
120
782
1520
2887
3495
4114
3774
3517
3303
3359
2715
2024
1159
413
-9
120
117
97
46
19
55
120
-110
110
38
-291
-363
-190
-526
-565
-531
-189
-372
-361
-130
-380
-331
-316
-150
-567
-422
-417
-621
-625
-426
-461
-448
-435
-468
-491
-431
-598
-636
-864
-899
-1341
-1157
-1239
-1599
-1585
-1358
-1057
-675
-757
-1070
-667
-462
-508
-1147
-1585
-1481
-1588
-1167
-1212
-1655
-1506
-1440
-1276
-1380
-997
-1102
-666
-503
-396
-613
-640
-478
-846
-888
-818
-484
-811
-1046
-991
-901
-781
-154
-324
-234
-610
-201
94
-42
45
-218
-561
-189
-352
-195
-415
-798
-480
-579
-243
-563
-412
-396
-185
-125
373
169
341
297
142
564
620
513
379
380
518
414
476
501
858
1035
917
929
1095
767
1059
924
1291
1317
1281
1013
1315
1367
1309
1109
850
398
533
161
283
-28
339
553
452
452
620
573
574
524
382
-10
-14
361
213
236
243
584
465
774
390
165
-4
-32
275
315
327
333
349
359
371
160
231
529
237
170
143
171
205
213
201
175
371
258
-124
75
-127
-1
380
186
181
133
334
277
-71
29
-171
-575
-621
-615
-629
-640
-553
-351
90
-115
125
-59
139
572
579
226
234
416
875
672
840
774
821
665
723
706
643
814
477
437
444
436
588
150
280
312
175
230
165
354
164
597
461
419
546
216
222
204
343
-74
60
-285
-158
-571
-628
-246
-323
-313
-254
-437
-400
-229
-210
-477
-1068
-1119
-801
-363
-49
204
667
1436
2278
3128
3337
3008
2802
2507
2337
1516
1128
239
-285
-595
-394
-519
-378
-359
-178
-192
-314
124
-88
19
-184
-521
-210
-147
-147
-378
47
304
179
320
117
79
-3
163
348
76
-170
-238
-225
-547
-435
-508
-457
-419
-771
-644
-867
-638
-164
-149
-525
-566
-194
-330
-373
-569
-788
-673
-746
-1032
-761
-719
-687
-662
-833
-410
-535
-580
-503
-882
-871
-858
-728
-1136
-1056
-456
-174
-563
-1071
-1274
-1585
-1327
-907
-1348
-1475
-1668
-1448
-960
-798
-632
-390
-408
-414
-792
-1082
-1361
-1389
-906
-685
-711
-922
-1016
-1080
-504
-391
-876
-968
-1337
-1106
-467
-204
-131
-345
70
313
209
136
-119
-132
-249
-185
-301
40
36
47
-46
515
803
650
847
814
673
1110
927
1107
760
1027
1084
765
803
571
202
178
371
-1
-38
370
635
841
646
876
835
776
430
621
408
771
787
624
162
140
591
801
824
433
569
554
584
593
617
439
500
423
214
299
333
514
631
563
144
326
145
251
227
318
-104
125
-25
333
317
-42
-113
-75
257
257
-90
54
-264
-272
-279
-300
-295
34
-109
-35
-58
95
-258
0
92
-107
36
-255
-812
-693
-667
-641
-735
-1121
-1096
-827
-170
-50
515
834
928
1201
1243
1300
737
493
625
537
157
290
288
230
806
1060
1121
1034
677
863
485
530
345
374
629
871
895
511
491
687
898
1090
459
307
-120
-73
-39
86
-379
-217
-371
95
258
290
-52
61
-348
-517
-461
-662
-1027
-723
-811
-621
-155
-25
688
1917
2858
3227
3485
3513
3676
3424
2698
2324
1645
709
296
-514
-484
-550
93
299
-81
-325
-378
48
-86
32
-530
-498
-790
-481
-439
-622
-178
50
-128
-260
-199
-552
-590
-497
-1087
-1400
-1196
-985
-748
-687
-764
-1052
-691
-781
-419
-399
-396
-393
-444
-821
-663
-650
-816
-775
-819
-828
-432
-214
-370
-236
-482
-687
-1079
-974
-1407
-1254
-1225
-1394
-1350
-1305
-1121
-798
-545
-558
-786
-742
-1073
-1109
-971
-1346
-1286
-1029
-783
-480
-809
-774
-580
-193
-606
-715
-973
-929
-714
-855
-648
-666
-490
-229
-131
-252
-402
-400
-568
-584
-500
-655
-880
-474
-396
-443
-473
-592
-332
123
-88
-98
-22
164
576
534
307
80
38
-75
345
136
358
144
575
492
486
541
298
-71
-39
277
268
-36
-22
374
594
786
854
779
633
513
209
210
211
176
371
332
356
212
639
772
800
459
608
586
425
820
660
697
713
756
1075
1119
1116
1062
682
489
538
157
180
553
619
550
191
247
510
1064
908
764
809
460
494
777
431
255
362
320
160
599
511
814
464
591
566
639
394
224
-59
-273
-315
-271
-274
-330
-371
-384
-149
-182
-157
-293
92
113
52
59
-73
292
-8
110
70
-43
159
245
196
152
234
412
843
671
875
415
131
-77
-91
289
349
-8
113
121
294
231
578
592
618
628
524
282
17
-149
-209
-235
-557
-401
-494
-805
-795
-426
-233
-304
39
24
-286
-304
2
62
16
-200
-483
-876
-465
-340
317
424
923
1721
2932
3644
3847
3670
3448
3051
2778
2385
1167
235
-360
-571
-560
-234
-168
-367
-306
25
102
-93
-79
114
-278
-190
-595
-438
-469
-427
-609
-573
-599
-390
-400
-609
-556
-537
-545
-549
-563
-625
-481
-863
-706
-1031
-1054
-730
-803
-611
-594
-800
-1037
-1068
-650
-827
-1056
-1209
-1453
-1620
-1395
-1334
-1216
-1570
-1186
-950
-1126
-995
-1351
-977
-760
-743
-1016
-1584
-1635
-1170
-986
-1306
-1273
-1640
-1255
-1010
-1090
-1034
-757
-715
-675
-657
-642
-854
-786
-464
-394
-566
-227
-172
-137
-351
-334
-182
-448
-754
-1143
-746
-460
-528
-552
-411
-407
-214
37
-108
57
-379
-228
-188
-353
-322
-348
-300
-74
527
787
822
452
404
780
673
895
408
208
522
796
757
760
678
753
1017
1201
1311
680
432
509
705
652
533
-88
-91
239
806
850
482
458
818
845
408
148
298
364
152
312
-88
-118
-13
358
129
364
375
157
141
317
-19
-35
293
157
516
524
161
298
319
230
591
147
-283
-605
-517
-108
219
179
-100
11
-66
513
418
584
156
348
146
193
138
267
-90
-121
114
29
-358
-155
-294
-78
309
-16
85
75
282
255
533
372
257
340
521
615
605
390
827
1039
1107
742
820
415
546
152
278
-51
-66
-75
-102
-96
-14
383
519
587
565
248
236
544
578
243
327
-69
-93
-84
105
-277
-329
-263
6
-187
-488
-863
-409
-372
-344
-419
-1096
-991
-1038
-410
-344
-103
195
674
1566
1988
2853
3043
3226
3354
2706
2205
1740
1553
1033
163
-148
-497
-845
-791
-433
-580
-234
-213
-533
-579
-246
-362
-326
-191
-555
-214
5
112
-279
-232
-524
-377
-267
-360
-570
-434
-385
-548
-554
-406
-783
-835
-787
-407
-526
-200
-240
-563
-515
-323
125
-96
54
-316
-372
-178
-555
-420
-433
-611
-586
-433
-827
-861
-782
-436
-418
-452
-500
-832
-689
-1034
-761
-667
-886
-740
-944
-1358
-1375
-1283
-930
-924
-1023
-1405
-1201
-1153
-1300
-927
-1072
-715
-684
-1045
-967
-1282
-1111
-851
-507
-680
-904
-905
-669
-414
-593
-401
-440
-411
-421
-805
-698
-701
-786
-604
-571
-386
-622
-382
256
555
604
164
-80
54
118
-6
264
101
-358
-130
-121
566
651
745
893
488
421
434
434
608
164
-62
62
-124
128
391
489
418
596
395
808
640
821
427
638
457
806
820
775
483
470
416
556
197
182
234
523
229
170
177
521
617
399
628
569
234
136
288
-55
-96
-74
-19
276
262
-25
-3
359
231
551
540
253
247
245
188
318
-79
82
33
13
4
-281
-369
-513
-386
-423
-632
-583
-604
-427
-494
-484
-618
-130
-119
308
311
-42
-80
300
239
587
246
329
-40
-22
375
584
780
836
398
315
61
85
318
228
139
-65
-78
219
874
1068
725
797
440
425
390
565
517
535
555
519
215
242
593
394
601
255
200
159
303
119
-265
14
105
112
37
64
350
841
1337
1477
2156
2538
3586
4194
4051
3934
3403
2750
2473
2348
1496
1079
548
-21
80
15
34
122
-77
99
-339
-192
-365
70
95
-149
-495
-649
-771
-549
-248
-412
-834
-832
-445
-587
-536
-220
-134
-133
-565
-856
-1073
-1136
-1142
-966
-1379
-1228
-1172
-981
-1037
-680
-676
-690
-675
-689
-1089
-1356
-1274
-1389
-752
-778
-759
-1565
-1665
-1526
-1163
-1353
-1475
-1925
-1980
-1832
-1306
-715
-813
-396
-171
-292
-146
-464
-1035
-916
-1124
-1040
-1089
-1294
-1248
-1262
-1283
-720
-845
-708
-1147
-907
-711
-474
-625
-405
-456
-438
-388
-392
-460
-772
-505
-471
-474
-496
-474
-628
-233
-150
-151
-173
-137
-294
51
50
-289
-345
27
346
445
815
589
257
-65
251
647
696
589
-55
-73
529
879
686
800
452
773
863
826
430
554
229
163
322
-20
-74
-101
-101
-51
282
291
-65
90
-93
152
570
153
17
-195
28
205
633
357
-308
-382
-11
470
685
830
612
253
551
391
474
511
500
457
439
493
851
652
852
460
557
132
-44
71
27
75
-93
258
128
570
508
850
507
599
523
576
596
338
-252
-1146
-1408
-1136
-385
-143
-526
-389
-306
445
1314
1330
874
227
234
477
843
464
629
842
1310
1463
1823
1663
1212
1382
1351
961
666
595
196
568
797
685
700
701
762
1037
866
540
280
-3
369
377
-61
12
36
-3
175
373
118
-145
-536
-521
-130
120
179
395
567
120
-466
-1060
-658
-183
-77
-128
-367
60
1042
2303
3569
3981
3884
3376
2948
3345
3392
2725
2073
684
4
-431
-388
-195
-233
-816
-1115
-1072
-467
-382
-259
11
-127
356
236
140
-80
-257
-372
-527
-772
-735
-1040
-669
-774
-433
-402
-614
-532
-192
-152
-163
-203
-520
-620
-784
-708
-1078
-1072
-730
-678
-728
-1089
-898
-1113
-745
-652
-895
-692
-743
-730
-886
-491
-425
-509
-713
-926
-1297
-1311
-1306
-1340
-1404
-1181
-1153
-1329
-979
-915
-933
-1301
-1187
-1235
-1383
-927
-1060
-1109
-1006
-1332
-951
-719
-851
-700
-961
-1199
-1571
-1602
-1624
-1624
-1254
-1282
-1054
-685
-651
-832
-407
-253
-255
-403
-813
-850
-809
-776
-501
-405
-205
-262
82
125
288
614
893
649
449
606
809
1146
1012
1062
786
500
702
1100
715
440
564
432
694
899
964
900
1026
893
829
891
767
1081
722
510
587
559
407
776
770
390
575
466
1038
968
1047
385
172
636
744
1060
456
318
309
455
1148
1023
1110
882
786
800
770
536
76
-423
-660
-476
-303
285
374
133
580
666
1113
666
219
127
112
314
194
347
102
-309
13
-53
281
121
-149
-558
-241
-365
-354
-204
-525
-195
-290
92
-106
-115
35
-167
-636
-446
-572
-129
-287
14
-117
146
448
688
899
1384
1558
1274
980
803
157
-119
-308
-155
-154
-316
85
268
549
684
1323
1275
1236
1308
1151
1109
1133
1068
795
336
-133
-396
-627
-196
-328
-318
-338
-266
-113
303
163
198
312
-325
-853
-973
-945
-793
-281
355
616
735
1658
2303
3428
3960
3753
3661
3187
2843
2681
2234
1772
1299
586
-105
-295
-244
-825
-1079
-1039
-805
-477
-721
-993
-1148
-435
-331
-168
-803
-737
-813
-540
-253
-455
-874
-890
-684
-928
-1216
-1259
-1012
-742
-685
-749
-669
-634
-129
-162
-413
-856
-836
-490
-790
-713
-1099
-1032
-833
-422
-386
-638
-564
-200
-196
-619
-844
-678
-834
-425
-406
-816
-727
-733
-829
-412
-404
-795
-686
-763
-1026
-725
-846
-597
-324
34
-133
-440
-666
-738
-1044
-956
-1202
-1607
-1569
-1405
-919
-857
-198
-101
257
79
-171
-535
-249
-524
-447
-701
-1119
-1129
-761
-811
-534
-290
23
-136
-584
-598
-195
-369
-230
-417
-418
-176
101
-42
-53
284
564
884
740
842
600
197
148
345
-26
124
85
86
90
-94
138
455
641
811
575
198
557
478
782
404
223
354
325
142
574
768
820
391
153
371
587
814
777
233
-18
-9
183
567
524
184
227
394
790
797
456
412
460
510
449
528
379
150
575
444
630
164
273
307
170
199
134
157
398
716
1077
841
209
277
373
247
355
-356
-822
-726
-792
-234
-324
-310
-272
-93
376
164
-36
-288
-317
-85
135
297
-297
-215
44
253
432
163
106
-19
770
1143
686
138
74
-39
227
199
-106
-311
68
347
236
214
217
579
637
517
336
322
201
219
-69
-220
-632
-174
107
-122
-322
-168
36
381
535
381
126
26
109
-59
-119
-305
-220
-203
97
386
979
1412
1682
2016
2857
3295
3964
3853
3410
2785
2917
2824
2190
1526
1114
428
246
175
137
134
382
297
-112
42
60
91
-278
-529
-477
-478
-578
-181
-166
-239
-541
-230
-342
57
83
-329
-598
-802
-839
-788
-796
-882
-660
-818
-429
-411
-786
-657
-684
-875
-776
-419
-597
-630
-826
-1062
-1137
-731
-794
-788
-722
-1150
-1129
-702
-806
-772
-832
-664
-739
-1030
-1029
-1042
-1134
-1309
-1221
-1543
-1260
-1254
-1590
-1431
-1412
-1252
-1322
-1004
-1364
-1274
-1622
-1575
-1167
-1018
-934
-1139
-1057
-660
-786
-497
-809
-848
-795
-447
-425
-778
-644
-659
-803
-407
-591
-585
-568
-235
-364
36
-89
262
317
349
147
226
520
184
280
-73
-10
150
236
162
300
324
528
506
864
819
491
502
839
655
674
658
893
841
469
563
183
161
230
547
531
206
182
551
800
1066
940
1123
664
472
389
635
588
195
272
-116
108
-93
269
170
615
501
503
613
164
312
322
346
-14
-269
-526
-596
-153
-91
147
199
149
131
159
154
325
-62
72
-287
-143
-237
-250
-182
-371
-347
-313
39
-122
89
-129
-609
-410
-559
-186
-150
-374
19
-13
199
633
856
1139
1353
1370
967
1079
1049
1090
1118
1116
1123
1118
1056
741
1087
1355
1587
1262
903
810
496
665
739
795
241
381
244
406
500
842
706
710
456
340
-57
147
639
530
-108
-298
-6
508
737
510
156
293
128
358
55
-562
-626
-322
341
582
448
734
1653
2574
3390
3541
3537
3604
3419
2968
2872
2020
1540
855
339
-283
-558
-484
-503
-576
-287
-109
55
-225
-427
-640
-218
-230
-787
-910
-1299
-1105
-800
-392
-458
-863
-682
-652
-833
-505
-439
-636
-583
-549
-548
-603
-495
-723
-930
-1006
-953
-1152
-940
-1012
-922
-871
-535
-165
-565
-499
-810
-773
-812
-723
-1136
-899
-1045
-887
-441
-222
-330
-132
-634
-867
-664
-861
-662
-909
-1401
-1383
-1112
-810
-392
-611
-617
-417
-830
-1034
-1121
-736
-502
-640
-475
-646
-686
-796
-627
-612
-788
-1036
-959
-1284
-1282
-999
-947
-1088
-874
-615
-190
-216
-631
-479
-406
-229
-149
-240
-632
-627
-200
11
-85
288
357
320
-86
63
-74
221
424
601
371
290
210
430
435
246
355
380
198
158
303
298
176
514
136
-74
-72
251
663
1067
868
605
598
868
1125
1098
824
583
580
483
810
404
173
374
596
675
1112
1037
857
813
752
1294
1179
1328
1090
692
753
914
959
1046
772
593
589
406
432
388
608
607
581
239
141
380
205
558
590
561
540
570
626
387
566
137
-73
29
-273
9
19
-288
-366
-160
-141
-282
-75
155
250
371
121
42
274
613
469
540
377
547
691
1149
653
202
-47
299
234
514
133
324
166
548
540
173
365
135
379
-40
-285
-157
-340
72
-120
76
28
112
274
357
286
-114
50
37
67
124
-12
159
514
160
-82
9
97
383
633
451
461
677
1255
2359
2970
3880
4191
4174
3725
3548
3702
3260
2744
2111
1129
158
87
-313
-252
-483
-833
-485
-602
-540
-225
-312
-90
-21
63
-185
-534
-185
-345
-138
-546
-429
-785
-644
-765
-1053
-720
-691
-1120
-1408
-1247
-959
-470
-186
-583
-678
-1076
-852
-528
-226
-785
-1135
-977
-1085
-660
-872
-872
-822
-821
-1046
-1202
-1516
-1508
-1559
-1234
-1445
-1718
-1738
-1437
-1299
-1053
-759
-1101
-973
-1352
-1175
-1154
-1020
-1118
-1035
-1040
-1035
-688
-774
-610
-543
-593
-439
-774
-824
-880
-699
-743
-721
-681
-725
-1128
-1007
-1009
-1140
-755
-691
-882
-492
-609
-589
-436
-506
-422
-514
-209
-624
-866
-685
-476
-349
-44
286
-41
-15
236
838
1046
1051
1027
1145
1318
1018
689
610
599
866
1039
849
205
287
253
647
1121
766
489
230
325
259
284
380
195
133
-37
127
-5
250
403
581
137
335
226
425
488
418
632
462
848
865
465
515
380
345
344
306
-19
-52
260
379
218
225
161
357
362
143
369
-16
119
-112
315
211
198
314
-40
-4
336
331
-29
-118
-123
-99
126
66
85
-39
360
135
318
-4
279
373
194
235
545
388
511
875
702
757
752
643
461
592
621
507
871
845
501
495
851
681
644
771
409
598
235
338
-1
335
237
568
549
592
769
643
475
276
-160
-547
-155
-299
-154
-392
-498
-596
-272
271
368
258
29
-179
-248
-139
81
318
541
821
1005
1878
2571
3174
3293
3659
3286
2982
2512
1933
1629
945
869
221
-325
-881
-910
-1053
-470
-551
-456
-1077
-1346
-1327
-1081
-834
-788
-679
-1106
-1108
-896
-617
-215
-524
-390
-421
-612
-596
-460
-866
-874
-458
-560
-588
-479
-778
-611
-172
-252
-878
-986
-1288
-768
-506
-505
-697
-1054
-662
-406
-237
-241
-624
-801
-725
-1102
-1091
-729
-698
-1099
-1305
-1313
-1044
-489
-460
-706
-924
-1125
-642
-801
-696
-1148
-1144
-684
-786
-840
-1035
-934
-983
-1004
-1335
-1168
-1179
-1364
-1308
-1301
-979
-709
-254
-105
-13
-271
-609
-468
-587
-212
-390
-1071
-1399
-1351
-725
-604
-210
-539
-612
-544
-381
7
49
54
86
-112
-74
-88
112
63
40
38
57
108
-81
-43
-33
291
526
887
1136
1054
438
130
156
443
889
485
157
258
151
398
474
631
571
412
813
844
783
791
659
747
649
399
183
129
191
254
248
177
343
318
201
504
1065
919
1073
706
1034
963
1011
1077
840
781
880
656
509
597
606
501
836
490
607
565
607
578
163
-4
-39
305
142
180
206
251
512
139
-111
-142
-595
-388
-610
-620
-476
-848
-809
-586
-344
-279
-374
-152
39
340
231
154
308
360
250
564
212
350
324
311
-60
25
-282
108
273
299
-42
-61
318
192
159
-9
-116
-49
335
362
295
319
537
801
863
410
168
362
218
559
204
-28
25
-285
92
323
549
420
434
403
632
559
372
-109
104
357
469
679
751
1300
2092
3167
3949
3809
3697
3071
2945
3122
2497
1769
937
551
-54
54
-280
-343
-146
-187
-189
-139
-312
7
4
-325
-182
-544
-628
-440
-509
-846
-662
-667
-820
-410
-605
-485
-755
-972
-1013
-936
-902
-1003
-1184
-1590
-1624
-1258
-1312
-1126
-1051
-1100
-919
-938
-948
-1281
-1404
-1185
-1326
-901
-1080
-1125
-919
-1124
-751
-664
-653
-683
-733
-1066
-902
-976
-1007
-1288
-1354
-1176
-1180
-1326
-923
-1110
-1131
-1139
-1059
-702
-716
-1110
-940
-1062
-511
-566
-623
-825
-673
-844
-443
-398
-459
-786
-794
-494
-403
-247
-331
-290
-224
-797
-743
-715
-829
-788
-657
-1056
-765
-509
-170
66
118
53
-261
-261
22
19
-257
44
-41
214
420
489
467
481
838
650
775
204
-43
278
603
860
806
548
149
558
857
749
640
401
211
133
132
159
201
519
601
417
443
390
567
579
483
653
851
251
-108
-118
530
714
1064
769
152
325
546
836
727
710
886
821
801
842
663
709
680
860
829
651
1027
1062
721
888
668
1045
1118
1049
647
845
675
1066
1099
699
461
552
593
816
1033
1032
786
214
279
-4
279
-1
-53
-71
-62
-86
-119
-45
204
789
755
1040
714
713
1098
1015
1348
1002
1069
661
895
738
1089
1071
688
809
507
792
829
843
847
833
780
444
408
455
499
406
168
-69
103
-89
-12
-24
-118
15
-377
-240
-237
-287
272
153
-28
-368
-561
-246
-175
-602
-676
-1072
-840
-168
-117
345
501
1568
2566
3054
3323
3281
3240
3300
3279
3193
2243
1652
686
545
175
140
-26
-329
-573
-553
-281
268
358
-8
-126
-102
271
316
-108
-196
-781
-679
-662
-863
-881
-654
-804
-561
-366
-361
-161
-272
333
253
-69
-483
-963
-913
-803
-636
-877
-992
-1361
-898
-881
-498
-479
-451
-413
-471
-880
-729
-667
-779
-511
-710
-941
-966
-752
-794
-832
-1076
-982
-1134
-675
-698
-1292
-1649
-1421
-1382
-1105
-1147
-1190
-1445
-1464
-1590
-1228
-1180
-1349
-949
-1106
-1115
-1139
-1057
-882
-512
-801
-654
-753
-1127
-1316
-1221
-1182
-945
-1047
-976
-1647
-1886
-1450
-1318
-1136
-1293
-1253
-1161
-716
-232
-291
-169
-392
-456
-575
-160
-147
-228
-191
70
182
425
479
779
725
982
1290
1057
774
452
842
698
677
655
1044
1293
1220
1257
1239
1274
1585
1553
1156
970
1065
694
650
704
1047
1026
847
421
768
1151
1273
1581
1294
711
880
1039
960
941
723
463
576
598
470
877
747
1097
901
1123
695
476
396
788
697
847
151
-339
-239
18
142
572
221
297
-71
-125
85
87
-60
335
326
89
-223
-597
-179
73
-105
-279
-537
-636
-513
-302
72
54
3
4
44
64
44
32
60
106
-117
-75
286
193
599
434
503
861
732
1049
743
650
860
850
791
388
513
521
634
439
600
183
137
534
484
827
487
628
628
465
506
390
187
327
381
515
550
173
266
-53
-21
-35
68
-159
-565
-608
-639
-457
-469
-526
117
235
463
684
1163
1965
3083
3629
3695
3439
3111
2556
2211
1724
1359
464
-72
-206
-464
-854
-869
-786
-439
-447
-837
-741
-1050
-746
-722
-1054
-1116
-731
-414
-139
-353
-247
-637
-401
-429
-861
-904
-1158
-1229
-1398
-978
-1048
-651
-891
-759
-897
-1129
-692
-805
-843
-718
-707
-475
-220
-202
-430
-649
-890
-416
-228
-246
-431
-863
-887
-476
-221
7
84
-317
-612
-876
-709
-659
-893
-736
-1149
-970
-928
-1095
-758
-673
-824
-501
-814
-724
-1137
-939
-917
-1146
-1149
-1152
-1124
-1079
-747
-845
-629
-236
-532
-429
-496
-614
-145
-343
-235
-412
-420
-535
-171
-210
-584
-635
-571
-192
-335
12
110
-10
161
572
395
620
243
128
365
186
530
545
523
574
507
765
961
1295
1313
1307
1000
1105
847
569
369
-2
-106
11
-367
-355
-121
561
742
960
1083
428
272
55
16
-290
-221
-460
-802
-634
-317
-11
251
784
1066
950
1077
770
538
559
499
864
491
537
246
780
932
1378
1148
389
-20
-76
138
558
184
-120
-284
-114
245
486
486
432
822
1133
1378
1383
978
1128
1075
659
566
-64
46
-108
-9
127
-146
-547
-138
-48
514
405
422
400
389
400
413
397
598
555
631
876
924
1339
1003
1056
660
895
648
824
397
241
206
568
471
822
806
490
510
895
767
753
834
413
430
887
1104
924
1115
762
717
745
1090
945
1017
1016
1012
1154
1526
1992
2255
2356
1838
979
800
574
196
375
159
458
1331
1936
3133
3740
4681
5124
5027
5159
4553
4077
3545
2999
2440
2126
1567
1064
448
568
635
484
424
156
102
0
-72
180
210
-61
-193
-446
-511
-785
-882
-1028
-1093
-1045
-760
-1150
-1174
-1414
-1445
-1553
-1162
-1184
-1578
-1409
-1588
-1389
-990
-1289
-1225
-1420
-1503
-1476
-1423
-1662
-1657
-1620
-1569
-1556
-1573
-1557
-1218
-1376
-1367
-1182
-1221
-1386
-940
-1029
-713
-738
-758
-715
-871
-774
-486
-796
-645
-745
-1076
-1151
-990
-1329
-1362
-1327
-996
-923
-1139
-1135
-902
-932
-949
-995
-1161
-1487
-2105
-2033
-1921
-1847
-1260
-1337
-1293
-1015
-927
-1036
-666
-659
-757
-1133
-908
-1071
-649
-483
-579
-150
44
-15
194
472
1066
1345
1182
1387
1367
1243
1434
1480
1586
1179
1536
1672
2385
2640
2618
2215
2409
2225
2288
2406
2050
1660
1201
1232
1578
1275
1364
1007
1343
1231
1232
1019
746
844
817
826
820
835
875
884
789
616
206
361
-1
83
-169
-487
-1083
-1367
-1248
-1238
-1198
-1246
-1599
-1597
-1193
-1303
-1297
-1365
-1326
-1152
-1048
-929
-1184
-1257
-1302
-1047
-1029
-966
-1314
-1111
-780
-413
-889
-928
-974
-733
-488
-769
-751
-898
-1030
-772
-395
-489
-848
-475
-383
-8
209
531
565
639
474
783
777
464
397
626
408
483
778
501
480
490
471
603
188
170
617
821
791
531
329
175
482
658
768
168
127
-275
-327
-334
-284
53
67
-319
-246
-544
-367
-98
303
-37
4
-142
-327
-60
190
165
48
-446
-692
-781
-147
94
100
112
183
1120
1899
2233
2558
2706
2754
2940
2467
2360
1860
975
239
-254
-1128
-1280
-1471
-1509
-1459
-1628
-1542
-1201
-1327
-898
-1033
-1074
-1015
-1208
-1240
-1361
-941
-1116
-1115
-1129
-1121
-1091
-1070
-1103
-981
-1201
-1418
-1531
-1535
-1489
-1655
-1201
-897
-649
-894
-1070
-928
-1061
-833
-790
-1032
-1368
-1562
-1550
-1183
-1335
-1006
-972
-990
-996
-1123
-829
-253
-374
-227
-443
-861
-694
-1062
-995
-1232
-1445
-1822
-1804
-1659
-1214
-1335
-1024
-975
-1124
-756
-749
-1143
-1343
-1235
-1537
-1237
-1388
-1000
-1111
-713
-839
-485
-467
-814
-719
-1104
-906
-938
-991
-1003
-1118
-842
-625
-608
-452
-450
-238
42
-110
12
-187
-514
-157
-257
84
57
-258
-290
-310
-368
-207
-514
-171
15
-110
-124
78
-80
193
422
389
152
-7
341
559
401
598
588
775
1034
1107
673
475
504
723
1124
1027
813
505
710
993
1342
943
763
1024
938
1295
908
645
483
502
829
824
780
830
715
1031
645
461
451
655
1123
1136
719
854
647
1032
1043
872
387
521
547
622
397
637
397
498
640
740
753
706
879
480
518
301
-31
331
226
234
318
-101
-58
157
584
564
156
295
284
313
328
379
526
451
786
487
448
791
703
1056
764
670
890
672
724
756
1037
1060
1039
706
890
889
681
704
667
890
731
966
1195
1237
1337
923
931
1298
1295
1112
715
1113
1188
1589
1351
715
810
889
866
539
-91
-86
594
1050
990
1360
1801
2675
3644
4039
4256
4462
4041
3782
3644
3128
2560
1711
1374
833
177
-9
268
148
514
217
284
86
16
71
87
-359
-474
-1067
-952
-925
-1108
-1027
-892
-461
-391
-831
-960
-1573
-1460
-1423
-1630
-1663
-1503
-1867
-1726
-2085
-2102
-1749
-1898
-1677
-2117
-2016
-1981
-2059
-1917
-1898
-1914
-1881
-1872
-1734
-1952
-2354
-2314
-1926
-2134
-1962
-2308
-2018
-2103
-1873
-1424
-1590
-1630
-1516
-1682
-1782
-1777
-1697
-1841
-1457
-1569
-1208
-1205
-1278
-1556
-1174
-969
-1136
-1005
-1212
-1235
-945
-511
-242
-533
-454
-790
-448
-595
-610
-456
-783
-785
-784
-832
-873
-817
-408
-241
-134
-345
-327
-303
27
-82
331
381
266
94
56
-40
193
578
563
531
601
483
826
820
801
859
709
728
845
629
255
597
789
891
801
637
625
826
1037
1030
791
553
533
424
488
571
286
-101
264
181
228
142
332
380
215
233
158
334
314
316
-17
54
-161
-546
-248
-330
102
-93
112
74
-122
-27
-28
97
-312
-162
-553
-780
-724
-695
-420
-135
-335
-170
-138
102
297
-88
-218
-776
-803
-452
-462
-793
-454
-149
-95
259
-17
345
627
863
840
633
512
627
879
1094
964
1297
1347
1361
1380
1221
1631
1432
1269
959
720
704
1080
1140
1066
726
1037
974
1407
1164
1310
1003
1385
1605
1470
1652
1244
1198
1555
1653
1571
1322
1078
719
699
867
402
183
359
192
577
584
145
122
-343
-379
-269
-118
-18
296
141
396
1125
1793
2268
3094
3056
3167
2843
2575
2426
1981
1824
947
601
-9
-77
-3
301
272
-66
63
-366
-549
-637
-569
-175
-145
-563
-799
-895
-770
-577
-538
-425
-806
-479
-528
-141
-176
-223
-337
-32
177
327
-274
-576
-637
-550
-560
-505
-743
-1069
-668
-451
-578
-563
-589
-582
-548
-527
-543
-586
-385
-458
-833
-742
-912
-1019
-1007
-906
-1071
-1041
-1038
-745
-658
-829
-793
-826
-672
-1089
-1007
-1365
-1347
-1013
-998
-1338
-1161
-1363
-911
-710
-642
-709
-1064
-1115
-1123
-1136
-927
-992
-1315
-1374
-1404
-1375
-1009
-1107
-734
-720
-759
-718
-800
-618
-581
-432
-500
-390
-187
-379
-538
-479
-480
-520
-312
-319
-528
-478
-504
-617
-198
-382
-381
-353
10
-100
272
365
238
427
824
493
190
-121
84
341
388
423
156
122
127
194
823
713
843
618
226
222
525
556
569
594
601
540
164
344
173
399
843
816
605
165
150
232
218
287
44
-343
-322
24
-122
299
515
409
627
184
279
271
360
131
277
120
53
126
262
347
316
-58
83
31
-271
-151
-620
-770
-464
-529
-142
-174
-228
-339
258
529
512
330
308
591
690
1035
788
239
190
616
476
635
193
148
548
465
493
629
226
134
333
274
260
328
178
252
548
619
471
500
610
375
262
336
175
364
-72
-113
379
473
652
837
429
399
466
419
370
-339
-409
-409
-382
-26
222
623
842
1316
1791
2858
3253
3560
3508
3253
3011
3137
2747
2621
1889
1052
543
561
845
648
524
-271
-537
-166
39
12
-223
-622
-221
81
273
270
-59
-89
-98
111
58
70
100
2
-248
-435
-594
-293
-116
-280
-632
-849
-842
-831
-767
-1300
-1352
-1101
-790
-432
-509
-495
-533
-319
-380
-448
-760
-1093
-746
-731
-1139
-1318
-1364
-1008
-1119
-714
-499
-207
-259
-319
-594
-841
-868
-769
-799
-1061
-1361
-1400
-1087
-610
-274
37
-355
-232
-221
-348
4
-324
-563
-811
-875
-465
-517
-178
-225
-247
-135
26
60
-326
-199
-150
70
265
286
-28
289
244
412
594
345
-65
280
205
224
315
-41
147
783
1035
730
784
469
895
1112
901
1043
707
1050
972
1324
1283
935
1148
1150
1130
1067
744
707
685
659
882
831
499
429
424
495
808
481
569
217
559
465
506
613
178
156
513
548
164
-28
126
-118
-102
101
27
19
81
118
57
-316
-360
-268
-127
-102
-270
-519
-408
-393
-590
-627
-490
-800
-441
-252
-381
-135
-222
-544
-540
-216
-364
-264
9
-308
-330
51
284
188
383
-85
17
56
-19
174
569
413
504
839
645
700
740
718
843
622
149
291
324
189
557
620
448
862
761
751
787
545
512
425
779
600
265
84
-74
356
357
-68
50
50
80
39
-278
15
-112
-26
-72
29
-186
-444
-697
-1082
-746
-789
-614
-515
-292
534
1166
2308
2872
2796
2773
2746
2730
2823
2361
1623
799
110
-577
-777
-844
-875
-665
-718
-705
-816
-562
-333
-293
-209
-442
-809
-784
-770
-874
-768
-1102
-1110
-919
-1330
-1199
-1408
-947
-737
-860
-482
-527
-282
92
-257
-225
-437
-866
-1056
-1308
-1551
-1636
-1238
-943
-654
-773
-793
-847
-817
-464
-426
-797
-759
-940
-991
-934
-1114
-1054
-711
-821
-394
-560
-621
-799
-757
-900
-926
-1136
-1122
-939
-1320
-1389
-1334
-923
-732
-811
-409
-583
-624
-510
-888
-656
-647
-762
-1291
-1553
-1611
-1217
-1331
-1300
-1023
-1111
-835
-405
-465
-641
-703
-840
-435
-436
-850
-729
-675
-410
-327
-101
-94
22
-317
56
318
518
514
377
283
337
219
566
552
226
180
182
194
169
373
360
178
544
585
528
242
387
674
1151
1132
690
810
812
817
422
205
378
233
633
411
407
789
1036
926
1061
503
521
198
172
276
31
-346
66
150
404
403
225
338
315
277
61
-518
-427
-538
28
-53
-121
18
90
326
206
295
-331
-604
-592
-135
-274
-354
-214
-132
-97
383
278
-341
-602
-244
97
340
333
263
383
427
679
710
816
616
151
-77
-292
-155
-136
-273
-112
342
561
470
495
637
231
383
303
-86
-280
-186
-214
-347
98
-18
279
261
-5
279
297
-36
3
-525
-421
-589
-332
109
48
-182
-583
-245
-330
-306
-204
-553
-129
-44
217
592
814
1373
2164
2827
3137
3196
2970
3009
3163
2546
1981
1594
680
278
-541
-848
-857
-462
-619
-598
-546
-131
63
-108
69
-351
-252
-640
-497
-807
-472
-526
-346
-339
-247
-430
-490
-460
-477
-867
-1039
-1100
-751
-852
-489
-455
-462
-490
-793
-832
-854
-677
-903
-1253
-1533
-1796
-1553
-1304
-1021
-1188
-1273
-1325
-696
-472
-821
-1074
-918
-1032
-878
-712
-1016
-1249
-1230
-1362
-1397
-1617
-1518
-1412
-1178
-1360
-1279
-1499
-1527
-1620
-1190
-1362
-1335
-1306
-1301
-1359
-1160
-1356
-928
-751
-656
-871
-799
-453
-451
-841
-753
-1049
-655
-479
-451
-830
-896
-452
-333
-82
85
-217
-405
-582
-152
-381
-244
-537
-369
121
-12
293
177
432
854
504
516
146
518
439
488
445
490
681
1128
911
1069
719
731
1077
1143
1101
687
507
460
875
1143
1301
943
651
385
554
634
505
803
446
244
321
277
367
201
174
311
-27
-2
343
187
552
418
488
443
600
575
399
425
234
-109
-340
-300
-109
-35
92
-305
23
278
224
206
315
261
369
227
150
-108
-342
-380
-269
53
-312
-524
-394
-583
-155
-314
-129
-529
-551
-366
-79
159
586
780
1058
1348
1265
1263
1390
938
728
794
408
576
222
369
356
528
808
739
736
677
718
1060
733
472
251
570
864
1067
703
429
577
490
721
717
444
141
276
310
341
291
-9
306
182
530
565
387
809
651
467
-25
-591
-687
-718
-815
-399
-545
-347
382
938
1931
2778
3229
3300
3440
3033
2802
2605
1913
907
563
-79
-311
-187
-233
-203
-141
-332
-262
58
39
-382
-634
-827
-881
-839
-804
-809
-791
-428
-244
-308
66
70
-293
-207
-638
-790
-888
-885
-499
-525
-291
93
116
121
-86
-29
-52
57
-201
-496
-723
-1036
-880
-592
-355
-292
-352
-373
-301
9
-374
-431
-724
-1068
-697
-813
-784
-811
-498
-577
-160
-163
-599
-812
-663
-643
-846
-866
-706
-1041
-730
-502
-189
27
-257
-246
-773
-876
-792
-420
-428
-810
-658
-877
-472
-592
-568
-395
-779
-654
-749
-766
-677
-778
-388
-593
-606
-619
-597
-544
-238
-211
-216
-238
-205
-299
-19
238
585
255
182
235
581
250
-28
-308
-357
98
352
243
543
584
386
401
580
203
376
352
335
286
-30
-52
285
242
772
709
716
833
454
467
822
836
402
133
-15
321
559
779
873
864
832
824
831
824
510
639
193
272
-55
277
171
541
578
594
636
389
536
350
-5
320
181
162
267
-59
353
617
465
568
319
-64
-38
260
-10
-27
289
131
162
351
-13
-105
60
-338
-546
-512
-671
-712
-888
-484
-596
-202
3
322
406
833
502
581
513
604
454
437
577
252
536
578
561
518
513
518
162
-72
-307
-376
-260
-109
-49
-15
153
471
760
1076
650
441
602
545
338
-315
-436
-770
-246
-120
352
336
272
368
613
819
831
391
342
-281
-440
-1105
-1353
-1305
-746
-634
-137
-263
256
886
1847
2523
3018
2975
2699
2845
2745
3140
2905
1992
1201
860
549
143
256
113
18
-270
-278
-297
-323
-320
-273
61
-110
-25
279
262
-70
102
80
118
104
-329
-385
-896
-664
-775
-446
-842
-1045
-1058
-858
-412
-416
-785
-511
-555
-348
-345
-233
-565
-239
-142
-153
-534
-445
-892
-1131
-1360
-1181
-1305
-1082
-666
-834
-466
-571
-245
-603
-806
-690
-714
-751
-949
-1272
-1527
-1808
-1626
-1153
-1289
-1011
-969
-1066
-832
-421
-438
-827
-707
-1030
-1056
-1074
-1061
-702
-776
-625
-606
-433
-480
-632
-159
0
-308
-557
-816
-892
-511
-609
-612
-788
-693
-648
-395
-377
-284
-143
-545
-513
-266
278
140
295
-124
90
-61
327
368
350
380
233
569
250
351
275
364
249
516
373
259
371
405
872
804
526
279
-45
267
297
-6
-77
-99
-41
370
624
875
681
464
358
-125
-82
325
314
92
-362
-298
268
591
468
394
207
-8
57
-319
-347
-338
-372
-186
-184
-317
106
-64
-68
-70
-34
-32
-121
58
126
315
195
167
343
378
245
548
206
133
198
556
233
-11
60
-127
357
228
140
-35
127
-123
-115
96
28
-279
-308
-284
113
351
546
560
171
331
134
536
589
232
355
364
570
854
1037
1047
731
1044
1000
1171
1319
690
639
459
1078
1288
1055
574
309
203
503
823
557
-39
68
-120
266
341
348
291
-106
-299
-159
-358
57
-112
64
-344
-162
-380
-338
-166
-405
-723
-1005
-1164
-1164
-1286
-1079
-835
-530
-96
488
1392
1729
2192
2511
2943
2712
2866
2680
2414
1774
1248
672
214
-17
-73
-73
-84
-58
300
166
220
183
381
351
316
-35
92
42
-124
307
197
514
527
524
210
288
15
-245
-412
-493
-796
-838
-853
-822
-476
-544
-259
280
143
282
63
-289
63
-64
121
-201
-859
-1113
-1122
-708
-810
-804
-699
-1132
-900
-707
-450
-626
-812
-1109
-1020
-969
-1071
-734
-768
-1063
-745
-859
-505
-809
-714
-1109
-1132
-1067
-1039
-898
-1378
-1571
-1604
-1198
-977
-1113
-947
-1187
-1618
-1270
-938
-652
-696
-1021
-1277
-1196
-910
-1049
-1008
-1564
-1602
-1363
-1151
-929
-1326
-1009
-654
-251
-349
-219
-426
-504
-397
-206
-327
-295
-295
39
-28
177
514
206
171
533
445
484
587
164
206
456
680
681
507
620
388
502
807
472
600
543
590
425
492
772
785
821
871
893
851
488
637
630
491
647
727
704
672
702
737
643
394
157
367
231
579
532
220
603
641
1117
1064
833
458
817
685
840
518
-10
-41
335
383
321
294
132
219
375
111
-321
34
311
229
168
276
283
531
869
1055
707
639
-13
-312
-209
-563
-488
-1036
-1296
-1339
-1105
-480
-194
-329
-295
27
-79
337
143
340
260
288
192
636
476
481
775
655
1066
1106
759
641
825
796
770
485
465
442
409
413
472
506
422
543
563
788
720
826
156
-101
315
395
422
270
-165
-171
-26
597
603
338
122
115
-33
-10
75
-540
-729
-1348
-1224
-1352
-1095
-866
-414
-370
171
933
1743
2647
2726
2734
2545
2580
2399
1922
1799
1283
792
203
-1
68
-381
-220
-162
-346
-194
-467
-650
-795
-219
29
48
-326
-143
-373
-351
-170
-568
-446
-780
-794
-503
-439
-629
-572
-517
-185
-368
-130
-550
-804
-765
-1108
-1102
-1104
-1150
-915
-1076
-861
-640
-513
-225
-219
-200
-186
-203
-232
-245
-239
-247
-531
-559
-586
-634
-476
-835
-840
-465
-574
-529
-615
-480
-511
-430
-574
-526
-564
-386
-433
-414
-593
-249
-165
-337
-286
-339
-244
-425
-507
-484
-490
-863
-717
-870
-558
-304
-338
-575
-460
-622
-241
-587
-846
-733
-870
-399
-594
-448
-771
-406
-250
-237
-624
-473
-416
-242
-323
56
-92
-1
293
295
326
152
214
173
289
-96
-126
-71
257
324
139
197
184
359
322
211
778
1060
1117
677
418
249
198
165
338
-15
-75
-86
-55
271
379
249
623
472
832
664
682
872
789
771
802
779
623
150
312
177
400
770
430
534
244
618
490
499
406
576
533
203
313
-82
-93
272
366
347
256
-37
279
358
353
-17
83
-273
-260
82
124
27
-166
-535
-200
-276
76
43
27
-112
288
258
22
-200
-216
-330
13
-306
-135
-321
-94
380
172
307
-104
88
-126
-64
-59
-81
-48
302
350
286
-63
-25
176
618
615
221
130
156
179
340
-77
49
-325
-522
-775
-890
-512
-551
-215
-556
-601
-172
-93
193
521
359
48
-545
-781
-863
-870
-683
-1096
-924
-758
-610
101
222
855
1380
1791
2657
2747
2794
2925
2519
2631
2404
1752
1190
846
170
305
137
187
277
-287
-216
-384
95
-71
38
-151
-155
12
110
-283
-539
-410
-563
-130
-344
-208
-600
-628
-572
-534
-554
-589
-581
-525
-221
-252
-615
-462
-498
-483
-509
-645
-1098
-990
-1296
-1020
-957
-1086
-642
-484
-471
-852
-749
-1118
-968
-1392
-1598
-1482
-1493
-1661
-1261
-1314
-1056
-805
-392
-386
-770
-747
-1321
-1648
-1854
-1865
-1509
-1466
-1531
-1816
-1659
-1379
-960
-1312
-1537
-1616
-1181
-911
-1054
-1144
-987
-1150
-886
-410
-393
-801
-701
-736
-661
-834
-825
-648
-757
-1054
-699
-475
-217
-305
-279
-341
-131
-336
68
-48
-39
85
-290
14
-67
285
-70
31
57
277
196
142
-33
-59
156
411
464
563
138
350
380
359
270
-94
73
18
55
-25
235
428
462
414
434
802
853
445
139
117
-268
-278
1
32
77
97
65
26
57
-114
-103
14
-159
-178
-259
-70
-30
-68
275
524
447
548
101
-561
-397
-254
-175
-597
-874
-703
-460
-320
-50
-2
-52
-69
-73
97
-310
-368
-270
95
39
-143
-211
-313
108
-260
-604
-830
-420
-296
-59
-77
-106
365
501
761
718
502
613
614
394
626
582
627
503
878
640
815
455
402
430
486
478
387
556
619
876
908
977
759
466
630
504
824
552
36
-598
-553
39
263
-94
-360
-213
-308
-55
311
-27
82
-276
-349
-203
-605
-472
-779
-474
-586
-376
105
350
463
1308
1779
2616
2527
2570
2025
2144
2076
1816
1285
455
371
294
304
-6
-120
3
-183
-449
-703
-1055
-729
-667
-760
-958
-1330
-994
-1061
-687
-739
-919
-1384
-1541
-1589
-1265
-1390
-1288
-996
-982
-954
-919
-921
-977
-1314
-1404
-1557
-1535
-1740
-1697
-1574
-1072
-803
-673
-958
-1010
-704
-578
-532
-660
-1379
-1250
-1012
-1038
-927
-1632
-1717
-1918
-1614
-1154
-1193
-1555
-1259
-1354
-996
-986
-922
-739
-858
-717
-1020
-1206
-1373
-932
-948
-1216
-1510
-1857
-1501
-1409
-1432
-1486
-1438
-1257
-1306
-939
-945
-995
-992
-910
-1066
-751
-715
-881
-467
-584
-561
-600
-549
-367
67
83
-306
-143
-320
117
-6
285
270
-17
-106
14
-307
66
301
204
211
191
569
830
1066
1123
763
875
509
404
544
206
219
598
488
826
836
860
730
916
1002
1115
832
414
790
1059
933
1034
501
631
477
893
648
497
586
514
246
214
170
199
590
490
817
812
865
1057
1299
1154
1331
954
946
1014
954
680
385
571
466
812
624
275
99
-7
524
636
547
171
159
197
178
143
188
528
217
-45
-331
-159
-326
-310
-245
-479
-773
-630
-556
-442
-650
-670
-466
-233
-147
-185
-238
-255
-211
-310
-34
211
208
-55
-290
26
311
222
330
22
-134
-286
-95
-24
-88
99
122
-42
298
306
-62
-293
-550
-427
-632
-517
-251
-616
-420
-548
-339
-286
-201
-405
-427
-575
-607
-894
-951
-974
-677
-607
-244
-551
-562
-516
-618
-708
-1338
-1202
-1320
-921
-930
-925
-861
121
1064
1724
2488
3055
3634
3689
3287
3020
2896
2342
1622
891
313
-309
-236
-248
-340
-73
369
309
72
-349
-290
-115
-92
-318
-599
-411
-225
15
96
12
-364
-184
-250
-599
-434
-458
-419
-640
-614
-539
-136
7
59
36
20
39
36
-292
-131
-159
-361
-305
-329
-176
-539
-557
-185
-265
72
-270
-161
-165
27
-57
84
-537
-804
-460
-168
-336
-637
-1038
-1109
-770
-363
11
-137
-245
-382
85
-104
60
-269
27
52
-348
-596
-444
-530
35
279
157
520
611
586
170
274
272
345
272
-260
-256
-249
-301
77
-275
-155
-339
-60
203
543
527
579
455
803
796
783
876
1032
1090
734
878
702
994
1556
1427
1657
1437
1686
2046
2243
2402
2145
1725
1738
1753
1826
1224
958
931
1299
1312
1150
710
669
714
892
601
-1
77
99
-122
10
-227
-640
-603
-165
15
93
76
16
-311
-147
-536
-464
-667
-1089
-905
-904
-904
-957
-1291
-1303
-938
-1036
-719
-1078
-1005
-1381
-1361
-1002
-907
-1086
-739
-893
-849
-889
-675
-878
-501
-437
-480
-787
-469
-568
-164
-322
53
-45
-4
5
-474
-904
-1002
-749
-395
-222
-590
-843
-716
-815
-225
-300
-251
-749
-1163
-1227
-1021
-1082
-1066
-1135
-1095
-646
-412
-513
-210
-229
-247
-198
-303
-81
368
193
174
138
155
216
250
175
-26
-293
-230
-222
-312
70
-258
-197
-541
-157
29
45
-384
-516
-163
49
94
-134
-421
-479
-525
-305
-356
-439
-1063
-966
-904
-1048
-1031
-1077
-1071
-742
-738
-923
-1233
-1453
-1425
-1205
-973
-1079
-659
-551
378
1290
1971
2922
3199
3122
2925
2816
2488
2204
1844
1061
167
58
-156
-593
-453
-445
-398
-441
-770
-404
-326
-36
-93
-187
-466
-456
-601
-437
-709
-1105
-690
-441
-391
-493
-430
-363
-83
68
-585
-829
-428
-140
-373
-418
-703
-680
-432
-518
-533
-562
-217
-380
-219
-465
-880
-812
-403
-421
-660
-1148
-1143
-657
-425
-392
-817
-1035
-1145
-1109
-1031
-1069
-1004
-1230
-1555
-1408
-911
-751
-731
-744
-890
-615
-302
102
-271
-525
-400
-522
-275
31
-230
-814
-874
-625
-375
-134
-538
-226
80
305
-88
-181
-613
-530
-250
-799
-958
-1321
-739
-585
-203
-558
-547
-299
-36
277
-37
296
571
840
648
797
445
457
780
823
808
452
528
367
133
636
679
1068
730
862
821
819
791
784
874
722
643
632
212
401
1046
948
681
531
172
404
857
500
547
595
658
1120
655
213
-18
378
595
556
293
123
-16
521
472
799
830
872
857
490
638
394
500
798
422
207
294
-7
301
131
185
165
341
266
295
222
483
680
722
641
826
855
686
710
847
628
173
340
341
345
320
314
365
186
221
194
144
362
320
-1
-46
-26
-8
121
-182
-457
-467
-216
-258
-339
-631
-820
-499
-612
-640
-833
-702
-882
-468
-397
-640
-515
30
328
183
374
303
338
191
525
241
334
85
-381
-175
-327
47
48
-316
-164
-227
-544
-594
-249
36
342
155
-26
96
-8
544
586
-40
-531
-786
-815
-679
-1291
-1596
-1251
-1112
-856
-748
-1312
-1344
-1048
-798
-683
-1155
-1884
-2164
-2313
-2428
-2193
-2012
-1887
-1167
-665
-292
781
1661
2346
2651
2642
2259
2390
1977
1901
1365
781
353
-110
37
-380
-598
-510
-802
-488
-435
-462
-834
-732
-1071
-723
-487
-574
-427
-756
-986
-1137
-830
-419
-844
-1122
-935
-756
-804
-483
-772
-773
-511
-868
-1047
-1138
-1050
-657
-664
-1064
-1122
-705
-490
-506
-1060
-1397
-1242
-1356
-933
-909
-989
-1306
-1318
-1334
-1346
-1016
-1118
-1028
-1127
-1352
-1242
-1193
-1309
-1017
-1382
-1236
-1193
-996
-1040
-715
-1105
-1355
-1267
-1205
-1006
-963
-1251
-1679
-2087
-1523
-1326
-966
-1549
-1904
-1878
-1547
-1341
-1238
-1520
-1825
-1572
-1021
-931
-1012
-1314
-985
-1142
-1131
-959
-1315
-1360
-1357
-1360
-1390
-1377
-970
-667
-604
-218
-607
-835
-654
-772
-590
-562
-421
-501
-423
-229
-287
-104
349
539
409
484
862
1067
959
1145
652
487
801
727
1071
726
839
496
413
534
177
522
768
675
869
478
782
1039
1002
998
1146
1145
959
1082
629
-116
30
370
793
655
450
243
576
883
1122
1079
815
582
555
421
491
387
190
345
184
389
494
635
363
102
-290
-324
-328
-329
-297
56
-83
-58
95
-299
-328
28
106
3
-537
-801
-844
-395
-366
85
117
39
-314
-331
22
-102
-83
-277
-621
-662
-1035
-1038
-1090
-993
-1161
-1165
-950
-658
-488
-776
-643
-667
-506
-255
-341
-335
-145
-368
85
328
177
349
-53
-106
-44
-10
90
-256
-866
-735
-808
-205
56
114
66
107
299
525
412
486
849
1031
930
952
1147
1097
1051
657
399
171
155
595
495
437
240
164
630
743
957
1047
586
-120
-336
-346
-300
24
-21
408
909
1540
1815
1975
2926
3680
4108
4096
3875
3457
3592
3063
2865
2412
2101
1854
1269
913
749
1139
1158
1579
1270
1332
1146
1035
729
692
891
822
785
801
828
817
792
846
724
1056
686
439
553
413
684
1117
1055
836
415
454
682
935
1008
1057
430
184
539
668
1288
1356
1140
642
847
681
705
835
465
801
1028
1133
677
568
352
176
635
441
581
239
619
662
951
1358
1406
1193
1541
1645
1641
1156
761
443
406
828
644
476
553
430
1115
1198
1168
958
964
1245
1444
1259
1128
712
924
1227
1541
1358
938
924
926
764
475
532
537
636
389
242
301
-27
134
782
1300
1466
1846
1432
1231
1227
1429
1846
1512
1278
1406
1249
1412
1658
1213
1325
1397
1582
1627
1168
1127
716
1033
928
995
928
1070
759
1058
1138
901
1088
743
736
1127
1369
1615
1500
1516
1439
1556
1363
1128
893
460
384
413
805
1069
1154
1432
1522
1452
1622
1593
1250
952
503
199
519
842
1138
1017
1362
1543
1482
1508
1589
1363
960
1117
717
822
510
825
893
893
878
657
672
806
585
207
565
807
727
744
658
506
528
-11
51
64
-75
-91
-344
-395
-505
-621
-173
-130
-221
-562
-579
-604
-438
-776
-465
-252
-274
85
44
-261
87
325
543
599
516
196
230
254
333
-310
-401
-460
-513
-308
-294
-384
-135
-288
47
40
62
-41
377
334
67
-180
-148
-118
140
151
-43
22
-310
-316
-348
-179
-253
-202
-316
-268
-221
-882
-972
-1346
-1390
-1632
-2063
-2326
-2097
-1233
-681
-405
-177
368
991
2077
2246
2276
2424
2354
2007
2048
1477
1158
1112
496
281
-209
-805
-886
-776
-639
-582
-604
-444
-867
-1032
-1063
-881
-602
-527
-822
-1288
-1271
-1381
-1147
-980
-1437
-2149
-2004
-2103
-1745
-2073
-2087
-1816
-1405
-1002
-1537
-1707
-2159
-2073
-1745
-1929
-2288
-2820
-2889
-2833
-2504
-2435
-2608
-2283
-2255
-2243
-2241
-2302
-2469
-2919
-2692
-2480
-2233
-2246
-2839
-2996
-3433
-3336
-3174
-3135
-3169
-3115
-2693
-2819
-2844
-2922
-2833
-2297
-2330
-2419
-2531
-3107
-3107
-2864
-2449
-2831
-3107
-2993
-3157
-2748
-2744
-3163
-3067
-3350
-3028
-2954
-3125
-2747
-2930
-2804
-3426
-3538
-3865
-3608
-3049
-2970
-3063
-3033
-2712
-2232
-2063
-1470
-1359
-702
-429
-403
-781
-786
-542
80
352
184
162
135
146
198
530
609
416
460
771
858
707
1055
1122
913
903
743
395
260
78
-47
238
427
444
447
835
759
1054
652
476
402
404
400
632
402
495
840
642
734
1139
941
742
598
263
-80
-14
-40
15
-212
-515
-342
-80
136
250
528
224
157
162
544
476
859
845
488
448
789
670
705
839
424
401
806
722
1027
731
762
937
1152
1248
1189
1328
993
954
901
1077
755
720
686
665
716
1091
929
1129
693
814
834
678
704
654
715
1009
1647
1854
1829
1528
1918
2140
1928
1726
1503
1465
1529
1454
1190
968
993
1170
1217
1280
760
649
701
746
680
803
447
414
430
479
812
859
814
464
429
472
479
585
338
-72
-35
339
340
-80
-266
-329
-299
-330
-523
-804
-722
-695
-813
-464
-460
-394
-333
516
957
1796
1942
2254
2551
2762
2734
2665
2172
1437
1316
712
524
-272
-486
-680
-797
-524
-153
-549
-491
-442
-364
-40
-10
44
-338
17
115
-359
-834
-914
-1087
-502
-609
-811
-1105
-1120
-793
-175
-369
-402
-1060
-1023
-951
-712
-794
-816
-709
-1043
-684
-492
-394
-465
-842
-865
-814
-852
-1074
-1386
-1567
-1254
-1323
-980
-1378
-1412
-1899
-1672
-1514
-1566
-1224
-1590
-1855
-2128
-2014
-2037
-2342
-2270
-2480
-2476
-2179
-1788
-1808
-1450
-1229
-764
-520
-316
-183
-585
-514
-330
-318
-572
-876
-754
-747
-1057
-994
-1406
-1315
-716
-603
-180
-246
-391
-454
-403
-568
-245
-192
-379
-290
51
-109
332
403
1066
1397
1263
1185
1023
920
959
1389
1597
1429
1579
1383
1294
1159
1609
1647
1246
1397
1558
1915
1921
2144
1906
1459
1415
1629
1162
1077
810
769
653
1094
991
1380
1240
1548
1271
1257
1585
1424
1604
1020
872
433
834
1121
1009
926
759
677
688
714
743
1079
950
1022
959
1062
692
694
736
697
795
531
-30
-269
-326
95
350
234
205
163
546
823
1055
1108
1038
712
881
423
377
-97
-71
379
242
157
-10
-49
332
180
352
121
-298
16
-18
158
162
322
287
359
194
171
298
-74
-113
107
-294
-523
-392
-531
-261
-57
-44
127
-124
341
456
1099
1351
1371
954
1062
1084
960
960
670
254
314
219
479
771
580
211
603
798
508
522
380
529
508
508
255
298
343
252
225
-75
-163
-555
-206
-341
-372
-546
-450
-459
-613
-572
-454
-719
-922
-947
-921
-1317
-1625
-1822
-1631
-1095
-569
-328
18
334
1027
1827
2328
2403
2020
1944
1923
1767
1643
903
463
338
-322
-480
-1029
-1138
-917
-1282
-1205
-1566
-1250
-1361
-1014
-988
-927
-1027
-855
-770
-783
-857
-694
-751
-701
-803
-421
-487
-727
-1136
-735
-400
-195
-528
-450
-473
-581
-206
-243
-579
-534
-134
-322
-155
-544
-574
-252
-227
-586
-502
-871
-861
-793
-492
-781
-889
-764
-1079
-708
-418
-375
-314
-562
-664
-1071
-655
-426
-448
-750
-1307
-1338
-1135
-702
-710
-1076
-1119
-1051
-708
-677
-695
-747
-1046
-744
-808
-551
-185
-616
-681
-1088
-675
-426
-410
-686
-978
-987
-701
-623
-205
-217
-556
-620
-388
-622
-544
-205
-204
-529
-251
7
175
496
771
571
165
197
552
526
345
-99
83
-97
347
612
645
1114
909
1087
758
1024
1046
680
391
305
115
-75
183
468
651
728
1046
1141
944
1147
749
875
811
500
395
554
588
772
727
1089
1090
1083
1098
1084
735
863
775
472
399
538
193
184
231
517
518
553
404
785
819
450
526
186
543
476
790
612
307
-127
-19
512
447
421
533
187
193
192
354
-70
35
-303
-327
-322
-306
-281
11
43
57
33
-292
-134
-218
-535
-624
-794
-749
-1116
-761
-487
-240
-225
-444
-689
-740
-830
-416
-771
-1113
-1390
-1293
-832
-339
105
-260
-356
57
365
232
-24
-229
-792
-500
-245
-275
65
77
-112
300
237
409
773
505
599
361
-32
287
230
406
457
432
427
475
770
471
580
348
81
-137
-219
-143
3
82
51
-276
-320
-355
-201
-394
-882
-1121
-1386
-1662
-1804
-1644
-936
-415
-270
344
683
1859
2533
3034
3023
3083
2787
3098
2876
1949
1368
802
624
542
256
-164
-393
-529
-274
64
-316
-146
-270
-45
259
26
-587
-850
-719
-1045
-1108
-1120
-1064
-747
-733
-691
-770
-209
76
-63
108
-353
-551
-412
-448
-484
-867
-1069
-941
-1120
-658
-805
-677
-906
-969
-758
-463
-614
-782
-1044
-914
-1090
-895
-498
-506
-875
-719
-717
-641
-844
-866
-673
-760
-903
-1392
-1634
-1451
-1253
-920
-708
-727
-1083
-753
-442
-360
-282
-534
-885
-1030
-880
-628
-535
-415
-863
-645
-495
-583
-585
-490
-890
-859
-428
-542
-556
-400
-399
-203
66
-64
100
-318
-333
106
314
331
-121
-345
-139
-272
107
87
-280
-300
-125
169
425
805
813
775
478
452
449
478
769
778
487
436
443
829
1055
1016
1331
907
864
394
427
662
1140
901
722
507
403
419
459
412
515
329
-18
335
594
877
1027
731
844
486
496
829
860
776
617
516
595
850
1139
1290
991
1113
1046
1118
995
1286
1146
667
802
877
1041
1107
764
662
683
1041
1043
869
406
625
768
892
846
431
576
567
570
251
172
167
215
224
174
164
548
507
642
852
445
607
636
428
589
294
-326
-526
-199
17
-119
72
-267
120
215
768
489
178
-110
113
-6
304
-78
25
19
-101
302
145
533
493
694
719
816
391
619
453
769
467
384
594
540
131
-83
68
-108
274
-30
-281
-517
-524
-331
95
107
33
12
52
64
42
60
-128
-112
8
-219
-636
-435
-787
-1046
-1345
-1155
-1139
-461
-160
-284
-105
591
1006
1709
2288
2711
2979
3038
3128
2856
2637
2219
1927
1629
684
150
-71
-93
-125
18
-343
-373
-368
-375
-362
4
-47
377
370
-65
-264
-348
-327
-308
-383
-521
-621
-387
-640
-395
-626
-228
-266
99
-291
-588
-813
-806
-640
-521
-566
-427
-449
-594
-195
-143
-189
-256
-550
-604
-481
-647
-694
-822
-403
-427
-691
-998
-1339
-1142
-891
-824
-692
-1053
-706
-473
-562
-614
-846
-1077
-909
-1107
-759
-752
-901
-1398
-1572
-1271
-994
-671
-801
-676
-1096
-750
-633
-274
18
-517
-828
-688
-656
-666
-757
-765
-823
-526
-349
-338
-321
114
137
545
174
125
-143
-200
-321
118
-53
-92
77
92
277
562
806
893
830
466
402
404
444
493
794
816
789
465
413
451
842
728
1030
722
675
708
766
744
887
795
816
889
873
469
575
577
443
509
406
245
211
597
477
432
222
295
282
383
193
157
356
130
232
563
554
240
208
224
254
513
236
202
148
345
319
347
382
333
-77
37
61
260
231
596
564
219
133
307
-18
-33
-8
-25
-119
67
-97
382
575
625
586
565
551
206
330
288
357
375
-25
42
36
-40
304
110
-190
-538
-373
33
-302
-218
-168
-79
552
439
396
416
870
1098
1122
650
633
230
228
255
235
197
223
576
402
401
615
637
509
649
654
477
519
221
411
661
710
487
167
256
286
343
-17
-297
-603
-783
-796
-433
-525
-157
-233
-770
-1032
-723
-565
-114
-30
-149
-668
-953
-935
-1114
-913
-1014
-966
-734
-428
-346
167
986
1988
3078
3219
3205
2997
2765
2495
2359
1812
1147
201
-383
-449
-434
-185
63
-91
-75
-21
333
375
325
284
313
313
-118
-156
-570
-195
31
59
-149
-566
-215
11
92
-273
-336
65
266
269
81
-301
17
69
-130
-466
-823
-541
76
110
-196
-458
-637
-348
53
-342
-569
-634
-525
-166
-177
-246
-551
-586
-405
-807
-717
-1096
-1152
-1127
-1033
-690
-700
-1074
-930
-920
-1063
-730
-1041
-905
-955
-1149
-1082
-1123
-984
-1311
-1007
-907
-1110
-1110
-1087
-728
-828
-427
-565
-214
-184
-526
-455
-862
-881
-839
-892
-1054
-1147
-739
-435
-513
-590
-479
-420
-169
-287
-216
-824
-716
-479
-295
302
170
195
528
442
871
680
842
623
159
134
600
889
1028
693
838
894
1078
1126
861
142
56
37
-2
240
403
801
729
1134
1125
735
673
1085
1317
1011
470
-300
-504
-629
89
363
-1
55
-124
214
773
880
652
699
848
373
-516
-468
48
843
1146
450
76
22
431
1236
1478
975
153
-377
-298
184
814
492
376
-116
281
596
448
513
306
334
530
403
637
540
151
-100
-184
-634
-525
-303
-304
-577
-784
-618
78
142
366
125
-331
-137
-368
-284
125
293
351
267
-87
-61
295
284
54
-533
-484
-421
-368
292
384
844
658
726
896
1366
1176
967
860
617
596
585
353
-276
-153
-76
482
1049
682
470
848
1346
1792
1499
985
403
382
174
561
589
559
585
387
409
437
880
955
1333
888
-271
-1036
-1148
-481
-196
-467
-994
-1388
-685
-172
-248
-951
-1915
-1754
-1273
-1077
-1134
-1245
-1216
-558
985
2633
3036
3338
3337
3648
3788
3766
3342
1985
912
129
-132
-490
-703
-726
-865
-488
-471
-772
-467
-228
-123
138
348
-274
-775
-1145
-937
-664
-560
-160
-633
-1089
-1233
-1609
-1189
-902
-676
-855
-673
-1082
-920
-1064
-474
-363
57
-294
-227
-551
-231
-179
-246
-616
-414
-401
-412
-503
-865
-895
-827
-467
-431
-769
-702
-914
-1297
-1004
-1090
-683
-682
-1072
-911
-1071
-827
-632
-426
-747
-1169
-1478
-1834
-1498
-1630
-1594
-1424
-1510
-1430
-1375
-731
-772
-861
-899
-1191
-1586
-1557
-1200
-1390
-1177
-1552
-1594
-1399
-732
-591
-172
-238
-614
-406
-417
-456
-507
-480
-619
-248
-165
-289
-85
311
256
45
-368
-331
66
60
-176
-472
-806
-530
-78
207
374
40
-200
-144
52
85
-135
-385
-424
-232
55
358
438
748
1137
1046
689
1084
1376
1179
1076
612
526
643
998
1120
615
319
597
911
1204
996
847
409
813
1113
1392
1573
1579
1354
754
816
893
765
867
197
-66
370
508
886
615
340
193
832
767
502
-13
-356
-308
288
639
773
433
590
447
721
1066
483
-62
-334
115
363
-89
-409
-745
-423
260
393
237
-105
20
85
51
-160
-584
-533
-381
-345
-156
-349
-79
176
169
-42
48
30
-282
-548
-662
-1117
-1030
-868
-873
-722
-649
-250
278
618
426
626
603
609
592
561
553
552
235
131
346
176
574
389
614
554
558
388
506
850
871
822
470
604
210
332
-1
334
561
477
632
308
118
324
500
698
432
-18
53
273
612
491
396
238
351
-98
-354
-605
-835
-921
-1644
-1680
-1410
-848
299
832
1124
1628
2249
3340
3624
3052
2553
2213
1977
1876
1360
852
211
-102
-375
-525
-235
-131
-168
-633
-843
-859
-428
-235
-171
-248
-390
-785
-868
-646
-646
-646
-659
-649
-859
-853
-694
-1114
-968
-949
-1113
-1065
-1101
-906
-907
-1109
-1025
-888
-422
-210
-383
-234
-404
-444
-598
-524
-401
-672
-1084
-726
-480
-576
-563
-553
-154
71
-57
-115
-283
-147
-180
-223
-396
-703
-1009
-1365
-956
-701
-827
-874
-658
-507
-232
-352
-518
-811
-688
-867
-778
-821
-894
-821
-390
-599
-481
-836
-423
-357
81
-262
-171
-167
-279
31
-357
-225
-365
-63
382
278
46
10
-2
255
200
85
-532
-603
-181
-315
-143
-559
-559
-333
-12
520
448
796
808
773
776
857
676
876
468
433
890
913
978
751
478
448
892
720
474
315
90
-50
193
217
-40
-273
92
241
833
807
549
188
450
1102
973
697
552
179
446
1052
1129
862
247
357
243
507
664
642
773
407
632
426
486
466
611
520
561
466
841
508
568
227
612
771
455
161
-107
-115
363
575
612
529
255
401
649
1106
1142
726
448
177
-9
-86
-81
-28
284
308
321
143
578
772
827
442
514
163
142
310
114
-297
-273
18
-128
-287
-230
-541
-211
-185
-567
-505
-854
-799
-407
-543
-227
-214
-219
-197
-325
-86
382
147
-10
-108
320
404
852
443
375
-21
135
623
431
575
196
159
144
133
208
402
804
479
553
574
677
1357
1193
1146
821
832
1120
1295
1097
419
364
295
329
280
-104
95
-104
-82
9
-557
-508
-461
-594
-477
-985
-1812
-1717
-1549
-838
-311
-122
288
810
1521
2868
3663
3758
3783
3907
3698
3428
3112
2503
2308
1452
1046
540
335
337
331
-64
-267
-157
-209
-171
-285
-22
533
425
581
353
-39
265
353
279
-259
-579
-488
-444
-528
-352
-272
-285
-348
-139
-147
-141
-168
-528
-474
-695
-1045
-646
-596
-380
-208
-817
-914
-1016
-1142
-751
-1058
-1013
-1205
-1241
-1376
-943
-1057
-740
-745
-1049
-1135
-992
-1326
-1017
-1085
-656
-681
-1129
-987
-1058
-403
-368
-134
-604
-782
-860
-668
-748
-753
-667
-875
-717
-1104
-1039
-510
-537
-568
-775
-665
-662
-889
-668
-669
-769
-242
-289
55
-111
309
188
381
-127
-373
-196
-129
-277
57
116
-52
352
544
466
792
466
615
571
557
191
-22
110
-13
528
431
598
169
144
532
625
553
152
348
136
198
235
546
423
870
1040
1138
1136
764
859
772
835
692
673
485
575
615
825
716
649
485
431
504
504
531
-67
34
-60
217
572
176
280
357
634
642
729
666
837
785
498
485
496
773
497
437
426
505
864
876
809
808
698
1138
926
757
499
583
560
622
424
394
222
-10
-102
330
621
432
379
-299
-187
39
328
378
-19
-76
338
541
564
133
-81
27
-346
-521
-496
-681
-742
-703
-645
-858
-776
-598
-367
25
-293
-214
-539
-159
-266
-317
-557
-451
-544
81
336
336
-21
-14
364
185
141
323
318
342
291
-92
67
77
-93
-11
307
373
158
130
312
-3
-25
-65
59
-374
-202
-141
-295
-288
-376
-167
-352
30
86
52
25
54
36
-141
-387
-474
-574
-156
-559
-1029
-1188
-1392
-865
-264
297
327
185
682
1808
2525
3283
3911
3929
3476
3447
3100
2618
1676
1128
157
-314
-530
-578
-232
18
146
790
750
727
818
422
633
627
525
266
-337
-600
-631
-179
92
267
299
279
321
171
218
372
-61
101
-117
-65
88
-185
-484
-647
-664
-888
-854
-498
-560
-379
-384
-587
-810
-884
-838
-878
-1142
-1273
-1800
-1535
-1560
-1301
-908
-930
-1299
-1386
-1367
-1016
-967
-1333
-1594
-1870
-1792
-2112
-2097
-1736
-1502
-1180
-926
-1126
-983
-1343
-1300
-1151
-1070
-919
-1167
-1630
-1626
-1382
-766
-468
-571
-519
-215
-136
-327
-306
-319
-364
-210
-398
-866
-718
-649
-473
-597
-588
-388
-626
-207
24
-83
-86
82
24
30
31
-305
-180
-236
-384
108
343
227
542
612
490
649
737
690
788
390
630
481
842
847
769
467
772
848
843
485
385
391
504
871
884
811
483
482
782
822
851
651
734
758
894
441
614
769
1034
1143
728
462
581
632
460
419
247
322
-10
286
366
143
153
227
421
643
681
427
311
121
-43
366
308
75
-304
-122
216
434
443
395
424
482
463
612
251
181
359
261
-32
297
144
383
-46
14
-294
96
314
199
152
-104
-194
-433
-472
-400
-418
-881
-1144
-987
-1095
-821
-603
-518
-525
-571
-627
-392
-585
-192
-321
-287
-320
-354
-375
-191
-594
-490
-787
-476
-444
-477
-478
-592
-351
50
-285
-250
-407
-410
-632
-450
-646
-1085
-1116
-750
-879
-850
-690
-1136
-1356
-1572
-1484
-1822
-1536
-1427
-1595
-1612
-1436
-1438
-1540
-1355
-1376
-1460
-1939
-2259
-2280
-2372
-1980
-2162
-1742
-1611
-1027
-375
513
1131
1516
2383
2538
2869
2632
2022
1733
1515
1188
871
-97
-426
-660
-848
-470
-771
-749
-1008
-1364
-1008
-1081
-741
-1104
-1321
-1198
-1162
-1332
-1380
-1586
-1499
-1451
-1222
-1290
-1303
-1179
-1214
-1311
-1077
-677
-675
-764
-1148
-1298
-1176
-1228
-1190
-1403
-1189
-1258
-1213
-1008
-1052
-1038
-974
-1175
-1216
-1397
-1397
-1554
-1477
-1478
-1256
-966
-1053
-1075
-947
-1315
-1338
-1301
-1318
-1195
-1443
-1696
-2069
-1762
-1892
-1811
-1527
-1479
-1635
-1555
-1588
-1466
-1844
-1879
-1886
-1709
-2097
-2130
-1713
-1472
-1635
-1515
-1715
-1727
-1513
-1544
-1273
-1473
-1678
-1716
-1875
-1801
-1831
-1893
-1889
-1815
-1494
-1449
-1611
-1188
-1000
-903
-948
-1319
-1375
-1315
-932
-1099
-1096
-1136
-1121
-737
-789
-612
-526
-246
-220
-169
-367
-324
-311
-325
-358
-131
-132
-366
-354
-371
-380
-319
102
331
554
431
435
603
236
131
-10
27
-224
-637
-605
-191
-326
-310
-288
-127
130
542
187