3109
3093
3115
3159
3201
3212
3170
3085
3001
2972
3018
3114
3209
3264
3263
3209
3122
3046
3028
3079
3160
3201
3162
3061
2950
2872
2853
2892
2967
3037
3052
2993
2888
2788
2732
2734
2788
2872
2958
3013
3024
3011
3024
3097
3226
3369
3477
3508
3460
3367
3286
3271
3336
3450
3563
3638
3658
3630
3578
3545
3576
3673
3782
3834
3802
3717
3635
3586
3571
3588
3634
3691
3717
3680
3594
3513
3492
3539
3614
3673
3692
3665
3605
3531
3478
3484
3563
3688
3807
3872
3874
3837
3796
3782
3812
3882
3966
4020
4009
3935
3836
3773
3784
3858
3958
4028
4022
3929
3786
3659
3607
3626
3671
3691
3660
3576
3450
3306
3195
3156
3161
3119
2957
2703
2484
2421
2544
2796
3115
3468
3830
4145
4361
4470
4509
4510
4459
4327
4120
3887
3669
3459
3229
2988
2792
2691
2669
2660
2605
2497
2371
2262
2198
2203
2283
2400
2467
2416
2263
2094
1992
1974
2012
2075
2144
2185
2148
2029
1898
1848
1900
1982
2006
1953
1873
1823
1803
1789
1783
1806
1860
1908
1903
1833
1730
1648
1635
1689
1780
1862
1878
1808
1682
1571
1543
1594
1653
1665
1638
1622
1615
1548
1398
1248
1219
1322
1422
1370
1156
903
733
686
725
785
782
631
336
36
-95
-17
136
206
174
138
174
235
224
135
52
40
78
98
64
4
-49
-78
-77
-35
54
152
194
148
48
-22
-4
97
235
378
508
612
671
682
683
725
830
975
1115
1212
1254
1252
1241
1275
1387
1553
1703
1775
1763
1716
1689
1705
1752
1808
1866
1925
1971
1981
1940
1868
1814
1822
1889
1969
2006
1970
1877
1778
1733
1777
1887
1989
2013
1949
1847
1766
1728
1723
1747
1799
1864
1901
1884
1828
1778
1768
1801
1858
1928
1987
1992
1918
1797
1707
1707
1766
1806
1776
1689
1591
1494
1384
1269
1208
1258
1398
1515
1508
1380
1239
1198
1283
1427
1557
1650
1727
1805
1879
1943
2023
2139
2279
2390
2414
2348
2234
2136
2103
2149
2259
2390
2490
2531
2518
2486
2468
2484
2537
2613
2678
2688
2628
2542
2497
2523
2582
2624
2635
2631
2617
2578
2509
2450
2462
2556
2676
2744
2727
2652
2574
2527
2531
2583
2668
2749
2789
2769
2709
2645
2611
2622
2677
2757
2823
2827
2751
2635
2558
2577
2678
2784
2829
2794
2707
2597
2496
2445
2475
2572
2664
2675
2599
2495
2426
2405
2412
2441
2503
2576
2603
2538
2410
2306
2302
2398
2525
2611
2616
2548
2449
2371
2356
2403
2468
2499
2482
2445
2424
2421
2428
2444
2485
2549
2595
2574
2475
2329
2183
2077
2022
2015
2021
1982
1834
1569
1258
1024
970
1117
1415
1785
2156
2494
2790
3064
3343
3630
3874
3976
3857
3540
3160
2868
2726
2688
2671
2622
2529
2405
2267
2147
2078
2054
2047
2034
2032
2061
2101
2101
2042
1968
1943
1978
2018
2007
1937
1857
1817
1828
1869
1908
1929
1925
1894
1834
1759
1698
1678
1706
1766
1828
1855
1819
1719
1597
1523
1539
1617
1677
1660
1580
1506
1475
1464
1437
1402
1400
1435
1444
1359
1186
1012
935
986
1110
1218
1227
1113
948
845
865
962
1045
1092
1177
1346
1527
1598
1556
1549
1698
1926
2030
1909
1679
1527
1500
1507
1477
1453
1503
1602
1644
1576
1459
1389
1408
1487
1577
1652
1700
1716
1708
1702
1732
1808
1922
2054
2172
2245
2271
2279
2318
2415
2564
2735
2883
2967
2976
2940
2920
2971
3098
3260
3406
3502
3537
3516
3472
3462
3526
3640
3737
3765
3733
3686
3652
3637
3645
3692
3771
3838
3838
3757
3637
3542
3506
3525
3576
3636
3681
3684
3646
3598
3579
3610
3671
3728
3748
3703
3591
3438
3305
3244
3254
3276
3260
3210
3176
3182
3195
3166
3109
3095
3165
3263
3273
3144
2953
2839
2881
3030
3170
3230
3222
3196
3171
3128
3063
3003
2982
2999
3004
2955
2858
2765
2725
2757
2842
2949
3034
3057
3006
2905
2815
2790
2846
2950
3047
3087
3059
2995
2941
2926
2948
2988
3034
3073
3078
3025
2926
2838
2832
2922
3053
3147
3160
3108
3031
2968
2943
2967
3035
3118
3168
3153
3082
3004
2969
2990
3036
3075
3092
3089
3060
2996
2914
2873
2919
3039
3158
3202
3151
3051
2959
2922
2957
3041
3128
3166
3141
3086
3037
2996
2942
2879
2840
2835
2816
2715
2528
2335
2237
2276
2408
2549
2622
2594
2489
2379
2353
2442
2595
2734
2833
2930
3063
3208
3313
3376
3452
3580
3710
3743
3633
3441
3280
3223
3259
3332
3398
3437
3442
3406
3329
3232
3152
3129
3167
3223
3232
3165
3048
2941
2879
2842
2772
2629
2426
2238
2157
2242
2496
2876
3326
3797
4235
4582
4803
4899
4905
4848
4731
4560
4380
4240
4142
4033
3871
3694
3591
3607
3682
3707
3619
3457
3304
3222
3219
3281
3384
3486
3522
3456
3312
3164
3085
3093
3157
3239
3303
3321
3269
3156
3036
2980
3023
3124
3202
3191
3090
2949
2824
2747
2725
2746
2769
2732
2588
2358
2140
2042
2098
2232
2328
2325
2250
2175
2145
2157
2183
2199
2200
2191
2170
2132
2073
1997
1932
1911
1944
2002
2030
1993
1899
1786
1699
1666
1688
1737
1770
1742
1646
1522
1425
1393
1420
1463
1480
1455
1399
1336
1274
1221
1185
1182
1210
1241
1232
1170
1083
1025
1036
1118
1236
1339
1379
1342
1264
1208
1225
1310
1423
1522
1598
1655
1692
1711
1737
1810
1943
2106
2247
2324
2333
2304
2279
2306
2401
2537
2642
2662
2600
2512
2455
2452
2489
2544
2603
2651
2668
2645
2590
2519
2449
2397
2384
2404
2406
2328
2163
1990
1915
1975
2100
2177
2149
2048
1943
1880
1862
1881
1939
2047
2205
2378
2518
2588
2598
2603
2662
2777
2886
2908
2818
2672
2557
2530
2589
2686
2773
2822
2820
2778
2720
2671
2653
2674
2723
2776
2805
2797
2759
2706
2663
2661
2717
2808
2870
2845
2741
2636
2602
2646
2710
2745
2746
2731
2696
2629
2540
2483
2501
2579
2653
2666
2614
2534
2471
2452
2486
2562
2649
2709
2711
2653
2560
2475
2431
2439
2478
2510
2502
2446
2363
2286
2249
2269
2338
2419
2467
2456
2388
2291
2204
2170
2214
2312
2386
2353
2203
2021
1907
1884
1895
1883
1852
1828
1795
1707
1557
1422
1393
1468
1550
1555
1497
1459
1492
1574
1668
1767
1886
2013
2094
2087
2006
1899
1806
1746
1731
1760
1806
1817
1757
1647
1559
1554
1625
1712
1748
1706
1607
1485
1374
1295
1260
1264
1286
1288
1239
1134
1002
885
813
790
782
728
574
341
137
111
348
804
1338
1812
2161
2403
2585
2734
2850
2900
2840
2657
2390
2118
1905
1758
1644
1542
1460
1423
1427
1428
1380
1276
1156
1083
1092
1168
1262
1326
1333
1284
1197
1108
1055
1065
1130
1201
1223
1174
1081
989
923
882
858
845
829
780
673
526
405
382
475
614
691
646
519
406
383
451
558
667
773
872
939
951
932
950
1050
1193
1286
1268
1164
1053
991
978
994
1034
1099
1168
1198
1162
1087
1020
996
1019
1072
1129
1149
1099
988
875
822
843
894
919
899
854
808
768
739
738
778
845
903
913
866
786
711
688
734
834
941
1001
992
940
895
900
971
1085
1202
1292
1344
1371
1396
1443
1528
1652
1799
1942
2053
2115
2125
2103
2093
2142
2255
2383
2457
2441
2370
2307
2295
2333
2397
2476
2555
2598
2563
2445
2301
2208
2188
2193
2160
2077
1987
1933
1906
1876
1848
1862
1931
2002
1986
1858
1684
1571
1575
1661
1757
1817
1841
1837
1806
1742
1661
1600
1589
1620
1645
1619
1539
1449
1405
1428
1494
1559
1587
1557
1469
1338
1205
1129
1145
1238
1346
1398
1369
1295
1223
1180
1171
1198
1264
1344
1382
1336
1234
1156
1172
1260
1344
1370
1344
1295
1234
1163
1101
1096
1168
1283
1366
1366
1297
1208
1152
1148
1191
1250
1291
1290
1246
1183
1135
1133
1181
1254
1316
1337
1306
1237
1157
1101
1098
1158
1255
1334
1350
1306
1241
1198
1190
1202
1219
1228
1206
1130
1003
866
771
753
808
898
971
980
906
783
693
708
830
990
1117
1195
1252
1310
1360
1407
1480
1595
1709
1747
1678
1558
1471
1454
1482
1525
1577
1640
1687
1682
1626
1568
1566
1636
1750
1865
1949
1986
1982
1961
1961
2008
2094
2180
2227
2221
2177
2116
2058
2027
2043
2109
2190
2227
2179
2060
1934
1867
1879
1933
1981
1986
1929
1810
1665
1557
1532
1565
1566
1456
1237
1001
857
873
1069
1431
1912
2422
2854
3148
3331
3484
3650
3774
3757
3568
3282
3016
2833
2707
2582
2452
2360
2345
2387
2409
2344
2178
1963
1786
1707
1714
1743
1734
1685
1637
1611
1588
1553
1532
1576
1678
1758
1730
1599
1456
1398
1443
1536
1612
1646
1642
1608
1545
1471
1418
1405
1424
1434
1401
1323
1232
1173
1177
1245
1349
1434
1455
1408
1329
1267
1246
1263
1304
1361
1411
1407
1321
1176
1051
1026
1105
1227
1306
1305
1242
1167
1120
1127
1185
1265
1323
1322
1257
1154
1049
973
946
968
1016
1040
995
881
754
677
673
709
743
761
765
749
704
634
587
606
686
772
807
779
722
668
633
628
672
772
884
942
922
868
857
919
1023
1121
1202
1277
1336
1324
1225
1110
1103
1252
1464
1584
1543
1417
1346
1401
1550
1712
1856
1999
2156
2310
2424
2488
2537
2624
2764
2915
3000
2968
2843
2721
2686
2753
2861
2943
2986
3011
3032
3023
2965
2890
2866
2925
3025
3088
3071
2996
2907
2842
2832
2891
2996
3075
3048
2917
2774
2725
2794
2911
3002
3047
3055
3023
2942
2840
2781
2798
2846
2849
2778
2668
2577
2523
2492
2473
2471
2491
2522
2544
2546
2514
2436
2331
2257
2280
2402
2526
2533
2400
2229
2155
2213
2327
2403
2418
2404
2380
2325
2231
2162
2197
2342
2500
2554
2476
2343
2264
2293
2405
2537
2638
2684
2670
2611
2527
2455
2428
2458
2525
2587
2615
2616
2617
2640
2697
2790
2913
3037
3110
3089
2980
2836
2725
2688
2720
2782
2821
2802
2734
2657
2603
2580
2583
2622
2709
2812
2841
2733
2536
2398
2421
2555
2645
2601
2469
2363
2325
2318
2316
2356
2469
2601
2640
2548
2409
2338
2365
2429
2476
2510
2565
2627
2648
2606
2546
2535
2596
2698
2790
2829
2803
2732
2662
2650
2714
2828
2941
3008
2995
2895
2731
2575
2505
2541
2625
2657
2580
2418
2245
2144
2144
2212
2270
2233
2062
1792
1512
1312
1256
1374
1667
2085
2520
2857
3048
3149
3264
3447
3636
3708
3574
3247
2844
2510
2326
2272
2265
2250
2247
2310
2438
2559
2597
2564
2547
2621
2759
2866
2860
2747
2592
2470
2420
2441
2505
2581
2630
2634
2598
2545
2499
2488
2528
2607
2682
2698
2638
2534
2459
2476
2587
2730
2815
2788
2671
2550
2500
2541
2625
2687
2696
2659
2594
2513
2430
2379
2404
2516
2660
2753
2739
2638
2508
2403
2359
2383
2460
2537
2538
2424
2248
2117
2114
2225
2362
2438
2424
2350
2267
2209
2188
2206
2256
2313
2346
2333
2270
2177
2083
2025
2029
2095
2189
2243
2205
2071
1897
1772
1748
1808
1874
1864
1756
1617
1538
1568
1678
1802
1906
1999
2080
2111
2061
1967
1936
2045
2261
2472
2593
2627
2634
2648
2677
2730
2818
2932
3022
3039
2988
2920
2892
2918
2983
3064
3146
3210
3231
3188
3095
3017
3025
3142
3301
3394
3349
3188
3002
2878
2852
2913
3021
3121
3152
3087
2974
2893
2897
2956
3008
3021
3005
2977
2927
2852
2792
2808
2908
3028
3086
3050
2946
2822
2720
2681
2724
2832
2945
2994
2956
2868
2790
2754
2770
2827
2910
2980
2978
2882
2735
2627
2621
2697
2784
2816
2773
2682
2585
2518
2495
2512
2555
2606
2637
2611
2503
2327
2158
2094
2177
2345
2467
2454
2323
2177
2119
2178
2307
2437
2541
2629
2722
2818
2889
2927
2967
3053
3187
3293
3281
3134
2944
2836
2878
3036
3221
3365
3437
3441
3393
3320
3262
3250
3285
3329
3336
3284
3192
3094
3027
3021
3088
3202
3301
3326
3262
3155
3074
3073
3153
3270
3360
3363
3275
3140
3022
2960
2949
2965
2990
3004
2975
2885
2763
2682
2701
2810
2937
3012
3016
2971
2911
2857
2832
2855
2933
3045
3140
3168
3117
3026
2963
2979
3075
3193
3264
3240
3130
2983
2871
2856
2947
3087
3178
3146
2998
2813
2666
2576
2509
2441
2383
2348
2312
2237
2111
1973
1876
1821
1744
1582
1342
1111
1001
1085
1375
1814
2320
2806
3211
3503
3684
3764
3751
3655
3500
3324
3167
3034
2905
2747
2572
2437
2398
2446
2495
2449
2282
2061
1884
1809
1828
1904
1996
2063
2067
1989
1847
1464
1471
1542
1610
1611
1527
1403
1301
1249
788
845
852
808
740
667
602
571
600
674
733
725
642
516
375
238
138
121
194
279
256
82
-163
-333
-353
-266
-183
-178
-246
-320
-335
-264
-116
74
268
438
568
636
631
560
479
455
508
594
642
619
560
522
534
600
706
827
930
988
1000
999
1031
1121
1263
1426
1580
1696
1753
1758
1738
1739
1791
1895
2012
2094
2107
2064
2005
1977
2000
2065
2144
2206
2226
2198
2134
2068
2036
2054
2120
2210
2287
2306
2248
2149
2082
2099
2182
2263
2296
2278
2224
2141
2037
1956
1954
2034
2126
2149
2095
2027
2003
2024
2056
2091
2146
2220
2262
2226
2120
2010
1962
1991
2063
2122
2132
2074
1965
1850
1778
1768
1794
1815
1807
1769
1721
1680
1663
1690
1762
1849
1906
1900
1840
1759
1682
1626
1600
1618
1672
1731
1752
1717
1649
1597
1598
1647
1709
1747
1742
1700
1633
1556
1495
1479
1522
1600
1648
1619
1521
1417
1378
1429
1544
1670
1760
1780
1728
1634
1554
1537
1595
1691
1771
1793
1753
1685
1633
1628
1677
1753
1815
1833
1796
1720
1638
1579
1566
1600
1668
1735
1759
1711
1609
1519
1505
1568
1642
1665
1618
1531
1440
1358
1295
1274
1306
1367
1413
1417
1390
1356
1337
1353
1417
1519
1614
1645
1602
1535
1506
1532
1585
1624
1634
1613
1557
1463
1334
1202
1111
1096
1155
1244
1283
1220
1072
930
887
953
1054
1100
1069
1009
976
971
973
983
1030
1116
1168
1090
863
585
415
456
706
1088
1515
1936
2318
2644
2912
3149
3375
3570
3661
3583
3348
3060
2843
2750
2736
2712
2631
2513
2400
2318
2261
2211
2164
2129
2123
2156
2216
2269
2283
2254
2212
2194
2202
2213
2208
2192
2181
2171
2147
2106
2071
2066
2083
2083
2033
1947
1876
1863
1907
1968
2013
2038
2046
2030
1969
1876
1804
1803
1870
1942
1948
1872
1758
1668
1631
1648
1708
1783
1825
1779
1636
1457
1335
1312
1341
1342
1271
1153
1042
971
942
941
958
981
989
966
906
816
703
593
517
500
525
543
512
432
335
253
203
183
190
208
200
136
28
-73
-113
-76
1
74
111
111
83
41
13
37
141
315
494
602
621
604
620
697
813
931
1037
1121
1164
1164
1158
1214
1355
1540
1700
1806
1872
1908
1898
1842
1792
1814
1909
2006
2023
1957
1874
1844
1877
1942
2002
2049
2079
2078
2029
1948
1892
1915
2024
2161
2259
2289
2273
2242
2209
2186
2186
2220
2261
2255
2183
2089
2038
2059
2115
2158
2184
2204
2212
2174
2066
1914
1794
1767
1829
1906
1919
1842
1718
1623
1600
1657
1764
1890
2012
2105
2163
2199
2242
2313
2406
2494
2537
2509
2408
2273
2171
2164
2259
2396
2504
2543
2525
2485
2453
2448
2483
2547
2606
2617
2569
2505
2473
2482
2506
2531
2577
2663
2749
2771
2706
2621
2617
2720
2852
2919
2897
2847
2827
2840
2863
2902
2989
3127
3256
3299
3246
3160
3123
3171
3275
3386
3473
3520
3522
3496
3476
3498
3566
3642
3686
3692
3690
3701
3713
3707
3693
3703
3748
3794
3801
3758
3691
3627
3574
3539
3542
3594
3651
3637
3505
3294
3100
2989
2950
2916
2840
2714
2575
2454
2370
2336
2357
2413
2461
2458
2392
2295
2212
2172
2180
2221
2276
2325
2341
2306
2221
2125
2065
2060
2082
2085
2035
1934
1805
1683
1610
1604
1641
1651
1574
1421
1271
1183
1139
1085
1005
947
928
875
682
334
-46
-281
-273
-51
296
686
1076
1445
1781
2091
2389
2665
2860
2897
2737
2433
2109
1890
1819
1826
1816
1744
1636
1538
1460
1386
1319
1281
1283
1309
1328
1336
1349
1365
1361
1330
1296
1286
1298
1297
1266
1226
1218
1258
1324
1377
1393
1367
1306
1231
1166
1135
1141
1169
1196
1198
1169
1114
1060
1031
1036
1053
1058
1054
1054
1064
1073
1073
1098
1200
1396
1639
1842
1945
1955
1914
1869
1848
1846
1840
1802
1712
1584
1447
1334
1269
1256
1280
1314
1317
1262
1154
1025
920
875
894
946
969
912
781
637
551
543
579
617
639
640
608
538
452
403
430
516
602
641
632
609
607
644
721
829
951
1062
1143
1185
1196
1207
1257
1370
1529
1684
1791
1846
1873
1899
1947
2037
2178
2340
2463
2501
2476
2450
2466
2520
2591
2679
2786
2877
2902
2856
2805
2825
2917
3006
3027
2986
2930
2878
2807
2712
2642
2658
2742
2800
2740
2574
2407
2336
2369
2431
2458
2451
2444
2451
2443
2401
2348
2329
2357
2404
2436
2444
2437
2421
2398
2389
2423
2501
2582
2607
2559
2476
2405
2376
2393
2446
2517
2572
2572
2517
2453
2436
2479
2546
2595
2615
2620
2617
2602
2576
2566
2594
2653
2708
2727
2708
2673
2640
2621
2628
2674
2755
2837
2871
2844
2794
2777
2814
2875
2917
2926
2916
2892
2843
2768
2706
2708
2781
2875
2921
2895
2823
2752
2700
2668
2653
2671
2720
2763
2750
2668
2565
2516
2556
2654
2736
2748
2691
2607
2541
2513
2512
2520
2527
2528
2507
2450
2366
2289
2277
2350
2471
2559
2556
2465
2337
2231
2186
2211
2284
2370
2442
2495
2542
2589
2643
2718
2826
2947
3018
2992
2895
2820
2831
2905
2976
3014
3049
3098
3121
3071
2962
2867
2842
2875
2908
2899
2843
2762
2677
2610
2570
2546
2505
2427
2321
2216
2125
2040
1951
1867
1809
1782
1756
1675
1483
1172
811
512
363
380
522
739
1006
1303
1602
1883
2146
2404
2633
2756
2703
2484
2203
1995
1933
1988
2067
2078
1986
1822
1660
1571
1569
1603
1604
1553
1494
1479
1512
1554
1588
1639
1726
1802
1785
1640
1445
1323
1324
1385
1394
1303
1163
1055
1020
1020
998
941
890
889
929
941
870
725
585
523
548
616
667
671
627
549
453
353
260
183
133
107
79
10
-103
-218
-274
-263
-229
-219
-244
-285
-340
-424
-533
-618
-628
-576
-537
-577
-691
-818
-900
-927
-917
-899
-893
-923
-1006
-1128
-1253
-1340
-1380
-1394
-1413
-1450
-1504
-1573
-1651
-1728
-1781
-1803
-1800
-1794
-1810
-1857
-1928
-2006
-2064
-2078
-2051
-2007
-1984
-1997
-2028
-2045
-2028
-1975
-1892
-1790
-1686
-1601
-1549
-1520
-1486
-1419
-1318
-1202
-1091
-992
-908
-846
-819
-821
-819
-784
-714
-647
-633
-696
-815
-933
-988
-947
-832
-706
-638
-652
-713
-758
-747
-672
-554
-419
-299
-219
-184
-163
-108
9
167
309
380
363
290
217
202
264
370
467
522
552
594
657
712
736
748
789
875
961
997
989
994
1047
1125
1177
1197
1224
1284
1341
1345
1295
1259
1292
1383
1474
1528
1552
1566
1568
1554
1557
1621
1753
1886
1949
1927
1876
1857
1880
1919
1954
2000
2057
2096
2080
2024
1990
2030
2130
2229
2285
2296
2282
2251
2206
2171
2177
2235
2309
2352
2341
2294
2242
2219
2239
2296
2358
2381
2335
2230
2104
2005
1966
1995
2075
2155
2179
2136
2067
2032
2050
2090
2107
2093
2069
2054
2060
2094
2169
2276
2381
2450
2484
2504
2514
2482
2398
2299
2252
2284
2352
2400
2408
2402
2407
2424
2453
2511
2608
2717
2787
2796
2771
2759
2778
2815
2855
2894
2918
2905
2853
2794
2780
2833
2927
3017
3064
3049
2968
2835
2699
2625
2649
2729
2778
2743
2653
2582
2555
2520
2403
2199
1988
1858
1834
1894
2033
2286
2677
3159
3632
4010
4275
4454
4560
4577
4503
4378
4270
4212
4178
4118
4008
3878
3779
3744
3768
3821
3855
3830
3743
3635
3566
3573
3643
3718
3738
3679
3546
3367
3193
3092
3116
3243
3370
3392
3285
3128
3027
3019
3068
3124
3185
3274
3385
3474
3506
3504
3526
3594
3677
3718
3699
3643
3585
3540
3514
3525
3589
3684
3759
3774
3734
3686
3670
3700
3765
3845
3913
3946
3933
3886
3839
3825
3855
3912
3960
3972
3947
3904
3864
3836
3823
3829
3847
3846
3785
3656
3504
3398
3360
3356
3344
3313
3271
3211
3117
3002
2911
2877
2877
2852
2779
2691
2628
2586
2538
2491
2493
2572
2694
2787
2811
2790
2778
2805
2871
2959
3064
3168
3232
3229
3180
3151
3198
3311
3429
3495
3487
3422
3331
3245
3193
3190
3208
3197
3137
3063
3023
3015
2994
2950
2929
2978
3071
3124
3081
2985
2936
2992
3120
3249
3331
3357
3338
3283
3207
3140
3103
3088
3077
3049
3002
2948
2894
2851
2834
2858
2923
2992
3002
2917
2762
2612
2540
2557
2610
2632
2599
2534
2475
2433
2412
2430
2501
2608
2698
2726
2692
2637
2599
2592
2613
2671
2770
2880
2947
2945
2913
2933
3048
3225
3378
3441
3409
3333
3271
3262
3320
3438
3593
3744
3852
3910
3954
4034
4176
4358
4526
4633
4656
4620
4580
4591
4677
4815
4957
5077
5185
5297
5402
5470
5493
5504
5548
5621
5661
5597
5413
5170
4954
4828
4794
4812
4816
4752
4612
4443
4313
4257
4258
4278
4301
4337
4385
4418
4410
4385
4398
4473
4567
4602
4540
4415
4302
4245
4248
4284
4335
4398
4471
4532
4558
4540
4502
4489
4522
4581
4631
4642
4615
4554
4466
4374
4324
4341
4397
4412
4343
4222
4119
4068
4048
4026
4002
3984
3943
3838
3674
3524
3460
3469
3460
3353
3140
2869
2603
2407
2356
2509
2846
3268
3653
3939
4144
4321
4486
4611
4641
4541
4331
4067
3819
3624
3484
3381
3297
3220
3143
3060
2975
2891
2796
2679
2566
2521
2584
2717
2813
2792
2664
2509
2395
2317
2235
2135
2041
1979
1941
1892
1824
1780
1801
1884
1962
1963
1876
1759
1688
1690
1733
1766
1763
1730
1684
1633
1582
1550
1557
1598
1641
1639
1573
1471
1373
1309
1286
1296
1327
1352
1339
1274
1176
1093
1072
1116
1190
1232
1197
1091
964
873
841
853
876
898
917
919
887
815
733
691
716
783
832
808
713
603
543
556
608
644
642
614
578
531
463
389
343
345
388
438
465
461
435
411
432
516
648
783
881
929
943
945
962
1029
1162
1331
1469
1527
1527
1534
1591
1681
1755
1796
1817
1830
1814
1741
1619
1520
1516
1624
1777
1870
1849
1747
1655
1644
1711
1810
1903
1988
2069
2135
2176
2216
2297
2426
2552
2619
2609
2549
2473
2401
2356
2366
2429
2496
2509
2467
2421
2413
2429
2436
2444
2496
2599
2693
2713
2656
2580
2546
2564
2614
2674
2730
2760
2753
2726
2719
2766
2858
2955
3019
3027
2992
2942
2912
2922
2966
3018
3058
3074
3060
3015
2958
2926
2953
3037
3145
3234
3273
3244
3157
3064
3035
3088
3164
3178
3112
3028
2994
3017
3055
3085
3132
3217
3299
3306
3220
3100
3030
3039
3087
3119
3105
3042
2941
2825
2726
2676
2684
2730
2775
2790
2763
2700
2627
2586
2614
2704
2803
2859
2874
2905
3004
3174
3371
3553
3715
3868
4006
4097
4119
4090
4065
4083
4139
4192
4196
4134
4021
3886
3757
3649
3568
3499
3415
3296
3145
2995
2881
2820
2811
2833
2852
2824
2728
2583
2439
2350
2323
2327
2323
2292
2239
2184
2153
2180
2274
2409
2530
2590
2584
2538
2486
2440
2409
2407
2445
2507
2540
2490
2350
2181
2086
2141
2355
2683
3061
3444
3816
4168
4501
4817
5104
5324
5419
5369
5215
5049
4946
4927
4970
5037
5100
5136
5125
5076
5030
5015
5011
4964
4862
4748
4669
4608
4503
4326
4125
3985
3939
3933
3891
3781
3638
3521
3467
3464
3471
3447
3380
3294
3233
3216
3236
3276
3321
3351
3343
3282
3183
3075
2987
2930
2908
2925
2969
3006
3004
2964
2933
2943
2980
3008
3015
3031
3075
3123
3138
3114
3087
3088
3107
3104
3049
2956
2858
2776
2712
2654
2593
2524
2444
2355
2262
2162
2053
1934
1816
1723
1664
1615
1534
1397
1237
1125
1107
1154
1205
1220
1202
1171
1129
1079
1050
1085
1181
1276
1302
1258
1210
1225
1309
1421
1525
1612
1682
1726
1739
1740
1766
1842
1961
2092
2199
2263
2279
2270
2270
2308
2377
2434
2440
2399
2359
2371
2443
2534
2597
2625
2649
2696
2755
2779
2734
2642
2566
2557
2603
2646
2639
2588
2530
2490
2458
2424
2395
2388
2392
2367
2291
2187
2110
2100
2142
2187
2189
2139
2059
1987
1952
1962
2003
2046
2065
2051
2016
1981
1947
1904
1847
1798
1776
1777
1766
1726
1677
1651
1652
1662
1669
1680
1691
1669
1587
1466
1378
1362
1385
1387
1351
1312
1298
1291
1263
1227
1227
1286
1363
1396
1355
1274
1211
1199
1227
1259
1272
1274
1277
1278
1259
1223
1201
1229
1291
1331
1308
1243
1182
1140
1086
1009
954
967
1020
1031
950
827
756
783
865
947
1013
1067
1090
1055
993
989
1091
1249
1364
1398
1409
1470
1583
1697
1781
1858
1958
2065
2125
2117
2079
2066
2103
2174
2247
2303
2336
2347
2347
2347
2367
2412
2471
2529
2582
2637
2700
2758
2806
2862
2962
3107
3244
3311
3301
3264
3254
3282
3324
3374
3443
3519
3561
3546
3509
3518
3599
3707
3775
3773
3730
3681
3635
3578
3511
3460
3455
3479
3481
3414
3291
3168
3082
3005
2867
2633
2358
2143
2053
2090
2230
2465
2782
3126
3404
3564
3642
3705
3742
3652
3367
2970
2638
2457
2320
2050
1619
1183
906
781
656
412
75
-247
-492
-676
-838
-983
-1100
-1204
-1340
-1540
-1796
-2068
-2303
-2463
-2557
-2652
-2812
-3050
-3331
-3615
-3884
-4129
-4325
-4461
-4571
-4718
-4924
-5149
-5345
-5512
-5692
-5909
-6143
-6375
-6624
-6920
-7249
-7552
-7797
-8008
-8241
-8508
-8785
-9060
-9374
-9761
-10182
-10539
-10781
-10968
-11226
-11612
-12065
-12468
-12758
-12967
-13159
-13373
-13613
-13883
-14187
-14515
-14817
-15051
-15228
-15413
-15666
-15982
-16315
-16626
-16922
-17206
-17461
-17657
-17818
-18015
-18301
-18642
-18946
-19145
-19258
-19364
-19513
-19696
-19880
-20046
-20196
-20323
-20410
-20451
-20470
-20512
-20604
-20726
-20827
-20867
-20845
-20798
-20751
-20714
-20680
-20642
-20584
-20494
-20373
-20245
-20122
-19973
-19762
-19513
-19309
-19197
-19092
-18841
-18400
-17905
-17538
-17327
-17131
-16824
-16451
-16152
-15985
-15866
-15684
-15445
-15252
-15163
-15117
-14995
-14752
-14448
-14180
-13999
-13887
-13802
-13709
-13585
-13416
-13200
-12954
-12716
-12514
-12335
-12146
-11931
-11709
-11505
-11311
-11100
-10869
-10657
-10499
-10386
-10257
-10054
-9779
-9490
-9247
-9069
-8923
-8761
-8556
-8315
-8064
-7827
-7611
-7405
-7204
-7010
-6836
-6683
-6532
-6348
-6122
-5876
-5658
-5500
-5385
-5268
-5117
-4941
-4770
-4617
-4471
-4323
-4177
-4045
-3930
-3823
-3709
-3571
-3402
-3228
-3106
-3081
-3124
-3135
-3035
-2854
-2703
-2673
-2753
-2865
-2943
-2971
-2967
-2949
-2933
-2931
-2930
-2890
-2786
-2653
-2559
-2526
-2500
-2416
-2288
-2202
-2213
-2267
-2257
-2133
-1941
-1761
-1631
-1537
-1451
-1366
-1284
-1204
-1116
-1009
-885
-761
-666
-627
-614
-552
-391
-177
-15
29
1
-1
64
158
240
328
461
616
715
726
709
762
903
1064
1167
1206
1229
1267
1303
1317
1335
1408
1553
1714
1805
1786
1702
1644
1661
1720
1751
1722
1666
1629
1620
1613
1600
1613
1672
1752
1803
1797
1742
1657
1549
1439
1371
1384
1446
1469
1402
1287
1211
1200
1179
1049
793
495
270
195
282
488
771
1105
1482
1876
2236
2493
2611
2606
2528
2422
2307
2189
2082
2008
1973
1958
1947
1948
1996
2116
2283
2439
2537
2598
2683
2836
3041
3248
3407
3508
3557
3566
3553
3552
3603
3720
3881
4051
4195
4289
4330
4334
4346
4403
4503
4611
4704
4790
4880
4952
4979
4972
4988
5080
5235
5386
5472
5490
5484
5501
5564
5661
5762
5831
5848
5822
5785
5767
5783
5846
5956
6083
6160
6133
6028
5949
5995
6155
6321
6389
6353
6295
6285
6322
6358
6361
6344
6334
6332
6310
6243
6156
6103
6117
6172
6206
6185
6123
6063
6030
6012
5997
5990
6003
6017
5991
5907
5797
5721
5700
5701
5684
5657
5657
5704
5761
5786
5772
5760
5791
5860
5939
5995
6004
5962
5895
5868
5931
6066
6191
6245
6240
6240
6270
6295
6289
6280
6309
6357
6341
6214
6030
5902
5897
5976
6045
6047
5992
5927
5882
5855
5832
5816
5806
5793
5747
5659
5558
5484
5454
5444
5419
5379
5344
5317
5268
5168
5044
4959
4955
5005
5043
5031
4978
4923
4883
4853
4823
4797
4776
4742
4673
4570
4462
4383
4351
4357
4388
4424
4444
4424
4362
4284
4227
4207
4210
4208
4191
4156
4106
4040
3975
3938
3949
3985
4006
3984
3923
3853
3795
3758
3737
3719
3684
3631
3572
3512
3431
3307
3158
3060
3076
3182
3267
3244
3133
3034
3031
3116
3228
3321
3384
3415
3418
3418
3474
3618
3811
3967
4030
4017
3989
3984
3999
4025
4063
4122
4193
4252
4282
4300
4335
4406
4510
4614
4680
4691
4667
4650
4662
4696
4734
4772
4822
4879
4917
4913
4876
4847
4855
4901
4962
5020
5063
5083
5079
5069
5081
5130
5199
5255
5278
5272
5253
5231
5212
5206
5229
5286
5354
5389
5369
5321
5297
5321
5364
5393
5405
5424
5446
5432
5360
5270
5240
5297
5384
5418
5369
5284
5219
5191
5185
5189
5199
5202
5170
5091
4994
4927
4912
4920
4908
4866
4833
4842
4877
4883
4837
4780
4772
4821
4858
4811
4689
4577
4542
4577
4619
4629
4620
4610
4584
4509
4384
4247
4134
4054
3990
3927
3858
3766
3633
3458
3259
3059
2872
2721
2654
2725
2941
3253
3596
3941
4289
4628
4909
5073
5088
4961
4733
4471
4259
4156
4150
4150
4069
3890
3680
3530
3479
3489
3486
3416
3283
3148
3080
3109
3204
3306
3370
3383
3340
3241
3107
2988
2932
2943
2975
2973
2922
2831
2723
2615
2531
2490
2491
2500
2475
2399
2289
2177
2082
2015
1979
1972
1978
1969
1931
1866
1789
1712
1637
1566
1503
1448
1395
1332
1252
1168
1108
1093
1127
1187
1227
1215
1157
1104
1126
1241
1408
1549
1601
1555
1457
1369
1327
1313
1274
1176
1039
920
852
809
748
666
610
616
655
655
582
472
390
369
392
431
468
493
499
484
468
482
540
618
683
721
747
764
756
723
697
726
812
894
909
871
851
889
943
951
925
942
1039
1141
1153
1071
1010
1060
1193
1301
1326
1309
1304
1307
1274
1212
1192
1257
1364
1429
1421
1389
1398
1459
1527
1576
1613
1660
1705
1710
1659
1588
1547
1564
1619
1660
1641
1550
1415
1284
1197
1155
1123
1066
986
917
894
909
922
906
879
880
918
947
914
817
715
665
675
709
734
755
773
773
738
684
665
711
785
822
786
717
670
666
687
703
711
719
723
710
670
608
544
510
528
592
658
673
627
555
517
540
602
662
695
699
689
680
684
700
719
744
787
844
885
877
826
780
780
832
907
974
1016
1024
994
951
942
996
1087
1152
1148
1093
1038
1015
1026
1054
1087
1115
1124
1108
1076
1055
1060
1087
1117
1139
1157
1186
1221
1231
1190
1104
1024
995
1007
1003
931
798
663
593
618
723
857
953
974
935
901
924
1003
1099
1186
1277
1396
1530
1636
1698
1750
1842
1980
2113
2188
2196
2182
2196
2248
2314
2375
2438
2518
2604
2659
2662
2630
2615
2646
2714
2785
2836
2863
2869
2850
2817
2803
2835
2898
2948
2960
2949
2949
2964
2974
2986
3030
3110
3167
3141
3042
2965
2983
3065
3123
3112
3086
3113
3186
3241
3243
3231
3268
3359
3447
3470
3421
3347
3300
3300
3338
3387
3436
3478
3510
3521
3516
3520
3554
3606
3634
3614
3572
3549
3551
3535
3474
3408
3406
3483
3570
3571
3463
3311
3202
3167
3169
3154
3101
3033
2977
2939
2909
2888
2884
2903
2935
2948
2910
2811
2678
2560
2509
2536
2597
2628
2595
2520
2457
2437
2446
2450
2438
2421
2402
2364
2297
2221
2183
2203
2254
2285
2273
2228
2178
2136
2101
2076
2068
2076
2082
2064
2022
1966
1916
1886
1887
1920
1967
1994
1986
1960
1943
1943
1952
1961
1976
1998
2007
1978
1914
1853
1837
1879
1955
2024
2049
2025
1977
1943
1947
1985
2034
2074
2097
2102
2094
2076
2062
2066
2101
2169
2253
2320
2339
2319
2305
2345
2452
2578
2668
2701
2699
2689
2675
2644
2607
2592
2618
2660
2668
2614
2533
2501
2570
2717
2862
2929
2909
2851
2817
2829
2869
2914
2978
3093
3262
3434
3537
3552
3538
3575
3673
3765
3776
3707
3631
3618
3674
3759
3848
3948
4068
4183
4247
4244
4211
4210
4275
4378
4458
4480
4465
4459
4478
4494
4475
4426
4391
4396
4413
4391
4301
4180
4094
4086
4128
4152
4103
3975
3804
3625
3426
3187
2931
2732
2666
2746
2934
3181
3476
3826
4210
4567
4835
4987
5042
5029
4959
4829
4654
4509
4472
4549
4642
4633
4505
4368
4342
4440
4561
4604
4565
4505
4470
4445
4413
4387
4383
4379
4317
4156
3938
3751
3665
3683
3739
3748
3665
3516
3356
3221
3107
3002
2917
2877
2883
2908
2926
2928
2918
2901
2885
2894
2937
2985
2973
2877
2745
2651
2629
2652
2690
2748
2825
2886
2873
2785
2706
2722
2828
2918
2898
2775
2649
2596
2599
2588
2526
2448
2404
2385
2343
2256
2168
2133
2150
2164
2148
2119
2108
2097
2052
1987
1971
2056
2210
2349
2409
2403
2387
2413
2500
2636
2782
2890
2933
2935
2946
2991
3043
3060
3044
3030
3048
3075
3064
3002
2941
2937
3001
3088
3146
3156
3141
3124
3115
3115
3143
3231
3380
3540
3632
3617
3539
3501
3575
3733
3878
3936
3920
3904
3943
4032
4151
4300
4496
4721
4932
5101
5252
5425
5624
5822
5996
6142
6249
6291
6258
6196
6173
6194
6201
6157
6100
6089
6105
6067
5944
5815
5788
5859
5920
5896
5838
5844
5917
5972
5954
5918
5956
6058
6120
6069
5945
5850
5838
5876
5911
5931
5949
5956
5921
5846
5778
5771
5828
5895
5909
5855
5767
5694
5664
5670
5687
5703
5718
5722
5693
5622
5532
5464
5439
5442
5454
5467
5471
5440
5357
5263
5249
5359
5521
5600
5537
5407
5333
5352
5401
5416
5417
5463
5548
5598
5559
5468
5416
5452
5536
5592
5566
5461
5318
5195
5136
5138
5146
5097
4994
4905
4891
4932
4950
4900
4825
4800
4851
4910
4890
4764
4587
4454
4423
4479
4549
4571
4537
4491
4468
4463
4441
4391
4340
4312
4293
4247
4169
4093
4063
4090
4150
4212
4248
4232
4159
4048
3948
3898
3894
3902
3888
3849
3798
3744
3687
3636
3617
3634
3653
3618
3509
3378
3302
3311
3359
3381
3370
3368
3391
3394
3323
3197
3105
3107
3179
3245
3259
3235
3208
3185
3160
3137
3133
3150
3170
3165
3132
3091
3067
3080
3138
3230
3316
3338
3271
3142
3019
2957
2966
3012
3047
3050
3024
2982
2937
2899
2869
2850
2828
2784
2707
2608
2510
2435
2397
2406
2460
2533
2567
2518
2403
2304
2299
2388
2500
2578
2627
2693
2781
2845
2855
2845
2880
2973
3053
3045
2957
2881
2892
2990
3116
3225
3315
3399
3459
3461
3408
3353
3350
3401
3460
3485
3483
3487
3510
3527
3521
3511
3526
3566
3594
3581
3537
3498
3487
3505
3552
3627
3706
3740
3695
3593
3505
3482
3517
3558
3570
3559
3550
3552
3562
3578
3607
3651
3695
3722
3719
3686
3631
3572
3530
3525
3559
3606
3622
3585
3509
3442
3426
3467
3528
3569
3569
3527
3457
3381
3331
3342
3411
3486
3504
3449
3365
3307
3276
3232
3143
3035
2952
2902
2846
2747
2625
2541
2527
2563
2593
2578
2507
2372
2177
1969
1829
1814
1895
1974
1974
1902
1820
1768
1729
1663
1541
1359
1131
905
763
792
1017
1386
1804
2195
2527
2795
2999
3137
3196
3154
3010
2804
2613
2496
2449
2410
2324
2190
2058
1984
1975
1990
1973
1897
1790
1712
1715
1802
1932
2048
2107
2095
2024
1910
1788
1705
1702
1770
1845
1850
1764
1648
1587
1619
1707
1773
1775
1715
1631
1554
1507
1492
1503
1523
1540
1548
1548
1537
1515
1485
1458
1445
1452
1470
1473
1433
1353
1277
1267
1346
1471
1564
1576
1527
1478
1457
1446
1422
1391
1378
1385
1368
1289
1160
1054
1043
1136
1263
1332
1301
1207
1125
1111
1160
1227
1274
1306
1345
1397
1446
1476
1506
1568
1673
1793
1891
1949
1969
1960
1931
1914
1953
2076
2246
2378
2413
2372
2337
2386
2523
2694
2828
2891
2898
2887
2897
2952
3056
3196
3348
3483
3586
3655
3700
3746
3821
3937
4073
4189
4247
4243
4207
4186
4218
4305
4413
4495
4526
4522
4508
4489
4451
4396
4351
4336
4324
4262
4130
3975
3859
3813
3818
3838
3839
3800
3715
3605
3500
3419
3351
3274
3197
3141
3102
3032
2889
2697
2540
2489
2543
2630
2662
2599
2472
2360
2325
2355
2374
2315
2189
2075
2031
2036
2030
2002
2006
2085
2192
2212
2086
1876
1704
1633
1621
1594
1531
1475
1462
1471
1453
1398
1349
1344
1374
1390
1339
1215
1069
974
981
1079
1191
1242
1219
1170
1152
1169
1185
1179
1166
1175
1205
1235
1251
1255
1251
1240
1236
1263
1330
1406
1451
1454
1439
1426
1416
1412
1441
1511
1576
1566
1457
1329
1293
1387
1550
1679
1717
1686
1636
1606
1610
1645
1711
1807
1913
1987
1999
1969
1966
2051
2210
2353
2396
2332
2231
2166
2166
2212
2280
2349
2394
2391
2337
2256
2181
2143
2152
2198
2249
2263
2214
2126
2047
2014
2024
2061
2107
2155
2199
2231
2244
2239
2220
2200
2195
2207
2208
2151
2026
1877
1780
1782
1857
1943
1986
1973
1916
1842
1781
1757
1769
1796
1809
1807
1808
1816
1810
1790
1788
1849
1965
2067
2085
2021
1942
1915
1951
2017
2082
2141
2184
2189
2147
2093
2091
2186
2353
2513
2588
2561
2481
2428
2453
2542
2639
2702
2743
2797
2868
2920
2933
2949
3033
3194
3351
3401
3326
3209
3147
3161
3197
3202
3180
3158
3134
3078
2973
2858
2792
2788
2794
2745
2629
2485
2353
2232
2105
1981
1902
1891
1909
1891
1812
1709
1640
1636
1678
1734
-1118
-1061
-1007
-1001
-1061
-1154
-1237
-1278
-1276
-1245
-1205
-1176
-1177
-1216
-1276
-1319
-1321
-1288
-1245
-1223
-1243
-1317
-1438
-1575
-1684
-1738
-1751
-1771
-1843
-1971
-2118
-2235
-2286
-2276
-2241
-2220
-2225
-2242
-2248
-2238
-2218
-2180
-2105
-1990
-1862
-1767
-1725
-1716
-1702
-1660
-1584
-1479
-1352
-1224
-1133
-1095
-1081
-1036
-927
-781
-649
-556
-491
-433
-387
-367
-359
-321
-233
-128
-69
-82
-134
-164
-140
-70
27
131
224
272
250
172
93
61
83
124
150
145
114
69
28
10
33
91
148
157
101
7
-74
-111
-108
-92
-81
-71
-61
-58
-74
-106
-128
-116
-78
-43
-38
-68
-126
-199
-263
-285
-248
-178
-130
-142
-203
-266
-309
-345
-397
-453
-486
-503
-550
-663
-810
-913
-920
-862
-815
-829
-890
-959
-1028
-1108
-1183
-1209
-1163
-1095
-1090
-1177
-1298
-1372
-1366
-1319
-1281
-1268
-1271
-1291
-1335
-1394
-1431
-1414
-1352
-1279
-1232
-1226
-1254
-1301
-1344
-1359
-1338
-1298
-1271
-1283
-1337
-1409
-1475
-1509
-1499
-1448
-1372
-1311
-1296
-1331
-1380
-1405
-1395
-1375
-1366
-1369
-1373
-1388
-1433
-1501
-1542
-1510
-1415
-1319
-1278
-1297
-1334
-1361
-1378
-1390
-1383
-1342
-1285
-1258
-1291
-1371
-1447
-1483
-1472
-1432
-1393
-1393
-1459
-1584
-1714
-1778
-1735
-1624
-1524
-1496
-1541
-1609
-1650
-1652
-1632
-1617
-1613
-1608
-1607
-1633
-1697
-1766
-1780
-1719
-1636
-1611
-1664
-1745
-1790
-1798
-1812
-1845
-1863
-1832
-1770
-1741
-1776
-1845
-1901
-1917
-1903
-1874
-1834
-1793
-1773
-1791
-1845
-1906
-1940
-1931
-1891
-1852
-1845
-1880
-1940
-1988
-1985
-1917
-1802
-1679
-1593
-1562
-1570
-1581
-1568
-1520
-1450
-1377
-1332
-1342
-1402
-1470
-1494
-1456
-1387
-1332
-1307
-1308
-1343
-1431
-1563
-1678
-1718
-1680
-1631
-1641
-1721
-1820
-1889
-1921
-1946
-2004
-2117
-2273
-2424
-2486
-2387
-2110
-1702
-1245
-804
-418
-112
98
208
215
118
-80
-347
-616
-819
-939
-1017
-1115
-1255
-1401
-1495
-1503
-1445
-1390
-1409
-1510
-1620
-1630
-1488
-1247
-1026
-914
-920
-986
-1054
-1090
-1085
-1032
-944
-855
-808
-824
-883
-937
-939
-881
-790
-716
-701
-744
-807
-845
-835
-783
-705
-620
-551
-528
-564
-640
-705
-717
-672
-610
-573
-576
-609
-650
-684
-688
-640
-548
-460
-441
-513
-626
-699
-696
-651
-622
-624
-624
-597
-572
-600
-682
-756
-757
-690
-630
-648
-734
-825
-875
-889
-891
-883
-850
-813
-819
-893
-987
-1024
-978
-901
-862
-878
-910
-927
-945
-997
-1075
-1132
-1135
-1094
-1050
-1034
-1051
-1092
-1128
-1126
-1065
-960
-865
-831
-856
-890
-869
-766
-597
-401
-216
-77
-12
-20
-57
-69
-23
61
134
158
128
78
47
56
108
184
260
308
310
266
198
148
146
193
257
308
332
328
295
238
181
167
204
254
256
187
89
26
18
38
53
60
80
105
102
53
-20
-71
-74
-43
-9
8
3
-20
-59
-101
-123
-107
-58
-7
8
-24
-88
-149
-177
-166
-122
-64
-30
-53
-131
-223
-269
-239
-163
-91
-59
-68
-107
-161
-217
-252
-243
-196
-145
-135
-189
-285
-371
-401
-378
-358
-393
-490
-605
-691
-741
-772
-786
-760
-687
-598
-542
-529
-536
-527
-493
-438
-361
-256
-146
-72
-57
-76
-76
-22
77
184
263
294
277
238
216
241
312
391
441
453
442
421
392
369
381
442
535
613
638
613
570
541
538
560
605
658
690
674
610
531
489
512
584
658
692
679
643
611
585
568
571
604
644
639
560
441
357
356
421
496
540
551
538
503
454
414
413
452
501
524
507
461
405
357
338
358
412
462
461
393
285
181
111
82
87
113
127
95
14
-74
-110
-79
-20
19
28
21
-14
-85
-166
-187
-106
29
124
131
79
26
-5
-27
-54
-106
-197
-334
-489
-611
-687
-743
-808
-857
-846
-786
-767
-885
-1145
-1452
-1672
-1712
-1556
-1242
-846
-450
-101
204
496
803
1099
1315
1373
1231
928
578
312
198
196
203
143
22
-98
-172
-208
-239
-276
-300
-293
-273
-274
-301
-333
-351
-358
-370
-386
-393
-394
-409
-441
-463
-443
-392
-359
-377
-427
-468
-491
-516
-554
-577
-551
-486
-434
-436
-487
-542
-575
-587
-586
-566
-528
-502
-534
-635
-751
-806
-774
-699
-648
-653
-706
-788
-886
-986
-1061
-1090
-1095
-1124
-1199
-1291
-1343
-1333
-1296
-1279
-1294
-1307
-1291
-1261
-1265
-1324
-1400
-1419
-1350
-1224
-1114
-1072
-1098
-1159
-1217
-1246
-1236
-1195
-1151
-1140
-1176
-1235
-1276
-1267
-1202
-1106
-1016
-965
-973
-1022
-1076
-1098
-1077
-1027
-965
-903
-845
-797
-766
-747
-719
-659
-557
-431
-318
-247
-216
-203
-178
-125
-34
88
209
278
263
193
144
175
273
385
471
526
555
548
504
452
440
478
525
526
466
384
325
309
321
344
375
414
443
433
368
268
185
162
191
225
209
124
-4
-134
-231
-287
-318
-346
-381
-420
-452
-473
-488
-500
-500
-478
-440
-421
-465
-577
-718
-826
-862
-834
-786
-752
-750
-779
-833
-895
-930
-912
-849
-793
-797
-868
-963
-1036
-1069
-1068
-1047
-1012
-984
-997
-1067
-1161
-1216
-1197
-1126
-1058
-1030
-1043
-1078
-1124
-1179
-1224
-1229
-1185
-1123
-1093
-1124
-1197
-1273
-1324
-1334
-1303
-1245
-1194
-1188
-1235
-1305
-1347
-1337
-1289
-1231
-1188
-1180
-1212
-1271
-1320
-1325
-1279
-1213
-1162
-1152
-1190
-1258
-1327
-1377
-1394
-1384
-1356
-1316
-1280
-1273
-1307
-1357
-1369
-1323
-1261
-1252
-1318
-1419
-1508
-1575
-1630
-1658
-1634
-1575
-1546
-1589
-1669
-1708
-1685
-1648
-1640
-1620
-1512
-1313
-1120
-1026
-1024
-1019
-947
-833
-748
-737
-791
-886
-1002
-1111
-1161
-1115
-996
-882
-843
-881
-942
-971
-948
-889
-812
-731
-667
-642
-664
-705
-715
-656
-550
-456
-416
-425
-447
-459
-465
-469
-456
-409
-344
-314
-354
-446
-537
-589
-608
-623
-644
-670
-704
-760
-836
-905
-935
-929
-923
-959
-1057
-1219
-1416
-1585
-1633
-1477
-1104
-601
-111
264
512
699
889
1083
1206
1177
973
659
345
118
-5
-68
-132
-221
-320
-403
-467
-537
-639
-772
-896
-963
-957
-908
-878
-915
-1014
-1121
-1172
-1149
-1087
-1045
-1058
-1111
-1165
-1194
-1202
-1208
-1224
-1246
-1274
-1309
-1348
-1376
-1380
-1354
-1312
-1279
-1272
-1300
-1356
-1417
-1458
-1467
-1452
-1428
-1396
-1364
-1345
-1358
-1410
-1473
-1506
-1491
-1446
-1414
-1426
-1485
-1570
-1640
-1656
-1602
-1509
-1434
-1421
-1460
-1513
-1553
-1580
-1604
-1620
-1617
-1611
-1638
-1713
-1807
-1867
-1861
-1806
-1743
-1704
-1703
-1737
-1803
-1885
-1954
-1977
-1949
-1900
-1881
-1925
-2015
-2097
-2125
-2084
-2001
-1916
-1861
-1850
-1878
-1928
-1965
-1950
-1874
-1767
-1680
-1641
-1636
-1628
-1593
-1529
-1445
-1355
-1281
-1248
-1265
-1306
-1333
-1329
-1306
-1275
-1218
-1117
-997
-915
-910
-952
-967
-914
-814
-715
-642
-583
-517
-446
-372
-280
-146
20
160
206
143
27
-62
-81
-45
0
31
39
22
-18
-71
-101
-78
-12
61
98
90
47
-8
-52
-64
-36
16
58
57
4
-76
-144
-167
-132
-62
6
33
6
-59
-130
-168
-153
-92
-22
15
0
-47
-95
-123
-121
-87
-27
32
48
1
-83
-152
-173
-156
-131
-113
-105
-107
-119
-139
-156
-154
-127
-80
-34
-18
-52
-132
-218
-263
-243
-175
-108
-81
-111
-179
-261
-330
-367
-372
-356
-349
-393
-505
-647
-736
-713
-609
-521
-508
-548
-580
-591
-624
-695
-743
-694
-564
-456
-460
-546
-613
-604
-549
-518
-530
-558
-588
-640
-732
-835
-882
-847
-760
-685
-662
-684
-722
-755
-772
-767
-740
-701
-667
-663
-695
-750
-803
-833
-835
-810
-767
-726
-719
-767
-852
-919
-922
-871
-826
-839
-906
-976
-1011
-1019
-1018
-1004
-958
-890
-846
-870
-951
-1035
-1082
-1093
-1089
-1078
-1059
-1055
-1101
-1196
-1276
-1264
-1151
-1012
-938
-958
-1015
-1041
-1014
-959
-903
-852
-806
-779
-788
-825
-863
-873
-849
-807
-769
-761
-808
-910
-1035
-1134
-1183
-1215
-1277
-1368
-1440
-1452
-1436
-1469
-1576
-1694
-1733
-1676
-1618
-1684
-1905
-2179
-2341
-2273
-1973
-1524
-1033
-578
-191
129
407
678
941
1141
1187
1029
723
401
185
94
55
-3
-89
-169
-218
-249
-293
-355
-410
-434
-417
-377
-342
-334
-355
-385
-395
-382
-364
-359
-363
-360
-353
-363
-398
-426
-407
-338
-272
-270
-340
-431
-488
-488
-449
-401
-369
-373
-418
-489
-547
-557
-517
-456
-411
-401
-424
-465
-513
-557
-583
-578
-540
-490
-462
-481
-539
-609
-654
-651
-605
-543
-504
-525
-611
-732
-837
-888
-890
-884
-916
-1004
-1132
-1256
-1332
-1337
-1288
-1231
-1214
-1250
-1320
-1392
-1454
-1516
-1581
-1633
-1650
-1636
-1625
-1648
-1701
-1749
-1752
-1709
-1647
-1604
-1603
-1642
-1703
-1759
-1785
-1759
-1678
-1570
-1474
-1422
-1408
-1397
-1358
-1281
-1173
-1050
-927
-833
-798
-824
-860
-840
-737
-597
-488
-443
-438
-435
-424
-406
-373
-312
-229
-166
-159
-206
-262
-286
-268
-224
-174
-126
-91
-89
-127
-192
-241
-242
-200
-155
-144
-174
-220
-262
-295
-314
-304
-257
-199
-180
-225
-308
-377
-400
-386
-363
-343
-338
-358
-412
-490
-550
-565
-542
-516
-518
-561
-635
-719
-783
-799
-766
-721
-703
-725
-761
-784
-796
-808
-800
-730
-575
-376
-211
-124
-97
-70
-9
73
142
168
144
77
-14
-93
-125
-89
7
120
196
195
122
26
-34
-31
13
64
105
126
118
77
30
26
86
171
216
194
135
85
64
64
82
129
199
256
260
197
102
29
16
61
130
183
192
158
105
60
46
63
99
133
147
132
95
47
2
-20
-1
60
122
133
73
-13
-63
-48
10
68
105
120
105
50
-38
-119
-150
-121
-60
-7
11
-14
-81
-167
-231
-249
-234
-245
-331
-481
-624
-690
-656
-563
-468
-403
-378
-397
-452
-520
-578
-612
-630
-639
-634
-617
-609
-637
-692
-719
-678
-595
-545
-579
-670
-755
-805
-835
-859
-865
-827
-765
-737
-781
-870
-937
-944
-911
-884
-876
-872
-864
-876
-928
-982
-973
-874
-739
-657
-665
-715
-738
-718
-684
-655
-618
-559
-510
-521
-604
-703
-740
-693
-609
-559
-578
-649
-730
-797
-849
-886
-906
-903
-898
-935
-1047
-1209
-1366
-1485
-1585
-1691
-1775
-1766
-1601
-1289
-899
-495
-107
263
607
890
1066
1092
946
666
352
112
-11
-80
-193
-391
-630
-828
-949
-1018
-1062
-1081
-1075
-1074
-1120
-1210
-1271
-1229
-1093
-950
-883
-909
-972
-1015
-1010
-949
-829
-660
-497
-420
-466
-593
-708
-747
-711
-640
-576
-536
-529
-554
-593
-617
-595
-534
-468
-429
-427
-457
-511
-567
-589
-544
-444
-346
-310
-345
-408
-448
-449
-426
-396
-364
-344
-362
-427
-511
-563
-550
-491
-437
-419
-439
-474
-515
-566
-624
-661
-649
-591
-533
-528
-583
-661
-718
-740
-744
-747
-755
-776
-829
-917
-1008
-1053
-1030
-964
-898
-864
-867
-898
-946
-989
-994
-940
-845
-756
-718
-735
-774
-799
-797
-768
-713
-638
-575
-569
-638
-736
-757
-642
-434
-249
-173
-192
-225
-216
-171
-122
-74
-9
71
119
103
53
35
85
166
216
219
205
200
191
154
101
84
132
218
279
276
222
161
117
97
98
123
166
207
219
187
123
65
42
55
83
93
71
22
-35
-82
-102
-87
-42
13
46
33
-32
-130
-211
-217
-137
-30
14
-48
-166
-251
-261
-223
-187
-166
-145
-128
-142
-200
-270
-296
-257
-182
-126
-127
-180
-245
-286
-282
-242
-190
-145
-116
-118
-165
-245
-314
-322
-269
-207
-197
-250
-326
-386
-432
-486
-552
-597
-592
-545
-501
-501
-550
-609
-633
-594
-501
-394
-324
-320
-363
-390
-340
-209
-54
60
103
96
67
31
-2
-6
41
131
223
269
260
223
201
222
294
392
472
486
427
342
296
320
387
448
480
492
492
473
426
378
373
428
513
569
564
516
460
429
435
482
557
634
679
668
613
547
505
500
520
544
553
536
497
450
415
412
448
515
581
619
608
550
468
395
371
411
490
541
517
429
343
315
347
391
412
411
400
369
298
201
125
104
127
160
177
176
155
114
69
66
134
245
321
306
226
162
173
259
371
469
538
573
562
498
395
293
231
209
189
127
19
-99
-184
2015
2049
2025
1984
1958
1944
1919
1879
1859
1886
1944
1982
1967
1924
1905
1937
1987
2009
1994
1958
1917
1876
1832
1787
1743
1698
1657
1640
1659
1686
1671
1603
1534
1524
1572
1623
1636
1636
1679
1779
1888
1957
1990
2029
2095
2170
2228
2261
2279
2283
2269
2244
2229
2242
2271
2284
2272
2261
2272
2291
2282
2226
2147
2084
2047
2021
2005
2005
2022
2034
2033
2043
2098
2180
2227
2205
2161
2171
2250
2317
2297
2215
2167
2209
2295
2347
2346
2344
2378
2434
2484
2540
2632
2739
2789
2755
2702
2734
2863
2994
3030
2987
2974
3059
3204
3310
3332
3303
3280
3279
3284
3289
3305
3337
3370
3381
3366
3338
3316
3320
3363
3429
3474
3460
3406
3369
3374
3384
3331
3194
3024
2889
2808
2759
2711
2663
2637
2656
2715
2776
2785
2702
2545
2382
2271
2211
2151
2052
1924
1810
1739
1698
1644
1537
1362
1125
832
496
133
-217
-517
-770
-1019
-1304
-1614
-1885
-2080
-2228
-2401
-2628
-2872
-3083
-3237
-3357
-3466
-3572
-3672
-3768
-3855
-3925
-3974
-4013
-4053
-4095
-4135
-4176
-4221
-4261
-4299
-4340
-4393
-4452
-4499
-4528
-4556
-4593
-4633
-4664
-4700
-4767
-4865
-4961
-5025
-5075
-5146
-5240
-5321
-5361
-5380
-5424
-5499
-5568
-5611
-5667
-5798
-6014
-6244
-6400
-6453
-6453
-6478
-6557
-6652
-6695
-6666
-6608
-6597
-6667
-6780
-6867
-6898
-6905
-6940
-7007
-7065
-7078
-7048
-7006
-6967
-6923
-6866
-6803
-6747
-6689
-6618
-6539
-6481
-6458
-6445
-6399
-6313
-6223
-6168
-6142
-6106
-6032
-5931
-5823
-5722
-5634
-5573
-5543
-5509
-5415
-5239
-5028
-4860
-4766
-4701
-4599
-4445
-4292
-4194
-4149
-4115
-4057
-3981
-3916
-3869
-3830
-3795
-3781
-3794
-3817
-3825
-3822
-3833
-3855
-3840
-3760
-3659
-3634
-3722
-3851
-3913
-3908
-3958
-4166
-4474
-4695
-4684
-4461
-4148
-3820
-3454
-3013
-2553
-2191
-1981
-1865
-1764
-1681
-1697
-1856
-2092
-2283
-2365
-2378
-2397
-2464
-2571
-2697
-2830
-2949
-3020
-3039
-3041
-3087
-3187
-3277
-3269
-3147
-2998
-2936
-2994
-3094
-3139
-3115
-3089
-3111
-3160
-3187
-3194
-3240
-3348
-3460
-3490
-3424
-3332
-3293
-3308
-3316
-3278
-3213
-3171
-3175
-3212
-3249
-3268
-3263
-3234
-3203
-3187
-3191
-3195
-3177
-3138
-3107
-3102
-3104
-3079
-3023
-2968
-2941
-2933
-2924
-2915
-2917
-2919
-2893
-2838
-2803
-2826
-2876
-2876
-2808
-2746
-2767
-2848
-2886
-2834
-2759
-2750
-2802
-2836
-2806
-2762
-2771
-2825
-2860
-2845
-2827
-2857
-2911
-2915
-2834
-2728
-2678
-2686
-2680
-2605
-2496
-2437
-2458
-2512
-2528
-2495
-2450
-2429
-2435
-2454
-2472
-2475
-2434
-2346
-2262
-2250
-2316
-2374
-2329
-2175
-2014
-1951
-1987
-2033
-1999
-1896
-1813
-1808
-1844
-1842
-1770
-1676
-1625
-1618
-1597
-1525
-1439
-1399
-1416
-1445
-1448
-1439
-1456
-1498
-1520
-1489
-1430
-1399
-1416
-1448
-1446
-1393
-1323
-1285
-1293
-1315
-1310
-1268
-1220
-1200
-1210
-1227
-1230
-1223
-1216
-1209
-1190
-1153
-1109
-1073
-1048
-1032
-1017
-1002
-991
-988
-988
-984
-968
-938
-895
-841
-786
-748
-742
-753
-748
-702
-638
-596
-593
-599
-574
-510
-434
-376
-344
-326
-316
-314
-315
-314
-309
-298
-277
-241
-194
-151
-125
-101
-55
22
97
126
108
96
130
192
212
146
31
-50
-63
-51
-78
-154
-236
-282
-291
-278
-246
-202
-165
-154
-152
-111
-9
106
163
144
95
64
60
52
25
-9
-38
-60
-67
-45
0
35
30
-13
-49
-46
-21
-24
-87
-181
-239
-222
-150
-79
-49
-51
-51
-22
28
88
144
186
200
182
157
159
196
237
247
229
220
238
260
253
219
199
204
193
122
4
-88
-115
-112
-143
-208
-243
-204
-134
-113
-166
-243
-303
-389
-567
-839
-1101
-1241
-1222
-1077
-835
-493
-64
377
733
969
1134
1282
1376
1319
1065
717
461
401
462
469
333
138
32
56
98
33
-135
-293
-347
-319
-284
-264
-213
-104
14
60
4
-102
-193
-248
-283
-314
-337
-347
-353
-371
-406
-462
-528
-576
-570
-505
-440
-448
-531
-607
-592
-500
-428
-445
-512
-541
-500
-442
-419
-429
-420
-371
-316
-289
-290
-289
-267
-230
-191
-171
-179
-209
-225
-186
-103
-41
-59
-132
-172
-127
-46
-23
-86
-181
-242
-269
-305
-372
-444
-493
-526
-557
-577
-563
-520
-482
-468
-469
-473
-494
-547
-613
-654
-669
-699
-766
-830
-825
-750
-673
-645
-640
-601
-521
-459
-467
-531
-604
-661
-703
-722
-696
-627
-563
-541
-538
-487
-359
-199
-73
0
55
128
230
360
510
650
738
756
743
760
816
859
848
817
835
922
1016
1051
1037
1042
1098
1163
1179
1139
1095
1087
1108
1130
1156
1207
1278
1323
1304
1241
1197
1210
1251
1264
1230
1193
1214
1308
1418
1469
1443
1395
1392
1444
1499
1512
1494
1490
1519
1555
1572
1582
1608
1633
1618
1548
1465
1422
1424
1433
1427
1424
1446
1488
1519
1524
1517
1514
1512
1493
1459
1419
1382
1350
1327
1322
1331
1334
1322
1312
1335
1388
1427
1408
1337
1260
1208
1163
1090
988
908
894
939
994
1017
1008
993
980
949
873
760
658
611
616
623
591
531
490
504
549
565
512
404
292
220
193
184
169
144
137
172
237
282
264
192
121
96
103
91
34
-43
-92
-92
-68
-61
-90
-151
-224
-290
-344
-393
-449
-517
-591
-654
-698
-726
-753
-795
-859
-943
-1029
-1106
-1181
-1266
-1360
-1454
-1545
-1645
-1762
-1881
-1972
-2029
-2085
-2174
-2284
-2360
-2368
-2346
-2370
-2472
-2610
-2714
-2780
-2864
-3000
-3151
-3231
-3213
-3165
-3162
-3206
-3225
-3179
-3121
-3150
-3292
-3472
-3592
-3624
-3623
-3639
-3675
-3693
-3667
-3597
-3506
-3438
-3446
-3552
-3687
-3711
-3524
-3146
-2700
-2282
-1889
-1469
-1012
-579
-218
63
263
344
278
120
21
93
292
457
476
404
396
529
727
857
885
904
1007
1187
1370
1514
1643
1790
1927
1994
1976
1934
1945
2035
2164
2278
2351
2395
2438
2502
2586
2655
2689
2707
2763
2886
3043
3164
3220
3251
3305
3377
3418
3392
3321
3262
3250
3291
3372
3481
3611
3764
3951
4177
4418
4631
4806
4972
5163
5359
5509
5608
5731
5951
6246
6494
6615
6664
6768
6977
7213
7364
7413
7433
7491
7570
7622
7649
7692
7770
7844
7867
7852
7869
7969
8139
8316
8465
8599
8750
8929
9118
9310
9505
9708
9910
10101
10285
10480
10698
10938
11173
11384
11573
11759
11951
12128
12256
12330
12394
12502
12660
12812
12909
12970
13072
13257
13480
13661
13767
13852
13980
14156
14320
14411
14410
14353
14295
14273
14283
14290
14278
14274
14327
14448
14595
14705
14766
14812
14855
14871
14841
14795
14785
14822
14860
14850
14804
14782
14823
14900
14956
14951
14881
14783
14692
14643
14641
14672
14714
14757
14819
14917
15034
15129
15177
15184
15174
15154
15103
15026
14971
14985
15048
15088
15065
15017
14997
14994
14946
14828
14699
14615
14556
14450
14285
14147
14127
14219
14325
14363
14329
14268
14214
14160
14095
14032
13991
13971
13953
13911
13841
13761
13695
13648
13588
13482
13334
13196
13126
13123
13114
13037
12907
12783
12694
12603
12471
12313
12174
12067
11962
11847
11756
11724
11713
11640
11465
11250
11085
10982
10862
10670
10432
10225
10081
9952
9797
9626
9468
9309
9102
8833
8561
8358
8226
8092
7894
7651
7422
7225
7022
6777
6525
6338
6225
6103
5873
5540
5223
5027
4935
4830
4618
4315
4011
3784
3627
3480
3281
3019
2731
2454
2216
2020
1851
1676
1482
1295
1173
1136
1131
1074
937
775
650
549
411
205
-18
-195
-326
-452
-582
-689
-776
-909
-1117
-1336
-1481
-1583
-1802
-2244
-2815
-3295
-3559
-3658
-3679
-3602
-3358
-2992
-2673
-2498
-2365
-2134
-1855
-1760
-1989
-2414
-2761
-2890
-2889
-2892
-2963
-3084
-3242
-3419
-3550
-3456
-3541
-3613
-3867
-4169
-4278
-4111
-3838
-3712
-3841
-4123
-4393
-4593
-4792
-5080
-5489
-5955
-6365
-6657
-6869
-7114
-7471
-7915
-8345
-8714
-9078
-9504
-9947
-10304
-10545
-10781
-11168
-11692
-12175
-12486
-12696
-13001
-13492
-14048
-14483
-14748
-14958
-15234
-15576
-15909
-16206
-16505
-16840
-17181
-17477
-17720
-17943
-18160
-18349
-18505
-18642
-18775
-18896
-18987
-19077
-19222
-19429
-19620
-19703
-19677
-19621
-19590
-19564
-19507
-19442
-19412
-19378
-19277
-19128
-19084
-19252
-19523
-19655
-19533
-19307
-19221
-19331
-19451
-19384
-19119
-18794
-18518
-18291
-18085
-17905
-17757
-17610
-17421
-17209
-17045
-16970
-16957
-16934
-16862
-16757
-16658
-16572
-16460
-16292
-16078
-15860
-15667
-15495
-15323
-15143
-14986
-14861
-14724
-14534
-14306
-14114
-13990
-13880
-13699
-13462
-13264
-13155
-13070
-12914
-12668
-12409
-12203
-12037
-11853
-11630
-11394
-11160
-10932
-10745
-10664
-10693
-10718
-10615
-10407
-10271
-10317
-10430
-10384
-10114
-9799
-9676
-9762
-9855
-9796
-9646
-9561
-9580
-9590
-9513
-9403
-9367
-9391
-9360
-9220
-9057
-8972
-8969
-8952
-8845
-8684
-8552
-8478
-8436
-8402
-8370
-8322
-8226
-8075
-7916
-7792
-7696
-7572
-7369
-7078
-6732
-6392
-6131
-5973
-5861
-5686
-5382
-4993
-4635
-4378
-4174
-3920
-3577
-3198
-2845
-2538
-2266
-2026
-1821
-1621
-1375
-1069
-764
-532
-383
-268
-144
-4
152
325
500
631
696
738
834
1004
1186
1302
1344
1372
1440
1538
1615
1632
1589
1513
1434
1372
1320
1256
1154
1018
891
815
797
788
739
640
521
417
334
241
120
-23
-175
-333
-497
-641
-735
-788
-863
-1020
-1238
-1425
-1519
-1559
-1635
-1774
-1905
-1947
-1910
-1892
-1959
-2073
-2124
-2063
-1956
-1906
-1935
-1963
-1904
-1778
-1674
-1646
-1659
-1642
-1587
-1538
-1530
-1550
-1563
-1554
-1526
-1479
-1414
-1360
-1349
-1374
-1377
-1318
-1229
-1185
-1206
-1218
-1142
-990
-878
-909
-1086
-1324
-1538
-1692
-1777
-1769
-1642
-1401
-1083
-731
-364
12
372
665
841
882
815
709
632
615
629
635
611
577
562
563
563
554
538
507
443
346
262
244
292
354
261
342
268
174
80
20
28
98
162
150
53
-61
-110
-73
0
37
17
-17
-10
43
95
113
110
125
162
187
178
166
200
297
423
537
632
719
802
879
967
1095
1253
1386
1447
1460
1506
1622
1756
1832
1843
1861
1944
2049
2081
2024
1973
2028
2167
2271
2265
2213
2230
2350
2488
2545
2514
2471
2487
2568
2673
2774
2859
2923
2968
3004
3045
3069
3039
2949
2844
2788
2801
2840
2851
2830
2815
2841
2899
2947
2952
2913
2859
2821
2828
2886
2976
3069
3149
3231
3334
3459
3585
3694
3798
3917
4041
4156
4259
4372
4509
4650
4765
4842
4895
4939
4972
5002
5046
5108
5153
5153
5124
5109
5113
5080
4974
4825
4698
4592
4440
4207
3953
3768
3667
3579
3451
3312
3210
3143
3049
2884
2671
2456
2249
2017
1747
1465
1220
1028
869
710
541
383
257
151
31
-121
-285
-427
-540
-648
-766
-885
-995
-1108
-1236
-1357
-1430
-1449
-1449
-1463
-1467
-1423
-1333
-1243
-1190
-1162
-1146
-1157
-1206
-1268
-1308
-1344
-1423
-1536
-1603
-1579
-1545
-1628
-1838
-2043
-2135
-2171
-2288
-2514
-2723
-2786
-2740
-2731
-2842
-2902
-3208
-3326
-3537
-3805
-4047
-4226
-4375
-4546
-4748
-4938
-5064
-5142
-5241
-5412
-5631
-5829
-5989
-6178
-6464
-6808
-7099
-7299
-7506
-7840
-8303
-8765
-9110
-9338
-9539
-9777
-10035
-10255
-10402
-10481
-10532
-10629
-10858
-11242
-11718
-12177
-12553
-12856
-13110
-13291
-13348
-13285
-13168
-13036
-12861
-12607
-12334
-12181
-12219
-12352
-12397
-12272
-12085
-12000
-12035
-12052
-11930
-11700
-11509
-11459
-11508
-11539
-11479
-11352
-11222
-11118
-11017
-10904
-10791
-10708
-10661
-10610
-10534
-10458
-10432
-10455
-10465
-10419
-10359
-10386
-10539
-10720
-10793
-10697
-10464
-10146
-9742
-9237
-8684
-8170
-7752
-7425
-7157
-6954
-6857
-6878
-6963
-7038
-7064
-7032
-6968
-6912
-6893
-6903
-6907
-6879
-6823
-6777
-6770
-6779
-6759
-6679
-6540
-6367
-6207
-6119
-6130
-6209
-6278
-6284
-6259
-6269
-6328
-6370
-6337
-6241
-6161
-6158
-6228
-6341
-6463
-6548
-6544
-6466
-6414
-6496
-6719
-6942
-7012
-6920
-6813
-6835
-6994
-7170
-7238
-7254
-7122
-7178
-7204
-7161
-7092
-7073
-7116
-7149
-7116
-7056
-7059
-7154
-7262
-7279
-7203
-7136
-7162
-7255
-7316
-7275
-7158
-7038
-6959
-6899
-6814
-6692
-6558
-6440
-6342
-6246
-6133
-5994
-5834
-5668
-5511
-5366
-5226
-5080
-4940
-4829
-4758
-4704
-4630
-4529
-4432
-4359
-4281
-4156
-3982
-3802
-3660
-3547
-3426
-3279
-3127
-2997
-2896
-2792
-2648
-2455
-2232
-2018
-1834
-1668
-1490
-1275
-1021
-752
-492
-257
-42
160
363
574
789
997
1196
1397
1608
1819
2015
2203
2408
2652
2921
3182
3409
3604
3785
3973
4178
4396
4606
4790
4947
5118
5343
5614
5871
6062
6207
6374
6598
6843
7050
7213
7371
7548
7725
7885
8060
8295
8572
8825
9019
9203
9438
9706
9929
10081
10229
10449
10715
10928
11045
11149
11358
11680
12012
12250
12407
12578
12817
13084
13318
13515
13716
13937
14141
14292
14418
14566
14727
14837
14857
14831
14837
14880
14896
14844
14776
14785
14879
14966
14967
14909
14888
14946
15013
14997
14902
14833
14870
14977
15047
15026
14979
15004
15117
15234
15274
15232
15165
15108
15047
14981
14942
14948
14959
14909
14805
14728
14738
14788
14766
14623
14430
14292
14230
14169
14034
13841
13676
13596
13565
13497
13361
13213
13138
13139
13137
13060
12939
12874
12920
13004
12994
12841
12641
12531
12554
12613
12580
12430
12249
12135
12097
12063
11963
11789
11570
11333
11088
10841
10605
10383
10163
9936
9719
9544
9425
9343
9268
9180
9078
8967
8854
8745
8641
8535
8418
8292
8168
8051
7951
7885
7857
7841
7792
7683
7550
7456
7421
7395
7329
7228
7154
7149
7193
7241
7262
7227
7083
6771
6304
5796
5392
5156
5038
4968
4940
5008
5188
5408
5568
5619
5592
5530
5430
5252
5000
4747
4578
4517
4505
4465
4377
4281
4219
4191
4163
4116
4067
4039
4047
4101
4207
4352
4497
4584
4594
4551
4504
4483
4493
4533
4603
4703
4813
4898
4945
4966
4987
5025
5071
5103
5111
5106
5101
5106
5124
5150
5179
5203
5225
5254
5311
5392
5458
5462
5415
5373
5377
5392
5339
5200
5054
4993
5015
5025
4949
4809
4691
4641
4627
4596
4542
4487
4445
4400
4347
4305
4302
4328
4348
4334
4292
4249
4226
4219
4213
4198
4175
4152
4137
4144
4177
4222
4257
4266
4253
4242
4256
4305
4376
4444
4487
4513
4558
4650
4772
4862
4874
4827
4790
4811
4864
4886
4860
4834
4855
4910
4952
4967
5007
5114
5258
5363
5404
5445
5565
5761
5955
6085
6178
6298
6468
6649
6798
6917
7037
7161
7268
7349
7430
7537
7669
7802
7927
8047
8164
8269
8359
8434
8484
8486
8433
8354
8291
8262
8257
8263
8286
8336
8393
8429
8449
8493
8579
8663
8687
8640
8577
8566
8622
8702
8773
8844
8941
9076
9231
9386
9520
9611
9649
9651
9656
9676
9676
9615
9500
9403
9403
9497
9615
9705
9767
9816
9879
9964
10044
10077
10044
9991
10000
10087
10155
10103
9977
9959
10149
10409
10493
10335
10140
10119
10244
10290
10111
9794
9536
9431
9420
9392
9301
9178
9086
9076
9158
9254
9255
9121
8918
8753
8685
8655
8586
8452
8280
8109
7985
7935
7932
7891
7749
7541
7371
7300
7279
7221
7099
6954
6849
6784
6718
6630
6530
6438
6354
6262
6144
5981
5761
5510
5270
5050
4822
4564
4284
4012
3783
3582
3371
3123
2857
2620
2430
2223
1899
1455
1042
842
851
857
649
274
-2
-23
59
-43
-416
-881
-1222
-1405
-1553
-1761
-2028
-2325
-2646
-2935
-3116
-3210
-3370
-3724
-4213
-4647
-4959
-5316
-5879
-6542
-7003
-7100
-6977
-6890
-6904
-6862
-6637
-6301
-6046
-5977
-6048
-6162
-6309
-6546
-6897
-7298
-7650
-7907
-8101
-8319
-8622
-8995
-9376
-9749
-10124
-10483
-10765
-10922
-11011
-11145
-11336
-11462
-11430
-11353
-11469
-11880
-12421
-12853
-13126
-13408
-13825
-14299
-14656
-14874
-15108
-15476
-15897
-16210
-16402
-16622
-16985
-17417
-17743
-17904
-17999
-18151
-18376
-18582
-18703
-18786
-18924
-19178
-19509
-19805
-20009
-20160
-20354
-20619
-20861
-20954
-20906
-20876
-21002
-21230
-21393
-21419
-21410
-21512
-21716
-21880
-21919
-21875
-21821
-21753
-21637
-21497
-21407
-21392
-21401
-21394
-21403
-21482
-21607
-21678
-21668
-21638
-21678
-21800
-21941
-22015
-21991
-21899
-21819
-21822
-21925
-22039
-22047
-21912
-21718
-21578
-21535
-21538
-21505
-21403
-21236
-21024
-20800
-20599
-20447
-20322
-20168
-19939
-19654
-19392
-19204
-19064
-18887
-18623
-18304
-18005
-17767
-17552
-17306
-17031
-16759
-16510
-16261
-15995
-15730
-15479
-15212
-14889
-14539
-14256
-14086
-13954
-13739
-13418
-13086
-12851
-12704
-12554
-12345
-12103
-11887
-11707
-11523
-11318
-11119
-10950
-10779
-10548
-10256
-9980
-9788
-9667
-9554
-9407
-9248
-9128
-9040
-8942
-8803
-8632
-8442
-8215
-7938
-7630
-7330
-7064
-6829
-6627
-6487
-6407
-6335
-6210
-6039
-5879
-5753
-5616
-5427
-5190
-4937
-4686
-4422
-4179
-4024
-3961
-3889
-3700
-3416
-3184
-3098
-3085
-2996
-2773
-2501
-2292
-2181
-2120
-2046
-1932
-1774
-1602
-1493
-1495
-1548
-1519
-1343
-1107
-974
-991
-1045
-982
-792
-591
-485
-470
-494
-526
-563
-597
-585
-504
-395
-319
-297
-293
-254
-163
-50
27
49
46
73
153
259
369
489
638
805
940
996
1010
1072
1234
1425
1541
1573
1625
1802
2099
2420
2692
2906
3084
3199
3233
3222
3210
3210
3170
3079
2999
3009
3097
3193
3259
3320
3399
3473
3520
3575
3693
3851
3941
3906
3806
3758
3812
3890
3886
3785
3673
3628
3638
3634
3583
3523
3522
3565
3575
3506
3431
3464
3582
3641
3520
3300
3135
3049
2877
2498
2011
1634
1478
1450
1454
1542
1819
2252
2659
2920
3082
3245
3388
3396
3241
3042
2910
2843
2769
2684
2657
2691
2696
2604
2478
2427
2452
2439
2310
2135
2050
2088
2150
2141
2057
1974
1931
1896
1835
1738
1650
1613
1621
1650
1654
1617
1565
1531
1513
1489
1442
1397
1391
1432
1484
1511
1501
1478
1485
1549
1642
1700
1675
1588
1513
1500
1536
1580
1631
1725
1848
1925
1900
1838
1856
1975
2088
2072
1941
1847
1913
2111
2332
2503
2625
2730
2813
2853
2879
2934
3017
3071
3072
3064
3111
3228
3357
3454
3535
3654
3818
3970
4060
4106
4187
4356
4575
4766
4880
4952
5067
5269
5513
5699
5794
5881
6057
6310
6534
6646
6701
6834
7080
7327
7460
7514
7627
7869
8159
8377
8525
8696
8928
9157
9311
9416
9554
9753
9953
10102
10218
10340
10458
10543
10611
10717
10878
11036
11130
11182
11273
11424
11562
11606
11557
11498
11495
11539
11577
11580
11556
11531
11520
11535
11563
11593
11622
11638
11626
11586
11540
11517
11518
11507
11466
11438
11482
11585
11655
11637
11595
11645
11802
11947
11961
11873
11829
11919
12082
12193
12201
12165
12162
12208
12268
12310
12333
12330
12283
12196
12112
12092
12139
12186
12179
12132
12107
12149
12235
12307
12344
12371
12403
12423
12419
12421
12474
12567
12644
12669
12673
12709
12786
12858
12884
12878
12880
12910
12945
12944
12883
12775
12671
12625
12646
12664
12592
12423
12268
12260
12402
12557
12586
12499
12439
12508
12651
12720
12649
12513
12428
12421
12426
12377
12290
12217
12176
12137
12070
11983
11895
11824
11765
11704
11622
11501
11355
11231
11168
11136
11053
10890
10707
10595
10561
10526
10423
10280
10172
10125
10085
10005
9901
9808
9714
9573
9374
9160
8967
8765
8499
8187
7923
7754
7632
7456
7206
6977
6849
6782
6666
6453
6207
5989
5759
5423
4968
4512
4173
3941
3722
3482
3318
3332
3480
3593
3550
3406
3285
3246
3208
3042
2716
2337
2028
1825
1687
1552
1379
1162
935
728
541
346
103
-186
-470
-686
-844
-1023
-1301
-1687
-2113
-2508
-2855
-3208
-3615
-4079
-4560
-4991
-5321
-5545
-5739
-6029
-6499
-7065
-7552
-7844
-8015
-8265
-8730
-9331
-9878
-10280
-10609
-11002
-11518
-12108
-12686
-13200
-13653
-14074
-14478
-14862
-15222
-15556
-15863
-16157
-16445
-16726
-17008
-17328
-17685
-18023
-18283
-18470
-18664
-18914
-19155
-19297
-19349
-19434
-19645
-19911
-20080
-20110
-20117
-20236
-20449
-20603
-20588
-20467
-20387
-20412
-20469
-20468
-20413
-20385
-20421
-20458
-20416
-20303
-20209
-20188
-20175
-20066
-19843
-19609
-19464
-19417
-19385
-19292
-19146
-19002
-18890
-18798
-18687
-18536
-18360
-18190
-18046
-17924
-17792
-17633
-17462
-17311
-17179
-17031
-16844
-16645
-16481
-16356
-16226
-16054
-15857
-15683
-15559
-15460
-15345
-15199
-15039
-14885
-14737
-14589
-14442
-14307
-14191
-14086
-13980
-13876
-13779
-13688
-13591
-13481
-13362
-13256
-13167
-13074
-12949
-12798
-12653
-12542
-12455
-12360
-12228
-12073
-11934
-11824
-11714
-11562
-11367
-11176
-11035
-10941
-10850
-10725
-10581
-10464
-10396
-10351
-10285
-10180
-10051
-9911
-9754
-9586
-9434
-9322
-9234
-9117
-8948
-8771
-8652
-8592
-8510
-8326
-8054
-7793
-7614
-7486
-7314
-7048
-6731
-6449
-6253
-6119
-5987
-5815
-5595
-5349
-5112
-4912
-4746
-4584
-4403
-4211
-4038
-3889
-3739
-3561
-3367
-3196
-3064
-2939
-2778
-2570
-2357
-2184
-2058
-1935
-1772
-1566
-1355
-1168
-991
-788
-545
-288
-55
145
328
513
705
895
1078
1261
1457
1679
1927
2193
2467
2740
3007
3269
3537
3825
4131
4440
4724
4975
5220
5498
5816
6145
6447
6719
6992
7296
7627
7957
8265
8542
8784
8990
9171
9346
9522
9684
9809
9900
9987
10100
10238
10378
10509
10638
10780
10941
11106
11253
11366
11440
11492
11555
11651
11766
11861
11911
11924
11922
11905
11830
11650
11373
11070
10827
10689
10643
10655
10705
10771
10816
10797
10697
10540
10352
10114
9778
9339
8868
8465
8166
7915
7629
7290
6940
6617
6304
5965
5599
5235
4896
4573
4258
3970
3739
3559
3379
3150
2872
2577
2297
2048
1836
1668
1542
1438
1319
1159
973
806
697
646
616
564
478
380
300
238
171
92
31
19
57
110
156
209
295
414
537
642
728
803
870
920
960
1016
1106
1218
1323
1406
1486
1586
1701
1799
1856
1885
1926
2004
2101
2183
2239
2306
2422
2583
2743
2857
2923
2980
3062
3175
3302
3433
3575
3731
3895
4045
4168
4273
4381
4499
4614
4707
4773
4833
4915
5022
5139
5243
5327
5399
5455
5483
5476
5457
5461
5503
5564
5612
5644
5679
5723
5756
5760
5744
5736
5737
5716
5655
5578
5530
5526
5540
5544
5541
5542
5544
5533
5505
5470
5427
5350
5221
5068
4944
4873
4833
4778
4698
4619
4574
4565
4572
4572
4554
4514
4461
4404
4360
4341
4344
4358
4368
4370
4375
4397
4439
4488
4522
4528
4506
4470
4440
4431
4452
4499
4560
4618
4651
4656
4651
4661
4694
4716
4680
4582
4493
4506
4645
4825
4930
4928
4902
4942
5050
5147
5182
5202
5286
5456
5663
5859
6059
6290
6518
6661
6686
6646
6623
6641
6672
6711
6788
6921
7072
7204
7333
7514
7756
7990
8156
8278
8423
8604
8769
8880
8982
9139
9331
9465
9491
9481
9544
9703
9872
9954
9951
9950
10013
10109
10158
10123
10052
10026
10083
10188
10270
10287
10264
10259
10281
10316
10365
10431
10500
10534
10535
10572
10700
10871
10988
11021
11059
11207
11447
11684
11873
12080
12359
12650
12836
12903
12964
13111
13304
13450
13543
13643
13751
13784
13714
13657
13749
13922
13940
13676
13304
13154
13318
13540
13531
13290
13093
13162
13397
13510
13336
12973
12607
12318
12032
11685
11329
11080
11000
11057
11176
11301
11394
11445
11463
11472
11475
11416
11219
10864
10428
10026
9728
9489
9231
8892
8473
8020
7578
7179
6824
6491
6156
5815
5482
5171
4872
4579
4302
4047
3768
3397
2949
2540
2275
2123
1945
1650
1300
1020
840
661
400
85
-192
-397
-596
-859
-1162
-1425
-1610
-1768
-1995
-2351
-2784
-3155
-3363
-3456
-3605
-3931
-4352
-4648
-4690
-4559
-4485
-4592
-4788
-4918
-4945
-4985
-5145
-5400
-5653
-5874
-6116
-6414
-6665
-6707
-6496
-6199
-6035
-6047
-6087
-5987
-5759
-5600
-5665
-5896
-6126
-6267
-6381
-6574
-6825
-7021
-7108
-7171
-7310
-7499
-7613
-7595
-7553
-7626
-7814
-7974
-7986
-7923
-7958
-8169
-8455
-8668
-8784
-8888
-9044
-9216
-9322
-9328
-9269
-9196
-9134
-9081
-9031
-8996
-8988
-9015
-9078
-9132
-9129
-9075
-9034
-9071
-9150
-9172
-9077
-8932
-8854
-8883
-8969
-9027
-9027
-9013
-9030
-9089
-9155
-9192
-9202
-9236
-9330
-9457
-9557
-9605
-9646
-9740
-9876
-9997
-10074
-10145
-10250
-10375
-10479
-10563
-10675
-10830
-10984
-11092
-11162
-11230
-11304
-11359
-11373
-11357
-11348
-11337
-11277
-11151
-11027
-10980
-11012
-11010
-10859
-10585
-10357
-10313
-10368
-10304
-10000
-9589
-9308
-9225
-9179
-8963
-8578
-8211
-8024
-8013
-8050
-8019
-7914
-7812
-7803
-7920
-8103
-8243
-8267
-8214
-8200
-8287
-8426
-8505
-8486
-8450
-8523
-8761
-9077
-9300
-9359
-9357
-9418
-9547
-9642
-9640
-9586
-9578
-9613
-9609
-9521
-9437
-9454
-9522
-9541
-9479
-9366
-9228
-9049
-8859
-8769
-8831
-8908
-8803
-8518
-8278
-8282
-8456
-8563
-8496
-8371
-8341
-8425
-8543
-8652
-8770
-8880
-8926
-8890
-8841
-8851
-8871
-8851
-8814
-8818
-8880
-8961
-9050
-9175
-9330
-9469
-9540
-9603
-9767
-10018
-10229
-10316
-10342
-10434
-10620
-10803
-10902
-10942
-10994
-11080
-11184
-11313
-11489
-11683
-11814
-11822
-11750
-11705
-11735
-11788
-11802
-11810
-11929
-12223
-12605
-12891
-12987
-12970
-12946
-12895
-12649
-12127
-11503
-11053
-10873
-10801
-10641
-10415
-10307
-10414
-10598
-10652
-10508
-10252
-10010
-9814
-9640
-9489
-9379
-9310
-9258
-9204
-9164
-9143
-9113
-9040
-8916
-8756
-8578
-8389
-8224
-8136
-8152
-8214
-8217
-8081
-7849
-7640
-7527
-7473
-7373
-7163
-6885
-6649
-6485
-6359
-6190
-5967
-5768
-5652
-5575
-5416
-5144
-4863
-4692
-4618
-4510
-4278
-3986
-3764
-3649
-3537
-3327
-3059
-2853
-2737
-2614
-2398
-2138
-1964
-1924
-1922
-1851
-1694
-1514
-1351
-1188
-1008
-843
-743
-665
-542
-332
-105
47
119
185
329
515
646
706
789
977
1205
1320
1282
1252
1408
1695
1883
1846
1728
1769
1989
2183
2190
2108
2162
2391
2624
2708
2721
2834
3075
3287
3356
3353
3410
3558
3711
3823
3946
4128
4346
4533
4682
4846
5031
5192
5314
5432
5591
5796
6010
6217
6429
6641
6826
6978
7121
7275
7418
7528
7638
7801
8030
8255
8418
8544
8714
8953
9202
9385
9498
9601
9731
9893
10071
10252
10430
10580
10685
10766
10863
10983
11094
11164
11213
11270
11341
11411
11493
11624
11806
11963
12023
12032
12120
12345
12596
12727
12744
12811
13046
13375
13636
13784
13931
14184
14516
14814
15035
15229
15445
15665
15848
16009
16200
16426
16632
16784
16911
17068
17250
17391
17472
17523
17592
17680
17768
17865
18009
18198
18359
18445
18509
18651
18872
19035
19018
18883
18844
19026
19314
19486
19480
19459
19613
19933
20235
20375
20388
20415
20515
20620
20646
20606
20582
20614
20649
20606
20491
20386
20356
20363
20315
20178
20025
19948
19957
19976
19934
19836
19731
19640
19542
19406
19226
19012
18772
18532
18330
18186
18074
17936
17744
17530
17357
17240
17144
17023
16865
16686
16495
16299
16114
15960
15834
15696
15492
15217
14927
14695
14542
14417
14255
14055
13894
13831
13844
13853
13796
13687
13563
13424
13224
12920
12523
12093
11714
11461
11374
11434
11572
11707
11815
11904
11976
12002
11932
11741
11438
11046
10599
10178
9861
9637
9446
9243
9029
8823
8604
8344
8078
7865
7681
7420
7058
6743
6637
6714
6744
6550
6209
5931
5804
5709
5514
5246
5046
4984
5000
4985
4916
4836
4789
4784
4797
4809
4806
4779
4715
4613
4520
4476
4474
4462
4360
4136
3884
3730
3695
3658
3498
3236
3010
2935
2993
3062
3049
2940
2792
2676
2638
2658
2647
2527
2304
2074
1917
1787
1573
1224
817
472
199
-94
-459
-832
-1115
-1313
-1542
-1879
-2277
-2624
-2889
-3166
-3571
-4105
-4661
-5139
-5539
-5941
-6411
-6931
-7403
-7764
-8058
-8403
-8868
-9415
-9936
-10370
-10764
-11214
-11774
-12390
-12947
-13382
-13729
-14094
-14549
-15028
-15391
-15579
-15708
-15969
-16421
-16903
-17196
-17273
-17325
-17547
-17917
-18228
-18326
-18286
-18274
-18357
-18457
-18498
-18519
-18609
-18758
-18861
-18870
-18871
-18967
-19130
-19218
-19166
-19083
-19118
-19267
-19378
-19346
-19271
-19324
-19528
-19719
-19735
-19607
-19508
-19548
-19650
-19669
-19580
-19495
-19514
-19590
-19583
-19437
-19279
-19255
-19371
-19468
-19400
-19222
-19111
-19147
-19225
-19201
-19071
-18954
-18911
-18865
-18717
-18506
-18364
-18334
-18296
-18120
-17851
-17664
-17657
-17715
-17649
-17417
-17168
-17055
-17063
-17046
-16903
-16685
-16515
-16444
-16420
-16367
-16280
-16210
-16200
-16226
-16216
-16124
-15963
-15792
-15660
-15559
-15445
-15295
-15118
-14940
-14777
-14631
-14503
-14391
-14266
-14086
-13834
-13554
-13319
-13161
-13043
-12895
-12683
-12431
-12192
-11992
-11809
-11598
-11342
-11070
-10826
-10629
-10449
-10242
-10005
-9782
-9610
-9478
-9337
-9170
-9008
-8895
-8826
-8756
-8654
-8543
-8457
-8395
-8315
-8189
-8023
-7853
-7705
-7569
-7427
-7282
-7150
-7034
-6917
-6782
-6637
-6505
-6400
-6307
-6202
-6085
-5979
-5906
-5867
-5843
-5828
-5842
-5916
-6043
-6154
-6152
-5976
-5640
-5217
-4771
-4323
-3868
-3432
-3069
-2805
-2611
-2440
-2289
-2193
-2150
-2092
-1942
-1690
-1404
-1148
-942
-781
-681
-650
-643
-581
-444
-301
-229
-214
-156
12
236
403
439
369
261
160
70
-19
-110
-199
-292
-413
-577
-779
-990
-1166
-1274
-1339
-1420
-1547
-1693
-1804
-1856
-1867
-1875
-1917
-2008
-2133
-2251
-2333
-2408
-2551
-2789
-3047
-3213
-3285
-3391
-3628
-3927
-4102
-4070
-3953
-3936
-4061
-4213
-4264
-4223
-4195
-4262
-4423
-4642
-4889
-5123
-5300
-5403
-5488
-5631
-5833
-6014
-6116
-6168
-6240
-6361
-6490
-6584
-6676
-6823
-7016
-7163
-7192
-7150
-7185
-7377
-7638
-7801
-7805
-7762
-7831
-8033
-8242
-8335
-8331
-8351
-8462
-8619
-8725
-8746
-8721
-8689
-8649
-8585
-8502
-8419
-8340
-8243
-8116
-7977
-7853
-7758
-7677
-7588
-7485
-7362
-7215
-7048
-6873
-6710
-6576
-6481
-6425
-6388
-6342
-6266
-6170
-6093
-6066
-6077
-6068
-5978
-5806
-5615
-5472
-5390
-5322
-5226
-5109
-5008
-4930
-4844
-4720
-4575
-4454
-4366
-4274
-4135
-3950
-3757
-3590
-3435
-3258
-3037
-2785
-2527
-2271
-2013
-1760
-1525
-1320
-1129
-926
-710
-504
-326
-162
26
250
481
683
856
1032
1232
1431
1599
1735
1873
2041
2227
2406
2572
2750
2954
3170
3369
3542
3713
3906
4115
4304
4451
4572
4697
4836
4964
5057
5135
5243
5404
5591
5761
5915
6092
6310
6532
6704
6821
6937
7102
7304
7496
7654
7796
7947
8107
8260
8410
8566
8712
8816
8868
8908
8979
9082
9179
9250
9316
9411
9524
9614
9663
9698
9764
9873
10002
10128
10251
10380
10516
10654
10791
10939
11103
11284
11481
11703
11955
12218
12455
12648
12823
13010
13196
13317
13329
13279
13270
13375
13552
13695
13752
13780
13868
14040
14222
14336
14373
14392
14438
14495
14527
14542
14592
14699
14816
14881
14890
14905
14964
15021
15006
14936
14931
15093
15403
15752
16055
16314
16580
16862
17099
17265
17398
17536
17648
17681
17651
17655
17761
17915
18000
17987
17968
18039
18160
18190
18068
17886
17797
17863
18035
18188
18241
18228
18257
18376
18502
18552
18547
18570
18618
18563
18381
18273
18459
18802
18862
18447
17928
17849
18230
18476
18089
17317
16855
16963
17177
16922
16229
15672
15646
15945
16084
15856
15485
15283
15332
15453
15459
15301
15071
14901
14836
14802
14668
14437
14242
14170
14143
14010
13750
13498
13384
13368
13290
13079
12824
12666
12622
12581
12431
12189
11981
11886
11862
11807
11666
11496
11389
11346
11260
11053
10796
10634
10605
10582
10434
10190
10007
9962
9962
9866
9658
9443
9286
9146
8949
8716
8525
8369
8198
7991
7772
7584
7426
7284
7146
7004
6833
6625
6447
6380
6408
6408
6275
6045
5859
5793
5795
5759
5654
5529
5424
5338
5253
5161
5056
4927
4764
4568
4344
4093
3844
3648
3531
3438
3281
3028
2760
2599
2568
2552
2440
2224
2012
1902
1895
1914
1908
1876
1819
1708
1532
1357
1283
1318
1327
1162
840
545
447
516
564
446
179
-106
-305
-411
-487
-614
-851
-1188
-1543
-1822
-2029
-2266
-2608
-3006
-3338
-3577
-3790
-4050
-4322
-4522
-4652
-4813
-5074
-5388
-5652
-5836
-6002
-6198
-6398
-6542
-6633
-6736
-6883
-7026
-7127
-7206
-7312
-7453
-7573
-7632
-7659
-7697
-7744
-7752
-7732
-7754
-7850
-7958
-8001
-8006
-8095
-8335
-8631
-8830
-8886
-8905
-9006
-9182
-9327
-9380
-9401
-9477
-9597
-9669
-9660
-9650
-9748
-9947
-10134
-10218
-10246
-10321
-10480
-10653
-10762
-10837
-10960
-11141
-11295
-11371
-11425
-11534
-11678
-11767
-11771
-11758
-11804
-11851
-11790
-11626
-11499
-11518
-11602
-11571
-11365
-11125
-11050
-11160
-11285
-11277
-11177
-11152
-11318
-11596
-11804
-11794
-11551
-11180
-10793
-10425
-10045
-9625
-9196
-8853
-8661
-8608
-8636
-8716
-8846
-8989
-9052
-8972
-8836
-8792
-8914
-9104
-9200
-9168
-9132
-9242
-9484
-9703
-9775
-9697
-9572
-9497
-9494
-9512
-9513
-9491
-9529
-9655
-9798
-9852
-9774
-9638
-9549
-9527
-9525
-9521
-9546
-9593
-9592
-9511
-9437
-9499
-9681
-9805
-9738
-9563
-9505
-9678
-9948
-10096
-10038
-9899
-9843
-9923
-10053
-10111
-10078
-10006
-9983
-10036
-10124
-10179
-10198
-10187
-10182
-10187
-10177
-10156
-10164
-10223
-10298
-10330
-10324
-10318
-10365
-10474
-10571
-10552
-10394
-10195
-10096
-10135
-10207
-10170
-9993
-9761
-9568
-9430
-9309
-9199
-9109
-9000
-8802
-8523
-8288
-8235
-8334
-8385
-8227
-7927
-7710
-7678
-7695
-7575
-7332
-7150
-7120
-7104
-6930
-6623
-6413
-6433
-6526
-6443
-6142
-5827
-5701
-5723
-5679
-5439
-5100
-4838
-4705
-4599
-4415
-4174
-3961
-3822
-3695
-3517
-3296
-3111
-2985
-2847
-2631
-2365
-2153
-2047
-1979
-1851
-1660
-1479
-1364
-1269
-1125
-953
-827
-762
-689
-556
-427
-408
-495
-557
-477
-288
-140
-132
-201
-217
-124
-2
36
-33
-133
-178
-146
-82
-58
-98
-167
-194
-142
-61
-59
-175
-314
-332
-218
-127
-220
-458
-601
-498
-279
-194
-321
-481
-478
-326
-214
-238
-287
-207
-11
157
214
212
275
432
620
775
862
902
935
1018
1164
1318
1403
1430
1497
1661
1843
1923
1915
1969
2189
2487
2698
2789
2907
3180
3544
3831
3956
4003
4073
4199
4348
4497
4645
4802
4951
5088
5245
5432
5618
5753
5829
5892
5969
6056
6145
6230
6304
6356
6406
6526
6765
7038
7160
7058
6888
6901
7158
7442
7496
7308
7126
7177
7426
7657
7720
7659
7618
7673
7786
7902
7993
8060
8090
8081
8074
8120
8223
8331
8399
8444
8494
8521
8463
8294
8065
7847
7673
7547
7509
7637
7961
8400
8830
9196
9544
9928
10310
10581
10671
10612
10513
10464
10494
10584
10702
10834
10970
11101
11205
11280
11345
11427
11529
11625
11695
11764
11891
12099
12348
12564
12720
12828
12906
12966
13046
13206
13463
13731
13895
13947
14011
14204
14484
14689
14725
14684
14744
14954
15191
15301
15287
15275
15351
15466
15530
15539
15565
15641
15710
15708
15663
15669
15760
15861
15879
15821
15781
15820
15894
15906
15831
15739
15702
15707
15693
15624
15523
15429
15342
15231
15087
14946
14845
14769
14661
14477
14236
14003
13826
13692
13539
13326
13073
12836
12647
12488
12311
12099
11861
11619
11386
11160
10942
10727
10508
10298
10125
10009
9930
9840
9715
9574
9451
9338
9194
9008
8824
8694
8601
8477
8298
8113
7974
7871
7752
7592
7417
7263
7129
6995
6876
6786
6705
6589
6430
6268
6131
5997
5827
5639
5495
5423
5379
5291
5151
5010
4902
4806
4686
4540
4383
4218
4039
3858
3701
3549
3352
3086
2797
2550
2342
2130
1913
1746
1675
1662
1637
1598
1630
1773
1934
1985
1914
1840
1862
1936
1936
1807
1623
1465
1319
1108
799
448
116
-202
-554
-955
-1361
-1721
-2028
-2318
-2625
-2963
-3324
-3704
-4109
-4528
-4946
-5337
-5692
-6069
-6535
-7075
-7593
-7995
-8300
-8630
-9076
-9591
-10036
-10336
-10555
-10817
-11161
-11534
-11861
-12116
-12332
-12541
-12755
-12977
-13204
-13428
-13613
-13738
-13824
-13923
-14073
-14268
-14470
-14641
-14773
-14876
-14974
-15084
-15210
-15352
-15497
-15634
-15756
-15858
-15938
-16011
-16102
-16226
-16347
-16396
-16345
-16255
-16241
-16349
-16502
-16588
-16587
-16576
-16624
-16708
-16753
-16745
-16736
-16776
-16838
-16872
-16871
-16884
-16932
-16968
-16935
-16841
-16770
-16778
-16828
-16830
-16750
-16662
-16695
-16895
-17159
-17304
-17226
-16968
-16654
-16369
-16099
-15796
-15468
-15166
-14937
-14783
-14682
-14635
-14643
-14687
-14712
-14668
-14560
-14451
-14408
-14436
-14473
-14464
-14413
-14376
-14388
-14422
-14434
-14414
-14397
-14393
-14356
-14252
-14126
-14066
-14113
-14211
-14272
-14262
-14217
-14186
-14188
-14216
-14252
-14261
-14203
-14067
-13893
-13746
-13649
-13565
-13443
-13287
-13154
-13084
-13057
-13018
-12930
-12798
-12644
-12478
-12299
-12107
-11909
-11713
-11524
-11349
-11198
-11070
-10932
-10739
-10483
-10219
-10011
-9866
-9727
-9545
-9331
-9143
-9012
-8905
-8764
-8565
-8340
-8134
-7959
-7786
-7584
-7352
-7116
-6909
-6746
-6612
-6476
-6320
-6151
-5988
-5848
-5719
-5575
-5398
-5197
-5008
-4854
-4723
-4573
-4384
-4175
-3987
-3840
-3718
-3590
-3441
-3278
-3113
-2946
-2778
-2610
-2437
-2251
-2044
-1830
-1627
-1441
-1255
-1058
-862
-686
-530
-357
-130
129
359
517
634
784
1012
1303
1599
1868
2118
2373
2646
2926
3192
3427
3632
3829
4045
4288
4526
4730
4909
5108
5348
5584
5739
5785
5773
5771
5796
5802
5755
5688
5658
5677
5700
5686
5656
5661
5715
5764
5755
5711
5715
5820
5980
6091
6110
6098
6148
6279
6407
6444
6393
6345
6375
6460
6505
6454
6353
6298
6321
6367
6362
6297
6232
6221
6257
6293
6292
6258
6206
6146
6085
6046
6047
6076
6091
6064
6008
5967
5969
6000
6021
6008
5960
5895
5826
5761
5711
5684
5680
5680
5660
5619
5581
5574
5601
5631
5634
5605
5562
5521
5474
5418
5357
5299
5238
5162
5079
5009
4960
4906
4817
4707
4616
4565
4523
4447
4337
4234
4169
4130
4084
4029
3995
3995
4004
3991
3958
3933
3930
3925
3884
3806
3727
3667
3613
3534
3426
3333
3299
3323
3365
3392
3419
3473
3546
3591
3572
3514
3485
3518
3581
3615
3599
3570
3562
3567
3535
3445
3335
3285
3355
3556
3868
4265
4718
5175
5576
5884
6107
6276
6396
6437
6375
6234
6092
6021
6032
6088
6137
6159
6168
6186
6219
6255
6278
6276
6260
6250
6273
6339
6436
6527
6570
6552
6492
6426
6381
6366
6374
6387
6392
6380
6343
6279
6195
6111
6050
6024
6015
5998
5959
5909
5875
5859
5843
5808
5779
5799
5876
5963
5992
5943
5870
5847
5905
6005
6079
6106
6126
6200
6343
6510
6640
6701
6711
6706
6706
6717
6747
6805
6892
6992
7095
7208
7339
7470
7568
7609
7606
7586
7563
7529
7483
7458
7488
7571
7664
7722
7743
7755
7777
7788
7764
7720
7697
7725
7789
7842
7854
7842
7854
7914
7994
8043
8040
8018
8030
8090
8159
8201
8244
8354
8543
8738
8865
8937
9035
9205
9394
9514
9531
9495
9474
9486
9507
9512
9496
9472
9461
9503
9600
9711
9794
9818
9789
9731
9678
9677
9734
9792
9788
9705
9620
9642
9784
9956
10035
9988
9918
9931
10021
10070
10019
9966
10056
10273
10413
10318
10108
10075
10321
10622
10687
10519
10388
10487
10698
10776
10683
10579
10577
10602
10535
10430
10435
10585
10728
10716
10625
10641
10804
10957
10925
10731
10560
10527
10541
10427
10157
9899
9817
9857
9797
9513
9137
8903
8864
8844
8647
8280
7920
7712
7624
7506
7279
6986
6711
6496
6313
6119
5910
5698
5456
5157
4832
4556
4374
4225
3997
3662
3334
3148
3093
3034
2867
2633
2448
2359
2302
2183
1997
1806
1653
1533
1415
1297
1212
1176
1150
1068
916
742
594
447
220
-110
-467
-785
-1104
-1516
-2018
-2473
-2773
-3003
-3339
-3823
-4298
-4611
-4794
-4999
-5301
-5634
-5919
-6167
-6429
-6661
-6777
-6811
-6925
-7230
-7637
-7908
-7906
-7734
-7583
-7504
-7374
-7068
-6639
-6276
-6101
-6065
-6035
-5996
-6069
-6354
-6782
-7166
-7403
-7557
-7751
-8035
-8370
-8698
-9004
-9278
-9517
-9775
-10109
-10508
-10896
-11182
-11378
-11556
-11734
-11894
-12064
-12332
-12718
-13091
-13301
-13388
-13569
-13952
-14387
-14644
-14720
-14853
-15212
-15680
-16008
-16108
-16143
-16300
-16565
-16793
-16913
-16979
-17075
-17186
-17272
-17349
-17491
-17713
-17926
-18069
-18174
-18288
-18413
-18482
-18430
-18293
-18174
-18130
-18132
-18115
-18084
-18112
-18260
-18499
-18741
-18910
-19024
-19145
-19318
-19521
-19706
-19848
-19970
-20110
-20278
-20478
-20679
-20819
-20878
-20901
-20966
-21073
-21116
-21032
-20912
-20903
-20984
-20968
-20714
-20328
-20073
-20057
-20111
-20013
-19754
-19520
-19451
-19506
-19578
-19635
-19711
-19773
-19745
-19605
-19459
-19451
-19583
-19690
-19618
-19376
-19137
-19057
-19096
-19104
-18987
-18777
-18586
-18449
-18333
-18217
-18131
-18097
-18084
-18036
-17926
-17789
-17668
-17575
-17510
-17455
-17351
-17143
-16867
-16660
-16609
-16632
-16565
-16364
-16156
-16063
-16045
-15982
-15816
-15622
-15472
-15365
-15272
-15180
-15074
-14922
-14713
-14514
-14406
-14368
-14309
-14187
-14063
-13992
-13926
-13802
-13645
-13560
-13563
-13524
-13353
-13135
-13038
-13109
-13194
-13126
-12900
-12675
-12589
-12612
-12605
-12461
-12217
-11989
-11854
-11796
-11727
-11598
-11400
-11150
-10857
-10544
-10288
-10106
-9895
-9520
-8994
-8527
-8307
-8239
-8043
-7583
-7022
-6629
-6437
-6223
-5818
-5306
-4924
-4788
-4772
-4655
-4330
-3911
-3600
-3514
-3553
-3484
-3161
-2692
-2349
-2258
-2267
-2130
-1816
-1534
-1473
-1580
-1636
-1502
-1292
-1191
-1240
-1329
-1349
-1270
-1144
-1015
-907
-852
-853
-842
-705
-402
-32
217
257
187
202
400
718
981
1094
1105
1147
1290
1492
1675
1815
1940
2081
2213
2289
2342
2449
2617
2734
2702
2585
2588
2829
3158
3284
3111
2853
2785
2915
2971
2722
2226
1775
1578
1622
1771
1946
2158
2415
2666
2886
3107
3363
3588
3632
3436
3154
2992
2987
2986
2854
2681
2650
2784
2859
2704
2463
2420
2590
2648
2377
2015
1984
2324
2595
2468
2196
2296
2811
3195
3010
2535
2426
2878
3367
3329
2844
2508
2686
3139
3417
3387
3321
3474
3771
3997
4077
4078
4102
4168
4248
4358
4500
4625
4714
4824
5011
5213
5294
5238
5214
5402
5775
6109
6218
6178
6229
6502
6871
7117
7138
7044
7009
7104
7260
7365
7390
7394
7453
7580
7698
7775
7850
7964
8115
8200
8148
8046
8037
8140
8281
8351
8330
8269
8221
8231
8302
8396
8458
8459
8465
8543
8665
8713
8651
8620
8750
8989
9143
9132
9112
9272
9579
9833
9924
9971
10150
10463
10743
10875
10918
11022
11244
11517
11743
11897
12044
12237
12502
12810
13101
13348
13569
13826
14127
14405
14625
14818
15042
15295
15505
15630
15730
15896
16130
16324
16401
16427
16535
16765
17013
17177
17284
17427
17642
17864
18033
18163
18288
18397
18449
18453
18480
18565
18649
18662
18617
18595
18649
18744
18793
18779
18766
18799
18847
18847
18781
18700
18676
18710
18731
18682
18597
18567
18631
18711
18694
18574
18452
18412
18419
18372
18259
18160
18125
18080
17923
17669
17447
17339
17276
17118
16834
16527
16315
16203
16091
15889
15603
15297
15020
14763
14491
14202
13940
13741
13591
13442
13276
13114
12985
12874
12745
12595
12450
12321
12181
12017
11875
11814
11821
11807
11719
11593
11488
11381
11181
10865
10535
10298
10132
9900
9531
9123
8839
8717
8633
8453
8168
7874
7647
7479
7318
7123
6893
6635
6364
6117
5936
5822
5726
5612
5491
5384
5280
5150
5015
4922
4868
4759
4504
4131
3761
3440
3053
2442
1633
860
369
195
178
188
262
527
974
1418
1693
1803
1851
1870
1780
1508
1135
821
629
464
214
-104
-396
-638
-924
-1352
-1881
-2365
-2703
-2953
-3245
-3625
-4010
-4296
-4488
-4704
-5058
-5562
-6123
-6642
-7086
-7473
-7829
-8155
-8459
-8758
-9054
-9331
-9560
-9739
-9906
-10111
-10366
-10659
-10992
-11381
-11828
-12294
-12725
-13101
-13442
-13785
-14130
-14440
-14680
-14857
-15010
-15164
-15316
-15463
-15624
-15811
-15998
-16138
-16223
-16296
-16409
-16546
-16664
-16757
-16858
-16989
-17119
-17205
-17263
-17361
-17525
-17690
-17782
-17814
-17867
-17976
-18082
-18117
-18106
-18127
-18198
-18247
-18210
-18117
-18051
-18035
-18008
-17926
-17828
-17767
-17726
-17640
-17505
-17401
-17400
-17452
-17443
-17327
-17185
-17120
-17115
-17059
-16874
-16612
-16405
-16310
-16255
-16131
-15918
-15699
-15547
-15437
-15286
-15066
-14833
-14657
-14531
-14389
-14190
-13978
-13838
-13794
-13785
-13732
-13611
-13461
-13335
-13257
-13216
-13188
-13147
-13074
-12959
-12829
-12745
-12745
-12789
-12773
-12631
-12422
-12300
-12339
-12432
-12399
-12186
-11944
-11856
-11927
-11988
-11888
-11668
-11497
-11465
-11497
-11468
-11347
-11204
-11100
-11023
-10919
-10768
-10608
-10474
-10368
-10263
-10143
-10010
-9890
-9788
-9695
-9597
-9485
-9362
-9243
-9131
-9022
-8909
-8790
-8669
-8548
-8433
-8329
-8230
-8128
-8015
-7894
-7770
-7637
-7496
-7365
-7268
-7198
-7110
-6973
-6811
-6677
-6585
-6491
-6358
-6198
-6050
-5911
-5738
-5531
-5352
-5261
-5235
-5179
-5036
-4847
-4694
-4606
-4527
-4390
-4188
-3979
-3814
-3695
-3577
-3420
-3224
-3021
-2829
-2632
-2402
-2130
-1838
-1551
-1272
-994
-720
-469
-247
-43
160
374
595
815
1035
1244
1432
1596
1747
1903
2064
2217
2342
2436
2516
2599
2689
2772
2837
2890
2949
3019
3079
3102
3101
3104
3116
3075
2910
2637
2376
2258
2311
2467
2659
2883
3152
3419
3594
3634
3579
3485
3340
3079
2686
2247
1870
1597
1383
1181
970
739
464
140
-192
-481
-738
-1020
-1353
-1680
-1915
-2051
-2172
-2377
-2684
-3019
-3293
-3479
-3629
-3817
-4052
-4250
-4316
-4256
-4204
-4282
-4468
-4630
-4699
-4753
-4913
-5182
-5446
-5621
-5749
-5917
-6129
-6286
-6313
-6238
-6150
-6095
-6060
-6019
-5963
-5890
-5793
-5692
-5635
-5653
-5704
-5701
-5601
-5456
-5363
-5365
-5409
-5409
-5333
-5219
-5121
-5053
-4997
-4939
-4885
-4838
-4785
-4711
-4617
-4525
-4457
-4410
-4359
-4291
-4210
-4127
-4048
-3967
-3887
-3816
-3754
-3692
-3615
-3514
-3403
-3300
-3216
-3141
-3059
-2957
-2830
-2690
-2556
-2443
-2346
-2240
-2105
-1959
-1846
-1787
-1757
-1709
-1624
-1521
-1424
-1332
-1233
-1137
-1059
-994
-905
-782
-659
-580
-540
-486
-387
-265
-164
-93
-23
66
157
221
253
275
310
360
417
471
519
558
593
629
677
748
840
940
1029
1103
1179
1280
1398
1502
1566
1603
1650
1723
1794
1825
1828
1859
1962
2125
2282
2386
2441
2488
2562
2664
2775
2881
2984
3090
3209
3345
3494
3642
3779
3906
4041
4191
4341
4467
4559
4639
4749
4913
5118
5316
5458
5541
5622
5775
6003
6227
6365
6427
6511
6697
6955
7189
7348
7477
7650
7881
8118
8312
8456
8577
8701
8834
8974
9114
9238
9337
9414
9472
9515
9551
9595
9654
9709
9723
9685
9631
9615
9655
9713
9734
9712
9682
9675
9683
9671
9634
9591
9577
9606
9638
9635
9628
9699
9861
10019
10075
10027
10001
10118
10342
10525
10543
10411
10240
10151
10194
10354
10540
10638
10607
10524
10554
10790
11123
11327
11274
11055
10894
10928
11058
11082
10908
10621
10357
10130
9839
9459
9121
9005
9130
9339
9464
9480
9515
9663
9865
10004
10021
9969
9922
9918
9952
10010
10082
10168
10261
10335
10371
10335
10194
9982
9781
9638
9549
9460
9331
9205
9139
9131
9117
9017
8816
8575
8345
8139
7936
7714
7466
7177
6841
6488
6174
5902
5624
5310
5005
4810
4750
4720
4586
4325
4040
3854
3783
3744
3658
3541
3444
3372
3311
3227
3116
3017
2947
2873
2743
2527
2277
2098
2022
1970
1815
1537
1279
1189
1229
1198
959
608
336
202
64
-241
-674
-1060
-1306
-1503
-1817
-2285
-2784
-3154
-3338
-3421
-3545
-3769
-4023
-4177
-4145
-3947
-3716
-3588
-3612
-3735
-3827
-3789
-3639
-3513
-3524
-3622
-3622
-3396
-3040
-2779
-2723
-2750
-2706
-2601
-2608
-2836
-3160
-3376
-3428
-3454
-3594
-3817
-3966
-3937
-3809
-3743
-3794
-3874
-3887
-3839
-3824
-3894
-3995
-4025
-3965
-3892
-3872
-3897
-3947
-3995
-4009
-3966
-3906
-3933
-4098
-4310
-4415
-4369
-4310
-4363
-4461
-4434
-4249
-4105
-4183
-4405
-4507
-4366
-4148
-4106
-4289
-4514
-4601
-4569
-4570
-4661
-4773
-4850
-4912
-5018
-5177
-5321
-5388
-5391
-5406
-5492
-5664
-5864
-5987
-5965
-5878
-5898
-6108
-6399
-6577
-6587
-6564
-6666
-6861
-6978
-6957
-6947
-7098
-7348
-7489
-7450
-7408
-7565
-7886
-8136
-8165
-8050
-7986
-8068
-8193
-8231
-8171
-8104
-8099
-8161
-8245
-8327
-8422
-8517
-8575
-8563
-8507
-8469
-8479
-8509
-8497
-8426
-8330
-8258
-8232
-8212
-8153
-8032
-7885
-7802
-7825
-7909
-7953
-7893
-7776
-7691
-7672
-7674
-7635
-7540
-7425
-7311
-7210
-7137
-7112
-7137
-7151
-7093
-6979
-6881
-6855
-6850
-6792
-6690
-6603
-6572
-6541
-6430
-6259
-6157
-6230
-6399
-6493
-6456
-6418
-6538
-6776
-6912
-6773
-6405
-5989
-5644
-5343
-5020
-4680
-4368
-4125
-3954
-3877
-3908
-3981
-3975
-3840
-3662
-3549
-3503
-3422
-3275
-3169
-3194
-3269
-3244
-3079
-2919
-2905
-2979
-2952
-2733
-2448
-2276
-2248
-2297
-2344
-2377
-2392
-2337
-2187
-2040
-2015
-2096
-2138
-2029
-1845
-1760
-1849
-2004
-2063
-1984
-1855
-1761
-1728
-1745
-1794
-1839
-1824
-1719
-1603
-1597
-1712
-1849
-1875
-1768
-1631
-1580
-1625
-1702
-1730
-1683
-1589
-1541
-1605
-1715
-1727
-1563
-1341
-1295
-1465
-1605
-1461
-1132
-990
-1230
-1594
-1665
-1391
-1163
-1281
-1561
-1581
-1266
-1008
-1147
-1522
-1679
-1468
-1239
-1331
-1650
-1825
-1713
-1533
-1542
-1683
-1744
-1692
-1698
-1834
-1965
-1973
-1934
-2027
-2206
-2236
-2048
-1860
-1924
-2157
-2233
-2011
-1742
-1785
-2148
-2459
-2411
-2096
-1859
-1905
-2129
-2271
-2200
-2004
-1831
-1779
-1854
-1995
-2121
-2154
-2091
-2022
-2063
-2231
-2440
-2561
-2563
-2534
-2567
-2679
-2777
-2774
-2675
-2572
-2565
-2631
-2685
-2670
-2633
-2669
-2797
-2940
-3003
-2995
-2984
-2996
-2988
-2930
-2850
-2801
-2773
-2719
-2619
-2512
-2443
-2392
-2324
-2262
-2245
-2247
-2168
-1977
-1783
-1689
-1669
-1591
-1398
-1177
-1037
-975
-905
-808
-767
-809
-829
-720
-510
-333
-246
-173
-5
229
434
590
766
971
1128
1190
1258
1474
1833
2161
2318
2372
2508
2780
3057
3193
3224
3326
3571
3864
4061
4134
4200
4370
4634
4862
4959
4958
4991
5146
5381
5563
5621
5624
5714
5918
6116
6171
6100
6062
6162
6314
6351
6227
6076
6054
6168
6294
6323
6280
6295
6451
6689
6875
6941
6966
7078
7303
7528
7649
7699
7806
8022
8266
8442
8553
8687
8877
9066
9199
9295
9395
9492
9552
9595
9687
9848
10002
10057
10007
9920
9843
9767
9692
9678
9789
10029
10332
10649
10987
11365
11751
12070
12277
12385
12434
12450
12440
12411
12385
12380
12401
12434
12461
12475
12485
12501
12525
12556
12582
12602
12614
12619
12621
12642
12698
12773
12810
12757
12626
12502
12466
12529
12638
12754
12874
12996
13090
13129
13136
13157
13204
13241
13245
13249
13296
13368
13405
13383
13366
13438
13591
13729
13786
13806
13876
14011
14122
14122
14034
13978
14022
14115
14141
14061
13956
13940
14043
14195
14320
14402
14475
14562
14655
14720
14738
14705
14623
14505
14371
14233
14077
13884
13669
13462
13272
13062
12791
12476
12174
11894
11587
11218
10841
10553
10374
10201
9940
9621
9363
9207
9059
8792
8389
7939
7531
7184
6883
6629
6426
6233
5995
5700
5392
5098
4781
4401
3986
3618
3358
3216
3201
3341
3612
3919
4169
4377
4629
4916
5091
5014
4724
4443
4326
4284
4085
3650
3154
2842
2724
2543
2079
1409
819
461
172
-323
-1074
-1856
-2439
-2859
-3330
-3963
-4655
-5243
-5694
-6103
-6528
-6934
-7281
-7592
-7927
-8301
-8683
-9055
-9417
-9754
-10038
-10283
-10561
-10903
-11248
-11512
-11726
-12015
-12467
-13023
-13546
-13983
-14387
-14810
-15229
-15587
-15877
-16153
-16448
-16742
-17001
-17232
-17487
-17787
-18093
-18359
-18575
-18735
-18819
-18815
-18775
-18768
-18806
-18816
-18727
-18581
-18494
-18509
-18524
-18417
-18211
-18068
-18107
-18248
-18293
-18165
-18004
-17998
-18158
-18305
-18291
-18167
-18086
-18104
-18121
-18048
-17942
-17936
-18053
-18144
-18073
-17901
-17807
-17869
-17990
-18016
-17908
-17742
-17588
-17438
-17280
-17137
-17033
-16921
-16745
-16527
-16363
-16303
-16300
-16272
-16188
-16086
-16005
-15936
-15860
-15775
-15689
-15598
-15507
-15445
-15425
-15421
-15382
-15303
-15221
-15155
-15088
-15008
-14958
-15011
-15169
-15349
-15451
-15466
-15445
-15411
-15311
-15068
-14690
-14277
-13958
-13788
-13711
-13637
-13538
-13477
-13533
-13706
-13881
-13937
-13852
-13719
-13643
-13641
-13652
-13618
-13547
-13506
-13521
-13548
-13516
-13409
-13292
-13227
-13188
-13096
-12917
-12720
-12607
-12598
-12600
-12510
-12328
-12127
-11962
-11798
-11593
-11373
-11219
-11164
-11127
-10998
-10753
-10484
-10289
-10167
-10029
-9815
-9557
-9325
-9144
-8980
-8802
-8625
-8468
-8316
-8132
-7916
-7700
-7498
-7283
-7029
-6755
-6505
-6300
-6127
-5968
-5816
-5669
-5528
-5414
-5347
-5295
-5191
-5022
-4863
-4793
-4785
-4725
-4567
-4400
-4324
-4313
-4246
-4091
-3942
-3874
-3815
-3648
-3397
-3222
-3208
-3237
-3136
-2904
-2729
-2753
-2917
-3041
-3028
-2946
-2915
-2963
-3003
-2921
-2691
-2409
-2206
-2115
-2042
-1847
-1493
-1101
-820
-669
-529
-277
89
466
772
1001
1207
1431
1685
1972
2287
2601
2876
3096
3282
3474
3687
3903
4082
4214
4316
4424
4558
4719
4898
5078
5252
5417
5563
5674
5741
5770
5776
5765
5738
5708
5692
5703
5731
5754
5758
5736
5685
5601
5492
5388
5310
5234
5116
4933
4722
4547
4417
4275
4059
3761
3430
3116
2829
2538
2205
1820
1424
1068
777
529
275
-11
-315
-602
-852
-1073
-1292
-1529
-1792
-2071
-2330
-2532
-2670
-2771
-2872
-2986
-3096
-3188
-3264
-3337
-3415
-3499
-3583
-3657
-3711
-3759
-3830
-3936
-4042
-4081
-4028
-3943
-3932
-4040
-4206
-4329
-4369
-4380
-4431
-4530
-4623
-4662
-4657
-4655
-4675
-4684
-4644
-4568
-4506
-4492
-4510
-4516
-4487
-4424
-4341
-4247
-4160
-4095
-4041
-3962
-3834
-3690
-3604
-3606
-3645
-3633
-3544
-3438
-3391
-3417
-3457
-3446
-3376
-3288
-3228
-3203
-3181
-3124
-3020
-2899
-2801
-2752
-2736
-2716
-2669
-2599
-2517
-2429
-2331
-2224
-2118
-2027
-1967
-1971
-2079
-2282
-2502
-2620
-2562
-2342
-2032
-1679
-1278
-819
-348
49
318
480
582
630
588
451
296
236
313
461
575
607
603
636
723
823
885
893
877
881
931
1018
1110
1173
1201
1224
1279
1374
1484
1586
1690
1832
2016
2200
2328
2394
2440
2509
2599
2686
2777
2907
3091
3281
3414
3490
3580
3741
3951
4145
4299
4459
4667
4891
5073
5215
5385
5634
5920
6156
6317
6466
6663
6891
7094
7255
7409
7581
7743
7861
7952
8077
8255
8432
8551
8634
8755
8948
9150
9266
9280
9285
9388
9606
9843
9990
10032
10049
10128
10264
10374
10397
10363
10371
10472
10630
10777
10893
11022
11198
11394
11553
11660
11752
11869
12014
12159
12290
12434
12619
12835
13054
13254
13439
13613
13763
13883
14002
14176
14443
14757
15017
15171
15277
15441
15704
15973
16151
16255
16391
16634
16957
17299
17639
17972
18235
18351
18339
18339
18453
18613
18682
18657
18660
18814
19079
19321
19469
19538
19587
19637
19663
19631
19529
19394
19296
19273
19246
19095
18832
18618
18578
18569
18322
17779
17227
16979
16977
16860
16391
15750
15284
15098
14983
14724
14352
14048
13892
13796
13632
13420
13248
13150
13066
12925
12748
12606
12563
12604
12637
12594
12490
12411
12397
12413
12381
12258
12093
11941
11800
11615
11361
11086
10853
10658
10425
10112
9769
9496
9322
9168
8947
8649
8335
8044
7752
7424
7067
6722
6400
6071
5708
5329
4992
4719
4475
4210
3898
3558
3227
2938
2690
2461
2221
1957
1690
1454
1267
1119
977
817
637
454
292
162
53
-55
-165
-286
-415
-544
-669
-774
-867
-972
-1104
-1246
-1347
-1397
-1464
-1595
-1760
-1889
-1987
-2175
-2532
-2956
-3228
-3235
-3086
-2925
-2745
-2442
-2014
-1627
-1416
-1318
-1194
-1075
-1162
-1533
-1971
-2165
-2078
-1986
-2119
-2397
-2551
-2470
-2341
-2395
-2638
-2884
-2975
-2947
-2947
-3027
-3128
-3164
-3131
-3122
-3203
-3342
-3437
-3435
-3403
-3443
-3576
-3694
-3688
-3606
-3619
-3829
-4129
-4324
-4326
-4239
-4210
-4275
-4346
-4342
-4283
-4245
-4238
-4224
-4190
-4175
-4221
-4297
-4305
-4197
-4048
-3978
-4043
-4160
-4212
-4180
-4142
-4169
-4235
-4272
-4272
-4288
-4353
-4418
-4419
-4381
-4402
-4536
-4721
-4845
-4859
-4828
-4845
-4926
-5007
-5026
-4999
-4988
-5009
-5030
-5016
-4990
-5011
-5092
-5184
-5247
-5286
-5308
-5292
-5228
-5187
-5256
-5410
-5506
-5419
-5227
-5137
-5238
-5381
-5345
-5129
-4955
-4984
-5118
-5115
-4895
-4632
-4536
-4613
-4679
-4588
-4381
-4219
-4190
-4228
-4212
-4100
-3953
-3847
-3800
-3763
-3679
-3582
-3526
-3515
-3498
-3440
-3364
-3311
-3287
-3270
-3253
-3227
-3163
-3021
-2826
-2696
-2725
-2873
-2994
-2990
-2907
-2853
-2860
-2877
-2862
-2834
-2807
-2746
-2614
-2483
-2480
-2632
-2818
-2900
-2871
-2852
-2938
-3104
-3233
-3283
-3311
-3405
-3554
-3676
-3738
-3800
-3947
-4157
-4317
-4363
-4399
-4571
-4853
-5053
-5062
-4991
-5022
-5179
-5295
-5262
-5168
-5167
-5258
-5318
-5289
-5256
-5299
-5364
-5350
-5261
-5189
-5188
-5198
-5153
-5100
-5114
-5162
-5145
-5028
-4909
-4888
-4918
-4887
-4759
-4612
-4515
-4462
-4393
-4302
-4283
-4339
-4360
-4266
-4110
-4046
-4142
-4268
-4221
-4000
-3827
-3857
-3930
-3741
-3248
-2824
-2882
-3336
-3638
-3381
-2782
-2457
-2719
-3238
-3429
-3119
-2680
-2558
-2809
-3111
-3180
-3045
-2934
-2984
-3123
-3198
-3172
-3091
-3068
-3146
-3235
-3236
-3119
-2958
-2880
-2917
-2980
-2943
-2783
-2611
-2547
-2631
-2834
-3105
-3396
-3621
-3641
-3387
-2988
-2684
-2588
-2551
-2311
-1809
-1294
-1067
-1171
-1368
-1418
-1324
-1246
-1260
-1299
-1269
-1199
-1181
-1251
-1350
-1392
-1363
-1319
-1308
-1361
-1430
-1393
-1190
-899
-684
-634
-669
-671
-630
-627
-659
-610
-444
-292
-303
-423
-428
-235
-27
-1
-89
-67
135
333
344
222
164
221
271
222
143
157
260
341
367
420
545
675
700
627
569
589
649
652
563
446
392
449
569
661
649
540
419
352
337
328
289
201
72
-74
-177
-182
-111
-75
-157
-292
-336
-234
-124
-162
-313
-400
-308
-144
-103
-212
-293
-181
64
235
237
209
332
602
827
856
768
777
978
1261
1457
1545
1657
1886
2169
2380
2499
2617
2804
3005
3115
3119
3121
3223
3418
3617
3744
3796
3840
3923
4073
4257
4411
4495
4529
4581
4682
4806
4930
5074
5271
5491
5627
5637
5623
5746
6029
6313
6426
6369
6308
6383
6579
6785
6947
7108
7326
7590
7842
8065
8288
8538
8771
8919
8967
8974
9028
9157
9341
9530
9697
9845
9979
10107
10241
10392
10548
10675
10726
10701
10654
10647
10703
10782
10833
10822
10758
10699
10692
10742
10789
10779
10737
10748
10857
10990
11011
10880
10695
10599
10642
10750
10825
10833
10823
10867
11009
11241
11486
11622
11570
11367
11151
11041
11024
10989
10873
10726
10656
10708
10835
10949
11005
11001
10928
10785
10607
10462
10381
10313
10191
10026
9890
9835
9810
9726
9561
9377
9231
9093
8888
8598
8287
8035
7829
7585
7259
6911
6642
6470
6300
6017
5623
5243
4990
4809
4505
3956
3282
2748
2502
2442
2357
2182
2042
2068
2208
2271
2142
1892
1660
1480
1264
929
510
128
-137
-306
-456
-644
-896
-1229
-1648
-2114
-2556
-2932
-3274
-3645
-4026
-4316
-4445
-4478
-4545
-4711
-4928
-5139
-5350
-5611
-5917
-6204
-6436
-6636
-6827
-6965
-6986
-6912
-6860
-6910
-7013
-7056
-7017
-7011
-7161
-7442
-7696
-7801
-7800
-7840
-7996
-8181
-8277
-8282
-8338
-8569
-8947
-9332
-9643
-9943
-10345
-10876
-11440
-11938
-12357
-12762
-13192
-13624
-14009
-14334
-14622
-14916
-15252
-15631
-16014
-16331
-16544
-16700
-16896
-17180
-17493
-17724
-17832
-17884
-17973
-18114
-18253
-18348
-18425
-18520
-18622
-18683
-18684
-18664
-18674
-18711
-18721
-18666
-18570
-18494
-18467
-18467
-18442
-18370
-18282
-18233
-18235
-18243
-18197
-18085
-17972
-17918
-17906
-17848
-17689
-17484
-17343
-17316
-17326
-17249
-17046
-16799
-16623
-16560
-16560
-16544
-16456
-16303
-16142
-16058
-16091
-16179
-16198
-16082
-15898
-15786
-15796
-15840
-15798
-15670
-15569
-15567
-15608
-15588
-15487
-15390
-15381
-15430
-15431
-15317
-15118
-14928
-14803
-14726
-14634
-14488
-14306
-14120
-13949
-13790
-13630
-13473
-13312
-13126
-12900
-12653
-12432
-12257
-12100
-11917
-11704
-11496
-11321
-11176
-11040
-10904
-10764
-10597
-10377
-10119
-9876
-9687
-9533
-9346
-9098
-8822
-8573
-8367
-8175
-7963
-7732
-7501
-7278
-7054
-6821
-6576
-6318
-6054
-5791
-5543
-5320
-5110
-4880
-4604
-4298
-4020
-3815
-3669
-3517
-3298
-3018
-2746
-2542
-2395
-2248
-2061
-1851
-1657
-1494
-1339
-1172
-996
-818
-633
-430
-209
16
230
426
598
746
873
987
1091
1179
1249
1318
1407
1501
1563
1575
1561
1561
1583
1598
1573
1510
1438
1386
1367
1366
1360
1336
1308
1305
1341
1386
1392
1341
1251
1143
1002
806
592
459
484
651
886
1149
1457
1820
2171
2420
2544
2603
2652
2662
2572
2402
2257
2224
2275
2314
2284
2215
2159
2119
2076
2048
2068
2122
2155
2138
2132
2214
2378
2539
2621
2641
2667
2719
2763
2779
2793
2837
2891
2894
2798
2621
2418
2239
2115
2048
2007
1944
1822
1651
1477
1337
1219
1081
891
655
414
214
57
-91
-267
-465
-642
-775
-895
-1058
-1277
-1495
-1653
-1748
-1833
-1959
-2128
-2308
-2460
-2567
-2626
-2655
-2678
-2707
-2729
-2730
-2718
-2729
-2782
-2858
-2924
-2964
-3006
-3074
-3162
-3230
-3242
-3198
-3137
-3103
-3111
-3138
-3149
-3142
-3141
-3163
-3181
-3147
-3058
-2958
-2900
-2880
-2858
-2813
-2760
-2729
-2726
-2739
-2762
-2789
-2799
-2766
-2694
-2630
-2604
-2593
-2544
-2445
-2350
-2311
-2324
-2328
-2282
-2207
-2153
-2140
-2140
-2117
-2067
-2018
-1992
-1984
-1968
-1932
-1895
-1878
-1886
-1906
-1934
-1975
-2032
-2080
-2093
-2078
-2076
-2113
-2162
-2174
-2147
-2131
-2171
-2260
-2349
-2407
-2450
-2510
-2587
-2657
-2709
-2755
-2810
-2870
-2918
-2952
-2981
-3006
-3020
-3020
-3018
-3031
-3062
-3085
-3075
-3038
-2999
-2985
-2989
-2982
-2950
-2899
-2849
-2805
-2767
-2742
-2750
-2800
-2873
-2928
-2935
-2899
-2853
-2828
-2820
-2798
-2726
-2601
-2455
-2324
-2210
-2076
-1891
-1661
-1427
-1219
-1040
-875
-710
-548
-400
-281
-194
-132
-75
4
120
267
423
569
698
823
960
1116
1274
1401
1481
1547
1636
1744
1817
1822
1805
1854
2003
2188
2319
2395
2499
2693
2927
3087
3131
3134
3197
3331
3456
3510
3535
3630
3831
4063
4233
4326
4400
4504
4619
4705
4770
4863
4997
5136
5255
5379
5556
5777
5977
6113
6206
6284
6316
6251
6121
6066
6212
6554
6972
7375
7772
8214
8686
9098
9376
9522
9592
9626
9624
9577
9498
9423
9389
9416
9490
9557
9559
9474
9342
9232
9181
9187
9235
9312
9396
9489
9610
9777
9972
10128
10186
10161
10132
10169
10273
10385
10475
10580
10722
10868
10961
10981
10961
10959
10988
11023
11048
11073
11101
11120
11116
11104
11104
11100
11040
10905
10742
10632
10581
10525
10407
10263
10186
10233
10368
10492
10551
10580
10654
10809
11013
11191
11306
11382
11469
11614
11802
11971
12073
12110
12111
12097
12084
12069
12039
11987
11916
11845
11788
11735
11652
11512
11328
11135
10944
10749
10547
10356
10192
10046
9889
9718
9565
9451
9359
9244
9079
8877
8676
8504
8367
8248
8123
7973
7793
7599
7399
7192
6968
6727
6486
6261
6064
5899
5775
5698
5652
5603
5516
5386
5233
5091
4977
4886
4799
4707
4606
4509
4431
4372
4311
4238
4156
4075
3987
3886
3789
3741
3763
3825
3868
3870
3860
3873
3896
3887
3835
3781
3764
3760
3724
3650
3593
3588
3606
3580
3489
3381
3306
3248
3154
3007
2854
2750
2694
2632
2519
2366
2215
2094
1986
1846
1649
1424
1225
1081
969
835
658
476
345
277
223
130
-10
-159
-285
-388
-476
-553
-621
-695
-782
-870
-932
-972
-1022
-1099
-1181
-1247
-1314
-1405
-1519
-1616
-1662
-1670
-1686
-1735
-1798
-1849
-1877
-1890
-1892
-1886
-1884
-1904
-1962
-2032
-2064
-2018
-1920
-1849
-1873
-1967
-2019
-1956
-1823
-1749
-1793
-1886
-1915
-1849
-1765
-1726
-1723
-1716
-1715
-1768
-1892
-2031
-2116
-2143
-2171
-2237
-2347
-2480
-2594
-2656
-2675
-2722
-2899
-3243
-3660
-3987
-4110
-4043
-3883
-3693
-3453
-3124
-2727
-2373
-2168
-2115
-2101
-2039
-1981
-2060
-2320
-2585
-2631
-2437
-2231
-2247
-2457
-2624
-2581
-2431
-2412
-2597
-2855
-3021
-3083
-3146
-3253
-3360
-3430
-3515
-3665
-3825
-3901
-3920
-3985
-4152
-4331
-4387
-4340
-4349
-4524
-4788
-4974
-5024
-5042
-5148
-5336
-5497
-5571
-5614
-5726
-5921
-6126
-6259
-6296
-6307
-6372
-6517
-6688
-6810
-6885
-7004
-7259
-7615
-7908
-8025
-8024
-8097
-8358
-8712
-8965
-9078
-9188
-9418
-9739
-9996
-10121
-10225
-10442
-10746
-10970
-10991
-10898
-10899
-11084
-11320
-11397
-11247
-11016
-10917
-11012
-11192
-11288
-11228
-11095
-11019
-11078
-11224
-11358
-11409
-11377
-11306
-11243
-11208
-11199
-11195
-11182
-11123
-11014
-10894
-10816
-10792
-10759
-10647
-10465
-10300
-10224
-10222
-10193
-10071
-9882
-9701
-9556
-9436
-9311
-9190
-9072
-8935
-8762
-8581
-8455
-8400
-8350
-8192
-7929
-7712
-7638
-7639
-7564
-7343
-7086
-6915
-6810
-6641
-6373
-6121
-5983
-5871
-5609
-5194
-4861
-4793
-4891
-4886
-4638
-4309
-4135
-4149
-4163
-4027
-3786
-3600
-3523
-3470
-3355
-3202
-3086
-3039
-3009
-2917
-2761
-2612
-2526
-2546
-2632
-2673
-2598
-2431
-2288
-2282
-2401
-2501
-2462
-2321
-2239
-2309
-2458
-2541
-2546
-2600
-2753
-2886
-2844
-2662
-2542
-2599
-2733
-2763
-2662
-2599
-2696
-2867
-2949
-2913
-2874
-2903
-2920
-2803
-2570
-2375
-2307
-2299
-2230
-2096
-1986
-1962
-1996
-2015
-2005
-1983
-1941
-1860
-1765
-1705
-1694
-1672
-1551
-1376
-1275
-1295
-1306
-1148
-861
-653
-657
-746
-645
-282
81
170
35
7
310
789
1106
1131
1068
1175
1476
1780
1940
1984
2018
2077
2132
2193
2329
2553
2770
2883
2918
2988
3137
3273
3272
3110
2888
2711
2655
2774
3092
3546
3994
4322
4571
4891
5327
5739
5943
5901
5760
5692
5762
5930
6145
6373
6578
6740
6880
7032
7203
7326
7327
7214
7089
7056
7147
7311
7461
7564
7634
7710
7808
7883
7912
7916
7957
8074
8225
8368
8504
8658
8822
8962
9082
9225
9412
9599
9746
9882
10061
10254
10379
10425
10495
10671
10905
11066
11130
11216
11413
11650
11797
11847
11922
12103
12320
12431
12422
12414
12511
12687
12843
12924
12958
13006
13086
13191
13290
13345
13328
13267
13234
13276
13355
13379
13324
13261
13272
13347
13387
13327
13230
13197
13238
13252
13153
12969
12825
12795
12842
12872
12833
12746
12659
12611
12625
12693
12760
12742
12602
12412
12289
12278
12308
12277
12171
12066
12030
12048
12049
12003
11954
11955
12007
12068
12101
12119
12162
12257
12402
12573
12732
12843
12903
12922
12917
12883
12804
12667
12485
12297
12139
12027
11956
11904
11848
11789
11728
11645
11529
11384
11233
11092
10953
10793
10602
10381
10119
9800
9448
9121
8831
8507
8060
7507
6972
6565
6271
5985
5630
5220
4788
4342
3909
3559
3352
3219
3018
2726
2523
2599
2919
3220
3273
3113
2964
2943
2968
2903
2733
2534
2325
2030
1601
1113
702
391
57
-430
-1054
-1671
-2157
-2532
-2936
-3492
-4187
-4898
-5542
-6153
-6817
-7563
-8308
-8950
-9476
-9940
-10367
-10716
-10954
-11139
-11373
-11680
-11989
-12226
-12400
-12568
-12738
-12861
-12929
-13011
-13175
-13394
-13574
-13678
-13782
-13984
-14287
-14596
-14824
-14981
-15124
-15266
-15364
-15389
-15389
-15427
-15493
-15508
-15426
-15308
-15258
-15290
-15306
-15221
-15062
-14932
-14881
-14849
-14759
-14622
-14533
-14547
-14625
-14700
-14759
-14819
-14859
-14786
-14515
-14057
-13521
-13017
-12587
-12212
-11871
-11577
-11364
-11258
-11265
-11363
-11486
-11546
-11496
-11377
-11282
-11262
-11287
-11299
-11283
-11287
-11347
-11446
-11526
-11549
-11533
-11517
-11504
-11454
-11340
-11200
-11112
-11130
-11246
-11372
-11426
-11393
-11324
-11296
-11344
-11443
-11526
-11536
-11472
-11394
-11379
-11436
-11493
-11472
-11375
-11291
-11310
-11419
-11510
-11487
-11353
-11200
-11103
-11059
-11024
-10978
-10950
-10970
-11019
-11042
-11001
-10909
-10826
-10802
-10829
-10842
-10785
-10665
-10547
-10507
-10555
-10615
-10592
-10461
-10295
-10178
-10115
-10028
-9871
-9704
-9631
-9670
-9714
-9655
-9508
-9386
-9341
-9297
-9140
-8875
-8633
-8497
-8420
-8298
-8114
-7953
-7868
-7807
-7691
-7525
-7377
-7265
-7116
-6881
-6630
-6480
-6428
-6346
-6149
-5918
-5796
-5798
-5771
-5577
-5254
-4966
-4805
-4703
-4543
-4296
-4030
-3819
-3672
-3555
-3440
-3314
-3173
-3006
-2823
-2643
-2469
-2304
-2157
-2041
-1955
-1888
-1831
-1799
-1807
-1842
-1867
-1855
-1816
-1782
-1769
-1774
-1786
-1794
-1803
-1834
-1903
-2007
-2107
-2153
-2141
-2123
-2171
-2300
-2442
-2508
-2474
-2402
-2374
-2409
-2456
-2449
-2369
-2265
-2188
-2142
-2095
-2024
-1956
-1920
-1898
-1825
-1666
-1462
-1293
-1197
-1133
-1035
-886
-730
-616
-540
-463
-373
-277
-183
-88
21
147
282
432
597
770
936
1104
1295
1515
1730
1882
1952
1969
1972
1961
1910
1802
1653
1495
1351
1229
1120
981
762
471
188
-7
-128
-280
-535
-849
-1121
-1318
-1514
-1770
-2057
-2307
-2526
-2772
-3076
-3385
-3642
-3864
-4113
-4398
-4653
-4817
-4907
-4989
-5079
-5126
-5078
-4943
-4782
-4649
-4550
-4459
-4352
-4231
-4123
-4051
-4011
-3961
-3865
-3729
-3601
-3511
-3438
-3327
-3146
-2929
-2741
-2612
-2514
-2370
-2137
-1846
-1583
-1411
-1318
-1244
-1159
-1107
-1151
-1294
-1441
-1476
-1346
-1078
-731
-328
131
627
1104
1510
1844
2138
2401
2591
2670
2675
2714
2871
3133
3406
3610
3735
3830
3940
4076
4222
4359
4471
4561
4656
4797
5000
5240
5472
5665
5824
5962
6081
6187
6298
6446
6648
6883
7108
7296
7446
7576
7704
7844
7995
8145
8275
8378
8472
8578
8705
8835
8948
9045
9138
9233
9311
9353
9354
9321
9264
9191
9121
9072
9042
9008
8945
8864
8805
8798
8821
8808
8709
8545
8392
8295
8225
8107
7918
7730
7648
7697
7800
7856
7834
7782
7752
7749
7748
7738
7721
7696
7661
7637
7662
7738
7818
7849
7821
7772
7726
7662
7561
7451
7391
7398
7425
7418
7392
7404
7459
7483
7409
7259
7124
7050
6992
6900
6828
6882
7074
7282
7389
7420
7509
7721
7968
8128
8190
8258
8411
8619
8795
8907
8989
9069
9139
9183
9219
9280
9376
9474
9542
9586
9650
9777
9959
10140
10263
10330
10399
10513
10651
10762
10841
10932
11060
11201
11323
11434
11566
11713
11838
11950
12115
12364
12615
12753
12772
12796
12918
13080
13157
13128
13108
13201
13344
13393
13334
13317
13450
13637
13714
13643
13544
13537
13583
13587
13563
13615
13744
13809
13700
13508
13422
13493
13557
13419
13072
12694
12431
12271
12109
11882
11633
11455
11408
11476
11579
11649
11696
11793
11970
12155
12246
12207
12106
12025
11965
11868
11737
11637
11590
11549
11472
11404
11430
11559
11693
11733
11691
11661
11690
11720
11662
11509
11334
11205
11107
10976
10795
10615
10475
10346
10164
9909
9631
9396
9218
9061
8878
8644
8366
8065
7758
7468
7176
6828
6401
5928
5452
4959
4390
3748
3149
2734
2521
2405
2318
2297
2389
2516
2539
2431
2307
2241
2133
1845
1440
1165
1142
1209
1119
855
645
635
687
557
211
-179
-446
-606
-805
-1079
-1303
-1358
-1291
-1283
-1468
-1777
-2000
-2013
-1927
-1953
-2137
-2295
-2251
-2108
-2147
-2473
-2867
-3063
-3094
-3216
-3539
-3861
-3949
-3857
-3846
-4039
-4275
-4367
-4345
-4383
-4549
-4731
-4818
-4865
-4995
-5202
-5377
-5462
-5521
-5643
-5840
-6047
-6233
-6417
-6596
-6737
-6826
-6901
-7040
-7274
-7544
-7787
-7997
-8217
-8467
-8719
-8940
-9121
-9286
-9451
-9611
-9750
-9859
-9953
-10053
-10185
-10357
-10533
-10650
-10683
-10696
-10820
-11072
-11296
-11316
-11137
-10994
-11120
-11488
-11827
-11899
-11768
-11726
-11966
-12384
-12689
-12716
-12595
-12595
-12817
-13082
-13175
-13095
-13061
-13271
-13637
-13881
-13870
-13797
-13941
-14314
-14604
-14525
-14182
-13987
-14161
-14475
-14550
-14320
-14131
-14304
-14686
-14848
-14626
-14342
-14400
-14722
-14853
-14540
-14085
-13969
-14235
-14430
-14204
-13789
-13666
-13932
-14182
-14012
-13572
-13343
-13482
-13686
-13612
-13324
-13140
-13189
-13241
-13083
-12838
-12769
-12881
-12871
-12533
-12063
-11869
-12080
-12357
-12287
-11856
-11454
-11426
-11711
-11968
-11933
-11644
-11335
-11169
-11121
-11088
-11000
-10852
-10679
-10504
-10325
-10151
-9966
-9777
-9651
-9618
-9627
-9568
-9381
-9146
-9036
-9130
-9294
-9310
-9065
-8700
-8459
-8439
-8542
-8589
-8479
-8264
-8076
-8027
-8144
-8333
-8413
-8249
-7894
-7592
-7575
-7819
-8033
-7958
-7643
-7378
-7375
-7539
-7598
-7438
-7186
-7020
-6945
-6838
-6655
-6505
-6466
-6443
-6249
-5873
-5535
-5425
-5448
-5324
-4939
-4486
-4209
-4139
-4066
-3810
-3450
-3175
-3051
-2953
-2744
-2475
-2316
-2323
-2364
-2251
-1968
-1704
-1653
-1776
-1849
-1736
-1527
-1417
-1462
-1552
-1585
-1587
-1613
-1641
-1632
-1668
-1899
-2317
-2688
-2741
-2459
-2069
-1761
-1537
-1263
-900
-533
-232
8
200
294
249
141
99
159
283
425
587
756
853
822
732
748
933
1132
1157
1029
996
1230
1601
1819
1757
1604
1610
1798
1956
1924
1820
1873
2131
2412
2512
2455
2420
2512
2650
2712
2688
2660
2652
2590
2478
2412
2465
2583
2620
2546
2499
2620
2868
3031
2997
2856
2792
2880
3057
3205
3257
3249
3264
3368
3541
3680
3702
3617
3522
3502
3526
3541
3569
3670
3835
3952
3939
3872
3915
4086
4227
4173
3968
3836
3904
4084
4202
4188
4142
4166
4259
4337
4360
4380
4440
4491
4459
4349
4267
4309
4465
4611
4644
4577
4541
4658
4919
5193
5349
5365
5343
5383
5515
5680
5799
5841
5847
5899
6036
6214
6338
6375
6409
6536
6728
6827
6758
6651
6727
7034
7372
7521
7490
7497
7689
7972
8147
8151
8117
8177
8300
8355
8306
8263
8343
8524
8679
8721
8703
8730
8842
8982
9066
9087
9118
9214
9378
9569
9751
9920
10101
10312
10537
10744
10923
11106
11350
11668
11997
12250
12405
12545
12765
13062
13346
13535
13654
13797
14018
14279
14514
14711
14914
15150
15393
15597
15746
15867
15991
16121
16240
16329
16398
16462
16539
16641
16756
16856
16937
17012
17099
17186
17249
17289
17347
17448
17567
17645
17654
17633
17644
17698
17761
17801
17820
17833
17844
17846
17835
17819
17804
17783
17747
17696
17622
17506
17335
17129
16922
16741
16565
16362
16130
15899
15689
15488
15272
15031
14797
14596
14434
14281
14105
13898
13705
13589
13567
13584
13557
13456
13329
13222
13093
12847
12461
12055
11790
11714
11748
11806
11912
12144
12506
12882
13137
13239
13253
13234
13156
12990
12788
12662
12655
12680
12625
12477
12328
12245
12152
11915
11507
11062
10716
10463
10184
9821
9463
9223
9078
8895
8580
8178
7799
7499
7246
6997
6737
6473
6222
6006
5840
5698
5520
5283
5050
4914
4877
4859
4809
4777
4826
4922
4962
4909
4838
4825
4818
4711
4485
4246
4081
3951
3765
3515
3261
3022
2747
2418
2106
1882
1678
1346
840
285
-168
-522
-936
-1534
-2290
-3075
-3803
-4488
-5194
-5953
-6754
-7555
-8306
-8976
-9571
-10140
-10733
-11368
-12049
-12760
-13482
-14189
-14863
-15524
-16214
-16947
-17688
-18378
-19003
-19605
-20221
-20830
-21377
-21834
-22236
-22648
-23087
-23508
-23849
-24084
-24237
-24341
-24413
-24445
-24436
-24400
-24357
-24296
-24189
-24035
-23883
-23805
-23805
-23794
-23681
-23465
-23251
-23119
-23035
-22892
-22645
-22372
-22168
-22026
-21855
-21599
-21311
-21083
-20932
-20776
-20536
-20212
-19885
-19638
-19501
-19443
-19401
-19324
-19212
-19101
-19035
-19006
-18972
-18895
-18770
-18615
-18457
-18336
-18278
-18259
-18222
-18128
-18002
-17923
-17911
-17899
-17819
-17678
-17541
-17426
-17295
-17121
-16954
-16867
-16855
-16821
-16683
-16475
-16301
-16224
-16194
-16112
-15937
-15717
-15524
-15370
-15223
-15053
-14880
-14735
-14618
-14493
-14336
-14169
-14030
-13924
-13819
-13674
-13500
-13346
-13230
-13132
-13034
-12936
-12860
-12815
-12779
-12712
-12599
-12460
-12334
-12235
-12155
-12065
-11950
-11829
-11732
-11658
-11573
-11448
-11295
-11157
-11052
-10949
-10814
-10651
-10502
-10384
-10274
-10139
-9980
-9824
-9680
-9523
-9329
-9112
-8907
-8737
-8585
-8427
-8265
-8124
-8014
-7919
-7825
-7724
-7616
-7501
-7375
-7242
-7110
-6982
-6848
-6699
-6538
-6380
-6234
-6099
-5966
-5832
-5698
-5566
-5438
-5332
-5289
-5343
-5469
-5565
-5524
-5321
-5024
-4704
-4363
-3954
-3480
-3020
-2655
-2382
-2142
-1920
-1773
-1749
-1800
-1815
-1734
-1597
-1480
-1407
-1356
-1319
-1312
-1334
-1346
-1310
-1239
-1185
-1169
-1149
-1072
-938
-805
-729
-718
-735
-752
-763
-764
-742
-678
-570
-449
-359
-320
-311
-282
-199
-68
72
197
318
473
680
911
1122
1296
1452
1619
1792
1950
2096
2251
2424
2590
2711
2793
2884
3027
3205
3355
3426
3422
3400
3418
3492
3587
3642
3626
3567
3528
3538
3564
3554
3493
3428
3410
3443
3483
3486
3458
3435
3442
3463
3465
3430
3371
3322
3299
3291
3270
3217
3132
3031
2925
2812
2686
2550
2417
2302
2206
2118
2023
1924
1827
1734
1635
1527
1428
1360
1319
1280
1227
1182
1182
1235
1311
1378
1435
1505
1598
1696
1773
1833
1895
1973
2066
2163
2248
2306
2331
2339
2355
2396
2449
2491
2510
2521
2539
2568
2602
2642
2692
2748
2794
2812
2806
2797
2803
2826
2861
2904
2953
3000
3030
3045
3067
3124
3210
3288
3324
3332
3352
3407
3480
3546
3601
3669
3755
3833
3877
3903
3961
4073
4198
4280
4317
4362
4452
4567
4657
4713
4780
4897
5047
5192
5326
5482
5677
5877
6042
6175
6323
6515
6727
6924
7098
7272
7468
7690
7930
8187
8454
8715
8958
9196
9452
9730
10011
10281
10552
10836
11118
11364
11565
11751
11957
12183
12396
12573
12728
12890
13072
13259
13433
13597
13754
13891
13993
14068
14153
14275
14426
14572
14693
14801
14920
15049
15156
15211
15213
15189
15165
15152
15146
15147
15150
15149
15137
15117
15099
15097
15113
15134
15147
15148
15150
15165
15188
15201
15194
15167
15127
15073
15000
14909
14811
14706
14580
14409
14190
13944
13704
13498
13357
13315
13395
13586
13827
14038
14166
14226
14277
14353
14406
14342
14122
13824
13581
13462
13406
13317
13166
13006
12883
12765
12588
12352
12127
11978
11900
11846
11794
11765
11772
11774
11724
11623
11517
11430
11315
11128
10906
10749
10696
10662
10531
10308
10128
10093
10138
10131
10043
9981
10037
10151
10177
10078
9964
9944
10003
10039
10014
10006
10097
10266
10424
10514
10557
10596
10623
10597
10505
10388
10303
10267
10259
10250
10238
10246
10295
10383
10486
10580
10649
10685
10691
10684
10682
10691
10705
10712
10704
10683
10657
10633
10615
10596
10576
10567
10583
10606
10604
10566
10525
10518
10534
10521
10456
10380
10348
10353
10330
10244
10133
10061
10034
10005
9950
9903
9920
10012
10135
10243
10327
10410
10516
10639
10757
10847
10918
11002
11123
11265
11387
11482
11591
11762
11994
12243
12471
12681
12886
13077
13238
13381
13521
13643
13717
13746
13776
13837
13901
13913
13873
13833
13836
13853
13823
13729
13609
13492
13363
13191
12982
12775
12600
12448
12288
12105
11916
11747
11611
11503
11402
11275
11101
10875
10612
10331
10034
9717
9376
9015
8661
8367
8188
8132
8138
8113
8017
7907
7867
7906
7934
7848
7641
7406
7249
7200
7200
7165
7071
6960
6889
6875
6881
6858
6806
6758
6720
6656
6538
6401
6319
6308
6292
6186
5990
5801
5692
5642
5575
5462
5337
5243
5186
5144
5116
5110
5112
5094
5059
5032
5030
5030
5005
4947
4878
4814
4745
4657
4555
4469
4407
4331
4188
3976
3766
3630
3553
3433
3199
2904
2672
2564
2498
2353
2108
1844
1629
1438
1216
949
685
438
179
-116
-439
-785
-1196
-1706
-2270
-2771
-3119
-3341
-3499
-3620
-3684
-3691
-3686
-3716
-3814
-4006
-4330
-4781
-5282
-5752
-6186
-6639
-7116
-7513
-7754
-7908
-8152
-8570
-9052
-9427
-9681
-9979
-10459
-11064
-11590
-11904
-12078
-12281
-12615
-13030
-13411
-13702
-13933
-14162
-14395
-14604
-14761
-14884
-15017
-15192
-15406
-15637
-15877
-16134
-16419
-16737
-17064
-17348
-17546
-17658
-17742
-17848
-17958
-18007
-17969
-17913
-17917
-17961
-17945
-17846
-17786
-17888
-18080
-18153
-18014
-17821
-17792
-17926
-18019
-17941
-17781
-17697
-17687
-17623
-17481
-17414
-17524
-17674
-17643
-17412
-17201
-17191
-17296
-17286
-17083
-16815
-16618
-16490
-16350
-16186
-16061
-15985
-15875
-15681
-15461
-15315
-15252
-15184
-15050
-14880
-14729
-14610
-14487
-14340
-14194
-14068
-13958
-13848
-13738
-13634
-13532
-13423
-13297
-13144
-12967
-12759
-12534
-12315
-12110
-11913
-11705
-11471
-11200
-10887
-10541
-10193
-9863
-9532
-9170
-8788
-8445
-8172
-7923
-7627
-7273
-6929
-6659
-6439
-6190
-5878
-5542
-5233
-4964
-4712
-4464
-4220
-3962
-3670
-3359
-3076
-2850
-2625
-2348
-2028
-1757
-1580
-1440
-1232
-938
-648
-458
-360
-263
-94
132
342
473
512
495
490
562
731
919
1001
923
780
739
867
1054
1126
1028
877
837
949
1101
1160
1112
1052
1071
1176
1306
1408
1469
1535
1632
1737
1807
1834
1867
1956
2088
2199
2257
2303
2410
2572
2696
2725
2716
2783
2943
3076
3073
2996
3010
3161
3297
3240
3014
2843
2908
3143
3328
3339
3272
3311
3507
3737
3858
3847
3783
3750
3774
3838
3912
3984
4057
4135
4235
4355
4476
4567
4618
4650
4673
4694
4728
4784
4868
4956
5022
5080
5163
5264
5323
5310
5282
5344
5524
5724
5814
5780
5732
5779
5924
6075
6159
6186
6214
6281
6375
6453
6446
6296
6013
5709
5532
5559
5744
5998
6287
6654
7133
7676
8186
8586
8875
9081
9214
9272
9276
9285
9353
9490
9657
9808
9933
10056
10190
10323
10432
10514
10582
10652
10731
10827
10966
11161
11394
11608
11761
11860
11952
12079
12241
12399
12510
12563
12590
12626
12680
12731
12760
12775
12807
12880
12991
13117
13237
13326
13368
13365
13347
13355
13411
13496
13579
13650
13719
13791
13854
13899
13934
13963
13972
13932
13840
13730
13634
13568
13522
13489
13463
13434
13390
13331
13283
13262
13246
13186
13072
12948
12857
12784
12683
12550
12445
12414
12407
12320
12126
11921
11815
11798
11741
11559
11320
11161
11128
11134
11077
10960
10865
10830
10802
10723
10608
10512
10448
10371
10271
10199
10195
10213
10155
9996
9835
9776
9787
9745
9594
9417
9336
9352
9330
9179
8957
8809
8805
8880
8929
8932
8934
8961
8985
8977
8943
8894
8798
8602
8310
8004
7762
7584
7404
7174
6921
6702
6532
6364
6150
5893
5629
5368
5080
4739
4369
4016
3705
3407
3076
2712
2342
1987
1632
1253
855
454
30
-466
-1059
-1695
-2282
-2779
-3234
-3724
-4262
-4791
-5270
-5720
-6219
-6826
-7549
-8358
-9210
-10065
-10897
-11714
-12527
-13337
-14111
-14828
-15497
-16146
-16779
-17376
-17941
-18515
-19131
-19761
-20341
-20853
-21344
-21865
-22403
-22888
-23283
-23622
-23957
-24297
-24610
-24865
-25060
-25205
-25308
-25378
-25448
-25537
-25639
-25735
-25833
-25969
-26165
-26396
-26612
-26803
-26998
-27226
-27454
-27617
-27683
-27697
-27744
-27843
-27935
-27958
-27917
-27885
-27917
-27985
-28017
-27982
-27932
-27931
-27972
-27995
-27969
-27933
-27952
-28025
-28078
-28032
-27892
-27736
-27622
-27527
-27373
-27116
-26798
-26500
-26276
-26099
-25919
-25716
-25517
-25358
-25232
-25083
-24854
-24510
-24033
-23416
-22673
-21877
-21142
-20548
-20088
-19683
-19277
-18900
-18633
-18513
-18478
-18411
-18232
-17952
-17639
-17361
-17146
-16977
-16813
-16629
-16430
-16247
-16104
-15993
-15883
-15748
-15586
-15411
-15235
-15069
-14931
-14835
-14768
-14682
-14522
-14281
-14007
-13758
-13563
-13404
-13243
-13065
-12885
-12725
-12580
-12428
-12257
-12081
-11920
-11775
-11623
-11454
-11293
-11182
-11126
-11085
-11014
-10916
-10840
-10819
-10834
-10832
-10790
-10737
-10718
-10728
-10715
-10643
-10535
-10448
-10403
-10367
-10297
-10198
-10107
-10042
-9977
-9877
-9747
-9631
-9559
-9517
-9467
-9377
-9242
-9069
-8869
-8659
-8454
-8258
-8050
-7810
-7540
-7269
-7025
-6808
-6587
-6325
-6008
-5647
-5267
-4904
-4594
-4354
-4168
-4010
-3864
-3742
-3659
-3601
-3526
-3408
-3261
-3111
-2958
-2771
-2537
-2290
-2082
-1927
-1790
-1623
-1414
-1184
-950
-711
-458
-198
44
252
432
612
807
1002
1172
1306
1421
1536
1656
1768
1866
1955
2040
2108
2149
2176
2219
2279
2334
2365
2386
2432
2506
2575
2605
2604
2608
2637
2678
2711
2741
2793
2876
2966
3030
3061
3087
3136
3200
3234
3211
3153
3105
