-1371
-1311
-1334
-1413
-1357
-1027
-524
-120
23
-10
-25
20
-14
-270
-712
-1167
-1488
-1647
-1696
-1670
-1568
-1397
-1199
-1024
-894
-797
-708
-625
-564
-543
-543
-517
-422
-271
-111
23
123
193
229
226
209
221
280
365
434
465
459
418
351
276
230
235
271
290
268
226
208
224
237
204
126
55
33
48
53
22
-19
-30
-2
34
51
59
85
129
155
134
89
77
123
192
223
203
178
200
266
340
426
595
909
1323
1688
1872
1868
1765
1614
1376
984
459
-81
-510
-777
-895
-880
-739
-507
-263
-81
28
104
175
209
161
52
-40
-51
11
83
122
144
180
212
176
29
-179
-317
-260
22
444
884
1277
1657
2079
2529
2899
3067
3000
2760
2427
2032
1568
1057
567
178
-77
-208
-244
-217
-165
-126
-125
-151
-192
-252
-334
-411
-438
-399
-318
-243
-194
-158
-123
-107
-142
-231
-340
-436
-514
-584
-639
-651
-611
-540
-480
-445
-420
-391
-365
-368
-407
-458
-491
-494
-485
-492
-526
-565
-577
-558
-540
-566
-641
-719
-749
-737
-729
-761
-816
-856
-877
-915
-991
-1077
-1130
-1149
-1177
-1244
-1323
-1360
-1343
-1313
-1315
-1348
-1367
-1347
-1308
-1295
-1326
-1357
-1331
-1226
-1081
-955
-875
-821
-767
-707
-656
-614
-570
-535
-530
-557
-570
-515
-393
-257
-152
-72
11
95
152
178
207
270
341
368
345
323
342
386
410
391
351
319
298
270
215
137
57
-5
-51
-110
-214
-354
-485
-566
-605
-642
-687
-714
-707
-699
-738
-821
-877
-850
-756
-653
-564
-455
-287
-78
112
234
286
298
288
251
181
80
-41
-171
-297
-405
-492
-566
-634
-703
-770
-826
-856
-848
-803
-732
-650
-572
-505
-451
-403
-357
-310
-267
-237
-223
-216
-196
-147
-74
-7
32
45
48
65
113
199
327
469
582
631
619
580
555
589
730
1013
1409
1824
2182
2514
2905
3351
3691
3737
3466
3044
2646
2293
1889
1396
912
579
431
392
389
414
493
605
681
673
591
487
415
387
381
354
287
199
140
138
166
183
175
168
182
192
160
89
26
7
13
-13
-86
-164
-188
-156
-126
-150
-224
-298
-332
-341
-369
-435
-513
-561
-560
-540
-545
-590
-638
-643
-596
-537
-519
-562
-650
-740
-797
-806
-786
-780
-836
-949
-1061
-1108
-1077
-1031
-1034
-1092
-1153
-1174
-1157
-1134
-1119
-1099
-1060
-1002
-922
-809
-665
-516
-386
-270
-146
-11
118
244
423
697
1032
1324
1479
1495
1435
1344
1213
1009
721
381
36
-260
-450
-498
-417
-280
-179
-154
-173
-176
-139
-103
-134
-254
-404
-497
-489
-409
-333
-299
-290
-270
-241
-238
-281
-345
-389
-402
-417
-468
-547
-620
-663
-683
-690
-682
-661
-654
-688
-748
-778
-746
-687
-673
-717
-761
-746
-700
-727
-893
-1147
-1378
-1508
-1549
-1567
-1572
-1506
-1305
-972
-585
-225
70
298
451
513
477
372
233
86
-51
-156
-197
-169
-94
12
143
287
375
340
202
87
76
109
66
-78
-202
-189
-77
-30
-160
-428
-689
-816
-743
-457
-16
443
793
1038
1330
1805
2379
2762
2690
2192
1570
1138
944
766
393
-142
-579
-696
-530
-315
-242
-301
-392
-455
-506
-561
-563
-452
-248
-56
45
50
9
-19
-6
7
-59
-258
-541
-757
-806
-730
-676
-721
-796
-785
-659
-507
-456
-547
-713
-837
-840
-757
-696
-714
-741
-654
-449
-259
-213
-251
-180
69
298
237
-137
-569
-811
-882
-1010
-1340
-1758
-2036
-2054
-1891
-1704
-1611
-1634
-1716
-1763
-1701
-1559
-1468
-1527
-1665
-1702
-1553
-1332
-1229
-1290
-1372
-1325
-1147
-963
-843
-736
-548
-258
77
408
718
989
1185
1292
1347
1421
1563
1770
2007
2240
2424
2539
2594
2647
2750
2892
3013
3045
2979
2852
2725
2646
2636
2675
2712
2702
2628
2501
2356
2248
2239
2340
2469
2484
2321
2080
1946
1993
2103
2079
1863
1601
1481
1541
1668
1719
1649
1520
1405
1330
1289
1257
1190
1046
841
664
606
653
692
630
502
420
423
424
327
163
58
78
150
167
122
92
107
82
-55
-249
-374
-409
-493
-747
-1105
-1376
-1463
-1463
-1552
-1783
-2064
-2289
-2435
-2513
-2521
-2493
-2537
-2746
-3080
-3347
-3396
-3292
-3251
-3406
-3654
-3802
-3780
-3690
-3631
-3548
-3297
-2845
-2319
-1842
-1373
-765
9
776
1314
1565
1662
1741
1770
1606
1189
641
170
-106
-214
-253
-285
-303
-289
-255
-255
-316
-423
-546
-676
-831
-1016
-1191
-1289
-1281
-1215
-1182
-1242
-1379
-1521
-1622
-1692
-1779
-1898
-2014
-2084
-2099
-2078
-2011
-1878
-1698
-1559
-1552
-1653
-1718
-1653
-1529
-1493
-1586
-1672
-1610
-1430
-1292
-1298
-1372
-1365
-1237
-1082
-1012
-1038
-1089
-1103
-1078
-1035
-980
-925
-895
-916
-986
-1070
-1146
-1215
-1288
-1359
-1407
-1432
-1449
-1452
-1417
-1343
-1279
-1287
-1361
-1409
-1352
-1211
-1102
-1097
-1150
-1134
-983
-755
-569
-485
-463
-408
-260
-52
101
96
-44
-161
-92
117
220
50
-251
-334
-40
389
565
401
209
300
624
828
685
333
66
11
49
17
-124
-321
-559
-835
-1088
-1213
-1204
-1187
-1288
-1451
-1472
-1205
-748
-372
-235
-231
-130
146
444
559
509
581
1009
1636
1997
1810
1360
1231
1677
2294
2467
2106
1786
2081
2870
3465
3409
2938
2604
2608
2672
2551
2368
2386
2575
2628
2397
2066
1854
1727
1527
1279
1196
1371
1588
1560
1296
1120
1272
1615
1762
1423
699
18
-208
42
362
281
-290
-976
-1327
-1250
-1030
-993
-1241
-1681
-2180
-2561
-2576
-2084
-1291
-709
-643
-835
-718
-69
736
1113
895
417
86
-53
-265
-727
-1298
-1667
-1702
-1586
-1580
-1697
-1709
-1466
-1162
-1157
-1509
-1808
-1644
-1161
-962
-1389
-2006
-2000
-1140
-130
100
-634
-1604
-1949
-1472
-709
-317
-465
-821
-965
-757
-418
-282
-448
-652
-544
-116
261
287
175
424
1144
1771
1612
685
-188
-215
516
1143
937
-6
-924
-1141
-621
120
480
196
-474
-935
-688
193
1033
1077
203
-915
-1359
-837
-11
90
-931
-2384
-3106
-2556
-1353
-622
-870
-1550
-1767
-1267
-610
-457
-893
-1487
-1801
-1703
-1300
-817
-517
-592
-936
-1155
-969
-540
-298
-444
-739
-814
-556
-115
348
774
1065
1031
619
83
-221
-216
-206
-511
-1055
-1371
-1028
-44
1058
1636
1464
899
510
499
507
70
-773
-1432
-1366
-658
102
471
551
697
957
979
479
-342
-970
-1128
-1040
-1082
-1299
-1342
-924
-218
292
306
-24
-307
-338
-267
-369
-686
-945
-822
-313
199
303
31
-124
246
937
1264
799
-126
-762
-750
-457
-469
-874
-1214
-1081
-581
-131
53
98
185
268
183
-50
-194
-87
146
207
-42
-411
-565
-360
32
273
177
-152
-439
-495
-359
-220
-224
-364
-524
-597
-554
-424
-220
98
590
1254
1960
2493
2698
2600
2367
2127
1832
1335
587
-215
-753
-855
-638
-398
-331
-390
-404
-296
-149
-102
-193
-330
-407
-429
-487
-621
-757
-785
-694
-610
-669
-870
-1066
-1120
-1045
-970
-980
-1036
-1050
-1002
-960
-988
-1066
-1119
-1108
-1053
-1008
-995
-993
-971
-920
-866
-831
-817
-809
-793
-756
-708
-677
-695
-761
-842
-895
-907
-903
-921
-982
-1071
-1162
-1233
-1277
-1299
-1314
-1348
-1413
-1488
-1537
-1551
-1553
-1579
-1632
-1673
-1674
-1644
-1608
-1573
-1518
-1418
-1288
-1172
-1093
-1031
-941
-820
-723
-690
-690
-640
-499
-339
-282
-363
-464
-443
-291
-136
-110
-195
-254
-184
-12
139
201
216
249
284
254
158
99
166
300
344
236
88
57
149
227
197
138
187
335
427
353
178
53
10
-56
-230
-461
-624
-663
-628
-594
-572
-529
-449
-361
-310
-304
-332
-390
-485
-622
-757
-825
-819
-791
-799
-821
-787
-697
-644
-699
-797
-820
-763
-729
-765
-722
-378
292
1022
1465
1499
1279
1071
1012
1066
1116
1065
896
654
390
139
-126
-495
-1087
-1959
-3019
-4027
-4733
-5043
-5040
-4894
-4692
-4392
-3939
-3367
-2798
-2360
-2134
-2152
-2351
-2574
-2604
-2332
-1853
-1362
-951
-514
91
836
1488
1817
1820
1731
1796
2054
2351
2531
2581
2581
2571
2524
2428
2332
2281
2217
2013
1636
1221
951
877
907
950
1015
1154
1328
1414
1323
1103
859
620
321
-84
-519
-862
-1059
-1166
-1255
-1344
-1406
-1431
-1436
-1438
-1447
-1471
-1515
-1560
-1552
-1449
-1275
-1102
-976
-896
-843
-840
-942
-1189
-1569
-2015
-2431
-2704
-2750
-2582
-2306
-2054
-1876
-1723
-1548
-1393
-1363
-1538
-1885
-2296
-2668
-2952
-3143
-3252
-3287
-3259
-3181
-3062
-2904
-2702
-2462
-2211
-1988
-1808
-1634
-1420
-1167
-938
-804
-767
-757
-708
-619
-527
-455
-381
-282
-168
-74
-14
24
68
141
255
409
586
773
960
1132
1240
1239
1164
1131
1213
1339
1354
1218
1103
1228
1618
2064
2334
2376
2292
2176
2029
1824
1592
1387
1211
1020
795
576
404
257
57
-255
-674
-1131
-1524
-1768
-1842
-1792
-1698
-1603
-1493
-1342
-1165
-1022
-961
-988
-1074
-1181
-1269
-1303
-1260
-1145
-992
-844
-741
-698
-698
-706
-690
-652
-607
-562
-507
-440
-385
-381
-430
-497
-541
-551
-539
-513
-471
-415
-363
-331
-311
-268
-166
-18
110
154
107
18
-59
-126
-238
-444
-718
-972
-1131
-1174
-1105
-907
-540
-19
541
985
1253
1435
1669
1963
2159
2095
1787
1441
1250
1211
1166
990
725
496
371
310
257
219
245
344
461
543
608
698
819
923
969
969
968
994
1024
1027
1021
1058
1147
1234
1249
1192
1130
1119
1149
1163
1140
1120
1150
1226
1301
1339
1356
1383
1427
1469
1502
1544
1613
1689
1718
1669
1578
1525
1550
1608
1613
1535
1434
1391
1425
1473
1471
1413
1346
1312
1308
1297
1265
1216
1151
1064
962
873
823
797
750
658
557
503
516
560
587
590
598
621
626
587
526
500
543
621
671
652
580
495
418
343
258
171
105
77
92
145
239
381
567
762
908
980
997
1002
1005
986
922
832
763
745
768
816
881
953
1004
996
920
812
713
624
511
350
165
7
-98
-167
-220
-255
-255
-227
-222
-284
-406
-533
-620
-687
-798
-974
-1152
-1223
-1142
-986
-892
-925
-1028
-1108
-1132
-1166
-1276
-1445
-1577
-1603
-1542
-1459
-1384
-1276
-1083
-820
-565
-406
-360
-379
-402
-411
-423
-452
-490
-520
-550
-598
-660
-687
-633
-513
-412
-401
-468
-530
-523
-464
-419
-433
-490
-551
-586
-589
-567
-527
-478
-437
-412
-390
-368
-368
-437
-581
-722
-738
-564
-255
70
354
663
1086
1596
2034
2235
2178
1971
1720
1436
1085
693
357
152
58
5
-35
-39
5
43
-1
-137
-289
-382
-407
-405
-405
-393
-335
-232
-123
-42
5
37
75
130
212
326
455
563
614
587
491
355
214
91
-15
-126
-253
-371
-430
-404
-324
-250
-222
-235
-263
-287
-301
-302
-286
-271
-278
-299
-294
-252
-225
-270
-390
-512
-569
-578
-601
-650
-692
-708
-728
-785
-841
-825
-734
-655
-662
-726
-747
-690
-614
-593
-616
-604
-525
-439
-414
-433
-403
-272
-119
-78
-185
-312
-303
-150
-14
-43
-206
-317
-244
-42
136
211
233
274
343
398
429
468
525
550
500
404
337
335
353
327
248
159
99
71
67
98
166
229
228
158
95
128
262
421
525
560
551
508
429
332
263
224
162
11
-202
-372
-423
-360
-258
-172
-100
-38
-1
1
-27
-44
-38
-32
-78
-238
-504
-776
-926
-905
-801
-763
-852
-976
-1002
-905
-799
-802
-914
-1030
-1056
-1018
-1004
-1050
-1083
-1017
-874
-783
-843
-998
-1085
-999
-803
-659
-651
-723
-763
-703
-559
-372
-186
-67
-75
-203
-342
-362
-245
-105
-75
-206
-433
-652
-776
-751
-576
-300
-2
299
672
1205
1867
2486
2848
2866
2620
2263
1913
1590
1265
908
533
197
-25
-87
-8
126
233
277
291
322
374
406
382
332
339
463
665
830
883
881
950
1144
1364
1463
1392
1259
1196
1222
1233
1136
945
758
653
621
603
562
508
460
410
337
240
145
69
-27
-200
-466
-770
-1046
-1294
-1575
-1922
-2292
-2613
-2865
-3104
-3383
-3668
-3879
-4003
-4116
-4283
-4451
-4478
-4283
-3945
-3623
-3377
-3118
-2735
-2256
-1837
-1609
-1555
-1559
-1552
-1564
-1654
-1803
-1922
-1948
-1905
-1861
-1840
-1813
-1735
-1611
-1481
-1372
-1283
-1195
-1104
-1010
-900
-755
-572
-375
-198
-59
50
140
201
219
204
182
169
149
92
-19
-153
-256
-296
-288
-285
-348
-489
-667
-807
-872
-894
-939
-1008
-1018
-886
-633
-387
-234
-110
118
490
892
1177
1322
1425
1575
1766
1953
2112
2232
2280
2235
2159
2168
2299
2445
2459
2327
2186
2171
2275
2372
2379
2324
2288
2301
2313
2273
2198
2164
2216
2308
2337
2265
2183
2214
2365
2503
2511
2425
2369
2378
2343
2186
1994
1933
2027
2115
2040
1861
1785
1918
2113
2138
1941
1692
1582
1620
1658
1593
1476
1434
1481
1479
1285
938
649
604
770
939
996
1083
1470
2240
3142
3804
4062
4053
3984
3879
3596
3064
2410
1828
1386
1029
730
557
560
677
782
822
838
848
772
539
199
-125
-379
-614
-880
-1153
-1395
-1608
-1807
-1956
-1995
-1937
-1888
-1953
-2138
-2345
-2485
-2547
-2572
-2603
-2659
-2719
-2727
-2617
-2411
-2242
-2231
-2343
-2403
-2311
-2176
-2213
-2460
-2680
-2632
-2369
-2195
-2294
-2486
-2439
-2082
-1707
-1628
-1809
-1953
-1882
-1744
-1797
-2062
-2310
-2352
-2254
-2231
-2371
-2552
-2596
-2447
-2190
-1971
-1885
-1918
-1943
-1856
-1698
-1614
-1653
-1688
-1567
-1327
-1188
-1279
-1437
-1373
-1031
-691
-659
-927
-1180
-1118
-742
-307
-74
-114
-316
-478
-445
-190
155
363
306
82
-48
102
475
830
985
955
885
858
823
704
520
376
348
370
312
149
-15
-48
74
242
307
197
-44
-306
-465
-450
-297
-150
-156
-332
-521
-532
-325
-55
87
40
-98
-186
-174
-111
-53
-11
31
79
117
135
143
187
322
533
702
696
513
350
407
658
852
772
478
236
227
375
466
421
361
402
521
615
654
716
852
998
1040
945
809
755
821
942
1009
979
893
835
853
914
946
889
738
528
308
134
44
33
36
7
9
186
611
1185
1720
2135
2510
2937
3362
3617
3607
3409
3158
2874
2479
1963
1471
1162
1034
941
776
613
596
733
873
876
754
626
564
526
447
337
260
243
238
208
168
158
175
176
145
111
107
123
117
73
31
34
83
141
178
194
199
200
201
213
254
313
355
359
343
339
353
358
324
248
148
46
-36
-86
-116
-163
-269
-413
-527
-575
-606
-700
-860
-998
-1035
-1002
-993
-1050
-1102
-1065
-942
-815
-759
-781
-854
-949
-1023
-1030
-956
-854
-803
-794
-731
-545
-262
27
267
465
622
738
862
1082
1408
1738
1986
2224
2550
2849
2786
2176
1271
526
73
-400
-1155
-1897
-1934
-883
924
2823
4476
6029
7680
9253
10312
10588
10195
9452
8588
7681
6771
5921
5189
4578
4057
3629
3327
3140
2971
2687
2245
1743
1328
1062
856
575
173
-292
-769
-1282
-1886
-2579
-3250
-3759
-4066
-4262
-4504
-4879
-5321
-5683
-5900
-6078
-6397
-6909
-7452
-7807
-7927
-7967
-8092
-8274
-8339
-8198
-7966
-7843
-7880
-7951
-7917
-7794
-7709
-7727
-7776
-7733
-7539
-7248
-6945
-6648
-6313
-5925
-5559
-5362
-5454
-5815
-6296
-6722
-6987
-7069
-6966
-6616
-5960
-5057
-4080
-3176
-2350
-1559
-900
-594
-726
-1068
-1224
-990
-487
72
650
1329
2095
2752
3104
3154
3048
2868
2577
2134
1595
1100
798
808
1149
1680
2143
2358
2374
2382
2483
2639
2780
2901
2923
2589
1705
506
-375
-462
87
666
896
1012
1531
2620
3894
4805
5128
5030
4760
4403
3901
3250
2569
1961
1420
865
282
-229
-579
-822
-1126
-1589
-2116
-2521
-2730
-2844
-2995
-3177
-3281
-3259
-3222
-3338
-3630
-3922
-4003
-3829
-3571
-3434
-3454
-3465
-3264
-2812
-2270
-1844
-1613
-1499
-1396
-1288
-1272
-1454
-1853
-2397
-2964
-3445
-3784
-3986
-4091
-4136
-4127
-4060
-3940
-3772
-3555
-3286
-2991
-2716
-2482
-2251
-1954
-1573
-1173
-833
-567
-324
-61
211
457
665
857
1050
1238
1403
1542
1666
1767
1829
1855
1874
1922
1995
2047
2033
1957
1865
1795
1746
1689
1606
1508
1419
1341
1255
1138
995
856
737
637
540
435
312
157
-33
-233
-406
-543
-678
-853
-1063
-1248
-1362
-1421
-1489
-1604
-1739
-1843
-1904
-1960
-2047
-2148
-2215
-2225
-2199
-2171
-2138
-2076
-1971
-1847
-1740
-1663
-1594
-1505
-1392
-1277
-1184
-1117
-1060
-990
-898
-787
-670
-560
-464
-374
-277
-171
-71
-3
6
-33
-75
-62
12
81
86
56
80
199
335
398
432
611
1045
1597
1960
1948
1670
1408
1322
1319
1200
907
608
545
817
1312
1820
2186
2377
2434
2385
2224
1937
1533
1061
583
144
-211
-427
-463
-344
-175
-89
-129
-241
-341
-413
-507
-648
-777
-812
-757
-718
-779
-898
-965
-926
-850
-830
-872
-912
-906
-882
-895
-955
-1030
-1089
-1127
-1145
-1133
-1083
-1014
-970
-962
-977
-976
-947
-910
-893
-891
-872
-831
-802
-818
-865
-891
-871
-848
-879
-959
-1012
-971
-853
-742
-704
-711
-691
-612
-522
-514
-634
-836
-1009
-1072
-1031
-965
-949
-985
-1003
-938
-811
-701
-659
-659
-631
-549
-469
-452
-482
-493
-462
-443
-510
-654
-784
-834
-833
-849
-904
-943
-917
-843
-786
-788
-845
-927
-1003
-1046
-1054
-1062
-1119
-1230
-1339
-1376
-1346
-1318
-1351
-1440
-1526
-1577
-1603
-1633
-1684
-1749
-1805
-1830
-1827
-1833
-1886
-1958
-1972
-1892
-1793
-1805
-1944
-2069
-2043
-1892
-1785
-1838
-1989
-2093
-2092
-2044
-2012
-1996
-1972
-1946
-1941
-1936
-1887
-1792
-1721
-1740
-1821
-1884
-1868
-1790
-1715
-1696
-1729
-1741
-1669
-1513
-1333
-1219
-1189
-1180
-1125
-1030
-945
-906
-910
-921
-935
-956
-954
-887
-762
-671
-690
-787
-817
-687
-476
-370
-463
-640
-697
-561
-372
-321
-428
-543
-523
-389
-285
-297
-368
-379
-310
-274
-357
-500
-532
-345
-5
318
532
737
1072
1518
1888
2000
1883
1702
1562
1378
1007
473
-30
-359
-561
-796
-1111
-1376
-1452
-1352
-1223
-1163
-1128
-1049
-948
-891
-884
-857
-790
-754
-854
-1065
-1224
-1200
-1027
-854
-797
-818
-806
-691
-515
-401
-445
-624
-805
-855
-765
-668
-703
-866
-987
-914
-702
-571
-669
-897
-1007
-916
-791
-837
-1014
-1081
-926
-733
-775
-1041
-1229
-1094
-781
-674
-949
-1361
-1544
-1410
-1229
-1284
-1589
-1911
-2059
-2044
-2003
-2004
-1992
-1896
-1723
-1548
-1422
-1322
-1208
-1088
-1008
-980
-960
-918
-866
-843
-814
-667
-349
48
363
512
572
686
899
1131
1264
1259
1159
1034
940
896
876
812
633
344
66
-60
-6
111
150
107
79
125
169
98
-99
-304
-435
-537
-721
-1009
-1279
-1403
-1375
-1275
-1158
-1019
-874
-805
-887
-1051
-1138
-1085
-1017
-1115
-1391
-1669
-1763
-1654
-1487
-1405
-1436
-1516
-1572
-1566
-1490
-1368
-1270
-1251
-1297
-1334
-1312
-1241
-1156
-1039
-858
-653
-526
-514
-510
-369
-87
172
264
228
226
342
497
566
531
497
569
752
963
1113
1182
1220
1304
1475
1680
1806
1786
1660
1538
1496
1501
1463
1349
1213
1142
1172
1262
1335
1326
1210
1025
872
858
1012
1256
1478
1643
1826
2107
2445
2685
2696
2484
2145
1746
1270
673
-22
-716
-1318
-1798
-2184
-2511
-2802
-3078
-3345
-3593
-3798
-3943
-4034
-4077
-4051
-3922
-3673
-3340
-2991
-2666
-2357
-2019
-1629
-1222
-848
-521
-191
189
603
975
1246
1432
1596
1778
1954
2077
2129
2136
2136
2151
2164
2145
2079
1991
1945
1980
2051
2046
1915
1749
1702
1824
1997
2063
1988
1877
1799
1697
1473
1133
769
426
51
-392
-825
-1120
-1270
-1398
-1589
-1776
-1839
-1770
-1693
-1698
-1747
-1765
-1775
-1854
-1994
-2077
-2015
-1904
-1934
-2169
-2458
-2605
-2569
-2488
-2513
-2649
-2774
-2767
-2615
-2412
-2267
-2224
-2240
-2232
-2169
-2094
-2055
-2038
-1989
-1894
-1800
-1751
-1712
-1609
-1439
-1299
-1279
-1337
-1345
-1234
-1077
-996
-1026
-1091
-1105
-1070
-1055
-1092
-1147
-1177
-1203
-1269
-1369
-1420
-1346
-1194
-1102
-1169
-1343
-1480
-1503
-1487
-1550
-1690
-1771
-1695
-1534
-1455
-1518
-1593
-1506
-1241
-968
-872
-963
-1080
-1066
-919
-763
-696
-695
-675
-590
-470
-367
-288
-202
-93
10
75
95
93
80
50
-2
-47
-52
-22
3
-14
-73
-139
-192
-239
-296
-376
-485
-622
-779
-928
-1014
-1000
-924
-876
-934
-1082
-1222
-1276
-1285
-1393
-1669
-2000
-2134
-1917
-1438
-943
-580
-264
207
892
1583
1970
1915
1572
1216
980
751
363
-193
-730
-1080
-1245
-1334
-1400
-1401
-1309
-1180
-1090
-1038
-984
-974
-1088
-1277
-1338
-1147
-865
-800
-1060
-1396
-1480
-1264
-997
-910
-978
-1032
-999
-957
-959
-950
-849
-699
-641
-764
-1002
-1214
-1312
-1322
-1330
-1391
-1479
-1512
-1436
-1300
-1218
-1251
-1345
-1403
-1412
-1459
-1579
-1665
-1573
-1306
-1044
-943
-963
-936
-779
-603
-568
-685
-806
-815
-743
-726
-845
-1063
-1276
-1394
-1388
-1282
-1126
-971
-843
-723
-574
-372
-142
64
206
277
309
348
430
564
756
991
1230
1411
1480
1462
1448
1511
1637
1732
1741
1718
1769
1937
2179
2408
2563
2636
2633
2587
2558
2591
2670
2721
2705
2676
2723
2867
3031
3123
3119
3069
3019
2975
2932
2900
2886
2863
2789
2679
2607
2629
2715
2752
2664
2472
2272
2135
2045
1941
1801
1661
1563
1507
1451
1384
1356
1420
1562
1684
1686
1552
1369
1254
1256
1323
1350
1286
1175
1130
1228
1435
1645
1792
1885
1960
1998
1949
1829
1737
1754
1838
1855
1743
1590
1532
1592
1656
1617
1491
1368
1286
1214
1136
1110
1173
1253
1239
1109
972
941
1005
1050
996
871
743
622
454
223
-2
-109
-46
140
377
658
1054
1620
2289
2885
3246
3343
3264
3094
2838
2454
1958
1451
1050
789
623
490
374
285
205
54
-242
-673
-1144
-1526
-1733
-1728
-1505
-1072
-478
175
788
1323
1789
2159
2355
2311
2070
1756
1472
1241
1063
962
962
1027
1082
1080
1053
1047
1047
994
865
714
620
589
564
498
414
368
369
369
320
239
186
206
278
332
319
245
156
93
49
-19
-139
-287
-390
-401
-355
-343
-418
-540
-616
-611
-578
-590
-639
-629
-507
-336
-233
-234
-259
-215
-115
-45
-47
-62
-28
25
17
-59
-106
-41
105
233
304
381
497
593
586
519
531
672
804
731
444
148
36
93
151
93
-66
-237
-377
-498
-626
-757
-853
-869
-841
-932
-1295
-1887
-2467
-2846
-3145
-3665
-4476
-5226
-5454
-5048
-4282
-3427
-2480
-1354
-218
578
865
845
838
922
943
792
571
475
616
987
1509
2034
2357
2354
2133
1938
1882
1839
1639
1318
1087
1073
1204
1346
1462
1596
1752
1906
2103
2442
2920
3343
3500
3375
3138
2904
2604
2127
1547
1086
878
860
905
1008
1260
1668
2075
2294
2284
2149
2029
1995
2051
2156
2229
2185
2030
1875
1830
1883
1920
1888
1885
2039
2353
2727
3136
3701
4532
5518
6349
6790
6870
6743
6466
5969
5205
4269
3308
2401
1598
993
664
545
468
395
533
1102
2009
2831
3180
3026
2619
2147
1585
834
-89
-1048
-1914
-2617
-3093
-3276
-3178
-2938
-2724
-2613
-2576
-2565
-2579
-2633
-2689
-2693
-2640
-2544
-2384
-2106
-1687
-1194
-754
-462
-308
-220
-124
5
173
408
756
1192
1567
1693
1517
1187
920
784
647
348
-99
-500
-692
-707
-716
-840
-1028
-1140
-1112
-1018
-986
-1079
-1243
-1384
-1454
-1469
-1470
-1462
-1432
-1375
-1315
-1278
-1254
-1227
-1194
-1177
-1195
-1246
-1316
-1387
-1443
-1479
-1502
-1534
-1584
-1627
-1624
-1568
-1488
-1419
-1371
-1330
-1286
-1232
-1160
-1059
-937
-827
-750
-699
-657
-627
-634
-685
-753
-800
-818
-828
-848
-866
-859
-815
-746
-681
-644
-638
-643
-627
-576
-513
-474
-471
-478
-467
-438
-422
-441
-484
-514
-503
-450
-375
-304
-245
-187
-112
-11
104
212
303
394
508
652
810
963
1107
1250
1390
1517
1627
1716
1784
1831
1860
1886
1921
1963
1998
2014
2014
2012
2026
2061
2108
2147
2163
2161
2167
2193
2223
2234
2222
2199
2179
2158
2129
2099
2091
2104
2109
2070
1990
1897
1784
1624
1424
1271
1270
1428
1651
1877
2162
2609
3200
3772
4155
4305
4259
4004
3477
2703
1856
1129
562
70
-373
-643
-599
-259
218
687
1108
1488
1793
1967
2025
2040
2054
2027
1900
1693
1479
1310
1185
1087
1005
929
830
699
576
526
558
611
614
568
533
540
547
494
389
308
309
372
435
463
481
528
614
716
805
857
856
807
733
662
600
531
441
338
248
175
100
11
-71
-125
-167
-221
-285
-325
-329
-327
-342
-339
-276
-191
-181
-258
-264
4
575
1236
1715
1907
1898
1811
1677
1444
1070
576
31
-461
-773
-816
-613
-293
5
227
402
555
686
768
795
778
723
656
622
657
735
778
707
508
243
24
-60
-7
82
97
34
15
156
424
655
719
664
671
861
1193
1537
1796
1966
2069
2096
2032
1897
1732
1551
1336
1082
836
664
599
616
661
686
674
636
603
609
656
711
743
754
778
831
878
873
812
746
724
737
732
684
625
599
597
563
460
323
228
213
237
222
148
57
-2
-22
-26
-15
31
93
115
80
56
113
196
148
-120
-532
-955
-1362
-1817
-2287
-2561
-2449
-2024
-1580
-1311
-1095
-635
198
1218
2111
2733
3198
3727
4425
5189
5805
6097
6036
5731
5321
4877
4378
3798
3173
2594
2148
1845
1655
1551
1532
1581
1632
1588
1397
1105
840
713
748
860
934
926
879
855
851
817
747
705
745
799
734
533
393
557
1060
1676
2133
2353
2447
2518
2526
2363
1984
1431
766
44
-647
-1182
-1485
-1592
-1620
-1645
-1667
-1647
-1560
-1433
-1313
-1242
-1244
-1315
-1408
-1457
-1431
-1360
-1306
-1303
-1337
-1371
-1387
-1398
-1418
-1366
-1266
-1139
-1076
-1098
-1139
-1104
-966
-793
-670
-610
-542
-413
-249
-128
-74
-37
53
189
303
366
416
492
561
563
518
522
640
827
974
1041
1091
1208
1392
1572
1693
1748
1768
1781
1809
1863
1926
1955
1938
1904
1886
1875
1850
1824
1819
1823
1792
1724
1706
1809
1979
2057
1942
1703
1504
1451
1508
1554
1490
1324
1155
1116
1269
1524
1696
1695
1603
1582
1689
1825
1865
1781
1629
1461
1296
1160
1101
1129
1185
1198
1166
1156
1198
1247
1236
1151
1032
914
801
685
566
464
388
314
230
152
116
128
139
65
-114
-317
-422
-386
-286
-231
-253
-314
-366
-411
-457
-484
-474
-470
-567
-795
-1065
-1247
-1323
-1392
-1521
-1617
-1501
-1124
-639
-224
138
649
1426
2294
2913
3101
2993
2856
2789
2656
2288
1693
1054
557
269
160
180
287
438
580
687
768
832
863
824
705
545
402
306
245
189
144
149
212
282
289
212
111
48
32
31
34
67
131
182
176
123
80
78
88
71
48
71
154
237
260
233
216
240
264
237
180
164
217
281
266
162
46
-10
-21
-63
-192
-384
-566
-679
-716
-706
-680
-664
-674
-699
-702
-659
-590
-545
-547
-551
-497
-382
-284
-258
-267
-209
-54
112
185
176
216
383
605
740
753
762
884
1087
1228
1224
1141
1113
1190
1304
1350
1293
1185
1100
1063
1040
976
863
753
706
717
722
664
567
504
513
547
527
438
353
343
378
354
205
-12
-197
-325
-443
-582
-691
-715
-684
-686
-732
-734
-611
-433
-370
-515
-780
-986
-1018
-913
-805
-803
-929
-1091
-1122
-938
-625
-390
-366
-462
-472
-313
-112
-42
-120
-200
-182
-127
-160
-299
-421
-424
-330
-245
-229
-247
-233
-174
-118
-105
-139
-195
-237
-249
-246
-248
-272
-283
-232
-129
-67
-140
-336
-554
-721
-876
-1079
-1265
-1256
-970
-549
-212
-25
177
570
1067
1349
1146
510
-238
-791
-1061
-1146
-1140
-1016
-662
-31
779
1554
2087
2317
2330
2245
2133
1989
1787
1550
1334
1191
1166
1286
1512
1718
1778
1679
1533
1459
1452
1393
1207
922
603
288
26
-115
-135
-182
-425
-818
-1077
-998
-754
-748
-1141
-1667
-1932
-1868
-1779
-1920
-2208
-2358
-2238
-1985
-1827
-1856
-1986
-2070
-2046
-1953
-1914
-2050
-2310
-2468
-2358
-2093
-1965
-2131
-2413
-2505
-2310
-2030
-1893
-1921
-1999
-2039
-2018
-1878
-1555
-1153
-950
-1131
-1511
-1695
-1502
-1178
-1116
-1395
-1727
-1808
-1620
-1357
-1158
-1024
-942
-931
-967
-913
-673
-367
-238
-363
-547
-550
-335
-85
47
72
57
-15
-191
-388
-416
-165
238
520
515
323
228
438
865
1138
933
335
-184
-183
294
760
798
496
284
420
728
885
799
648
580
527
371
168
98
242
466
549
435
274
232
308
355
262
82
5
164
501
822
970
944
858
815
840
902
946
915
814
752
875
1201
1526
1604
1406
1162
1107
1226
1315
1259
1152
1146
1250
1340
1340
1341
1447
1604
1642
1467
1177
959
920
1000
1040
924
645
331
163
235
461
669
794
978
1435
2193
3016
3601
3818
3785
3684
3575
3377
3002
2465
1896
1437
1163
1057
1025
972
885
836
903
1062
1162
1063
798
559
488
502
376
6
-447
-715
-711
-602
-589
-668
-657
-428
-60
255
405
424
405
387
348
257
135
26
-18
5
51
59
9
-47
-60
-58
-132
-331
-592
-792
-862
-846
-848
-927
-1053
-1156
-1196
-1205
-1250
-1352
-1472
-1545
-1570
-1606
-1688
-1778
-1795
-1718
-1626
-1609
-1687
-1775
-1774
-1681
-1575
-1541
-1578
-1599
-1515
-1329
-1135
-1016
-974
-951
-919
-900
-906
-900
-849
-781
-756
-786
-794
-708
-543
-359
-192
-41
72
107
83
109
263
470
550
439
278
277
465
644
609
380
172
163
311
424
378
234
141
165
224
199
65
-96
-200
-240
-269
-318
-352
-322
-232
-141
-86
-47
26
147
260
296
230
124
62
70
80
-11
-217
-414
-408
-82
536
1321
2171
3041
3882
4571
4933
4852
4347
3547
2593
1584
594
-262
-843
-1049
-900
-533
-121
231
515
750
939
1059
1086
1032
939
850
805
868
1075
1375
1624
1693
1580
1412
1329
1363
1435
1444
1366
1265
1249
1394
1688
2042
2364
2629
2871
3128
3385
3586
3674
3605
3370
3005
2613
2307
2132
2029
1918
1828
1888
2155
2536
2889
3183
3476
3758
3894
3828
3774
4079
4807
5550
5743
5185
4167
3108
2105
922
-632
-2410
-4010
-5096
-5561
-5471
-4946
-4138
-3234
-2425
-1822
-1425
-1190
-1098
-1158
-1365
-1652
-1921
-2070
-2019
-1749
-1337
-947
-740
-771
-950
-1125
-1217
-1276
-1387
-1562
-1734
-1869
-2017
-2251
-2548
-2774
-2818
-2703
-2539
-2404
-2295
-2195
-2143
-2192
-2317
-2415
-2421
-2367
-2301
-2174
-1877
-1390
-873
-527
-404
-392
-408
-511
-801
-1238
-1654
-1933
-2116
-2275
-2373
-2300
-2060
-1804
-1659
-1562
-1342
-952
-557
-367
-438
-653
-875
-1062
-1246
-1458
-1676
-1862
-1974
-1975
-1853
-1638
-1392
-1168
-993
-869
-797
-781
-816
-881
-970
-1083
-1212
-1314
-1344
-1293
-1211
-1163
-1190
-1279
-1383
-1453
-1468
-1434
-1369
-1284
-1191
-1111
-1059
-1034
-1010
-966
-906
-859
-843
-845
-841
-819
-774
-707
-621
-527
-444
-377
-304
-195
-40
143
313
428
467
467
543
809
1263
1745
2045
2066
1897
1698
1539
1354
1019
493
-101
-555
-727
-645
-467
-334
-257
-150
17
159
164
30
-113
-140
-42
113
305
608
1096
1727
2336
2764
2953
2954
2843
2653
2395
2089
1774
1469
1179
924
761
731
791
847
852
832
811
753
610
440
384
482
575
452
108
-232
-343
-225
-48
96
295
673
1215
1774
2237
2613
2947
3199
3265
3108
2827
2583
2459
2416
2380
2333
2320
2378
2478
2550
2547
2481
2383
2273
2153
2052
2026
2102
2242
2381
2475
2523
2544
2552
2554
2545
2495
2374
2188
1992
1841
1734
1636
1543
1521
1636
1878
2168
2432
2643
2788
2840
2767
2579
2330
2067
1800
1530
1288
1114
1021
977
941
906
884
874
854
811
755
700
641
578
542
578
685
786
791
688
560
495
485
426
246
-19
-273
-475
-684
-974
-1320
-1607
-1749
-1760
-1710
-1622
-1442
-1108
-637
-120
346
723
1006
1181
1224
1128
935
710
502
328
181
54
-40
-80
-59
-13
7
-22
-66
-77
-50
-35
-77
-132
-106
43
248
387
405
355
323
339
369
388
418
489
601
720
831
944
1058
1139
1138
1044
901
757
629
519
460
507
681
925
1154
1330
1473
1610
1721
1753
1679
1537
1381
1223
1035
801
579
482
586
851
1155
1412
1651
1967
2388
2807
3073
3131
3050
2908
2700
2366
1902
1400
977
683
488
341
235
191
217
292
374
443
494
538
585
636
684
719
740
736
698
621
519
420
347
311
309
318
316
300
296
326
377
404
386
344
315
306
286
227
140
46
-51
-159
-275
-380
-473
-569
-676
-768
-807
-799
-787
-813
-877
-949
-1008
-1065
-1143
-1252
-1366
-1445
-1477
-1483
-1488
-1496
-1492
-1467
-1439
-1415
-1373
-1284
-1151
-1017
-905
-788
-639
-485
-380
-335
-297
-215
-113
-61
-96
-169
-198
-151
-64
0
-4
-67
-142
-156
-58
141
356
520
628
722
825
906
934
915
882
837
753
657
629
730
928
1106
1193
1205
1194
1158
1059
903
741
612
515
471
538
745
1004
1169
1177
1109
1078
1108
1121
1048
910
781
726
760
850
927
925
836
720
621
514
360
175
48
33
63
42
-34
-67
24
200
350
402
388
397
476
590
664
650
578
546
617
742
791
687
509
429
509
651
690
570
387
263
234
261
303
353
389
365
278
210
243
328
315
134
-61
-52
202
511
705
867
1235
1884
2579
2979
2981
2778
2635
2608
2549
2302
1866
1391
1031
863
867
981
1135
1243
1244
1158
1089
1147
1328
1482
1461
1274
1093
1069
1176
1258
1216
1116
1090
1169
1262
1288
1257
1243
1274
1298
1250
1113
943
814
781
836
919
975
1006
1071
1210
1383
1478
1424
1248
1057
946
931
944
895
760
599
511
539
612
614
509
390
367
431
449
325
110
-65
-164
-287
-515
-790
-964
-976
-902
-840
-793
-695
-531
-369
-275
-229
-172
-93
-52
-92
-170
-193
-107
62
245
400
530
648
749
822
871
910
949
978
986
973
955
944
951
981
1033
1098
1145
1146
1110
1083
1102
1142
1138
1054
926
832
810
835
854
827
761
687
616
538
440
321
201
103
31
-31
-94
-154
-188
-192
-188
-196
-214
-231
-241
-254
-259
-215
-108
13
70
37
-19
-10
75
153
159
114
92
119
152
154
150
187
264
330
346
338
359
434
531
607
639
632
609
603
648
733
807
839
842
847
859
850
813
770
749
730
677
592
517
499
562
723
1004
1400
1850
2295
2751
3298
3929
4462
4655
4441
4011
3632
3381
3097
2603
1943
1381
1155
1258
1482
1638
1723
1845
2036
2188
2175
2026
1901
1912
1981
1939
1735
1494
1384
1437
1534
1538
1416
1237
1102
1054
1037
935
676
323
46
-37
35
140
220
329
539
847
1181
1452
1596
1578
1431
1259
1150
1088
993
851
752
753
781
743
662
651
715
690
453
106
-140
-208
-207
-253
-335
-413
-532
-722
-886
-885
-753
-694
-829
-1019
-1051
-931
-886
-1033
-1197
-1148
-904
-737
-841
-1089
-1183
-969
-581
-279
-196
-251
-279
-186
-24
84
75
-12
-86
-89
-30
64
198
386
594
741
771
715
671
713
822
905
880
770
679
703
802
836
759
683
755
944
1021
821
466
280
426
724
842
666
399
298
409
569
661
729
859
1007
1046
968
935
1090
1366
1536
1458
1229
1075
1119
1302
1479
1553
1544
1544
1643
1869
2140
2312
2319
2245
2244
2352
2447
2393
2232
2134
2202
2334
2359
2251
2160
2248
2482
2659
2612
2406
2290
2431
2728
2873
2682
2324
2168
2356
2600
2476
1920
1361
1285
1723
2258
2515
2569
2791
3379
4125
4670
4878
4882
4833
4701
4370
3840
3253
2763
2404
2115
1861
1679
1625
1700
1850
2001
2096
2083
1927
1666
1420
1313
1363
1460
1463
1330
1153
1062
1105
1218
1296
1281
1178
1039
933
911
968
1049
1097
1094
1068
1047
1032
1019
1009
1004
984
933
868
833
849
885
896
874
845
830
820
799
777
766
761
739
684
608
530
461
404
356
320
294
267
225
171
122
99
98
90
58
10
-16
3
57
122
181
239
294
332
343
349
391
475
563
604
599
605
676
806
942
1038
1091
1129
1172
1212
1241
1269
1312
1366
1411
1442
1478
1542
1624
1682
1684
1647
1609
1588
1560
1496
1394
1283
1200
1162
1166
1196
1237
1276
1315
1354
1379
1366
1306
1228
1176
1161
1149
1104
1037
1000
1032
1115
1200
1253
1266
1237
1169
1086
1038
1046
1077
1069
1005
946
961
1057
1173
1244
1261
1252
1226
1176
1105
1034
986
967
964
973
990
1008
1020
1047
1109
1193
1239
1202
1097
998
954
945
921
854
761
690
666
667
635
536
388
240
106
-37
-187
-271
-199
31
326
622
968
1439
2011
2521
2800
2810
2644
2405
2119
1747
1219
502
-342
-1152
-1746
-2053
-2148
-2128
-1999
-1689
-1161
-490
203
853
1445
1957
2326
2505
2519
2447
2359
2300
2280
2296
2333
2368
2367
2311
2215
2107
1998
1856
1632
1327
1019
801
686
612
522
432
392
426
546
776
1126
1520
1811
1904
1882
1942
2192
2538
2768
2755
2571
2406
2391
2492
2548
2414
2080
1671
1324
1079
880
660
414
172
-39
-194
-270
-261
-220
-243
-380
-589
-780
-911
-1013
-1143
-1319
-1530
-1765
-2007
-2233
-2413
-2539
-2614
-2634
-2595
-2523
-2468
-2476
-2517
-2520
-2443
-2321
-2222
-2169
-2114
-1995
-1816
-1651
-1565
-1548
-1532
-1473
-1383
-1297
-1219
-1120
-981
-846
-770
-764
-787
-790
-771
-765
-805
-904
-1040
-1160
-1198
-1118
-966
-845
-822
-858
-821
-638
-368
-144
-36
19
128
311
468
514
493
530
667
802
815
719
674
794
1011
1141
1096
967
912
993
1115
1145
1051
914
834
813
774
656
480
311
166
8
-196
-398
-502
-470
-362
-250
-162
-77
23
123
188
202
149
30
-132
-282
-386
-503
-735
-1098
-1455
-1615
-1510
-1257
-1013
-801
-498
-7
615
1183
1552
1702
1685
1534
1240
822
350
-88
-443
-719
-913
-989
-933
-778
-595
-450
-360
-301
-254
-207
-145
-48
90
247
388
485
536
567
607
670
746
805
819
786
739
713
718
731
722
695
673
673
686
699
715
748
794
829
822
780
744
738
751
739
678
593
538
540
578
598
563
478
377
291
228
170
91
-18
-143
-250
-317
-360
-415
-499
-584
-634
-655
-698
-784
-862
-873
-830
-835
-972
-1218
-1470
-1641
-1722
-1738
-1683
-1520
-1239
-876
-478
-68
345
727
1011
1129
1047
778
398
18
-260
-403
-432
-358
-133
307
932
1596
2139
2504
2738
2889
2935
2833
2612
2374
2198
2075
1961
1867
1873
2028
2265
2455
2514
2450
2304
2081
1785
1478
1263
1181
1158
1091
976
899
913
960
943
847
744
685
644
583
524
517
560
603
624
654
702
684
487
95
-379
-795
-1082
-1253
-1329
-1302
-1177
-977
-711
-367
40
417
647
693
635
581
567
541
446
283
100
-50
-144
-187
-205
-235
-314
-434
-544
-617
-677
-772
-896
-963
-863
-584
-231
69
302
587
1036
1607
2096
2304
2199
1905
1554
1173
717
205
-253
-550
-696
-779
-846
-838
-674
-385
-114
18
28
22
74
150
176
133
74
50
44
11
-54
-102
-83
5
112
192
240
282
338
406
468
512
534
533
506
463
423
401
394
378
341
302
290
311
333
330
312
321
375
447
488
476
435
407
398
381
327
235
140
77
49
24
-34
-128
-227
-290
-313
-319
-342
-392
-456
-511
-547
-568
-581
-587
-586
-579
-575
-574
-570
-551
-521
-489
-459
-422
-369
-315
-285
-276
-252
-177
-66
22
40
10
-14
-12
-19
-82
-184
-273
-320
-346
-392
-460
-517
-538
-523
-487
-448
-443
-507
-638
-762
-800
-759
-737
-818
-969
-1081
-1073
-970
-859
-792
-755
-700
-597
-442
-263
-98
0
17
-9
-20
-4
-20
-154
-412
-682
-839
-850
-810
-833
-923
-971
-897
-739
-587
-491
-429
-384
-391
-450
-488
-410
-206
38
242
418
619
867
1121
1343
1533
1688
1756
1675
1505
1382
1403
1519
1582
1532
1476
1573
1825
2042
2025
1787
1552
1550
1805
2158
2462
2734
3117
3694
4378
4977
5323
5361
5130
4704
4197
3738
3376
3046
2630
2114
1669
1504
1634
1852
1927
1813
1665
1615
1615
1539
1359
1169
1059
1008
936
817
690
585
454
217
-125
-474
-735
-908
-1084
-1344
-1654
-1897
-1999
-1993
-1965
-1949
-1918
-1893
-1973
-2218
-2516
-2666
-2612
-2521
-2583
-2770
-2847
-2647
-2265
-1954
-1863
-1936
-2037
-2125
-2232
-2344
-2361
-2216
-1970
-1770
-1699
-1708
-1679
-1556
-1394
-1292
-1294
-1360
-1424
-1455
-1464
-1452
-1386
-1264
-1144
-1102
-1148
-1194
-1116
-888
-591
-324
-110
93
329
594
845
1053
1200
1278
1303
1310
1342
1425
1557
1721
1891
2027
2100
2117
2136
2208
2321
2397
2367
2256
2145
2090
2078
2047
1954
1805
1636
1491
1405
1377
1361
1295
1164
1007
886
810
738
641
538
478
481
506
504
465
419
409
455
532
596
607
574
551
599
714
825
862
834
814
853
926
962
938
905
929
1006
1062
1045
991
995
1092
1208
1223
1099
936
854
869
891
851
789
785
841
876
847
801
808
818
695
406
90
-83
-89
-84
-214
-485
-780
-995
-1100
-1089
-959
-742
-515
-314
-75
307
855
1430
1802
1815
1512
1084
684
334
-54
-537
-1052
-1467
-1700
-1786
-1807
-1787
-1697
-1546
-1417
-1384
-1429
-1456
-1400
-1316
-1309
-1397
-1509
-1562
-1557
-1562
-1623
-1710
-1779
-1817
-1830
-1811
-1719
-1577
-1478
-1508
-1639
-1740
-1702
-1554
-1451
-1495
-1627
-1719
-1726
-1730
-1795
-1844
-1760
-1569
-1457
-1570
-1828
-1994
-1932
-1764
-1727
-1897
-2123
-2193
-2047
-1818
-1663
-1609
-1559
-1423
-1242
-1155
-1238
-1420
-1536
-1507
-1434
-1462
-1606
-1724
-1694
-1540
-1395
-1340
-1336
-1304
-1206
-1041
-823
-591
-403
-275
-115
169
504
669
503
114
-210
-265
-109
0
-124
-438
-716
-721
-418
-11
179
11
-359
-613
-611
-514
-582
-841
-1044
-977
-748
-643
-763
-897
-813
-561
-408
-495
-701
-858
-938
-1004
-1007
-836
-561
-410
-459
-447
-105
421
656
366
-78
-128
246
513
254
-282
-483
-116
382
459
101
-179
4
458
667
412
17
-51
307
725
829
667
619
909
1326
1457
1205
897
896
1181
1357
1131
653
351
449
717
783
533
211
112
284
539
694
691
546
312
104
73
261
479
462
207
62
362
1051
1716
2072
2229
2452
2752
2883
2717
2447
2315
2260
1982
1349
652
298
378
573
484
47
-460
-696
-536
-166
105
135
79
220
644
1100
1258
1094
940
1114
1536
1799
1647
1280
1126
1392
1831
2024
1814
1416
1190
1265
1454
1480
1274
1023
940
1044
1189
1240
1163
988
747
510
417
536
757
866
776
626
604
714
772
642
389
183
101
78
26
-59
-115
-131
-175
-308
-510
-695
-778
-769
-763
-852
-1031
-1195
-1233
-1147
-1042
-1003
-1007
-984
-940
-966
-1106
-1286
-1389
-1415
-1494
-1735
-2090
-2373
-2417
-2190
-1773
-1249
-659
-25
612
1211
1729
2110
2296
2262
2073
1856
1705
1623
1566
1512
1472
1450
1430
1407
1397
1403
1403
1363
1273
1134
922
613
270
6
-148
-308
-618
-1023
-1247
-1027
-387
375
968
1344
1673
2089
2524
2773
2708
2405
2078
1898
1881
1917
1920
1920
1994
2134
2215
2127
1888
1632
1461
1348
1202
1014
876
872
988
1107
1128
1046
942
882
839
742
568
419
433
627
857
939
834
671
605
636
632
508
321
187
123
20
-182
-364
-339
-62
296
548
704
946
1375
1852
2112
2040
1766
1480
1215
863
359
-213
-706
-1037
-1239
-1373
-1471
-1551
-1633
-1732
-1853
-2003
-2188
-2378
-2490
-2471
-2394
-2367
-2410
-2414
-2291
-2106
-2007
-2042
-2131
-2182
-2167
-2078
-1887
-1647
-1571
-1866
-2459
-2982
-3133
-3001
-2934
-3076
-3156
-2816
-2042
-1179
-540
-123
267
698
1026
1108
979
796
667
578
484
404
380
403
401
321
184
55
-24
-62
-89
-119
-141
-139
-114
-98
-134
-255
-451
-663
-827
-918
-962
-980
-943
-807
-574
-313
-90
98
300
534
755
895
918
831
671
501
394
389
442
444
331
169
112
239
477
668
739
758
841
1023
1237
1406
1514
1589
1646
1674
1686
1731
1844
1976
2024
1955
1845
1810
1861
1889
1811
1678
1632
1748
1971
2230
2564
3065
3692
4208
4360
4109
3639
3128
2581
1889
1040
198
-438
-811
-1007
-1125
-1180
-1143
-1029
-924
-904
-986
-1133
-1314
-1512
-1710
-1879
-1992
-2041
-2045
-2026
-1994
-1956
-1931
-1937
-1962
-1950
-1854
-1689
-1523
-1407
-1322
-1219
-1074
-922
-805
-703
-550
-320
-89
21
-16
-109
-168
-223
-380
-630
-763
-534
93
917
1728
2506
3331
4138
4651
4629
4101
3315
2478
1609
654
-328
-1148
-1643
-1798
-1713
-1507
-1273
-1078
-961
-912
-887
-872
-883
-927
-958
-913
-790
-641
-533
-493
-508
-546
-590
-624
-638
-630
-607
-577
-550
-536
-543
-579
-637
-686
-693
-656
-610
-594
-612
-633
-629
-607
-585
-560
-515
-449
-386
-337
-288
-242
-253
-367
-534
-603
-443
-74
363
754
1093
1407
1633
1636
1351
871
352
-144
-670
-1255
-1784
-2074
-2050
-1832
-1609
-1473
-1377
-1241
-1079
-968
-954
-999
-1029
-1018
-980
-913
-783
-588
-395
-284
-262
-245
-145
34
215
345
451
587
758
890
924
880
830
819
822
792
726
684
729
861
1021
1141
1194
1207
1209
1208
1172
1056
846
571
303
98
-26
-77
-69
-11
81
184
282
375
460
502
463
359
267
267
357
456
488
466
465
533
636
711
732
734
762
820
882
919
929
938
971
1033
1098
1131
1124
1109
1131
1202
1284
1329
1329
1317
1328
1364
1405
1428
1428
1413
1407
1421
1458
1503
1538
1550
1549
1545
1529
1474
1355
1206
1125
1211
1481
1855
2239
2611
3003
3415
3761
3934
3894
3687
3359
2910
2338
1709
1140
730
492
369
300
267
285
355
441
472
406
256
95
-18
-95
-191
-328
-460
-538
-582
-659
-792
-925
-996
-1023
-1080
-1199
-1309
-1324
-1249
-1185
-1211
-1299
-1362
-1361
-1343
-1358
-1386
-1376
-1329
-1309
-1351
-1414
-1419
-1348
-1274
-1282
-1377
-1484
-1533
-1519
-1482
-1463
-1476
-1505
-1527
-1527
-1515
-1519
-1559
-1628
-1698
-1746
-1767
-1773
-1771
-1771
-1775
-1772
-1743
-1683
-1617
-1570
-1543
-1508
-1448
-1374
-1298
-1201
-1045
-843
-663
-563
-517
-444
-299
-135
-45
-67
-134
-146
-81
-1
23
-15
-50
-29
19
18
-71
-200
-279
-273
-244
-296
-468
-706
-907
-1001
-1007
-971
-927
-862
-743
-569
-390
-262
-205
-210
-268
-399
-609
-850
-1033
-1105
-1095
-1075
-1075
-1050
-943
-769
-609
-530
-508
-460
-343
-199
-94
-25
67
210
342
383
335
278
282
339
387
393
379
369
361
350
346
354
344
240
10
-285
-517
-603
-583
-581
-677
-820
-877
-754
-477
-143
179
490
802
1081
1275
1374
1414
1384
1227
927
602
440
519
737
959
1179
1506
1970
2419
2671
2683
2565
2402
2135
1673
1068
522
194
39
-96
-272
-402
-364
-187
-19
19
-50
-116
-103
-40
8
11
-6
-17
-16
-22
-25
4
45
33
-82
-269
-415
-431
-349
-293
-338
-445
-512
-489
-420
-370
-365
-390
-425
-466
-505
-529
-514
-467
-417
-401
-436
-501
-543
-516
-399
-234
-110
-105
-219
-364
-426
-375
-298
-328
-514
-740
-821
-676
-413
-218
-186
-266
-346
-358
-317
-269
-264
-316
-388
-403
-305
-142
-26
-16
-72
-122
-144
-157
-143
-14
277
660
1014
1271
1422
1475
1433
1322
1193
1065
885
622
353
226
323
566
784
872
833
748
703
712
720
625
366
-4
-327
-453
-378
-252
-255
-441
-686
-789
-625
-257
105
267
221
137
193
391
572
570
394
198
131
212
358
478
546
589
636
718
844
1002
1147
1234
1280
1346
1462
1590
1659
1655
1631
1655
1725
1781
1785
1756
1738
1729
1705
1657
1611
1588
1563
1500
1412
1348
1329
1307
1228
1109
1019
984
923
742
469
246
156
111
-24
-229
-317
-154
162
430
598
829
1264
1811
2216
2345
2305
2258
2211
2014
1587
1035
546
194
-88
-376
-636
-779
-776
-709
-683
-735
-832
-934
-1037
-1136
-1213
-1238
-1220
-1205
-1216
-1240
-1250
-1248
-1282
-1395
-1593
-1848
-2124
-2370
-2530
-2576
-2535
-2468
-2383
-2214
-1910
-1513
-1147
-906
-774
-665
-518
-341
-187
-101
-99
-153
-203
-184
-73
75
177
185
104
-28
-175
-291
-344
-371
-486
-785
-1200
-1500
-1481
-1192
-935
-999
-1375
-1761
-1852
-1642
-1430
-1508
-1885
-2293
-2464
-2359
-2146
-1988
-1920
-1887
-1854
-1810
-1735
-1592
-1404
-1261
-1246
-1330
-1425
-1483
-1511
-1482
-1344
-1122
-979
-1060
-1277
-1359
-1156
-834
-698
-823
-991
-976
-816
-713
-728
-713
-560
-379
-358
-507
-635
-600
-478
-450
-568
-707
-744
-698
-678
-730
-812
-879
-951
-1042
-1106
-1087
-1014
-986
-1065
-1180
-1195
-1059
-872
-778
-810
-847
-749
-504
-222
-28
35
15
-12
4
63
126
150
111
33
-17
32
191
398
553
606
601
644
803
1036
1211
1218
1069
883
770
753
785
804
794
786
815
897
1021
1158
1235
1160
893
520
235
196
394
689
981
1322
1833
2515
3188
3637
3790
3741
3585
3324
2917
2401
1880
1451
1163
1028
1043
1140
1211
1190
1115
1066
1044
978
839
713
689
719
679
565
527
661
837
801
465
22
-255
-303
-299
-442
-726
-965
-1002
-855
-679
-610
-662
-766
-870
-974
-1073
-1112
-1017
-812
-641
-636
-759
-817
-685
-442
-305
-411
-699
-990
-1136
-1094
-930
-771
-763
-949
-1176
-1215
-997
-731
-693
-915
-1156
-1200
-1124
-1150
-1325
-1443
-1334
-1141
-1184
-1528
-1837
-1747
-1311
-971
-1066
-1457
-1691
-1487
-1003
-647
-696
-1073
-1434
-1474
-1168
-795
-708
-1007
-1427
-1552
-1216
-656
-273
-255
-444
-542
-391
-56
289
488
455
209
-84
-197
-24
310
529
474
247
107
211
505
796
919
831
595
333
170
188
372
608
748
721
598
535
624
798
892
799
556
307
190
259
489
790
1045
1167
1166
1159
1255
1446
1617
1656
1588
1538
1602
1753
1891
1942
1927
1911
1931
1942
1849
1582
1174
746
436
304
309
363
405
447
560
831
1252
1673
1902
1873
1705
1569
1517
1449
1264
979
703
531
491
586
819
1171
1588
2030
2501
3008
3490
3836
3984
3959
3812
3548
3146
2639
2126
1701
1398
1193
1062
994
972
963
941
910
891
894
918
966
1042
1130
1194
1211
1196
1180
1170
1110
917
549
81
-320
-510
-469
-300
-125
25
221
542
972
1379
1617
1626
1474
1288
1147
1037
904
748
632
605
633
638
589
532
513
501
417
237
29
-112
-149
-116
-67
-60
-137
-300
-492
-618
-643
-630
-659
-722
-727
-623
-475
-385
-374
-389
-378
-358
-361
-371
-341
-258
-171
-126
-111
-95
-67
-36
-10
0
-36
-125
-227
-265
-208
-115
-77
-109
-147
-139
-108
-123
-202
-299
-368
-414
-464
-506
-518
-503
-500
-540
-592
-614
-606
-609
-643
-674
-649
-569
-484
-442
-439
-437
-426
-425
-446
-471
-487
-541
-703
-993
-1347
-1659
-1889
-2085
-2286
-2432
-2383
-2046
-1447
-694
100
854
1488
1950
2250
2454
2632
2776
2829
2794
2789
2942
3261
3611
3867
4010
4081
4054
3805
3250
2466
1634
895
255
-329
-862
-1287
-1539
-1588
-1465
-1247
-1033
-888
-796
-690
-561
-486
-556
-741
-893
-893
-768
-635
-550
-405
-34
610
1371
2019
2458
2799
3222
3748
4199
4377
4253
3973
3666
3317
2841
2249
1666
1193
802
404
-18
-395
-665
-852
-1013
-1168
-1306
-1398
-1418
-1325
-1107
-819
-567
-405
-295
-159
6
121
109
-31
-233
-430
-601
-743
-845
-910
-980
-1100
-1292
-1512
-1696
-1819
-1920
-2077
-2327
-2627
-2887
-3047
-3107
-3106
-3066
-2977
-2851
-2746
-2735
-2825
-2953
-3057
-3145
-3279
-3516
-3855
-4246
-4609
-4865
-4984
-5011
-5051
-5185
-5360
-5426
-5308
-5118
-5047
-5159
-5298
-5257
-4991
-4652
-4417
-4303
-4183
-3935
-3543
-3067
-2581
-2131
-1737
-1386
-1043
-701
-415
-252
-193
-107
130
516
935
1307
1673
2119
2644
3129
3447
3588
3649
3720
3808
3856
3823
3721
3605
3535
3529
3559
3574
3537
3449
3341
3252
3193
3152
3120
3118
3178
3306
3449
3520
3469
3325
3170
3066
3010
2959
2890
2830
2825
2899
3027
3173
3303
3384
3383
3284
3097
2860
2606
2345
2073
1798
1546
1330
1138
947
744
525
280
-10
-353
-721
-1077
-1387
-1621
-1738
-1704
-1541
-1333
-1162
-1013
-800
-498
-207
-66
-101
-183
-174
-86
-70
-245
-565
-845
-928
-806
-597
-424
-299
-125
185
604
996
1226
1274
1219
1123
950
639
207
-227
-545
-731
-846
-940
-994
-971
-880
-787
-750
-775
-824
-858
-846
-776
-653
-508
-378
-285
-235
-219
-231
-269
-323
-372
-405
-427
-440
-434
-395
-339
-302
-308
-345
-384
-429
-510
-640
-780
-877
-914
-932
-973
-1034
-1073
-1062
-1038
-1065
-1156
-1253
-1286
-1253
-1224
-1259
-1351
-1453
-1572
-1775
-2096
-2462
-2729
-2812
-2736
-2560
-2281
-1845
-1253
-611
-46
403
778
1092
1267
1217
975
701
542
520
546
544
528
559
660
793
900
947
932
864
762
670
639
678
743
778
765
724
676
623
558
504
496
521
531
501
454
434
439
431
392
345
310
273
212
147
103
36
-182
-636
-1243
-1785
-2081
-2118
-1993
-1761
-1379
-800
-82
633
1219
1624
1839
1848
1651
1316
973
730
609
557
529
531
579
665
748
798
824
843
851
834
814
856
997
1186
1312
1313
1223
1113
995
821
574
330
214
282
460
617
665
596
453
292
158
86
85
138
218
324
498
770
1106
1402
1555
1563
1529
1569
1705
1866
2007
2188
2512
2979
3421
3651
3629
3472
3277
3009
2557
1908
1202
618
234
18
-93
-133
-118
-78
-45
-30
-23
-34
-83
-166
-264
-368
-496
-671
-867
-1015
-1059
-1010
-920
-820
-696
-534
-376
-305
-363
-506
-647
-750
-837
-942
-1054
-1119
-1107
-1042
-973
-940
-959
-1031
-1154
-1307
-1474
-1666
-1923
-2275
-2695
-3092
-3379
-3536
-3620
-3701
-3783
-3783
-3615
-3279
-2885
-2559
-2334
-2148
-1940
-1738
-1613
-1593
-1614
-1604
-1557
-1526
-1540
-1552
-1483
-1305
-1078
-909
-851
-859
-821
-665
-444
-309
-348
-508
-647
-674
-631
-615
-659
-711
-713
-656
-565
-469
-382
-311
-252
-189
-118
-71
-88
-160
-203
-151
-61
-71
-261
-557
-785
-841
-788
-787
-921
-1111
-1179
-1009
-664
-325
-138
-101
-85
22
193
316
328
278
265
345
470
539
505
429
426
540
695
748
635
452
356
402
487
471
329
167
87
91
116
123
119
85
-16
-156
-233
-168
-39
-21
-197
-454
-602
-575
-482
-456
-498
-538
-566
-658
-851
-1038
-1070
-953
-840
-861
-974
-1013
-878
-663
-556
-651
-893
-1141
-1286
-1276
-1113
-829
-478
-122
186
429
619
783
907
915
697
207
-444
-1018
-1323
-1381
-1398
-1544
-1746
-1762
-1455
-964
-604
-556
-691
-730
-524
-160
150
261
203
111
91
150
215
197
77
-71
-153
-127
-55
-5
21
93
240
412
513
512
452
405
389
357
259
97
-68
-159
-145
-55
37
100
165
236
230
62
-216
-388
-300
-82
-65
-410
-894
-1109
-885
-482
-294
-451
-756
-940
-945
-887
-861
-864
-886
-958
-1085
-1164
-1072
-832
-617
-581
-686
-742
-612
-381
-247
-288
-385
-364
-197
-22
36
25
97
296
513
607
562
467
370
263
165
140
231
369
451
475
525
641
758
786
726
669
655
597
390
63
-196
-207
3
202
180
-24
-171
-85
148
285
223
96
93
204
243
101
-110
-221
-234
-309
-543
-840
-1028
-1073
-1097
-1212
-1396
-1552
-1649
-1753
-1914
-2058
-2060
-1898
-1727
-1718
-1850
-1922
-1786
-1550
-1433
-1487
-1530
-1396
-1174
-1086
-1190
-1311
-1279
-1162
-1153
-1281
-1361
-1254
-1032
-872
-802
-657
-320
86
300
191
-97
-310
-326
-238
-185
-162
-8
407
1031
1673
2179
2531
2776
2892
2825
2569
2207
1809
1350
796
257
-49
-36
104
89
-141
-383
-445
-373
-378
-541
-716
-788
-872
-1126
-1456
-1513
-1107
-519
-258
-521
-975
-1115
-791
-320
-139
-383
-817
-1094
-1040
-744
-448
-353
-480
-685
-783
-718
-601
-600
-761
-958
-998
-808
-548
-477
-676
-905
-829
-446
-147
-280
-755
-1115
-1040
-703
-493
-576
-788
-907
-904
-872
-862
-874
-936
-1067
-1166
-1096
-895
-779
-857
-976
-903
-626
-346
-188
-71
109
257
149
-259
-691
-815
-602
-358
-432
-866
-1288
-1236
-614
145
434
102
-378
-436
-63
201
-48
-570
-786
-505
-135
-148
-503
-747
-584
-193
46
-12
-205
-337
-361
-350
-361
-416
-525
-679
-867
-1081
-1292
-1386
-1240
-885
-569
-569
-870
-1107
-949
-486
-139
-191
-487
-666
-613
-553
-731
-1105
-1421
-1540
-1588
-1757
-2019
-2125
-1876
-1332
-747
-291
76
473
886
1170
1240
1189
1155
1139
1051
883
764
779
828
756
563
407
383
386
280
91
-53
-109
-141
-179
-140
39
256
341
244
92
28
55
102
143
238
473
885
1438
2025
2521
2879
3165
3439
3603
3436
2828
1976
1260
882
699
423
-46
-484
-579
-265
183
422
376
276
336
499
513
274
-17
-110
-39
-85
-380
-684
-666
-338
-70
-143
-401
-459
-173
204
323
120
-169
-316
-326
-354
-503
-728
-905
-957
-899
-780
-658
-580
-588
-702
-892
-1063
-1110
-1008
-852
-757
-733
-688
-534
-295
-87
12
11
-53
-183
-392
-626
-792
-875
-970
-1174
-1440
-1593
-1531
-1349
-1250
-1339
-1521
-1617
-1539
-1341
-1121
-919
-718
-521
-365
-289
-294
-339
-373
-362
-291
-180
-67
36
174
394
669
893
981
956
903
855
761
583
379
247
208
189
134
79
99
190
268
263
200
150
149
167
168
149
128
101
50
-37
-173
-378
-663
-1001
-1306
-1489
-1515
-1418
-1252
-1045
-788
-465
-85
307
647
873
948
884
727
539
360
212
101
41
32
55
87
130
193
272
334
348
326
319
355
413
443
421
377
352
351
337
281
193
115
92
131
192
223
199
148
117
125
139
97
-40
-257
-494
-678
-747
-683
-508
-264
46
453
979
1560
2051
2325
2355
2210
1963
1635
1214
724
237
-178
-497
-724
-839
-816
-678
-511
-406
-367
-322
-218
-80
19
28
-40
-138
-214
-235
-207
-180
-223
-357
-510
-582
-555
-517
-567
-709
-866
-987
-1100
-1243
-1395
-1506
-1565
-1614
-1680
-1748
-1810
-1886
-1973
-2021
-2007
-1975
-1980
-1979
-1861
-1602
-1314
-1089
-876
-615
-404
-409
-541
-401
283
1205
1685
1385
715
383
593
828
456
-593
-1823
-2715
-3145
-3307
-3386
-3449
-3499
-3532
-3495
-3286
-2885
-2444
-2148
-2031
-1976
-1855
-1663
-1465
-1285
-1074
-827
-650
-662
-831
-951
-814
-436
-50
112
31
-107
-118
-16
8
-177
-502
-756
-816
-756
-740
-809
-867
-803
-648
-551
-600
-729
-802
-785
-785
-928
-1189
-1399
-1407
-1247
-1111
-1135
-1272
-1363
-1334
-1298
-1412
-1697
-2015
-2251
-2422
-2601
-2779
-2857
-2771
-2588
-2445
-2411
-2441
-2458
-2443
-2429
-2430
-2371
-2150
-1738
-1213
-709
-300
44
392
716
889
809
522
218
59
52
70
15
-50
5
219
456
553
471
324
223
135
-50
-344
-606
-701
-667
-685
-851
-1037
-1030
-759
-344
58
429
880
1463
2060
2463
2565
2441
2243
2029
1713
1221
654
225
52
11
-92
-301
-457
-395
-153
73
136
72
-14
-60
-60
-33
4
26
-12
-139
-324
-487
-553
-528
-492
-536
-666
-782
-792
-723
-715
-869
-1117
-1298
-1340
-1307
-1288
-1305
-1305
-1257
-1194
-1156
-1169
-1225
-1316
-1397
-1419
-1396
-1406
-1461
-1463
-1344
-1198
-1228
-1496
-1803
-1916
-1863
-1927
-2298
-2823
-3188
-3256
-3139
-3001
-2845
-2580
-2219
-1866
-1567
-1254
-882
-556
-457
-618
-893
-1097
-1176
-1210
-1285
-1404
-1516
-1571
-1546
-1450
-1325
-1250
-1289
-1423
-1556
-1599
-1536
-1446
-1404
-1407
-1397
-1342
-1280
-1264
-1281
-1253
-1152
-1039
-1002
-1033
-1025
-918
-788
-759
-851
-934
-900
-785
-711
-743
-825
-864
-836
-786
-779
-847
-968
-1086
-1149
-1189
-1294
-1497
-1690
-1703
-1504
-1286
-1282
-1483
-1635
-1539
-1282
-1142
-1253
-1463
-1513
-1340
-1102
-958
-910
-861
-776
-724
-798
-1032
-1398
-1815
-2154
-2290
-2229
-2117
-2128
-2247
-2261
-1985
-1454
-922
-595
-450
-294
16
413
709
791
723
652
622
547
370
197
183
316
361
148
-167
-255
13
378
501
401
419
741
1154
1307
1123
863
758
731
533
46
-585
-1062
-1196
-1037
-820
-759
-828
-747
-245
605
1409
1826
1872
1842
1918
2022
2007
1868
1670
1384
921
364
24
117
496
751
629
263
25
131
457
691
635
382
194
248
476
662
675
566
484
471
437
312
150
58
93
226
380
499
532
469
347
288
380
575
692
598
367
191
194
288
296
150
-15
-32
129
335
498
661
904
1224
1517
1686
1717
1654
1535
1422
1373
1393
1361
1161
918
933
1330
1848
2055
1835
1527
1530
1833
2092
2053
1808
1595
1499
1475
1486
1572
1681
1645
1382
1055
899
919
890
669
399
330
474
596
517
312
173
108
-40
-355
-704
-907
-1002
-1207
-1630
-2096
-2303
-2136
-1821
-1683
-1832
-2081
-2175
-2028
-1784
-1661
-1758
-1973
-2130
-2095
-1888
-1639
-1508
-1559
-1716
-1809
-1707
-1457
-1226
-1146
-1169
-1118
-919
-684
-566
-591
-654
-656
-612
-631
-756
-896
-955
-918
-850
-820
-842
-876
-874
-814
-756
-750
-771
-759
-699
-648
-677
-784
-928
-1104
-1334
-1552
-1591
-1379
-1026
-746
-550
-224
342
935
1184
999
690
560
524
227
-394
-962
-1086
-835
-663
-840
-1141
-1177
-903
-689
-847
-1230
-1463
-1391
-1187
-1062
-1004
-855
-587
-379
-419
-670
-944
-1109
-1155
-1152
-1175
-1258
-1366
-1369
-1190
-908
-745
-850
-1091
-1190
-1042
-861
-930
-1269
-1586
-1620
-1438
-1338
-1497
-1799
-1998
-1994
-1921
-1940
-2071
-2210
-2278
-2279
-2267
-2278
-2343
-2477
-2676
-2862
-2910
-2778
-2563
-2400
-2360
-2379
-2375
-2354
-2385
-2500
-2635
-2721
-2797
-2938
-3117
-3201
-3101
-2933
-2920
-3136
-3408
-3471
-3255
-2949
-2814
-2929
-3150
-3252
-3132
-2865
-2625
-2536
-2572
-2615
-2570
-2444
-2321
-2259
-2242
-2204
-2104
-1953
-1796
-1698
-1689
-1748
-1803
-1790
-1727
-1687
-1705
-1720
-1631
-1421
-1159
-919
-703
-461
-174
117
331
409
357
245
180
214
292
314
252
167
156
261
428
595
737
858
978
1117
1292
1495
1683
1819
1897
1942
1973
1986
1954
1875
1773
1690
1687
1797
1976
2121
2153
2123
2161
2321
2474
2424
2135
1785
1580
1557
1560
1441
1222
1042
985
993
952
828
699
630
570
413
141
-115
-203
-91
124
347
592
918
1296
1605
1748
1751
1695
1594
1372
978
469
-22
-411
-702
-927
-1079
-1139
-1136
-1164
-1270
-1409
-1493
-1502
-1522
-1620
-1748
-1777
-1640
-1415
-1239
-1171
-1148
-1106
-1056
-1063
-1138
-1203
-1198
-1156
-1163
-1248
-1356
-1437
-1507
-1624
-1804
-2013
-2214
-2417
-2644
-2869
-3035
-3110
-3135
-3180
-3268
-3367
-3430
-3436
-3409
-3378
-3371
-3399
-3441
-3462
-3445
-3408
-3383
-3367
-3317
-3210
-3071
-2946
-2843
-2731
-2589
-2436
-2306
-2201
-2097
-1979
-1857
-1732
-1573
-1364
-1150
-992
-917
-865
-753
-574
-405
-336
-373
-433
-429
-335
-193
-48
85
204
298
365
444
598
822
1004
1025
899
793
856
1060
1227
1237
1153
1131
1240
1391
1465
1440
1377
1332
1290
1213
1105
1011
955
902
798
623
429
293
234
185
52
-172
-370
-411
-292
-165
-183
-343
-489
-481
-327
-174
-144
-235
-335
-340
-243
-111
-5
90
224
390
502
499
445
491
704
954
1033
890
734
834
1233
1670
1836
1671
1390
1229
1228
1261
1217
1120
1055
1059
1098
1144
1198
1256
1322
1423
1594
1796
1904
1873
1846
2039
2473
2903
3081
3076
3219
3723
4414
4899
4955
4712
4453
4313
4199
3925
3400
2706
2043
1610
1466
1503
1558
1589
1689
1951
2305
2538
2482
2124
1598
1071
667
417
267
117
-88
-283
-353
-267
-145
-147
-322
-582
-796
-900
-910
-903
-967
-1125
-1259
-1162
-759
-266
-64
-336
-860
-1208
-1183
-1008
-1060
-1453
-1926
-2115
-1923
-1592
-1436
-1522
-1662
-1654
-1528
-1475
-1587
-1703
-1607
-1311
-1097
-1189
-1463
-1583
-1380
-1036
-861
-967
-1218
-1422
-1491
-1394
-1130
-795
-590
-612
-676
-469
50
531
624
424
403
832
1424
1651
1356
965
980
1414
1788
1708
1320
1132
1418
1933
2223
2148
1976
2009
2219
2357
2290
2162
2171
2296
2343
2239
2134
2182
2320
2332
2158
2012
2115
2367
2419
2083
1620
1493
1841
2264
2225
1641
981
796
1171
1672
1836
1617
1352
1360
1637
1928
2018
1899
1694
1475
1174
688
24
-663
-1157
-1335
-1227
-927
-467
190
1056
2051
3009
3750
4162
4214
3983
3623
3282
3021
2813
2625
2477
2424
2479
2590
2693
2763
2804
2799
2712
2544
2368
2279
2315
2422
2505
2493
2355
2112
1846
1691
1747
2010
2393
2840
3373
3994
4574
4898
4867
4593
4294
4071
3849
3539
3187
2941
2897
3030
3259
3516
3736
3837
3770
3581
3385
3259
3166
3023
2825
2661
2615
2697
2825
2897
2859
2731
2572
2420
2265
2076
1855
1659
1541
1476
1394
1260
1109
999
949
947
995
1102
1227
1300
1287
1241
1233
1250
1214
1103
1010
1037
1157
1219
1113
896
718
678
729
747
644
428
186
7
-70
-70
-64
-96
-167
-245
-306
-353
-380
-364
-312
-277
-306
-404
-517
-606
-680
-769
-877
-994
-1126
-1279
-1415
-1448
-1340
-1167
-1056
-1049
-1077
-1047
-980
-974
-1078
-1226
-1321
-1369
-1464
-1667
-1908
-2059
-2084
-2080
-2156
-2301
-2402
-2395
-2348
-2365
-2444
-2469
-2357
-2170
-2042
-2033
-2069
-2038
-1911
-1755
-1652
-1663
-1834
-2191
-2681
-3147
-3402
-3361
-3063
-2591
-2002
-1309
-533
272
1042
1720
2239
2539
2599
2474
2270
2090
1995
2003
2091
2210
2294
2297
2226
2123
2022
1914
1783
1636
1518
1490
1590
1816
2141
2519
2909
3289
3651
3959
4175
4298
4391
4508
4609
4570
4326
3964
3654
3495
3445
3426
3420
3454
3480
3368
3036
2576
2191
2007
1956
1866
1687
1577
1757
2250
2796
3046
2864
2407
1931
1531
1127
651
183
-141
-290
-366
-452
-503
-436
-279
-171
-211
-352
-462
-471
-415
-360
-324
-278
-204
-119
-71
-92
-183
-322
-483
-631
-729
-761
-768
-823
-974
-1196
-1429
-1649
-1886
-2167
-2453
-2665
-2769
-2816
-2876
-2960
-3018
-2999
-2898
-2742
-2552
-2341
-2124
-1919
-1734
-1571
-1440
-1349
-1277
-1169
-996
-793
-645
-605
-652
-717
-766
-829
-944
-1107
-1260
-1352
-1377
-1375
-1383
-1395
-1370
-1291
-1194
-1142
-1170
-1252
-1339
-1392
-1398
-1350
-1219
-986
-663
-294
80
434
750
998
1138
1162
1113
1052
1018
1003
996
1021
1123
1313
1553
1782
1972
2133
2276
2383
2432
2433
2427
2442
2467
2477
2475
2489
2539
2604
2644
2635
2595
2558
2537
2515
2469
2399
2325
2260
2194
2114
2032
1995
2039
2139
2221
2229
2167
2086
2017
1944
1842
1729
1654
1642
1666
1686
1696
1722
1775
1825
1827
1770
1680
1575
1438
1249
1023
819
685
614
570
544
566
660
807
964
1116
1279
1443
1565
1592
1530
1449
1406
1386
1335
1239
1138
1050
933
742
535
454
584
845
1087
1268
1513
1939
2460
2819
2841
2602
2323
2123
1914
1569
1111
716
534
549
622
642
607
567
541
497
414
300
183
86
28
16
22
-13
-129
-308
-476
-590
-684
-827
-1023
-1195
-1261
-1231
-1191
-1205
-1261
-1318
-1377
-1470
-1603
-1728
-1788
-1780
-1760
-1778
-1832
-1885
-1889
-1837
-1760
-1711
-1724
-1787
-1859
-1902
-1920
-1947
-2002
-2069
-2123
-2169
-2227
-2299
-2360
-2384
-2367
-2325
-2273
-2218
-2153
-2076
-1975
-1840
-1679
-1523
-1396
-1297
-1194
-1057
-876
-654
-395
-116
158
406
629
843
1042
1193
1280
1329
1368
1375
1290
1116
960
970
1194
1526
1810
1974
2079
2226
2459
2737
2971
3091
3087
3017
2956
2937
2929
2869
2733
2562
2412
2301
2196
2077
1959
1864
1782
1681
1550
1434
1373
1340
1265
1117
952
852
803
701
471
188
10
-3
18
-108
-407
-710
-852
-837
-807
-852
-901
-804
-496
-53
394
771
1084
1364
1608
1771
1808
1697
1472
1197
946
776
682
615
529
427
367
399
487
520
415
207
12
-87
-114
-146
-224
-330
-429
-503
-552
-583
-618
-687
-795
-900
-954
-950
-923
-886
-813
-664
-442
-191
83
429
869
1315
1610
1664
1520
1294
1043
731
338
-50
-284
-307
-202
-68
81
298
574
782
804
666
511
442
419
336
178
50
64
216
381
428
309
81
-155
-316
-379
-371
-340
-300
-217
-41
237
556
808
924
924
889
874
865
843
839
912
1053
1160
1138
1022
947
984
1050
1009
834
628
490
387
229
-3
-206
-300
-335
-445
-685
-959
-1118
-1108
-997
-888
-817
-754
-668
-560
-444
-329
-210
-96
-15
15
18
47
121
205
257
272
298
371
474
563
629
708
826
956
1040
1064
1067
1086
1114
1112
1057
950
812
678
595
592
633
642
592
545
569
629
630
550
481
517
609
635
568
528
619
753
735
482
122
-168
-351
-523
-749
-970
-1088
-1076
-980
-835
-659
-489
-403
-433
-490
-453
-318
-229
-306
-466
-494
-290
6
147
42
-171
-301
-322
-360
-489
-641
-713
-708
-698
-697
-641
-506
-392
-409
-518
-564
-462
-294
-208
-251
-344
-411
-468
-572
-721
-842
-889
-897
-949
-1089
-1277
-1433
-1507
-1509
-1479
-1415
-1285
-1051
-691
-180
495
1262
1943
2351
2458
2434
2487
2629
2626
2248
1531
783
326
249
382
469
381
175
-1
-13
186
541
917
1155
1151
965
809
878
1174
1488
1601
1517
1451
1605
1944
2232
2274
2091
1865
1764
1799
1841
1785
1665
1642
1818
2096
2264
2245
2201
2332
2623
2843
2849
2774
2879
3177
3368
3188
2741
2395
2370
2498
2421
1996
1450
1146
1242
1572
1822
1817
1664
1613
1789
2041
2092
1831
1462
1313
1469
1691
1660
1343
1033
1029
1327
1649
1743
1614
1463
1444
1516
1531
1401
1172
935
735
554
363
172
17
-78
-122
-138
-137
-119
-102
-109
-151
-185
-162
-85
-50
-136
-285
-314
-87
304
604
641
491
379
432
555
562
377
100
-114
-188
-152
-78
-22
-13
-45
-84
-92
-67
-51
-82
-147
-202
-215
-198
-179
-159
-132
-107
-104
-128
-159
-181
-199
-210
-174
-46
159
340
398
339
278
324
450
512
413
204
35
9
90
153
108
-34
-165
-187
-109
-61
-177
-453
-717
-787
-660
-536
-623
-893
-1118
-1124
-1006
-1005
-1238
-1570
-1782
-1805
-1735
-1631
-1449
-1133
-763
-456
-208
131
655
1201
1479
1364
1000
641
374
80
-358
-866
-1243
-1378
-1360
-1340
-1348
-1260
-998
-690
-550
-654
-835
-841
-608
-331
-263
-457
-723
-831
-707
-470
-320
-378
-630
-916
-1042
-924
-658
-443
-403
-492
-585
-604
-568
-533
-523
-561
-688
-905
-1112
-1165
-1031
-841
-775
-867
-979
-991
-936
-927
-990
-1005
-889
-762
-834
-1119
-1350
-1252
-881
-617
-778
-1267
-1663
-1639
-1260
-899
-870
-1138
-1392
-1339
-963
-520
-276
-264
-273
-101
228
482
510
427
477
741
1017
1039
794
542
582
956
1407
1603
1410
1036
859
1099
1601
1967
1940
1661
1510
1677
1992
2141
1995
1678
1349
1051
777
584
559
680
821
902
969
1103
1292
1435
1469
1425
1349
1257
1151
1071
1081
1178
1287
1332
1301
1233
1148
1042
905
742
578
456
420
472
563
627
644
654
691
736
755
759
787
831
829
767
731
814
976
1043
901
620
398
358
438
511
523
517
549
622
709
780
808
775
678
556
457
420
450
534
653
755
781
723
650
625
594
405
-26
-554
-869
-756
-315
140
408
582
928
1537
2202
2586
2537
2195
1795
1447
1130
836
637
573
577
548
495
550
792
1116
1296
1206
955
760
765
933
1097
1133
1087
1108
1283
1520
1623
1497
1276
1203
1375
1645
1808
1808
1751
1739
1761
1762
1730
1681
1592
1422
1198
1033
1007
1077
1133
1118
1043
912
715
509
415
481
584
535
291
15
-89
1
118
95
-66
-236
-312
-329
-371
-455
-502
-446
-337
-310
-428
-611
-732
-755
-743
-745
-719
-595
-377
-132
92
323
603
901
1146
1297
1374
1418
1458
1515
1599
1702
1794
1871
1965
2102
2257
2379
2458
2528
2597
2604
2496
2316
2177
2139
2148
2114
2022
1932
1901
1927
1980
2041
2097
2120
2079
1992
1909
1868
1858
1834
1763
1652
1523
1392
1250
1090
924
785
695
644
605
570
576
653
768
822
761
631
537
529
557
530
415
267
181
212
337
461
472
330
120
-10
8
84
62
-100
-270
-281
-126
38
71
-6
-56
-15
39
-5
-136
-232
-219
-167
-205
-352
-493
-522
-440
-336
-282
-277
-299
-360
-504
-743
-1036
-1324
-1561
-1724
-1791
-1727
-1495
-1090
-581
-76
337
632
792
760
463
-91
-764
-1396
-1918
-2361
-2728
-2945
-2937
-2734
-2446
-2136
-1782
-1374
-979
-694
-533
-412
-260
-103
-17
-44
-170
-347
-505
-552
-421
-121
246
566
823
1087
1389
1654
1747
1601
1302
1037
938
979
1002
881
663
530
615
848
1028
1021
884
780
806
903
942
843
619
330
37
-217
-422
-611
-830
-1055
-1177
-1090
-837
-601
-535
-628
-743
-777
-764
-801
-896
-949
-866
-635
-308
64
421
679
761
660
450
192
-122
-522
-989
-1470
-1963
-2518
-3124
-3643
-3915
-3937
-3880
-3898
-3953
-3878
-3594
-3208
-2899
-2741
-2676
-2639
-2634
-2694
-2810
-2911
-2934
-2882
-2795
-2683
-2509
-2239
-1906
-1588
-1350
-1188
-1055
-915
-766
-617
-463
-310
-195
-139
-96
3
149
233
188
100
135
311
434
327
74
-21
222
646
938
978
948
1081
1391
1688
1814
1797
1767
1802
1892
1995
2089
2158
2187
2176
2160
2170
2187
2159
2061
1933
1827
1751
1677
1585
1490
1411
1334
1232
1119
1040
1026
1048
1045
1022
1067
1256
1542
1782
1873
1833
1740
1637
1512
1386
1339
1425
1603
1793
1997
2306
2763
3254
3581
3646
3511
3284
2988
2577
2055
1520
1082
769
550
423
433
589
792
899
841
684
535
438
375
330
330
394
494
581
647
735
865
986
1017
945
841
787
801
836
855
859
854
829
764
660
534
404
278
151
20
-114
-243
-348
-407
-424
-434
-480
-575
-690
-782
-830
-847
-858
-885
-924
-963
-997
-1042
-1115
-1210
-1301
-1365
-1396
-1406
-1405
-1408
-1433
-1481
-1524
-1522
-1468
-1406
-1391
-1441
-1523
-1576
-1571
-1519
-1455
-1414
-1408
-1403
-1332
-1149
-880
-608
-395
-231
-62
118
261
324
314
276
239
203
168
145
136
113
47
-33
-65
-54
-142
-522
-1264
-2203
-3011
-3403
-3297
-2828
-2200
-1523
-768
143
1198
2212
2921
3147
2919
2440
1954
1605
1412
1327
1298
1304
1351
1459
1640
1858
2025
2038
1860
1567
1314
1215
1270
1383
1468
1505
1513
1485
1388
1225
1060
968
965
1004
1042
1079
1129
1172
1170
1117
1049
1010
1001
985
935
858
782
722
674
615
530
428
340
287
260
227
161
85
38
39
69
100
120
111
39
-105
-254
-286
-130
164
472
734
1006
1372
1805
2181
2385
2386
2207
1858
1336
666
-72
-771
-1325
-1641
-1670
-1462
-1172
-960
-869
-815
-710
-566
-472
-478
-525
-508
-362
-95
243
584
855
1003
1020
942
820
694
579
461
315
157
53
80
235
402
460
405
355
395
475
479
382
291
297
346
292
68
-230
-450
-532
-529
-501
-451
-359
-253
-204
-241
-320
-371
-375
-376
-412
-465
-488
-468
-451
-487
-579
-679
-751
-827
-968
-1180
-1394
-1530
-1585
-1616
-1670
-1714
-1690
-1597
-1497
-1437
-1382
-1251
-1015
-749
-556
-466
-410
-307
-155
-14
71
123
196
304
404
450
443
409
361
292
204
118
65
52
64
78
77
59
45
58
99
125
88
-11
-117
-186
-240
-320
-421
-476
-429
-309
-199
-128
-52
79
245
368
389
325
234
159
106
63
18
-29
-71
-88
-52
28
101
115
86
86
171
308
409
428
429
503
656
792
816
734
650
657
744
815
784
665
544
493
500
476
361
169
-14
-108
-103
-45
20
85
166
263
354
400
361
223
33
-117
-135
-5
227
522
907
1423
2031
2574
2898
2971
2885
2720
2468
2072
1549
1013
588
315
173
144
242
429
579
575
439
314
306
360
345
231
112
71
64
8
-88
-119
-31
63
-11
-295
-622
-765
-642
-388
-219
-259
-445
-598
-569
-381
-205
-195
-342
-492
-496
-346
-150
-7
58
65
46
16
-6
-40
-146
-346
-566
-677
-641
-549
-540
-644
-764
-809
-806
-862
-1051
-1339
-1629
-1848
-1964
-1973
-1879
-1712
-1518
-1343
-1204
-1095
-1005
-919
-811
-647
-415
-157
59
193
287
434
703
1064
1386
1548
1552
1538
1654
1900
2115
2150
2034
1943
2006
2167
2252
2168
1991
1864
1849
1905
1948
1920
1805
1640
1516
1525
1653
1763
1732
1593
1500
1539
1619
1557
1290
928
630
451
341
258
218
239
285
298
282
297
361
399
302
81
-108
-99
80
232
193
26
-54
60
227
197
-96
-456
-640
-600
-489
-459
-492
-476
-368
-241
-163
-108
-13
102
140
71
4
83
314
531
578
472
394
487
695
822
723
449
193
112
171
187
38
-205
-364
-361
-295
-304
-372
-330
-56
386
831
1203
1571
2003
2440
2756
2895
2920
2888
2714
2258
1528
760
245
55
-19
-211
-515
-676
-488
-40
351
445
252
-45
-274
-383
-419
-488
-681
-979
-1223
-1238
-1033
-835
-861
-1071
-1235
-1221
-1139
-1168
-1298
-1365
-1303
-1254
-1372
-1566
-1589
-1373
-1160
-1232
-1551
-1787
-1692
-1368
-1125
-1147
-1338
-1490
-1499
-1394
-1252
-1142
-1105
-1128
-1130
-1031
-880
-820
-924
-1079
-1116
-1038
-1032
-1227
-1523
-1711
-1716
-1654
-1661
-1735
-1791
-1807
-1820
-1813
-1678
-1377
-1069
-979
-1148
-1361
-1369
-1185
-1061
-1232
-1678
-2162
-2477
-2595
-2592
-2496
-2252
-1818
-1257
-687
-162
356
925
1497
1911
2021
1842
1554
1345
1237
1114
895
650
533
608
782
926
1021
1127
1244
1264
1094
809
613
630
742
710
433
78
-83
33
228
241
46
-100
59
499
937
1131
1087
1043
1211
1577
1909
1972
1740
1431
1307
1409
1547
1523
1387
1363
1538
1704
1636
1387
1231
1315
1435
1264
749
195
-62
-8
85
-41
-370
-670
-720
-489
-144
106
149
14
-147
-171
-46
89
75
-119
-356
-460
-384
-273
-321
-574
-868
-956
-694
-142
535
1188
1787
2413
3156
3990
4735
5161
5168
4886
4571
4372
4226
3980
3580
3124
2760
2596
2612
2672
2607
2341
1974
1692
1547
1395
1098
722
469
408
379
228
58
152
607
1129
1320
1091
776
765
1101
1411
1291
741
181
76
456
868
827
317
-189
-227
165
541
536
238
13
70
277
357
164
-220
-611
-860
-910
-788
-578
-388
-301
-324
-387
-384
-250
-75
-57
-344
-839
-1244
-1300
-1036
-741
-672
-829
-1006
-1029
-888
-677
-472
-311
-239
-299
-450
-529
-387
-77
144
44
-339
-703
-758
-471
-70
179
184
59
-5
97
335
572
675
615
496
460
560
720
817
798
709
625
584
589
629
685
717
703
666
665
720
780
775
701
624
604
630
650
640
635
685
790
921
1040
1128
1168
1152
1102
1066
1079
1123
1155
1175
1234
1364
1519
1617
1638
1633
1633
1585
1425
1196
1042
1063
1219
1391
1537
1725
2022
2384
2696
2889
2971
2974
2896
2730
2521
2345
2230
2139
2017
1865
1726
1630
1562
1487
1401
1311
1214
1085
912
700
452
161
-159
-435
-571
-531
-372
-161
118
541
1131
1753
2192
2319
2170
1868
1499
1092
666
264
-85
-392
-654
-800
-756
-559
-379
-369
-524
-681
-711
-650
-617
-664
-717
-692
-605
-552
-590
-671
-710
-678
-623
-605
-630
-650
-621
-543
-464
-423
-428
-449
-460
-461
-475
-513
-551
-565
-558
-565
-614
-688
-733
-720
-670
-645
-687
-782
-867
-907
-921
-965
-1058
-1171
-1263
-1327
-1380
-1414
-1411
-1380
-1356
-1350
-1321
-1201
-1018
-874
-852
-896
-870
-725
-567
-539
-638
-723
-690
-600
-581
-600
-447
55
818
1522
1894
1900
1699
1420
1043
470
-323
-1242
-2113
-2764
-3083
-3053
-2785
-2458
-2198
-2026
-1894
-1789
-1762
-1839
-1975
-2094
-2165
-2197
-2165
-2006
-1703
-1361
-1118
-1041
-1103
-1247
-1435
-1618
-1738
-1803
-1919
-2189
-2541
-2779
-2821
-2830
-3035
-3412
-3651
-3492
-3008
-2503
-2159
-1862
-1401
-757
-119
349
653
894
1088
1155
1050
864
752
773
844
848
777
734
817
999
1134
1103
931
753
658
610
522
369
234
210
295
384
373
248
65
-120
-302
-507
-719
-870
-913
-894
-926
-1057
-1208
-1260
-1201
-1129
-1088
-972
-653
-182
215
394
473
688
1086
1462
1612
1600
1677
1977
2362
2600
2610
2492
2344
2140
1812
1374
927
547
219
-95
-376
-560
-619
-596
-569
-591
-664
-773
-915
-1074
-1200
-1222
-1113
-923
-754
-675
-677
-707
-736
-776
-841
-913
-960
-970
-960
-965
-1006
-1076
-1151
-1208
-1247
-1293
-1359
-1418
-1411
-1324
-1224
-1199
-1257
-1312
-1291
-1208
-1144
-1141
-1163
-1166
-1164
-1194
-1252
-1292
-1291
-1291
-1342
-1432
-1511
-1553
-1579
-1610
-1623
-1602
-1579
-1608
-1690
-1761
-1760
-1697
-1635
-1618
-1628
-1640
-1658
-1705
-1767
-1799
-1770
-1693
-1593
-1452
-1237
-950
-634
-334
-53
214
442
592
661
693
731
775
795
794
806
844
871
838
743
626
520
426
334
244
159
76
-4
-74
-131
-180
-229
-270
-289
-304
-352
-412
-395
-238
-6
146
139
55
37
123
218
233
181
146
170
214
228
213
205
222
237
217
149
55
-29
-75
-103
-168
-298
-457
-569
-609
-615
-628
-619
-539
-399
-270
-211
-188
-144
-95
-112
-216
-340
-400
-382
-348
-343
-347
-332
-327
-389
-534
-704
-835
-917
-981
-1014
-933
-646
-171
351
758
981
1058
1048
940
685
266
-243
-723
-1092
-1342
-1504
-1589
-1605
-1562
-1472
-1361
-1260
-1189
-1170
-1219
-1314
-1386
-1346
-1161
-924
-802
-900
-1137
-1295
-1216
-921
-545
-154
292
850
1463
1987
2335
2537
2652
2664
2492
2124
1690
1393
1324
1396
1434
1354
1230
1201
1293
1399
1384
1217
993
825
730
632
458
227
27
-93
-180
-349
-656
-1020
-1279
-1324
-1196
-1009
-854
-744
-645
-542
-455
-407
-392
-388
-380
-350
-308
-275
-280
-353
-503
-698
-876
-965
-927
-784
-590
-365
-80
301
759
1215
1579
1791
1833
1707
1451
1138
830
537
228
-93
-362
-512
-549
-559
-619
-727
-831
-916
-999
-1088
-1147
-1135
-1053
-947
-861
-810
-789
-794
-836
-917
-1028
-1143
-1218
-1211
-1111
-949
-784
-648
-511
-327
-97
118
241
266
254
270
313
338
305
238
199
230
315
388
393
331
253
211
211
217
213
225
285
393
515
630
735
829
881
863
794
736
724
725
674
561
452
407
422
452
462
448
415
345
215
30
-189
-392
-506
-470
-276
-4
261
518
847
1275
1694
1925
1892
1684
1431
1168
842
441
52
-215
-339
-375
-364
-285
-122
80
227
269
238
202
194
204
214
218
226
248
274
288
278
248
201
133
43
-54
-145
-222
-289
-332
-305
-190
-43
28
-39
-200
-344
-421
-486
-618
-822
-1007
-1085
-1053
-974
-918
-912
-945
-1002
-1070
-1142
-1236
-1363
-1501
-1609
-1670
-1710
-1758
-1803
-1817
-1814
-1846
-1954
-2096
-2226
-2396
-2750
-3376
-4154
-4827
-5224
-5399
-5506
-5589
-5500
-5057
-4276
-3363
-2535
-1843
-1202
-540
118
701
1190
1619
2007
2339
2595
2766
2830
2741
2472
2088
1728
1469
1244
943
588
366
417
633
738
590
313
148
161
196
99
-87
-175
-76
109
232
247
199
123
50
31
109
228
229
66
-77
16
298
459
268
-122
-295
-41
412
682
632
457
404
506
607
546
308
-8
-275
-415
-426
-369
-304
-235
-93
178
527
801
874
763
644
709
988
1281
1338
1142
969
1106
1508
1791
1626
1091
578
371
428
583
796
1118
1469
1630
1509
1290
1223
1280
1172
754
264
115
469
1084
1644
2058
2442
2851
3133
3122
2874
2612
2434
2187
1689
1028
535
447
633
745
599
339
212
289
440
551
646
768
869
867
780
726
765
784
622
273
-88
-257
-193
-28
79
61
-22
-43
79
314
548
674
658
540
392
256
138
56
28
68
151
217
225
223
315
557
839
941
755
407
161
148
248
260
102
-137
-339
-446
-421
-257
-65
-67
-372
-802
-1036
-962
-806
-851
-1092
-1274
-1232
-1108
-1134
-1344
-1568
-1656
-1648
-1685
-1820
-2013
-2169
-2176
-1958
-1568
-1249
-1235
-1468
-1589
-1325
-848
-661
-997
-1513
-1634
-1181
-578
-345
-545
-778
-712
-427
-213
-192
-263
-318
-387
-481
-395
-393
-323
-504
-826
-893
-504
11
104
-311
-737
-707
-345
-183
-474
-914
-1060
-858
-615
-536
-519
-413
-295
-381
-694
-1014
-1154
-1161
-1201
-1316
-1385
-1341
-1230
-1090
-885
-592
-301
-166
-225
-359
-450
-495
-533
-546
-504
-469
-571
-826
-1080
-1192
-1200
-1236
-1331
-1387
-1354
-1342
-1465
-1627
-1601
-1329
-1065
-1119
-1519
-1996
-2270
-2307
-2254
-2212
-2165
-2103
-2087
-2090
-1873
-1199
-179
643
752
227
-278
-216
258
443
-136
-1186
-1979
-2089
-1753
-1534
-1753
-2265
-2677
-2752
-2560
-2356
-2326
-2424
-2441
-2229
-1883
-1643
-1601
-1600
-1418
-1036
-677
-537
-562
-504
-196
257
596
637
440
223
148
186
171
-12
-294
-486
-470
-289
-79
68
145
178
184
169
158
140
77
-39
-129
-108
10
108
105
46
44
118
182
180
160
202
274
254
86
-119
-195
-122
-35
-82
-250
-389
-367
-198
-28
32
34
124
375
695
925
995
970
926
854
714
549
449
417
350
215
138
258
489
585
416
113
-104
-181
-252
-433
-674
-862
-934
-878
-690
-410
-188
-143
-173
-39
324
659
644
278
-109
-246
-178
-96
-80
-74
-71
-164
-377
-545
-467
-150
156
212
44
-103
2
350
702
816
629
373
346
633
1021
1196
1058
805
719
910
1246
1476
1443
1217
1037
1089
1319
1459
1310
990
816
939
1149
1148
932
762
769
745
456
41
-75
235
569
435
-108
-468
-222
350
547
87
-553
-701
-288
112
-9
-475
-630
-86
868
1640
1955
2040
2265
2684
2969
2781
2123
1321
751
529
466
274
-113
-424
-294
329
1054
1353
1089
671
658
1160
1729
1817
1350
788
627
906
1244
1311
1127
918
848
896
995
1139
1297
1384
1357
1304
1350
1493
1595
1555
1446
1386
1370
1320
1239
1259
1436
1652
1732
1642
1465
1220
838
341
-37
-52
276
662
862
931
1125
1575
2139
2540
2633
2478
2240
2054
1950
1891
1828
1753
1701
1701
1723
1702
1603
1454
1311
1204
1107
1000
898
864
945
1119
1290
1353
1281
1147
1065
1079
1101
1002
772
565
541
682
793
707
488
369
495
752
890
788
552
371
298
236
123
33
62
182
240
150
-2
-53
37
144
122
-39
-222
-313
-295
-232
-201
-231
-291
-318
-269
-170
-76
0
102
269
456
562
563
551
609
692
686
583
512
597
815
1023
1157
1279
1436
1558
1542
1427
1378
1474
1569
1446
1093
762
708
914
1133
1175
1100
1103
1271
1509
1675
1739
1764
1784
1771
1715
1666
1643
1593
1449
1228
1009
811
575
267
-22
-152
-87
98
360
745
1256
1755
2059
2148
2173
2218
2164
1822
1193
494
-66
-456
-751
-1001
-1227
-1531
-2062
-2829
-3612
-4158
-4409
-4504
-4531
-4356
-3768
-2744
-1514
-364
573
1317
1890
2200
2120
1653
974
331
-123
-390
-562
-714
-844
-878
-740
-436
-67
204
262
134
-28
-98
-91
-120
-255
-446
-606
-738
-897
-1081
-1182
-1100
-878
-690
-672
-796
-934
-991
-976
-958
-968
-982
-950
-837
-653
-460
-348
-368
-494
-669
-872
-1122
-1423
-1734
-1985
-2128
-2185
-2208
-2230
-2241
-2216
-2159
-2092
-2024
-1928
-1775
-1576
-1359
-1089
-629
140
1143
2094
2693
2867
2777
2616
2410
2056
1497
827
222
-180
-338
-275
-55
226
454
545
490
353
209
82
-53
-233
-457
-653
-723
-621
-399
-168
-27
-8
-64
-122
-140
-119
-71
30
200
416
632
858
1181
1658
2228
2758
3186
3557
3886
4055
3916
3500
3030
2696
2471
2189
1774
1320
954
692
466
233
17
-161
-298
-369
-314
-107
200
505
741
915
1062
1209
1357
1472
1480
1336
1118
989
1048
1216
1321
1287
1195
1145
1121
1016
791
549
441
529
758
1039
1334
1670
2076
2533
2963
3268
3386
3321
3109
2773
2318
1773
1215
734
382
144
-2
-55
-10
102
214
270
264
234
220
229
247
259
277
328
419
520
604
676
776
928
1104
1243
1305
1303
1281
1259
1215
1125
1000
887
822
803
794
780
781
825
890
915
863
758
657
566
439
253
52
-100
-201
-313
-476
-660
-816
-953
-1114
-1311
-1495
-1624
-1717
-1831
-1973
-2082
-2092
-2011
-1918
-1893
-1947
-2026
-2070
-2075
-2086
-2143
-2226
-2284
-2295
-2295
-2314
-2334
-2304
-2204
-2076
-1982
-1925
-1839
-1680
-1478
-1303
-1185
-1082
-921
-692
-478
-383
-423
-507
-517
-440
-385
-453
-614
-733
-719
-641
-630
-718
-823
-860
-859
-892
-942
-896
-695
-415
-176
0
185
392
506
407
114
-238
-547
-837
-1173
-1507
-1680
-1563
-1171
-623
-42
501
978
1364
1632
1766
1746
1566
1263
925
657
510
457
451
472
538
647
767
851
880
866
829
784
746
727
735
755
763
755
743
744
759
768
754
717
677
655
645
638
622
592
539
450
330
199
53
-152
-454
-806
-1065
-1097
-882
-529
-149
262
778
1417
2068
2570
2835
2872
2723
2414
1972
1457
942
470
52
-286
-472
-453
-258
-3
203
341
457
570
649
645
559
445
350
278
206
125
47
-24
-111
-234
-384
-524
-629
-693
-703
-644
-514
-344
-182
-55
37
101
113
29
-168
-435
-677
-799
-758
-586
-370
-182
-36
104
265
414
485
448
332
206
115
64
51
71
112
148
153
141
146
183
224
240
249
309
443
596
695
731
735
706
568
253
-198
-635
-932
-1075
-1103
-994
-664
-81
640
1314
1822
2179
2440
2589
2551
2296
1911
1545
1298
1162
1071
988
938
956
1019
1045
975
838
718
663
646
615
569
569
654
786
858
813
691
587
554
546
498
412
362
396
456
437
299
121
5
-44
-104
-219
-326
-326
-200
-25
131
273
447
650
806
859
836
819
841
855
812
740
725
801
901
934
886
839
866
933
935
810
619
487
484
576
673
745
826
963
1139
1281
1338
1334
1338
1370
1362
1237
1031
882
871
918
878
732
652
825
1240
1692
2015
2250
2543
2918
3229
3329
3231
3072
2928
2726
2371
1878
1397
1084
962
939
902
826
787
856
999
1098
1062
910
760
696
688
653
565
493
504
572
611
581
546
609
777
929
919
735
528
459
532
594
530
398
357
454
568
568
468
393
395
399
337
257
250
306
300
168
6
-40
54
138
62
-136
-289
-308
-296
-409
-629
-767
-699
-567
-653
-1037
-1468
-1620
-1457
-1255
-1260
-1411
-1453
-1252
-935
-697
-601
-592
-633
-737
-889
-1002
-1024
-1000
-1029
-1128
-1253
-1340
-1361
-1316
-1222
-1148
-1180
-1315
-1436
-1434
-1323
-1202
-1097
-950
-724
-500
-396
-405
-426
-426
-507
-750
-1041
-1170
-1088
-965
-956
-970
-759
-259
253
433
232
-56
-137
-21
43
-95
-302
-350
-155
174
518
874
1243
1499
1501
1310
1208
1394
1741
1885
1625
1168
900
1011
1321
1503
1408
1171
1042
1146
1401
1622
1663
1503
1222
926
679
499
389
354
373
401
431
505
670
877
1016
1034
997
1009
1079
1117
1082
1063
1168
1368
1520
1537
1480
1444
1420
1319
1148
1049
1143
1374
1586
1734
1941
2330
2830
3225
3360
3262
3046
2776
2428
1973
1463
984
598
332
210
246
430
703
987
1227
1406
1522
1571
1555
1476
1344
1178
1014
889
797
690
539
393
345
419
499
437
233
71
129
363
544
497
296
159
214
369
436
342
166
39
18
73
140
164
138
104
131
229
315
288
153
20
-10
20
-18
-171
-329
-375
-338
-361
-506
-664
-696
-649
-715
-981
-1276
-1342
-1130
-884
-875
-1115
-1351
-1354
-1161
-986
-970
-1056
-1102
-1047
-933
-818
-710
-591
-457
-329
-247
-283
-501
-900
-1364
-1702
-1811
-1761
-1676
-1564
-1276
-694
87
790
1197
1329
1373
1445
1479
1337
1018
676
469
444
536
647
698
649
535
440
416
389
237
-53
-332
-423
-310
-153
-76
-46
38
150
131
-117
-465
-666
-622
-495
-531
-778
-1002
-920
-528
-161
-163
-523
-890
-944
-740
-625
-833
-1203
-1347
-1076
-628
-389
-475
-607
-428
80
544
591
273
44
286
872
1296
1191
690
258
199
421
595
522
300
155
198
319
307
102
-133
-187
-66
26
-39
-80
234
984
1850
2423
2584
2538
2498
2479
2399
2240
2004
1605
990
340
30
223
618
729
414
23
-60
132
236
57
-198
-256
-148
-118
-236
-266
-23
332
463
299
125
217
493
593
292
-239
-638
-708
-552
-415
-444
-549
-497
-133
456
992
1263
1293
1253
1209
1043
679
293
128
163
106
-215
-578
-601
-227
174
235
14
-164
-160
-156
-289
-353
-77
380
449
-206
-1193
-1704
-1390
-756
-607
-1115
-1658
-1562
-846
-147
46
-119
-176
32
218
117
-116
-107
229
576
610
388
246
366
573
595
416
234
203
288
388
507
699
939
1127
1223
1275
1323
1323
1240
1144
1169
1311
1391
1240
897
589
497
582
651
572
392
250
225
260
259
204
161
187
249
275
258
292
448
671
807
775
671
647
743
850
862
810
818
943
1101
1165
1106
1015
999
1070
1130
1085
943
811
786
851
893
825
685
567
526
557
661
878
1219
1585
1850
2002
2149
2365
2559
2590
2453
2299
2258
2273
2190
1980
1785
1720
1712
1583
1295
1030
981
1131
1303
1415
1602
2044
2685
3198
3268
2881
2323
1886
1639
1454
1221
995
924
1093
1459
1890
2250
2452
2480
2372
2204
2040
1886
1703
1472
1242
1088
1032
1013
955
839
717
617
508
347
171
89
151
275
311
212
64
-21
-42
-95
-235
-398
-480
-452
-395
-414
-534
-686
-785
-813
-823
-879
-992
-1097
-1120
-1070
-1027
-1062
-1162
-1252
-1282
-1271
-1259
-1270
-1316
-1415
-1564
-1691
-1696
-1550
-1373
-1323
-1436
-1565
-1543
-1365
-1186
-1141
-1202
-1231
-1163
-1085
-1103
-1191
-1199
-1034
-790
-656
-683
-716
-577
-284
-44
-23
-159
-248
-191
-94
-105
-227
-324
-304
-223
-207
-273
-313
-238
-75
59
97
79
92
173
293
406
485
515
474
355
214
142
189
310
403
420
393
373
300
27
-530
-1248
-1870
-2231
-2351
-2326
-2167
-1807
-1230
-528
172
818
1373
1750
1905
1989
2293
2950
3717
4158
4063
3615
3102
2578
1852
794
-454
-1576
-2333
-2668
-2633
-2300
-1766
-1183
-689
-335
-100
39
62
-40
-196
-284
-223
-41
168
337
463
579
669
664
538
381
315
363
428
420
391
474
711
987
1186
1343
1618
2122
2786
3451
4011
4424
4630
4545
4147
3541
2891
2282
1679
1013
293
-371
-859
-1120
-1211
-1259
-1376
-1580
-1794
-1934
-1986
-2016
-2096
-2214
-2289
-2263
-2158
-2024
-1889
-1741
-1573
-1421
-1355
-1433
-1652
-1940
-2214
-2452
-2712
-3082
-3591
-4154
-4620
-4845
-4757
-4353
-3697
-2899
-2082
-1331
-667
-81
424
816
1049
1102
1000
828
720
791
1033
1293
1376
1222
968
825
867
978
976
802
562
402
376
417
416
311
111
-144
-423
-708
-957
-1111
-1123
-1016
-877
-791
-771
-762
-708
-622
-567
-571
-594
-570
-490
-417
-408
-436
-419
-317
-196
-163
-237
-322
-327
-286
-325
-503
-721
-834
-817
-798
-901
-1103
-1268
-1288
-1171
-987
-783
-576
-384
-222
-77
75
222
298
249
103
-42
-105
-69
39
195
381
569
726
831
902
963
1003
985
883
720
569
499
519
573
587
536
467
437
448
451
410
360
367
457
572
631
609
551
520
529
556
589
637
694
717
670
570
479
434
416
370
276
181
149
181
225
237
216
178
120
30
-58
-48
123
412
712
983
1302
1741
2218
2509
2447
2085
1629
1237
896
520
99
-262
-446
-428
-268
-40
211
449
628
701
670
568
404
143
-238
-689
-1088
-1328
-1412
-1438
-1463
-1432
-1231
-823
-290
243
714
1101
1346
1346
1044
527
-6
-408
-689
-929
-1125
-1128
-802
-196
466
978
1298
1498
1614
1601
1439
1209
1024
896
731
482
246
186
370
700
995
1122
1068
909
753
661
591
457
242
21
-117
-160
-170
-194
-206
-158
-66
6
28
33
50
52
12
-31
5
138
279
330
298
271
283
241
31
-305
-561
-559
-332
-77
70
164
359
695
1038
1219
1192
1045
898
799
725
636
516
369
212
70
-49
-164
-298
-434
-537
-603
-666
-740
-769
-691
-527
-385
-359
-425
-488
-504
-519
-576
-625
-569
-391
-186
-66
-39
-15
75
204
291
307
302
343
434
523
576
622
712
841
940
953
921
946
1078
1250
1353
1361
1348
1374
1398
1316
1098
828
613
478
380
294
237
208
156
30
-143
-278
-328
-331
-357
-404
-394
-278
-97
44
86
81
142
340
636
917
1131
1343
1650
2030
2310
2300
1977
1509
1076
690
210
-473
-1282
-1975
-2323
-2245
-1836
-1256
-629
-4
622
1250
1834
2294
2555
2574
2371
2023
1655
1364
1170
1023
863
702
595
576
608
618
561
436
259
36
-207
-422
-557
-606
-623
-676
-803
-993
-1193
-1344
-1427
-1471
-1513
-1569
-1607
-1591
-1520
-1414
-1302
-1195
-1097
-993
-855
-657
-419
-213
-109
-113
-158
-172
-153
-169
-311
-621
-1062
-1550
-1995
-2323
-2481
-2426
-2146
-1677
-1100
-498
95
673
1189
1553
1670
1531
1231
899
618
416
281
188
103
7
-91
-142
-107
-10
81
102
43
-30
-25
94
283
442
506
478
401
313
251
269
400
577
671
611
472
366
300
175
-78
-414
-756
-1096
-1418
-1589
-1460
-1088
-744
-620
-557
-190
567
1388
1891
2041
2095
2205
2213
1931
1449
1055
905
900
904
933
1046
1180
1189
1052
914
835
661
219
-393
-846
-923
-753
-616
-633
-696
-685
-614
-523
-366
-129
27
-121
-563
-971
-1034
-825
-706
-878
-1168
-1290
-1231
-1223
-1365
-1462
-1307
-1055
-1106
-1605
-2197
-2387
-2084
-1668
-1470
-1363
-950
-106
784
1241
1245
1181
1314
1427
1083
258
-510
-656
-212
216
107
-421
-772
-553
9
359
204
-195
-348
-53
442
743
720
562
527
641
728
621
352
76
-80
-96
-8
126
228
258
244
269
383
528
582
510
389
296
223
101
-79
-239
-319
-363
-460
-617
-736
-719
-590
-478
-523
-740
-1005
-1141
-1063
-865
-729
-754
-845
-817
-617
-393
-343
-474
-600
-560
-400
-303
-346
-389
-252
60
347
427
336
251
273
329
295
170
80
102
181
204
149
120
209
392
546
583
532
498
551
667
775
841
872
879
847
774
714
749
882
1005
999
874
762
789
921
1010
966
855
822
908
1007
985
828
650
571
602
659
666
618
560
504
415
274
126
40
28
25
-38
-162
-287
-360
-378
-372
-370
-391
-452
-557
-666
-712
-651
-518
-394
-356
-428
-564
-681
-711
-658
-607
-643
-785
-953
-1015
-895
-635
-376
-249
-285
-383
-429
-409
-396
-449
-533
-585
-622
-709
-826
-836
-640
-354
-243
-416
-665
-653
-285
171
374
291
251
596
1294
1943
2178
2032
1838
1807
1770
1409
689
-41
-449
-611
-903
-1472
-1984
-1995
-1496
-969
-855
-1070
-1161
-862
-398
-194
-413
-836
-1170
-1330
-1413
-1488
-1511
-1421
-1229
-984
-687
-313
82
358
448
441
482
608
694
616
410
261
304
469
569
486
287
129
133
262
351
246
-72
-461
-730
-798
-769
-811
-999
-1257
-1452
-1532
-1533
-1514
-1506
-1534
-1599
-1682
-1723
-1662
-1500
-1300
-1165
-1205
-1459
-1797
-1958
-1791
-1463
-1351
-1620
-1993
-2007
-1535
-938
-659
-740
-830
-661
-355
-225
-378
-600
-596
-295
123
413
436
256
98
180
503
812
803
468
151
208
646
1115
1276
1118
867
690
575
472
403
390
357
186
-105
-311
-254
15
278
390
390
406
483
558
564
532
559
705
930
1133
1243
1298
1404
1601
1777
1771
1546
1265
1121
1147
1216
1219
1207
1302
1519
1714
1739
1617
1502
1491
1510
1408
1135
818
637
657
804
972
1083
1082
959
778
671
718
834
818
579
238
7
-29
36
70
17
-117
-325
-559
-691
-602
-323
-55
27
-23
52
481
1205
1897
2248
2255
2226
2414
2701
2693
2194
1471
983
877
857
556
4
-425
-453
-170
110
176
53
-84
-68
144
408
485
283
12
-13
251
460
245
-340
-860
-987
-838
-758
-848
-850
-526
14
449
642
760
1010
1329
1457
1262
916
693
678
717
644
495
437
542
688
699
554
387
319
313
238
42
-176
-300
-327
-350
-414
-471
-490
-555
-794
-1210
-1638
-1890
-1903
-1734
-1445
-1037
-507
92
693
1283
1856
2332
2555
2438
2072
1650
1318
1092
921
778
681
645
660
703
747
753
688
565
427
293
137
-77
-303
-427
-369
-181
-16
7
-87
-156
-72
161
421
564
528
352
124
-77
-213
-287
-336
-413
-545
-705
-816
-811
-720
-644
-664
-734
-744
-643
-502
-418
-392
-328
-157
48
158
122
8
-94
-162
-219
-256
-247
-223
-264
-384
-456
-344
-82
125
125
-2
-71
-36
-49
-246
-565
-824
-955
-1054
-1199
-1335
-1340
-1227
-1134
-1150
-1218
-1242
-1216
-1203
-1245
-1303
-1340
-1385
-1471
-1564
-1603
-1596
-1643
-1822
-2074
-2251
-2241
-2078
-1879
-1705
-1490
-1109
-545
45
450
586
546
454
317
42
-392
-869
-1235
-1456
-1611
-1759
-1868
-1876
-1790
-1668
-1548
-1409
-1253
-1133
-1081
-1045
-949
-801
-727
-862
-1222
-1687
-2118
-2446
-2666
-2769
-2715
-2463
-2029
-1491
-953
-482
-87
259
557
751
787
700
618
665
841
1045
1188
1265
1307
1301
1180
916
559
185
-172
-522
-864
-1152
-1335
-1408
-1426
-1453
-1503
-1559
-1607
-1660
-1720
-1733
-1602
-1256
-737
-202
171
289
178
-42
-240
-367
-496
-758
-1205
-1706
-2039
-2098
-2001
-1997
-2236
-2648
-3045
-3300
-3417
-3460
-3464
-3404
-3237
-2929
-2470
-1887
-1272
-736
-335
-33
247
540
779
868
838
867
1102
1451
1632
1488
1164
946
905
831
560
271
318
777
1262
1296
815
190
-215
-423
-726
-1282
-1931
-2388
-2550
-2527
-2455
-2366
-2251
-2148
-2130
-2219
-2352
-2454
-2499
-2485
-2395
-2233
-2047
-1886
-1742
-1549
-1301
-1086
-985
-928
-725
-275
310
848
1302
1755
2178
2324
1975
1237
501
52
-179
-440
-795
-1060
-1087
-996
-1038
-1277
-1526
-1587
-1465
-1320
-1237
-1143
-953
-719
-611
-735
-1027
-1305
-1412
-1314
-1083
-800
-459
14
648
1344
1904
2171
2112
1789
1284
665
14
-566
-998
-1264
-1396
-1423
-1381
-1324
-1302
-1332
-1407
-1527
-1709
-1934
-2120
-2175
-2099
-1992
-1957
-2007
-2080
-2122
-2119
-2085
-2026
-1944
-1849
-1759
-1665
-1561
-1461
-1400
-1380
-1365
-1323
-1274
-1266
-1310
-1358
-1350
-1285
-1222
-1216
-1263
-1320
-1353
-1370
-1409
-1508
-1660
-1810
-1893
-1898
-1875
-1885
-1940
-2006
-2053
-2092
-2152
-2248
-2364
-2482
-2601
-2712
-2796
-2834
-2836
-2830
-2825
-2802
-2750
-2691
-2667
-2682
-2695
-2676
-2640
-2627
-2658
-2707
-2731
-2713
-2665
-2597
-2500
-2372
-2231
-2089
-1927
-1712
-1449
-1198
-1009
-873
-748
-629
-560
-553
-543
-475
-426
-586
-1088
-1852
-2638
-3243
-3611
-3762
-3684
-3317
-2646
-1746
-739
266
1167
1838
2158
2100
1767
1327
907
558
290
128
89
163
315
494
654
755
760
669
519
368
261
223
265
386
545
659
649
525
383
327
371
451
508
544
589
641
666
643
592
539
491
451
445
502
584
577
366
-70
-625
-1132
-1455
-1570
-1579
-1600
-1653
-1600
-1245
-538
321
1021
1397
1542
1645
1767
1798
1648
1391
1197
1137
1132
1110
1140
1349
1730
2108
2303
2272
2076
1777
1391
957
536
119
-420
-1180
-2063
-2794
-3152
-3149
-2967
-2765
-2561
-2302
-1969
-1595
-1226
-900
-665
-573
-627
-763
-887
-925
-872
-773
-692
-673
-708
-753
-761
-727
-680
-668
-720
-822
-931
-978
-922
-797
-692
-677
-736
-800
-839
-877
-937
-1002
-1029
-1009
-985
-1022
-1153
-1369
-1620
-1818
-1885
-1838
-1806
-1951
-2322
-2791
-3137
-3211
-3012
-2662
-2288
-1939
-1560
-1068
-449
180
628
773
658
437
254
145
91
70
83
125
163
189
250
393
589
730
726
580
397
294
311
391
451
450
406
348
302
292
339
442
555
609
567
451
311
164
-27
-279
-545
-746
-839
-856
-846
-826
-799
-800
-879
-1036
-1194
-1273
-1286
-1313
-1405
-1515
-1564
-1540
-1501
-1481
-1445
-1351
-1215
-1089
-983
-859
-706
-588
-572
-643
-715
-745
-780
-861
-924
-833
-548
-190
83
232
351
523
708
782
685
476
265
109
-9
-118
-218
-277
-282
-252
-226
-229
-257
-290
-312
-327
-335
-341
-353
-397
-483
-612
-766
-916
-1040
-1104
-1071
-917
-651
-295
144
650
1163
1577
1809
1865
1806
1663
1402
995
513
85
-221
-444
-641
-782
-783
-636
-481
-477
-635
-815
-884
-867
-896
-1034
-1185
-1212
-1068
-874
-769
-775
-810
-818
-832
-904
-1025
-1160
-1288
-1410
-1495
-1476
-1359
-1263
-1309
-1475
-1630
-1702
-1743
-1843
-1985
-2056
-1990
-1831
-1684
-1604
-1605
-1687
-1820
-1944
-2033
-2143
-2353
-2612
-2725
-2571
-2272
-2093
-2133
-2217
-2146
-1987
-2012
-2349
-2797
-3040
-2979
-2795
-2726
-2829
-2989
-3057
-2980
-2808
-2674
-2746
-3076
-3503
-3746
-3657
-3380
-3201
-3246
-3378
-3391
-3263
-3127
-3065
-3006
-2863
-2703
-2681
-2843
-3025
-3022
-2808
-2590
-2605
-2891
-3242
-3401
-3269
-2982
-2766
-2710
-2714
-2618
-2355
-1991
-1625
-1310
-1066
-920
-863
-794
-573
-196
140
219
61
-59
101
458
704
659
476
452
686
1008
1235
1391
1609
1886
2072
2086
2063
2219
2580
2931
3045
2927
2763
2716
2793
2898
2961
2973
2957
2947
2993
3134
3334
3498
3554
3530
3518
3551
3567
3491
3357
3267
3271
3294
3230
3081
2952
2920
2927
2852
2668
2474
2367
2330
2261
2108
1914
1735
1553
1326
1094
978
1048
1247
1471
1709
2051
2533
3025
3323
3345
3176
2944
2672
2296
1807
1296
865
534
271
78
-6
16
71
83
69
106
213
303
272
114
-65
-153
-138
-105
-144
-259
-364
-380
-318
-268
-301
-406
-516
-616
-750
-946
-1158
-1300
-1351
-1378
-1438
-1508
-1533
-1509
-1487
-1499
-1509
-1484
-1455
-1498
-1630
-1779
-1847
-1830
-1813
-1877
-2017
-2132
-2143
-2067
-1994
-1974
-1951
-1848
-1694
-1638
-1788
-2076
-2315
-2415
-2476
-2649
-2931
-3164
-3243
-3235
-3271
-3365
-3387
-3229
-2946
-2691
-2539
-2420
-2226
-1965
-1756
-1697
-1757
-1823
-1818
-1777
-1800
-1892
-1921
-1729
-1321
-905
-717
-783
-884
-786
-483
-216
-222
-494
-791
-884
-757
-563
-447
-425
-439
-464
-519
-611
-688
-706
-693
-734
-904
-1187
-1467
-1609
-1573
-1443
-1375
-1432
-1501
-1402
-1099
-760
-573
-571
-640
-677
-657
-585
-446
-285
-224
-311
-378
-183
283
708
787
573
424
573
878
1032
928
723
626
725
992
1359
1687
1748
1466
1094
1024
1355
1706
1595
993
386
252
563
891
918
733
636
760
985
1140
1181
1145
1031
839
653
575
609
692
848
1236
1956
2806
3421
3661
3766
4027
4409
4567
4232
3487
2642
1957
1542
1394
1390
1284
901
381
122
355
790
886
490
64
165
753
1236
1157
725
545
897
1401
1485
1036
486
323
583
878
881
644
440
424
513
567
588
672
859
1059
1145
1068
870
640
460
374
318
191
-29
-195
-129
136
358
365
243
203
289
355
283
150
128
251
379
380
242
24
-226
-457
-607
-661
-706
-844
-1038
-1123
-976
-670
-364
-131
57
192
207
95
-35
-43
79
209
234
161
76
73
199
475
849
1193
1385
1420
1419
1503
1682
1882
2008
2002
1854
1644
1523
1609
1847
2019
1946
1663
1374
1246
1287
1408
1540
1640
1670
1607
1509
1488
1577
1663
1600
1376
1139
1049
1139
1318
1481
1588
1652
1692
1727
1776
1850
1939
2013
2047
2036
2011
2008
2057
2170
2306
2391
2382
2300
2226
2218
2260
2296
2300
2302
2325
2344
2324
2281
2269
2292
2244
1996
1536
1006
593
389
362
449
644
992
1495
2083
2647
3100
3391
3496
3400
3105
2649
2102
1564
1158
985
1056
1293
1595
1947
2413
3024
3665
4125
4276
4164
3934
3684
3401
3045
2632
2229
1876
1587
1381
1300
1352
1479
1582
1595
1536
1455
1371
1269
1133
963
793
666
609
615
631
605
534
477
493
574
638
615
506
386
317
282
237
160
64
-28
-119
-223
-336
-434
-513
-594
-695
-798
-861
-849
-773
-683
-635
-649
-694
-722
-706
-666
-649
-686
-761
-833
-871
-868
-837
-798
-777
-793
-838
-888
-931
-980
-1039
-1092
-1118
-1128
-1166
-1257
-1355
-1391
-1356
-1318
-1346
-1421
-1462
-1413
-1322
-1281
-1320
-1369
-1345
-1250
-1161
-1128
-1119
-1073
-1004
-1000
-1112
-1260
-1307
-1223
-1123
-1128
-1212
-1233
-1116
-938
-824
-790
-742
-622
-497
-482
-610
-811
-1009
-1189
-1390
-1626
-1869
-2061
-2142
-2070
-1858
-1587
-1350
-1178
-1022
-836
-637
-491
-431
-421
-417
-425
-483
-586
-664
-655
-594
-585
-708
-929
-1146
-1278
-1338
-1405
-1541
-1742
-1958
-2144
-2284
-2386
-2449
-2480
-2492
-2495
-2472
-2387
-2217
-1992
-1777
-1628
-1541
-1453
-1317
-1154
-1032
-993
-1008
-1018
-996
-975
-990
-1019
-988
-862
-709
-639
-670
-677
-504
-149
213
422
546
829
1394
2043
2416
2340
1989
1651
1416
1137
694
180
-213
-436
-618
-870
-1140
-1311
-1385
-1517
-1830
-2266
-2660
-2907
-3029
-3099
-3136
-3122
-3055
-2956
-2840
-2696
-2532
-2409
-2390
-2455
-2507
-2448
-2285
-2105
-1982
-1900
-1801
-1674
-1566
-1523
-1527
-1527
-1522
-1574
-1749
-2046
-2401
-2737
-3001
-3159
-3172
-3004
-2645
-2123
-1490
-815
-177
340
676
819
786
614
342
-3
-388
-773
-1107
-1340
-1444
-1442
-1395
-1357
-1336
-1304
-1256
-1223
-1235
-1259
-1221
-1083
-878
-673
-492
-322
-147
16
153
276
420
583
721
794
819
854
938
1046
1121
1134
1117
1119
1164
1232
1288
1323
1359
1416
1490
1558
1602
1629
1653
1675
1679
1655
1604
1536
1462
1399
1363
1364
1387
1397
1380
1361
1385
1464
1564
1647
1697
1728
1764
1813
1873
1937
1994
2032
2048
2061
2097
2162
2223
2246
2240
2243
2279
2318
2319
2288
2279
2326
2384
2377
2289
2188
2139
2119
2038
1859
1658
1536
1501
1460
1346
1208
1150
1187
1213
1132
971
844
824
861
853
761
637
543
465
323
57
-306
-658
-896
-978
-916
-713
-330
269
1040
1843
2520
2985
3239
3305
3163
2785
2208
1559
982
543
221
-18
-178
-234
-191
-104
-52
-77
-175
-312
-451
-570
-666
-733
-768
-779
-790
-822
-880
-944
-989
-1014
-1043
-1098
-1171
-1231
-1255
-1250
-1251
-1272
-1298
-1290
-1229
-1139
-1061
-1004
-924
-787
-657
-687
-980
-1453
-1882
-2079
-2036
-1873
-1635
-1249
-627
180
1005
1713
2277
2704
2945
2922
2655
2305
2061
1980
1972
1925
1830
1752
1736
1746
1697
1538
1283
992
720
509
397
402
496
594
598
480
298
139
20
-115
-308
-516
-634
-607
-479
-333
-211
-118
-62
-64
-86
-28
162
362
340
-36
-640
-1176
-1412
-1347
-1149
-965
-812
-593
-217
312
883
1334
1548
1497
1249
925
646
503
505
570
576
470
315
236
295
413
442
306
60
-165
-272
-245
-118
61
248
397
468
458
404
371
409
516
642
728
754
755
792
882
984
1044
1057
1068
1104
1143
1135
1075
1008
975
963
934
886
867
945
1130
1375
1613
1804
1944
2048
2138
2209
2217
2102
1858
1564
1358
1329
1460
1679
1947
2295
2747
3242
3647
3874
3933
3863
3652
3253
2698
2117
1646
1309
1043
795
572
390
222
42
-123
-224
-280
-378
-561
-743
-780
-609
-297
41
342
613
873
1127
1366
1574
1716
1758
1692
1559
1417
1298
1196
1095
997
915
854
802
745
693
673
700
744
739
657
553
519
587
686
708
617
469
344
261
183
83
-18
-82
-93
-78
-74
-93
-121
-146
-177
-239
-333
-434
-513
-574
-638
-712
-775
-818
-848
-872
-877
-845
-792
-754
-741
-731
-709
-684
-666
-633
-546
-426
-327
-269
-208
-92
62
189
262
311
364
398
385
343
323
334
333
296
260
278
348
418
446
436
430
462
545
675
793
811
697
532
449
492
550
507
393
366
532
793
933
857
678
570
559
500
279
-24
-210
-169
20
212
376
596
900
1179
1278
1166
957
767
585
304
-94
-456
-577
-387
-10
344
564
680
758
802
770
638
458
285
98
-116
-268
-180
228
778
1139
1116
839
608
556
528
296
-157
-623
-902
-984
-970
-879
-620
-152
369
697
753
738
920
1305
1573
1403
843
283
52
104
116
-81
-311
-318
-120
-32
-271
-676
-872
-723
-500
-570
-974
-1371
-1414
-1106
-764
-663
-795
-980
-1125
-1269
-1414
-1443
-1260
-975
-829
-924
-1058
-934
-527
-149
-116
-396
-633
-498
2
607
1060
1305
1459
1675
2013
2381
2599
2551
2322
2180
2314
2628
2810
2672
2363
2214
2370
2648
2770
2672
2533
2537
2691
2875
3013
3114
3188
3189
3079
2914
2791
2744
2721
2658
2546
2442
2409
2479
2636
2804
2876
2791
2606
2456
2437
2527
2603
2581
2477
2369
2308
2295
2322
2403
2543
2676
2706
2602
2452
2373
2366
2290
2021
1627
1316
1233
1322
1427
1493
1619
1895
2268
2579
2735
2786
2829
2884
2900
2827
2667
2459
2247
2083
2029
2095
2208
2264
2221
2143
2113
2142
2169
2144
2060
1927
1750
1552
1402
1355
1361
1290
1084
840
706
709
715
601
402
262
267
351
396
359
301
296
349
387
328
169
-3
-84
-66
-67
-195
-367
-358
-92
202
195
-175
-608
-777
-676
-552
-564
-602
-449
-33
541
1146
1720
2214
2537
2618
2485
2230
1910
1511
1011
454
-60
-431
-643
-758
-852
-940
-963
-903
-851
-932
-1125
-1244
-1155
-942
-837
-963
-1198
-1338
-1297
-1124
-901
-696
-599
-685
-895
-1021
-907
-664
-581
-796
-1127
-1274
-1119
-821
-621
-645
-848
-1080
-1190
-1090
-832
-597
-566
-747
-947
-951
-717
-410
-269
-425
-779
-1033
-921
-470
-56
-78
-513
-885
-788
-387
-266
-723
-1384
-1645
-1405
-1155
-1303
-1625
-1561
-980
-420
-479
-1112
-1677
-1640
-1107
-664
-772
-1345
-1858
-1818
-1192
-447
-163
-509
-1079
-1306
-1019
-578
-422
-611
-846
-828
-543
-200
4
2
-135
-241
-177
19
95
-156
-610
-882
-733
-362
-178
-332
-567
-559
-273
36
124
-57
-383
-676
-759
-525
-82
247
209
-91
-250
-10
458
776
769
604
490
463
460
533
788
1143
1324
1200
999
1053
1357
1521
1292
937
948
1401
1837
1821
1499
1379
1659
1955
1802
1258
832
858
1125
1213
994
708
597
620
581
423
267
242
347
502
641
761
876
975
1001
868
565
288
335
785
1327
1546
1452
1567
2348
3557
4401
4351
3706
3205
3180
3289
3075
2550
2084
1853
1631
1218
834
876
1349
1749
1591
986
536
650
1102
1344
1129
714
495
575
756
875
958
1061
1090
912
609
465
649
968
1055
784
426
345
620
987
1141
1017
779
603
517
457
400
383
431
509
544
488
350
187
78
77
146
167
54
-119
-170
0
278
426
335
146
68
121
142
13
-172
-252
-225
-223
-292
-309
-144
161
451
663
851
1009
994
674
128
-405
-765
-982
-1109
-1055
-663
80
994
1890
2713
3471
4066
4336
4248
3962
3662
3383
3047
2675
2420
2399
2540
2665
2689
2677
2697
2697
2581
2359
2142
2021
1974
1933
1891
1900
1970
2024
1979
1842
1720
1715
1828
1958
1999
1938
1846
1811
1842
1864
1801
1676
1591
1625
1754
1896
1982
2026
2078
2161
2259
2343
2393
2416
2431
2448
2467
2480
2484
2480
2473
2480
2515
2575
2632
2653
2642
2635
2657
2674
2639
2548
2438
2351
2267
2149
2033
1980
1987
1966
1847
1677
1536
1415
1212
894
617
575
788
1093
1354
1646
2135
2818
3466
3835
3893
3781
3607
3337
2912
2392
1931
1615
1391
1152
887
697
667
764
840
766
548
286
77
-77
-253
-512
-835
-1139
-1367
-1539
-1684
-1798
-1851
-1840
-1807
-1780
-1733
-1622
-1455
-1318
-1291
-1353
-1397
-1364
-1346
-1532
-2035
-2768
-3492
-4012
-4291
-4399
-4363
-4086
-3466
-2544
-1521
-608
111
658
1035
1171
1024
690
332
45
-191
-427
-641
-771
-816
-860
-958
-1086
-1200
-1320
-1482
-1634
-1653
-1464
-1144
-871
-740
-699
-662
-644
-750
-1011
-1286
-1381
-1269
-1132
-1148
-1247
-1141
-639
97
675
864
797
764
846
836
520
-58
-641
-1038
-1259
-1379
-1376
-1160
-762
-378
-185
-167
-147
-18
131
141
-26
-241
-363
-380
-354
-265
5
510
1096
1523
1705
1779
1913
2088
2121
1881
1418
879
343
-196
-742
-1241
-1631
-1917
-2136
-2302
-2396
-2397
-2314
-2140
-1851
-1462
-1065
-749
-513
-261
69
401
569
503
304
130
40
-39
-186
-363
-468
-464
-424
-428
-450
-393
-213
37
282
512
775
1088
1396
1632
1784
1875
1888
1755
1445
1043
726
610
671
807
958
1171
1524
2002
2483
2830
2987
2992
2905
2743
2511
2243
2018
1909
1923
1997
2054
2066
2060
2064
2057
1984
1818
1588
1354
1162
1026
941
901
883
845
753
632
557
581
678
768
810
830
872
936
970
931
826
694
570
467
375
293
225
190
211
298
422
531
589
599
593
582
540
438
279
107
-41
-155
-249
-333
-406
-467
-524
-592
-664
-717
-736
-750
-803
-908
-1020
-1061
-1009
-919
-869
-877
-898
-881
-824
-765
-739
-745
-761
-769
-762
-745
-729
-727
-737
-735
-693
-607
-493
-375
-273
-198
-142
-85
-11
72
138
169
175
186
222
269
311
354
410
467
488
449
367
293
259
248
205
98
-54
-190
-259
-271
-287
-341
-393
-375
-268
-147
-93
-110
-113
-35
102
209
236
216
218
264
315
326
299
278
295
332
338
288
216
184
219
279
287
209
90
13
3
11
-25
-101
-153
-133
-71
-44
-74
-97
-32
114
236
255
196
171
255
405
527
596
666
765
833
778
611
475
512
733
1033
1329
1656
2106
2683
3269
3711
3940
3986
3900
3678
3290
2752
2156
1610
1169
822
538
304
130
18
-65
-160
-283
-416
-540
-645
-728
-773
-758
-698
-661
-708
-816
-874
-799
-631
-508
-518
-612
-661
-607
-536
-586
-807
-1132
-1456
-1719
-1918
-2052
-2101
-2062
-1957
-1799
-1575
-1257
-876
-539
-356
-365
-532
-804
-1156
-1570
-2006
-2396
-2695
-2894
-3008
-3036
-2960
-2773
-2510
-2247
-2044
-1911
-1809
-1725
-1721
-1876
-2186
-2514
-2674
-2590
-2333
-2020
-1691
-1313
-872
-424
-47
217
368
409
343
211
87
43
115
302
574
868
1088
1169
1133
1069
1028
962
786
500
207
20
-41
-37
-14
31
98
143
117
43
10
70
178
257
292
322
357
337
218
58
-44
-60
-58
-97
-150
-152
-97
-42
-7
46
131
199
202
189
262
434
596
650
632
664
791
915
929
856
819
889
999
1039
985
921
939
1024
1072
989
778
539
388
353
367
332
246
212
327
552
743
797
767
786
913
1080
1192
1256
1374
1599
1857
2015
2031
1989
2016
2157
2360
2564
2773
3043
3392
3757
4040
4179
4165
4008
3701
3248
2714
2199
1782
1473
1247
1090
1012
1005
1025
1020
961
836
653
424
195
24
-62
-102
-141
-199
-245
-236
-170
-116
-149
-273
-401
-440
-394
-368
-450
-614
-772
-874
-954
-1033
-1066
-1029
-1013
-1142
-1404
-1610
-1616
-1523
-1591
-1949
-2430
-2734
-2757
-2670
-2704
-2916
-3176
-3374
-3539
-3768
-4060
-4282
-4333
-4283
-4301
-4440
-4543
-4399
-4009
-3608
-3416
-3388
-3292
-2955
-2462
-2038
-1771
-1533
-1155
-630
-149
94
81
-46
-140
-176
-229
-356
-529
-660
-659
-484
-146
285
680
902
915
828
810
937
1125
1206
1081
803
541
462
621
909
1114
1085
843
566
458
559
751
874
826
624
401
312
409
579
629
498
335
334
517
700
743
741
889
1188
1374
1220
842
601
701
968
1075
927
737
756
985
1237
1375
1444
1553
1718
1868
1961
2041
2172
2339
2456
2469
2408
2379
2463
2653
2865
3024
3140
3274
3458
3634
3693
3590
3389
3205
3079
2972
2841
2744
2762
2892
3030
3065
2991
2886
2812
2758
2691
2627
2633
2763
3017
3356
3735
4090
4339
4410
4296
4055
3744
3380
2954
2482
2028
1666
1428
1287
1172
1035
909
856
868
840
687
453
290
276
304
197
-76
-370
-572
-736
-981
-1285
-1490
-1509
-1457
-1506
-1667
-1770
-1685
-1494
-1378
-1409
-1489
-1508
-1493
-1546
-1698
-1873
-1986
-2037
-2100
-2215
-2338
-2399
-2387
-2378
-2471
-2699
-2982
-3205
-3326
-3426
-3614
-3873
-4051
-4017
-3817
-3646
-3643
-3761
-3839
-3798
-3741
-3802
-3991
-4175
-4184
-3937
-3471
-2886
-2308
-1829
-1465
-1139
-766
-402
-219
-302
-522
-635
-527
-313
-176
-152
-129
-23
110
180
211
306
495
662
680
555
442
488
688
881
868
584
170
-106
-52
268
591
712
648
595
697
913
1084
1070
858
546
268
126
122
153
129
74
105
283
510
609
510
331
259
347
472
476
345
212
202
307
421
475
492
518
532
502
469
533
701
842
816
666
615
805
1096
1212
1066
875
893
1092
1203
1044
761
657
846
1126
1249
1212
1239
1467
1761
1857
1658
1351
1214
1309
1389
1162
622
123
73
566
1267
1753
1935
2112
2619
3430
4178
4533
4518
4386
4259
4013
3532
2941
2480
2196
1907
1513
1208
1274
1702
2107
2136
1858
1673
1830
2187
2388
2245
1864
1509
1384
1526
1781
1901
1737
1382
1147
1282
1712
2102
2170
1951
1723
1719
1893
2010
1914
1668
1469
1400
1352
1217
1075
1113
1339
1509
1390
1089
930
1026
1103
890
492
280
394
529
307
-210
-549
-333
258
647
475
-16
-249
75
661
949
706
232
-34
15
143
164
182
342
549
580
429
384
636
978
1019
669
255
115
234
361
412
533
801
977
783
342
134
393
752
664
133
-202
156
889
1170
659
-45
-109
536
1123
950
166
-457
-394
186
753
967
826
497
175
67
267
580
611
154
-526
-882
-605
56
525
434
-30
-307
-41
551
902
697
205
-76
-27
-74
-647
-1601
-2308
-2320
-1836
-1390
-1188
-881
-56
1196
2321
2832
2776
2579
2535
2536
2315
1817
1287
1024
1136
1542
2074
2473
2425
1740
583
-570
-1286
-1527
-1571
-1601
-1448
-813
318
1603
2677
3439
3984
4351
4460
4312
4114
4145
4495
4987
5383
5595
5717
5833
5866
5649
5139
4465
3817
3269
2785
2388
2222
2393
2776
3067
3031
2720
2396
2256
2268
2286
2228
2141
2086
2048
1977
1884
1837
1846
1825
1684
1460
1288
1251
1294
1293
1188
1041
949
949
993
983
839
581
336
252
351
490
493
352
231
278
463
655
793
942
1174
1449
1663
1782
1851
1889
1825
1590
1225
867
617
469
349
218
102
42
53
108
175
227
240
184
55
-119
-266
-309
-232
-94
3
-5
-93
-180
-219
-221
-220
-214
-176
-126
-132
-242
-421
-562
-614
-620
-666
-786
-919
-1000
-1023
-1013
-999
-977
-936
-893
-881
-926
-1038
-1195
-1353
-1479
-1577
-1699
-1905
-2192
-2489
-2704
-2782
-2760
-2736
-2792
-2946
-3143
-3314
-3431
-3475
-3428
-3290
-3170
-3273
-3690
-4238
-4562
-4521
-4378
-4520
-4990
-5413
-5367
-4801
-3997
-3172
-2268
-1170
41
1109
1892
2473
2994
3427
3606
3450
3057
2632
2346
2252
2300
2368
2361
2278
2206
2225
2294
2302
2186
1993
1838
1796
1873
2022
2176
2270
2281
2228
2147
2029
1837
1603
1453
1504
1747
2084
2413
2681
2882
2996
3009
2904
2634
2199
1723
1411
1407
1621
1827
1948
2138
2577
3165
3562
3515
3093
2571
2111
1660
1114
501
-24
-328
-403
-363
-367
-534
-843
-1159
-1388
-1607
-2008
-2718
-3612
-4401
-4851
-4883
-4521
-3788
-2723
-1445
-111
1214
2573
3937
5083
5683
5611
5074
4440
3915
3413
2747
1884
985
264
-174
-364
-427
-525
-789
-1226
-1668
-1892
-1836
-1658
-1559
-1558
-1489
-1181
-681
-194
92
137
7
-213
-465
-711
-933
-1099
-1176
-1126
-944
-663
-322
70
494
881
1131
1223
1248
1322
1460
1597
1688
1761
1864
1958
1971
1890
1810
1829
1912
1929
1796
1592
1473
1508
1597
1591
1451
1268
1125
998
832
656
568
605
652
574
384
226
186
166
18
-227
-378
-327
-187
-166
-313
-486
-545
-515
-517
-610
-745
-851
-878
-817
-694
-586
-588
-702
-803
-772
-670
-680
-881
-1139
-1243
-1150
-995
-854
-668
-348
28
322
528
772
1112
1397
1443
1267
1097
1096
1202
1245
1187
1151
1229
1352
1389
1305
1163
1009
843
661
496
397
391
503
778
1230
1747
2139
2314
2347
2369
2400
2290
1918
1346
794
447
305
235
112
-39
-88
50
282
411
324
130
21
63
137
96
-37
-98
19
220
324
270
183
206
336
448
448
360
281
264
280
276
246
226
238
264
275
280
311
363
379
294
104
-135
-355
-544
-720
-904
-1079
-1188
-1170
-1006
-740
-461
-236
-64
104
284
430
479
430
351
287
225
135
36
-17
-23
-47
-138
-241
-256
-159
-34
62
194
492
963
1436
1716
1775
1728
1669
1551
1281
859
403
32
-225
-412
-543
-583
-506
-350
-208
-166
-236
-356
-473
-579
-719
-915
-1126
-1279
-1354
-1400
-1460
-1512
-1505
-1450
-1431
-1506
-1625
-1681
-1637
-1563
-1545
-1589
-1616
-1566
-1461
-1359
-1273
-1167
-1014
-858
-760
-726
-691
-586
-431
-320
-308
-342
-324
-216
-92
-45
-74
-94
-52
15
33
-8
-47
-29
25
65
70
58
58
69
79
77
58
12
-57
-130
-175
-180
-176
-208
-288
-403
-514
-566
-516
-368
-176
-15
77
119
144
163
190
247
347
474
589
723
981
1439
2031
2571
2900
3014
2999
2894
2650
2229
1696
1184
774
468
256
173
258
489
768
974
1059
1036
939
791
604
389
164
-41
-203
-323
-421
-506
-572
-608
-630
-669
-742
-833
-914
-970
-1012
-1054
-1081
-1066
-989
-870
-763
-716
-738
-781
-795
-768
-748
-786
-876
-962
-991
-958
-905
-870
-856
-841
-806
-760
-730
-743
-793
-830
-814
-764
-754
-830
-938
-962
-845
-660
-533
-517
-551
-541
-470
-400
-390
-440
-507
-565
-611
-648
-663
-644
-603
-563
-543
-534
-526
-507
-479
-435
-375
-317
-290
-309
-349
-365
-327
-265
-236
-270
-334
-371
-353
-303
-254
-219
-196
-186
-179
-126
28
267
485
573
532
463
453
474
423
239
-39
-340
-617
-843
-994
-1061
-1081
-1109
-1148
-1123
-976
-739
-517
-391
-330
-259
-155
-55
-1
13
21
33
32
7
-17
-19
-19
-44
-55
43
298
631
904
1049
1149
1332
1621
1852
1837
1517
1038
625
392
262
91
-181
-468
-628
-604
-448
-235
6
269
507
623
552
326
43
-184
-301
-322
-322
-360
-407
-364
-178
78
253
252
88
-151
-394
-610
-782
-877
-910
-927
-949
-966
-957
-913
-840
-749
-712
-849
-1201
-1618
-1820
-1636
-1178
-738
-541
-581
-696
-745
-728
-737
-845
-1015
-1127
-1104
-985
-875
-801
-662
-390
-107
-29
-228
-525
-702
-760
-874
-1113
-1334
-1361
-1229
-1117
-1109
-1094
-950
-729
-608
-677
-867
-1055
-1171
-1217
-1208
-1191
-1236
-1368
-1510
-1531
-1381
-1105
-751
-303
231
717
959
891
676
543
559
605
552
424
365
506
859
1317
1737
2007
2103
2090
2066
2082
2109
2095
2041
1985
1941
1861
1699
1459
1181
878
526
147
-150
-236
-86
198
476
675
791
828
765
585
314
-22
-423
-863
-1229
-1371
-1246
-1003
-862
-906
-1020
-1038
-943
-868
-935
-1110
-1241
-1235
-1134
-1034
-961
-867
-711
-539
-434
-415
-421
-388
-325
-289
-307
-346
-381
-446
-590
-787
-936
-970
-925
-909
-979
-1095
-1188
-1240
-1289
-1345
-1365
-1309
-1207
-1150
-1187
-1272
-1320
-1310
-1314
-1404
-1565
-1707
-1756
-1750
-1788
-1918
-2063
-2077
-1892
-1586
-1304
-1105
-897
-550
-56
435
742
820
760
642
447
109
-358
-845
-1246
-1538
-1762
-1927
-1999
-1967
-1877
-1794
-1735
-1670
-1604
-1576
-1606
-1642
-1621
-1557
-1535
-1620
-1751
-1801
-1715
-1575
-1505
-1526
-1543
-1467
-1310
-1155
-1075
-1083
-1174
-1336
-1509
-1583
-1483
-1267
-1099
-1092
-1186
-1207
-1051
-792
-606
-603
-751
-937
-1077
-1158
-1205
-1240
-1270
-1311
-1395
-1551
-1788
-2099
-2437
-2712
-2860
-2896
-2890
-2853
-2710
-2405
-2002
-1629
-1331
-1056
-797
-706
-928
-1359
-1641
-1515
-1133
-912
-1088
-1451
-1589
-1314
-826
-489
-509
-831
-1236
-1509
-1541
-1365
-1115
-939
-912
-993
-1071
-1044
-895
-720
-673
-834
-1124
-1329
-1286
-1055
-873
-925
-1157
-1375
-1433
-1386
-1397
-1516
-1633
-1620
-1528
-1530
-1694
-1886
-1919
-1764
-1568
-1493
-1565
-1701
-1789
-1730
-1494
-1167
-944
-983
-1240
-1481
-1525
-1438
-1436
-1617
-1857
-1973
-1939
-1848
-1713
-1437
-1006
-649
-612
-866
-1084
-951
-555
-298
-458
-900
-1233
-1209
-935
-737
-847
-1202
-1477
-1372
-932
-559
-662
-1147
-1427
-1050
-283
105
-290
-1042
-1402
-1208
-1019
-1302
-1801
-1878
-1384
-800
-515
-276
399
1430
2154
2161
1802
1762
2165
2401
1881
753
-245
-546
-232
154
156
-221
-549
-340
453
1293
1458
765
-170
-508
-85
440
378
-233
-753
-737
-372
-110
-116
-231
-351
-563
-875
-1047
-895
-608
-565
-836
-1082
-990
-690
-582
-848
-1274
-1535
-1551
-1448
-1318
-1185
-1112
-1219
-1473
-1655
-1603
-1473
-1579
-2007
-2461
-2576
-2342
-2078
-2063
-2255
-2445
-2556
-2730
-3087
-3541
-3865
-3926
-3807
-3661
-3523
-3296
-2886
-2349
-1839
-1467
-1218
-1029
-904
-909
-1030
-1143
-1146
-1081
-1098
-1227
-1304
-1149
-803
-510
-458
-568
-603
-442
-200
-65
-93
-181
-212
-201
-269
-524
-952
-1441
-1887
-2275
-2645
-2971
-3111
-2928
-2416
-1716
-988
-285
405
1020
1419
1525
1435
1314
1208
1043
786
568
553
747
980
1076
1005
866
748
660
575
475
359
249
202
285
498
730
826
741
596
533
551
526
387
240
255
470
733
880
917
983
1145
1302
1326
1217
1089
1021
968
854
682
553
570
730
943
1103
1177
1200
1230
1275
1261
1087
755
430
338
591
1088
1626
2102
2586
3179
3847
4396
4641
4547
4231
3820
3361
2855
2343
1921
1678
1616
1669
1768
1881
2015
2171
2303
2341
2271
2140
2034
1999
2010
2017
1996
1958
1930
1925
1920
1863
1683
1347
914
502
156
-228
-785
-1503
-2169
-2556
-2630
-2539
-2426
-2290
-2053
-1711
-1361
-1105
-959
-894
-903
-1016
-1251
-1554
-1854
-2076
-2168
-2114
-1966
-1837
-1826
-1938
-2092
-2234
-2381
-2584
-2852
-3174
-3588
-4153
-4839
-5473
-5881
-6084
-6273
-6588
-6953
-7162
-7128
-6970
-6843
-6757
-6593
-6285
-5926
-5675
-5576
-5509
-5329
-4990
-4562
-4126
-3742
-3473
-3395
-3519
-3710
-3743
-3511
-3123
-2768
-2466
-2015
-1216
-129
954
1771
2279
2576
2707
2655
2498
2425
2574
2859
3079
3176
3261
3422
3578
3593
3499
3455
3500
3491
3376
3416
3981
5090
6253
6872
6735
6080
5210
4173
2873
1367
-74
-1180
-1868
-2194
-2190
-1852
-1288
-777
-603
-821
-1225
-1573
-1798
-1992
-2217
-2359
-2208
-1639
-730
288
1162
1708
1851
1640
1201
643
-17
-817
-1735
-2641
-3386
-3880
-4114
-4096
-3860
-3494
-3123
-2809
-2486
-2073
-1635
-1369
-1397
-1622
-1808
-1820
-1730
-1681
-1704
-1673
-1478
-1165
-916
-907
-1178
-1603
-1979
-2158
-2126
-1983
-1844
-1725
-1527
-1160
-648
-139
226
433
560
686
828
973
1120
1286
1461
1606
1686
1708
1699
1669
1603
1484
1319
1123
895
622
319
40
-169
-325
-506
-765
-1063
-1282
-1321
-1185
-969
-786
-691
-666
-652
-610
-551
-521
-556
-627
-666
-636
-566
-520
-536
-605
-705
-838
-1026
-1280
-1566
-1839
-2073
-2279
-2489
-2722
-2961
-3176
-3348
-3500
-3664
-3840
-4002
-4125
-4216
-4282
-4296
-4219
-4052
-3854
-3700
-3619
-3584
-3563
-3548
-3555
-3583
-3610
-3605
-3561
-3483
-3385
-3268
-3133
-2983
-2827
-2680
-2556
-2447
-2317
-2110
-1795
-1390
-964
-584
-258
67
436
840
1220
1521
1731
1878
1993
2094
2194
2295
2378
2404
2346
2238
2149
2129
2161
2186
2160
2115
2108
2159
2225
2254
2258
2292
2376
2452
2449
2369
2286
2258
2260
2223
2123
1990
1868
1769
1684
1619
1586
1578
1566
1532
1485
1437
1392
1354
1344
1384
1470
1581
1705
1848
1991
2101
2169
2210
2241
2251
2219
2157
2093
2031
1945
1822
1688
1537
1302
916
422
-34
-320
-398
-276
64
628
1317
1971
2516
3030
3559
3956
3957
3475
2734
2077
1654
1366
1079
820
735
889
1161
1392
1511
1550
1548
1471
1234
776
126
-604
-1274
-1794
-2140
-2317
-2305
-2053
-1538
-832
-85
563
1049
1374
1530
1474
1187
745
300
-18
-196
-310
-428
-535
-576
-557
-562
-676
-905
-1178
-1441
-1700
-1972
-2212
-2350
-2361
-2320
-2335
-2438
-2568
-2651
-2672
-2667
-2654
-2607
-2511
-2400
-2338
-2350
-2418
-2515
-2649
-2839
-3061
-3231
-3270
-3154
-2918
-2613
-2274
-1919
-1562
-1221
-918
-696
-601
-635
-730
-786
-748
-651
-555
-470
-348
-155
55
188
201
131
34
-76
-212
-359
-466
-495
-476
-481
-543
-633
-687
-671
-623
-576
-509
-368
-148
66
161
123
41
-31
-205
-690
-1568
-2627
-3469
-3803
-3643
-3204
-2669
-2054
-1267
-280
800
1780
2461
2730
2595
2185
1694
1291
1019
821
625
420
269
236
317
451
552
567
499
389
277
196
177
238
363
493
556
509
379
236
143
112
93
8
-186
-468
-741
-922
-1025
-1151
-1364
-1578
-1572
-1182
-468
336
1021
1559
2054
2559
2990
3201
3119
2785
2279
1670
1029
449
20
-242
-397
-502
-557
-535
-429
-294
-213
-238
-362
-534
-689
-776
-797
-814
-906
-1122
-1450
-1823
-2134
-2289
-2248
-2047
-1763
-1451
-1099
-668
-165
327
689
856
839
721
593
507
451
374
238
69
-59
-105
-99
-104
-146
-203
-260
-324
-402
-462
-457
-393
-335
-362
-514
-780
-1094
-1345
-1443
-1385
-1260
-1168
-1103
-986
-796
-639
-653
-863
-1131
-1288
-1261
-1085
-835
-563
-285
21
383
793
1167
1370
1321
1090
842
710
692
718
748
826
993
1199
1347
1417
1510
1716
1972
2116
2063
1935
1937
2113
2289
2266
2024
1714
1488
1369
1320
1338
1439
1584
1689
1721
1737
1794
1857
1822
1648
1410
1223
1141
1137
1191
1309
1499
1700
1826
1841
1782
1719
1676
1617
1510
1381
1308
1329
1405
1461
1473
1478
1515
1551
1525
1433
1351
1319
1319
1292
1235
1187
1153
1111
1083
1119
1212
1245
1134
986
1008
1223
1393
1278
961
767
866
1053
995
639
253
108
194
311
333
303
296
334
427
636
1008
1454
1761
1773
1574
1384
1348
1362
1161
620
-91
-647
-871
-891
-947
-1128
-1305
-1340
-1246
-1123
-984
-753
-425
-150
-84
-196
-304
-268
-129
-29
-41
-119
-182
-152
32
399
893
1371
1705
1899
2064
2283
2543
2774
2918
2941
2827
2627
2492
2556
2783
2962
2928
2738
2585
2548
2509
2331
2052
1835
1741
1648
1412
1075
826
802
935
1040
989
808
609
490
472
509
546
544
499
437
412
473
628
809
906
871
785
789
949
1179
1344
1413
1474
1605
1779
1907
1960
1994
2065
2163
2234
2252
2248
2257
2265
2232
2149
2063
2026
2040
2039
1956
1799
1646
1578
1597
1623
1573
1452
1340
1301
1320
1325
1271
1180
1101
1058
1030
981
901
799
692
590
500
421
347
281
226
170
95
-11
-129
-226
-292
-338
-362
-335
-240
-110
-1
64
113
158
152
25
-219
-485
-665
-738
-762
-784
-789
-742
-639
-515
-419
-402
-488
-647
-809
-905
-933
-956
-1028
-1113
-1115
-1028
-971
-1092
-1428
-1821
-2025
-1933
-1641
-1333
-1102
-844
-361
376
1093
1380
1084
459
-92
-421
-693
-1074
-1466
-1653
-1642
-1661
-1796
-1783
-1303
-498
41
-82
-598
-853
-531
34
276
2
-495
-872
-1077
-1214
-1321
-1365
-1384
-1506
-1755
-1911
-1717
-1195
-665
-426
-499
-693
-862
-1015
-1162
-1218
-1117
-973
-990
-1187
-1316
-1157
-821
-617
-638
-650
-473
-280
-368
-671
-786
-487
-100
-131
-595
-929
-706
-182
5
-372
-888
-1000
-690
-391
-385
-501
-457
-276
-243
-457
-653
-512
-67
296
267
-57
-279
-133
258
567
627
533
472
503
546
539
539
640
818
937
884
724
670
902
1348
1669
1553
1074
693
815
1347
1751
1599
1051
677
814
1208
1345
1029
560
359
501
699
691
527
450
569
726
729
577
412
300
140
-173
-524
-643
-403
4
263
282
232
293
459
590
616
555
430
271
202
386
796
1121
1069
742
580
880
1432
1765
1689
1483
1521
1831
2131
2234
2238
2306
2390
2298
1980
1647
1530
1587
1569
1346
1053
896
889
851
659
390
229
318
658
1141
1595
1901
2126
2467
2987
3391
3252
2530
1756
1521
1783
1904
1415
610
217
536
1097
1262
940
606
665
993
1170
1005
688
492
454
445
385
312
223
-1
-444
-960
-1276
-1266
-1067
-894
-753
-476
24
609
1068
1331
1456
1465
1311
1021
754
653
650
544
269
20
32
330
704
925
933
802
628
476
393
372
321
147
-130
-346
-360
-221
-132
-205
-332
-324
-141
54
105
56
77
241
420
473
420
426
601
862
1045
1088
1076
1104
1179
1244
1283
1330
1423
1548
1659
1736
1806
1900
2004
2054
2008
1911
1863
1929
2073
2200
2254
2264
2278
2301
2290
2216
2103
1996
1915
1855
1796
1724
1635
1537
1471
1471
1522
1546
1490
1384
1323
1364
1475
1566
1591
1565
1541
1554
1602
1651
1679
1688
1712
1772
1835
1840
1792
1770
1845
1985
2076
2067
2029
2059
2149
2200
2154
2080
2078
2147
2189
2143
2056
2013
2034
2056
2044
2032
2059
2091
2064
1968
1873
1849
1877
1879
1813
1716
1636
1528
1303
941
577
394
452
645
837
1027
1339
1851
2476
3009
3302
3348
3227
2986
2625
2158
1654
1208
885
670
512
383
299
286
323
330
250
117
16
-22
-52
-131
-227
-249
-165
-84
-130
-312
-512
-615
-612
-593
-649
-814
-1047
-1242
-1309
-1270
-1262
-1422
-1726
-1961
-1949
-1752
-1617
-1702
-1871
-1833
-1477
-1021
-794
-891
-1066
-1051
-929
-1124
-1995
-3453
-5009
-6196
-6900
-7241
-7240
-6720
-5533
-3807
-1890
-105
1372
2419
2898
2747
2097
1233
406
-285
-826
-1157
-1203
-983
-627
-289
-38
121
156
-7
-395
-914
-1356
-1568
-1545
-1399
-1246
-1116
-963
-752
-513
-290
-88
116
323
488
552
527
479
454
454
475
553
730
986
1241
1419
1515
1547
1479
1268
958
707
636
695
717
615
484
452
452
251
-303
-1095
-1836
-2291
-2407
-2235
-1820
-1209
-479
271
992
1662
2228
2578
2632
2436
2126
1819
1561
1353
1185
1052
946
849
748
637
495
307
79
-139
-294
-345
-269
-77
171
380
498
545
569
584
586
619
760
1010
1225
1239
1059
879
862
952
942
742
477
339
397
560
715
823
884
912
945
1027
1107
1007
582
-77
-643
-837
-681
-434
-279
-148
138
610
1088
1357
1336
1074
656
145
-406
-931
-1378
-1738
-2022
-2223
-2300
-2228
-2030
-1788
-1614
-1594
-1724
-1913
-2066
-2169
-2290
-2482
-2711
-2899
-3013
-3085
-3104
-2990
-2656
-2116
-1482
-855
-249
369
973
1475
1812
2002
2129
2262
2422
2593
2745
2844
2877
2879
2901
2964
3040
3072
3042
2982
2938
2941
2997
3091
3176
3195
3124
3008
2927
2910
2907
2851
2736
2630
2590
2610
2642
2648
2627
2601
2590
2603
2647
2707
2752
2757
2732
2712
2705
2668
2551
2366
2197
2115
2110
2101
2033
1942
1911
1962
2024
2005
1884
1726
1605
1533
1469
1376
1252
1131
1032
946
854
753
663
595
543
506
501
547
632
706
746
792
876
937
808
351
-384
-1159
-1714
-1937
-1878
-1625
-1217
-646
76
891
1712
2447
3000
3293
3307
3129
2903
2728
2601
2455
2273
2122
2062
2045
1947
1697
1340
967
592
160
-281
-533
-445
-128
80
-59
-421
-661
-583
-316
-112
0
262
910
1889
2881
3579
3909
3972
3870
3610
3156
2527
1815
1134
559
138
-107
-189
-154
-74
-22
-26
-75
-170
-331
-577
-871
-1103
-1177
-1127
-1102
-1218
-1439
-1625
-1696
-1697
-1695
-1659
-1506
-1255
-1083
-1183
-1572
-2050
-2372
-2424
-2279
-2095
-1977
-1908
-1776
-1477
-1007
-470
1
339
565
748
944
1176
1424
1614
1655
1503
1209
885
617
417
250
85
-78
-224
-330
-364
-317
-226
-154
-155
-235
-347
-432
-450
-402
-319
-221
-110
20
117
86
-134
-488
-841
-1092
-1238
-1313
-1306
-1159
-850
-433
4
413
787
1102
1321
1444
1527
1631
1762
1883
1974
2054
2144
2233
2269
2193
1975
1631
1215
805
465
220
63
-27
-66
-60
-7
82
158
131
-67
-404
-743
-939
-946
-816
-622
-402
-178
24
185
321
456
561
550
362
33
-321
-607
-796
-901
-911
-790
-540
-230
41
214
294
311
250
69
-238
-587
-839
-905
-824
-715
-672
-689
-700
-668
-605
-547
-518
-517
-543
-626
-808
-1088
-1377
-1509
-1334
-837
-150
563
1258
2014
2888
3783
4475
4783
4700
4359
3896
3381
2843
2336
1926
1653
1503
1443
1447
1491
1542
1550
1483
1346
1179
1018
913
909
1010
1155
1252
1260
1218
1200
1215
1204
1123
1019
979
1018
1046
969
797
635
571
593
626
623
598
584
581
563
527
495
482
471
437
385
353
360
374
341
245
124
21
-56
-142
-256
-372
-450
-486
-523
-588
-651
-650
-547
-389
-259
-206
-210
-228
-243
-259
-277
-283
-295
-339
-405
-413
-295
-83
100
156
128
150
298
491
568
453
245
131
203
366
429
306
115
58
195
360
348
165
35
115
307
376
253
115
160
337
425
345
239
274
393
407
269
133
122
149
59
-141
-260
-173
10
90
36
46
262
574
742
675
550
569
696
676
342
-173
-559
-647
-547
-474
-474
-420
-208
87
322
444
487
461
312
22
-310
-569
-752
