-583
-549
-471
-385
-340
-333
-314
-260
-206
-199
-239
-273
-266
-238
-223
-211
-170
-96
-37
-29
-60
-81
-76
-75
-99
-121
-88
12
134
219
253
259
259
250
222
187
169
185
230
296
374
463
570
702
855
991
1057
1025
935
860
850
887
918
923
926
962
1027
1089
1124
1128
1103
1037
930
813
731
706
718
730
726
724
731
740
726
683
626
571
509
419
296
167
68
18
-8
-52
-130
-214
-260
-256
-234
-233
-253
-274
-292
-327
-386
-443
-472
-487
-527
-602
-660
-652
-587
-531
-533
-581
-627
-647
-655
-682
-731
-782
-803
-778
-718
-660
-631
-617
-576
-488
-389
-343
-373
-438
-476
-476
-473
-493
-517
-516
-486
-452
-435
-426
-409
-390
-381
-385
-391
-389
-393
-418
-464
-509
-535
-540
-537
-530
-514
-490
-458
-422
-385
-345
-310
-292
-303
-343
-412
-499
-584
-643
-664
-659
-649
-642
-620
-570
-498
-427
-375
-350
-353
-375
-395
-390
-371
-388
-489
-657
-815
-891
-887
-863
-870
-890
-877
-823
-762
-722
-704
-704
-733
-794
-849
-831
-729
-614
-572
-603
-634
-615
-580
-589
-640
-661
-607
-526
-490
-496
-479
-405
-321
-303
-369
-468
-536
-521
-383
-116
207
448
499
391
255
179
128
30
-112
-224
-281
-363
-559
-838
-1077
-1203
-1288
-1456
-1703
-1863
-1760
-1395
-950
-605
-380
-170
93
335
427
346
209
141
145
136
72
23
79
231
377
438
424
389
365
357
384
478
615
708
682
555
421
349
320
286
244
243
310
414
500
548
584
636
693
724
734
766
832
887
886
853
865
946
1021
1013
985
1110
1478
1960
2310
2400
2332
2277
2268
2175
1886
1457
1078
899
936
1111
1372
1714
2119
2479
2657
2597
2371
2105
1854
1568
1199
801
538
545
809
1181
1509
1730
1861
1926
1914
1814
1645
1447
1247
1036
810
606
485
473
516
528
466
374
338
392
490
547
515
428
361
348
348
302
202
95
30
-5
-59
-150
-243
-287
-281
-255
-226
-182
-124
-81
-77
-90
-83
-55
-50
-103
-194
-269
-286
-265
-256
-280
-309
-300
-256
-236
-275
-324
-286
-148
-40
-124
-407
-700
-806
-715
-585
-544
-547
-458
-228
69
336
533
656
687
610
469
334
231
122
-25
-165
-229
-202
-133
-42
90
240
316
245
77
-60
-110
-139
-222
-317
-323
-234
-173
-243
-390
-466
-402
-255
-103
35
166
249
236
177
203
358
510
475
235
-17
-81
55
224
261
161
42
7
67
156
198
145
-2
-196
-363
-446
-440
-392
-348
-324
-305
-281
-254
-223
-155
-25
144
274
292
196
37
-114
-217
-283
-348
-431
-472
-378
-121
196
419
531
680
1001
1413
1640
1511
1153
869
836
987
1151
1255
1320
1354
1320
1214
1082
933
671
208
-386
-882
-1064
-889
-481
-21
381
690
939
1187
1432
1569
1469
1127
697
375
241
230
269
375
586
856
1048
1067
958
842
775
718
618
481
359
303
342
481
675
842
933
973
1028
1096
1091
952
737
565
500
513
573
707
932
1193
1399
1523
1602
1665
1689
1651
1575
1499
1427
1351
1304
1341
1438
1471
1348
1125
965
971
1097
1235
1330
1416
1542
1709
1882
2001
2016
1920
1774
1679
1691
1782
1884
1974
2082
2236
2393
2466
2412
2277
2136
2026
1923
1790
1642
1535
1506
1530
1539
1496
1433
1388
1353
1285
1194
1156
1223
1310
1228
874
376
7
-64
82
234
287
328
504
842
1211
1442
1453
1268
963
633
362
192
114
84
78
115
213
341
419
386
234
-4
-301
-639
-984
-1270
-1431
-1433
-1299
-1066
-775
-475
-239
-125
-132
-186
-195
-122
-11
60
56
24
55
207
448
679
798
773
657
538
475
469
477
460
422
399
433
525
627
681
659
582
489
407
352
342
388
471
542
555
502
413
325
256
207
167
127
83
51
51
88
121
90
-32
-204
-336
-354
-250
-94
-5
-83
-336
-646
-846
-831
-649
-448
-338
-304
-235
-34
281
587
741
676
450
201
44
-1
-10
-69
-186
-284
-278
-168
-27
70
105
108
102
74
14
-65
-147
-224
-288
-322
-321
-319
-333
-290
-59
428
1054
1596
1916
2053
2124
2174
2155
2034
1844
1628
1367
1032
656
325
72
-163
-442
-739
-948
-986
-857
-613
-317
-31
182
283
290
265
233
172
70
-35
-81
-40
61
184
323
476
614
669
585
381
146
-33
-126
-158
-173
-198
-250
-333
-430
-498
-500
-443
-385
-389
-446
-488
-455
-372
-319
-338
-377
-348
-246
-159
-170
-234
-222
-73
110
155
20
-151
-187
-70
63
88
28
-7
34
101
149
204
314
452
541
557
572
661
807
915
931
890
863
872
893
900
899
908
925
940
948
959
980
1008
1041
1077
1116
1153
1182
1198
1203
1208
1226
1256
1262
1195
1053
887
767
710
677
619
533
458
428
435
435
391
307
221
161
106
12
-128
-257
-317
-319
-351
-467
-618
-709
-718
-728
-816
-962
-1071
-1089
-1070
-1100
-1196
-1285
-1299
-1253
-1235
-1307
-1443
-1547
-1544
-1457
-1383
-1400
-1488
-1553
-1534
-1467
-1445
-1513
-1628
-1714
-1751
-1779
-1839
-1925
-1989
-1994
-1955
-1921
-1927
-1969
-2005
-2008
-1984
-1969
-1992
-2051
-2105
-2120
-2105
-2100
-2134
-2187
-2218
-2223
-2242
-2309
-2397
-2440
-2411
-2349
-2294
-2221
-2070
-1845
-1637
-1537
-1532
-1531
-1486
-1450
-1507
-1670
-1871
-2039
-2166
-2290
-2430
-2578
-2720
-2841
-2929
-2976
-2995
-3008
-3018
-3002
-2947
-2872
-2803
-2740
-2666
-2607
-2612
-2677
-2712
-2627
-2455
-2327
-2319
-2347
-2263
-2044
-1829
-1771
-1869
-1986
-2013
-1974
-1969
-2059
-2207
-2334
-2403
-2429
-2427
-2368
-2188
-1856
-1421
-989
-646
-403
-192
58
336
545
578
417
178
10
-69
-206
-582
-1174
-1739
-2034
-2056
-2007
-2043
-2092
-1977
-1652
-1263
-979
-850
-832
-905
-1102
-1434
-1815
-2120
-2254
-2209
-2045
-1851
-1677
-1463
-1118
-669
-321
-267
-454
-626
-621
-553
-643
-931
-1213
-1324
-1346
-1449
-1629
-1699
-1568
-1401
-1423
-1644
-1862
-1917
-1837
-1767
-1794
-1921
-2111
-2286
-2354
-2278
-2148
-2109
-2160
-2147
-1983
-1781
-1724
-1807
-1820
-1639
-1447
-1522
-1874
-2181
-2115
-1706
-1287
-1143
-1238
-1272
-1043
-642
-334
-267
-345
-371
-308
-292
-393
-455
-263
134
408
337
84
24
288
617
697
522
338
316
384
380
283
204
212
276
343
380
354
265
179
155
148
7
-330
-714
-918
-882
-734
-609
-520
-457
-483
-633
-747
-561
-62
421
537
300
89
218
635
1024
1126
918
553
210
42
107
319
492
512
429
381
443
547
576
504
365
209
101
117
279
518
714
826
906
1009
1127
1204
1234
1240
1213
1111
949
860
964
1189
1318
1244
1105
1154
1456
1782
1872
1727
1587
1636
1793
1853
1785
1770
1949
2209
2287
2091
1833
1785
1981
2211
2245
2069
1841
1701
1686
1758
1864
1953
1960
1862
1721
1633
1641
1696
1717
1650
1504
1364
1311
1357
1427
1394
1210
995
935
1074
1264
1317
1197
1034
964
992
1029
1023
996
966
901
793
715
750
860
892
753
546
468
584
755
800
714
633
660
747
767
663
492
345
265
249
315
513
881
1399
1987
2554
3026
3358
3542
3596
3560
3473
3337
3120
2797
2384
1936
1503
1087
657
204
-234
-586
-797
-839
-708
-442
-121
170
379
513
617
704
745
700
569
408
290
279
370
500
605
653
637
552
389
185
49
73
232
399
441
331
145
-21
-110
-123
-105
-116
-161
-173
-55
218
564
868
1077
1207
1277
1292
1298
1366
1530
1723
1850
1927
2065
2326
2613
2768
2738
2597
2439
2302
2199
2149
2138
2088
1950
1805
1802
1970
2131
2066
1753
1366
1097
973
920
915
1024
1293
1665
2034
2344
2614
2842
2956
2883
2667
2476
2459
2596
2727
2737
2675
2659
2668
2517
2063
1428
925
745
773
775
708
778
1169
1783
2303
2526
2498
2360
2120
1673
1004
300
-204
-426
-472
-464
-397
-210
49
216
179
12
-112
-127
-132
-226
-361
-389
-214
175
784
1628
2618
3511
4074
4282
4276
4123
3710
2926
1890
915
204
-290
-679
-917
-844
-434
94
470
617
671
777
933
1035
1013
890
743
656
686
833
1042
1227
1337
1384
1405
1405
1367
1292
1219
1184
1178
1160
1082
938
761
604
532
598
789
1005
1128
1141
1156
1261
1385
1366
1153
894
755
719
672
652
910
1613
2551
3262
3469
3318
3103
2862
2339
1364
129
-981
-1755
-2274
-2662
-2868
-2771
-2401
-1993
-1761
-1709
-1692
-1636
-1603
-1672
-1810
-1904
-1898
-1833
-1766
-1703
-1619
-1533
-1511
-1593
-1721
-1784
-1720
-1568
-1423
-1328
-1265
-1237
-1299
-1471
-1641
-1614
-1300
-816
-348
62
522
1059
1503
1638
1464
1193
990
798
490
117
-133
-194
-239
-487
-946
-1427
-1795
-2102
-2478
-2926
-3301
-3454
-3348
-3040
-2625
-2209
-1893
-1731
-1698
-1746
-1874
-2107
-2430
-2746
-2947
-2981
-2880
-2716
-2542
-2382
-2263
-2208
-2235
-2333
-2461
-2570
-2640
-2688
-2733
-2769
-2754
-2657
-2499
-2336
-2199
-2059
-1880
-1692
-1593
-1641
-1771
-1847
-1808
-1744
-1789
-1949
-2075
-2034
-1870
-1748
-1770
-1857
-1859
-1724
-1533
-1392
-1318
-1248
-1143
-1030
-967
-968
-990
-982
-937
-897
-911
-987
-1072
-1091
-1008
-874
-784
-789
-842
-847
-755
-618
-525
-513
-536
-525
-475
-446
-477
-541
-574
-557
-534
-545
-574
-569
-522
-473
-461
-459
-413
-328
-273
-309
-408
-485
-495
-479
-517
-642
-802
-913
-937
-901
-858
-839
-838
-842
-848
-866
-898
-941
-1001
-1088
-1193
-1275
-1296
-1267
-1244
-1263
-1288
-1246
-1120
-989
-964
-1063
-1205
-1302
-1350
-1405
-1485
-1515
-1393
-1102
-729
-379
-82
198
471
683
761
697
565
461
404
336
206
42
-78
-100
-43
39
112
174
214
205
154
132
206
359
490
513
434
334
296
359
515
712
856
858
723
563
511
598
745
869
966
1093
1298
1589
1937
2277
2502
2514
2311
2011
1757
1608
1521
1439
1345
1249
1158
1081
1046
1074
1124
1115
1004
827
657
535
461
427
408
354
220
29
-129
-185
-179
-203
-298
-396
-414
-354
-302
-323
-401
-474
-505
-499
-482
-478
-496
-531
-568
-606
-664
-755
-848
-901
-909
-909
-912
-873
-749
-562
-351
-99
243
677
1097
1385
1523
1576
1573
1469
1220
873
511
144
-291
-824
-1382
-1833
-2106
-2234
-2303
-2367
-2414
-2393
-2254
-2002
-1709
-1477
-1362
-1341
-1348
-1341
-1330
-1341
-1367
-1378
-1349
-1288
-1210
-1108
-967
-793
-634
-552
-557
-580
-531
-385
-207
-76
-11
24
58
87
115
165
256
367
467
559
686
860
1036
1151
1197
1226
1286
1368
1433
1475
1530
1624
1745
1854
1937
2009
2087
2169
2240
2300
2355
2402
2431
2452
2491
2562
2652
2734
2794
2844
2895
2945
2997
3069
3157
3223
3224
3181
3174
3255
3367
3401
3330
3252
3287
3423
3523
3478
3325
3198
3173
3205
3204
3149
3089
3058
3033
2975
2884
2793
2708
2594
2422
2221
2051
1939
1851
1741
1611
1498
1422
1356
1263
1141
1013
894
770
635
506
409
342
278
205
141
106
87
52
-12
-83
-132
-157
-181
-218
-264
-308
-335
-344
-336
-324
-320
-330
-339
-324
-275
-213
-173
-183
-238
-291
-292
-236
-177
-178
-245
-309
-304
-248
-212
-215
-169
34
391
757
969
993
924
853
757
536
147
-318
-701
-916
-997
-1004
-924
-708
-390
-116
-9
-29
-14
120
283
304
132
-89
-161
-28
191
326
300
173
68
71
169
286
361
380
375
385
443
569
741
881
916
853
781
773
772
651
373
52
-174
-297
-414
-553
-610
-472
-183
86
224
288
402
566
668
625
498
428
471
544
535
447
394
471
645
787
798
690
572
551
640
758
797
725
622
620
777
1018
1209
1302
1370
1483
1590
1583
1435
1256
1138
1007
685
124
-492
-945
-1218
-1494
-1908
-2366
-2667
-2732
-2667
-2607
-2564
-2476
-2335
-2227
-2207
-2246
-2284
-2311
-2370
-2468
-2557
-2580
-2520
-2386
-2210
-2039
-1936
-1929
-1978
-2018
-2038
-2079
-2171
-2272
-2327
-2337
-2356
-2408
-2453
-2444
-2397
-2368
-2382
-2411
-2419
-2402
-2367
-2303
-2204
-2090
-2000
-1950
-1907
-1837
-1747
-1680
-1664
-1692
-1712
-1675
-1566
-1415
-1280
-1192
-1131
-1053
-946
-843
-787
-771
-756
-718
-658
-588
-508
-415
-329
-257
-178
-75
37
124
182
249
358
488
582
621
643
694
768
815
811
777
743
715
683
652
638
648
669
675
653
611
576
567
576
571
518
416
305
230
196
162
87
-27
-139
-219
-285
-364
-456
-542
-629
-746
-908
-1091
-1274
-1492
-1844
-2389
-3057
-3646
-3942
-3881
-3605
-3340
-3222
-3159
-2938
-2476
-1977
-1757
-1926
-2243
-2339
-2059
-1555
-1061
-639
-193
311
745
942
883
696
502
306
51
-262
-531
-619
-468
-147
194
421
489
438
335
233
157
111
84
58
63
158
353
545
579
414
224
246
511
780
787
534
301
345
623
847
798
548
356
408
666
948
1105
1120
1091
1141
1317
1537
1664
1641
1556
1547
1660
1802
1870
1881
1930
2049
2141
2110
1993
1918
1941
1971
1897
1733
1589
1527
1506
1471
1452
1531
1692
1790
1694
1465
1318
1389
1563
1589
1366
1052
883
915
995
988
946
996
1139
1245
1242
1210
1247
1343
1407
1403
1404
1468
1617
1875
2283
2819
3338
3667
3786
3836
3925
4003
3965
3799
3579
3293
2848
2238
1639
1233
996
717
284
-155
-350
-222
64
288
402
511
686
869
951
893
759
625
504
363
222
165
253
457
657
747
722
644
559
481
433
448
538
659
760
853
990
1177
1332
1368
1303
1245
1255
1270
1204
1075
1019
1119
1300
1416
1401
1336
1332
1402
1466
1455
1376
1276
1201
1186
1250
1379
1507
1569
1563
1550
1581
1632
1650
1629
1619
1661
1735
1792
1803
1790
1788
1823
1898
1985
2042
2045
2023
2030
2081
2126
2109
2041
1991
1998
2019
1994
1934
1906
1944
1994
1978
1899
1828
1817
1837
1812
1715
1583
1479
1432
1418
1396
1336
1245
1147
1063
988
901
796
681
577
491
405
297
153
-8
-139
-199
-203
-232
-348
-509
-591
-528
-410
-392
-523
-687
-745
-690
-643
-696
-810
-884
-882
-851
-845
-860
-868
-866
-875
-890
-888
-858
-824
-807
-794
-755
-687
-629
-612
-630
-652
-665
-684
-722
-765
-787
-789
-791
-784
-724
-584
-418
-338
-405
-555
-650
-615
-518
-498
-632
-848
-989
-955
-782
-600
-507
-493
-483
-442
-418
-469
-575
-659
-687
-713
-795
-901
-940
-878
-792
-783
-861
-960
-1029
-1081
-1141
-1190
-1189
-1144
-1110
-1110
-1104
-1044
-958
-930
-1014
-1172
-1317
-1396
-1431
-1476
-1546
-1603
-1594
-1517
-1422
-1378
-1407
-1467
-1502
-1489
-1471
-1499
-1574
-1638
-1646
-1616
-1599
-1613
-1609
-1533
-1399
-1294
-1277
-1293
-1238
-1108
-1010
-1024
-1098
-1090
-947
-755
-596
-396
-8
591
1216
1635
1781
1784
1812
1907
1984
1919
1651
1208
683
175
-288
-737
-1200
-1641
-1978
-2180
-2275
-2287
-2198
-2002
-1779
-1664
-1733
-1919
-2094
-2191
-2243
-2291
-2338
-2365
-2347
-2267
-2130
-1956
-1807
-1769
-1935
-2357
-2977
-3578
-3893
-3803
-3447
-3077
-2790
-2444
-1906
-1284
-837
-681
-673
-622
-526
-500
-529
-451
-186
111
260
346
674
1381
2200
2689
2678
2420
2277
2337
2380
2187
1797
1465
1371
1461
1551
1564
1594
1750
1960
2033
1894
1694
1609
1621
1540
1254
922
826
1073
1501
1873
2103
2276
2473
2678
2809
2826
2760
2672
2597
2541
2489
2420
2320
2197
2078
1994
1947
1902
1817
1679
1512
1360
1239
1118
967
798
659
568
477
337
155
-6
-120
-223
-341
-432
-423
-325
-246
-279
-406
-532
-606
-682
-837
-1070
-1306
-1478
-1588
-1676
-1758
-1816
-1822
-1790
-1762
-1768
-1809
-1850
-1860
-1831
-1774
-1701
-1606
-1483
-1351
-1247
-1194
-1173
-1141
-1071
-984
-933
-942
-989
-1010
-965
-874
-789
-741
-701
-626
-527
-464
-485
-543
-543
-455
-364
-392
-549
-709
-750
-686
-641
-704
-830
-910
-900
-846
-804
-771
-714
-627
-524
-402
-239
-64
49
54
-24
-127
-245
-410
-623
-827
-955
-995
-970
-883
-721
-503
-289
-145
-89
-115
-197
-292
-366
-429
-537
-716
-888
-933
-833
-710
-698
-783
-843
-817
-780
-845
-1019
-1201
-1320
-1403
-1535
-1738
-1945
-2072
-2070
-1957
-1806
-1699
-1652
-1619
-1551
-1478
-1485
-1622
-1825
-1967
-1992
-1971
-1998
-2046
-1970
-1678
-1259
-903
-680
-454
-70
409
731
723
500
321
298
298
162
-77
-271
-382
-535
-835
-1190
-1440
-1573
-1755
-2106
-2534
-2812
-2824
-2656
-2480
-2363
-2254
-2103
-1931
-1796
-1733
-1738
-1792
-1875
-1965
-2032
-2053
-2027
-1960
-1858
-1736
-1624
-1554
-1530
-1514
-1457
-1352
-1240
-1165
-1140
-1161
-1222
-1311
-1387
-1402
-1343
-1255
-1193
-1167
-1139
-1073
-987
-938
-960
-1039
-1128
-1191
-1229
-1265
-1312
-1345
-1319
-1210
-1042
-879
-776
-727
-671
-576
-497
-518
-626
-699
-647
-542
-554
-726
-886
-826
-555
-303
-243
-302
-288
-164
-79
-135
-223
-161
67
305
466
657
1018
1497
1885
2058
2081
2084
2095
2056
1953
1850
1792
1750
1702
1699
1805
1975
2078
2028
1859
1667
1507
1369
1232
1109
1040
1066
1215
1482
1801
2056
2176
2206
2259
2379
2490
2485
2359
2223
2170
2178
2157
2072
1983
1943
1926
1871
1777
1727
1757
1793
1724
1557
1428
1440
1528
1537
1402
1211
1083
1007
876
654
451
397
486
580
567
484
451
519
618
666
673
732
897
1112
1282
1369
1417
1475
1519
1487
1356
1178
1026
940
910
907
924
967
1033
1108
1169
1210
1241
1274
1308
1319
1281
1198
1111
1056
1027
983
887
742
589
475
427
442
502
583
666
730
758
745
715
702
715
726
703
660
654
715
793
796
696
581
567
678
819
883
857
815
829
895
958
980
967
945
926
924
970
1086
1247
1378
1411
1360
1307
1319
1383
1424
1385
1278
1188
1193
1299
1437
1538
1614
1774
2111
2579
3008
3269
3393
3509
3660
3751
3685
3507
3357
3276
3144
2830
2374
1950
1663
1440
1145
768
446
318
399
598
825
1039
1217
1331
1367
1342
1276
1157
969
733
518
397
401
496
616
696
696
617
502
406
350
308
248
184
166
219
302
350
336
292
258
248
245
234
213
184
154
129
112
94
62
16
-21
-30
-23
-30
-68
-116
-138
-125
-100
-88
-95
-113
-140
-181
-241
-304
-355
-395
-433
-462
-457
-400
-309
-227
-175
-132
-68
18
91
127
139
153
175
192
205
241
319
410
459
461
468
532
652
759
791
744
669
633
670
757
823
796
665
503
407
395
391
309
169
82
126
257
346
313
187
55
-62
-219
-474
-798
-1089
-1255
-1301
-1302
-1313
-1320
-1282
-1199
-1124
-1124
-1211
-1338
-1447
-1514
-1560
-1616
-1702
-1810
-1912
-1979
-2012
-2045
-2098
-2156
-2162
-2069
-1887
-1679
-1511
-1398
-1309
-1214
-1138
-1137
-1241
-1402
-1518
-1518
-1432
-1353
-1347
-1387
-1387
-1301
-1175
-1096
-1107
-1171
-1207
-1165
-1061
-963
-931
-968
-1028
-1063
-1073
-1099
-1171
-1278
-1376
-1447
-1511
-1593
-1676
-1724
-1726
-1710
-1715
-1746
-1773
-1780
-1791
-1841
-1931
-2026
-2086
-2108
-2119
-2149
-2206
-2279
-2351
-2404
-2431
-2447
-2496
-2604
-2754
-2889
-2967
-3006
-3064
-3168
-3281
-3341
-3338
-3323
-3341
-3370
-3337
-3218
-3077
-3012
-3045
-3089
-3043
-2900
-2772
-2765
-2865
-2950
-2921
-2795
-2677
-2653
-2709
-2758
-2727
-2621
-2507
-2439
-2401
-2318
-2131
-1854
-1542
-1204
-780
-218
415
927
1154
1119
1015
1036
1195
1327
1250
929
500
136
-116
-376
-808
-1447
-2146
-2699
-3016
-3147
-3174
-3113
-2931
-2651
-2373
-2182
-2063
-1951
-1845
-1827
-1952
-2161
-2311
-2303
-2160
-1966
-1773
-1590
-1424
-1320
-1323
-1414
-1513
-1549
-1511
-1441
-1386
-1364
-1371
-1399
-1427
-1430
-1387
-1310
-1242
-1219
-1228
-1236
-1222
-1206
-1217
-1249
-1274
-1276
-1269
-1285
-1331
-1371
-1364
-1290
-1184
-1112
-1119
-1169
-1181
-1117
-1028
-1005
-1069
-1139
-1128
-1039
-961
-944
-942
-875
-741
-618
-569
-573
-564
-507
-428
-358
-296
-234
-185
-152
-113
-47
21
29
-27
-59
14
165
266
248
184
208
330
427
405
301
216
168
79
-74
-177
-124
16
57
-74
-228
-219
-59
55
-25
-237
-410
-475
-500
-551
-605
-616
-607
-626
-673
-690
-632
-522
-402
-291
-198
-162
-204
-269
-272
-193
-113
-113
-164
-175
-112
-37
-32
-87
-128
-118
-90
-86
-97
-85
-44
3
47
97
145
156
111
67
111
258
408
468
470
549
782
1069
1221
1164
1021
968
1030
1083
1017
882
843
990
1232
1399
1412
1354
1357
1465
1591
1617
1520
1397
1365
1440
1528
1539
1484
1457
1522
1632
1688
1650
1578
1571
1644
1722
1730
1671
1629
1658
1729
1774
1774
1777
1822
1888
1908
1870
1830
1853
1920
1944
1880
1781
1739
1779
1824
1786
1655
1509
1436
1448
1481
1473
1435
1439
1540
1708
1863
1960
2022
2088
2149
2148
2055
1931
1881
1933
2016
2056
2096
2288
2737
3389
4063
4589
4905
5054
5113
5149
5196
5228
5157
4895
4448
3925
3438
2996
2527
1979
1382
822
388
147
122
267
471
640
763
883
995
1046
1016
967
963
957
850
662
563
675
899
1003
874
626
436
349
281
172
70
61
160
297
400
441
429
385
341
330
345
339
285
208
167
183
221
236
228
239
285
326
321
285
262
266
253
179
82
55
141
277
355
342
308
333
404
442
398
311
265
293
348
369
351
348
416
538
648
690
687
712
804
922
997
991
940
903
904
915
897
850
808
805
851
917
964
979
977
972
951
881
756
615
511
455
422
376
314
260
230
213
188
139
63
-40
-161
-285
-399
-490
-557
-609
-651
-673
-666
-627
-580
-552
-545
-547
-559
-611
-714
-832
-915
-968
-1048
-1179
-1288
-1282
-1162
-1039
-993
-979
-894
-729
-608
-646
-815
-976
-1035
-1024
-1042
-1130
-1234
-1278
-1241
-1166
-1100
-1059
-1037
-1025
-1038
-1089
-1162
-1212
-1222
-1232
-1296
-1407
-1486
-1455
-1331
-1203
-1137
-1107
-1044
-935
-843
-832
-892
-949
-950
-920
-925
-987
-1045
-1018
-887
-713
-577
-508
-479
-458
-446
-462
-508
-549
-553
-528
-529
-594
-689
-721
-632
-481
-409
-492
-653
-730
-658
-546
-556
-722
-913
-984
-920
-814
-745
-702
-652
-618
-648
-726
-772
-754
-753
-877
-1088
-1188
-1007
-591
-158
134
322
525
748
871
784
515
184
-100
-266
-255
-42
313
701
1069
1462
1923
2368
2623
2605
2390
2117
1829
1454
931
305
-310
-828
-1231
-1532
-1750
-1883
-1902
-1769
-1464
-1034
-594
-246
-25
97
151
134
29
-163
-417
-688
-916
-1053
-1094
-1085
-1070
-1031
-897
-638
-322
-68
45
32
-55
-207
-455
-812
-1238
-1650
-1981
-2194
-2276
-2245
-2153
-2062
-2001
-1954
-1888
-1806
-1752
-1771
-1872
-2008
-2108
-2125
-2070
-2006
-1996
-2052
-2129
-2158
-2105
-2000
-1909
-1881
-1901
-1912
-1874
-1800
-1749
-1762
-1826
-1890
-1921
-1918
-1885
-1819
-1732
-1673
-1701
-1823
-1966
-2044
-2038
-2009
-2028
-2092
-2127
-2075
-1959
-1852
-1802
-1775
-1708
-1584
-1463
-1407
-1410
-1407
-1343
-1240
-1171
-1196
-1304
-1429
-1499
-1480
-1391
-1288
-1233
-1239
-1273
-1291
-1284
-1286
-1331
-1421
-1532
-1649
-1770
-1882
-1959
-1981
-1964
-1946
-1946
-1960
-1983
-2020
-2066
-2100
-2108
-2102
-2106
-2113
-2098
-2060
-2036
-2062
-2120
-2168
-2208
-2284
-2405
-2499
-2481
-2363
-2236
-2163
-2109
-2017
-1902
-1832
-1828
-1824
-1778
-1749
-1830
-1998
-2112
-2066
-1920
-1833
-1878
-1968
-1968
-1858
-1745
-1728
-1790
-1828
-1784
-1704
-1677
-1733
-1812
-1834
-1778
-1693
-1636
-1612
-1596
-1567
-1536
-1517
-1503
-1488
-1491
-1537
-1611
-1642
-1578
-1444
-1337
-1331
-1408
-1476
-1453
-1335
-1197
-1142
-1215
-1367
-1479
-1464
-1358
-1290
-1359
-1526
-1663
-1677
-1591
-1493
-1439
-1418
-1402
-1379
-1352
-1302
-1218
-1131
-1098
-1152
-1250
-1299
-1246
-1125
-1029
-1020
-1070
-1091
-1027
-893
-755
-669
-657
-691
-710
-669
-579
-507
-489
-457
-299
0
313
493
545
607
766
935
969
857
737
715
717
586
277
-92
-381
-586
-805
-1089
-1367
-1525
-1518
-1381
-1172
-925
-665
-434
-267
-158
-85
-51
-84
-193
-322
-393
-381
-313
-229
-174
-194
-329
-570
-833
-999
-1017
-960
-954
-1056
-1158
-1053
-617
-8
380
238
-341
-893
-1000
-683
-308
-141
-44
321
1078
2006
2792
3307
3596
3697
3583
3274
2902
2627
2507
2477
2461
2452
2481
2566
2704
2877
3027
3080
3010
2870
2765
2760
2844
2962
3077
3172
3224
3213
3146
3084
3088
3156
3227
3260
3277
3321
3379
3387
3315
3210
3130
3057
2918
2678
2392
2133
1905
1692
1540
1563
1815
2198
2550
2811
3056
3348
3612
3701
3557
3287
3050
2904
2788
2632
2440
2283
2216
2216
2211
2134
1981
1805
1669
1591
1529
1427
1277
1124
1011
936
857
738
587
448
355
306
275
245
221
211
202
166
94
9
-52
-77
-97
-149
-234
-309
-337
-338
-365
-445
-542
-578
-518
-419
-368
-393
-424
-368
-219
-57
45
95
141
177
143
18
-119
-168
-131
-118
-201
-299
-249
9
360
631
759
810
873
964
1038
1060
1037
996
964
967
1021
1115
1205
1252
1256
1240
1219
1183
1126
1071
1041
1034
1020
984
947
934
935
918
870
815
785
783
785
779
773
782
802
821
838
862
888
891
857
801
767
775
810
837
847
858
882
905
916
920
921
908
874
837
837
898
1004
1156
1280
1775
2234
2641
2861
2863
2724
2558
2442
2377
2272
1978
1402
618
-146
-690
-994
-1202
-1430
-1633
-1659
-1406
-912
-327
170
444
453
272
38
-148
-282
-411
-528
-563
-468
-269
-40
159
303
376
347
194
-66
-371
-620
-723
-657
-471
-246
-45
108
214
273
309
372
494
647
755
768
723
701
737
781
762
673
588
593
701
843
941
983
1007
1048
1080
1063
1007
976
1011
1082
1128
1145
1204
1333
1465
1491
1385
1234
1129
1070
1002
900
817
804
847
894
922
949
989
1017
1000
938
870
829
823
843
876
897
885
853
856
936
1044
1060
903
633
409
339
372
345
154
-145
-396
-503
-512
-550
-695
-917
-1119
-1240
-1290
-1328
-1406
-1531
-1668
-1773
-1831
-1864
-1908
-1979
-2054
-2106
-2146
-2210
-2317
-2446
-2551
-2613
-2656
-2701
-2749
-2785
-2807
-2832
-2873
-2920
-2949
-2954
-2948
-2949
-2958
-2966
-2959
-2940
-2919
-2905
-2901
-2907
-2915
-2914
-2895
-2860
-2825
-2808
-2808
-2805
-2775
-2719
-2662
-2624
-2609
-2596
-2565
-2514
-2453
-2398
-2364
-2354
-2348
-2320
-2257
-2173
-2101
-2056
-2023
-1971
-1882
-1777
-1695
-1660
-1665
-1678
-1678
-1669
-1659
-1645
-1611
-1553
-1491
-1440
-1389
-1322
-1244
-1192
-1189
-1203
-1181
-1118
-1068
-1081
-1141
-1180
-1161
-1117
-1109
-1147
-1181
-1166
-1119
-1090
-1099
-1108
-1062
-959
-866
-846
-898
-958
-969
-930
-883
-862
-868
-883
-887
-878
-868
-868
-883
-915
-975
-1058
-1128
-1140
-1072
-941
-760
-478
-26
595
1245
1724
1930
1930
1876
1860
1848
1749
1498
1105
630
160
-235
-553
-854
-1215
-1652
-2087
-2403
-2525
-2461
-2263
-1992
-1710
-1484
-1359
-1330
-1355
-1400
-1476
-1614
-1815
-2035
-2190
-2211
-2086
-1857
-1612
-1440
-1395
-1452
-1538
-1582
-1586
-1608
-1665
-1703
-1643
-1491
-1364
-1358
-1431
-1441
-1300
-1097
-998
-1056
-1161
-1177
-1097
-1032
-1043
-1059
-966
-758
-556
-475
-502
-533
-500
-422
-369
-370
-395
-389
-324
-221
-135
-88
-53
22
139
225
209
120
80
175
354
480
492
462
500
616
721
751
736
750
812
881
929
983
1083
1220
1338
1408
1445
1488
1540
1574
1589
1612
1660
1709
1719
1690
1671
1708
1777
1818
1803
1772
1794
1872
1922
1859
1708
1583
1568
1630
1663
1612
1533
1519
1587
1664
1666
1577
1456
1376
1378
1450
1523
1536
1477
1406
1401
1464
1519
1505
1444
1393
1363
1315
1235
1206
1301
1475
1604
1615
1580
1613
1714
1763
1688
1561
1508
1541
1542
1433
1295
1292
1466
1670
1718
1589
1446
1449
1584
1691
1661
1543
1465
1485
1539
1553
1532
1544
1600
1627
1544
1392
1296
1323
1406
1420
1345
1291
1358
1518
1637
1625
1524
1429
1369
1295
1176
1071
1040
1050
1002
854
692
636
704
801
837
823
829
894
986
1071
1165
1285
1397
1439
1390
1307
1269
1297
1351
1382
1389
1394
1402
1410
1422
1463
1534
1584
1567
1493
1422
1384
1350
1299
1253
1250
1302
1404
1584
1906
2375
2887
3307
3587
3783
3947
4062
4084
4023
3923
3789
3566
3228
2827
2444
2110
1786
1436
1081
787
614
599
729
942
1152
1301
1386
1441
1476
1462
1364
1194
1005
836
707
645
675
791
932
1010
981
882
789
736
691
615
528
492
523
557
515
408
331
346
407
417
348
275
271
315
331
286
227
212
234
243
227
222
251
288
291
269
270
324
409
471
479
453
421
400
394
405
430
454
465
464
476
521
600
681
729
733
727
757
835
922
973
985
1002
1066
1167
1250
1278
1282
1310
1384
1474
1533
1544
1527
1511
1513
1527
1535
1510
1437
1329
1224
1161
1138
1109
1032
913
795
723
696
671
609
514
417
347
300
245
166
77
13
-9
-17
-53
-138
-245
-316
-312
-253
-196
-186
-216
-246
-250
-240
-240
-249
-243
-222
-229
-296
-394
-441
-404
-349
-367
-469
-567
-588
-554
-552
-616
-691
-708
-656
-572
-491
-422
-368
-335
-319
-314
-338
-417
-543
-647
-661
-604
-566
-595
-635
-605
-502
-408
-391
-435
-470
-467
-455
-470
-506
-530
-506
-432
-325
-212
-122
-68
-40
-33
-57
-108
-146
-127
-68
-55
-150
-315
-449
-498
-519
-603
-761
-919
-993
-974
-923
-909
-950
-1009
-1037
-1012
-966
-966
-1045
-1166
-1247
-1240
-1169
-1099
-1070
-1071
-1064
-1025
-953
-854
-744
-661
-638
-664
-666
-571
-393
-229
-155
-100
99
540
1141
1697
2073
2295
2461
2594
2621
2460
2105
1602
979
261
-478
-1108
-1531
-1772
-1941
-2106
-2226
-2207
-2004
-1684
-1360
-1103
-910
-741
-568
-414
-321
-284
-236
-109
93
301
460
595
770
952
1009
853
586
449
592
930
1234
1375
1426
1548
1803
2086
2218
2073
1667
1154
725
468
295
37
-368
-794
-1056
-1095
-997
-889
-813
-749
-700
-694
-708
-682
-602
-532
-541
-619
-699
-749
-798
-855
-853
-716
-471
-240
-114
-69
-28
29
46
-25
-175
-362
-573
-818
-1074
-1277
-1381
-1402
-1385
-1336
-1225
-1040
-831
-670
-586
-549
-524
-529
-589
-682
-743
-721
-637
-535
-432
-325
-238
-243
-386
-612
-816
-948
-1062
-1227
-1432
-1590
-1636
-1602
-1571
-1597
-1667
-1751
-1835
-1934
-2070
-2234
-2391
-2500
-2554
-2583
-2611
-2614
-2546
-2419
-2319
-2322
-2404
-2468
-2470
-2466
-2517
-2591
-2591
-2502
-2424
-2452
-2556
-2616
-2583
-2531
-2540
-2587
-2575
-2473
-2371
-2372
-2452
-2493
-2409
-2257
-2161
-2168
-2198
-2139
-1969
-1772
-1652
-1627
-1626
-1587
-1520
-1499
-1574
-1706
-1806
-1823
-1807
-1847
-1971
-2105
-2156
-2112
-2059
-2075
-2158
-2226
-2227
-2185
-2154
-2146
-2127
-2071
-2001
-1966
-1973
-1974
-1924
-1829
-1744
-1716
-1747
-1811
-1879
-1935
-1965
-1976
-1993
-2035
-2091
-2115
-2069
-1966
-1867
-1828
-1841
-1844
-1784
-1674
-1581
-1559
-1584
-1569
-1464
-1319
-1252
-1318
-1437
-1460
-1336
-1163
-1077
-1105
-1158
-1128
-996
-828
-697
-618
-559
-451
-226
128
530
841
955
883
726
588
512
477
428
297
41
-307
-646
-894
-1072
-1281
-1581
-1913
-2153
-2224
-2142
-1953
-1690
-1391
-1135
-1006
-999
-1021
-994
-955
-996
-1152
-1341
-1437
-1390
-1261
-1139
-1062
-1021
-1017
-1079
-1212
-1353
-1399
-1314
-1170
-1079
-1074
-1096
-1078
-1036
-1045
-1133
-1229
-1234
-1145
-1049
-1013
-1005
-944
-805
-647
-534
-463
-391
-300
-194
-75
68
213
288
236
95
-35
-94
-119
-178
-271
-333
-314
-241
-162
-80
26
135
184
159
133
207
389
588
718
783
828
856
839
787
763
806
863
864
833
884
1087
1373
1597
1692
1720
1769
1834
1841
1760
1649
1592
1600
1610
1566
1472
1376
1305
1235
1137
1020
918
855
811
757
686
620
573
541
504
457
404
347
294
262
276
327
355
300
171
54
29
85
148
160
137
126
143
155
139
108
89
84
57
-6
-74
-99
-67
-12
11
-30
-118
-209
-262
-269
-247
-224
-209
-203
-200
-201
-208
-211
-206
-201
-211
-244
-279
-287
-249
-180
-117
-96
-130
-206
-281
-306
-268
-195
-128
-85
-46
24
131
255
360
408
381
294
202
169
212
284
327
332
356
441
559
640
651
627
622
631
610
535
437
372
362
394
447
498
519
490
430
399
444
542
621
637
618
629
707
829
945
1006
999
949
886
829
784
757
756
787
858
1013
1331
1852
2501
3101
3508
3715
3829
3939
4031
4036
3926
3721
3431
3053
2596
2107
1631
1166
686
205
-207
-469
-554
-487
-317
-96
131
325
468
562
610
600
517
366
177
1
-117
-162
-159
-144
-136
-138
-154
-202
-284
-360
-371
-302
-198
-129
-127
-163
-195
-214
-242
-283
-309
-286
-217
-153
-140
-189
-269
-347
-399
-409
-362
-253
-111
26
141
251
370
474
512
462
361
268
208
167
137
137
189
287
395
480
533
547
498
378
218
78
15
53
181
368
586
810
1030
1238
1422
1552
1603
1588
1555
1559
1614
1686
1726
1723
1721
1780
1894
1989
1999
1929
1843
1779
1710
1596
1457
1360
1334
1328
1273
1174
1087
1054
1057
1055
1027
986
938
882
825
778
742
696
636
588
580
611
653
682
688
656
581
491
441
456
490
474
402
341
345
381
376
303
213
174
188
209
205
202
237
312
385
423
424
405
377
346
310
273
240
217
217
249
300
343
359
344
305
245
166
93
44
10
-42
-119
-182
-197
-173
-165
-202
-249
-267
-271
-322
-439
-569
-639
-651
-670
-737
-827
-894
-928
-964
-1021
-1089
-1159
-1234
-1320
-1410
-1483
-1538
-1566
-1542
-1455
-1344
-1286
-1309
-1350
-1332
-1272
-1287
-1460
-1735
-1974
-2094
-2130
-2152
-2163
-2122
-2024
-1915
-1838
-1787
-1739
-1698
-1685
-1700
-1717
-1699
-1594
-1335
-898
-370
89
386
581
783
987
1064
935
693
502
392
232
-87
-509
-893
-1177
-1419
-1684
-1937
-2087
-2099
-1996
-1829
-1630
-1423
-1243
-1094
-964
-867
-855
-952
-1105
-1221
-1263
-1262
-1247
-1197
-1086
-956
-898
-945
-1027
-1054
-1003
-924
-854
-782
-697
-629
-614
-637
-633
-569
-492
-467
-503
-541
-528
-466
-394
-334
-303
-315
-375
-452
-483
-434
-340
-264
-240
-242
-231
-203
-178
-159
-136
-108
-97
-124
-183
-243
-281
-287
-263
-224
-190
-177
-187
-198
-200
-204
-217
-216
-167
-84
-39
-83
-175
-199
-85
100
211
174
55
-11
36
129
163
120
74
84
111
69
-60
-190
-226
-173
-135
-196
-316
-380
-325
-211
-169
-253
-392
-477
-473
-441
-470
-577
-682
-703
-641
-572
-579
-659
-745
-803
-860
-933
-984
-966
-922
-908
-887
-745
-479
-268
-295
-483
-539
-325
-75
-125
-454
-677
-503
-107
81
-96
-350
-344
-96
86
-4
-223
-295
-155
11
22
-110
-212
-164
-10
126
156
101
75
177
395
583
601
469
373
458
674
823
773
613
543
638
792
882
910
952
1029
1091
1109
1154
1296
1482
1588
1549
1428
1344
1336
1333
1252
1092
930
842
818
793
735
692
730
838
902
826
654
537
561
656
696
666
668
773
918
981
940
892
936
1062
1186
1239
1225
1204
1245
1368
1532
1680
1822
2061
2474
2989
3393
3524
3438
3361
3441
3598
3654
3544
3371
3240
3134
2946
2623
2221
1833
1489
1171
873
638
525
574
790
1120
1468
1735
1879
1944
1975
1946
1786
1499
1209
1081
1156
1319
1447
1547
1724
2006
2250
2269
2056
1811
1738
1839
1940
1910
1786
1715
1778
1918
2013
2015
1991
2022
2112
2181
2159
2062
1979
1968
1997
2003
1964
1922
1908
1891
1828
1746
1735
1835
1971
2024
1967
1903
1935
2045
2114
2066
1950
1873
1892
1978
2071
2148
2209
2243
2245
2249
2304
2401
2462
2422
2307
2227
2258
2354
2419
2410
2369
2355
2370
2381
2381
2394
2419
2423
2386
2349
2366
2433
2472
2416
2281
2149
2085
2078
2063
1998
1897
1811
1762
1729
1675
1580
1467
1372
1315
1272
1200
1093
990
935
919
880
773
636
556
568
608
586
487
379
330
331
319
250
145
49
-17
-66
-97
-82
-5
103
168
149
99
118
233
348
328
158
-14
-28
117
265
277
175
89
92
141
166
168
187
226
251
241
237
273
319
321
270
216
191
173
117
35
-17
-7
34
43
8
-14
28
117
182
174
128
117
158
205
206
159
116
108
114
105
87
90
114
140
158
169
177
165
125
86
81
91
67
20
44
209
447
586
542
410
362
453
579
624
596
588
643
692
658
580
545
559
548
483
497
770
1305
1900
2333
2567
2717
2864
2950
2897
2723
2515
2287
1969
1539
1115
842
732
652
477
243
85
77
167
261
313
323
291
220
171
254
505
784
873
670
284
-61
-199
-126
40
149
116
-14
-50
226
857
1603
2099
2179
2020
1943
2075
2250
2226
1936
1542
1280
1291
1577
2033
2492
2784
2855
2803
2765
2773
2752
2643
2491
2369
2265
2116
1942
1875
1982
2145
2196
2142
2180
2436
2759
2871
2700
2467
2402
2471
2474
2346
2248
2324
2494
2579
2432
2553
2697
2871
2889
2730
2554
2494
2512
2481
2361
2231
2183
2228
2318
2406
2455
2428
2298
2096
1916
1836
1843
1832
1716
1530
1403
1422
1516
1525
1374
1160
1038
1042
1067
1008
868
731
638
551
447
350
282
220
134
55
35
73
90
31
-66
-126
-142
-187
-299
-429
-489
-467
-445
-497
-606
-692
-706
-675
-672
-729
-806
-851
-821
-720
-585
-474
-450
-527
-629
-637
-523
-408
-449
-643
-816
-825
-741
-752
-922
-1105
-1145
-1082
-1082
-1189
-1253
-1143
-952
-883
-986
-1092
-1041
-903
-883
-1047
-1238
-1276
-1175
-1107
-1151
-1213
-1157
-989
-867
-904
-1033
-1089
-994
-840
-797
-927
-1118
-1213
-1183
-1152
-1232
-1388
-1471
-1414
-1313
-1310
-1406
-1454
-1349
-1167
-1088
-1189
-1359
-1430
-1372
-1282
-1241
-1232
-1188
-1091
-980
-887
-805
-728
-668
-626
-595
-593
-646
-716
-702
-548
-334
-208
-174
-42
343
889
1304
1403
1287
1198
1239
1314
1292
1169
1024
907
793
644
448
213
-51
-327
-582
-797
-964
-1039
-939
-646
-280
-25
45
37
87
199
240
116
-97
-253
-275
-212
-144
-74
54
242
398
412
263
68
-25
30
156
237
237
226
283
403
501
519
494
491
492
422
276
176
242
418
502
385
197
172
362
560
541
320
116
97
206
280
251
190
196
280
387
474
527
543
530
511
503
488
434
367
366
466
603
665
631
594
647
771
866
877
843
834
862
882
870
854
874
926
967
960
908
845
802
792
809
820
785
698
609
582
624
663
621
500
380
334
354
358
308
241
213
223
222
175
108
65
49
28
-15
-67
-113
-160
-223
-296
-369
-447
-538
-637
-719
-776
-825
-880
-933
-946
-911
-857
-825
-835
-883
-946
-982
-957
-881
-823
-842
-906
-922
-828
-667
-540
-499
-499
-470
-380
-243
-87
43
95
48
-30
-37
39
103
61
-61
-157
-182
-193
-243
-270
-191
-39
45
-14
-110
-87
58
150
64
-120
-206
-120
2
13
-68
-88
40
220
281
167
-22
-148
-157
-112
-119
-225
-385
-487
-440
-271
-110
-65
-123
-176
-156
-95
-62
-60
-44
-2
12
-24
-52
4
126
222
259
312
439
573
607
548
521
605
739
827
907
1102
1438
1779
1982
2059
2125
2217
2260
2199
2103
2064
2046
1915
1623
1288
1050
899
702
389
63
-122
-119
-6
125
265
444
642
790
847
837
799
734
614
436
267
200
265
407
534
589
581
554
536
533
530
512
481
458
469
512
546
529
457
380
353
387
437
463
461
459
467
468
441
398
376
396
431
449
447
450
473
495
489
458
432
427
426
401
349
307
306
337
367
373
363
359
360
345
314
299
326
387
450
508
577
669
764
831
863
880
895
893
865
838
850
904
954
961
942
951
1017
1109
1171
1178
1149
1112
1077
1035
986
938
902
881
867
860
866
884
902
905
894
879
860
816
718
570
421
328
281
216
91
-62
-163
-170
-128
-116
-159
-215
-227
-202
-179
-162
-111
-8
90
104
29
-52
-66
-27
-5
-32
-80
-122
-162
-199
-169
-16
209
353
324
227
246
419
575
548
368
203
157
180
181
154
139
115
36
-57
-57
36
64
-101
-353
-447
-308
-149
-217
-493
-723
-732
-612
-556
-609
-651
-587
-472
-418
-443
-456
-386
-283
-259
-362
-532
-664
-692
-650
-639
-723
-862
-963
-983
-957
-937
-941
-950
-951
-954
-965
-961
-920
-865
-835
-843
-856
-831
-780
-736
-701
-648
-581
-561
-629
-745
-824
-824
-778
-693
-501
-151
287
653
861
967
1079
1198
1240
1187
1127
1119
1089
910
579
234
-15
-228
-538
-948
-1296
-1439
-1399
-1300
-1201
-1030
-725
-371
-140
-130
-259
-373
-401
-419
-534
-741
-901
-889
-707
-477
-325
-282
-295
-309
-315
-330
-352
-358
-323
-260
-212
-221
-282
-342
-340
-268
-180
-143
-167
-207
-207
-169
-149
-186
-239
-226
-127
-21
-5
-77
-139
-108
-16
31
-19
-98
-103
-16
78
92
41
23
92
186
193
94
-4
26
175
301
287
182
153
291
496
594
530
424
431
555
656
614
468
370
407
509
544
478
405
423
524
614
620
569
530
538
571
589
570
515
426
328
264
264
299
296
200
47
-72
-80
5
93
104
38
-28
-33
15
47
16
-66
-153
-222
-272
-299
-297
-284
-305
-386
-486
-521
-466
-388
-378
-447
-514
-499
-407
-307
-258
-258
-273
-277
-258
-208
-138
-79
-62
-74
-49
53
190
276
293
311
395
518
597
602
605
672
767
799
744
679
697
785
847
823
770
795
914
1023
1025
920
819
820
897
936
871
762
733
817
915
900
796
758
893
1108
1182
1022
774
668
748
830
732
481
279
264
369
435
403
346
366
474
589
628
575
494
457
476
506
496
456
440
474
511
496
431
371
345
337
317
305
350
494
759
1148
1628
2101
2437
2576
2588
2599
2665
2720
2672
2500
2260
2004
1723
1377
953
485
24
-393
-751
-1024
-1156
-1089
-821
-425
-14
337
625
871
1055
1118
1031
861
702
605
547
497
483
544
668
782
833
845
867
881
821
676
551
568
718
864
897
859
885
1044
1271
1457
1563
1622
1655
1640
1555
1436
1352
1338
1362
1376
1363
1342
1333
1343
1374
1421
1454
1428
1336
1242
1236
1349
1508
1599
1579
1509
1484
1527
1581
1588
1558
1547
1589
1653
1692
1702
1727
1795
1866
1876
1824
1789
1848
1978
2068
2028
1897
1802
1827
1931
1996
1958
1864
1814
1850
1921
1946
1904
1839
1802
1794
1775
1721
1644
1571
1513
1468
1436
1418
1393
1331
1230
1127
1059
1015
954
857
758
708
721
745
717
634
560
548
577
573
491
378
329
388
492
538
493
419
393
415
420
365
280
230
234
246
226
188
180
225
278
278
211
128
90
101
116
101
71
59
67
77
83
110
180
255
263
183
88
67
124
168
111
-28
-145
-148
-51
44
55
2
-12
88
269
417
444
361
256
195
167
117
12
-124
-245
-325
-371
-399
-414
-418
-428
-466
-534
-603
-634
-619
-594
-611
-682
-763
-796
-767
-720
-713
-752
-792
-789
-745
-702
-681
-664
-612
-516
-418
-399
-497
-652
-744
-700
-555
-402
-249
4
455
1062
1633
1983
2065
1968
1826
1730
1700
1688
1600
1369
1021
658
353
78
-250
-654
-1076
-1431
-1669
-1773
-1712
-1474
-1131
-807
-593
-481
-417
-388
-435
-579
-788
-1011
-1189
-1266
-1207
-1021
-802
-678
-720
-897
-1105
-1229
-1232
-1178
-1199
-1397
-1759
-2184
-2584
-2972
-3377
-3750
-3983
-4026
-3944
-3786
-3448
-2774
-1809
-846
-161
284
783
1511
2299
2834
3011
3009
3057
3186
3288
3307
3311
3398
3574
3740
3787
3687
3491
3290
3125
2929
2588
2067
1493
1057
859
868
1037
1387
1925
2550
3097
3495
3814
4122
4348
4341
4072
3692
3381
3173
2985
2777
2639
2669
2830
2982
3028
2996
2974
2989
2986
2903
2751
2610
2549
2573
2647
2745
2867
3006
3111
3114
2998
2832
2722
2707
2708
2620
2429
2226
2104
2062
2021
1922
1782
1651
1542
1447
1375
1351
1365
1365
1309
1214
1137
1101
1073
1016
947
901
876
836
768
708
691
692
646
548
477
525
688
866
959
961
922
872
785
617
367
83
-175
-363
-465
-497
-492
-475
-454
-422
-380
-343
-328
-341
-383
-446
-507
-522
-454
-319
-183
-119
-146
-224
-296
-339
-369
-404
-432
-413
-319
-173
-23
95
178
227
221
130
-25
-183
-297
-385
-494
-636
-759
-801
-762
-698
-671
-699
-747
-768
-752
-726
-726
-749
-766
-759
-747
-754
-769
-764
-738
-733
-785
-878
-948
-958
-937
-947
-1003
-1037
-942
-673
-310
-4
143
148
112
93
63
-52
-271
-530
-759
-943
-1117
-1325
-1587
-1882
-2153
-2362
-2526
-2704
-2914
-3059
-3007
-2740
-2401
-2170
-2082
-2029
-1914
-1767
-1683
-1710
-1809
-1922
-2002
-2009
-1916
-1750
-1602
-1554
-1584
-1597
-1534
-1440
-1402
-1434
-1467
-1436
-1361
-1327
-1386
-1487
-1526
-1435
-1249
-1080
-1024
-1066
-1101
-1037
-900
-808
-835
-929
-970
-896
-761
-648
-568
-473
-344
-234
-197
-224
-258
-267
-271
-302
-350
-383
-382
-341
-253
-122
12
84
67
16
11
68
138
168
164
166
197
248
309
385
466
517
515
491
507
574
626
601
518
471
519
619
672
633
558
530
553
550
460
321
230
230
259
225
119
23
8
48
62
9
-79
-149
-199
-264
-349
-423
-472
-533
-642
-762
-804
-744
-674
-725
-910
-1102
-1173
-1151
-1182
-1345
-1551
-1641
-1563
-1408
-1276
-1165
-1014
-834
-731
-772
-889
-960
-963
-1000
-1139
-1300
-1327
-1165
-922
-734
-619
-500
-337
-187
-130
-165
-215
-226
-210
-201
-196
-166
-114
-91
-122
-167
-162
-107
-74
-122
-235
-343
-413
-471
-540
-602
-629
-638
-676
-734
-727
-584
-370
-243
-307
-491
-625
-633
-615
-723
-966
-1181
-1208
-1068
-941
-958
-1063
-1088
-942
-717
-568
-554
-595
-580
-476
-332
-203
-112
-72
-100
-184
-264
-267
-177
-50
43
83
102
155
273
434
581
669
732
864
1119
1431
1662
1737
1726
1751
1836
1889
1840
1737
1686
1698
1664
1476
1149
797
510
276
40
-214
-432
-547
-520
-363
-133
94
261
348
376
372
334
250
129
1
-104
-169
-185
-144
-53
51
118
125
89
51
35
41
67
125
212
292
308
241
144
101
155
283
415
500
542
582
660
773
876
917
884
815
769
774
810
843
863
887
925
969
1005
1029
1050
1068
1074
1070
1069
1084
1106
1122
1133
1274
1188
1227
1244
1239
1237
1264
1318
1379
1435
1488
1550
1616
1667
1687
1680
1667
1662
1667
1674
1678
1678
1678
1680
1684
1688
1682
1654
1594
1513
1440
1396
1367
1317
1224
1112
1027
994
984
949
867
762
675
631
614
590
539
470
405
354
302
230
143
64
10
-33
-101
-205
-313
-379
-391
-386
-412
-470
-520
-524
-495
-478
-494
-527
-544
-546
-566
-630
-723
-807
-854
-869
-879
-907
-950
-977
-950
-855
-739
-681
-717
-799
-838
-803
-753
-762
-827
-871
-845
-795
-794
-838
-857
-814
-763
-785
-868
-912
-845
-708
-618
-635
-711
-750
-716
-656
-639
-686
-766
-824
-821
-757
-665
-589
-560
-579
-621
-651
-645
-618
-617
-684
-809
-929
-991
-1029
-1118
-1282
-1457
-1549
-1543
-1511
-1512
-1516
-1454
-1308
-1139
-1017
-965
-968
-1002
-1040
-1051
-1022
-971
-932
-921
-918
-888
-814
-715
-623
-559
-496
-359
-84
302
664
865
883
817
762
716
623
474
323
201
64
-144
-403
-646
-839
-1022
-1245
-1491
-1681
-1748
-1675
-1497
-1277
-1082
-962
-917
-906
-899
-913
-990
-1131
-1287
-1394
-1414
-1355
-1242
-1100
-963
-869
-852
-917
-1033
-1140
-1189
-1167
-1098
-1030
-996
-1001
-1033
-1078
-1121
-1151
-1160
-1154
-1144
-1134
-1114
-1070
-1000
-927
-869
-832
-809
-794
-793
-812
-839
-855
-852
-837
-821
-801
-757
-679
-591
-530
-505
-488
-442
-375
-330
-331
-356
-351
-297
-221
-143
-60
43
147
215
236
257
337
479
615
677
664
638
646
686
725
747
768
801
835
848
832
799
757
709
671
670
704
720
653
509
383
369
461
561
570
483
369
281
228
194
173
171
166
119
22
-84
-146
-155
-160
-204
-290
-382
-449
-493
-539
-593
-645
-678
-686
-680
-678
-693
-724
-748
-740
-695
-638
-608
-632
-694
-762
-797
-773
-698
-614
-570
-589
-634
-646
-605
-541
-503
-512
-537
-554
-570
-597
-622
-603
-523
-432
-400
-449
-526
-564
-551
-530
-533
-543
-531
-514
-543
-623
-682
-646
-526
-417
-400
-447
-465
-407
-314
-270
-304
-365
-377
-312
-215
-176
-239
-360
-447
-447
-414
-450
-585
-740
-825
-839
-853
-886
-866
-737
-565
-483
-527
-572
-489
-323
-261
-402
-615
-669
-514
-356
-418
-658
-821
-761
-618
-600
-710
-761
-625
-379
-115
272
937
1794
2482
2710
2576
2448
2553
2777
2847
2627
2192
1693
1248
910
665
402
-21
-624
-1240
-1646
-1758
-1656
-1447
-1172
-850
-557
-380
-319
-287
-230
-216
-337
-574
-801
-899
-821
-599
-305
-46
59
-20
-169
-236
-205
-219
-385
-592
-619
-401
-140
-67
-173
-230
-93
129
228
167
100
164
308
378
321
237
258
391
525
562
532
548
667
804
823
688
529
507
621
713
668
564
558
673
763
706
578
562
715
896
951
900
915
1100
1368
1543
1554
1495
1491
1566
1654
1694
1694
1706
1746
1795
1844
1916
2016
2087
2049
1903
1749
1700
1770
1843
1807
1677
1580
1627
1801
1973
2029
1967
1864
1797
1778
1769
1728
1639
1524
1419
1345
1298
1247
1166
1066
991
973
982
941
830
717
680
704
696
613
524
525
588
583
454
311
295
393
452
372
234
195
292
411
432
368
307
292
284
237
163
114
134
223
333
395
370
287
229
244
296
306
247
163
119
129
163
197
225
244
245
228
208
187
156
127
145
236
371
495
568
609
632
648
669
688
657
540
388
335
459
658
732
603
409
319
329
280
88
-159
-322
-391
-455
-546
-602
-581
-534
-531
-556
-532
-438
-355
-362
-438
-498
-487
-437
-389
-359
-343
-326
-297
-265
-260
-305
-354
-307
-136
64
199
343
672
1228
1817
2191
2303
2308
2327
2313
2202
2072
2043
2063
1919
1523
1061
771
634
397
-87
-656
-1019
-1076
-949
-781
-590
-320
1
286
491
619
649
546
329
88
-95
-215
-301
-325
-227
-23
174
267
277
292
350
396
372
299
243
238
259
268
248
197
127
100
196
415
642
742
702
623
583
560
498
412
376
413
453
450
464
584
790
946
959
889
877
981
1102
1107
979
821
750
793
906
1029
1118
1151
1123
1070
1062
1143
1262
1316
1264
1167
1136
1203
1304
1366
1383
1404
1442
1457
1431
1409
1435
1486
1480
1377
1233
1151
1172
1258
1326
1325
1276
1237
1258
1317
1341
1268
1119
975
891
841
757
620
483
414
428
465
455
364
222
97
29
-29
-172
-420
-649
-689
-507
-261
-130
-122
-74
124
376
488
385
181
31
-31
-81
-179
-315
-447
-539
-566
-514
-410
-323
-275
-202
-9
293
561
670
652
648
721
782
696
466
235
150
227
374
501
588
678
822
1021
1215
1314
1267
1109
935
841
853
939
1046
1133
1181
1192
1193
1217
1255
1259
1190
1065
943
857
788
709
624
560
524
479
390
271
169
102
47
-29
-116
-178
-196
-190
-179
-163
-150
-175
-273
-420
-548
-616
-670
-784
-954
-1080
-1078
-981
-895
-874
-877
-855
-811
-771
-725
-640
-527
-418
-284
-37
351
763
1030
1112
1124
1163
1172
1023
717
419
265
201
61
-231
-590
-895
-1133
-1369
-1626
-1847
-1963
-1977
-1933
-1843
-1687
-1481
-1308
-1248
-1306
-1418
-1529
-1632
-1738
-1836
-1900
-1912
-1883
-1820
-1717
-1593
-1497
-1484
-1550
-1635
-1675
-1656
-1607
-1558
-1520
-1501
-1518
-1567
-1613
-1613
-1567
-1519
-1506
-1525
-1534
-1511
-1485
-1500
-1563
-1628
-1636
-1552
-1398
-1237
-1139
-1130
-1170
-1183
-1140
-1094
-1116
-1188
-1180
-987
-674
-431
-381
-439
-412
-244
-86
-125
-365
-610
-676
-573
-444
-392
-386
-347
-253
-156
-98
-59
-12
35
50
31
15
34
76
102
92
60
24
-3
8
90
242
402
487
477
429
405
400
352
238
121
78
113
159
159
135
153
220
271
249
173
112
100
97
60
10
7
67
135
149
107
56
24
-11
-70
-124
-119
-60
-16
-46
-117
-141
-83
-7
-1
-74
-155
-172
-127
-76
-72
-114
-163
-183
-155
-92
-27
11
27
49
88
112
84
23
-6
36
105
117
52
-26
-43
4
65
106
140
185
236
278
313
347
364
340
296
280
294
270
131
-91
-272
-310
-244
-197
-229
-274
-225
-80
53
86
52
46
92
84
-91
-401
-662
-720
-611
-531
-613
-777
-805
-561
-141
230
406
433
463
585
757
876
890
828
741
672
638
635
638
620
575
523
497
514
592
762
1034
1341
1582
1703
1738
1756
1740
1624
1410
1202
1101
1063
952
704
396
136
-75
-332
-687
-1070
-1361
-1496
-1484
-1347
-1112
-821
-549
-348
-196
-36
140
261
252
123
-23
-64
38
213
361
445
500
566
622
629
590
567
605
679
729
728
692
644
582
516
493
562
708
862
973
1053
1143
1245
1314
1311
1245
1150
1055
985
971
1029
1128
1199
1196
1152
1134
1170
1216
1210
1144
1069
1037
1052
1090
1133
1184
1245
1308
1359
1402
1443
1485
1518
1538
1554
1580
1614
1634
1628
1614
1629
1680
1736
1760
1758
1774
1836
1909
1924
1863
1786
1767
1815
1867
1869
1834
1817
1843
1885
1903
1891
1871
1855
1828
1772
1694
1619
1559
1502
1436
1360
1283
1207
1122
1032
953
900
867
831
774
706
659
648
652
634
572
483
410
373
362
349
324
308
316
325
299
228
152
119
130
135
96
34
6
43
110
146
125
76
43
43
52
41
6
-31
-37
-2
54
99
116
112
104
93
70
23
-43
-102
-124
-94
-28
33
68
100
171
272
332
304
245
274
430
608
647
508
313
202
171
78
-189
-583
-946
-1161
-1253
-1314
-1395
-1461
-1464
-1407
-1313
-1190
-1040
-906
-873
-975
-1135
-1214
-1145
-1002
-907
-895
-898
-829
-684
-542
-489
-550
-674
-793
-886
-991
-1149
-1339
-1471
-1471
-1348
-1155
-886
-482
59
595
923
979
885
810
793
737
566
323
101
-77
-280
-564
-895
-1187
-1404
-1607
-1856
-2095
-2177
-2011
-1685
-1401
-1271
-1216
-1079
-826
-618
-632
-865
-1132
-1264
-1248
-1190
-1162
-1134
-1056
-944
-867
-873
-952
-1043
-1102
-1124
-1127
-1129
-1134
-1136
-1132
-1138
-1172
-1233
-1277
-1255
-1157
-1037
-958
-947
-977
-1005
-1004
-968
-906
-842
-802
-803
-828
-827
-769
-680
-624
-632
-673
-693
-682
-681
-716
-738
-672
-520
-368
-309
-339
-372
-350
-300
-266
-247
-209
-163
-153
-175
-149
-25
121
152
44
-64
-31
106
183
122
26
47
181
272
215
79
23
89
164
118
-27
-131
-99
11
64
13
-57
-28
94
189
157
35
-58
-59
-14
-7
-57
-115
-155
-195
-246
-281
-281
-293
-371
-490
-555
-517
-453
-474
-572
-622
-544
-424
-411
-531
-646
-634
-533
-495
-590
-712
-708
-548
-361
-296
-394
-555
-646
-613
-512
-455
-499
-600
-671
-660
-590
-519
-460
-404
-377
-443
-619
-800
-832
-681
-507
-499
-648
-735
-577
-265
-70
-149
-370
-501
-490
-489
-614
-772
-781
-605
-412
-361
-420
-422
-289
-135
-127
-307
-557
-729
-775
-760
-765
-801
-793
-675
-482
-342
-360
-511
-675
-750
-763
-807
-905
-969
-905
-742
-618
-637
-730
-709
-493
-229
-140
-274
-440
-421
-240
-136
-272
-523
-629
-507
-342
-337
-442
-388
12
647
1227
1573
1764
1961
2189
2319
2249
2048
1874
1787
1682
1420
1004
578
252
-30
-386
-820
-1198
-1386
-1394
-1328
-1213
-961
-559
-178
-25
-98
-170
-69
78
-20
-452
-937
-1116
-924
-643
-548
-606
-587
-410
-258
-324
-545
-661
-549
-344
-258
-312
-364
-302
-188
-129
-130
-110
-53
-44
-145
-284
-317
-206
-60
-9
-60
-122
-121
-59
31
123
194
203
144
81
115
288
514
646
628
533
471
498
566
601
581
548
555
608
657
682
720
816
962
1091
1137
1102
1064
1105
1232
1359
1394
1326
1257
1308
1477
1627
1619
1478
1373
1423
1544
1547
1365
1166
1174
1395
1603
1608
1456
1355
1417
1535
1531
1358
1125
961
891
861
847
863
904
909
827
685
582
580
611
532
298
62
20
207
434
511
449
415
499
596
532
297
51
-70
-79
-69
-90
-121
-138
-144
-107
14
196
300
213
7
-123
-56
123
239
219
136
89
94
107
129
198
300
342
261
117
50
124
255
310
251
160
136
188
265
339
409
452
429
345
271
268
306
312
269
263
352
484
556
538
498
500
530
521
451
350
257
169
95
73
119
190
211
160
98
90
133
166
144
99
89
117
130
91
30
6
38
87
106
83
63
108
227
327
279
62
-174
-240
-106
73
175
280
570
1050
1502
1731
1785
1855
1987
2037
1908
1706
1592
1536
1363
1010
618
339
131
-153
-532
-854
-992
-993
-958
-862
-607
-224
85
158
75
49
156
241
111
-216
-505
-550
-379
-211
-205
-317
-399
-378
-319
-315
-374
-427
-412
-325
-222
-177
-229
-343
-414
-367
-257
-219
-303
-402
-348
-140
36
32
-93
-148
-56
60
50
-71
-145
-81
53
122
89
37
39
70
56
-5
-40
3
79
89
8
-66
-19
138
276
286
221
224
352
512
580
554
543
611
705
726
649
552
509
527
563
585
585
561
525
518
593
730
816
744
545
376
369
475
520
390
157
1
0
71
91
31
-29
-17
48
101
112
99
81
38
-58
-200
-347
-458
-523
-548
-562
-597
-662
-723
-729
-663
-573
-538
-593
-703
-788
-805
-776
-768
-814
-884
-910
-857
-772
-732
-754
-785
-764
-695
-637
-634
-654
-646
-607
-576
-571
-557
-494
-405
-351
-370
-429
-467
-465
-453
-447
-429
-382
-314
-251
-203
-146
-80
-34
-38
-95
-162
-207
-234
-258
-265
-219
-119
-6
86
182
316
462
528
478
458
695
1256
1925
2376
2466
2340
2220
2115
1798
1054
-58
-1217
-2104
-2613
-2853
-2959
-2953
-2794
-2489
-2142
-1873
-1708
-1602
-1526
-1510
-1593
-1738
-1823
-1749
-1521
-1218
-949
-782
-732
-758
-785
-762
-700
-631
-522
-280
124
564
838
864
757
682
663
580
344
39
-165
-201
-189
-306
-609
-982
-1255
-1377
-1444
-1581
-1795
-1953
-1906
-1646
-1313
-1067
-967
-958
-960
-961
-995
-1083
-1206
-1325
-1404
-1432
-1408
-1343
-1254
-1159
-1091
-1099
-1210
-1393
-1563
-1629
-1559
-1398
-1227
-1121
-1108
-1160
-1217
-1236
-1229
-1242
-1297
-1357
-1369
-1332
-1305
-1335
-1393
-1405
-1341
-1253
-1220
-1265
-1339
-1389
-1404
-1419
-1469
-1552
-1640
-1702
-1725
-1716
-1691
-1660
-1628
-1594
-1564
-1552
-1554
-1561
-1566
-1574
-1588
-1602
-1611
-1614
-1608
-1576
-1486
-1342
-1200
-1119
-1108
-1116
-1099
-1072
-1090
-1175
-1291
-1396
-1482
-1571
-1662
-1708
-1676
-1582
-1488
-1441
-1431
-1410
-1351
-1283
-1266
-1323
-1417
-1487
-1499
-1476
-1466
-1487
-1512
-1504
-1467
-1443
-1460
-1490
-1491
-1455
-1436
-1480
-1563
-1609
-1583
-1546
-1583
-1694
-1788
-1785
-1715
-1677
-1723
-1798
-1812
-1747
-1664
-1625
-1621
-1594
-1518
-1427
-1371
-1357
-1344
-1296
-1228
-1183
-1187
-1214
-1212
-1151
-1050
-952
-897
-887
-894
-871
-792
-675
-581
-556
-580
-576
-485
-330
-191
-130
-136
-146
-113
-47
10
30
30
44
90
157
222
280
342
419
494
542
559
573
607
653
684
690
682
675
671
662
644
622
595
560
523
503
505
517
531
546
568
585
580
559
551
577
617
632
605
566
561
603
664
690
647
572
544
592
656
648
570
522
590
749
927
1142
1494
2008
2526
2833
2872
2786
2744
2772
2778
2698
2554
2389
2198
1970
1718
1456
1166
812
417
73
-128
-157
-29
227
565
910
1180
1352
1463
1544
1575
1503
1328
1110
930
845
872
978
1087
1109
997
781
532
298
87
-100
-231
-271
-231
-175
-161
-196
-245
-297
-375
-498
-641
-763
-856
-953
-1078
-1198
-1260
-1250
-1208
-1166
-1108
-1009
-891
-814
-814
-848
-845
-784
-710
-664
-638
-596
-527
-448
-374
-292
-197
-111
-57
-22
32
128
247
354
434
494
536
572
630
744
901
1036
1091
1087
1115
1247
1441
1576
1574
1482
1421
1464
1571
1664
1724
1795
1907
2028
2109
2150
2188
2224
2211
2124
2016
1974
2031
2136
2229
2294
2345
2376
2371
2353
2373
2443
2500
2471
2370
2301
2347
2498
2658
2756
2790
2799
2816
2853
2913
2989
3053
3067
3030
2990
3001
3066
3149
3229
3325
3445
3552
3599
3611
3670
3818
3973
4008
3898
3757
3712
3766
3820
3814
3797
3842
3937
4002
4001
3983
4012
4084
4128
4092
3999
3918
3889
3903
3917
3900
3849
3784
3730
3707
3704
3689
3637
3564
3514
3515
3537
3523
3450
3360
3320
3341
3366
3326
3206
3057
2934
2846
2765
2665
2543
2420
2321
2245
2182
2121
2067
2026
1985
1919
1829
1755
1733
1755
1765
1723
1640
1556
1488
1417
1320
1200
1070
951
862
797
728
639
561
546
595
650
687
794
1090
1557
2010
2276
2364
2411
2496
2568
2552
2453
2302
2064
1684
1213
793
485
179
-264
-802
-1234
-1423
-1429
-1401
-1376
-1280
-1084
-886
-815
-875
-959
-996
-1022
-1123
-1306
-1479
-1523
-1400
-1168
-943
-820
-828
-917
-1006
-1054
-1089
-1167
-1296
-1411
-1447
-1409
-1369
-1371
-1399
-1413
-1411
-1422
-1436
-1396
-1279
-1148
-1099
-1151
-1218
-1214
-1154
-1124
-1182
-1292
-1385
-1432
-1458
-1480
-1474
-1401
-1262
-1107
-1007
-991
-1021
-1011
-914
-778
-708
-750
-826
-810
-669
-505
-437
-478
-544
-568
-560
-561
-572
-561
-507
-414
-291
-146
-11
47
-7
-106
-136
-69
-21
-120
-345
-514
-470
-261
-100
-144
-344
-518
-561
-527
-531
-613
-722
-800
-845
-874
-876
-850
-823
-845
-939
-1067
-1184
-1278
-1377
-1496
-1619
-1711
-1750
-1764
-1788
-1831
-1861
-1840
-1781
-1759
-1827
-1939
-1990
-1939
-1848
-1799
-1799
-1795
-1758
-1710
-1665
-1595
-1478
-1355
-1288
-1276
-1261
-1212
-1154
-1113
-1043
-891
-705
-595
-590
-575
-425
-186
-32
-60
-169
-186
-73
52
78
46
86
234
388
431
381
378
516
714
790
665
478
447
633
869
953
875
809
890
1053
1137
1087
997
967
979
948
865
794
760
720
637
551
533
572
590
553
509
511
532
518
476
465
498
510
447
352
314
359
417
411
339
252
200
187
180
130
23
-93
-131
-51
95
236
395
668
1074
1478
1715
1784
1830
1937
2012
1933
1740
1612
1609
1552
1237
706
221
-37
-173
-419
-825
-1172
-1216
-943
-580
-336
-227
-143
-20
93
124
73
-16
-130
-275
-401
-402
-239
-26
68
5
-76
-44
59
73
-65
-230
-254
-129
3
37
19
51
136
172
91
-36
-64
63
249
349
321
245
222
281
368
419
412
361
296
255
276
372
488
531
467
363
343
436
554
603
607
662
778
843
783
697
756
960
1098
993
764
719
991
1369
1526
1406
1258
1308
1509
1644
1589
1420
1252
1148
1131
1218
1382
1508
1500
1420
1394
1438
1453
1382
1310
1323
1357
1316
1263
1354
1572
1685
1555
1369
1393
1579
1603
1329
1046
1082
1314
1329
1014
739
879
1287
1466
1219
869
818
1023
1100
850
495
378
565
819
932
906
870
906
1007
1108
1145
1079
936
829
883
1101
1336
1416
1288
1087
999
1100
1295
1416
1354
1161
1029
1117
1383
1613
1649
1535
1453
1485
1538
1485
1372
1358
1471
1542
1424
1236
1251
1528
1765
1613
1146
814
931
1293
1428
1150
779
722
999
1250
1182
885
687
771
1021
1207
1211
1068
879
698
513
287
48
-112
-124
-47
-11
-77
-120
39
398
711
722
441
127
8
84
169
132
-11
-136
-170
-100
43
203
286
236
61
-158
-303
-289
-94
228
596
955
1287
1556
1689
1644
1513
1483
1642
1825
1757
1385
961
751
693
446
-188
-1009
-1627
-1877
-1926
-1967
-1964
-1739
-1290
-825
-537
-416
-331
-253
-289
-498
-787
-1014
-1133
-1195
-1232
-1200
-1059
-864
-745
-798
-982
-1164
-1247
-1240
-1204
-1167
-1121
-1075
-1069
-1138
-1225
-1226
-1114
-973
-917
-954
-986
-930
-825
-791
-882
-1019
-1073
-1002
-865
-758
-710
-678
-625
-578
-590
-647
-661
-584
-491
-511
-673
-840
-846
-686
-529
-533
-675
-795
-771
-618
-422
-254
-143
-86
-61
-20
59
116
55
-126
-283
-260
-46
232
453
618
816
1092
1377
1557
1577
1481
1366
1296
1277
1256
1171
1051
992
1067
1234
1357
1331
1188
1051
1008
1026
998
873
713
625
651
723
738
669
575
520
504
478
416
348
329
372
448
507
532
545
577
628
644
566
380
158
5
-45
-52
-86
-142
-168
-136
-76
-27
-4
-4
-34
-95
-155
-181
-165
-132
-93
-44
-10
-51
-190
-339
-375
-297
-234
-299
-457
-566
-539
-418
-286
-182
-101
-76
-165
-360
-542
-587
-495
-387
-387
-489
-582
-565
-438
-285
-186
-180
-274
-434
-591
-662
-617
-526
-499
-558
-613
-565
-449
-386
-421
-482
-482
-448
-481
-600
-702
-690
-587
-504
-485
-468
-407
-349
-356
-402
-408
-356
-299
-270
-224
-125
-17
16
-15
19
212
532
904
1311
1796
2320
2723
2883
2863
2873
3035
3238
3252
2969
2500
2049
1735
1500
1196
738
206
-201
-316
-152
132
397
659
997
1366
1565
1451
1120
804
593
359
-42
-549
-944
-1102
-1115
-1143
-1227
-1289
-1289
-1297
-1367
-1423
-1324
-1024
-612
-214
120
391
578
633
553
408
288
230
199
157
111
98
144
225
290
300
261
207
162
122
82
69
111
190
243
234
195
181
206
223
183
95
5
-61
-113
-180
-264
-345
-400
-421
-411
-390
-393
-438
-512
-577
-613
-636
-673
-724
-773
-809
-830
-834
-825
-827
-865
-936
-1001
-1034
-1067
-1159
-1318
-1470
-1533
-1511
-1474
-1473
-1486
-1461
-1392
-1323
-1295
-1302
-1308
-1302
-1300
-1323
-1369
-1414
-1444
-1462
-1483
-1520
-1568
-1610
-1631
-1633
-1637
-1673
-1742
-1811
-1856
-1895
-1967
-2078
-2177
-2214
-2201
-2200
-2255
-2338
-2385
-2372
-2333
-2312
-2307
-2276
-2211
-2163
-2189
-2277
-2353
-2370
-2365
-2412
-2518
-2600
-2576
-2465
-2360
-2305
-2249
-2124
-1947
-1817
-1784
-1787
-1735
-1624
-1534
-1526
-1558
-1535
-1430
-1311
-1276
-1358
-1494
-1600
-1637
-1638
-1666
-1737
-1799
-1793
-1726
-1677
-1711
-1808
-1890
-1921
-1931
-1971
-2044
-2107
-2130
-2125
-2115
-2096
-2060
-2024
-2019
-2054
-2096
-2097
-2056
-2022
-2035
-2080
-2104
-2066
-1986
-1920
-1891
-1881
-1863
-1837
-1813
-1796
-1774
-1757
-1752
-1748
-1718
-1658
-1592
-1548
-1526
-1501
-1442
-1312
-1074
-731
-369
-111
-9
19
82
175
193
69
-136
-309
-432
-593
-851
-1147
-1377
-1509
-1601
-1730
-1892
-2018
-2034
-1912
-1682
-1422
-1211
-1074
-981
-895
-828
-822
-884
-963
-1023
-1083
-1171
-1244
-1206
-1014
-768
-637
-693
-846
-935
-893
-791
-732
-737
-744
-703
-627
-554
-500
-453
-406
-366
-341
-330
-327
-325
-307
-260
-196
-154
-147
-134
-67
28
48
-68
-249
-350
-317
-231
-185
-167
-81
118
347
503
575
625
684
703
632
512
430
424
448
449
442
490
617
791
948
1050
1097
1101
1095
1113
1167
1222
1227
1168
1087
1035
1014
978
918
872
884
962
1066
1160
1233
1291
1338
1362
1339
1260
1137
997
865
745
625
493
351
196
27
-140
-263
-318
-341
-419
-586
-761
-819
-724
-588
-549
-619
-681
-633
-511
-436
-481
-588
-636
-573
-447
-341
-300
-305
-311
-282
-203
-79
64
188
260
292
325
396
494
580
624
641
675
743
829
907
967
1018
1065
1097
1108
1116
1142
1183
1204
1177
1113
1051
1019
1005
979
932
876
835
821
838
877
919
928
889
823
764
713
648
552
443
349
279
231
221
273
366
423
386
279
189
171
191
167
65
-75
-182
-223
-205
-161
-123
-107
-105
-95
-61
-12
27
42
46
57
57
10
-79
-153
-163
-130
-100
-55
100
422
829
1156
1323
1402
1504
1632
1695
1646
1555
1501
1453
1310
1039
720
438
178
-128
-483
-791
-955
-958
-849
-674
-452
-213
-4
132
202
226
196
92
-73
-247
-374
-426
-403
-328
-230
-151
-113
-105
-114
-163
-278
-404
-423
-286
-127
-168
-485
-907
-1178
-1206
-1125
-1087
-1096
-1053
-916
-761
-698
-753
-854
-910
-886
-830
-821
-876
-899
-749
-387
52
371
518
624
834
1132
1378
1478
1476
1466
1475
1461
1419
1395
1411
1413
1336
1194
1091
1111
1235
1363
1426
1452
1512
1624
1731
1769
1733
1680
1673
1730
1830
1940
2014
2013
1946
1886
1927
2087
2274
2373
2358
2306
2300
2342
2363
2321
2250
2213
2222
2227
2187
2126
2101
2127
2148
2102
1994
1881
1803
1743
1661
1559
1477
1443
1434
1410
1362
1313
1282
1255
1217
1170
1130
1098
1067
1043
1051
1100
1158
1183
1164
1132
1120
1116
1084
1010
919
850
815
799
783
767
767
785
801
788
734
660
597
562
555
561
564
542
477
380
296
265
276
252
126
-82
-262
-327
-310
-321
-426
-568
-646
-635
-605
-626
-694
-759
-811
-890
-1011
-1128
-1190
-1213
-1262
-1367
-1484
-1558
-1594
-1645
-1746
-1866
-1956
-2002
-2029
-2061
-2093
-2092
-2028
-1906
-1777
-1698
-1678
-1669
-1625
-1556
-1533
-1600
-1719
-1803
-1817
-1809
-1847
-1935
-2003
-1993
-1919
-1824
-1700
-1469
-1076
-574
-102
215
351
360
304
225
168
159
165
94
-111
-407
-709
-985
-1283
-1634
-2018
-2391
-2735
-3010
-3111
-2949
-2590
-2247
-2097
-2095
-2053
-1887
-1713
-1699
-1863
-2072
-2212
-2267
-2280
-2254
-2173
-2055
-1959
-1940
-2004
-2111
-2194
-2197
-2102
-1961
-1865
-1868
-1926
-1944
-1882
-1804
-1794
-1859
-1909
-1853
-1710
-1599
-1620
-1745
-1842
-1812
-1694
-1626
-1683
-1804
-1862
-1800
-1676
-1586
-1567
-1591
-1611
-1597
-1533
-1417
-1284
-1208
-1231
-1314
-1371
-1360
-1315
-1298
-1309
-1295
-1217
-1111
-1045
-1047
-1058
-1014
-936
-914
-1002
-1134
-1173
-1070
-927
-886
-954
-978
-841
-618
-504
-579
-704
-704
-582
-509
-592
-743
-812
-782
-766
-836
-927
-954
-949
-1014
-1164
-1282
-1260
-1133
-1030
-1038
-1116
-1175
-1166
-1115
-1074
-1102
-1219
-1389
-1524
-1558
-1519
-1507
-1592
-1749
-1881
-1910
-1831
-1687
-1555
-1511
-1574
-1657
-1640
-1502
-1367
-1367
-1465
-1507
-1416
-1316
-1363
-1527
-1610
-1510
-1353
-1337
-1478
-1600
-1569
-1447
-1385
-1416
-1439
-1375
-1273
-1203
-1153
-1075
-975
-922
-968
-1085
-1207
-1283
-1316
-1333
-1350
-1371
-1383
-1361
-1286
-1162
-1006
-857
-772
-795
-891
-933
-831
-669
-644
-827
-1021
-953
-606
-265
-215
-440
-690
-777
-750
-745
-812
-913
-1006
-1086
-1127
-1067
-911
-766
-724
-755
-750
-664
-566
-526
-542
-579
-646
-761
-889
-965
-996
-1063
-1227
-1439
-1587
-1602
-1475
-1188
-712
-102
476
857
1016
1051
1056
1059
1057
1043
966
754
421
125
15
22
-105
-533
-1130
-1596
-1765
-1712
-1593
-1466
-1290
-1044
-779
-536
-307
-113
-40
-155
-397
-610
-687
-653
-599
-570
-539
-452
-296
-128
-44
-116
-313
-483
-472
-263
-9
103
46
-26
35
208
359
404
399
435
519
587
608
604
595
569
542
578
706
844
864
767
723
860
1090
1195
1087
918
896
1067
1299
1447
1472
1418
1347
1311
1335
1368
1315
1156
1021
1070
1305
1552
1671
1705
1774
1889
1946
1903
1859
1876
1854
1675
1439
1404
1655
1937
1937
1676
1499
1637
1909
1945
1655
1326
1260
1421
1509
1365
1153
1130
1334
1548
1545
1346
1158
1120
1179
1194
1110
1009
976
982
935
827
765
840
986
1024
858
589
419
442
550
567
430
232
116
149
286
428
497
488
455
471
554
643
665
624
597
655
749
750
628
516
579
808
999
967
769
651
765
1003
1127
1041
882
841
963
1143
1270
1299
1248
1145
1030
962
944
904
769
569
429
428
508
552
523
503
554
621
595
468
364
408
577
707
676
530
402
367
366
300
151
-9
-108
-137
-120
-58
58
203
318
352
299
200
99
28
-10
-70
-210
-422
-592
-594
-450
-325
-346
-473
-536
-435
-230
10
312
736
1245
1686
1934
2005
1991
1940
1852
1747
1664
1569
1344
936
476
167
45
-84
-443
-999
-1469
-1599
-1405
-1105
-870
-705
-543
-393
-345
-433
-587
-710
-783
-876
-1025
-1160
-1172
-1021
-762
-488
-280
-182
-192
-263
-289
-183
24
188
198
105
70
164
269
215
-12
-209
-170
88
364
502
532
575
665
693
580
391
274
310
438
555
623
689
815
1003
1205
1353
1404
1361
1286
1267
1357
1526
1683
1763
1766
1732
1668
1556
1415
1334
1380
1524
1673
1788
1946
2219
2548
2789
2867
2843
2807
2745
2577
2324
2132
2138
2315
2518
2637
2678
2698
2713
2703
2662
2601
2498
2320
2094
1914
1841
1812
1707
1492
1270
1148
1086
939
659
387
311
438
581
584
503
532
746
996
1086
988
856
816
828
770
605
426
331
320
323
294
233
162
82
3
-52
-77
-107
-188
-321
-452
-528
-538
-508
-463
-420
-400
-418
-479
-559
-623
-665
-711
-780
-846
-867
-836
-803
-820
-881
-928
-926
-907
-934
-1019
-1095
-1091
-1021
-962
-964
-988
-972
-908
-858
-871
-942
-1030
-1107
-1182
-1272
-1383
-1501
-1605
-1679
-1730
-1797
-1898
-2006
-2058
-2019
-1942
-1913
-1960
-2015
-2001
-1924
-1859
-1850
-1852
-1809
-1729
-1679
-1695
-1730
-1716
-1669
-1668
-1747
-1841
-1884
-1903
-1981
-2131
-2270
-2297
-2197
-2017
-1796
-1551
-1319
-1174
-1148
-1178
-1188
-1180
-1220
-1345
-1502
-1619
-1696
-1807
-2013
-2300
-2604
-2872
-3098
-3296
-3470
-3589
-3586
-3415
-3116
-2804
-2580
-2459
-2389
-2336
-2326
-2405
-2572
-2770
-2938
-3036
-3045
-2960
-2797
-2605
-2450
-2394
-2439
-2511
-2503
-2356
-2140
-1999
-2001
-2050
-2001
-1829
-1662
-1625
-1693
-1713
-1614
-1492
-1489
-1605
-1693
-1617
-1427
-1313
-1384
-1521
-1450
-1018
-339
306
709
874
924
947
944
908
864
817
726
578
471
535
740
874
749
387
-20
-319
-530
-730
-913
-999
-963
-840
-662
-430
-191
-51
-63
-126
-77
92
208
115
-108
-237
-165
-21
-24
-256
-615
-932
-1098
-1096
-974
-798
-612
-438
-291
-208
-230
-334
-417
-406
-356
-382
-522
-672
-716
-673
-682
-830
-1064
-1278
-1416
-1489
-1523
-1533
-1538
-1547
-1518
-1392
-1190
-1052
-1106
-1306
-1458
-1439
-1335
-1334
-1489
-1657
-1680
-1575
-1495
-1514
-1531
-1411
-1184
-1031
-1077
-1240
-1335
-1295
-1234
-1291
-1465
-1617
-1644
-1567
-1461
-1365
-1272
-1199
-1184
-1217
-1237
-1202
-1157
-1180
-1261
-1309
-1268
-1207
-1230
-1349
-1458
-1472
-1437
-1468
-1593
-1728
-1787
-1765
-1719
-1677
-1619
-1539
-1474
-1459
-1470
-1461
-1438
-1469
-1599
-1778
-1910
-1953
-1954
-1966
-1976
-1918
-1763
-1550
-1343
-1166
-997
-828
-682
-576
-492
-392
-278
-201
-203
-254
-254
-146
8
75
-7
-152
-213
-133
23
197
435
814
1298
1718
1934
1964
1938
1933
1900
1782
1616
1497
1448
1393
1261
1076
917
813
715
573
406
302
333
505
759
1014
1218
1370
1502
1639
1754
1782
1692
1525
1368
1299
1333
1428
1540
1649
1757
1859
1929
1942
1901
1839
1809
1847
1955
2090
2179
2179
2119
2077
2106
2172
2200
2157
2097
2092
2148
2200
2181
2106
2056
2095
2208
2324
2380
2372
2356
2388
2469
2549
2584
2580
2576
2596
2616
2613
2609
2646
2736
2834
2900
2943
3007
3105
3214
3306
3384
3457
3509
3508
3464
3436
3471
3534
3536
3441
3323
3281
3327
3365
3301
3159
3051
3041
3068
3025
2888
2748
2697
2730
2761
2725
2636
2548
2481
2420
2353
2294
2251
2196
2096
1949
1802
1707
1673
1658
1614
1515
1384
1273
1217
1203
1181
1114
1015
933
902
896
854
757
650
597
593
572
484
362
285
289
334
365
379
417
492
558
566
523
473
436
380
268
105
-66
-203
-290
-332
-339
-328
-322
-335
-357
-362
-339
-309
-317
-384
-488
-575
-590
-521
-410
-319
-287
-290
-270
-195
-81
21
67
55
9
-42
-74
-70
-29
27
56
36
-14
-42
-22
31
71
58
-17
-136
-260
-340
-347
-317
-326
-407
-494
-483
-350
-192
-116
-111
-84
-4
44
-35
-202
-318
-328
-360
-564
-898
-1129
-1091
-857
-627
-469
-232
248
928
1569
1964
2100
2100
2054
1954
1770
1524
1260
961
579
118
-321
-628
-804
-980
-1280
-1682
-2021
-2144
-2049
-1870
-1744
-1707
-1710
-1691
-1624
-1531
-1459
-1455
-1526
-1632
-1690
-1647
-1539
-1439
-1402
-1422
-1478
-1581
-1739
-1899
-1969
-1902
-1754
-1630
-1577
-1551
-1491
-1390
-1299
-1261
-1279
-1335
-1409
-1490
-1548
-1561
-1547
-1548
-1590
-1649
-1669
-1615
-1501
-1393
-1353
-1395
-1461
-1468
-1385
-1257
-1160
-1106
-1029
-884
-717
-636
-698
-846
-963
-987
-947
-915
-933
-966
-942
-813
-610
-415
-298
-263
-258
-248
-246
-258
-251
-188
-79
25
89
133
184
228
237
211
181
164
146
129
146
219
318
392
429
463
517
558
551
520
513
535
528
438
278
103
-48
-162
-227
-228
-171
-106
-87
-123
-172
-184
-155
-127
-144
-218
-309
-363
-352
-310
-291
-314
-357
-399
-466
-598
-767
-889
-917
-904
-926
-970
-943
-791
-597
-502
-533
-586
-557
-467
-423
-481
-583
-643
-635
-606
-602
-619
-620
-580
-513
-463
-468
-511
-536
-506
-452
-443
-505
-580
-596
-561
-536
-555
-570
-526
-445
-401
-425
-483
-532
-576
-631
-690
-736
-771
-828
-919
-1016
-1082
-1107
-1102
-1080
-1061
-1059
-1069
-1049
-974
-901
-925
-1061
-1197
-1217
-1151
-1144
-1264
-1398
-1389
-1226
-1067
-1047
-1144
-1218
-1166
-1018
-881
-806
-741
-562
-178
375
946
1379
1646
1818
1956
2028
1973
1809
1623
1464
1280
998
633
289
49
-123
-333
-624
-901
-1016
-922
-717
-549
-441
-289
-9
293
415
294
127
165
411
588
472
180
69
341
816
1116
1050
784
618
677
838
932
940
974
1090
1210
1242
1213
1243
1395
1591
1715
1748
1772
1869
2035
2225
2413
2569
2650
2646
2634
2698
2809
2839
2720
2544
2454
2483
2538
2568
2648
2845
3075
3195
3236
3398
3798
4250
4444
4316
4152
4263
4641
4986
5063
4932
4824
4859
4971
5059
5111
5158
5180
5130
5042
5026
5145
5325
5431
5414
5347
5328
5368
5406
5390
5339
5311
5324
5346
5339
5302
5280
5311
5369
5397
5369
5311
5258
5198
5104
4988
4905
4884
4881
4844
4783
4750
4749
4709
4588
4450
4404
4462
4510
4448
4307
4212
4235
4320
4360
4303
4175
4035
3926
3877
3889
3932
3958
3935
3887
3870
3909
3978
4024
4013
3948
3867
3826
3847
3899
3938
3941
3917
3884
3843
3794
3758
3752
3764
3763
3741
3733
3757
3773
3712
3568
3425
3368
3373
3343
3228
3099
3063
3144
3267
3349
3384
3405
3420
3402
3344
3281
3258
3266
3239
3148
3021
2923
2905
2952
2994
2968
2867
2739
2642
2609
2631
2681
2716
2682
2583
2502
2535
2673
2782
2755
2629
2538
2540
2565
2546
2519
2538
2554
2465
2298
2222
2349
2581
2733
2781
2909
3247
3685
3986
4042
3968
3942
4025
4154
4228
4183
3988
3680
3364
3127
2941
2676
2279
1881
1672
1694
1823
1929
2026
2208
2462
2641
2621
2455
2292
2210
2145
2015
1840
1708
1677
1722
1806
1913
2006
2019
1914
1757
1676
1719
1810
1863
1864
1862
1877
1871
1801
1675
1533
1425
1405
1502
1670
1799
1815
1760
1748
1832
1945
1981
1910
1795
1712
1695
1734
1816
1917
1988
1999
1953
1882
1833
1828
1874
1955
2024
2042
2016
2010
2075
2194
2281
2259
2125
1963
1870
1893
1979
2041
2048
2051
2116
2221
2274
2236
2189
2227
2317
2335
2232
2116
2119
2223
2285
2221
2096
2024
2026
2034
2020
2023
2069
2119
2126
2115
2139
2178
2153
2032
1891
1805
1730
1564
1304
1104
1111
1275
1393
1336
1192
1162
1305
1461
1443
1254
1071
1036
1090
1072
936
811
833
973
1077
1047
950
905
948
1011
1026
998
972
956
924
886
888
959
1057
1110
1093
1040
1001
998
1024
1079
1163
1261
1341
1380
1392
1381
1336
1232
1069
892
742
608
446
268
148
137
194
226
207
204
271
372
448
532
749
1155
1651
2077
2371
2559
2612
2380
1728
724
-384
-1373
-2196
-2912
-3518
-3901
-3965
-3758
-3441
-3164
-2980
-2870
-2829
-2870
-2968
-3054
-3078
-3057
-3044
-3052
-3019
-2870
-2614
-2354
-2192
-2130
-2092
-2024
-1934
-1847
-1725
-1500
-1172
-854
-697
-757
-955
-1165
-1318
-1436
-1566
-1717
-1875
-2038
-2221
-2412
-2570
-2670
-2744
-2837
-2926
-2936
-2831
-2659
-2505
-2397
-2283
-2124
-1955
-1829
-1750
-1684
-1625
-1604
-1627
-1637
-1571
-1443
-1333
-1292
-1289
-1259
-1205
-1196
-1288
-1456
-1612
-1680
-1647
-1561
-1490
-1477
-1519
-1575
-1611
-1628
-1639
-1641
-1609
-1533
-1446
-1386
-1345
-1291
-1214
-1148
-1139
-1193
-1260
-1296
-1311
-1345
-1408
-1463
-1471
-1436
-1402
-1387
-1362
-1290
-1186
-1108
-1089
-1093
-1056
-970
-887
-862
-896
-946
-973
-969
-931
-868
-800
-757
-752
-739
-652
-494
-348
-289
-295
-266
-129
57
160
110
-30
-133
-137
-99
-129
-259
-405
-460
-391
-264
-169
-130
-106
-48
41
112
124
84
34
3
-11
-30
-54
-68
-69
-78
-111
-156
-184
-183
-174
-168
-156
-127
-102
-111
-144
-148
-97
-42
-55
-136
-193
-152
-58
-34
-139
-296
-376
-353
-308
-320
-371
-387
-340
-270
-215
-175
-142
-137
-192
-285
-344
-320
-261
-258
-347
-469
-531
-504
-451
-458
-548
-672
-760
-781
-760
-736
-719
-699
-677
-669
-685
-719
-763
-841
-979
-1160
-1314
-1379
-1352
-1279
-1184
-1056
-892
-741
-660
-658
-694
-746
-840
-992
-1171
-1310
-1374
-1381
-1367
-1348
-1317
-1268
-1197
-1111
-1049
-1055
-1135
-1218
-1222
-1147
-1091
-1139
-1249
-1302
-1271
-1279
-1448
-1739
-1964
-1982
-1803
-1499
-1050
-380
495
1405
2159
2703
3097
3374
3482
3390
3165
2908
2621
2226
1706
1168
740
425
116
-260
-652
-956
-1118
-1155
-1096
-950
-745
-565
-490
-522
-588
-637
-704
-856
-1116
-1418
-1639
-1708
-1647
-1555
-1524
-1570
-1654
-1739
-1813
-1871
-1880
-1809
-1676
-1539
-1433
-1334
-1200
-1047
-941
-908
-879
-765
-560
-363
-265
-248
-226
-148
-45
37
99
174
254
297
288
281
338
443
515
503
452
445
506
582
619
626
650
705
758
783
798
840
905
946
929
875
837
829
827
798
748
709
693
684
661
624
585
554
530
512
500
478
416
311
213
191
261
350
372
320
277
318
423
491
455
344
246
206
196
159
87
25
15
48
82
85
69
70
100
133
137
110
82
87
129
182
218
222
204
182
170
176
193
209
214
219
244
297
363
411
427
427
434
442
425
376
316
275
252
224
184
156
161
188
203
192
175
168
165
147
114
85
69
46
2
-52
-90
-95
-84
-79
-82
-81
-68
-57
-68
-107
-161
-212
-259
-311
-373
-434
-486
-528
-573
-628
-689
-745
-804
-883
-992
-1117
-1229
-1302
-1335
-1353
-1386
-1440
-1485
-1486
-1445
-1417
-1456
-1547
-1626
-1645
-1622
-1623
-1680
-1757
-1777
-1713
-1619
-1579
-1595
-1587
-1486
-1318
-1165
-1042
-849
-494
-23
403
652
729
730
720
703
677
644
567
366
-4
-474
-916
-1260
-1550
-1866
-2226
-2567
-2798
-2856
-2722
-2439
-2100
-1809
-1627
-1542
-1509
-1506
-1542
-1628
-1751
-1894
-2023
-2085
-2051
-1940
-1823
-1757
-1745
-1759
-1802
-1900
-2034
-2116
-2054
-1854
-1635
-1527
-1556
-1634
-1662
-1605
-1508
-1434
-1415
-1436
-1448
-1401
-1284
-1150
-1075
-1080
-1104
-1070
-982
-910
-902
-910
-845
-695
-544
-472
-469
-455
-386
-294
-246
-258
-290
-282
-212
-112
-36
-16
-32
-31
15
74
95
80
105
219
361
401
297
156
116
191
251
183
17
-102
-80
38
143
169
136
96
71
56
51
56
63
59
31
-5
-25
-15
9
10
-43
-149
-267
-351
-386
-398
-425
-478
-533
-559
-554
-545
-552
-573
-597
-613
-606
-568
-503
-443
-419
-435
-458
-451
-418
-390
-384
-386
-370
-340
-326
-339
-355
-333
-280
-245
-262
-303
-303
-228
-119
-51
-60
-107
-131
-118
-109
-139
-193
-223
-211
-183
-166
-151
-114
-62
-43
-89
-172
-235
-251
-250
-272
-321
-366
-375
-343
-277
-194
-128
-125
-195
-290
-336
-318
-307
-396
-599
-814
-917
-877
-786
-762
-839
-950
-1015
-1014
-992
-997
-1046
-1116
-1169
-1175
-1125
-1055
-1022
-1060
-1127
-1148
-1089
-1014
-1015
-1101
-1194
-1227
-1232
-1281
-1385
-1486
-1520
-1473
-1350
-1128
-798
-435
-159
-13
78
215
388
481
427
291
190
139
48
-160
-461
-773
-1050
-1321
-1609
-1867
-2013
-2014
-1892
-1696
-1458
-1209
-1005
-887
-846
-834
-833
-879
-1004
-1166
-1280
-1290
-1226
-1169
-1171
-1222
-1278
-1312
-1334
-1369
-1422
-1455
-1410
-1281
-1148
-1117
-1185
-1216
-1085
-846
-695
-757
-930
-991
-842
-621
-536
-658
-871
-1006
-991
-878
-748
-651
-600
-577
-558
-512
-413
-282
-174
-141
-174
-207
-160
-15
160
274
285
228
175
179
246
326
363
352
344
398
500
567
550
508
548
680
776
706
495
319
336
528
722
791
744
691
709
775
832
849
825
745
616
488
433
469
530
525
453
392
379
334
174
-39
-151
-95
-30
-166
-493
-754
-716
-444
-231
-280
-496
-611
-477
-183
75
187
181
145
135
151
158
110
-11
-184
-355
-472
-510
-468
-375
-292
-275
-333
-418
-459
-442
-414
-444
-552
-704
-838
-890
-819
-672
-575
-635
-818
-945
-883
-707
-610
-666
-731
-608
-298
-4
104
63
40
117
204
187
80
6
50
164
243
269
306
396
504
563
554
522
514
523
514
469
416
386
384
381
343
278
224
207
220
248
294
377
478
545
560
575
648
738
732
590
429
412
546
653
577
392
308
417
590
658
666
835
1267
1782
2113
2185
2155
2186
2248
2205
2021
1813
1679
1564
1337
968
560
224
-46
-334
-678
-1015
-1250
-1331
-1247
-1014
-684
-356
-129
-18
47
120
161
76
-153
-429
-605
-611
-491
-333
-189
-64
48
124
129
58
-51
-146
-186
-150
-56
43
80
50
29
109
286
434
422
264
115
112
232
325
282
156
110
231
438
563
524
416
382
452
534
528
471
483
604
729
731
626
559
626
758
804
728
669
784
1070
1346
1450
1406
1390
1540
1795
1940
1828
1538
1311
1317
1491
1628
1597
1470
1420
1510
1632
1642
1524
1398
1370
1438
1520
1544
1525
1517
1547
1594
1609
1548
1408
1243
1132
1106
1110
1059
932
803
757
799
839
791
657
499
365
245
108
-44
-180
-272
-321
-353
-401
-479
-566
-618
-605
-549
-502
-489
-486
-470
-472
-541
-662
-755
-760
-726
-749
-835
-868
-747
-545
-458
-592
-825
-938
-871
-787
-883
-1131
-1305
-1242
-1028
-889
-925
-1012
-979
-829
-723
-781
-946
-1075
-1109
-1116
-1166
-1239
-1262
-1219
-1161
-1137
-1135
-1128
-1118
-1128
-1146
-1137
-1100
-1093
-1168
-1318
-1477
-1577
-1603
-1590
-1600
-1660
-1736
-1752
-1657
-1489
-1371
-1381
-1466
-1512
-1492
-1509
-1651
-1853
-1952
-1889
-1780
-1765
-1813
-1733
-1393
-898
-490
-314
-299
-296
-271
-319
-523
-814
-995
-912
-555
-53
419
746
911
1001
1117
1266
1308
1066
499
-234
-923
-1485
-1964
-2388
-2691
-2805
-2777
-2728
-2705
-2626
-2415
-2155
-2047
-2209
-2538
-2803
-2843
-2676
-2445
-2280
-2214
-2187
-2120
-1998
-1883
-1862
-1986
-2257
-2636
-3048
-3406
-3629
-3692
-3653
-3582
-3511
-3434
-3370
-3373
-3470
-3595
-3647
-3597
-3523
-3516
-3567
-3588
-3538
-3483
-3517
-3645
-3766
-3789
-3726
-3657
-3629
-3609
-3550
-3459
-3379
-3325
-3273
-3191
-3088
-2993
-2925
-2879
-2843
-2821
-2814
-2805
-2776
-2733
-2695
-2667
-2627
-2552
-2440
-2309
-2181
-2075
-2001
-1958
-1922
-1861
-1762
-1646
-1562
-1535
-1551
-1567
-1554
-1523
-1516
-1562
-1646
-1719
-1741
-1710
-1659
-1632
-1640
-1663
-1666
-1622
-1543
-1468
-1441
-1468
-1503
-1494
-1436
-1369
-1340
-1372
-1448
-1527
-1574
-1583
-1590
-1641
-1741
-1823
-1816
-1722
-1631
-1615
-1638
-1591
-1435
-1279
-1275
-1444
-1655
-1763
-1764
-1772
-1875
-2043
-2178
-2218
-2193
-2172
-2197
-2255
-2312
-2354
-2398
-2461
-2532
-2580
-2586
-2572
-2573
-2606
-2654
-2701
-2752
-2821
-2902
-2982
-3049
-3101
-3129
-3121
-3086
-3062
-3074
-3108
-3134
-3150
-3193
-3285
-3390
-3439
-3402
-3330
-3301
-3348
-3428
-3468
-3434
-3364
-3333
-3388
-3499
-3586
-3601
-3572
-3566
-3611
-3674
-3714
-3724
-3721
-3691
-3615
-3510
-3433
-3405
-3365
-3237
-3042
-2893
-2874
-2928
-2923
-2805
-2657
-2593
-2628
-2665
-2608
-2465
-2328
-2260
-2227
-2149
-1987
-1774
-1556
-1318
-993
-561
-103
247
415
459
492
560
617
592
477
317
132
-109
-429
-791
-1130
-1434
-1744
-2079
-2368
-2490
-2397
-2163
-1913
-1705
-1518
-1322
-1145
-1045
-1044
-1109
-1191
-1272
-1354
-1409
-1379
-1237
-1029
-846
-738
-684
-631
-563
-513
-515
-553
-574
-538
-463
-408
-422
-488
-538
-518
-429
-320
-232
-162
-75
43
154
216
219
198
194
207
213
205
206
250
342
456
565
662
751
838
925
1006
1078
1142
1209
1297
1407
1516
1584
1583
1527
1452
1381
1303
1186
1023
853
735
701
720
744
754
768
814
878
911
884
817
751
714
690
657
612
580
571
552
488
391
327
334
367
342
252
187
225
324
367
300
206
187
233
237
153
66
82
190
274
266
223
240
321
383
357
253
127
19
-62
-116
-152
-187
-232
-262
-238
-171
-136
-199
-340
-479
-561
-615
-703
-836
-961
-1024
-1026
-1008
-1000
-1001
-1002
-1010
-1032
-1057
-1058
-1026
-985
-965
-963
-947
-898
-831
-783
-772
-776
-764
-733
-707
-702
-697
-648
-543
-420
-333
-306
-303
-269
-183
-87
-40
-55
-77
-41
56
149
179
156
133
141
155
141
95
51
32
27
16
-8
-30
-39
-38
-30
-19
-11
-11
-10
14
69
132
167
176
195
245
285
261
188
142
167
230
295
411
667
1047
1398
1578
1621
1686
1846
1988
1970
1811
1662
1600
1522
1290
918
554
298
105
-115
-357
-528
-565
-486
-345
-174
16
196
324
376
373
339
294
248
189
98
-24
-123
-128
-28
86
103
-2
-142
-208
-173
-95
-47
-48
-71
-93
-114
-154
-220
-296
-351
-368
-354
-337
-347
-388
-437
-471
-495
-529
-585
-650
-698
-707
-679
-642
-615
-594
-559
-504
-445
-399
-359
-314
-272
-270
-326
-407
-459
-469
-477
-519
-564
-558
-478
-366
-277
-231
-199
-158
-114
-80
-58
-39
-23
-15
-11
8
68
170
271
313
272
176
87
48
47
42
-6
-95
-193
-264
-289
-281
-268
-283
-348
-439
-511
-530
-509
-488
-492
-508
-505
-481
-459
-461
-496
-563
-647
-731
-811
-895
-995
-1106
-1188
-1206
-1173
-1144
-1150
-1165
-1130
-1031
-922
-864
-867
-891
-896
-899
-931
-1002
-1076
-1107
-1094
-1058
-1012
-950
-868
-782
-728
-729
-767
-798
-802
-806
-862
-983
-1104
-1126
-1013
-839
-720
-714
-783
-850
-891
-943
-1055
-1227
-1421
-1591
-1706
-1755
-1745
-1708
-1684
-1680
-1668
-1622
-1562
-1534
-1563
-1615
-1639
-1624
-1614
-1641
-1687
-1706
-1681
-1655
-1681
-1762
-1835
-1840
-1783
-1728
-1719
-1735
-1717
-1636
-1525
-1437
-1390
-1356
-1290
-1178
-1040
-909
-796
-695
-620
-603
-651
-715
-724
-661
-563
-445
-246
113
600
1057
1328
1402
1396
1405
1424
1393
1293
1145
960
727
451
173
-79
-321
-589
-878
-1124
-1250
-1209
-1014
-713
-382
-99
89
178
198
172
105
-6
-161
-349
-534
-646
-626
-490
-335
-258
-276
-329
-369
-400
-434
-439
-359
-202
-66
-39
-101
-155
-151
-139
-185
-269
-307
-267
-207
-194
-216
-204
-133
-54
-27
-50
-76
-86
-99
-127
-148
-139
-101
-51
15
105
199
266
301
338
408
473
478
427
393
443
574
734
884
1018
1123
1168
1159
1154
1203
1273
1270
1165
1053
1062
1194
1316
1320
1248
1235
1327
1415
1363
1176
1007
987
1100
1220
1252
1201
1124
1063
1018
995
999
996
935
788
603
474
463
546
644
675
611
510
448
456
475
420
283
155
115
130
98
-4
-65
15
176
237
118
-60
-110
8
148
150
13
-125
-150
-72
7
8
-53
-105
-107
-89
-98
-116
-79
18
83
32
-95
-132
13
229
322
251
170
234
415
554
566
519
516
566
603
583
534
506
502
509
528
555
572
579
609
684
776
820
786
701
602
508
445
450
514
562
526
446
437
540
656
657
546
445
436
457
415
333
307
368
433
429
403
446
538
568
497
435
492
600
599
456
306
269
282
213
113
222
688
1370
1961
2287
2427
2534
2643
2667
2542
2286
1941
1511
1028
586
275
82
-95
-319
-537
-648
-606
-457
-279
-109
59
224
357
428
443
434
420
396
335
240
174
156
138
61
-41
-73
-14
19
-85
-268
-322
-118
244
573
816
1063
1357
1586
1626
1532
1488
1571
1674
1679
1637
1691
1839
1901
1746
1506
1429
1596
1831
1926
1882
1879
2052
2345
2606
2749
2784
2758
2694
2611
2544
2520
2542
2592
2656
2731
2807
2859
2901
2971
3064
3104
3004
2779
2570
2535
2690
2902
3032
3073
3113
3190
3224
3135
2974
2902
3007
3181
3223
3052
2829
2787
2985
3241
3307
3118
2842
2694
2717
2774
2723
2578
2479
2517
2621
2640
2531
2420
2445
2561
2573
2366
2059
1893
1956
2091
2093
1952
1835
1855
1940
1959
1900
1866
1895
1886
1734
1499
1353
1386
1497
1542
1500
1478
1551
1667
1721
1691
1657
1684
1738
1727
1627
1521
1506
1588
1676
1684
1635
1617
1662
1705
1688
1656
1687
1765
1779
1668
1521
1478
1550
1606
1541
1399
1299
1298
1354
1408
1431
1408
1346
1294
1328
1424
1450
1296
1042
890
926
1014
967
774
603
567
608
598
516
446
437
438
384
277
170
103
80
87
101
94
68
78
166
297
371
337
258
214
192
98
-92
-259
-271
-140
21
180
449
957
1659
2336
2760
2855
2746
2645
2694
2833
2831
2507
1951
1478
1290
1245
1026
504
-109
-542
-759
-914
-1071
-1111
-944
-671
-461
-354
-252
-117
-49
-139
-341
-522
-622
-675
-700
-653
-497
-277
-86
23
29
-65
-212
-319
-329
-304
-365
-538
-708
-757
-702
-646
-611
-521
-336
-136
-11
50
121
203
202
72
-98
-182
-165
-136
-158
-180
-140
-65
-52
-136
-230
-251
-256
-377
-649
-916
-977
-805
-600
-575
-734
-879
-825
-589
-321
-120
35
210
412
598
730
777
698
475
165
-94
-197
-165
-99
-55
-16
59
167
292
437
581
618
396
-116
-722
-1150
-1295
-1300
-1379
-1576
-1717
-1603
-1214
-709
-257
83
343
551
707
793
788
677
462
190
-68
-270
-417
-523
-581
-571
-520
-490
-526
-620
-751
-914
-1099
-1276
-1416
-1531
-1673
-1860
-2031
-2098
-2039
-1925
-1843
-1817
-1824
-1839
-1863
-1929
-2069
-2275
-2486
-2627
-2675
-2705
-2808
-2971
-3080
-3059
-2975
-2973
-3092
-3217
-3224
-3147
-3141
-3269
-3416
-3435
-3331
-3249
-3286
-3381
-3417
-3370
-3320
-3322
-3341
-3319
-3265
-3232
-3254
-3294
-3302
-3274
-3247
-3249
-3279
-3308
-3288
-3195
-3071
-3014
-3081
-3207
-3258
-3188
-3101
-3125
-3261
-3359
-3285
-3070
-2870
-2788
-2786
-2771
-2723
-2698
-2713
-2704
-2616
-2500
-2479
-2594
-2749
-2807
-2746
-2650
-2575
-2477
-2301
-2077
-1900
-1805
-1725
-1604
-1493
-1476
-1543
-1600
-1614
-1674
-1867
-2151
-2404
-2584
-2770
-3042
-3347
-3561
-3631
-3598
-3505
-3331
-3042
-2688
-2377
-2183
-2105
-2106
-2161
-2266
-2407
-2558
-2681
-2733
-2683
-2538
-2341
-2134
-1928
-1740
-1626
-1636
-1713
-1713
-1541
-1278
-1131
-1211
-1400
-1480
-1370
-1197
-1128
-1184
-1241
-1202
-1099
-1025
-1006
-997
-961
-927
-936
-971
-975
-932
-887
-892
-935
-953
-910
-831
-768
-757
-787
-818
-796
-703
-574
-487
-475
-490
-448
-324
-191
-138
-165
-192
-162
-95
-48
-32
7
111
251
357
387
362
330
315
314
313
295
242
154
64
38
107
227
314
321
282
268
300
337
324
253
159
75
10
-43
-79
-84
-55
-15
3
-30
-115
-205
-252
-251
-256
-335
-484
-615
-643
-576
-513
-531
-604
-638
-587
-510
-513
-623
-760
-824
-796
-750
-763
-817
-813
-689
-491
-329
-268
-273
-263
-204
-138
-129
-183
-253
-281
-245
-163
-69
-3
23
41
118
286
483
594
560
443
377
427
524
528
365
100
-120
-205
-172
-112
-85
-83
-59
6
88
147
168
166
166
188
257
400
611
835
1012
1132
1229
1312
1321
1180
909
627
443
351
264
135
24
16
121
262
355
370
331
283
254
227
172
95
60
119
254
396
537
781
1203
1692
1994
1978
1787
1694
1785
1890
1838
1685
1627
1739
1875
1869
1717
1540
1403
1251
1035
815
705
767
978
1283
1621
1905
2054
2065
2037
2057
2081
1964
1652
1283
1087
1174
1443
1692
1806
1812
1793
1775
1723
1610
1468
1355
1307
1311
1329
1333
1314
1283
1265
1289
1360
1463
1567
1663
1753
1836
1896
1932
1970
2028
2070
2037
1935
1848
1856
1922
1925
1810
1659
1599
1650
1717
1705
1624
1546
1509
1506
1532
1600
1709
1815
1873
1891
1926
2010
2111
2167
2151
2096
2070
2114
2201
2256
2227
2145
2092
2104
2127
2087
1977
1867
1809
1784
1753
1726
1753
1841
1919
1918
1855
1816
1854
1921
1927
1840
1713
1629
1611
1620
1595
1513
1395
1290
1219
1169
1111
1033
955
896
841
764
668
603
613
669
704
672
602
547
521
490
426
340
260
186
105
18
-44
-60
-51
-58
-96
-140
-163
-171
-192
-234
-279
-305
-313
-322
-347
-393
-452
-512
-567
-610
-631
-622
-595
-580
-598
-636
-652
-620
-571
-571
-655
-776
-856
-869
-868
-913
-989
-1022
-968
-873
-817
-818
-824
-787
-727
-710
-767
-871
-974
-1063
-1150
-1239
-1317
-1382
-1464
-1582
-1719
-1818
-1850
-1846
-1855
-1900
-1940
-1929
-1860
-1772
-1712
-1684
-1656
-1609
-1569
-1577
-1636
-1699
-1719
-1704
-1708
-1767
-1850
-1879
-1784
-1552
-1227
-883
-584
-371
-242
-177
-180
-268
-427
-610
-787
-999
-1313
-1722
-2112
-2388
-2575
-2796
-3109
-3433
-3618
-3589
-3391
-3114
-2826
-2581
-2427
-2361
-2305
-2187
-2050
-2032
-2212
-2490
-2667
-2629
-2442
-2257
-2166
-2152
-2162
-2189
-2254
-2356
-2452
-2499
-2488
-2445
-2401
-2378
-2366
-2344
-2308
-2300
-2370
-2518
-2668
-2726
-2676
-2595
-2582
-2655
-2734
-2729
-2625
-2485
-2376
-2313
-2263
-2194
-2114
-2045
-1997
-1957
-1899
-1813
-1704
-1586
-1461
-1328
-1182
-1026
-863
-689
-507
-333
-187
-69
38
155
282
401
493
561
624
696
779
863
944
1021
1096
1164
1221
1272
1316
1347
1358
1351
1344
1357
1393
1423
1417
1375
1343
1355
1397
1411
1355
1261
1199
1200
1227
1224
1178
1125
1089
1055
998
925
872
850
833
787
711
635
585
559
538
503
452
402
376
375
373
346
295
252
233
217
180
126
89
87
92
78
65
98
180
258
272
234
211
233
261
238
173
133
162
219
234
200
185
234
311
334
282
215
189
187
149
61
-20
-39
-19
-34
-113
-206
-241
-200
-136
-106
-123
-167
-218
-273
-337
-406
-492
-619
-791
-962
-1066
-1085
-1095
-1183
-1334
-1426
-1352
-1166
-1042
-1088
-1229
-1305
-1261
-1193
-1212
-1305
-1366
-1353
-1318
-1325
-1361
-1360
-1302
-1256
-1301
-1422
-1525
-1546
-1510
-1473
-1409
-1195
-726
-30
729
1366
1796
2062
2256
2423
2539
2545
2381
2032
1560
1070
632
221
-235
-751
-1236
-1569
-1714
-1726
-1640
-1426
-1057
-618
-295
-199
-248
-271
-210
-180
-317
-585
-798
-803
-634
-440
-306
-190
-42
78
68
-65
-180
-178
-121
-113
-128
-44
180
397
431
299
192
241
366
398
306
238
326
524
686
751
800
931
1128
1288
1339
1302
1234
1161
1071
991
979
1059
1175
1249
1289
1376
1562
1792
1937
1927
1816
1714
1682
1676
1627
1542
1511
1620
1842
2044
2097
1999
1867
1825
1869
1871
1724
1476
1280
1248
1362
1529
1697
1862
2015
2112
2116
2059
2004
1983
1954
1862
1723
1616
1590
1622
1641
1609
1556
1535
1544
1526
1439
1311
1214
1183
1174
1123
1026
944
927
955
968
955
968
1043
1141
1176
1131
1083
1111
1173
1152
1021
890
883
966
974
821
612
527
605
713
733
697
722
857
1038
1191
1308
1396
1424
1369
1282
1261
1326
1380
1321
1171
1061
1096
1236
1345
1340
1262
1232
1320
1466
1535
1473
1367
1350
1444
1530
1486
1336
1227
1250
1343
1384
1336
1267
1240
1231
1186
1107
1042
1007
954
833
668
550
542
610
664
640
564
514
533
592
625
609
585
598
641
675
668
640
632
638
598
464
276
133
88
113
162
275
554
1021
1561
2004
2286
2464
2593
2648
2593
2478
2381
2286
2070
1661
1163
745
436
100
-367
-893
-1295
-1469
-1463
-1370
-1220
-998
-730
-500
-382
-384
-454
-538
-623
-733
-890
-1061
-1155
-1102
-932
-775
-735
-807
-900
-942
-945
-954
-980
-987
-936
-830
-722
-661
-659
-682
-689
-682
-692
-729
-759
-743
-707
-715
-782
-832
-780
-641
-534
-551
-660
-751
-751
-687
-637
-648
-710
-778
-802
-774
-724
-688
-661
-612
-539
-489
-497
-524
-491
-379
-270
-253
-308
-335
-284
-209
-187
-214
-213
-147
-63
-28
-42
-62
-61
-60
-72
-88
-103
-138
-205
-270
-275
-218
-172
-206
-304
-382
-377
-317
-270
-267
-294
-335
-401
-517
-675
-844
-995
-1114
-1207
-1289
-1369
-1442
-1480
-1468
-1429
-1420
-1471
-1549
-1590
-1574
-1540
-1538
-1568
-1582
-1545
-1473
-1396
-1342
-1332
-1379
-1468
-1546
-1557
-1514
-1496
-1570
-1710
-1802
-1763
-1627
-1505
-1458
-1433
-1334
-1137
-922
-784
-750
-773
-794
-794
-791
-828
-926
-1055
-1139
-1118
-1037
-1006
-1074
-1150
-1104
-919
-738
-679
-690
-630
-466
-329
-363
-578
-916
-1357
-1921
-2540
-3039
-3292
-3335
-3301
-3236
-3071
-2755
-2369
-2033
-1781
-1551
-1306
-1103
-989
-903
-712
-368
29
309
385
287
104
-110
-356
-656
-1003
-1342
-1600
-1750
-1819
-1847
-1832
-1753
-1640
-1596
-1667
-1743
-1647
-1338
-988
-796
-773
-769
-701
-671
-814
-1088
-1306
-1375
-1412
-1590
-1909
-2200
-2345
-2397
-2491
-2663
-2816
-2841
-2732
-2553
-2375
-2224
-2114
-2048
-2026
-2033
-2062
-2126
-2223
-2334
-2422
-2455
-2420
-2315
-2156
-1994
-1892
-1885
-1954
-2035
-2073
-2050
-1989
-1918
-1853
-1795
-1739
-1681
-1626
-1582
-1556
-1534
-1488
-1415
-1353
-1340
-1372
-1401
-1392
-1365
-1369
-1402
-1407
-1333
-1199
-1080
-1019
-985
-915
-793
-664
-575
-527
-477
-399
-307
-245
-236
-264
-281
-257
-193
-125
-99
-124
-167
-194
-213
-265
-352
-415
-396
-327
-301
-360
-435
-424
-311
-191
-169
-248
-351
-407
-413
-413
-451
-539
-639
-685
-642
-548
-494
-536
-627
-678
-657
-623
-647
-733
-826
-881
-890
-863
-803
-729
-688
-714
-767
-770
-693
-611
-643
-821
-1047
-1178
-1155
-1049
-999
-1073
-1219
-1315
-1299
-1216
-1170
-1206
-1273
-1278
-1196
-1095
-1067
-1128
-1190
-1157
-1028
-914
-931
-1069
-1188
-1153
-972
-801
-793
-943
-1097
-1115
-1007
-915
-949
-1076
-1161
-1112
-968
-848
-818
-842
-848
-816
-788
-810
-867
-911
-919
-915
-927
-944
-931
-880
-832
-831
-863
-869
-815
-733
-696
-743
-844
-939
-987
-985
-966
-960
-970
-976
-960
-926
-900
-907
-943
-985
-1030
-1094
-1186
-1271
-1302
-1269
-1214
-1188
-1194
-1194
-1146
-1060
-980
-935
-904
-841
-739
-644
-591
-531
-364
-54
287
488
486
389
341
372
389
312
154
-30
-253
-572
-980
-1384
-1701
-1953
-2227
-2541
-2799
-2870
-2717
-2428
-2124
-1865
-1641
-1431
-1263
-1189
-1213
-1275
-1317
-1368
-1530
-1834
-2152
-2294
-2200
-2010
-1922
-1980
-2058
-2024
-1893
-1782
-1749
-1729
-1626
-1428
-1210
-1029
-865
-663
-414
-158
68
272
460
602
649
596
506
469
510
572
590
548
502
513
591
693
762
773
747
724
733
777
828
847
803
694
554
424
329
268
231
220
243
291
318
284
199
115
63
25
-28
-91
-121
-101
-63
-25
55
223
450
640
728
764
847
1007
1177
1286
1339
1385
1437
1474
1487
1506
1552
1605
1629
1631
1646
1694
1757
1810
1846
1864
1843
1769
1669
1594
1553
1499
1396
1280
1223
1241
1268
1223
1111
1009
966
943
855
680
484
356
323
338
346
335
325
334
352
363
365
364
361
355
347
354
396
467
540
589
606
604
595
586
573
557
537
518
507
510
535
585
649
711
744
732
684
642
651
715
783
798
758
728
770
882
992
1040
1022
981
947
919
875
813
747
693
651
609
557
505
474
475
488
475
417
340
286
263
247
222
209
231
276
297
271
226
215
248
264
195
55
-68
-90
-9
116
261
497
911
1480
2033
2366
2415
2295
2180
2136
2084
1904
1557
1109
657
256
-113
-497
-919
-1359
-1768
-2099
-2308
-2352
-2216
-1947
-1665
-1478
-1400
-1359
-1305
-1283
-1392
-1657
-1980
-2234
-2349
-2351
-2312
-2277
-2245
-2187
-2114
-2116
-2313
-2731
-3218
-3553
-3643
-3594
-3577
-3609
-3542
-3251
-2811
-2416
-2185
-2063
-1949
-1838
-1813
-1916
-2078
-2190
-2196
-2110
-1953
-1722
-1427
-1120
-873
-716
-633
-601
-628
-726
-868
-966
-939
-778
-555
-356
-212
-102
8
124
226
290
300
256
186
135
132
174
231
278
316
359
405
438
444
421
377
320
251
178
116
81
86
126
180
221
233
225
213
189
130
22
-109
-226
-318
-410
-516
-603
-622
-575
-524
-534
-606
-689
-736
-750
-767
-798
-824
-815
-776
-747
-755
-789
-810
-793
-763
-777
-863
-989
-1091
-1132
-1136
-1159
-1230
-1320
-1382
-1391
-1359
-1324
-1316
-1339
-1371
-1386
-1384
-1386
-1402
-1424
-1447
-1485
-1546
-1596
-1581
-1497
-1421
-1433
-1523
-1592
-1572
-1514
-1534
-1665
-1817
-1874
-1818
-1738
-1721
-1764
-1794
-1760
-1679
-1605
-1578
-1598
-1638
-1673
-1681
-1659
-1632
-1643
-1718
-1839
-1949
-2009
-2028
-2047
-2100
-2178
-2239
-2247
-2185
-2074
-1955
-1865
-1818
-1782
-1712
-1602
-1502
-1458
-1461
-1452
-1400
-1342
-1337
-1392
-1453
-1463
-1440
-1472
-1620
-1827
-1959
-1935
-1799
-1650
-1486
-1185
-654
22
626
1007
1188
1285
1362
1389
1324
1168
929
580
108
-397
-808
-1099
-1386
-1762
-2169
-2451
-2527
-2460
-2333
-2148
-1878
-1594
-1443
-1471
-1538
-1479
-1326
-1280
-1461
-1744
-1886
-1792
-1605
-1512
-1541
-1568
-1507
-1419
-1418
-1514
-1607
-1605
-1512
-1396
-1308
-1244
-1205
-1197
-1212
-1223
-1221
-1221
-1243
-1273
-1280
-1267
-1275
-1341
-1422
-1433
-1362
-1292
-1313
-1397
-1430
-1358
-1267
-1277
-1387
-1470
-1429
-1310
-1235
-1246
-1264
-1202
-1091
-1032
-1061
-1110
-1094
-1005
-915
-874
-875
-877
-859
-815
-754
-705
-711
-783
-855
-839
-720
-588
-553
-619
-699
-711
-653
-585
-545
-523
-498
-477
-466
-450
-412
-359
-314
-287
-268
-243
-225
-235
-264
-273
-234
-177
-161
-213
-288
-323
-302
-276
-291
-319
-284
-167
-47
-18
-72
-102
-22
127
216
167
56
42
188
379
442
339
223
277
499
699
702
550
459
580
850
1071
1122
1039
958
969
1051
1121
1109
1019
938
960
1091
1224
1247
1164
1099
1131
1203
1182
1034
892
902
1041
1154
1132
1042
1036
1161
1329
1422
1410
1338
1250
1160
1099
1096
1119
1076
927
769
735
824
894
845
738
709
767
792
693
532
435
437
445
378
257
173
197
345
569
782
863
766
576
444
435
452
355
130
-96
-185
-99
125
449
844
1249
1566
1742
1808
1815
1782
1691
1554
1410
1274
1096
831
514
239
51
-104
-298
-525
-693
-717
-601
-408
-202
-9
143
231
255
248
237
214
159
82
27
42
132
269
427
580
694
727
654
515
400
385
475
599
665
654
639
703
838
951
968
921
912
991
1106
1174
1174
1158
1166
1195
1232
1281
1344
1395
1401
1380
1395
1476
1572
1603
1545
1453
1411
1461
1580
1697
1751
1735
1707
1729
1801
1849
1817
1743
1711
1756
1806
1786
1722
1718
1821
1950
1985
1904
1797
1770
1831
1902
1910
1855
1785
1734
1702
1669
1625
1578
1534
1483
1409
1325
1270
1275
1332
1396
1417
1369
1267
1147
1038
947
852
732
596
483
421
390
351
295
257
262
279
246
145
29
-23
9
66
67
-17
-144
-241
-263
-226
-183
-180
-217
-262
-283
-265
-205
-115
-25
25
22
-7
-17
-6
-6
-27
-35
-4
38
32
-28
-70
-32
58
105
54
-47
-118
-143
-171
-237
-313
-340
-314
-290
-307
-330
-298
-209
-148
-189
-303
-386
-394
-374
-389
-430
-452
-452
-477
-535
-561
-509
-439
-458
-579
-684
-670
-589
-582
-710
-878
-954
-927
-903
-971
-1093
-1155
-1098
-986
-926
-946
-971
-910
-770
-658
-672
-788
-873
-841
-753
-742
-840
-892
-714
-305
117
327
303
228
275
429
540
520
437
389
361
254
48
-157
-278
-379
-594
-937
-1249
-1362
-1280
-1135
-1013
-869
-646
-402
-258
-254
-308
-335
-353
-436
-592
-728
-750
-656
-534
-466
-467
-506
-550
-599
-662
-721
-730
-662
-531
-396
-305
-253
-194
-114
-56
-64
-109
-120
-73
-43
-108
-227
-245
-39
333
685
876
943
1047
1280
1578
1786
1788
1581
1208
721
174
-373
-867
-1300
-1681
-1966
-2052
-1853
-1419
-927
-557
-359
-280
-262
-303
-426
-622
-842
-1031
-1149
-1162
-1049
-822
-532
-248
-16
152
264
343
386
373
291
160
38
-31
-63
-119
-226
-341
-401
-412
-444
-525
-596
-603
-590
-672
-884
-1116
-1216
-1167
-1099
-1133
-1251
-1338
-1351
-1354
-1426
-1552
-1653
-1709
-1778
-1907
-2044
-2066
-1928
-1705
-1523
-1451
-1476
-1542
-1586
-1554
-1444
-1356
-1416
-1623
-1800
-1765
-1559
-1419
-1500
-1687
-1744
-1623
-1526
-1655
-1954
-2198
-2272
-2291
-2423
-2671
-2883
-2946
-2894
-2836
-2822
-2828
-2822
-2805
-2793
-2772
-2720
-2644
-2566
-2504
-2462
-2428
-2367
-2244
-2069
-1906
-1825
-1808
-1757
-1605
-1403
-1275
-1296
-1437
-1614
-1777
-1925
-2051
-2130
-2165
-2203
-2271
-2327
-2300
-2199
-2114
-2137
-2246
-2326
-2303
-2212
-2145
-2143
-2164
-2146
-2086
-2019
-1976
-1947
-1898
-1819
-1732
-1666
-1613
-1538
-1443
-1370
-1342
-1288
-1096
-734
-323
-52
-1
-84
-159
-174
-182
-236
-322
-418
-559
-805
-1140
-1445
-1607
-1645
-1700
-1896
-2207
-2483
-2556
-2393
-2112
-1889
-1815
-1844
-1839
-1711
-1514
-1395
-1445
-1618
-1784
-1849
-1823
-1769
-1718
-1644
-1520
-1376
-1296
-1320
-1390
-1380
-1237
-1040
-928
-964
-1068
-1115
-1064
-983
-952
-968
-955
-853
-671
-476
-337
-286
-309
-358
-377
-342
-278
-219
-170
-108
-25
70
163
264
384
509
608
674
726
792
887
1007
1139
1255
1321
1331
1340
1413
1548
1663
1684
1635
1612
1674
1781
1860
1896
1947
2057
2196
2288
2295
2248
2210
2216
2246
2257
2233
2191
2161
2153
2154
2149
2128
2089
2028
1943
1858
1818
1839
1880
1879
1828
1783
1793
1826
1794
1660
1485
1361
1303
1249
1166
1085
1051
1050
1030
979
940
938
928
840
672
507
424
428
473
527
590
673
786
941
1133
1313
1400
1354
1226
1114
1066
1052
1033
1027
1081
1195
1299
1333
1306
1275
1258
1220
1128
1015
955
1000
1140
1336
1537
1708
1816
1846
1808
1730
1633
1524
1413
1320
1270
1273
1322
1404
1495
1558
1556
1480
1361
1243
1122
963
740
474
228
44
-91
-227
-391
-554
-664
-697
-686
-686
-731
-807
-888
-950
-977
-966
-932
-901
-882
-840
-741
-606
-488
-419
-378
-352
-363
-425
-478
-408
-164
193
568
952
1407
1932
2420
2733
2837
2819
2790
2792
2787
2705
2500
2182
1804
1414
1012
567
84
-381
-751
-980
-1059
-981
-752
-434
-134
65
157
185
170
81
-104
-352
-601
-792
-885
-858
-720
-527
-353
-243
-198
-200
-235
-283
-301
-255
-159
-73
-38
-24
32
151
281
366
410
473
588
714
777
752
692
672
718
796
865
920
985
1078
1188
1293
1376
1433
1472
1501
1540
1602
1683
1766
1839
1904
1975
2057
2134
2184
2203
2218
2263
2338
2405
2438
2439
2442
2458
2467
2441
2380
2302
2227
2163
2114
2085
2071
2053
2023
1995
1984
1974
1937
1870
1803
1764
1736
1688
1617
1559
1544
1555
1536
1457
1351
1280
1266
1264
1208
1081
946
883
903
938
919
850
794
782
777
728
636
543
468
385
275
167
102
79
54
7
-36
-44
-30
-38
-89
-149
-180
-185
-202
-251
-313
-351
-351
-334
-331
-352
-384
-402
-400
-383
-360
-339
-318
-298
-277
-265
-277
-324
-394
-456
-486
-493
-513
-555
-586
-565
-499
-437
-405
-381
-330
-257
-215
-230
-267
-275
-257
-268
-356
-496
-607
-631
-595
-572
-611
-685
-724
-695
-645
-643
-704
-780
-817
-827
-861
-922
-955
-915
-834
-787
-789
-782
-708
-594
-514
-507
-549
-601
-648
-687
-720
-754
-787
-767
-588
-197
306
718
914
950
969
1028
1068
1020
897
751
577
343
74
-140
-247
-307
-437
-677
-937
-1078
-1035
-855
-646
-496
-407
-330
-226
-122
-89
-162
-303
-438
-542
-634
-719
-751
-699
-604
-551
-591
-697
-806
-878
-906
-892
-846
-787
-741
-715
-693
-673
-670
-686
-688
-642
-579
-572
-647
-734
-743
-676
-626
-657
-727
-735
-653
-552
-514
-542
-577
-579
-561
-550
-536
-492
-412
-323
-251
-182
-82
62
221
347
416
447
488
575
712
869
1003
1080
1107
1119
1145
1186
1218
1232
1244
1269
1304
1341
1396
1501
1648
1761
1770
1687
1611
1623
1698
1740
1696
1606
1551
1557
1589
1606
1611
1623
1636
1626
1586
1530
1470
1387
1265
1122
999
919
849
746
609
488
439
455
476
449
372
292
255
266
289
278
221
150
106
104
117
109
84
86
149
246
310
301
249
227
267
333
360
313
222
149
132
172
227
251
226
178
149
159
178
157
79
-22
-86
-89
-65
-66
-115
-171
-177
-126
-89
-150
-309
-465
-519
-486
-471
-545
-673
-762
-784
-786
-801
-794
-727
-650
-665
-791
-923
-946
-867
-813
-867
-978
-1033
-995
-924
-880
-853
-798
-717
-658
-646
-640
-595
-519
-455
-423
-423
-463
-550
-655
-712
-681
-590
-465
-260
85
547
985
1277
1431
1544
1658
1738
1749
1704
1623
1460
1170
818
550
435
366
182
-138
-436
-535
-404
-162
56
208
335
487
664
816
883
832
686
524
427
426
478
515
531
582
717
895
993
938
799
719
773
909
1008
1023
996
980
995
1033
1081
1132
1174
1210
1265
1344
1410
1417
1363
1313
1324
1380
1428
1444
1462
1512
1573
1589
1557
1546
1614
1728
1785
1720
1588
1514
1570
1695
1783
1813
1859
1976
2088
2070
1921
1805
1863
2033
2095
1951
1765
1781
2027
2272
2307
2180
2106
2183
2275
2201
1983
1817
1835
1948
1981
1880
1759
1753
1858
1953
1929
1794
1624
1490
1401
1319
1197
1041
894
810
792
795
769
712
666
668
695
688
623
536
481
471
462
410
315
236
245
338
422
395
253
117
103
190
251
204
131
176
343
480
473
405
457
672
878
904
798
759
885
1055
1096
998
909
935
1028
1064
999
890
805
772
791
860
951
1007
1001
979
1010
1111
1216
1262
1257
1245
1239
1222
1195
1195
1240
1280
1249
1154
1065
1037
1056
1063
1030
968
887
786
680
607
578
545
440
273
128
77
96
109
91
84
126
199
252
264
257
263
277
274
250
243
285
351
365
269
97
-35
-33
88
248
420
669
1073
1573
1983
2158
2129
2058
2070
2138
2135
1967
1651
1281
943
659
398
103
-243
-605
-913
-1094
-1117
-1007
-795
-523
-262
-90
-33
-25
20
102
117
-27
-292
-500
-514
-365
-212
-171
-208
-217
-176
-149
-177
-211
-180
-89
-8
20
19
22
14
-43
-139
-203
-183
-93
11
97
169
224
250
249
243
244
237
208
177
170
180
170
131
109
149
224
256
210
135
101
118
135
108
48
-11
-34
0
95
224
328
363
356
365
405
419
347
216
121
122
171
174
114
64
99
200
269
223
67
-107
-211
-229
-217
-237
-291
-311
-235
-78
66
114
75
32
30
20
-77
-266
-444
-500
-426
-316
-265
-281
-300
-266
-203
-186
-265
-411
-545
-616
-643
-683
-759
-809
-752
-577
-380
-285
-316
-384
-383
-295
-205
-204
-291
-383
-402
-347
-281
-244
-227
-203
-175
-175
-219
-267
-259
-192
-124
-114
-154
-168
-96
30
117
101
19
-35
0
95
169
172
138
133
177
235
257
236
197
158
126
112
130
178
232
269
298
331
342
283
134
-45
-160
-181
-157
-154
-182
-191
-136
-40
45
80
63
12
-60
-134
-179
-182
-147
-102
-53
7
71
94
16
-177
-419
-608
-706
-748
-763
-690
-395
193
994
1835
2556
3085
3403
3516
3473
3360
3235
3045
2678
2107
1475
967
631
347
-19
-454
-822
-1018
-1036
-939
-779
-571
-319
-29
292
619
888
1019
970
774
492
147
-256
-681
-1051
-1309
-1473
-1598
-1713
-1796
-1812
-1768
-1699
-1636
-1583
-1550
-1553
-1600
-1660
-1687
-1679
-1662
-1647
-1599
-1473
-1295
-1164
-1147
-1205
-1222
-1141
-1029
-989
-1031
-1062
-1004
-898
-848
-880
-903
-818
-619
-384
-180
-2
168
300
345
307
261
270
319
353
367
417
565
797
1040
1219
1308
1323
1295
1247
1193
1142
1096
1065
1064
1100
1156
1196
1185
1118
1013
895
768
620
459
329
279
314
368
368
295
199
133
90
15
-122
-289
-425
-512
-575
-628
-638
-562
-420
-301
-286
-364
-440
-428
-347
-304
-377
-512
-575
-500
-368
-331
-447
-619
-712
-705
-700
-779
-910
-995
-999
-980
-992
-1009
-967
-871
-797
-791
-793
-719
-581
-491
-528
-635
-698
-683
-669
-726
-827
-889
-885
-864
-862
-846
-770
-653
-575
-591
-663
-706
-682
-629
-608
-637
-674
-658
-568
-445
-355
-320
-308
-264
-182
-111
-100
-147
-186
-166
-91
-6
46
59
71
118
206
296
330
292
227
200
247
348
452
525
569
610
674
759
834
868
863
845
834
830
824
815
810
836
948
1190
1534
1872
2090
2175
2222
2309
2396
2402
2328
2265
2252
2199
1992
1668
1382
1230
1131
942
641
356
214
222
316
456
630
804
922
980
1038
1142
1245
1258
1167
1071
1078
1197
1351
1470
1547
1613
1666
1666
1590
1485
1434
1485
1610
1736
1811
1840
1866
1918
1984
2028
2043
2061
2118
2214
2310
2374
2411
2441
2462
2456
2416
2362
2316
2270
2210
2151
2121
2130
2154
2161
2148
2135
2126
2087
2000
1886
1792
1745
1732
1723
1698
1671
1668
1697
1742
1763
1731
1671
1656
1736
1868
1950
1932
1889
1947
2134
2333
2402
2323
2212
2183
2230
2259
2216
2143
2112
2133
2159
2152
2122
2098
2067
1987
1838
1650
1477
1344
1249
1160
1057
937
809
686
578
487
407
332
255
167
65
-36
-108
-133
-128
-131
-166
-213
-223
-176
-107
-64
-58
-57
-28
19
56
71
88
130
191
239
263
283
328
399
473
521
546
572
614
664
708
744
784
824
854
861
855
854
870
891
910
932
965
999
1020
1035
1063
1107
1138
1127
1088
1063
1077
1120
1165
1199
1223
1227
1199
1143
1084
1040
1000
942
870
815
800
818
854
900
958
1014
1037
1013
963
925
919
926
916
880
849
858
907
958
969
941
920
930
926
847
705
594
581
634
677
726
887
1207
1569
1792
1836
1837
1921
2045
2066
1936
1765
1658
1566
1356
996
601
296
77
-155
-441
-691
-779
-674
-452
-226
-45
98
212
285
294
232
119
-15
-158
-291
-384
-408
-370
-303
-239
-188
-167
-201
-275
-322
-285
-199
-155
-165
-109
125
477
736
767
641
524
464
335
15
-453
-912
-1242
-1463
-1638
-1760
-1755
-1590
-1350
-1195
-1211
-1303
-1306
-1170
-1023
-1031
-1193
-1327
-1289
-1118
-972
-923
-913
-884
-867
-895
-889
-727
-409
-90
84
122
127
137
85
-72
-286
-495
-702
-945
-1176
-1275
-1190
-1017
-912
-932
-998
-1001
-933
-880
-911
-1001
-1065
-1048
-993
-973
-996
-993
-911
-809
-813
-963
-1160
-1268
-1257
-1233
-1304
-1463
-1604
-1651
-1611
-1549
-1514
-1509
-1504
-1481
-1447
-1437
-1492
-1614
-1741
-1794
-1766
-1720
-1715
-1731
-1699
-1594
-1477
-1411
-1395
-1387
-1378
-1403
-1480
-1558
-1579
-1549
-1531
-1546
-1553
-1505
-1427
-1388
-1411
-1455
-1468
-1452
-1443
-1450
-1448
-1421
-1388
-1369
-1365
-1373
-1406
-1479
-1570
-1634
-1655
-1670
-1715
-1767
-1771
-1708
-1620
-1559
-1526
-1489
-1435
-1386
-1364
-1362
-1351
-1321
-1290
-1283
-1302
-1323
-1320
-1290
-1251
-1232
-1242
-1268
-1290
-1301
-1297
-1276
-1238
-1196
-1170
-1162
-1134
-1047
-912
-796
-754
-764
-760
-693
-582
-493
-481
-549
-638
-673
-616
-495
-369
-230
2
389
882
1315
1554
1596
1546
1498
1473
1443
1374
1235
1002
694
391
165
-1
-209
-520
-872
-1125
-1187
-1085
-904
-707
-512
-325
-164
-50
12
18
-41
-155
-283
-376
-399
-356
-272
-173
-82
-14
16
-5
-63
-115
-116
-57
20
59
44
11
6
23
25
1
-14
22
95
163
211
269
338
341
213
17
-71
44
244
303
152
-44
-73
94
278
312
204
91
92
214
384
514
540
462
363
352
450
563
586
541
552
666
777
762
631
522
515
538
473
317
204
236
380
535
645
725
795
834
813
745
676
625
564
465
342
262
278
369
446
470
481
530
579
522
340
156
106
158
137
-49
-289
-400
-342
-251
-247
-308
-347
-354
-381
-425
-421
-362
-329
-397
-516
-546
-427
-266
-195
-240
-332
-395
-425
-461
-501
-488
-395
-254
-162
-180
-242
-207
-1
273
428
385
262
235
366
539
611
552
452
410
437
475
474
453
470
538
609
637
647
707
845
992
1064
1057
1023
979
900
800
765
861
1010
1055
949
817
793
862
883
772
608
524
549
591
564
488
442
474
556
622
631
604
592
619
672
718
734
721
694
671
659
640
559
387
197
125
236
448
614
717
897
1289
1845
2352
2611
2592
2420
2252
2199
2267
2334
2229
1872
1380
968
715
489
123
-383
-841
-1092
-1155
-1126
-1025
-795
-447
-119
50
66
66
126
160
53
-175
-377
-427
-351
-265
-223
-182
-90
19
63
34
11
58
150
224
267
321
400
441
374
247
215
373
625
773
761
735
867
1109
1233
1108
881
806
932
1053
993
838
821
1021
1250
1304
1208
1149
1212
1286
1237
1099
1024
1088
1212
1268
1244
1232
1302
1424
1511
1525
1497
1485
1513
1564
1591
1561
1496
1457
1486
1562
1615
1597
1529
1467
1442
1435
1420
1401
1395
1397
1366
1288
1208
1183
1210
1228
1182
1087
1011
1002
1047
1101
1129
1119
1068
976
863
762
699
677
657
597
483
358
302
354
464
530
490
383
295
259
250
245
253
267
242
149
44
27
120
216
188
25
-157
-230
-168
-47
31
13
-62
-85
10
154
186
56
-86
-34
206
388
296
27
-122
-21
127
18
-396
-863
-1106
-1097
-1019
-1010
-1029
-925
-616
-187
195
421
520
599
707
768
688
498
355
375
519
640
650
595
559
542
477
341
192
73
-52
-212
-357
-366
-180
96
288
321
294
358
541
730
791
734
681
710
788
844
870
921
1024
1153
1319
1602
2069
2651
3155
3425
3467
3407
3348
3296
3191
2995
2723
2428
2165
1942
1699
1382
1005
646
360
138
-40
-131
-54
190
484
706
855
1018
1222
1370
1345
1153
920
740
615
524
504
619
845
1040
1066
924
754
691
735
783
751
665
607
622
687
754
804
840
862
871
889
934
988
986
863
618
323
66
-89
-107
22
270
583
917
1267
1640
2006
2279
2410
2432
2440
2460
2429
2326
2244
2316
2543
2751
2782
2662
2537
2450
2283
1958
1609
1459
1551
1714
1814
1937
2226
2591
2705
2362
1713
1099
655
230
-292
-739
-799
-382
264
818
1192
1492
1763
1869
1647
1126
501
-33
-408
-647
-738
-637
-356
-12
246
340
304
222
131
1
-212
-489
-723
-790
-646
-348
-35
162
187
92
-10
-44
-43
-112
-306
-569
-797
-950
-1074
-1210
-1331
-1390
-1403
-1425
-1446
-1367
-1112
-751
-462
-351
-368
-396
-391
-423
-577
-847
-1150
-1390
-1525
-1583
-1628
-1692
-1759
-1773
-1708
-1618
-1587
-1649
-1759
-1850
-1897
-1934
-1993
-2066
-2126
-2172
-2231
-2326
-2448
-2551
-2587
-2554
-2505
-2492
-2517
-2519
-2454
-2351
-2297
-2362
-2524
-2685
-2757
-2730
-2657
-2587
-2511
-2372
-2129
-1805
-1488
-1265
-1154
-1127
-1169
-1294
-1499
-1746
-1986
-2207
-2415
-2573
-2614
-2532
-2417
-2342
-2261
-2059
-1726
-1426
-1325
-1389
-1427
-1332
-1208
-1222
-1379
-1532
-1584
-1613
-1748
-1990
-2213
-2330
-2380
-2445
-2538
-2599
-2587
-2521
-2419
-2281
-2132
-2045
-2067
-2139
-2149
-2055
-1946
-1929
-2005
-2068
-2029
-1897
-1762
-1687
-1665
-1652
-1622
-1580
-1558
-1559
-1554
-1517
-1449
-1383
-1353
-1349
-1320
-1238
-1139
-1090
-1120
-1181
-1205
-1177
-1147
-1170
-1240
-1295
-1283
-1209
-1116
-1040
-981
-917
-842
-766
-715
-700
-706
-704
-673
-617
-555
-498
-437
-353
-246
-142
-70
-46
-60
-76
-51
30
142
228
250
230
230
295
405
510
582
643
717
794
833
814
762
730
741
776
801
804
801
815
850
880
885
861
819
755
664
569
515
527
575
590
538
458
419
448
496
492
407
284
194
166
178
188
182
174
175
157
94
8
-32
30
169
293
334
309
295
340
416
457
430
362
307
289
296
318
359
418
469
468
406
319
259
239
219
158
59
-42
-115
-165
-219
-286
-348
-393
-426
-456
-462
-405
-268
-84
105
265
379
421
368
241
105
15
-42
-129
-274
-418
-474
-404
-255
-110
-21
-2
-39
-103
-164
-201
-233
-301
-412
-527
-594
-597
-560
-526
-507
-496
-489
-493
-506
-501
-449
-365
-310
-322
-375
-404
-384
-342
-290
-174
76
427
742
921
1007
1130
1330
1504
1535
1447
1369
1365
1355
1217
943
642
421
283
160
17
-105
-143
-64
117
356
593
774
869
896
905
916
907
840
709
555
442
418
490
618
737
781
734
641
578
582
628
659
658
652
676
725
769
785
771
751
751
781
829
866
870
851
836
837
833
806
772
770
822
915
1008
1074
1103
1111
1126
1164
1211
1233
1201
1137
1107
1159
1272
1383
1446
1482
1544
1649
1758
1815
1810
1782
1766
1759
1742
1724
1739
1788
1818
1784
1722
1722
1812
1894
1842
1671
1538
1570
1707
1765
1651
1462
1368
1423
1520
1530
1437
1320
1255
1241
1228
1183
1109
1024
941
864
793
731
681
645
615
571
510
456
439
454
461
426
364
318
306
302
273
230
211
231
262
271
265
274
307
338
336
299
246
202
181
174
165
146
132
147
200
274
344
413
503
626
744
804
786
705
588
448
296
154
36
-65
-174
-298
-399
-444
-443
-440
-452
-459
-432
-374
-313
-256
-194
-137
-136
-238
-437
-667
-850
-966
-1059
-1178
-1313
-1395
-1355
-1188
-978
-833
-813
-898
-1016
-1103
-1135
-1137
-1157
-1231
-1337
-1401
-1371
-1284
-1230
-1242
-1276
-1293
-1309
-1349
-1370
-1298
-1134
-977
-857
-651
-227
350
823
997
933
832
801
776
682
543
417
279
56
-250
-539
-738
-889
-1088
-1364
-1637
-1789
-1760
-1577
-1327
-1109
-972
-889
-787
-644
-533
-551
-712
-926
-1085
-1127
-1058
-930
-807
-737
-721
-722
-712
-712
-776
-887
-950
-881
-711
-564
-536
-596
-635
-592
-522
-518
-598
-682
-674
-575
-491
-521
-651
-753
-708
-528
-351
-300
-368
-436
-414
-332
-300
-378
-514
-616
-636
-613
-606
-626
-630
-573
-457
-335
-252
-222
-216
-199
-159
-106
-66
-60
-81
-98
-76
1
112
201
223
177
104
61
91
171
227
195
98
34
86
225
322
293
192
145
190
231
152
-18
-123
-66
70
111
-6
-167
-224
-159
-101
-165
-323
-461
-502
-471
-434
-417
-394
-357
-333
-347
-380
-400
-390
-372
-367
-371
-362
-343
-340
-352
-335
-257
-153
-98
-125
-172
-142
-20
101
115
11
-121
-196
-211
-226
-281
-370
-459
-522
-539
-492
-398
-320
-326
-423
-538
-593
-581
-559
-561
-560
-516
-442
-382
-355
-325
-274
-258
-353
-532
-662
-641
-513
-437
-511
-670
-769
-734
-632
-589
-661
-802
-920
-963
-954
-936
-908
-835
-714
-614
-618
-730
-863
-923
-913
-910
-968
-1051
-1090
-1080
-1061
-1040
-993
-934
-934
-1030
-1165
-1231
-1182
-1055
-868
-562
-86
502
1037
1391
1571
1653
1684
1665
1587
1444
1215
876
467
82
-214
-451
-707
-1009
-1309
-1545
-1677
-1656
-1434
-1064
-709
-528
-510
-480
-324
-141
-122
-295
-498
-581
-570
-582
-636
-626
-491
-324
-268
-350
-457
-489
-466
-464
-493
-481
-378
-235
-158
-204
-333
-436
-415
-250
-16
159
188
103
32
65
161
197
106
-36
-88
3
144
216
212
222
317
454
522
477
392
372
448
555
612
604
566
557
605
696
785
827
832
860
960
1097
1181
1176
1156
1230
1397
1528
1502
1342
1185
1153
1242
1355
1396
1335
1222
1154
1216
1398
1568
1585
1451
1309
1293
1379
1423
1332
1157
1033
1023
1078
1104
1051
934
801
709
667
634
561
468
440
529
674
772
796
822
900
965
919
778
672
680
723
672
528
421
449
575
690
742
757
748
698
637
652
786
944
980
867
730
701
783
857
834
745
670
653
704
822
985
1111
1112
990
860
821
853
853
756
614
522
527
622
787
982
1129
1166
1137
1151
1264
1374
1321
1071
765
579
552
579
549
433
286
207
268
426
545
494
292
104
68
153
210
168
128
206
372
476
436
349
344
403
370
155
-136
-298
-246
-76
95
277
613
1191
1902
2495
2778
2760
2626
2567
2621
2668
2552
2228
1796
1420
1180
1008
754
332
-191
-644
-889
-930
-865
-739
-501
-98
382
748
893
895
912
979
963
740
379
102
61
199
366
481
567
644
661
571
417
313
320
386
422
413
401
416
426
402
378
431
565
673
641
498
403
479
670
783
683
428
220
218
389
545
530
366
225
249
410
544
527
396
284
271
324
384
430
462
477
477
498
586
720
815
807
725
644
601
579
561
542
513
461
405
401
481
581
611
554
476
422
365
280
200
165
143
74
-23
-60
-15
16
-39
-104
-39
134
198
-18
-389
-619
-571
-410
-418
-670
-970
-1075
-936
-711
-602
-669
-829
-958
-1017
-1070
-1173
-1297
-1376
-1400
-1438
-1533
-1615
-1583
-1453
-1364
-1424
-1571
-1638
-1542
-1374
-1292
-1343
-1439
-1462
-1381
-1263
-1202
-1240
-1332
-1402
-1394
-1330
-1277
-1266
-1276
-1269
-1240
-1226
-1259
-1321
-1370
-1388
-1396
-1426
-1474
-1499
-1482
-1443
-1423
-1430
-1417
-1330
-1177
-1042
-1011
-1095
-1216
-1280
-1265
-1227
-1254
-1373
-1514
-1572
-1491
-1336
-1235
-1232
-1254
-1232
-1240
-1408
-1713
-1903
-1778
-1471
-1339
-1525
-1693
-1333
-342
844
1664
1931
1865
1727
1514
1039
196
-912
-2050
-3000
-3654
-4039
-4287
-4531
-4780
-4903
-4760
-4346
-3779
-3178
-2567
-1908
-1200
-519
24
353
456
373
172
-83
-341
-573
-717
-708
-536
-277
-48
91
161
188
93
-242
-779
-1243
-1272
-735
132
930
1426
1671
1808
1809
1484
712
-382
-1490
-2364
-2939
-3275
-3427
-3404
-3204
-2874
-2494
-2127
-1790
-1474
-1182
-953
-859
-952
-1186
-1408
-1472
-1376
-1281
-1358
-1610
-1857
-1941
-1869
-1763
-1683
-1574
-1382
-1177
-1093
-1168
-1314
-1435
-1543
-1718
-1972
-2208
-2317
-2291
-2227
-2220
-2283
-2353
-2364
-2317
-2266
-2249
-2252
-2232
-2177
-2125
-2096
-2053
-1937
-1765
-1643
-1645
-1732
-1806
-1826
-1851
-1930
-2030
-2098
-2138
-2186
-2201
-2059
-1701
-1251
-945
-898
-1001
-1067
-1052
-1094
-1336
-1757
-2190
-2492
-2653
-2731
-2751
-2688
-2530
-2347
-2220
-2163
-2131
-2071
-1984
-1907
-1855
-1820
-1786
-1738
-1671
-1585
-1496
-1426
-1392
-1406
-1465
-1540
-1574
-1518
-1374
-1211
-1095
-1027
-950
-823
-696
-665
-756
-894
-968
-938
-871
-866
-937
-985
-910
-737
-611
-649
-804
-905
-855
-740
-718
-812
-880
-790
-585
-405
-322
-274
-190
-96
-77
-141
-201
-201
-191
-262
-399
-464
-373
-208
-128
-178
-228
-133
64
183
128
15
7
103
129
-18
-208
-213
29
332
463
383
249
223
306
361
287
113
-44
-86
-13
108
212
296
420
649
988
1365
1688
1924
2112
2291
2446
2520
2495
2447
2473
2569
2592
2411
2045
1664
1407
1249
1055
759
448
277
320
515
745
930
1069
1196
1326
1444
1500
1454
1317
1145
999
918
914
990
1126
1273
1369
1385
1345
1285
1220
1142
1068
1038
1079
1170
1254
1303
1333
1380
1449
1518
1561
1573
1563
1545
1535
1541
1549
1532
1473
1396
1349
1359
1408
1450
1454
1424
1394
1405
1482
1613
1748
1839
1880
1913
1991
2133
2316
2494
2638
2743
2832
2931
3051
3172
3245
3237
3173
3112
3087
3068
2997
2862
2730
2676
2697
2690
2558
2306
2042
1869
1798
1772
1741
1719
1748
1834
1940
2034
2110
2158
2144
2025
1805
1552
1351
1224
1125
986
798
617
522
534
597
622
583
545
585
699
800
828
835
927
1126
1328
1418
1396
1385
1482
1640
1738
1732
1698
1740
1865
1989
2053
2085
2155
2282
2429
2554
2647
2721
2778
2808
2812
2811
2828
2871
2926
2966
2965
2928
2894
2892
2895
2838
2699
2556
2515
2593
2694
2723
2685
2670
2731
2835
2910
2937
2945
2957
2962
2961
2975
3003
3000
2924
2800
2698
2643
2587
2467
2287
2113
2004
1955
1927
1887
1828
1769
1732
1733
1763
1782
1753
1696
1664
1692
1755
1807
1832
1844
1867
1899
1923
1923
1896
1853
1808
1778
1779
1834
1998
2326
2813
3355
3802
4053
4121
4096
4064
4044
3998
3860
3583
3179
2729
2322
1984
1657
1274
847
453
179
66
110
276
499
710
854
927
963
979
948
834
642
425
243
138
110
132
173
212
223
177
59
-97
-222
-271
-263
-245
-238
-230
-212
-210
-258
-346
-423
-447
-406
-316
-203
-101
-54
-84
-169
-263
-350
-461
-628
-830
-1009
-1128
-1202
-1263
-1303
-1290
-1224
-1149
-1114
-1109
-1078
-994
-895
-842
-848
-860
-814
-698
-558
-456
-405
-378
-343
-294
-254
-244
-262
-280
-283
-284
-316
-384
-452
-479
-477
-502
-590
-698
-746
-715
-667
-678
-755
-831
-851
-832
-829
-863
-889
-859
-776
-708
-718
-805
-899
-934
-920
-940
-1059
-1240
-1379
-1408
-1366
-1356
-1418
-1500
-1530
-1507
-1497
-1547
-1633
-1704
-1746
-1785
-1844
-1907
-1928
-1879
-1772
-1656
-1584
-1579
-1617
-1656
-1682
-1715
-1766
-1809
-1818
-1802
-1782
-1748
-1655
-1488
-1307
-1190
-1150
-1127
-1071
-1003
-978
-1013
-1063
-1081
-1060
-1026
-998
-981
-971
-963
-961
-971
-1001
-1036
-1043
-999
-918
-840
-787
-747
-704
-663
-640
-633
-633
-654
-728
-864
-1020
-1146
-1242
-1351
-1484
-1587
-1595
-1522
-1452
-1457
-1517
-1536
-1447
-1292
-1178
-1173
-1241
-1288
-1264
-1209
-1210
-1289
-1375
-1391
-1354
-1350
-1412
-1467
-1426
-1290
-1125
-943
-663
-236
258
666
934
1134
1330
1470
1466
1322
1125
908
600
146
-375
-822
-1154
-1455
-1789
-2089
-2233
-2180
-2009
-1818
-1647
-1492
-1364
-1292
-1281
-1310
-1366
-1455
-1572
-1687
-1758
-1749
-1640
-1446
-1228
-1068
-1013
-1046
-1113
-1184
-1260
-1337
-1380
-1353
-1262
-1153
-1062
-983
-889
-786
-721
-727
-792
-856
-883
-883
-890
-914
-932
-905
-815
-677
-527
-407
-347
-344
-358
-352
-323
-308
-337
-391
-416
-385
-320
-265
-219
-140
-22
84
113
65
13
27
106
184
204
172
132
121
141
174
202
218
218
201
166
131
121
144
176
185
164
134
128
152
180
182
156
116
86
77
84
92
74
6
-96
-186
-223
-231
-279
-390
-489
-498
-454
-475
-586
-664
-577
-409
-412
-682
-981
-964
-593
-225
-243
-597
-872
-763
-406
-182
-273
-517
-667
-702
-767
-934
-1081
-1037
-792
-507
-345
-350
-423
-421
-276
-63
53
-54
-331
-592
-677
-580
-421
-329
-323
-310
-180
86
360
476
398
298
376
608
729
539
178
36
313
763
945
709
338
204
388
649
761
723
676
691
703
662
619
663
800
936
957
828
632
522
606
839
1024
983
737
528
580
845
1052
994
734
519
506
616
638
480
258
203
456
937
1414
1681
1747
1811
2033
2327
2458
2319
2038
1804
1647
1472
1247
1052
946
840
633
392
284
356
477
526
548
651
831
977
1042
1099
1217
1315
1263
1064
835
675
594
581
662
836
983
972
807
643
627
717
746
627
459
412
543
742
859
853
801
814
922
1073
1192
1229
1183
1093
1032
1047
1122
1197
1222
1205
1190
1201
1215
1192
1108
976
859
855
1009
1244
1399
1365
1217
1125
1169
1249
1230
1122
1059
1129
1279
1393
1412
1371
1333
1310
1264
1182
1092
1041
1041
1067
1093
1110
1121
1113
1068
1008
987
1012
990
830
598
480
573
737
731
499
234
145
205
211
47
-185
-305
-250
-139
-106
-163
-224
-219
-181
-183
-227
-267
-271
-276
-304
-310
-226
-92
-86
-317
-645
-781
-620
-401
-434
-724
-956
-861
-535
-311
-372
-577
-679
-624
-552
-575
-645
-649
-580
-543
-590
-635
-561
-352
-137
-66
-165
-330
-431
-423
-364
-337
-366
-422
-473
-509
-539
-562
-584
-624
-684
-727
-714
-646
-579
-554
-547
-511
-472
-503
-621
-750
-812
-828
-881
-999
-1110
-1144
-1129
-1128
-1140
-1107
-1019
-971
-1050
-1214
-1337
-1357
-1334
-1358
-1431
-1482
-1474
-1441
-1427
-1420
-1392
-1371
-1402
-1456
-1441
-1327
-1207
-1204
-1268
-1178
-776
-182
281
394
243
98
140
308
425
392
248
85
-52
-185
-366
-626
-949
-1270
-1524
-1693
-1801
-1853
-1796
-1571
-1219
-876
-675
-623
-633
-651
-715
-873
-1082
-1244
-1319
-1365
-1449
-1528
-1481
-1248
-949
-804
-907
-1154
-1319
-1260
-1036
-815
-719
-734
-770
-757
-707
-686
-730
-816
-884
-888
-823
-735
-672
-650
-642
-613
-547
-440
-307
-178
-83
-49
-90
-192
-310
-386
-394
-356
-337
-380
-439
-428
-311
-166
-106
-133
-139
-49
66
77
-26
-112
-65
67
148
117
50
49
124
198
211
159
73
-18
-87
-102
-73
-55
-100
-196
-281
-305
-277
-239
-229
-269
-339
-388
-376
-311
-274
-346
-519
-691
-771
-760
-741
-770
-824
-844
-808
-754
-726
-719
-690
-598
-441
-263
-113
-2
106
249
411
523
520
386
160
-113
-411
-729
-1053
-1360
-1625
-1820
-1928
-1935
-1865
-1780
-1734
-1732
-1736
-1712
-1669
-1631
-1600
-1559
-1486
-1362
-1181
-960
-771
-710
-796
-908
-867
-601
-243
-7
27
-34
-34
50
102
8
-235
-537
-817
-1045
-1215
-1303
-1291
-1189
-1046
-921
-859
-854
-859
-843
-844
-938
-1129
-1311
-1364
-1306
-1286
-1405
-1591
-1664
-1538
-1323
-1198
-1219
-1284
-1259
-1124
-1008
-1042
-1228
-1432
-1523
-1513
-1536
-1650
-1746
-1658
-1377
-1065
-833
-565
-57
690
1380
1666
1476
1040
615
233
-246
-896
-1606
-2170
-2486
-2619
-2690
-2742
-2727
-2604
-2444
-2381
-2461
-2569
-2551
-2368
-2133
-1983
-1943
-1940
-1891
-1784
-1671
-1622
-1684
-1835
-1974
-1982
-1833
-1626
-1472
-1364
-1216
-1022
-916
-1016
-1241
-1372
-1299
-1148
-1129
-1292
-1495
-1614
-1678
-1784
-1925
-1979
-1887
-1729
-1628
-1597
-1551
-1446
-1337
-1311
-1370
-1455
-1503
-1501
-1456
-1369
-1247
-1114
-990
-873
-746
-633
-586
-627
-708
-751
-725
-667
-639
-651
-648
-564
-393
-202
-63
5
40
82
132
170
184
175
141
82
21
-7
4
6
-50
-147
-197
-153
-63
-21
-67
-156
-207
-189
-143
-135
-198
-301
-377
-375
-318
-289
-346
-460
-543
-551
-531
-557
-636
-710
-734
-731
-743
-765
-756
-718
-703
-745
-813
-853
-865
-885
-931
-971
-981
-983
-1013
-1060
-1074
-1041
-995
-970
-942
-887
-830
-826
-873
-894
-834
-744
-723
-781
-804
-698
-519
-426
-492
-615
-635
-516
-382
-378
-494
-586
-539
-376
-227
-184
-216
-221
-143
-32
12
-54
-176
-261
-261
-202
-142
-109
-82
-28
51
105
85
-7
-115
-184
-211
-244
-321
-420
-481
-463
-388
-306
-246
-203
-168
-155
-180
-229
-266
-274
-268
-268
-274
-257
-197
-128
-127
-234
-395
-508
-523
-481
-422
-285
55
644
1348
1948
2334
2561
2745
2930
3057
3049
2863
2510
2044
1555
1121
742
347
-113
-586
-952
-1142
-1184
-1138
-1014
-803
-530
-283
-135
-85
-87
-125
-226
-407
-632
-829
-939
-954
-902
-816
-714
-614
-554
-563
-616
-637
-562
-414
-276
-206
-173
-116
-12
92
154
201
291
441
597
705
767
832
927
1025
1084
1097
1085
1069
1051
1032
1021
1021
1024
1024
1037
1093
1200
1329
1437
1507
1552
1594
1638
1671
1676
1650
1602
1553
1518
1491
1463
1437
1424
1435
1457
1465
1455
1445
1446
1451
1449
1443
1450
1469
1468
1418
1329
1241
1191
1184
1198
1213
1218
1215
1206
1195
1182
1162
1133
1099
1057
995
906
803
728
715
750
