101
92
81
69
55
37
14
-7
-18
-15
-4
4
3
-6
-10
1
23
38
32
4
-26
-40
-33
-20
-20
-43
-77
-101
-101
-86
-80
-96
-122
-132
-123
-110
-110
-116
-112
-94
-77
-73
-82
-94
-103
-110
-113
-109
-98
-94
-101
-110
-107
-97
-102
-137
-195
-255
-303
-344
-385
-421
-440
-433
-404
-367
-334
-311
-289
-253
-198
-143
-114
-115
-122
-99
-47
-1
5
-20
-36
-20
6
1
-39
-81
-95
-90
-97
-127
-160
-174
-171
-162
-152
-136
-118
-105
-99
-87
-63
-35
-19
-30
-68
-117
-145
-139
-123
-140
-209
-299
-386
-504
-716
-1012
-1255
-1291
-1103
-833
-639
-550
-478
-348
-178
-31
67
143
218
287
345
412
508
614
665
599
411
159
-73
-231
-320
-383
-450
-506
-511
-446
-337
-224
-147
-136
-202
-331
-470
-557
-566
-524
-471
-429
-405
-408
-451
-524
-586
-604
-585
-561
-545
-526
-497
-482
-507
-562
-611
-632
-639
-657
-690
-726
-762
-804
-843
-857
-839
-821
-832
-859
-858
-819
-791
-829
-918
-991
-1007
-1001
-1031
-1102
-1164
-1180
-1170
-1187
-1247
-1314
-1349
-1357
-1374
-1415
-1463
-1490
-1494
-1493
-1500
-1504
-1492
-1468
-1448
-1445
-1449
-1442
-1418
-1389
-1370
-1357
-1339
-1310
-1275
-1242
-1207
-1160
-1099
-1039
-995
-965
-932
-880
-812
-753
-724
-720
-711
-675
-620
-577
-559
-546
-505
-434
-362
-315
-287
-251
-195
-139
-107
-98
-95
-88
-82
-81
-83
-77
-64
-56
-59
-71
-83
-91
-93
-84
-57
-19
9
7
-23
-54
-59
-42
-33
-63
-125
-181
-194
-164
-123
-102
-101
-109
-120
-134
-151
-165
-176
-195
-228
-271
-302
-308
-298
-291
-295
-304
-303
-294
-286
-284
-286
-285
-280
-273
-270
-277
-296
-325
-350
-355
-337
-314
-309
-325
-340
-335
-315
-307
-326
-371
-426
-479
-528
-568
-593
-599
-593
-577
-549
-508
-465
-433
-414
-395
-361
-321
-295
-289
-285
-256
-199
-139
-102
-92
-94
-91
-82
-78
-80
-88
-100
-118
-136
-137
-120
-102
-103
-121
-134
-128
-119
-127
-150
-167
-164
-157
-180
-246
-324
-359
-331
-289
-298
-376
-466
-522
-587
-756
-1043
-1306
-1358
-1156
-842
-586
-423
-267
-61
139
254
289
310
341
332
253
169
178
287
383
345
159
-75
-252
-350
-411
-487
-575
-636
-630
-552
-442
-343
-285
-274
-312
-398
-516
-623
-665
-617
-507
-395
-331
-323
-350
-387
-426
-466
-498
-505
-481
-445
-426
-444
-488
-528
-546
-549
-562
-599
-647
-682
-693
-698
-725
-776
-824
-844
-841
-839
-848
-859
-857
-850
-858
-884
-908
-911
-913
-942
-1008
-1082
-1129
-1149
-1179
-1243
-1328
-1390
-1409
-1405
-1414
-1446
-1482
-1495
-1486
-1473
-1470
-1474
-1470
-1457
-1441
-1422
-1391
-1340
-1282
-1238
-1216
-1194
-1143
-1062
-984
-944
-942
-944
-915
-852
-786
-744
-720
-687
-631
-563
-502
-447
-388
-321
-265
-241
-237
-220
-167
-98
-57
-68
-105
-121
-94
-46
-18
-16
-21
-9
15
25
13
-3
-3
4
-6
-41
-82
-99
-87
-66
-61
-72
-81
-70
-47
-31
-36
-55
-71
-74
-74
-92
-133
-178
-200
-186
-160
-155
-180
-211
-211
-176
-137
-132
-161
-193
-206
-211
-235
-282
-326
-346
-355
-378
-419
-453
-465
-465
-474
-496
-518
-529
-535
-541
-538
-519
-489
-465
-452
-439
-415
-385
-367
-371
-398
-448
-508
-567
-611
-634
-648
-664
-680
-681
-654
-605
-553
-515
-497
-489
-479
-453
-411
-361
-311
-264
-218
-172
-127
-88
-64
-64
-87
-120
-145
-157
-171
-196
-224
-236
-222
-197
-186
-196
-217
-234
-248
-262
-274
-284
-300
-341
-405
-454
-441
-365
-289
-279
-337
-398
-417
-456
-619
-920
-1227
-1364
-1274
-1055
-845
-691
-554
-400
-252
-134
-27
107
256
356
375
365
414
547
674
669
480
177
-110
-302
-414
-513
-627
-721
-739
-670
-562
-468
-407
-380
-397
-477
-608
-737
-801
-783
-710
-632
-584
-580
-622
-693
-766
-809
-812
-795
-778
-768
-757
-744
-743
-766
-807
-845
-860
-853
-838
-831
-844
-879
-920
-950
-960
-964
-979
-1005
-1025
-1024
-1011
-1007
-1023
-1051
-1077
-1102
-1135
-1176
-1220
-1258
-1298
-1346
-1401
-1452
-1495
-1539
-1592
-1648
-1696
-1736
-1775
-1817
-1851
-1857
-1832
-1797
-1773
-1753
-1714
-1649
-1584
-1555
-1560
-1565
-1540
-1492
-1453
-1436
-1420
-1379
-1307
-1219
-1128
-1036
-954
-890
-844
-793
-724
-655
-617
-612
-608
-575
-520
-470
-433
-393
-341
-291
-265
-260
-246
-208
-164
-147
-168
-205
-222
-205
-168
-141
-142
-164
-186
-194
-192
-191
-198
-210
-226
-241
-248
-233
-196
-164
-164
-198
-237
-254
-249
-241
-245
-257
-262
-252
-226
-184
-137
-104
-94
-98
-97
-85
-72
-68
-72
-73
-70
-70
-79
-90
-92
-87
-89
-103
-118
-113
-88
-62
-53
-59
-60
-49
-43
-63
-106
-139
-135
-99
-60
-48
-61
-76
-71
-48
-33
-52
-111
-188
-248
-274
-276
-273
-279
-288
-285
-262
-217
-163
-119
-95
-87
-71
-33
15
51
68
85
114
140
136
103
78
87
120
133
109
76
72
101
135
152
159
168
172
159
135
128
155
188
184
132
67
44
92
180
242
237
194
178
196
165
-11
-313
-600
-732
-715
-667
-664
-665
-594
-466
-366
-324
-248
-44
262
543
717
832
979
1169
1305
1291
1115
838
536
265
59
-60
-104
-110
-99
-57
38
174
295
338
286
168
36
-75
-142
-154
-105
-21
49
64
24
-39
-94
-135
-159
-160
-134
-95
-75
-88
-116
-130
-130
-142
-176
-209
-211
-186
-173
-203
-263
-311
-331
-347
-385
-438
-475
-487
-497
-527
-565
-587
-587
-589
-620
-675
-729
-768
-799
-833
-870
-909
-953
-1000
-1035
-1050
-1058
-1087
-1142
-1193
-1210
-1204
-1207
-1230
-1241
-1210
-1155
-1131
-1157
-1193
-1180
-1116
-1053
-1036
-1049
-1034
-966
-871
-788
-726
-668
-602
-538
-488
-447
-398
-339
-284
-234
-178
-114
-58
-18
26
95
179
232
234
215
230
288
347
363
342
325
331
351
366
376
389
397
395
393
409
440
457
445
418
401
396
384
356
324
307
312
328
338
335
322
311
315
331
334
306
255
222
220
227
210
169
144
158
191
202
184
166
168
179
172
151
140
151
170
172
157
146
162
196
219
204
156
104
78
80
86
71
37
3
-7
8
30
44
42
24
-8
-54
-103
-133
-129
-103
-86
-95
-115
-108
-59
14
79
128
180
241
298
337
369
412
464
496
486
451
428
430
432
408
367
340
341
349
339
313
299
317
355
378
372
350
336
344
369
392
392
358
296
248
260
329
399
415
387
369
366
307
140
-81
-238
-286
-298
-359
-447
-473
-415
-356
-365
-385
-292
-53
230
444
583
723
898
1053
1115
1066
935
752
531
306
131
42
26
33
34
44
92
174
249
266
212
119
29
-32
-66
-74
-55
-22
-6
-40
-115
-190
-231
-234
-220
-208
-200
-199
-213
-248
-296
-344
-393
-452
-514
-551
-543
-502
-470
-469
-483
-481
-458
-444
-469
-529
-593
-640
-676
-719
-766
-804
-827
-846
-876
-915
-942
-956
-978
-1027
-1088
-1128
-1133
-1131
-1159
-1224
-1294
-1337
-1358
-1387
-1436
-1489
-1520
-1523
-1510
-1492
-1467
-1434
-1404
-1385
-1370
-1343
-1301
-1261
-1232
-1198
-1138
-1055
-972
-906
-845
-769
-680
-604
-557
-523
-477
-414
-346
-288
-237
-188
-137
-85
-34
18
63
92
110
129
160
192
208
207
206
213
220
211
188
169
164
165
159
145
135
134
135
129
125
130
140
135
108
73
56
62
73
69
55
50
64
89
113
129
141
155
168
172
169
163
158
155
151
143
131
117
104
94
87
73
47
10
-25
-46
-54
-64
-83
-106
-115
-107
-99
-107
-130
-147
-143
-128
-121
-126
-128
-113
-84
-63
-71
-104
-144
-172
-184
-190
-204
-227
-241
-228
-189
-145
-118
-110
-105
-94
-83
-78
-73
-52
-15
17
23
10
4
21
52
69
62
41
23
13
9
17
40
74
100
105
94
87
92
97
85
50
9
-25
-55
-91
-123
-115
-55
21
64
69
71
74
15
-172
-453
-705
-826
-828
-796
-771
-732
-659
-589
-557
-527
-419
-216
11
185
314
469
682
891
999
962
805
579
330
97
-89
-215
-293
-341
-354
-314
-219
-96
4
39
-2
-96
-195
-263
-283
-263
-213
-155
-114
-115
-163
-241
-319
-378
-413
-428
-424
-407
-391
-397
-429
-476
-515
-531
-527
-522
-528
-540
-548
-543
-536
-542
-564
-592
-615
-638
-673
-723
-774
-809
-824
-832
-844
-860
-874
-891
-921
-965
-1017
-1067
-1123
-1189
-1261
-1321
-1360
-1383
-1405
-1435
-1465
-1492
-1517
-1544
-1565
-1571
-1564
-1561
-1569
-1575
-1556
-1502
-1437
-1389
-1364
-1342
-1302
-1248
-1194
-1144
-1086
-1006
-916
-836
-771
-705
-622
-530
-452
-404
-371
-332
-279
-229
-200
-185
-166
-131
-91
-60
-36
-5
39
81
99
93
81
78
75
58
31
18
29
45
40
13
-6
-1
16
14
-16
-53
-75
-77
-71
-63
-57
-56
-67
-87
-104
-110
-111
-120
-142
-166
-181
-184
-182
-180
-179
-185
-205
-237
-262
-265
-255
-253
-273
-300
-312
-304
-291
-293
-311
-331
-345
-355
-364
-374
-386
-402
-422
-438
-439
-427
-421
-434
-459
-476
-476
-470
-477
-511
-562
-614
-651
-671
-678
-678
-668
-640
-598
-550
-506
-468
-426
-380
-337
-307
-288
-267
-237
-201
-175
-165
-167
-169
-164
-152
-145
-145
-147
-144
-136
-137
-157
-186
-208
-214
-216
-232
-267
-301
-311
-296
-275
-264
-269
-289
-327
-378
-412
-398
-358
-352
-414
-501
-550
-585
-720
-1012
-1344
-1492
-1344
-1009
-696
-507
-380
-223
-39
104
178
219
253
255
203
147
170
289
411
416
270
39
-184
-354
-479
-586
-680
-747
-767
-728
-631
-499
-376
-314
-348
-467
-622
-754
-829
-844
-813
-756
-696
-663
-679
-739
-811
-854
-851
-818
-783
-766
-765
-769
-770
-771
-773
-777
-772
-755
-733
-726
-749
-798
-853
-897
-928
-954
-979
-998
-1008
-1010
-1011
-1012
-1017
-1034
-1072
-1127
-1179
-1210
-1226
-1246
-1282
-1325
-1357
-1372
-1383
-1408
-1448
-1492
-1531
-1567
-1608
-1654
-1693
-1714
-1720
-1725
-1736
-1746
-1737
-1705
-1661
-1624
-1602
-1585
-1556
-1513
-1465
-1420
-1379
-1331
-1269
-1198
-1124
-1053
-985
-924
-874
-834
-799
-766
-736
-716
-701
-679
-642
-597
-560
-537
-519
-489
-445
-400
-371
-363
-366
-366
-357
-343
-333
-330
-336
-346
-356
-362
-368
-375
-379
-375
-366
-361
-369
-383
-386
-371
-352
-347
-359
-372
-372
-361
-351
-351
-361
-375
-389
-400
-403
-400
-400
-406
-410
-407
-403
-413
-439
-469
-492
-511
-542
-590
-641
-680
-705
-726
-745
-757
-757
-747
-729
-710
-692
-684
-687
-690
-677
-650
-630
-637
-663
-679
-669
-646
-635
-648
-675
-697
-710
-719
-731
-749
-773
-800
-822
-831
-829
-821
-810
-792
-765
-734
-706
-677
-635
-576
-515
-477
-464
-460
-442
-405
-370
-361
-385
-422
-445
-446
-441
-452
-484
-523
-549
-558
-557
-558
-570
-592
-612
-621
-620
-622
-635
-663
-691
-694
-656
-591
-544
-547
-592
-634
-671
-772
-1016
-1372
-1677
-1760
-1604
-1347
-1139
-1006
-879
-713
-532
-375
-229
-65
100
210
257
305
425
592
691
625
403
117
-138
-327
-465
-574
-660
-714
-717
-660
-553
-430
-341
-326
-398
-531
-676
-786
-833
-819
-763
-692
-635
-615
-645
-715
-789
-829
-823
-796
-782
-794
-817
-832
-842
-861
-895
-930
-948
-948
-941
-941
-949
-964
-985
-1010
-1036
-1053
-1056
-1050
-1046
-1055
-1081
-1121
-1164
-1199
-1222
-1242
-1272
-1319
-1377
-1425
-1449
-1455
-1472
-1518
-1585
-1647
-1685
-1705
-1727
-1762
-1804
-1838
-1857
-1861
-1860
-1860
-1864
-1864
-1851
-1822
-1782
-1745
-1712
-1674
-1622
-1560
-1499
-1450
-1406
-1354
-1288
-1215
-1147
-1087
-1030
-966
-890
-809
-731
-663
-605
-551
-495
-440
-394
-364
-349
-346
-342
-330
-307
-277
-251
-229
-204
-168
-121
-76
-46
-33
-37
-49
-63
-73
-74
-71
-73
-77
-66
-34
6
31
30
17
9
10
10
2
-7
-12
-13
-10
3
28
51
54
40
28
30
36
21
-15
-50
-62
-50
-34
-28
-32
-41
-57
-82
-113
-140
-160
-173
-189
-215
-251
-281
-287
-266
-243
-253
-295
-336
-336
-295
-249
-234
-250
-269
-266
-240
-211
-198
-216
-262
-312
-341
-340
-326
-320
-329
-335
-328
-310
-289
-265
-232
-194
-162
-133
-87
-8
91
175
227
257
286
317
333
319
284
244
212
188
169
158
159
167
176
183
193
204
205
186
153
124
113
110
94
47
-25
-80
-75
-7
64
76
28
-20
-31
-71
-241
-549
-854
-988
-916
-754
-622
-530
-420
-272
-136
-39
64
235
459
648
744
785
858
988
1096
1065
850
509
157
-115
-287
-391
-464
-513
-514
-449
-332
-199
-96
-60
-111
-234
-381
-496
-540
-511
-431
-336
-262
-233
-251
-299
-344
-359
-345
-316
-286
-257
-230
-215
-224
-263
-318
-373
-415
-439
-444
-439
-439
-458
-490
-517
-528
-536
-562
-605
-641
-651
-649
-664
-709
-761
-789
-790
-797
-836
-898
-951
-981
-1006
-1054
-1127
-1203
-1261
-1306
-1351
-1399
-1439
-1462
-1475
-1486
-1491
-1475
-1444
-1414
-1400
-1399
-1391
-1367
-1336
-1316
-1303
-1283
-1245
-1199
-1158
-1120
-1069
-999
-927
-874
-836
-786
-706
-610
-529
-468
-406
-324
-236
-171
-130
-86
-21
47
89
108
133
182
234
263
272
289
326
361
368
357
361
388
414
413
390
373
381
404
419
422
429
452
483
506
511
502
490
483
477
466
449
430
413
398
387
380
376
373
370
368
368
367
360
348
340
341
350
357
355
342
323
307
298
299
304
299
275
244
229
237
251
251
237
232
250
278
293
290
284
284
284
273
247
217
187
156
123
98
89
90
89
83
84
104
138
172
200
224
249
276
301
327
365
414
460
488
502
520
551
577
577
552
527
520
525
515
486
461
465
492
512
511
499
491
491
486
475
468
471
470
442
377
300
266
307
389
439
428
405
426
452
380
167
-91
-244
-252
-205
-188
-184
-135
-59
-26
-43
-7
172
446
681
811
905
1060
1275
1447
1478
1353
1116
824
528
278
108
14
-34
-56
-37
38
159
285
365
362
267
112
-38
-122
-118
-58
7
50
73
88
84
44
-17
-56
-40
7
30
1
-49
-74
-66
-61
-91
-141
-181
-194
-196
-211
-247
-294
-333
-358
-370
-382
-402
-428
-445
-449
-449
-459
-479
-495
-501
-509
-539
-594
-660
-723
-780
-836
-889
-940
-989
-1033
-1065
-1079
-1088
-1105
-1129
-1147
-1151
-1151
-1157
-1168
-1169
-1152
-1132
-1121
-1109
-1075
-1018
-958
-914
-884
-841
-776
-704
-645
-603
-563
-511
-448
-379
-308
-238
-180
-138
-102
-57
6
70
115
136
155
192
249
309
357
394
431
469
499
510
509
513
529
539
526
493
466
469
489
490
457
414
396
405
409
382
340
322
341
371
374
349
331
346
383
413
416
399
384
377
368
343
306
270
247
237
231
218
196
173
160
154
140
108
62
24
4
-7
-25
-54
-79
-91
-95
-104
-119
-126
-118
-109
-113
-123
-117
-79
-22
26
48
46
34
21
-1
-38
-90
-150
-205
-240
-249
-233
-205
-171
-132
-82
-25
23
50
65
90
133
174
187
171
152
153
168
170
143
97
53
22
8
14
40
72
88
80
69
79
105
114
82
19
-35
-59
-64
-80
-119
-164
-175
-125
-39
25
36
21
25
30
-49
-261
-532
-718
-763
-757
-814
-925
-972
-889
-756
-695
-703
-655
-455
-158
97
243
336
457
600
682
639
479
262
47
-137
-276
-361
-389
-371
-321
-250
-170
-96
-43
-29
-63
-141
-241
-328
-378
-378
-345
-307
-291
-303
-335
-372
-398
-404
-386
-355
-329
-318
-321
-330
-342
-361
-389
-418
-440
-457
-484
-527
-575
-610
-631
-656
-699
-752
-789
-798
-792
-799
-828
-859
-870
-865
-870
-901
-951
-993
-1016
-1036
-1079
-1154
-1242
-1318
-1374
-1421
-1470
-1514
-1540
-1549
-1552
-1560
-1560
-1544
-1523
-1524
-1556
-1597
-1616
-1609
-1600
-1602
-1602
-1580
-1543
-1508
-1472
-1410
-1313
-1213
-1149
-1120
-1086
-1014
-917
-832
-778
-745
-710
-661
-604
-544
-486
-437
-397
-361
-315
-265
-222
-197
-185
-173
-162
-163
-175
-177
-155
-117
-96
-107
-135
-143
-119
-86
-76
-93
-113
-114
-100
-94
-104
-120
-127
-127
-132
-146
-162
-176
-192
-212
-229
-235
-235
-248
-281
-319
-339
-333
-318
-312
-315
-313
-292
-255
-222
-211
-232
-278
-330
-369
-387
-395
-411
-437
-458
-457
-439
-427
-438
-469
-503
-532
-562
-595
-619
-619
-598
-575
-559
-541
-509
-473
-458
-476
-522
-580
-639
-688
-716
-719
-712
-710
-711
-697
-660
-618
-588
-570
-550
-526
-510
-501
-479
-428
-363
-319
-310
-311
-294
-258
-232
-236
-263
-292
-312
-326
-335
-336
-329
-327
-337
-347
-341
-315
-291
-288
-303
-311
-294
-266
-261
-294
-328
-315
-253
-199
-206
-267
-331
-396
-534
-798
-1128
-1370
-1409
-1277
-1099
-966
-874
-780
-674
-574
-483
-388
-285
-191
-113
-25
104
266
408
474
432
283
55
-195
-405
-540
-618
-675
-723
-730
-669
-557
-448
-393
-407
-482
-601
-740
-860
-922
-909
-846
-786
-767
-793
-838
-884
-926
-965
-988
-981
-944
-903
-886
-902
-935
-962
-977
-983
-988
-993
-998
-1004
-1015
-1032
-1052
-1075
-1102
-1131
-1158
-1176
-1183
-1182
-1181
-1185
-1197
-1219
-1251
-1285
-1318
-1347
-1383
-1434
-1498
-1560
-1607
-1642
-1679
-1724
-1766
-1794
-1805
-1812
-1826
-1849
-1875
-1895
-1907
-1911
-1909
-1901
-1884
-1856
-1815
-1767
-1720
-1675
-1631
-1585
-1540
-1499
-1460
-1417
-1370
-1331
-1305
-1284
-1241
-1167
-1081
-1013
-967
-919
-847
-762
-694
-655
-629
-591
-538
-487
-450
-419
-384
-344
-309
-285
-266
-246
-224
-205
-194
-196
-209
-224
-227
-215
-205
-220
-256
-288
-293
-279
-275
-291
-309
-304
-273
-236
-211
-199
-190
-182
-180
-187
-199
-212
-227
-246
-268
-284
-291
-288
-283
-281
-283
-286
-287
-293
-312
-351
-399
-435
-445
-433
-418
-410
-406
-394
-377
-369
-382
-409
-431
-434
-420
-402
-392
-393
-396
-392
-376
-359
-360
-389
-435
-473
-492
-501
-516
-537
-542
-517
-470
-424
-389
-355
-311
-260
-219
-193
-168
-128
-71
-11
36
68
91
119
151
180
194
191
177
165
156
143
118
90
72
73
87
103
112
110
102
98
103
115
122
114
89
58
36
43
76
109
107
64
14
-26
-103
-293
-591
-862
-935
-757
-451
-184
-24
87
222
381
518
611
670
703
702
680
689
775
914
1014
991
834
607
394
240
141
63
-16
-83
-103
-48
64
190
276
291
231
116
-19
-130
-179
-150
-56
59
142
163
137
97
70
52
31
8
-4
1
4
-14
-53
-94
-117
-115
-92
-53
-9
21
24
11
5
13
20
3
-35
-67
-72
-59
-56
-76
-108
-131
-140
-149
-172
-210
-252
-295
-340
-394
-455
-514
-564
-611
-660
-710
-755
-787
-807
-824
-838
-845
-840
-821
-792
-756
-718
-677
-631
-581
-526
-474
-427
-387
-347
-303
-257
-215
-184
-161
-141
-113
-72
-16
44
100
149
199
258
330
404
470
519
552
572
588
610
639
661
666
657
653
672
708
739
754
762
775
791
801
805
816
834
841
823
794
783
798
815
815
807
821
859
890
887
864
856
873
893
888
863
840
832
826
815
800
789
784
777
765
757
761
773
781
769
737
698
671
663
662
646
607
557
526
524
538
542
521
488
469
481
516
546
555
550
554
573
593
594
568
525
476
422
368
328
315
325
343
355
364
384
420
468
520
568
606
634
663
707
764
816
846
857
869
894
923
937
932
921
917
919
919
912
902
893
880
863
852
858
870
866
843
821
819
827
815
774
714
657
626
638
691
751
774
746
701
659
563
337
-4
-306
-402
-277
-63
105
214
337
504
673
807
931
1082
1241
1347
1380
1403
1487
1618
1694
1618
1386
1087
830
664
559
464
366
306
331
437
567
666
717
719
671
568
430
305
241
250
308
376
417
409
351
272
213
199
222
252
268
276
286
295
283
243
185
138
118
124
137
141
126
96
66
47
41
40
31
6
-32
-72
-101
-120
-140
-176
-225
-272
-300
-313
-333
-375
-432
-486
-530
-577
-638
-705
-755
-781
-800
-832
-871
-894
-889
-878
-888
-916
-929
-906
-868
-851
-863
-869
-836
-772
-716
-685
-661
-608
-520
-424
-349
-295
-245
-187
-126
-75
-40
-17
6
40
93
160
226
282
333
391
457
514
543
542
528
521
523
527
533
550
586
634
682
719
750
779
797
797
774
740
706
680
661
652
656
670
686
699
709
724
740
748
740
722
709
711
722
730
730
730
741
756
754
731
700
684
687
689
668
622
573
541
525
507
474
428
389
372
375
384
387
388
396
407
405
382
351
337
342
347
334
312
307
329
354
355
335
319
322
326
306
267
241
254
296
334
350
356
379
427
482
521
542
558
585
629
676
715
745
773
802
826
836
831
822
817
811
789
748
699
661
639
622
595
566
553
563
578
574
555
550
571
596
592
553
503
466
461
489
538
579
586
562
533
490
361
91
-267
-547
-624
-517
-351
-211
-86
60
210
330
446
623
866
1082
1185
1201
1245
1379
1538
1593
1473
1212
902
623
413
277
195
144
118
133
208
329
459
548
562
492
359
212
109
85
138
225
292
308
275
216
148
80
21
-10
3
48
90
100
80
55
42
38
33
25
25
34
38
25
-1
-23
-34
-42
-60
-88
-112
-127
-137
-158
-199
-259
-326
-387
-434
-469
-501
-541
-589
-635
-664
-677
-693
-738
-812
-893
-952
-984
-1012
-1056
-1110
-1149
-1157
-1143
-1129
-1125
-1125
-1122
-1112
-1094
-1064
-1023
-983
-950
-912
-852
-771
-691
-634
-594
-546
-481
-418
-376
-346
-301
-230
-150
-86
-42
2
63
135
201
250
290
326
363
403
448
497
542
576
601
626
654
679
692
694
695
703
715
717
707
692
686
688
686
672
648
629
624
630
634
628
616
605
599
592
581
570
565
568
574
577
573
566
560
557
553
545
528
506
491
492
505
517
519
514
512
514
512
494
469
452
447
438
411
375
355
361
373
363
330
299
294
309
319
308
286
271
270
271
260
230
186
135
85
44
10
-19
-45
-57
-48
-25
-3
15
47
106
180
234
254
265
303
373
444
485
494
497
507
516
510
488
466
452
438
414
388
376
393
425
446
440
421
413
421
431
425
407
397
401
404
380
332
302
333
418
497
518
495
485
494
434
218
-118
-417
-539
-498
-414
-366
-325
-232
-99
21
126
291
556
859
1089
1212
1299
1429
1587
1667
1583
1336
1003
681
435
288
218
191
191
226
308
419
519
571
562
492
364
198
45
-28
6
109
206
248
236
201
158
106
58
37
60
110
154
173
171
159
140
117
97
92
100
105
93
63
30
3
-18
-39
-70
-108
-145
-170
-179
-181
-191
-214
-245
-279
-315
-353
-393
-434
-475
-523
-575
-624
-670
-715
-759
-793
-812
-823
-840
-866
-888
-892
-888
-892
-909
-925
-926
-917
-910
-901
-881
-851
-826
-807
-781
-736
-679
-640
-624
-609
-564
-491
-420
-369
-330
-280
-211
-143
-94
-63
-29
18
74
126
169
213
269
336
394
427
444
470
523
586
628
639
642
670
725
771
780
756
725
706
698
694
689
679
657
682
635
682
719
718
688
665
668
683
678
643
596
562
547
544
538
525
510
494
480
470
463
459
452
440
432
435
440
432
398
348
304
274
252
225
197
183
192
216
240
262
289
318
341
346
336
323
314
308
302
305
322
354
389
408
405
385
359
333
299
254
206
171
156
152
146
140
150
189
244
293
321
337
360
396
436
466
479
480
471
453
433
423
428
437
435
412
379
362
380
423
463
475
460
438
428
435
449
457
455
442
417
375
317
259
239
283
359
407
397
368
375
395
328
116
-170
-386
-467
-480
-512
-556
-539
-455
-388
-390
-389
-262
9
308
516
641
779
981
1186
1286
1231
1047
799
544
314
127
-7
-82
-101
-70
-11
54
123
194
241
220
117
-22
-117
-121
-58
12
48
44
20
-12
-45
-76
-101
-116
-116
-100
-76
-66
-81
-114
-145
-176
-212
-254
-280
-278
-267
-277
-315
-348
-345
-316
-304
-334
-387
-429
-448
-464
-495
-540
-587
-628
-667
-704
-737
-765
-797
-838
-884
-929
-970
-1009
-1050
-1091
-1131
-1171
-1208
-1233
-1240
-1246
-1267
-1301
-1326
-1334
-1337
-1352
-1365
-1347
-1294
-1238
-1210
-1199
-1162
-1083
-997
-954
-958
-962
-925
-858
-802
-779
-767
-720
-624
-504
-405
-347
-315
-274
-204
-117
-48
-17
-10
11
76
176
264
302
300
298
322
356
362
329
287
268
268
259
231
208
213
240
259
259
257
270
289
299
298
301
309
303
269
222
192
187
187
168
139
129
147
171
173
153
135
132
124
89
31
-19
-27
-2
16
2
-32
-57
-59
-53
-67
-108
-160
-202
-225
-228
-215
-195
-181
-184
-197
-206
-199
-189
-199
-236
-274
-282
-252
-208
-176
-163
-157
-153
-158
-179
-208
-237
-265
-303
-343
-364
-351
-311
-264
-225
-186
-142
-102
-78
-69
-57
-31
1
17
9
-3
5
38
75
89
72
47
36
46
59
62
57
55
57
55
42
25
15
12
-1
-33
-78
-121
-158
-200
-246
-264
-226
-150
-87
-70
-73
-75
-108
-241
-474
-710
-848
-897
-945
-1032
-1096
-1062
-967
-910
-916
-875
-681
-366
-70
122
263
446
670
828
833
697
492
270
43
-175
-337
-410
-410
-383
-349
-292
-201
-104
-58
-92
-187
-294
-375
-421
-434
-413
-366
-321
-312
-354
-427
-496
-537
-552
-560
-570
-575
-567
-556
-566
-609
-667
-705
-710
-705
-717
-741
-750
-733
-711
-717
-757
-800
-818
-821
-838
-879
-924
-947
-947
-944
-956
-981
-1005
-1028
-1057
-1101
-1153
-1202
-1246
-1293
-1342
-1385
-1412
-1426
-1441
-1461
-1481
-1495
-1508
-1529
-1560
-1590
-1607
-1613
-1620
-1631
-1636
-1622
-1591
-1553
-1517
-1480
-1434
-1383
-1336
-1298
-1259
-1207
-1143
-1083
-1036
-1000
-960
-908
-846
-779
-711
-642
-580
-529
-482
-425
-349
-264
-190
-143
-117
-92
-56
-20
-5
-21
-54
-79
-85
-81
-78
-74
-63
-48
-44
-54
-66
-69
-70
-85
-116
-146
-158
-156
-157
-167
-176
-172
-156
-141
-137
-145
-155
-159
-152
-139
-131
-134
-146
-153
-147
-134
-127
-130
-138
-146
-160
-183
-207
-226
-247
-284
-343
-400
-425
-417
-408
-429
-473
-504
-502
-488
-502
-556
-612
-629
-599
-558
-543
-555
-565
-548
-512
-489
-503
-546
-595
-623
-625
-618
-621
-636
-642
-621
-579
-540
-527
-528
-517
-479
-435
-412
-414
-414
-390
-346
-309
-294
-293
-290
-279
-262
-244
-225
-206
-199
-207
-223
-233
-232
-232
-247
-270
-285
-285
-281
-289
-309
-332
-353
-377
-419
-479
-545
-587
-585
-548
-515
-524
-570
-620
-680
-815
-1069
-1375
-1568
-1527
-1293
-1023
-831
-702
-555
-367
-185
-54
35
108
163
181
184
230
347
474
505
388
166
-67
-253
-392
-508
-608
-672
-682
-634
-544
-436
-332
-266
-267
-343
-470
-599
-682
-694
-638
-548
-465
-422
-428
-467
-516
-556
-576
-571
-546
-521
-514
-530
-560
-593
-623
-652
-674
-683
-683
-688
-711
-745
-774
-793
-809
-832
-859
-878
-886
-888
-891
-897
-904
-912
-924
-941
-959
-977
-1002
-1034
-1073
-1114
-1156
-1206
-1260
-1311
-1351
-1388
-1427
-1465
-1489
-1491
-1483
-1486
-1509
-1539
-1555
-1550
-1539
-1543
-1561
-1573
-1559
-1520
-1473
-1432
-1389
-1328
-1251
-1181
-1130
-1083
-1014
-924
-845
-808
-797
-772
-711
-635
-578
-548
-525
-491
-449
-414
-385
-355
-325
-305
-300
-297
-280
-249
-219
-203
-202
-206
-208
-205
-196
-187
-187
-200
-215
-220
-208
-194
-193
-204
-216
-219
-219
-227
-239
-247
-248
-250
-258
-270
-275
-272
-270
-278
-294
-312
-330
-351
-371
-387
-394
-389
-377
-364
-354
-346
-337
-331
-334
-348
-372
-399
-425
-453
-485
-513
-522
-512
-497
-499
-525
-556
-567
-548
-512
-487
-490
-511
-523
-510
-481
-461
-473
-516
-572
-624
-663
-681
-685
-688
-706
-737
-756
-744
-705
-664
-635
-608
-564
-507
-456
-416
-372
-310
-250
-225
-241
-267
-266
-235
-210
-217
-247
-267
-259
-241
-233
-237
-237
-226
-211
-199
-191
-183
-179
-188
-212
-244
-272
-292
-316
-349
-379
-381
-345
-303
-299
-348
-417
-484
-599
-839
-1201
-1544
-1690
-1588
-1351
-1131
-977
-834
-657
-470
-313
-176
-26
120
208
225
247
357
537
663
625
429
178
-34
-189
-316
-430
-513
-540
-514
-454
-377
-286
-200
-159
-204
-337
-510
-659
-739
-745
-696
-628
-582
-589
-640
-700
-736
-754
-772
-787
-774
-727
-680
-680
-736
-804
-837
-830
-816
-823
-843
-847
-825
-795
-778
-779
-782
-778
-776
-784
-803
-823
-845
-879
-932
-993
-1043
-1077
-1111
-1156
-1205
-1240
-1254
-1266
-1297
-1347
-1399
-1440
-1477
-1525
-1590
-1658
-1709
-1735
-1745
-1752
-1764
-1771
-1761
-1734
-1696
-1660
-1626
-1591
-1558
-1535
-1524
-1508
-1468
-1400
-1326
-1270
-1232
-1191
-1126
-1044
-977
-943
-931
-912
-868
-810
-757
-714
-666
-603
-534
-475
-426
-381
-333
-296
-284
-294
-307
-307
-293
-283
-285
-293
-289
-266
-233
-213
-214
-224
-228
-220
-215
-228
-253
-271
-271
-265
-275
-299
-311
-288
-246
-218
-225
-249
-258
-243
-225
-231
-257
-281
-286
-275
-262
-255
-249
-238
-220
-204
-200
-213
-238
-265
-287
-308
-335
-362
-383
-397
-414
-440
-463
-467
-458
-461
-498
-556
-597
-595
-560
-531
-533
-559
-579
-570
-539
-512
-518
-564
-628
-677
-688
-669
-647
-648
-667
-674
-648
-598
-555
-543
-546
-531
-484
-422
-369
-329
-283
-221
-155
-111
-94
-85
-68
-52
-54
-83
-121
-144
-141
-121
-101
-90
-85
-86
-85
-75
-62
-56
-65
-85
-102
-114
-130
-157
-195
-228
-235
-206
-158
-125
-127
-148
-165
-206
-353
-651
-1023
-1295
-1338
-1183
-980
-847
-770
-668
-501
-311
-148
-6
146
309
446
531
594
678
775
806
694
435
112
-168
-355
-468
-552
-616
-633
-576
-461
-330
-222
-164
-176
-265
-419
-586
-702
-738
-699
-620
-542
-495
-498
-546
-613
-664
-685
-683
-666
-641
-613
-601
-621
-669
-719
-750
-766
-782
-801
-808
-798
-791
-807
-833
-840
-815
-785
-787
-820
-856
-872
-885
-927
-1007
-1095
-1155
-1184
-1209
-1255
-1322
-1382
-1416
-1425
-1430
-1452
-1495
-1544
-1583
-1605
-1620
-1639
-1666
-1697
-1722
-1740
-1753
-1762
-1765
-1761
-1753
-1746
-1731
-1698
-1644
-1587
-1547
-1520
-1489
-1439
-1378
-1327
-1291
-1250
-1184
-1092
-994
-908
-836
-768
-691
-602
-513
-440
-390
-351
-307
-251
-195
-153
-121
-86
-40
6
37
52
66
88
115
137
149
159
174
192
209
220
229
237
237
220
189
153
128
115
103
84
62
52
59
70
69
54
37
23
6
-26
-65
-89
-86
-67
-51
-48
-49
-42
-31
-27
-35
-49
-66
-86
-113
-139
-155
-162
-174
-197
-223
-239
-246
-257
-278
-297
-294
-277
-273
-296
-329
-337
-310
-275
-265
-280
-291
-280
-258
-249
-258
-276
-293
-316
-353
-393
-415
-407
-380
-347
-317
-287
-249
-202
-149
-105
-84
-86
-89
-65
-13
42
68
65
62
81
115
139
137
117
97
87
85
90
102
113
111
96
80
78
80
65
25
-23
-54
-60
-57
-69
-101
-123
-97
-15
77
122
106
71
37
-55
-287
-648
-1000
-1192
-1197
-1113
-1034
-952
-816
-634
-470
-340
-182
60
344
564
671
728
829
985
1101
1073
878
580
277
35
-130
-236
-306
-346
-345
-291
-192
-74
23
60
18
-90
-222
-331
-391
-388
-327
-235
-165
-162
-223
-298
-345
-359
-368
-378
-371
-331
-288
-281
-317
-359
-376
-372
-375
-388
-387
-358
-319
-301
-310
-327
-336
-344
-366
-398
-425
-443
-467
-502
-536
-554
-564
-587
-633
-684
-721
-750
-790
-846
-901
-941
-976
-1028
-1097
-1155
-1181
-1183
-1189
-1213
-1243
-1261
-1261
-1254
-1247
-1239
-1231
-1230
-1237
-1237
-1208
-1140
-1061
-1007
-989
-980
-940
-862
-777
-728
-719
-713
-668
-580
-486
-416
-367
-309
-228
-143
-84
-55
-30
19
90
160
204
221
228
242
274
321
371
405
418
426
450
498
549
577
580
579
589
604
601
577
551
541
547
546
529
506
496
506
522
530
524
519
524
539
550
548
537
534
550
575
587
575
555
549
565
587
592
579
561
550
542
526
500
476
459
443
415
378
354
358
380
391
380
362
362
383
405
407
391
376
369
371
376
389
409
424
419
395
361
332
311
296
278
252
223
206
219
258
300
323
335
361
416
478
517
536
563
619
687
738
759
760
760
764
775
784
781
756
717
695
706
738
756
744
719
712
719
721
706
690
692
709
715
692
643
592
564
573
614
658
679
685
699
709
653
485
249
51
-43
-77
-130
-209
-242
-193
-119
-92
-86
11
258
574
834
1005
1165
1384
1620
1761
1737
1576
1346
1098
848
624
461
379
354
359
392
471
595
719
781
750
648
530
445
411
425
465
503
515
491
448
405
370
341
318
316
338
369
386
373
343
313
294
283
265
230
182
133
98
87
94
103
103
96
96
114
146
173
175
151
115
83
60
37
3
-39
-79
-114
-146
-179
-210
-240
-276
-326
-386
-439
-476
-508
-552
-613
-667
-694
-696
-697
-710
-729
-727
-694
-646
-610
-601
-606
-602
-576
-533
-488
-451
-413
-363
-299
-231
-171
-118
-61
8
84
155
217
274
336
408
481
548
606
658
706
752
797
839
878
911
933
941
946
960
989
1023
1045
1050
1047
1050
1062
1071
1065
1049
1031
1014
993
966
939
923
920
922
922
916
905
883
851
815
788
777
768
748
714
677
657
660
674
676
654
619
595
598
615
619
593
552
521
508
497
473
438
414
412
420
421
409
394
391
402
419
432
436
433
428
433
451
474
488
484
470
464
469
468
441
389
336
302
288
277
262
254
269
308
357
407
462
523
580
622
650
682
720
754
769
772
782
808
832
839
833
833
842
842
822
794
784
792
797
781
757
744
747
748
734
715
703
690
653
588
522
502
542
607
638
620
603
625
647
564
333
50
-133
-168
-159
-220
-337
-388
-321
-220
-192
-209
-136
107
444
743
961
1162
1395
1613
1723
1677
1506
1263
991
721
493
343
278
273
311
381
475
571
633
633
564
446
321
232
203
225
269
306
321
316
292
246
182
120
85
86
99
101
86
75
77
80
63
29
8
24
56
65
29
-25
-55
-54
-52
-80
-134
-189
-226
-251
-276
-304
-329
-358
-395
-438
-470
-488
-513
-568
-652
-731
-777
-800
-838
-910
-998
-1062
-1088
-1097
-1116
-1146
-1263
-1171
-1174
-1189
-1204
-1197
-1166
-1134
-1120
-1116
-1099
-1062
-1019
-984
-954
-918
-877
-842
-810
-765
-698
-619
-547
-483
-411
-325
-239
-171
-116
-58
6
59
87
98
117
158
208
247
276
311
366
432
484
513
528
544
564
569
550
514
482
471
475
482
482
479
477
479
481
482
482
485
488
486
482
481
490
504
511
497
465
433
415
407
394
366
333
313
311
317
316
304
284
259
232
208
191
178
153
110
65
43
48
60
53
34
28
46
68
68
45
22
16
16
2
-23
-46
-57
-68
-89
-117
-140
-160
-187
-224
-259
-276
-277
-272
-264
-249
-224
-193
-161
-127
-82
-33
3
21
33
67
131
203
253
274
287
319
369
409
415
388
354
336
331
323
301
270
244
231
227
222
209
189
169
149
124
87
40
-12
-63
-99
-106
-86
-69
-88
-146
-208
-270
-389
-632
-964
-1224
-1250
-1032
-723
-487
-359
-266
-142
7
140
245
333
406
450
484
560
709
882
973
904
685
404
153
-28
-155
-262
-361
-424
-413
-320
-185
-65
-5
-16
-88
-208
-351
-477
-542
-525
-450
-372
-335
-348
-393
-448
-501
-537
-540
-509
-465
-440
-450
-485
-525
-561
-597
-633
-659
-668
-664
-661
-668
-681
-692
-701
-714
-729
-740
-746
-753
-766
-782
-797
-812
-836
-868
-899
-923
-942
-966
-996
-1027
-1057
-1091
-1135
-1180
-1212
-1234
-1263
-1311
-1365
-1397
-1394
-1377
-1372
-1386
-1403
-1406
-1392
-1374
-1360
-1353
-1354
-1357
-1353
-1331
-1293
-1246
-1196
-1140
-1074
-1002
-927
-845
-749
-646
-561
-507
-471
-428
-371
-313
-273
-246
-218
-181
-139
-96
-51
-4
38
68
91
119
150
171
174
169
172
186
197
191
175
162
154
144
120
83
44
11
-13
-28
-41
-55
-75
-90
-86
-60
-33
-29
-51
-71
-62
-34
-20
-39
-72
-86
-74
-62
-70
-91
-102
-97
-96
-116
-144
-156
-147
-136
-146
-175
-195
-186
-160
-144
-155
-183
-204
-212
-222
-254
-300
-333
-335
-321
-320
-338
-351
-335
-301
-287
-311
-351
-370
-355
-332
-329
-350
-374
-383
-370
-341
-305
-270
-248
-240
-227
-191
-131
-71
-30
-8
15
49
89
124
148
162
169
171
175
187
205
219
218
203
188
186
194
201
200
202
216
231
230
209
183
170
169
156
109
40
-9
-4
44
81
65
8
-43
-84
-188
-425
-758
-1029
-1082
-906
-630
-396
-240
-109
50
234
415
577
710
799
834
846
896
1011
1143
1193
1095
871
604
381
234
145
71
-10
-76
-88
-31
75
180
240
229
150
26
-99
-174
-177
-119
-42
10
23
2
-39
-86
-128
-155
-158
-131
-75
-8
39
42
2
-52
-90
-103
-106
-111
-112
-105
-100
-105
-116
-113
-94
-81
-94
-120
-125
-101
-80
-93
-139
-183
-203
-216
-247
-303
-363
-406
-431
-454
-486
-525
-564
-602
-641
-692
-755
-823
-876
-907
-927
-951
-985
-1006
-992
-944
-888
-849
-824
-798
-760
-718
-684
-659
-631
-595
-555
-517
-479
-431
-372
-307
-240
-172
-101
-30
36
95
155
220
288
351
407
462
526
599
677
750
816
872
917
951
977
995
1009
1018
1022
1016
1001
986
982
989
990
973
939
912
907
914
915
906
898
900
902
888
866
850
848
843
822
792
780
798
835
871
899
922
945
964
977
984
990
997
1004
1009
1009
1004
997
995
1000
1004
994
968
940
924
921
917
905
894
890
888
872
844
823
828
850
859
837
800
776
778
792
796
780
752
725
711
712
720
722
712
702
710
737
766
779
783
801
848
908
958
995
1035
1091
1155
1203
1223
1221
1217
1224
1239
1251
1249
1234
1213
1192
1181
1185
1200
1207
1190
1155
1133
1142
1166
1173
1146
1110
1102
1125
1148
1132
1088
1074
1134
1243
1322
1319
1270
1240
1213
1076
755
329
6
-69
57
219
317
389
514
702
897
1066
1227
1405
1574
1694
1772
1855
1970
2077
2096
1984
1759
1486
1230
1030
893
806
756
742
776
854
957
1055
1109
1090
995
853
715
632
619
661
733
810
870
887
850
773
689
636
631
668
721
762
771
745
698
656
633
622
602
564
518
486
478
484
486
473
453
441
443
447
435
405
368
344
337
331
307
259
202
156
125
91
35
-40
-113
-166
-207
-256
-322
-385
-417
-420
-430
-473
-534
-574
-571
-548
-539
-550
-556
-528
-470
-414
-377
-353
-326
-289
-254
-228
-207
-178
-132
-77
-20
38
103
177
257
334
406
470
523
568
611
658
706
743
767
792
833
887
933
958
974
999
1033
1061
1072
1074
1085
1104
1114
1104
1083
1074
1079
1084
1075
1055
1043
1045
1055
1061
1066
1074
1085
1086
1067
1035
1008
993
984
964
933
908
902
909
910
888
852
823
815
821
818
796
763
741
745
777
819
852
859
842
821
814
816
807
770
714
673
663
673
674
655
628
608
592
565
529
504
507
527
542
550
569
611
661
690
689
667
636
595
537
472
417
382
370
382
416
463
506
537
566
603
642
667
676
691
732
792
847
882
902
920
939
953
959
958
944
907
854
813
807
830
845
827
787
762
770
791
789
755
710
677
660
646
624
587
550
538
573
632
668
648
595
538
450
256
-67
-418
-629
-620
-461
-283
-142
-6
157
326
478
634
831
1048
1209
1271
1285
1342
1464
1572
1555
1371
1075
771
538
386
282
196
129
110
161
263
373
454
482
449
352
213
78
-5
-11
47
127
186
204
183
137
77
13
-37
-53
-29
13
37
20
-26
-70
-87
-79
-64
-55
-56
-63
-71
-73
-69
-68
-84
-119
-160
-189
-200
-209
-231
-269
-315
-360
-399
-433
-460
-484
-513
-553
-599
-645
-690
-740
-801
-867
-931
-990
-1046
-1105
-1162
-1212
-1249
-1271
-1279
-1276
-1268
-1260
-1249
-1227
-1193
-1160
-1139
-1131
-1120
-1094
-1054
-1012
-976
-940
-893
-832
-767
-706
-647
-577
-495
-416
-356
-321
-293
-252
-196
-146
-118
-103
-76
-23
44
105
152
196
250
309
360
394
421
451
481
499
500
493
493
503
508
494
464
445
455
489
520
523
500
474
468
479
489
481
451
412
382
373
386
408
426
430
423
416
418
429
437
430
405
370
338
316
301
288
275
262
254
249
248
250
255
259
254
235
205
173
140
105
68
36
14
4
-2
-11
-19
-23
-28
-42
-60
-66
-53
-38
-46
-80
-110
-112
-97
-99
-138
-195
-239
-262
-283
-320
-366
-404
-423
-430
-432
-438
-444
-445
-425
-376
-309
-251
-220
-197
-151
-73
7
55
65
61
67
84
100
116
141
174
197
198
188
193
225
264
278
260
231
212
203
191
167
142
124
109
79
30
-6
16
89
149
135
61
4
-12
-75
-296
-660
-999
-1152
-1120
-1035
-989
-947
-843
-693
-572
-488
-355
-108
193
429
558
652
799
981
1098
1061
868
574
258
-14
-198
-294
-345
-388
-413
-377
-267
-126
-20
12
-27
-111
-214
-312
-373
-371
-317
-255
-235
-265
-324
-384
-444
-502
-542
-537
-483
-412
-364
-360
-387
-424
-462
-506
-554
-596
-621
-638
-658
-687
-711
-712
-690
-664
-661
-684
-716
-737
-752
-775
-813
-854
-883
-898
-910
-923
-934
-937
-940
-960
-1003
-1061
-1117
-1165
-1213
-1270
-1336
-1403
-1453
-1477
-1486
-1502
-1536
-1581
-1611
-1609
-1586
-1568
-1574
-1598
-1613
-1598
-1556
-1512
-1487
-1480
-1465
-1415
-1332
-1241
-1166
-1102
-1022
-913
-800
-714
-665
-628
-572
-495
-421
-375
-354
-333
-291
-225
-154
-102
-83
-90
-97
-84
-53
-26
-20
-28
-26
-4
23
39
44
47
56
56
41
16
-1
-4
-5
-11
-20
-23
-18
-12
-11
-12
-11
-12
-20
-31
-33
-25
-19
-28
-53
-80
-90
-81
-67
-62
-72
-91
-107
-116
-121
-129
-140
-145
-138
-131
-131
-131
-114
-76
-43
-49
-92
-140
-163
-167
-184
-225
-271
-295
-296
-286
-273
-250
-224
-218
-248
-297
-328
-336
-353
-411
-491
-541
-532
-491
-464
-466
-475
-471
-471
-496
-541
-580
-604
-633
-680
-722
-725
-685
-637
-608
-588
-553
-503
-466
-458
-457
-436
-403
-388
-399
-402
-363
-291
-238
-237
-269
-284
-261
-224
-218
-246
-271
-260
-224
-203
-220
-255
-271
-264
-267
-303
-357
-389
-395
-409
-448
-475
-437
-342
-261
-243
-261
-265
-288
-422
-692
-987
-1164
-1205
-1221
-1294
-1370
-1350
-1239
-1143
-1117
-1076
-891
-558
-204
55
229
408
628
821
892
803
588
314
40
-191
-358
-467
-534
-565
-547
-474
-372
-283
-242
-259
-325
-422
-526
-604
-629
-597
-539
-508
-535
-605
-679
-733
-773
-815
-854
-871
-859
-832
-815
-821
-846
-886
-932
-973
-988
-979
-967
-982
-1026
-1069
-1080
-1063
-1050
-1065
-1105
-1144
-1164
-1170
-1175
-1185
-1197
-1211
-1226
-1244
-1263
-1285
-1313
-1353
-1403
-1460
-1518
-1576
-1636
-1697
-1756
-1812
-1866
-1915
-1957
-1992
-2020
-2044
-2057
-2061
-2065
-2074
-2079
-2063
-2022
-1973
-1942
-1934
-1926
-1894
-1843
-1797
-1775
-1760
-1721
-1652
-1571
-1501
-1437
-1360
-1262
-1163
-1088
-1039
-999
-955
-909
-871
-833
-785
-727
-671
-624
-578
-520
-456
-411
-398
-401
-398
-380
-365
-365
-375
-378
-370
-358
-347
-332
-310
-289
-283
-292
-300
-299
-296
-308
-335
-359
-366
-363
-369
-388
-406
-410
-401
-396
-400
-406
-407
-407
-416
-432
-445
-451
-456
-465
-474
-482
-493
-514
-537
-551
-550
-549
-566
-594
-612
-611
-606
-613
-630
-644
-651
-661
-677
-689
-688
-685
-694
-714
-730
-733
-735
-747
-765
-773
-772
-774
-785
-787
-768
-743
-735
-749
-765
-770
-778
-813
-871
-921
-940
-936
-926
-913
-885
-846
-810
-787
-760
-711
-654
-627
-644
-670
-659
-601
-537
-505
-500
-486
-443
-391
-358
-350
-352
-354
-367
-398
-430
-441
-431
-430
-453
-486
-504
-500
-495
-502
-515
-519
-520
-537
-582
-641
-681
-667
-605
-546
-540
-583
-621
-631
-681
-864
-1179
-1492
-1665
-1688
-1666
-1674
-1679
-1622
-1525
-1460
-1425
-1323
-1087
-777
-516
-346
-188
39
301
478
487
342
111
-144
-390
-603
-761
-862
-918
-929
-887
-798
-694
-622
-613
-668
-770
-893
-1008
-1078
-1078
-1011
-916
-847
-835
-870
-921
-966
-1003
-1034
-1054
-1055
-1040
-1021
-1010
-1007
-1009
-1019
-1036
-1051
-1053
-1043
-1039
-1056
-1092
-1129
-1156
-1178
-1203
-1233
-1259
-1281
-1303
-1330
-1357
-1376
-1387
-1401
-1427
-1466
-1509
-1546
-1578
-1609
-1642
-1677
-1713
-1750
-1793
-1844
-1902
-1961
-2017
-2067
-2113
-2157
-2195
-2221
-2229
-2220
-2202
-2185
-2172
-2157
-2132
-2098
-2066
-2047
-2039
-2026
-1998
-1955
-1911
-1879
-1854
-1817
-1751
-1659
-1560
-1476
-1409
-1345
-1265
-1172
-1088
-1036
-1014
-1002
-975
-925
-864
-809
-769
-739
-705
-659
-608
-567
-543
-534
-524
-503
-476
-456
-450
-451
-446
-429
-405
-392
-395
-406
-411
-400
-381
-365
-358
-355
-355
-360
-374
-394
-415
-434
-452
-471
-483
-483
-474
-469
-476
-493
-508
-520
-535
-560
-591
-618
-630
-629
-621
-614
-610
-605
-592
-571
-548
-534
-536
-554
-583
-611
-629
-635
-637
-649
-676
-710
-728
-720
-699
-693
-717
-758
-784
-780
-761
-754
-771
-796
-803
-782
-753
-738
-747
-772
-795
-812
-825
-839
-854
-864
-862
-847
-827
-806
-782
-745
-690
-627
-575
-543
-518
-481
-428
-377
-350
-353
-368
-379
-377
-367
-356
-347
-341
-339
-344
-358
-378
-398
-415
-429
-448
-473
-503
-532
-556
-572
-582
-592
-609
-634
-667
-715
-775
-826
-835
-805
-786
-832
-933
-1031
-1117
-1265
-1543
-1874
-2058
-1954
-1630
-1295
-1090
-974
-826
-612
-402
-265
-188
-124
-63
-25
4
73
201
321
330
185
-61
-310
-502
-636
-747
-859
-962
-1016
-989
-889
-762
-662
-622
-643
-714
-816
-918
-978
-965
-889
-795
-726
-706
-734
-798
-883
-958
-991
-977
-940
-915
-915
-929
-951
-981
-1019
-1051
-1065
-1068
-1079
-1103
-1124
-1128
-1123
-1129
-1148
-1159
-1151
-1135
-1131
-1147
-1167
-1176
-1184
-1206
-1249
-1299
-1339
-1367
-1390
-1413
-1438
-1462
-1487
-1514
-1544
-1572
-1598
-1627
-1663
-1702
-1740
-1776
-1814
-1852
-1879
-1882
-1867
-1850
-1844
-1844
-1832
-1803
-1768
-1744
-1730
-1713
-1685
-1649
-1609
-1562
-1497
-1418
-1340
-1279
-1232
-1181
-1115
-1039
-970
-919
-881
-846
-809
-774
-741
-705
-666
-631
-609
-603
-599
-584
-559
-536
-522
-509
-486
-457
-433
-422
-414
-398
-377
-368
-377
-395
-404
-397
-386
-384
-393
-402
-406
-405
-403
-403
-403
-401
-402
-411
-427
-444
-449
-442
-433
-440
-463
-485
-490
-479
-469
-470
-476
-474
-462
-456
-467
-490
-512
-529
-555
-596
-641
-668
-669
-656
-646
-646
-651
-655
-660
-671
-689
-713
-740
-763
-781
-792
-800
-808
-816
-815
-799
-772
-746
-729
-719
-708
-692
-673
-657
-650
-657
-677
-710
-747
-779
-802
-815
-818
-811
-796
-776
-756
-734
-703
-664
-629
-609
-602
-590
-557
-502
-443
-397
-369
-350
-330
-309
-296
-296
-307
-326
-344
-361
-377
-396
-412
-417
-412
-411
-419
-426
-425
-422
-432
-454
-468
-458
-438
-440
-487
-560
-612
-608
-567
-545
-586
-676
-761
-824
-932
-1169
-1514
-1811
-1890
-1729
-1463
-1240
-1090
-948
-771
-582
-413
-254
-84
73
160
180
208
313
463
543
460
227
-62
-310
-477
-577
-651
-723
-780
-781
-704
-569
-437
-363
-367
-433
-539
-658
-759
-806
-780
-701
-617
-571
-576
-622
-689
-758
-810
-826
-807
-773
-756
-768
-799
-830
-844
-846
-848
-859
-874
-881
-876
-874
-894
-944
-1003
-1047
-1068
-1081
-1102
-1131
-1150
-1155
-1156
-1167
-1187
-1207
-1225
-1250
-1288
-1328
-1353
-1366
-1386
-1424
-1470
-1506
-1529
-1554
-1592
-1634
-1668
-1693
-1718
-1741
-1754
-1754
-1756
-1777
-1813
-1841
-1842
-1828
-1816
-1810
-1798
-1767
-1721
-1666
-1607
-1548
-1501
-1470
-1444
-1407
-1353
-1295
-1243
-1191
-1124
-1042
-956
-881
-817
-759
-712
-676
-642
-596
-536
-476
-423
-366
-293
-208
-140
-109
-104
-99
-81
-63
-62
-73
-80
-74
-63
-58
-61
-68
-75
-87
-109
-137
-166
-194
-221
-252
-282
-309
-330
-342
-343
-335
-326
-319
-308
-285
-253
-232
-238
-265
-285
-283
-276
-292
-337
-383
-400
-387
-373
-374
-381
-379
-369
-364
-368
-364
-344
-323
-325
-355
-393
-419
-432
-449
-475
-504
-523
-528
-523
-509
-489
-463
-442
-434
-439
-444
-435
-412
-395
-401
-425
-446
-448
-445
-462
-508
-566
-616
-655
-691
-725
-741
-728
-695
-660
-631
-598
-550
-489
-439
-415
-415
-409
-373
-311
-254
-231
-233
-223
-182
-130
-105
-120
-147
-156
-148
-147
-171
-206
-231
-236
-237
-249
-267
-272
-263
-253
-253
-262
-265
-258
-257
-277
-325
-382
-414
-392
-330
-282
-290
-341
-385
-426
-547
-821
-1200
-1519
-1636
-1558
-1400
-1248
-1098
-922
-736
-571
-411
-205
55
293
433
482
525
628
756
808
706
451
120
-186
-403
-532
-616
-687
-731
-706
-600
-457
-335
-267
-253
-292
-388
-527
-658
-720
-687
-591
-499
-457
-469
-510
-559
-603
-635
-644
-632
-614
-611
-626
-651
-676
-706
-750
-793
-812
-793
-759
-746
-765
-795
-810
-806
-804
-816
-830
-830
-823
-833
-869
-916
-959
-1001
-1059
-1132
-1194
-1229
-1250
-1285
-1340
-1389
-1408
-1414
-1442
-1508
-1585
-1637
-1662
-1687
-1737
-1799
-1848
-1869
-1876
-1885
-1897
-1900
-1888
-1869
-1856
-1850
-1842
-1826
-1802
-1774
-1745
-1718
-1694
-1663
-1617
-1551
-1475
-1407
-1352
-1297
-1231
-1154
-1079
-1015
-957
-898
-835
-775
-718
-660
-603
-551
-508
-464
-410
-346
-286
-243
-219
-203
-186
-166
-151
-142
-141
-141
-133
-117
-98
-86
-87
-99
-116
-138
-166
-191
-201
-191
-177
-173
-180
-183
-170
-150
-139
-140
-151
-166
-188
-213
-232
-237
-232
-225
-224
-227
-230
-232
-231
-221
-207
-203
-218
-241
-250
-239
-225
-231
-255
-274
-272
-257
-248
-250
-251
-244
-238
-241
-254
-260
-249
-223
-199
-188
-185
-177
-154
-129
-124
-149
-184
-198
-185
-167
-171
-194
-210
-202
-186
-189
-221
-265
-304
-338
-378
-423
-460
-478
-482
-480
-469
-443
-398
-343
-294
-257
-231
-208
-180
-145
-110
-85
-71
-57
-34
-5
20
38
49
53
44
28
21
37
67
85
74
49
40
59
80
73
36
-3
-19
-15
-23
-63
-130
-195
-224
-192
-113
-35
1
1
3
5
-64
-272
-583
-869
-1025
-1072
-1102
-1148
-1156
-1085
-975
-895
-823
-656
-343
36
340
523
661
840
1044
1169
1135
950
677
387
128
-70
-190
-248
-278
-294
-275
-199
-75
36
66
-7
-141
-269
-347
-369
-347
-294
-229
-182
-179
-216
-262
-289
-300
-312
-323
-319
-295
-276
-296
-357
-420
-450
-448
-450
-478
-515
-527
-510
-501
-532
-588
-625
-619
-593
-594
-640
-700
-735
-737
-736
-763
-819
-875
-910
-927
-948
-986
-1036
-1085
-1126
-1161
-1203
-1255
-1305
-1340
-1356
-1370
-1402
-1453
-1505
-1538
-1553
-1568
-1600
-1642
-1673
-1680
-1664
-1632
-1590
-1546
-1512
-1490
-1465
-1415
-1341
-1267
-1216
-1181
-1138
-1078
-1013
-957
-904
-837
-759
-688
-636
-583
-508
-420
-353
-322
-300
-248
-163
-87
-54
-50
-31
27
103
152
156
135
120
121
118
95
56
26
26
46
62
61
57
70
100
120
107
69
29
8
5
10
8
-7
-34
-60
-71
-66
-67
-95
-145
-188
-201
-194
-192
-208
-231
-241
-236
-226
-224
-236
-258
-277
-273
-247
-217
-208
-216
-222
-219
-231
-285
-367
-428
-446
-447
-469
-514
-545
-534
-490
-446
-421
-412
-409
-407
-397
-375
-353
-347
-358
-363
-343
-312
-300
-312
-326
-320
-314
-335
-384
-428
-445
-452
-470
-494
-495
-464
-432
-419
-407
-356
-264
-176
-130
-111
-74
-4
59
75
54
39
49
57
23
-45
-102
-119
-111
-115
-137
-153
-140
-109
-90
-88
-88
-77
-62
-59
-72
-91
-108
-129
-167
-225
-287
-323
-313
-279
-256
-254
-245
-209
-198
-295
-510
-737
-857
-876
-910
-1027
-1153
-1161
-1048
-942
-934
-941
-797
-459
-64
224
381
519
718
922
1003
896
651
381
160
-3
-128
-215
-243
-201
-106
5
108
201
273
300
256
154
50
1
19
72
123
160
184
191
177
141
100
69
54
47
45
46
44
26
-17
-72
-111
-117
-99
-83
-85
-105
-126
-143
-157
-176
-202
-232
-258
-277
-291
-305
-317
-323
-323
-321
-331
-353
-372
-381
-388
-414
-463
-519
-561
-592
-627
-675
-723
-756
-780
-807
-837
-860
-868
-868
-872
-881
-885
-883
-883
-889
-895
-890
-873
-852
-827
-787
-728
-663
-606
-551
-481
-390
-297
-229
-188
-150
-90
-12
62
115
159
224
323
441
546
623
686
758
844
923
971
990
1006
1036
1075
1105
1119
1133
1163
1203
1237
1257
1274
1300
1326
1337
1332
1323
1323
1327
1318
1295
1271
1262
1268
1277
1279
1276
1277
1288
1299
1296
1274
1238
1201
1172
1147
1118
1084
1054
1047
1064
1091
1106
1097
1077
1065
1068
1073
1057
1016
970
942
939
941
930
908
894
899
914
922
917
913
923
943
959
959
946
933
936
952
969
972
954
929
915
923
946
962
956
932
904
885
877
869
851
821
787
769
778
807
833
843
851
887
958
1034
1081
1099
1129
1196
1281
1335
1341
1327
1332
1363
1396
1406
1394
1377
1366
1365
1372
1384
1394
1396
1393
1394
1400
1408
1415
1422
1432
1444
1450
1445
1434
1420
1394
1347
1301
1302
1365
1447
1486
1475
1462
1462
1407
1214
904
615
463
430
415
381
385
473
588
650
717
812
1083
1412
1665
1821
1980
2214
2465
2607
2579
2426
2217
1985
1739
1511
1349
1270
1252
1265
1305
1382
1489
1590
1640
1613
1513
1376
1249
1174
1165
1210
1270
1310
1316
1296
1267
1245
1236
1239
1249
1262
1277
1293
1303
1294
1260
1216
1185
1180
1187
1180
1152
1119
1104
1108
1110
1095
1070
1053
1051
1046
1024
982
931
881
833
788
749
721
695
659
614
572
544
522
493
447
388
329
272
218
170
131
95
52
1
-43
-66
-67
-67
-81
-102
-110
-96
-71
-47
-22
16
65
108
134
153
189
252
323
377
409
444
506
586
656
700
730
771
823
864
880
888
915
971
1036
1090
1126
1159
1198
1242
1280
1307
1319
1318
1316
1324
1342
1354
1349
1334
1330
1342
1350
1334
1301
1282
1297
1334
1359
1355
1334
1322
1326
1333
1328
1310
1291
1279
1273
1270
1274
1292
1318
1342
1354
1359
1368
1386
1411
1445
1489
1541
1586
1615
1637
1671
1724
1771
1784
1757
1714
1681
1663
1648
1629
1612
1604
1598
1589
1580
1584
1601
1614
1609
1592
1586
1600
1619
1628
1625
1626
1638
1645
1628
1590
1545
1510
1479
1446
1411
1386
1376
1381
1396
1421
1454
1486
1510
1532
1563
1608
1656
1696
1732
1778
1839
1902
1948
1973
1991
2015
2042
2057
2050
2028
2006
1993
1984
1971
1952
1937
1928
1921
1911
1904
1905
1906
1899
1888
1885
1899
1916
1915
1882
1827
1777
1759
1777
1796
1766
1675
1576
1516
1455
1292
998
710
642
870
1250
1561
1713
1796
1920
2088
2217
2256
2233
2188
2133
2078
2062
2125
2238
2304
2241
2053
1813
1594
1420
1280
1154
1042
962
940
986
1084
1197
1279
1295
1230
1098
944
827
791
831
908
984
1041
1073
1074
1041
989
952
950
971
986
981
967
953
926
872
803
764
787
864
954
1019
1057
1091
1137
1185
1204
1175
1109
1046
1017
1015
1007
970
919
889
900
932
950
934
893
851
821
802
781
744
688
625
572
541
518
482
427
365
315
280
249
216
187
169
163
162
165
176
198
227
256
281
301
314
318
318
322
337
361
392
430
476
526
574
620
664
705
734
743
741
745
762
786
807
824
847
880
915
937
943
943
947
954
953
939
921
912
918
932
946
954
956
950
932
908
889
885
887
879
855
833
829
840
841
815
771
734
717
710
698
681
670
669
670
664
652
642
640
638
631
618
606
602
604
602
589
566
545
532
519
490
442
393
366
362
361
346
319
298
294
303
311
305
281
252
234
239
256
262
248
231
235
260
276
261
224
192
179
165
129
74
26
4
6
16
24
34
52
81
118
159
195
224
247
274
314
364
412
441
447
437
426
421
416
398
363
321
295
289
292
287
270
250
239
236
234
228
217
205
194
183
170
153
124
76
11
-47
-68
-47
-25
-45
-109
-175
-235
-347
-573
-881
-1122
-1153
-964
-680
-435
-264
-122
28
181
316
429
516
557
547
525
556
665
790
832
743
556
341
148
-8
-131
-224
-283
-306
-293
-238
-141
-21
75
94
17
-125
-267
-362
-394
-375
-324
-263
-215
-208
-250
-319
-377
-395
-373
-335
-302
-279
-262
-257
-273
-307
-342
-359
-361
-365
-386
-413
-433
-447
-469
-503
-540
-563
-569
-571
-584
-607
-628
-644
-660
-684
-711
-737
-760
-790
-830
-877
-924
-969
-1018
-1078
-1142
-1204
-1257
-1299
-1332
-1362
-1395
-1435
-1475
-1505
-1521
-1539
-1571
-1611
-1632
-1618
-1584
-1560
-1556
-1543
-1491
-1403
-1316
-1266
-1243
-1210
-1145
-1066
-1009
-982
-965
-928
-871
-810
-756
-701
-636
-568
-509
-460
-411
-354
-300
-264
-248
-234
-207
-169
-131
-100
-74
-46
-19
4
22
42
64
80
78
59
42
42
54
54
27
-15
-43
-42
-27
-25
-43
-67
-74
-63
-49
-45
-56
-76
-99
-125
-148
-163
-173
-182
-191
-188
-163
-123
-89
-80
-90
-98
-100
-113
-153
-208
-245
-248
-237
-243
-272
-299
-298
-284
-289
-328
-379
-411
-419
-425
-448
-481
-504
-512
-512
-508
-503
-500
-506
-516
-517
-497
-464
-441
-443
-460
-473
-475
-476
-485
-505
-530
-550
-555
-538
-516
-508
-519
-522
-491
-432
-381
-357
-337
-287
-210
-143
-113
-108
-102
-88
-84
-100
-122
-134
-140
-152
-169
-178
-173
-161
-149
-138
-123
-111
-108
-111
-113
-113
-123
-149
-184
-214
-235
-265
-317
-370
-375
-304
-201
-142
-161
-214
-251
-307
-483
-810
-1175
-1397
-1400
-1266
-1123
-1010
-886
-730
-578
-454
-315
-107
144
345
446
505
612
774
899
881
700
415
106
-174
-399
-556
-648
-694
-713
-699
-637
-531
-415
-350
-374
-479
-620
-736
-786
-755
-660
-546
-463
-443
-477
-535
-589
-632
-662
-674
-661
-629
-602
-597
-613
-633
-648
-662
-677
-686
-682
-672
-673
-699
-742
-783
-806
-815
-825
-849
-880
-906
-922
-939
-967
-1005
-1044
-1080
-1119
-1168
-1220
-1263
-1293
-1319
-1352
-1387
-1411
-1420
-1428
-1451
-1493
-1545
-1593
-1628
-1652
-1667
-1680
-1695
-1702
-1689
-1656
-1619
-1597
-1586
-1565
-1520
-1465
-1428
-1413
-1395
-1351
-1285
-1226
-1187
-1153
-1099
-1021
-945
-890
-849
-797
-722
-642
-578
-531
-480
-407
-322
-253
-210
-175
-121
-46
23
55
53
46
63
100
132
142
137
139
154
173
182
179
172
169
169
172
177
183
184
171
144
111
81
55
32
11
-11
-37
-64
-81
-73
-47
-25
-31
-56
-70
-53
-21
-10
-36
-78
-100
-93
-80
-88
-115
-139
-141
-123
-99
-76
-51
-18
14
29
20
-5
-32
-54
-78
-113
-161
-205
-227
-220
-196
-175
-170
-176
-178
-160
-127
-98
-90
-106
-127
-128
-107
-84
-85
-109
-132
-135
-130
-143
-185
-229
-244
-229
-213
-222
-250
-267
-253
-217
-178
-145
-112
-69
-23
24
75
133
193
234
245
234
225
229
236
225
192
158
142
142
131
101
70
67
96
129
137
117
94
98
130
159
155
111
56
21
8
-1
-5
16
62
104
113
102
93
50
-104
-390
-705
-904
-939
-897
-870
-855
-791
-678
-580
-512
-386
-117
243
546
712
817
979
1204
1371
1361
1168
872
561
288
79
-54
-118
-147
-157
-129
-40
99
233
299
272
177
58
-40
-94
-97
-60
-5
36
34
-20
-105
-191
-254
-282
-281
-261
-231
-206
-205
-235
-284
-329
-362
-393
-434
-478
-503
-500
-485
-482
-496
-512
-518
-523
-538
-561
-582
-603
-634
-682
-726
-746
-743
-744
-768
-805
-829
-833
-838
-868
-923
-982
-1026
-1058
-1095
-1147
-1203
-1253
-1299
-1346
-1397
-1441
-1473
-1498
-1529
-1560
-1571
-1555
-1531
-1521
-1524
-1516
-1475
-1413
-1359
-1325
-1293
-1242
-1176
-1114
-1069
-1030
-976
-902
-827
-775
-744
-710
-646
-553
-464
-401
-352
-284
-182
-73
2
35
60
106
165
209
222
218
225
251
281
293
282
262
251
258
272
267
233
185
153
155
177
193
193
193
204
218
217
197
173
163
157
134
88
47
42
77
117
126
99
67
54
60
59
36
-4
-40
-56
-46
-15
22
43
35
12
3
20
44
42
6
-39
-60
-57
-55
-75
-111
-143
-166
-185
-203
-211
-208
-202
-208
-229
-248
-255
-254
-257
-269
-282
-283
-267
-237
-210
-199
-211
-235
-256
-274
-300
-346
-395
-414
-390
-349
-329
-335
-333
-301
-258
-245
-272
-299
-281
-222
-164
-136
-120
-86
-26
29
51
45
38
43
47
35
7
-13
-7
18
35
26
-3
-31
-47
-56
-66
-74
-74
-66
-64
-73
-84
-89
-87
-76
-56
-38
-36
-45
-46
-45
-100
-271
-526
-753
-862
-890
-940
-1047
-1131
-1121
-1060
-1047
-1074
-1011
-764
-404
-96
84
216
405
632
775
747
575
343
113
-102
-290
-421
-479
-480
-455
-413
-349
-262
-181
-138
-152
-215
-306
-395
-448
-445
-390
-320
-280
-293
-346
-412
-472
-520
-550
-559
-547
-532
-534
-562
-604
-642
-664
-677
-691
-710
-722
-719
-703
-690
-689
-693
-688
-672
-660
-661
-670
-671
-670
-689
-741
-808
-855
-876
-900
-952
-1023
-1079
-1099
-1100
-1108
-1133
-1166
-1199
-1238
-1281
-1321
-1354
-1397
-1466
-1550
-1613
-1627
-1610
-1603
-1631
-1672
-1692
-1683
-1669
-1673
-1694
-1710
-1702
-1676
-1644
-1608
-1558
-1492
-1421
-1354
-1294
-1233
-1169
-1105
-1047
-995
-939
-871
-797
-723
-652
-586
-518
-448
-381
-323
-272
-216
-145
-66
-2
32
53
89
145
193
207
190
176
182
190
177
148
130
135
140
121
83
51
36
25
0
-38
-73
-97
-115
-136
-160
-185
-214
-251
-291
-317
-320
-301
-275
-253
-240
-226
-204
-173
-150
-151
-171
-188
-185
-170
-165
-179
-195
-192
-173
-159
-165
-187
-211
-236
-266
-296
-311
-311
-316
-340
-374
-394
-397
-404
-437
-482
-505
-495
-479
-490
-523
-542
-529
-500
-489
-506
-533
-543
-535
-522
-523
-540
-558
-565
-554
-532
-509
-494
-487
-477
-456
-421
-381
-348
-328
-312
-285
-245
-203
-178
-177
-186
-183
-163
-139
-124
-121
-119
-108
-93
-85
-92
-106
-116
-122
-136
-162
-190
-211
-229
-258
-296
-320
-318
-307
-322
-378
-444
-457
-385
-273
-205
-221
-275
-296
-297
-389
-649
-1009
-1294
-1390
-1349
-1294
-1268
-1215
-1103
-983
-914
-854
-702
-439
-163
27
153
326
590
853
981
925
735
487
226
-27
-247
-407
-506
-557
-566
-521
-424
-300
-199
-172
-239
-380
-536
-646
-681
-653
-598
-545
-505
-480
-474
-495
-536
-578
-603
-612
-618
-632
-657
-693
-736
-778
-802
-797
-770
-745
-732
-724
-712
-705
-725
-774
-831
-870
-891
-914
-948
-983
-999
-996
-986
-981
-980
-978
-977
-982
-998
-1025
-1063
-1113
-1174
-1241
-1308
-1373
-1442
-1513
-1584
-1646
-1690
-1711
-1716
-1717
-1726
-1741
-1750
-1744
-1730
-1718
-1715
-1711
-1695
-1660
-1608
-1549
-1492
-1446
-1408
-1370
-1324
-1273
-1225
-1184
-1145
-1099
-1047
-997
-951
-899
-832
-752
-673
-606
-555
-514
-474
-434
-395
-364
-344
-332
-322
-302
-271
-235
-202
-177
-157
-141
-132
-130
-131
-131
-130
-138
-163
-195
-213
-207
-188
-180
-187
-196
-188
-167
-154
-159
-171
-170
-157
-155
-180
-224
-263
-284
-296
-314
-342
-368
-379
-379
-377
-382
-392
-404
-418
-431
-442
-448
-450
-452
-456
-461
-464
-469
-478
-489
-499
-508
-520
-538
-555
-562
-558
-556
-561
-567
-563
-552
-551
-572
-602
-616
-606
-592
-598
-617
-618
-584
-537
-515
-533
-563
-575
-569
-569
-593
-631
-658
-662
-650
-630
-606
-575
-535
-487
-435
-388
-352
-322
-284
-232
-178
-147
-147
-161
-163
-150
-137
-142
-164
-189
-202
-206
-215
-239
-275
-309
-329
-337
-349
-369
-389
-392
-376
-353
-339
-340
-349
-359
-375
-412
-476
-546
-581
-570
-552
-583
-670
-766
-845
-961
-1183
-1479
-1686
-1647
-1367
-1012
-743
-585
-455
-288
-99
58
161
217
233
218
209
253
354
447
445
312
90
-143
-328
-454
-537
-600
-649
-666
-624
-520
-387
-275
-224
-248
-336
-459
-576
-644
-634
-556
-451
-367
-330
-336
-365
-406
-452
-496
-521
-511
-475
-441
-440
-477
-532
-578
-602
-607
-602
-594
-592
-597
-603
-603
-597
-600
-625
-671
-718
-753
-778
-806
-845
-889
-931
-970
-1012
-1054
-1093
-1130
-1172
-1224
-1284
-1341
-1386
-1417
-1441
-1470
-1507
-1544
-1571
-1589
-1615
-1660
-1712
-1745
-1747
-1735
-1737
-1754
-1755
-1722
-1671
-1634
-1621
-1607
-1568
-1508
-1451
-1406
-1356
-1294
-1231
-1186
-1154
-1109
-1041
-967
-912
-870
-816
-737
-651
-583
-535
-492
-444
-394
-355
-327
-304
-280
-254
-219
-171
-120
-80
-57
-47
-34
-13
13
35
48
52
53
61
81
106
120
112
92
80
83
84
66
39
27
42
63
66
47
33
40
59
65
50
27
13
7
1
-7
-9
-3
5
7
9
18
32
39
24
-7
-34
-47
-51
-59
-76
-87
-82
-65
-51
-50
-60
-76
-101
-141
-191
-234
-255
-259
-262
-272
-279
-264
-229
-192
-181
-197
-218
-220
-200
-177
-174
-188
-199
-190
-163
-136
-128
-143
-173
-199
-210
-205
-200
-215
-252
-289
-300
-282
-252
-226
-202
-171
-133
-93
-46
16
85
132
134
110
101
129
174
201
200
191
197
216
233
243
250
255
250
231
208
200
216
241
246
218
172
138
127
124
108
72
29
1
8
49
97
111
72
-2
-84
-200
-422
-774
-1157
-1394
-1380
-1173
-930
-752
-628
-492
-318
-117
95
305
488
608
672
745
887
1083
1234
1242
1089
832
559
331
166
53
-33
-104
-144
-115
-10
136
256
299
262
170
55
-56
-136
-152
-90
20
115
138
83
-8
-87
-129
-143
-147
-147
-141
-131
-126
-134
-154
-173
-182
-188
-199
-216
-225
-215
-193
-186
-210
-257
-293
-295
-270
-248
-256
-293
-337
-364
-367
-359
-358
-371
-396
-423
-450
-472
-489
-506
-533
-576
-632
-686
-727
-761
-800
-850
-903
-949
-985
-1015
-1034
-1038
-1026
-1010
-1000
-986
-957
-915
-880
-868
-869
-857
-822
-778
-748
-730
-700
-641
-565
-493
-434
-380
-321
-259
-200
-141
-70
12
88
143
183
227
288
358
412
442
462
496
556
623
677
714
756
814
872
901
895
883
894
922
931
904
863
845
855
867
858
835
823
829
837
828
805
789
792
801
796
775
757
762
790
822
840
850
866
891
907
897
865
830
805
782
752
716
689
682
697
727
759
785
799
807
822
842
853
840
806
773
759
754
733
683
618
563
531
519
512
501
489
487
507
544
575
579
561
544
549
562
552
509
458
431
433
440
426
394
367
354
347
328
298
269
259
271
293
310
316
326
355
404
456
494
519
548
599
666
730
776
800
810
822
841
861
865
843
809
794
809
830
823
789
767
789
838
868
855
821
806
818
832
829
814
802
790
758
694
613
564
577
629
652
608
539
507
498
402
137
-231
-521
-611
-550
-474
-436
-382
-260
-104
25
144
336
627
936
1168
1324
1482
1682
1870
1949
1867
1650
1363
1071
824
648
537
468
435
452
530
646
760
834
841
771
632
473
356
315
332
365
385
390
384
361
312
246
193
178
205
256
303
327
318
281
236
202
191
198
206
200
184
174
180
195
199
181
157
143
137
120
80
35
10
2
-17
-63
-113
-135
-131
-144
-204
-291
-353
-366
-364
-400
-484
-571
-608
-595
-575
-594
-658
-735
-791
-816
-827
-845
-873
-897
-906
-901
-891
-879
-859
-826
-786
-749
-715
-675
-618
-544
-461
-379
-307
-248
-199
-151
-95
-32
28
75
112
149
198
258
324
389
446
499
548
593
634
671
707
743
774
792
798
797
794
789
786
791
808
829
836
831
833
858
896
915
897
859
833
828
828
814
782
741
706
685
679
683
681
665
641
625
627
639
647
648
648
645
638
630
629
627
605
556
502
481
501
529
528
500
483
499
532
550
538
515
501
498
493
476
449
417
390
373
365
358
340
321
318
343
378
391
373
351
355
378
380
339
280
244
244
257
258
247
240
232
209
172
146
142
147
138
116
105
117
138
154
171
201
240
266
269
272
312
392
474
510
490
453
449
487
526
524
479
431
418
437
451
440
418
414
427
431
407
366
332
323
331
343
347
343
332
322
310
288
254
231
246
293
332
336
330
350
365
279
51
-229
-414
-464
-479
-563
-696
-764
-716
-618
-549
-486
-332
-51
289
585
800
971
1137
1291
1381
1353
1188
921
641
429
305
234
178
148
178
266
374
465
529
564
553
480
373
290
275
318
372
396
375
320
255
206
183
179
174
161
154
170
199
211
182
118
54
17
6
-2
-30
-81
-137
-178
-191
-181
-162
-151
-156
-173
-186
-188
-185
-198
-242
-308
-366
-397
-408
-425
-461
-504
-531
-538
-550
-588
-650
-717
-774
-824
-878
-944
-1012
-1072
-1118
-1153
-1186
-1221
-1250
-1267
-1273
-1282
-1301
-1325
-1338
-1339
-1338
-1341
-1332
-1292
-1224
-1158
-1108
-1057
-972
-860
-768
-724
-708
-670
-591
-500
-435
-396
-350
-271
-165
-60
26
96
159
218
271
319
367
420
476
523
554
572
588
609
626
627
613
597
590
585
577
575
592
619
626
599
562
555
585
617
613
576
538
518
509
493
470
446
416
375
330
300
292
288
265
223
192
195
218
228
216
202
211
235
242
215
176
158
166
172
156
128
119
136
157
164
163
171
187
188
163
131
117
120
113
76
24
-9
-11
0
0
-22
-55
-80
-87
-78
-61
-53
-63
-87
-114
-140
-170
-211
-254
-286
-302
-306
-303
-282
-237
-183
-144
-131
-126
-105
-69
-40
-30
-28
-9
32
79
113
130
135
137
136
132
121
100
74
56
55
64
67
51
30
26
43
59
56
36
20
24
47
71
86
88
70
30
-29
-80
-85
-32
40
72
44
4
-6
-29
-168
-460
-804
-1052
-1163
-1232
-1344
-1459
-1470
-1370
-1265
-1233
-1188
-984
-600
-182
125
326
542
823
1080
1182
1095
888
645
404
174
-23
-152
-205
-201
-161
-92
0
90
140
123
36
-94
-224
-313
-340
-309
-251
-207
-201
-227
-257
-276
-297
-341
-406
-462
-476
-455
-438
-452
-490
-515
-503
-462
-421
-404
-416
-447
-484
-515
-537
-561
-603
-660
-708
-722
-709
-699
-717
-757
-790
-799
-799
-815
-858
-914
-966
-1006
-1039
-1076
-1116
-1156
-1194
-1234
-1281
-1334
-1386
-1432
-1469
-1505
-1541
-1576
-1609
-1643
-1677
-1702
-1708
-1697
-1686
-1688
-1689
-1671
-1629
-1579
-1539
-1507
-1465
-1407
-1342
-1282
-1226
-1161
-1083
-999
-921
-851
-784
-721
-663
-607
-548
-486
-432
-393
-358
-306
-231
-147
-78
-32
4
39
69
84
81
74
76
88
101
109
112
117
127
141
153
159
152
131
104
88
90
97
92
61
16
-21
-31
-22
-9
-7
-13
-14
-3
16
30
29
12
-17
-54
-92
-120
-133
-140
-154
-178
-193
-183
-149
-116
-106
-117
-129
-125
-104
-78
-57
-48
-54
-71
-94
-113
-132
-156
-188
-216
-231
-230
-219
-202
-181
-165
-163
-174
-188
-197
-207
-228
-258
-281
-289
-293
-307
-333
-358
-374
-386
-398
-405
-405
-404
-411
-422
-418
-396
-373
-367
-369
-349
-302
-253
-232
-226
-198
-135
-64
-27
-31
-48
-50
-43
-45
-67
-96
-118
-134
-146
-154
-155
-148
-143
-141
-140
-136
-130
-125
-131
-153
-195
-248
-298
-332
-350
-360
-371
-384
-392
-375
-322
-251
-212
-241
-321
-407
-501
-671
-960
-1284
-1467
-1394
-1127
-843
-660
-551
-429
-264
-104
9
85
157
232
298
371
487
650
794
830
716
493
246
43
-96
-197
-289
-372
-415
-378
-262
-113
1
33
-15
-113
-224
-321
-386
-401
-357
-274
-193
-157
-183
-250
-323
-375
-404
-416
-412
-393
-368
-357
-374
-411
-440
-444
-427
-409
-401
-404
-416
-441
-478
-514
-536
-547
-567
-609
-659
-689
-682
-657
-649
-676
-719
-745
-733
-700
-678
-689
-727
-771
-809
-849
-901
-962
-1023
-1077
-1127
-1176
-1221
-1259
-1292
-1330
-1373
-1415
-1446
-1465
-1478
-1479
-1462
-1425
-1382
-1348
-1324
-1296
-1252
-1196
-1148
-1116
-1092
-1056
-997
-925
-856
-798
-745
-689
-630
-577
-534
-497
-455
-406
-354
-303
-253
-203
-157
-121
-92
-61
-21
104
53
72
87
109
133
147
141
121
107
109
124
134
129
117
114
128
145
147
133
118
115
118
107
77
44
28
31
32
21
5
4
21
39
40
28
21
30
45
48
38
30
32
32
16
-12
-34
-40
-39
-51
-79
-103
-104
-80
-48
-29
-31
-49
-70
-87
-97
-106
-122
-145
-169
-184
-179
-155
-126
-110
-120
-146
-162
-151
-126
-114
-126
-143
-143
-127
-116
-125
-148
-171
-198
-240
-290
-321
-314
-284
-265
-266
-267
-240
-189
-144
-124
-119
-102
-65
-22
11
32
55
87
120
137
133
122
118
121
123
113
96
80
74
71
65
55
46
43
39
28
9
-3
0
10
14
8
-1
-9
-19
-37
-66
-108
-160
-207
-226
-215
-211
-258
-353
-448
-531
-669
-931
-1269
-1504
-1483
-1227
-908
-678
-542
-408
-223
-22
137
246
333
409
461
496
555
666
791
844
761
558
315
114
-21
-115
-201
-278
-320
-304
-236
-142
-46
20
26
-47
-180
-309
-377
-373
-327
-281
-255
-254
-278
-329
-394
-449
-471
-455
-412
-362
-323
-310
-330
-381
-441
-486
-505
-508
-515
-532
-550
-557
-556
-560
-575
-594
-607
-612
-621
-644
-674
-697
-712
-728
-758
-803
-849
-880
-895
-907
-927
-956
-987
-1015
-1041
-1059
-1073
-1096
-1131
-1169
-1190
-1199
-1225
-1281
-1335
-1348
-1336
-1373
-1480
-1555
-1446
-1120
-726
-442
-295
-147
118
451
695
753
674
575
524
517
529
560
613
677
739
804
884
977
1051
1084
1084
1078
1085
1108
1138
1173
1218
1271
1316
1335
1328
1313
1308
1310
1315
1326
1351
1386
1403
1381
1333
1297
1296
1307
1294
1251
1207
1190
1193
1188
1166
1141
1131
1124
1098
1050
1004
978
964
936
884
828
798
796
799
783
749
718
708
714
718
710
693
678
667
655
639
619
598
579
564
552
543
533
521
509
497
478
442
389
334
295
276
268
260
251
247
256
274
286
279
249
204
165
144
133
114
81
50
41
55
71
64
33
-9
-47
-79
-110
-143
-178
-212
-232
-227
-192
-141
-92
-55
-20
24
76
120
143
151
158
175
197
215
225
236
257
289
319
333
327
308
290
278
265
242
210
183
174
179
181
168
146
129
119
104
76
48
38
46
53
29
-30
-92
-111
-75
-35
-61
-164
-282
-359
-445
-653
-1022
-1419
-1633
-1574
-1350
-1138
-1012
-918
-778
-584
-373
-160
66
289
463
576
673
812
982
1094
1057
858
566
280
61
-84
-183
-259
-312
-314
-244
-117
21
119
143
89
-23
-162
-289
-371
-384
-330
-238
-158
-133
-173
-252
-328
-373
-388
-389
-389
-383
-367
-349
-350
-383
-429
-454
-442
-413
-404
-425
-456
-473
-481
-497
-528
-555
-566
-573
-594
-627
-654
-665
-679
-713
-758
-786
-786
-780
-795
-831
-869
-896
-928
-986
-1068
-1150
-1213
-1262
-1307
-1351
-1386
-1411
-1433
-1461
-1491
-1512
-1524
-1538
-1560
-1584
-1594
-1584
-1562
-1536
-1510
-1479
-1443
-1408
-1374
-1342
-1306
-1264
-1220
-1176
-1129
-1077
-1013
-940
-864
-797
-741
-696
-654
-614
-571
-527
-482
-438
-399
-361
-318
-265
-200
-134
-70
-13
38
81
111
134
156
179
193
186
161
137
133
148
164
168
163
164
175
185
188
187
190
198
199
188
175
174
187
196
184
154
126
116
120
118
97
67
47
45
50
47
34
24
28
45
59
64
60
52
43
34
27
16
-3
-31
-55
-60
-47
-37
-48
-71
-88
-93
-102
-129
-163
-182
-178
-171
-177
-190
-188
-170
-162
-185
-226
-252
-247
-228
-221
-228
-234
-228
-217
-218
-236
-269
-313
-363
-409
-440
-456
-469
-487
-501
-497
-472
-442
-420
-402
-374
-331
-283
-240
-198
-145
-84
-30
1
10
13
26
50
68
66
51
41
54
88
124
145
151
150
153
162
171
180
185
181
164
136
112
100
95
83
56
22
-21
-68
-98
-83
-33
-1
-38
-129
-219
-309
-481
-801
-1201
-1504
-1583
-1478
-1333
-1239
-1176
-1077
-924
-732
-506
-240
47
301
496
659
838
1026
1157
1156
1001
730
417
139
-59
-173
-237
-280
-298
-267
-181
-66
33
77
46
-60
-210
-344
-412
-402
-341
-269
-215
-190
-201
-254
-340
-427
-476
-471
-434
-404
-404
-428
-457
-483
-512
-547
-574
-579
-563
-549
-555
-573
-585
-588
-598
-627
-662
-686
-696
-712
-751
-802
-845
-869
-888
-917
-959
-1002
-1037
-1064
-1088
-1115
-1150
-1197
-1252
-1305
-1347
-1382
-1424
-1478
-1536
-1582
-1610
-1633
-1660
-1689
-1708
-1712
-1708
-1708
-1716
-1725
-1727
-1720
-1708
-1694
-1674
-1647
-1612
-1569
-1521
-1472
-1427
-1387
-1348
-1298
-1239
-1181
-1135
-1097
-1051
-986
-911
-845
-797
-755
-698
-621
-540
-466
-397
-323
-239
-154
-84
-33
3
29
43
42
27
8
-2
-1
8
17
25
33
42
50
52
47
36
22
8
-10
-28
-39
-39
-29
-19
-15
-14
-8
0
0
-17
-46
-69
-80
-83
-89
-98
-102
-96
-89
-89
-93
-89
-73
-56
-54
-65
-74
-72
-61
-46
-31
-21
-15
-14
-12
-4
9
18
19
13
6
-4
-22
-49
-89
-138
-190
-225
-232
-211
-181
-155
-135
-111
-81
-57
-51
-64
-91
-122
-152
-174
-178
-169
-158
-154
-158
-165
-177
-200
-241
-294
-344
-381
-403
-414
-416
-410
-388
-347
-289
-232
-195
-178
-165
-135
-79
-17
26
37
31
33
55
90
121
141
154
165
172
172
171
178
184
174
146
115
103
115
139
162
179
198
221
242
249
235
205
164
114
70
61
102
162
188
160
120
97
36
-166
-532
-928
-1176
-1229
-1199
-1199
-1218
-1165
-1015
-835
-675
-476
-154
264
648
902
1069
1252
1477
1646
1641
1435
1105
758
466
246
96
5
-35
-24
36
135
261
384
462
455
358
218
106
71
108
180
248
293
310
299
261
204
145
108
110
148
189
202
181
145
125
126
132
131
126
130
145
157
154
139
119
90
44
-18
-75
-108
-123
-148
-201
-260
-292
-286
-277
-308
-372
-424
-432
-419
-436
-500
-567
-589
-575
-582
-645
-738
-802
-819
-825
-858
-911
-946
-953
-960
-997
-1050
-1072
-1051
-1021
-1029
-1071
-1097
-1069
-998
-929
-890
-865
-827
-767
-696
-621
-542
-463
-396
-340
-279
-195
-95
-6
57
105
160
229
302
368
426
481
536
591
643
688
722
745
764
789
820
850
868
868
858
850
856
875
893
895
880
862
852
853
861
869
870
858
836
819
826
852
871
858
827
814
836
871
879
854
824
822
845
863
852
821
793
787
793
793
779
759
748
749
750
741
725
717
724
736
738
725
709
704
713
723
716
688
642
596
562
542
522
491
451
420
411
423
444
466
483
491
486
476
475
482
484
465
433
413
417
436
451
455
446
428
394
353
321
300
274
237
208
219
269
327
362
389
437
508
564
582
578
590
627
664
681
687
703
728
745
749
754
760
747
697
628
584
582
594
579
534
491
477
488
501
510
514
513
502
486
492
526
559
543
462
364
324
380
473
507
449
372
355
368
278
15
-323
-557
-627
-640
-718
-840
-880
-784
-645
-562
-502
-332
-1
386
690
889
1071
1302
1525
1627
1555
1354
1111
879
673
499
371
300
283
317
391
487
579
635
641
603
542
480
433
413
432
488
559
607
603
546
466
399
365
362
372
375
366
345
309
260
209
184
193
212
205
165
129
126
144
140
90
22
-19
-26
-27
-47
-80
-101
-110
-127
-170
-231
-288
-332
-374
-426
-483
-528
-554
-570
-592
-627
-660
-676
-682
-704
-766
-851
-916
-935
-932
-950
-1006
-1066
-1087
-1067
-1041
-1032
-1027
-1001
-958
-925
-911
-892
-849
-797
-762
-748
-720
-650
-557
-478
-419
-356
-269
-182
-125
-101
-77
-33
12
35
38
53
96
151
197
233
270
314
353
381
405
438
477
511
532
542
546
547
548
555
566
565
546
519
507
521
544
551
537
517
511
516
522
521
518
515
511
505
502
502
500
487
465
441
423
408
392
377
369
372
384
396
398
388
369
350
345
356
376
389
385
372
365
373
389
391
363
305
243
203
191
187
171
141
115
113
135
160
166
144
101
58
36
34
24
-15
-69
-97
-76
-32
-10
-27
-54
-59
-48
-55
-99
-159
-202
-215
-210
-207
-209
-204
-176
-120
-48
10
28
15
8
42
109
167
186
180
191
236
294
329
331
320
313
311
306
292
279
273
274
275
276
276
274
267
257
248
239
227
212
201
200
199
183
145
94
47
26
41
74
93
81
64
75
76
-24
-275
-599
-848
-956
-1006
-1114
-1274
-1370
-1338
-1247
-1201
-1176
-1045
-734
-328
24
270
486
747
1015
1179
1165
997
756
508
283
97
-36
-108
-130
-115
-73
-4
83
157
176
119
5
-114
-191
-217
-201
-160
-108
-62
-47
-78
-141
-201
-230
-227
-213
-209
-226
-256
-289
-313
-332
-357
-393
-430
-450
-448
-442
-456
-490
-521
-534
-536
-550
-578
-603
-612
-613
-622
-641
-658
-670
-688
-725
-767
-795
-807
-824
-861
-907
-942
-961
-983
-1025
-1081
-1132
-1171
-1211
-1266
-1332
-1392
-1436
-1468
-1502
-1543
-1577
-1593
-1592
-1591
-1599
-1606
-1596
-1566
-1531
-1509
-1498
-1484
-1454
-1410
-1360
-1306
-1250
-1194
-1137
-1077
-1009
-937
-868
-809
-758
-706
-647
-583
-516
-449
-387
-335
-294
-257
-219
-179
-144
-117
-87
-47
2
51
88
109
115
118
127
145
159
149
115
79
64
75
86
76
51
35
45
69
83
73
48
24
5
-16
-45
-79
-103
-114
-118
-123
-129
-125
-108
-93
-95
-116
-135
-132
-110
-91
-85
-74
-40
12
52
57
38
24
26
23
-5
-62
-122
-165
-181
-182
-179
-180
-190
-200
-197
-171
-135
-115
-129
-166
-197
-210
-218
-238
-271
-299
-311
-313
-310
-302
-284
-271
-283
-320
-352
-355
-339
-339
-370
-408
-414
-380
-339
-320
-320
-316
-296
-267
-234
-193
-139
-84
-46
-30
-15
11
44
61
55
41
39
49
56
52
51
63
75
67
37
10
10
31
42
20
-22
-55
-64
-63
-74
-102
-132
-161
-200
-256
-303
-309
-284
-280
-341
-439
-526
-615
-793
-1103
-1447
-1639
-1583
-1362
-1146
-1023
-945
-828
-658
-480
-324
-177
-24
121
244
364
514
688
822
838
712
490
250
50
-95
-205
-291
-340
-334
-267
-165
-62
18
53
26
-70
-209
-341
-417
-421
-364
-281
-212
-190
-227
-300
-371
-412
-423
-418
-404
-383
-360
-351
-369
-405
-443
-474
-503
-532
-559
-578
-595
-622
-659
-690
-701
-697
-699
-715
-736
-749
-755
-767
-792
-820
-835
-836
-841
-864
-902
-937
-962
-989
-1034
-1100
-1167
-1213
-1240
-1266
-1311
-1375
-1431
-1460
-1465
-1473
-1500
-1536
-1549
-1524
-1480
-1446
-1431
-1418
-1389
-1356
-1339
-1343
-1348
-1335
-1306
-1273
-1235
-1181
-1111
-1044
-990
-940
-878
-809
-752
-722
-702
-666
-605
-536
-478
-438
-404
-365
-318
-267
-217
-174
-140
-112
-83
-48
-12
15
27
28
24
17
2
-25
-58
-80
-86
-84
-86
-91
-85
-58
-22
0
5
8
26
54
70
63
46
42
52
58
40
3
-32
-50
-60
-79
-116
-160
-194
-216
-231
-244
-253
-255
-254
-255
-260
-260
-251
-235
-219
-210
-211
-222
-239
-257
-271
-286
-312
-351
-389
-406
-399
-388
-392
-408
-415
-405
-388
-380
-383
-381
-370
-362
-367
-379
-380
-367
-356
-368
-402
-444
-478
-500
-516
-534
-559
-584
-589
-561
-504
-444
-403
-375
-339
-283
-224
-188
-178
-173
-150
-116
-90
-82
-82
-73
-55
-37
-30
-33
-42
-55
-70
-83
-91
-97
-108
-125
-138
-137
-129
-122
-118
-112
-103
-98
-103
-115
-126
-130
-134
-153
-195
-249
-285
-282
-264
-281
-365
-490
-605
-725
-919
-1220
-1531
-1670
-1544
-1236
-927
-722
-587
-442
-269
-108
10
100
175
219
222
225
292
427
542
526
350
87
-154
-313
-403
-467
-524
-557
-541
-468
-358
-241
-151
-126
-187
-328
-499
-637
-703
-697
-644
-577
-520
-494
-511
-567
-634
-678
-678
-643
-597
-566
-559
-568
-580
-590
-608
-638
-671
-688
-681
-659
-647
-657
-680
-705
-728
-753
-784
-812
-836
-864
-901
-941
-968
-976
-980
-998
-1034
-1073
-1100
-1119
-1146
-1189
-1244
-1295
-1331
-1353
-1371
-1398
-1435
-1474
-1505
-1526
-1548
-1586
-1636
-1676
-1688
-1677
-1664
-1666
-1673
-1663
-1633
-1602
-1590
-1592
-1587
-1560
-1520
-1485
-1458
-1426
-1373
-1296
-1208
-1123
-1047
-977
-909
-840
-775
-721
-679
-642
-598
-541
-477
-415
-360
-311
-263
-216
-173
-138
-114
-99
-93
-91
-91
-91
-86
-78
-65
-52
-39
-26
-9
14
33
38
23
0
-18
-23
-20
-21
-30
-44
-57
-60
-54
-39
-24
-19
-27
-42
-52
-55
-60
-78
-110
-141
-161
-165
-163
-165
-173
-183
-192
-195
-189
-178
-169
-167
-166
-159
-147
-144
-158
-182
-199
-204
-214
-247
-298
-339
-356
-359
-377
-414
-446
-448
-432
-426
-444
-461
-448
-412
-388
-400
-429
-438
-418
-396
-407
-456
-516
-559
-576
-581
-594
-624
-660
-679
-661
-611
-560
-531
-518
-491
-425
-332
-244
-181
-130
-71
-3
58
88
86
67
54
51
47
27
-7
-34
-35
-20
-17
-46
-93
-119
-110
-88
-86
-107
-117
-95
-54
-28
-32
-51
-62
-65
-74
-107
-162
-214
-232
-212
-194
-228
-321
-431
-545
-717
-1017
-1408
-1726
-1811
-1660
-1420
-1234
-1113
-979
-786
-562
-352
-155
44
227
352
415
474
579
702
749
645
402
110
-135
-290
-379
-446
-514
-563
-562
-502
-410
-324
-275
-282
-350
-468
-602
-699
-721
-668
-581
-513
-497
-531
-592
-657
-712
-744
-744
-717
-684
-666
-673
-696
-724
-753
-780
-797
-795
-777
-756
-745
-749
-761
-778
-801
-824
-843
-854
-864
-878
-895
-905
-906
-908
-925
-958
-995
-1029
-1062
-1102
-1148
-1193
-1231
-1263
-1298
-1340
-1386
-1431
-1474
-1521
-1572
-1621
-1661
-1694
-1730
-1773
-1815
-1837
-1839
-1837
-1847
-1860
-1852
-1810
-1753
-1710
-1689
-1672
-1640
-1596
-1555
-1526
-1503
-1474
-1438
-1398
-1352
-1297
-1233
-1161
-1084
-998
-905
-817
-746
-692
-639
-579
-514
-457
-413
-379
-350
-318
-282
-242
-205
-178
-162
-144
-118
-84
-55
-44
-53
-75
-107
-144
-182
-217
-245
-274
-305
-330
-333
-306
-261
-225
-211
-214
-213
-200
-188
-197
-233
-276
-296
-283
-253
-235
-240
-255
-258
-242
-221
-211
-216
-226
-230
-228
-228
-234
-241
-247
-251
-258
-275
-296
-311
-310
-295
-281
-283
-302
-327
-341
-342
-343
-355
-377
-399
-413
-422
-426
-425
-417
-415
-432
-468
-503
-515
-511
-514
-538
-568
-575
-550
-516
-503
-515
-534
-538
-531
-527
-537
-549
-546
-523
-493
-474
-466
-456
-424
-373
-322
-291
-276
-249
-191
-116
-62
-48
-58
-64
-56
-52
-68
-91
-95
-80
-65
-65
-66
-46
-8
19
14
-12
-32
-34
-28
-32
-54
-84
-112
-133
-153
-178
-204
-224
-238
-244
-225
-165
-84
-29
-35
-79
-128
-215
-426
-794
-1203
-1455
-1454
-1287
-1123
-1032
-955
-816
-617
-412
-217
3
261
509
689
807
926
1079
1210
1216
1033
705
353
89
-51
-115
-167
-226
-255
-199
-54
130
278
335
295
189
66
-31
-82
-87
-54
2
56
80
56
-11
-97
-171
-214
-219
-199
-175
-166
-177
-202
-228
-244
-247
-236
-216
-195
-183
-186
-203
-228
-253
-276
-300
-325
-347
-362
-369
-374
-386
-410
-445
-479
-502
-513
-517
-528
-550
-573
-588
-597
-615
-655
-707
-754
-785
-808
-834
-868
-900
-922
-937
-949
-962
-973
-981
-990
-1008
-1026
-1030
-1012
-978
-944
-914
-879
-832
-781
-742
-708
-659
-590
-523
-481
-457
-409
-317
-203
-108
-47
5
74
155
226
276
319
369
420
456
478
502
546
607
669
714
739
756
785
835
898
951
978
986
993
1013
1038
1051
1046
1040
1048
1065
1071
1050
1014
994
1004
1031
1042
1024
995
984
1003
1032
1042
1028
1009
1002
1009
1011
1000
984
978
978
970
945
918
906
910
908
882
841
811
807
815
814
800
792
804
827
841
841
847
872
904
917
903
878
863
861
859
847
832
827
835
852
877
903
929
951
968
980
984
979
972
976
992
1006
1004
985
973
985
1009
1020
994
940
883
842
814
787
756
730
719
723
741
774
823
885
945
991
1025
1060
1102
1140
1167
1178
1177
1169
1158
1154
1164
1181
1189
1182
1176
1186
1209
1223
1220
1214
1221
1232
1233
1225
1228
1248
1267
1269
1257
1249
1245
1225
1176
1107
1052
1046
1092
1149
1168
1139
1100
1072
1005
811
470
88
-188
-308
-343
-369
-377
-315
-194
-81
7
163
471
891
1272
1521
1696
1913
2191
2415
2456
2296
2023
1732
1473
1251
1079
979
954
982
1037
1115
1221
1339
1420
1407
1289
1124
988
922
916
942
979
1016
1040
1034
991
925
855
802
777
786
812
823
799
750
710
700
707
711
713
728
756
775
766
738
718
716
712
690
659
638
630
614
582
544
519
499
461
399
338
311
314
312
280
225
179
156
133
85
8
-74
-141
-196
-254
-316
-365
-395
-416
-444
-478
-496
-487
-472
-480
-514
-545
-539
-493
-439
-407
-402
-393
-354
-286
-214
-159
-119
-76
-12
68
152
228
296
364
438
514
582
638
683
726
777
835
893
941
976
1006
1045
1094
1145
1186
1215
1240
1264
1284
1295
1301
1310
1325
1331
1312
1268
1218
1187
1175
1165
1139
1105
1089
1101
1123
1124
1101
1075
1065
1065
1050
1011
961
925
913
919
927
927
916
901
890
889
890
873
833
789
767
779
806
827
843
867
902
935
948
940
917
886
856
834
821
809
785
750
722
713
710
696
672
656
653
646
623
598
593
614
636
634
609
585
579
586
597
605
612
614
609
603
596
581
552
510
473
452
443
437
435
444
460
478
493
515
552
601
646
674
693
716
749
784
808
813
798
777
768
781
808
826
821
801
784
788
807
825
824
803
773
747
743
756
771
767
747
727
724
736
741
719
670
609
560
545
563
581
563
519
488
475
411
219
-76
-343
-480
-513
-560
-666
-754
-736
-636
-552
-508
-411
-172
172
500
742
941
1167
1404
1563
1574
1447
1237
993
742
512
335
231
187
184
220
294
396
491
539
519
440
331
223
144
112
135
195
250
261
222
165
130
129
139
135
115
97
95
96
80
43
3
-15
-10
1
2
-7
-16
-29
-51
-81
-108
-124
-141
-175
-223
-264
-280
-281
-296
-340
-396
-437
-454
-463
-485
-522
-560
-583
-598
-619
-650
-683
-711
-743
-796
-863
-921
-954
-976
-1008
-1054
-1092
-1106
-1105
-1109
-1121
-1126
-1112
-1095
-1092
-1102
-1101
-1073
-1028
-983
-953
-934
-916
-883
-829
-757
-684
-625
-579
-525
-451
-371
-308
-265
-223
-170
-115
-78
-55
-19
46
121
177
209
239
290
353
405
433
450
472
503
530
543
547
555
576
604
623
631
638
656
681
697
692
673
655
638
612
574
537
511
493
469
437
412
403
398
382
355
332
318
306
292
286
296
309
307
291
290
319
360
374
346
308
294
305
305
267
208
168
167
185
181
141
85
51
56
79
84
57
19
3
18
43
53
49
47
58
70
66
43
16
-1
-8
-13
-24
-38
-46
-42
-26
-9
-5
-18
-35
-40
-33
-28
-41
-65
-76
-59
-26
-3
1
8
44
109
171
201
202
203
225
257
273
266
250
243
247
251
251
256
268
284
296
305
317
330
332
322
306
292
278
263
247
235
226
207
170
113
48
3
9
62
111
101
43
1
-3
-50
-246
-582
-910
-1083
-1115
-1136
-1223
-1314
-1313
-1226
-1142
-1087
-975
-721
-366
-30
221
433
672
918
1073
1071
927
708
466
229
23
-121
-193
-207
-183
-128
-42
61
148
183
149
57
-55
-143
-186
-184
-159
-129
-107
-98
-111
-149
-205
-253
-266
-243
-205
-177
-168
-175
-198
-241
-294
-336
-346
-329
-305
-292
-290
-294
-304
-322
-343
-353
-351
-352
-375
-413
-445
-458
-460
-470
-498
-546
-607
-670
-721
-752
-772
-807
-878
-971
-1046
-1081
-1098
-1135
-1211
-1302
-1375
-1419
-1446
-1473
-1495
-1507
-1513
-1519
-1525
-1522
-1501
-1474
-1454
-1442
-1423
-1387
-1339
-1294
-1260
-1229
-1191
-1142
-1088
-1035
-979
-914
-832
-742
-660
-599
-553
-504
-440
-369
-307
-266
-236
-197
-144
-91
-49
-19
15
60
109
149
175
199
235
281
330
367
387
391
388
386
392
401
404
392
372
360
362
371
373
362
347
337
332
326
316
305
297
287
272
250
226
197
163
127
103
101
110
107
83
58
58
83
111
120
115
115
126
138
143
149
163
179
178
154
129
120
126
124
103
79
73
86
97
93
87
94
109
107
79
44
32
44
54
38
11
3
23
45
35
-5
-47
-70
-84
-116
-172
-226
-248
-236
-208
-188
-174
-150
-106
-55
-18
-2
9
33
72
109
133
153
183
223
263
296
325
349
361
354
336
324
322
320
303
274
245
228
226
234
245
249
234
204
174
161
165
171
168
155
131
91
41
14
31
60
38
-67
-203
-304
-390
-557
-847
-1146
-1260
-1101
-781
-497
-348
-277
-178
-20
142
250
303
339
381
440
527
656
808
922
928
803
592
375
208
97
13
-65
-131
-155
-111
-8
116
210
229
163
38
-101
-208
-261
-253
-194
-110
-46
-36
-85
-163
-229
-262
-267
-263
-263
-266
-265
-261
-264
-284
-320
-351
-359
-344
-327
-329
-346
-365
-376
-392
-425
-470
-510
-530
-533
-537
-555
-584
-616
-638
-648
-646
-643
-651
-676
-713
-751
-780
-803
-831
-875
-933
-995
-1044
-1077
-1108
-1151
-1209
-1267
-1307
-1327
-1337
-1349
-1363
-1372
-1370
-1357
-1340
-1323
-1308
-1298
-1290
-1277
-1254
-1219
-1181
-1145
-1111
-1072
-1026
-974
-923
-872
-816
-753
-687
-622
-561
-501
-440
-383
-336
-304
-283
-265
-243
-212
-171
-126
-83
-52
-32
-17
2
21
30
24
11
5
13
26
36
41
47
54
51
37
19
9
12
14
6
-5
-7
4
9
-9
-46
-80
-94
-94
-101
-122
-146
-155
-144
-126
-116
-117
-126
-135
-144
-154
-164
-174
-181
-184
-184
-182
-183
-185
-183
-172
-156
-151
-168
-204
-237
-253
-264
-294
-348
-401
-427
-427
-427
-441
-458
-460
-454
-464
-493
-514
-505
-476
-457
-454
-447
-417
-377
-358
-366
-383
-400
-427
-475
-531
-570
-583
-588
-594
-593
-570
-528
-487
-453
-418
-377
-340
-314
-286
-238
-168
-102
-58
-33
-9
20
42
41
15
-21
-48
-62
-69
-74
-78
-77
-66
-49
-37
-39
-57
-82
-105
-126
-156
-191
-215
-216
-204
-204
-226
-262
-301
-341
-380
-411
-429
-456
-515
-604
-699
-809
-986
-1258
-1543
-1678
-1559
-1251
-923
-696
-555
-415
-232
-31
150
292
385
420
413
417
481
594
672
627
446
189
-57
-240
-355
-429
-483
-522
-528
-482
-386
-267
-170
-132
-172
-284
-430
-552
-600
-559
-456
-344
-268
-246
-268
-313
-368
-417
-445
-443
-417
-394
-397
-429
-469
-497
-511
-526
-547
-565
-572
-574
-585
-608
-634
-652
-660
-663
-663
-656
-649
-656
-678
-700
-711
-721
-750
-803
-855
-877
-869
-862
-880
-921
-964
-993
-1014
-1044
-1091
-1151
-1217
-1278
-1325
-1351
-1363
-1375
-1400
-1435
-1458
-1459
-1448
-1445
-1457
-1468
-1457
-1422
-1382
-1352
-1329
-1300
-1256
-1202
-1152
-1114
-1087
-1059
-1015
-948
-867
-794
-741
-696
-636
-553
-463
-392
-347
-311
-267
-216
-172
-140
-109
-63
-9
35
51
50
55
79
111
131
128
116
115
131
154
170
175
175
176
184
194
205
214
219
221
223
224
225
224
221
219
215
209
202
196
193
188
181
172
163
150
128
99
72
51
36
20
4
-5
-7
-7
-10
-13
-10
-4
-6
-11
-5
22
54
62
32
-15
-52
-68
-82
-108
-140
-160
-164
-163
-166
-163
-145
-123
-121
-150
-184
-193
-176
-161
-169
-186
-186
-163
-139
-130
-134
-143
-164
-202
-243
-262
-254
-243
-249
-258
-238
-181
-117
-78
-59
-31
17
67
103
133
175
227
266
279
277
283
302
317
312
289
263
242
226
212
199
183
157
120
89
80
93
109
120
132
158
191
215
221
217
212
204
181
135
81
51
74
135
185
177
120
58
-8
-151
-444
-844
-1186
-1315
-1225
-1042
-886
-769
-638
-468
-277
-77
153
415
656
814
894
970
1096
1230
1272
1151
888
574
301
114
9
-46
-83
-106
-91
-16
105
224
285
261
167
35
-90
-175
-196
-149
-60
28
77
72
25
-47
-120
-170
-180
-150
-103
-72
-71
-92
-121
-147
-165
-175
-180
-182
-183
-183
-185
-197
-228
-270
-303
-313
-307
-308
-327
-352
-365
-361
-356
-362
-377
-388
-390
-391
-404
-431
-461
-486
-509
-544
-597
-659
-719
-770
-817
-862
-906
-948
-992
-1045
-1098
-1134
-1142
-1139
-1147
-1170
-1186
-1175
-1142
-1113
-1098
-1085
-1051
-998
-941
-892
-841
-772
-688
-606
-539
-489
-441
-386
-319
-247
-174
-105
-34
46
136
229
322
409
493
567
624
662
687
708
732
757
780
798
805
804
808
830
867
899
905
889
874
874
879
871
850
829
820
817
812
806
810
825
840
839
825
812
811
821
829
826
814
802
800
803
807
808
808
812
818
822
820
816
815
819
823
821
814
808
814
838
873
900
903
887
878
894
923
934
914
885
879
898
913
902
879
870
878
881
861
826
803
799
798
781
746
706
677
661
653
641
620
595
582
590
612
626
619
595
570
554
544
526
500
479
477
497
525
550
578
625
690
756
800
820
839
877
930
973
991
993
1001
1024
1050
1066
1070
1067
1062
1054
1041
1026
1014
1005
998
997
1004
1019
1034
1045
1053
1060
1070
1083
1092
1089
1068
1032
992
951
923
926
966
1008
1004
943
869
811
715
476
73
-362
-638
-682
-589
-501
-462
-414
-303
-133
75
339
680
1057
1383
1611
1780
1961
2160
2293
2261
2035
1682
1322
1050
889
802
740
698
714
813
962
1091
1150
1134
1063
950
807
665
570
556
619
713
788
812
784
720
645
585
560
570
597
617
613
587
548
502
455
414
390
386
392
389
367
334
310
305
311
309
288
259
235
220
204
177
141
108
85
67
46
19
-8
-28
-43
-64
-99
-151
-209
-260
-300
-331
-367
-414
-470
-524
-571
-614
-661
-709
-749
-777
-797
-815
-826
-816
-781
-733
-687
-651
-619
-582
-539
-490
-439
-387
-338
-294
-249
-189
-110
-21
56
117
178
253
336
408
460
503
555
613
656
678
700
746
815
880
919
944
976
1020
1057
1074
1077
1083
1089
1083
1067
1064
1087
1121
1135
1126
1124
1153
1194
1211
1191
1160
1153
1171
1187
1182
1158
1134
1122
1121
1126
1129
1117
1087
1052
1034
1041
1052
1039
999
956
935
937
944
940
930
928
938
954
966
970
969
963
956
952
951
946
938
939
957
980
984
961
930
914
912
898
854
799
765
760
764
760
747
737
736
739
747
757
764
761
748
739
738
740
737
727
715
699
673
639
613
605
607
606
604
610
631
655
673
686
706
742
789
834
865
884
900
926
963
993
1000
987
981
998
1029
1044
1039
1032
1042
1060
1066
1052
1035
1032
1040
1038
1021
1000
992
998
1000
990
973
959
947
922
877
820
767
732
729
764
816
845
833
805
790
753
602
307
-38
-286
-388
-433
-510
-598
-600
-500
-389
-328
-246
-15
381
799
1092
1262
1427
1659
1887
1978
1869
1607
1292
999
754
567
440
374
358
383
444
534
636
717
737
674
548
413
324
302
335
391
443
469
455
409
359
333
337
347
340
319
307
318
333
322
277
223
187
173
169
157
126
80
27
-19
-46
-54
-54
-65
-90
-119
-146
-175
-208
-242
-273
-304
-347
-405
-459
-492
-499
-502
-525
-575
-640
-695
-729
-751
-783
-839
-914
-987
-1042
-1079
-1108
-1139
-1174
-1204
-1224
-1236
-1243
-1243
-1233
-1213
-1188
-1169
-1158
-1144
-1117
-1075
-1025
-980
-946
-918
-883
-828
-748
-660
-583
-526
-472
-397
-294
-184
-97
-39
11
78
155
216
243
247
257
292
341
381
405
423
450
487
523
553
588
633
675
687
666
638
635
654
659
626
571
534
534
551
552
531
508
503
514
525
528
528
532
532
521
508
503
506
501
475
436
404
385
373
361
346
331
315
298
288
287
285
270
248
239
255
280
288
273
260
266
280
274
233
178
136
116
110
105
88
61
33
21
32
53
58
37
1
-27
-38
-41
-45
-46
-43
-41
-50
-67
-78
-75
-71
-89
-131
-175
-195
-194
-189
-191
-189
-171
-141
-113
-90
-62
-25
7
20
21
35
74
122
150
145
49
56
38
14
5
9
10
-2
-14
-15
-6
0
-4
-11
-15
-15
-25
-64
-141
-235
-299
-293
-241
-215
-253
-304
-293
-245
-284
-500
-816
-1056
-1140
-1165
-1264
-1427
-1517
-1461
-1344
-1294
-1292
-1187
-884
-474
-128
79
228
420
642
784
764
595
353
110
-102
-268
-373
-415
-417
-402
-375
-322
-242
-163
-131
-179
-286
-404
-492
-542
-561
-557
-539
-527
-546
-603
-672
-712
-703
-662
-621
-600
-590
-575
-554
-545
-562
-603
-645
-670
-677
-677
-686
-708
-740
-766
-776
-773
-775
-797
-831
-854
-854
-850
-866
-905
-945
-970
-986
-1009
-1040
-1068
-1094
-1128
-1179
-1229
-1263
-1287
-1330
-1403
-1490
-1565
-1620
-1672
-1734
-1800
-1854
-1889
-1917
-1949
-1977
-1988
-1977
-1965
-1973
-1997
-2009
-1991
-1951
-1917
-1898
-1872
-1817
-1743
-1679
-1634
-1586
-1516
-1432
-1365
-1324
-1286
-1221
-1122
-1011
-910
-826
-754
-688
-618
-545
-476
-423
-392
-371
-347
-323
-311
-306
-289
-252
-214
-198
-202
-197
-160
-109
-81
-89
-115
-131
-135
-141
-159
-182
-200
-212
-226
-239
-244
-241
-237
-245
-265
-289
-309
-326
-345
-366
-385
-397
-401
-397
-391
-389
-398
-419
-442
-459
-464
-459
-456
-461
-473
-485
-485
-475
-467
-474
-498
-527
-542
-537
-522
-515
-523
-543
-569
-598
-627
-651
-669
-686
-704
-720
-728
-720
-701
-680
-664
-655
-649
-645
-641
-635
-626
-614
-605
-600
-599
-601
-614
-643
-688
-737
-781
-816
-845
-871
-888
-887
-868
-840
-810
-776
-732
-680
-634
-598
-563
-516
-461
-419
-405
-413
-422
-422
-422
-432
-446
-451
-441
-430
-431
-440
-439
-414
-377
-349
-343
-349
-353
-347
-336
-331
-336
-350
-374
-408
-449
-485
-508
-533
-573
-613
-618
-579
-542
-559
-629
-705
-781
-925
-1201
-1558
-1841
-1926
-1832
-1683
-1571
-1501
-1432
-1347
-1249
-1121
-937
-707
-480
-293
-125
66
287
478
562
501
304
20
-283
-535
-694
-768
-804
-831
-833
-773
-649
-509
-426
-445
-552
-698
-828
-913
-944
-920
-850
-764
-702
-691
-728
-787
-841
-874
-883
-870
-845
-828
-834
-865
-903
-929
-935
-929
-922
-917
-910
-899
-893
-905
-935
-971
-1004
-1039
-1083
-1132
-1168
-1182
-1185
-1202
-1245
-1298
-1335
-1349
-1359
-1382
-1420
-1455
-1478
-1494
-1518
-1554
-1594
-1632
-1671
-1716
-1762
-1804
-1838
-1865
-1888
-1904
-1913
-1921
-1932
-1946
-1955
-1961
-1973
-1997
-2022
-2031
-2020
-2004
-1996
-1988
-1963
-1914
-1857
-1810
-1773
-1726
-1656
-1570
-1489
-1425
-1372
-1315
-1246
-1169
-1095
-1032
-978
-928
-872
-811
-752
-701
-657
-614
-569
-528
-492
-460
-421
-376
-337
-319
-323
-329
-320
-299
-287
-296
-317
-328
-319
-298
-279
-268
-262
-260
-262
-267
-270
-274
-287
-313
-341
-352
-340
-324
-325
-343
-362
-364
-355
-356
-380
-420
-460
-490
-514
-541
-569
-586
-583
-562
-536
-515
-502
-491
-479
-473
-478
-496
-523
-555
-587
-619
-648
-671
-690
-704
-715
-720
-719
-709
-696
-690
-698
-712
-711
-685
-649
-628
-629
-629
-607
-574
-564
-590
-629
-653
-661
-677
-708
-732
-730
-714
-709
-716
-708
-666
-610
-577
-573
-568
-532
-470
-412
-371
-337
-298
-261
-244
-250
-261
-263
-258
-259
-267
-276
-280
-280
-280
-279
-275
-387
-384
-389
-419
-468
-506
-525
-552
-620
-708
-753
-726
-686
-724
-856
-1000
-1097
-1208
-1445
-1798
-2079
-2088
-1825
-1482
-1247
-1133
-1025
-851
-650
-489
-378
-291
-219
-176
-145
-77
48
168
188
67
-152
-389
-592
-746
-855
-921
-950
-951
-922
-853
-745
-629
-562
-585
-689
-825
-934
-982
-972
-916
-825
-721
-640
-622
-677
-772
-861
-913
-928
-923
-910
-897
-892
-907
-941
-972
-975
-948
-913
-895
-897
-905
-906
-904
-912
-932
-957
-977
-990
-997
-1001
-1003
-1009
-1023
-1045
-1074
-1104
-1131
-1150
-1162
-1180
-1215
-1261
-1299
-1321
-1338
-1373
-1428
-1454
-1398
-1317
-1216
-1115
-1032
-964
-899
-835
-76
-50
-21
-8
-11
-14
-6
9
12
-8
-38
-59
-67
-75
-97
-131
-160
-172
-170
-163
-159
-157
-155
-153
-151
-150
-150
-150
-150
-150
-148
-148
-152
-157
-156
-143
-123
-111
-121
-149
-178
-196
-200
-202
-212
-232
-259
-289
-315
-337
-359
-389
-433
-482
-522
-541
-548
-550
-549
-537
-515
-499
-503
-518
-519
-496
-471
-472
-497
-513
-496
-457
-430
-432
-447
-456
-465
-495
-546
-592
-610
-605
-596
-591
-581
-562
-543
-530
-513
-478
-438
-413
-408
-392
-338
-256
-185
-153
-145
-129
-93
-56
-42
-51
-69
-80
-86
-93
-103
-110
-114
-120
-135
-156
-177
-196
-211
-223
-231
-237
-246
-257
-269
-277
-281
-289
-462
-590
-868
-1289
-1696
-1891
-1820
-1607
-1415
-1296
-1188
-1027
-822
-617
-421
-217
-13
153
263
356
489
659
786
777
603
323
38
-176
-310
-398
-470
-517
-509
-436
-323
-203
-104
-53
-72
-169
-307
-420
-458
-420
-344
-266
-210
-189
-217
-286
-368
-419
-415
-365
-305
-265
-259
-278
-303
-321
-335
-355
-376
-386
-376
-365
-373
-400
-423
-426
-425
-443
-480
-507
-502
-487
-497
-543
-595
-618
-613
-610
-630
-658
-668
-662
-670
-714
-781
-844
-897
-959
-1046
-1140
-1210
-1249
-1279
-1322
-1367
-1389
-1388
-1386
-1401
-1424
-1432
-1427
-1430
-1458
-1493
-1502
-1475
-1429
-1385
-1350
-1311
-1257
-1188
-1113
-1041
-975
-918
-870
-828
-785
-736
-680
-620
-559
-498
-437
-376
-311
-240
-165
-95
-43
-16
-1
19
57
102
134
142
138
143
167
200
221
223
217
222
243
264
269
257
251
265
294
314
314
304
304
320
336
336
318
297
286
284
283
278
269
255
233
207
181
158
134
106
78
56
40
27
13
5
10
25
40
49
55
67
82
91
90
82
70
49
12
-38
-86
-121
-142
-158
-171
-176
-168
-152
-136
-124
-113
-102
-95
-96
-107
-123
-135
-141
-143
-145
-151
-164
-181
-205
-235
-271
-305
-335
-359
-384
-408
-417
-398
-356
-311
-273
-236
-185
-128
-87
-70
-55
-16
42
79
68
29
9
32
77
106
102
80
65
72
93
119
135
135
124
114
116
121
113
89
68
61
62
57
45
45
64
86
85
51
1
-26
-2
61
109
99
42
-13
-58
-168
-424
-798
-1140
-1301
-1268
-1150
-1048
-970
-874
-749
-610
-446
-217
80
373
589
733
876
1064
1250
1333
1252
1024
722
425
185
20
-80
-135
-152
-122
-36
87
215
312
350
313
202
53
-78
-147
-148
-109
-71
-66
-106
-181
-260
-312
-323
-300
-252
-183
-105
-44
-34
-75
-127
-144
-125
-109
-122
-148
-151
-125
-98
-95
-109
-123
-132
-150
-179
-205
-216
-224
-246
-284
-316
-322
-309
-300
-310
-337
-374
-417
-463
-507
-546
-584
-627
-676
-713
-725
-721
-725
-751
-788
-818
-840
-873
-923
-974
-1002
-1002
-991
-986
-979
-953
-906
-861
-841
-844
-844
-821
-771
-712
-665
-637
-615
-575
-501
-398
-285
-184
-108
-61
-28
14
81
156
197
177
128
123
204
327
410
425
431
498
621
726
757
747
764
825
880
880
843
829
858
878
823
700
584
535
546
567
576
606
693
831
983
1114
1207
1250
1233
1175
1129
1127
1138
1103
1016
944
953
1028
1086
1074
1015
968
954
947
935
934
959
989
975
903
807
733
691
645
554
412
278
230
298
431
544
602
652
754
892
994
1021
1025
1074
1159
1197
1140
1050
1034
1111
1185
1156
1033
928
926
992
1021
965
873
818
806
770
678
586
576
654
735
748
727
768
905
1055
1118
1098
1088
1150
1235
1257
1205
1154
1160
1197
1201
1165
1145
1172
1205
1186
1124
1099
1161
1252
1262
1145
983
901
939
1009
1006
925
871
934
1089
1219
1249
1204
1162
1134
1056
887
697
623
706
828
842
760
741
869
1001
908
559
186
34
88
130
28
-106
-86
98
287
374
437
611
910
1219
1445
1599
1716
1793
1797
1729
1599
1381
1048
665
393
354
512
709
840
935
1075
1283
1500
1651
1690
1594
1364
1074
864
840
974
1123
1161
1090
1009
995
1038
1085
1096
1053
954
822
715
683
705
710
661
600
602
680
782
854
884
882
850
788
718
678
670
654
602
532
481
459
439
407
384
387
390
360
311
301
356
409
365
222
89
56
99
108
33
-71
-120
-110
-104
-143
-195
-222
-233
-267
-331
-383
-392
-372
-344
-303
-231
-144
-97
-117
-153
-127
-21
99
151
128
109
156
254
338
380
420
493
561
565
520
526
658
855
966
913
771
675
679
720
736
727
744
813
919
1049
1196
1332
1409
1392
1311
1234
1192
1166
1131
1102
1119
1189
1254
1251
1181
1112
1109
1164
1203
1161
1050
943
914
971
1064
1126
1119
1059
1002
1004
1085
1195
1232
1122
884
640
529
579
685
718
669
673
861
1222
1604
1862
1992
2063
2072
1940
1652
1343
1178
1181
1212
1152
1057
1073
1225
1373
1357
1157
863
531
141
-292
-633
-734
-569
-236
177
689
1337
2028
2566
2826
2865
2831
2747
2490
1978
1349
909
846
1055
1280
1380
1442
1630
1938
2145
2027
1594
1088
766
693
715
669
567
583
854
1309
1730
1966
2053
2115
2195
2243
2214
2157
2138
2138
2068
1895
1694
1600
1673
1844
1974
1950
1779
1586
1505
1551
1600
1524
1322
1094
911
755
603
488
479
592
769
916
965
902
769
654
620
621
534
317
85
-1
46
52
-84
-230
-162
173
606
940
1162
1412
1795
2250
2605
2715
2574
2294
2008
1772
1563
1338
1102
915
842
877
952
987
951
889
875
919
906
678
224
-247
-487
-455
-322
-240
-177
-7
295
635
940
1209
1412
1423
1166
785
534
501
517
379
130
2
122
376
580
694
804
938
1005
929
776
672
644
598
461
290
204
232
276
223
73
-85
-170
-202
-272
-425
-608
-708
-674
-572
-521
-548
-568
-489
-358
-334
-519
-840
-1130
-1298
-1399
-1527
-1671
-1731
-1651
-1484
-1316
-1170
-998
-779
-551
-356
-191
-38
75
94
17
-76
-109
-90
-86
-124
-146
-108
-34
29
97
236
442
603
615
504
389
331
287
226
216
346
572
739
772
781
936
1237
1500
1553
1419
1245
1135
1061
952
820
739
746
805
868
931
1019
1115
1152
1080
923
760
667
670
738
812
831
754
608
484
460
538
629
653
622
623
712
841
919
910
858
826
829
838
824
785
724
641
545
454
389
354
339
337
342
341
329
316
328
374
428
459
463
444
388
272
121
16
13
84
142
154
173
236
282
207
15
-149
-158
-54
-10
-116
-264
-266
-75
168
296
293
279
332
397
383
302
260
317
400
402
318
265
327
445
481
376
205
91
78
116
144
150
149
155
168
181
175
137
75
19
-20
-61
-118
-161
-151
-105
-92
-151
-241
-301
-331
-376
-454
-540
-636
-796
-1037
-1272
-1419
-1529
-1728
-2010
-2155
-1932
-1370
-758
-348
-135
40
250
407
420
331
243
194
140
74
71
186
350
423
337
145
-49
-206
-371
-571
-765
-873
-857
-762
-676
-642
-646
-649
-639
-663
-769
-947
-1105
-1143
-1052
-951
-987
-1208
-1508
-1722
-1763
-1666
-1510
-1326
-1103
-847
-602
-418
-315
-286
-332
-466
-677
-912
-1094
-1160
-1117
-1037
-993
-993
-989
-931
-842
-801
-868
-1025
-1193
-1314
-1390
-1432
-1417
-1319
-1164
-1054
-1087
-1256
-1443
-1524
-1488
-1450
-1528
-1722
-1922
-2024
-2019
-1981
-1965
-1953
-1902
-1822
-1784
-1839
-1941
-1975
-1871
-1674
-1515
-1496
-1613
-1782
-1898
-1900
-1794
-1639
-1523
-1493
-1504
-1433
-1179
-803
-503
-456
-646
-896
-1041
-1054
-998
-926
-836
-728
-644
-620
-616
-562
-444
-337
-336
-457
-622
-727
-693
-514
-262
-46
45
-5
-140
-270
-344
-355
-339
-345
-391
-440
-406
-246
-27
98
40
-117
-185
-60
169
309
273
146
87
171
326
433
446
400
358
341
314
246
138
23
-72
-151
-242
-355
-458
-496
-452
-357
-264
-188
-106
-17
23
-45
-188
-288
-263
-176
-164
-252
-311
-207
22
185
159
37
-5
77
160
144
105
177
353
471
402
205
38
-44
-132
-314
-548
-727
-816
-857
-861
-759
-499
-163
86
165
145
147
207
245
187
54
-64
-100
-56
29
111
152
113
-2
-126
-165
-103
-26
-21
-70
-47
128
383
561
584
521
478
461
396
249
86
-2
3
35
34
3
-27
-42
-40
-27
-22
-65
-179
-304
-325
-204
-48
-7
-112
-249
-327
-420
-671
-1081
-1449
-1574
-1462
-1296
-1196
-1109
-935
-695
-510
-423
-324
-96
216
454
541
576
695
882
975
846
544
223
-16
-193
-364
-524
-617
-622
-574
-511
-429
-312
-202
-181
-288
-466
-611
-676
-702
-737
-768
-746
-662
-588
-606
-734
-906
-1019
-1014
-925
-851
-872
-972
-1054
-1045
-984
-980
-1078
-1199
-1231
-1152
-1051
-1032
-1110
-1217
-1283
-1302
-1319
-1377
-1477
-1573
-1610
-1584
-1553
-1584
-1660
-1691
-1622
-1519
-1512
-1644
-1821
-1910
-1893
-1875
-1949
-2088
-2188
-2185
-2120
-2071
-2073
-2105
-2136
-2165
-2209
-2258
-2290
-2308
-2338
-2402
-2488
-2554
-2567
-2531
-2473
-2424
-2407
-2422
-2435
-2392
-2273
-2139
-2083
-2117
-2150
-2067
-1864
-1656
-1550
-1539
-1520
-1430
-1295
-1191
-1145
-1126
-1096
-1049
-999
-948
-889
-815
-736
-674
-649
-671
-707
-708
-658
-601
-596
-635
-637
-539
-383
-280
-290
-359
-390
-360
-342
-394
-485
-537
-518
-476
-470
-497
-508
-481
-449
-462
-525
-599
-647
-670
-690
-716
-747
-781
-807
-808
-773
-718
-682
-685
-709
-705
-655
-595
-571
-587
-600
-573
-526
-523
-599
-714
-787
-776
-715
-687
-730
-796
-819
-787
-750
-755
-795
-835
-862
-892
-920
-919
-876
-826
-821
-864
-909
-913
-878
-847
-859
-920
-1003
-1065
-1075
-1053
-1053
-1104
-1161
-1151
-1056
-947
-902
-911
-888
-790
-669
-608
-616
-629
-598
-558
-566
-621
-654
-615
-525
-457
-440
-439
-405
-334
-269
-253
-284
-332
-378
-422
-476
-535
-580
-594
-581
-554
-525
-508
-508
-518
-523
-520
-528
-567
-645
-745
-824
-832
-755
-653
-616
-671
-753
-783
-791
-903
-1186
-1533
-1746
-1739
-1619
-1535
-1510
-1450
-1302
-1128
-1002
-896
-712
-430
-142
52
170
314
526
721
760
588
285
-5
-203
-338
-481
-649
-783
-811
-732
-616
-535
-498
-482
-484
-526
-606
-688
-728
-707
-631
-515
-392
-312
-306
-355
-400
-403
-385
-389
-420
-434
-401
-347
-332
-392
-499
-593
-634
-628
-613
-620
-645
-660
-640
-596
-555
-530
-515
-512
-539
-612
-710
-793
-839
-860
-878
-904
-931
-948
-944
-914
-869
-839
-861
-935
-1024
-1095
-1149
-1199
-1243
-1271
-1297
-1363
-1475
-1582
-1623
-1600
-1574
-1591
-1624
-1612
-1532
-1430
-1356
-1312
-1259
-1182
-1105
-1069
-1075
-1084
-1051
-969
-881
-833
-828
-828
-787
-698
-595
-524
-506
-533
-578
-621
-645
-633
-577
-483
-367
-241
-98
71
251
399
473
468
420
384
383
402
424
457
517
605
703
784
837
863
858
819
756
687
637
617
623
649
690
724
718
648
532
428
386
399
401
333
215
132
157
269
369
381
318
249
228
252
296
347
399
438
444
430
454
552
676
732
668
535
423
373
351
311
259
232
254
311
381
465
562
645
672
637
577
532
501
462
415
387
400
441
483
508
514
502
461
392
305
216
137
79
62
89
129
142
128
142
218
317
359
320
267
278
348
403
403
390
426
503
554
545
513
512
536
537
495
445
421
413
392
362
355
378
398
390
372
375
403
431
439
445
469
490
469
393
306
267
304
375
415
403
384
415
465
432
246
-30
-246
-317
-308
-333
-401
-411
-307
-170
-119
-146
-104
117
457
752
917
1016
1151
1332
1462
1454
1303
1065
804
561
360
225
164
158
174
196
232
299
396
477
478
382
247
169
188
264
325
345
356
385
408
373
277
183
156
197
246
242
183
112
66
54
53
48
37
31
44
82
137
181
182
134
65
16
-1
-13
-53
-119
-176
-193
-180
-172
-193
-233
-267
-289
-307
-328
-354
-384
-423
-468
-503
-517
-523
-554
-623
-702
-757
-780
-793
-819
-851
-876
-895
-916
-943
-965
-976
-984
-1001
-1024
-1036
-1024
-992
-953
-912
-874
-838
-804
-766
-718
-661
-605
-556
-505
-447
-387
-335
-294
-255
-209
-161
-120
-88
-58
-19
29
82
135
182
225
267
316
373
431
476
505
522
532
533
525
508
488
469
450
435
427
426
426
418
400
379
361
346
331
311
294
282
279
279
275
267
253
235
216
199
178
151
117
87
69
65
61
47
23
0
-13
-18
-26
-41
-58
-67
-66
-56
-48
-50
-63
-76
-79
-76
-86
-120
-160
-175
-154
-126
-128
-158
-175
-150
-103
-82
-102
-130
-127
-98
-81
-98
-132
-156
-168
-189
-226
-261
-271
-256
-233
-214
-190
-149
-91
-33
9
32
40
36
29
34
59
99
137
160
173
192
226
262
278
266
238
212
196
188
184
188
196
199
185
154
121
98
83
64
38
13
-3
-14
-23
-29
-28
-38
-70
-107
-109
-73
-41
-52
-92
-128
-177
-313
-566
-848
-1020
-1039
-984
-947
-920
-840
-707
-595
-542
-482
-323
-68
183
355
478
630
824
987
1038
954
766
521
262
30
-146
-257
-315
-336
-320
-272
-205
-139
-99
-104
-165
-271
-384
-459
-475
-432
-355
-283
-253
-286
-370
-461
-521
-544
-555
-577
-605
-616
-610
-617
-659
-723
-772
-780
-764
-755
-769
-789
-796
-790
-788
-800
-822
-842
-854
-863
-871
-877
-883
-893
-908
-927
-946
-968
-993
-1020
-1040
-1052
-1064
-1086
-1116
-1144
-1161
-1173
-1196
-1241
-1301
-1358
-1397
-1417
-1428
-1445
-1471
-1499
-1513
-1504
-1480
-1462
-1467
-1487
-1500
-1491
-1466
-1446
-1445
-1453
-1452
-1432
-1397
-1354
-1310
-1264
-1213
-1154
-1085
-1005
-920
-836
-760
-691
-626
-565
-507
-453
-401
-355
-315
-278
-235
-184
-132
-90
-60
-33
0
36
61
73
82
100
125
142
145
143
150
162
162
143
120
106
99
87
66
48
41
34
10
-28
-55
-56
-46
-54
-82
-104
-98
-74
-68
-98
-142
-173
-189
-214
-261
-308
-325
-311
-298
-307
-324
-315
-278
-244
-250
-290
-327
-337
-330
-333
-353
-372
-379
-378
-385
-399
-414
-429
-446
-463
-466
-448
-421
-406
-407
-411
-406
-404
-422
-464
-513
-553
-582
-604
-617
-612
-593
-576
-568
-561
-541
-511
-487
-479
-478
-467
-438
-399
-358
-315
-272
-232
-197
-161
-122
-92
-85
-97
-110
-106
-91
-89
-112
-145
-164
-162
-148
-141
-144
-151
-156
-154
-150
-150
-156
-164
-168
-169
-172
-178
-194
-229
-283
-331
-343
-324
-323
-387
-496
-594
-680
-822
-1075
-1366
-1518
-1414
-1111
-776
-527
-360
-213
-63
75
190
282
335
326
271
245
313
450
550
523
366
148
-60
-233
-377
-502
-606
-678
-699
-656
-557
-437
-342
-309
-344
-438
-562
-679
-748
-747
-683
-592
-515
-477
-481
-518
-571
-619
-638
-615
-566
-524
-516
-540
-571
-592
-606
-624
-646
-658
-653
-645
-649
-667
-686
-701
-715
-737
-764
-788
-808
-831
-859
-886
-910
-933
-963
-992
-1009
-1015
-1022
-1039
-1062
-1079
-1092
-1110
-1135
-1162
-1188
-1222
-1270
-1322
-1358
-1378
-1403
-1450
-1507
-1547
-1560
-1565
-1584
-1615
-1635
-1627
-1603
-1585
-1584
-1589
-1582
-1559
-1529
-1505
-1488
-1466
-1426
-1364
-1294
-1232
-1184
-1137
-1074
-997
-919
-856
-802
-746
-683
-620
-565
-515
-464
-408
-354
-309
-276
-251
-227
-200
-168
-137
-116
-112
-114
-109
-91
-74
-75
-98
-130
-153
-161
-159
-154
-146
-138
-138
-146
-158
-158
-144
-126
-127
-154
-196
-223
-222
-200
-186
-197
-224
-242
-236
-216
-202
-203
-209
-205
-196
-196
-213
-233
-238
-228
-224
-242
-273
-293
-285
-260
-245
-258
-290
-323
-342
-346
-346
-352
-368
-385
-390
-378
-362
-363
-387
-412
-415
-398
-385
-398
-425
-440
-429
-409
-408
-434
-477
-521
-554
-575
-585
-592
-601
-607
-603
-586
-560
-528
-489
-443
-400
-372
-356
-329
-271
-198
-143
-128
-139
-146
-139
-129
-129
-135
-139
-140
-147
-164
-180
-186
-184
-188
-209
-244
-280
-306
-315
-305
-291
-290
-307
-329
-336
-327
-320
-332
-368
-412
-438
-423
-371
-319
-308
-352
-427
-528
-695
-966
-1303
-1575
-1660
-1548
-1337
-1125
-943
-779
-631
-502
-371
-199
8
184
272
302
365
515
693
774
678
427
118
-154
-352
-491
-608
-719
-799
-804
-720
-582
-453
-387
-396
-465
-574
-698
-804
-855
-829
-743
-648
-595
-602
-653
-717
-768
-794
-791
-772
-756
-759
-781
-809
-836
-864
-897
-922
-920
-888
-851
-837
-855
-889
-923
-950
-974
-1000
-1028
-1055
-1079
-1094
-1106
-1125
-1160
-1205
-1238
-1250
-1260
-1291
-1344
-1387
-1397
-1387
-1396
-1440
-1496
-1525
-1522
-1517
-1542
-1595
-1648
-1682
-1702
-1724
-1755
-1787
-1809
-1817
-1811
-1796
-1777
-1762
-1753
-1742
-1717
-1681
-1654
-1649
-1656
-1647
-1605
-1544
-1486
-1437
-1383
-1308
-1216
-1125
-1046
-973
-896
-811
-729
-665
-618
-575
-524
-470
-427
-405
-395
-377
-342
-300
-269
-249
-223
-185
-147
-130
-132
-132
-110
-79
-67
-83
-111
-127
-133
-142
-164
-189
-209
-229
-252
-268
-261
-227
-186
-162
-158
-158
-150
-141
-142
-152
-163
-173
-194
-228
-263
-274
-258
-236
-232
-250
-266
-262
-242
-229
-239
-259
-271
-266
-260
-270
-297
-327
-350
-371
-399
-433
-458
-465
-458
-449
-444
-436
-422
-407
-403
-410
-416
-405
-383
-369
-376
-391
-395
-380
-361
-359
-378
-406
-440
-484
-536
-582
-607
-611
-606
-601
-592
-574
-553
-539
-527
-502
-459
-419
-397
-382
-338
-255
-168
-126
-136
-161
-162
-146
-148
-192
-254
-293
-296
-286
-296
-330
-358
-351
-315
-292
-317
-377
-419
-410
-375
-361
-385
-415
-416
-397
-398
-444
-517
-564
-548
-478
-408
-391
-431
-478
-505
-575
-792
-1173
-1578
-1814
-1804
-1650
-1499
-1400
-1298
-1142
-954
-772
-589
-376
-147
36
144
222
342
502
619
596
412
124
-172
-412
-579
-692
-771
-817
-807
-727
-597
-456
-347
-305
-344
-459
-610
-735
-784
-755
-686
-623
-592
-592
-618
-673
-755
-842
-899
-908
-883
-858
-857
-873
-884
-885
-884
-890
-894
-880
-842
-801
-785
-806
-850
-893
-919
-933
-952
-981
-1011
-1029
-1037
-1043
-1057
-1074
-1086
-1093
-1105
-1128
-1159
-1189
-1218
-1246
-1269
-1287
-1306
-1343
-1399
-1461
-1510
-1544
-1578
-1624
-1677
-1725
-1762
-1794
-1822
-1844
-1858
-1866
-1875
-1881
-1875
-1861
-1851
-1846
-1836
-1806
-1759
-1715
-1683
-1653
-1600
-1518
-1426
-1348
-1293
-1244
-1183
-1110
-1038
-982
-940
-899
-845
-780
-713
-650
-589
-522
-446
-371
-306
-253
-206
-165
-135
-118
-105
-87
-63
-45
-38
-34
-23
-8
-3
-9
-15
-11
-5
-11
-29
-41
-32
-12
-1
-5
-13
-14
-16
-29
-53
-75
-92
-109
-133
-155
-165
-163
-160
-164
-171
-173
-171
-175
-187
-201
-212
-222
-237
-255
-266
-266
-261
-264
-277
-293
-303
-311
-323
-343
-365
-381
-387
-384
-377
-367
-354
-339
-323
-313
-310
-310
-308
-302
-302
-315
-336
-345
-331
-303
-287
-300
-331
-353
-354
-358
-391
-454
-514
-541
-533
-512
-498
-490
-472
-433
-381
-329
-290
-266
-247
-216
-162
-89
-19
29
57
79
109
141
161
157
132
99
79
80
96
106
100
93
109
149
185
188
166
154
165
179
166
127
90
71
53
10
-62
-120
-117
-54
11
26
0
-14
-9
-70
-295
-663
-1022
-1210
-1199
-1095
-1010
-960
-894
-785
-642
-470
-243
39
322
542
692
830
1003
1179
1269
1201
974
656
343
106
-35
-102
-137
-155
-136
-54
83
228
326
339
258
104
-72
-207
-260
-232
-161
-96
-64
-65
-86
-125
-180
-242
-288
-296
-267
-231
-220
-245
-286
-315
-320
-311
-300
-288
-267
-236
-210
-204
-221
-249
-274
-292
-305
-320
-338
-355
-368
-376
-385
-396
-411
-430
-454
-483
-518
-557
-600
-643
-686
-723
-755
-785
-814
-840
-860
-885
-931
-1001
-1072
-1110
-1113
-1117
-1156
-1218
-1256
-1241
-1201
-1188
-1219
-1261
-1279
-1267
-1249
-1231
-1202
-1148
-1080
-1019
-964
-898
-810
-717
-644
-594
-547
-489
-427
-375
-328
-271
-198
-124
-69
-32
12
88
187
277
332
360
396
461
537
589
601
596
607
640
673
682
679
684
705
719
708
683
670
679
694
698
688
674
659
631
594
565
556
552
534
504
489
506
541
558
543
511
491
489
489
480
466
458
457
454
448
448
461
474
469
440
407
396
409
425
429
419
408
402
397
387
377
371
358
333
304
290
298
312
307
282
264
274
303
316
298
269
269
312
368
388
356
295
245
220
204
177
136
98
77
79
96
119
141
167
200
239
272
287
291
314
371
443
492
501
498
519
565
599
596
567
544
539
545
549
558
573
579
561
525
497
497
509
499
455
410
400
430
462
454
403
335
278
234
207
215
260
304
308
290
299
331
294
105
-187
-433
-532
-539
-571
-646
-676
-612
-513
-464
-430
-298
-27
285
521
685
867
1105
1319
1410
1364
1231
1042
800
535
324
222
203
190
156
150
220
341
433
435
355
239
129
47
9
23
74
124
138
115
79
44
7
-39
-83
-104
-91
-59
-36
-42
-78
-119
-141
-140
-139
-164
-209
-245
-252
-242
-243
-261
-278
-273
-256
-249
-257
-273
-293
-329
-387
-447
-483
-492
-501
-535
-584
-620
-630
-634
-661
-715
-775
-824
-861
-899
-947
-996
-1034
-1058
-1082
-1118
-1167
-1218
-1253
-1267
-1270
-1273
-1284
-1296
-1296
-1277
-1244
-1208
-1182
-1168
-1155
-1130
-1085
-1027
-967
-908
-848
-785
-726
-682
-649
-615
-568
-508
-447
-392
-347
-299
-241
-167
-81
6
81
138
183
233
295
362
418
446
452
448
450
457
461
462
462
463
464
463
463
471
484
489
475
448
421
404
392
379
364
353
350
357
365
366
359
350
352
363
367
346
308
281
280
292
288
258
227
218
227
231
218
204
203
211
209
192
167
144
127
112
97
86
72
53
29
14
22
50
79
88
74
58
61
83
98
84
50
29
45
87
122
127
110
97
98
104
95
69
38
18
18
33
56
87
126
167
204
233
262
299
343
378
398
408
428
462
492
498
482
464
458
454
441
418
406
419
450
478
492
501
513
530
547
564
576
576
559
531
514
516
514
479
407
336
315
362
438
482
474
458
479
502
422
183
-131
-364
-443
-440
-462
-518
-521
-432
-325
-286
-278
-179
65
369
612
776
946
1178
1419
1558
1543
1400
1187
949
711
505
359
280
251
260
308
392
495
581
615
583
500
402
328
299
315
359
408
442
450
425
373
312
263
243
246
252
242
214
180
152
132
110
84
61
55
66
78
78
63
46
39
38
29
7
-17
-29
-30
-39
-70
-114
-146
-155
-158
-181
-229
-277
-303
-311
-332
-385
-457
-516
-544
-556
-579
-619
-657
-679
-695
-726
-779
-834
-871
-889
-906
-935
-966
-976
-952
-907
-870
-854
-851
-837
-799
-743
-690
-652
-621
-584
-534
-482
-437
-393
-340
-278
-220
-174
-127
-56
45
155
246
315
383
464
547
609
647
680
725
774
809
828
847
880
919
948
959
968
984
1003
1012
1012
1009
1014
1024
1032
1035
1037
1040
1040
1037
1032
1025
1016
1006
996
988
979
965
941
910
882
864
854
841
819
793
778
782
795
801
797
792
795
803
805
801
797
795
786
764
734
708
688
666
638
612
598
589
578
565
561
570
579
572
549
533
538
560
579
583
575
569
576
593
603
591
556
516
492
487
490
489
490
507
542
577
601
623
655
699
738
758
764
776
807
857
912
957
980
986
994
1023
1065
1090
1078
1044
1021
1026
1042
1043
1028
1018
1029
1051
1063
1059
1047
1038
1031
1024
1019
1017
1015
1004
977
933
882
847
843
853
831
751
649
576
516
383
125
-167
-308
-191
106
404
594
704
811
933
1040
1119
1185
1237
1252
1232
1232
1314
1458
1568
1551
1404
1198
1006
856
739
643
570
537
561
652
787
926
1024
1057
1026
942
822
697
610
595
653
744
819
843
814
751
682
627
602
606
622
631
627
615
600
575
538
504
495
517
544
551
538
529
536
545
533
499
465
450
447
439
415
385
362
350
344
342
344
349
351
344
330
314
301
285
259
218
165
115
78
49
16
-25
-66
-94
-109
-124
-147
-170
-177
-171
-173
-198
-234
-255
-246
-225
-215
-218
-208
-161
-82
-1
60
103
143
186
227
261
293
332
373
409
438
473
522
580
631
669
699
731
768
807
845
887
937
992
1042
1078
1104
1128
1151
1168
1171
1164
1157
1157
1160
1154
1139
1125
1121
1125
1125
1117
1107
1105
1110
1115
1113
1106
1095
1078
1056
1034
1017
1005
994
982
971
964
960
962
971
984
992
986
972
961
960
962
955
934
904
872
841
809
778
746
714
685
664
655
653
653
653
656
660
656
641
623
619
631
645
641
623
609
610
614
606
583
555
530
505
475
447
434
440
455
471
489
517
555
594
630
667
711
760
800
826
847
881
935
996
1036
1046
1039
1032
1032
1026
1002
962
918
882
855
838
829
833
846
858
861
855
847
836
819
794
766
745
738
740
739
717
677
650
674
744
798
775
685
590
511
377
102
-275
-574
-631
-446
-174
44
196
350
545
750
929
1087
1237
1360
1424
1446
1494
1606
1734
1774
1663
1432
1174
964
823
729
654
597
582
630
735
859
955
990
956
860
721
575
468
432
469
548
625
671
667
617
536
454
402
393
416
443
457
450
426
390
347
308
282
271
270
273
275
276
272
259
236
207
183
168
156
135
104
74
63
71
84
86
78
68
59
38
-1
-45
-78
-98
-125
-175
-236
-286
-318
-349
-399
-469
-543
-606
-655
-693
-726
-754
-776
-785
-774
-751
-736
-741
-751
-740
-698
-651
-628
-629
-622
-586
-527
-469
-423
-377
-319
-247
-170
-93
-15
64
141
209
264
302
326
342
358
378
403
430
462
497
535
573
617
670
723
757
766
761
760
771
780
772
748
720
697
679
665
658
663
673
679
676
667
656
641
621
601
589
585
580
565
546
533
535
541
539
524
505
494
494
498
500
498
491
482
469
456
444
430
411
382
349
316
284
252
219
196
185
181
175
167
169
184
203
207
194
187
207
244
263
244
203
181
195
221
222
186
132
87
55
29
7
-6
-6
3
16
35
64
97
125
143
161
186
217
247
281
330
394
455
494
506
502
494
487
477
461
442
421
403
394
402
422
441
452
455
456
458
455
441
417
392
375
361
339
300
248
190
129
80
76
131
211
255
234
190
162
104
-82
-424
-793
-1002
-976
-817
-672
-591
-520
-405
-263
-129
4
171
364
528
621
674
755
884
998
1002
852
587
303
80
-57
-134
-185
-216
-206
-140
-32
84
177
218
190
91
-51
-182
-251
-235
-155
-57
7
11
-37
-110
-170
-202
-210
-210
-208
-203
-192
-187
-205
-246
-290
-307
-294
-271
-260
-263
-266
-262
-262
-278
-308
-339
-361
-373
-379
-380
-380
-390
-419
-460
-492
-509
-526
-564
-620
-674
-709
-733
-763
-801
-831
-846
-862
-898
-954
-1011
-1056
-1096
-1145
-1197
-1240
-1266
-1283
-1300
-1311
-1302
-1275
-1249
-1241
-1246
-1244
-1226
-1197
-1173
-1158
-1147
-1129
-1101
-1068
-1034
-998
-952
-895
-832
-773
-717
-655
-582
-502
-422
-344
-265
-189
-127
-83
-43
8
68
123
166
205
250
296
331
358
394
443
486
499
481
462
468
495
520
523
505
480
462
457
469
488
496
481
450
426
423
426
416
388
361
349
343
327
302
284
284
286
272
239
207
187
173
152
121
91
77
81
99
124
142
150
154
168
192
208
197
167
141
136
142
139
124
110
110
123
133
130
118
106
98
92
85
65
35
9
6
29
58
57
14
-47
-91
-105
-104
-112
-135
-152
-142
-104
-52
-1
45
86
120
150
182
218
249
265
272
284
305
322
320
299
276
269
272
270
256
239
237
259
299
337
354
351
345
348
361
376
380
369
346
313
277
239
200
165
160
197
254
295
309
322
339
300
131
-159
-445
-609
-647
-653
-692
-731
-711
-641
-574
-514
-388
-144
172
456
658
820
1003
1200
1329
1313
1133
838
511
224
18
-112
-191
-239
-244
-181
-52
102
221
261
221
130
27
-65
-129
-150
-122
-65
-24
-32
-82
-141
-186
-218
-249
-270
-269
-248
-228
-236
-281
-342
-389
-402
-390
-378
-387
-409
-421
-412
-403
-419
-462
-502
-523
-534
-561
-604
-637
-644
-637
-644
-669
-694
-695
-678
-670
-690
-736
-786
-831
-875
-933
-1006
-1081
-1141
-1187
-1239
-1303
-1361
-1383
-1367
-1353
-1375
-1425
-1454
-1429
-1372
-1333
-1338
-1361
-1359
-1320
-1268
-1240
-1244
-1255
-1247
-1219
-1182
-1149
-1115
-1068
-1005
-936
-870
-806
-733
-653
-576
-516
-464
-408
-345
-285
-235
-190
-140
-87
-38
5
54
114
177
227
258
278
296
307
307
302
299
294
277
261
270
310
354
371
359
344
345
345
328
296
270
253
229
199
189
213
246
246
210
178
180
201
201
170
142
144
164
172
161
151
157
164
150
118
93
87
91
81
51
8
-31
-59
-78
-96
-117
-141
-158
-163
-165
-177
-199
-212
-205
-187
-184
-205
-236
-248
-235
-212
-192
-179
-169
-164
-175
-200
-226
-246
-269
-305
-349
-386
-403
-408
-406
-396
-368
-327
-295
-288
-294
-279
-226
-152
-94
-68
-55
-24
37
103
144
145
111
62
16
-12
-23
-31
-48
-74
-90
-86
-66
-50
-53
-71
-90
-100
-98
-87
-86
-109
-160
-220
-260
-252
-208
-171
-174
-199
-201
-182
-209
-351
-590
-816
-939
-971
-992
-1038
-1064
-1030
-966
-939
-941
-879
-679
-387
-118
67
211
386
592
757
807
723
530
277
19
-189
-312
-357
-360
-346
-307
-224
-106
7
59
18
-98
-238
-346
-403
-418
-412
-393
-359
-317
-292
-309
-364
-424
-448
-421
-370
-338
-347
-384
-423
-450
-475
-507
-542
-566
-576
-583
-596
-612
-625
-635
-648
-669
-691
-703
-708
-718
-740
-771
-799
-815
-817
-815
-827
-863
-921
-980
-1018
-1037
-1059
-1099
-1154
-1204
-1237
-1262
-1292
-1330
-1373
-1421
-1477
-1535
-1582
-1611
-1628
-1645
-1659
-1656
-1635
-1614
-1610
-1616
-1611
-1584
-1547
-1522
-1514
-1510
-1494
-1463
-1419
-1363
-1301
-1243
-1195
-1150
-1089
-1002
-906
-826
-776
-746
-709
-650
-576
-505
-449
-402
-347
-276
-198
-130
-77
-32
12
52
79
92
106
132
164
187
192
188
190
203
217
216
199
178
163
156
154
155
156
156
155
152
146
137
119
94
68
48
32
14
-12
-37
-53
-55
-51
-52
-59
-65
-63
-53
-42
-37
-39
-44
-49
-55
-68
-86
-106
-122
-142
-176
-222
-259
-267
-249
-231
-231
-242
-239
-215
-192
-193
-221
-255
-275
-282
-288
-299
-315
-333
-350
-361
-364
-367
-385
-423
-470
-504
-518
-523
-526
-523
-502
-464
-416
-365
-307
-240
-174
-120
-81
-43
-1
40
66
75
77
79
78
69
52
35
19
3
-17
-36
-49
-56
-67
-85
-102
-106
-93
-79
-88
-118
-149
-163
-165
-176
-211
-270
-334
-375
-366
-310
-254
-249
-298
-353
-391
-473
-680
-994
-1256
-1304
-1128
-872
-670
-540
-416
-272
-145
-64
6
102
205
262
273
308
422
574
654
586
386
136
-90
-266
-399
-501
-572
-601
-577
-494
-371
-242
-156
-149
-227
-363
-511
-630
-692
-691
-638
-563
-507
-494
-523
-567
-605
-629
-641
-639
-618
-588
-571
-587
-634
-685
-720
-732
-732
-731
-734
-741
-752
-768
-784
-796
-804
-809
-809
-806
-802
-802
-813
-831
-853
-878
-901
-921
-938
-954
-974
-996
-1017
-1036
-1057
-1089
-1134
-1185
-1228
-1257
-1274
-1295
-1333
-1382
-1427
-1455
-1471
-1493
-1527
-1563
-1587
-1593
-1593
-1592
-1583
-1558
-1524
-1497
-1482
-1463
-1426
-1380
-1352
-1351
-1357
-1334
-1277
-1211
-1164
-1132
-1091
-1027
-949
-876
-814
-756
-695
-637
-584
-530
-467
-397
-333
-278
-228
-173
-115
-65
-24
11
46
77
99
110
107
89
60
28
0
-28
-63
-108
-152
-179
-182
-172
-160
-153
-152
-157
-167
-180
-192
-206
-227
-255
-282
-291
-276
-246
-223
-217
-219
-212
-194
-184
-200
-240
-283
-304
-300
-284
-273
-276
-283
-287
-286
-289
-307
-342
-389
-433
-464
-480
-489
-496
-503
-503
-495
-482
-477
-486
-503
-512
-508
-500
-503
-521
-543
-558
-563
-571
-594
-636
-688
-738
-776
-801
-817
-828
-828
-812
-777
-734
-692
-651
-604
-554
-515
-497
-490
-470
-427
-378
-347
-339
-328
-290
-229
-176
-154
-155
-159
-155
-153
-161
-173
-179
-175
-174
-185
-200
-204
-194
-187
-195
-215
-237
-254
-269
-292
-330
-390
-458
-500
-491
-457
-454
-512
-594
-656
-732
-917
-1240
-1575
-1727
-1617
-1353
-1114
-974
-876
-738
-549
-353
-180
-35
73
126
138
171
272
410
490
434
254
29
-166
-305
-407
-493
-568
-617
-623
-581
-500
-404
-331
-319
-391
-531
-684
-792
-830
-804
-740
-659
-587
-546
-551
-598
-665
-719
-742
-733
-705
-678
-667
-678
-705
-735
-758
-770
-772
-768
-768
-780
-807
-843
-875
-897
-912
-930
-953
-972
-976
-967
-959
-970
-998
-1029
-1049
-1057
-1059
-1061
-1068
-1085
-1118
-1163
-1209
-1246
-1284
-1336
-1403
-1469
-1515
-1541
-1562
-1590
-1618
-1636
-1643
-1650
-1665
-1677
-1675
-1659
-1645
-1644
-1647
-1640
-1617
-1589
-1566
-1541
-1505
-1456
-1400
-1344
-1285
-1215
-1137
-1064
-1003
-953
-908
-865
-826
-786
-737
-678
-614
-557
-510
-470
-431
-391
-350
-314
-292
-282
-275
-257
-226
-190
-160
-139
-120
-104
-97
-103
-112
-114
-109
-107
-116
-129
-135
-125
-104
-83
-74
-76
-82
-79
-66
-53
-56
-77
-106
-125
-129
-129
-134
-143
-142
-122
-88
-60
-51
-58
-67
-68
-69
-84
-118
-154
-174
-172
-166
-175
-202
-230
-240
-234
-236
-268
-321
-367
-386
-379
-369
-368
-376
-380
-373
-356
-334
-309
-289
-283
-286
-289
-284
-276
-275
-289
-315
-350
-386
-411
-419
-414
-410
-417
-425
-416
-393
-374
-368
-366
-346
-304
-256
-213
-173
-124
-67
-13
28
56
72
72
60
50
51
62
70
68
67
80
106
131
141
134
120
114
119
128
130
125
128
146
169
174
151
113
86
90
126
176
207
201
171
141
93
-48
-336
-721
-1044
-1162
-1074
-898
-750
-648
-545
-416
-272
-119
57
250
415
514
573
659
800
942
993
901
685
411
148
-57
-186
-255
-296
-320
-310
-240
-120
6
81
70
-20
-153
-276
-351
-365
-327
-256
-176
-111
-87
-118
-189
-262
-299
-293
-265
-236
-215
-203
-209
-243
-301
-356
-382
-379
-370
-374
-386
-387
-375
-367
-373
-387
-391
-385
-385
-403
-429
-444
-445
-452
-481
-529
-573
-595
-605
-622
-656
-694
-720
-729
-738
-761
-800
-848
-900
-954
-1011
-1069
-1128
-1190
-1250
-1300
-1332
-1351
-1367
-1380
-1380
-1359
-1325
-1297
-1283
-1274
-1259
-1232
-1202
-1176
-1153
-1123
-1085
-1039
-988
-936
-879
-812
-736
-664
-603
-559
-518
-470
-411
-350
-301
-265
-234
-193
-135
-60
13
66
91
105
136
196
264
302
300
278
270
288
313
324
321
321
332
350
368
384
400
409
406
393
382
378
373
360
343
336
339
338
320
290
264
250
240
224
209
207
219
232
236
239
247
255
248
221
192
180
179
173
149
122
111
117
123
114
96
80
72
65
52
36
21
12
8
13
24
31
33
38
63
103
138
145
132
124
129
128
94
35
-20
-49
-64
-86
-108
-111
-90
-66
-59
-57
-38
2
38
57
75
115
170
214
231
238
263
312
363
392
392
379
371
379
398
411
410
403
406
424
437
432
414
405
410
414
399
371
349
341
335
307
257
223
249
332
408
420
380
351
347
281
55
-292
-585
-666
-557
-409
-330
-288
-204
-76
33
113
235
448
689
851
908
952
1072
1237
1320
1222
955
617
312
88
-52
-131
-172
-184
-159
-87
27
151
236
238
150
5
-141
-236
-256
-207
-115
-22
30
22
-41
-129
-210
-265
-291
-299
-298
-290
-274
-257
-251
-264
-296
-331
-357
-375
-395
-425
-462
-500
-533
-561
-581
-588
-581
-570
-567
-583
-612
-642
-660
-666
-673
-694
-729
-762
-777
-775
-779
-807
-852
-898
-936
-975
-1029
-1090
-1138
-1165
-1193
-1241
-1306
-1361
-1388
-1400
-1419
-1452
-1477
-1479
-1466
-1460
-1468
-1472
-1454
-1413
-1367
-1328
-1295
-1259
-1215
-1168
-1119
-1067
-1011
-956
-908
-863
-806
-735
-661
-604
-566
-526
-459
-368
-278
-209
-154
-94
-23
43
90
120
153
194
234
261
277
293
314
337
358
378
398
410
406
391
383
389
398
394
378
367
369
373
358
323
288
268
258
244
226
217
227
243
249
239
225
217
215
212
204
200
202
209
212
206
195
189
190
192
182
154
118
93
90
101
109
109
109
119
136
144
138
123
109
101
92
76
58
44
38
38
40
41
38
28
10
-12
-31
-46
-60
-79
-95
-99
-84
-62
-43
-28
-4
39
95
146
183
218
265
325
384
427
454
473
489
503
512
514
504
477
437
401
381
378
375
365
352
344
352
371
388
395
394
