767
-61
-23
-20
-54
-111
-162
-175
-147
-111
-102
-120
-130
-114
-89
-76
-70
-51
-29
-52
-143
-252
-291
-244
-196
-242
-385
-510
-493
-316
-72
144
341
622
1068
1647
2231
2688
2965
3105
3189
3257
3276
3158
2821
2271
1610
985
488
111
-213
-532
-824
-1018
-1052
-921
-686
-434
-247
-164
-167
-199
-212
-194
-180
-213
-296
-386
-426
-392
-309
-223
-177
-179
-208
-227
-208
-165
-141
-158
-189
-171
-74
56
143
148
101
57
41
39
46
75
121
144
106
24
-32
-14
60
133
175
197
212
210
200
220
295
385
416
379
357
437
595
716
724
666
638
673
724
739
714
674
632
594
579
595
594
515
374
283
331
462
519
429
301
301
447
575
526
334
176
172
261
304
250
176
170
226
277
281
252
216
173
117
51
-14
-89
-165
-196
-149
-61
-34
-122
-247
-289
-234
-205
-310
-491
-571
-463
-282
-211
-291
-380
-336
-189
-97
-157
-310
-414
-412
-368
-379
-462
-545
-543
-435
-290
-211
-251
-347
-361
-209
36
206
202
99
64
183
388
535
544
458
373
356
414
515
623
717
784
822
826
796
756
739
780
872
956
974
927
880
886
924
914
802
625
465
351
222
12
-236
-381
-318
-98
90
97
-51
-177
-119
107
317
329
139
-79
-138
-27
93
61
-118
-303
-386
-387
-406
-477
-538
-528
-474
-453
-489
-522
-496
-439
-453
-600
-825
-998
-1034
-971
-932
-979
-1040
-977
-730
-376
-32
285
675
1234
1914
2540
2947
3110
3138
3143
3130
2984
2583
1916
1120
400
-119
-460
-735
-1006
-1228
-1307
-1207
-994
-773
-604
-485
-398
-341
-325
-338
-336
-299
-256
-254
-314
-395
-437
-425
-405
-430
-505
-590
-654
-703
-754
-803
-835
-845
-846
-844
-839
-833
-827
-815
-777
-698
-583
-449
-317
-207
-148
-149
-172
-163
-104
-33
11
43
104
188
224
169
65
-3
-7
7
0
-8
31
110
171
176
155
161
193
189
104
-32
-147
-197
-194
-171
-143
-97
-35
24
74
148
281
450
579
620
619
660
762
847
837
742
651
618
621
612
592
595
631
657
635
572
504
437
336
171
-47
-261
-424
-533
-623
-737
-888
-1053
-1206
-1339
-1475
-1630
-1793
-1938
-2065
-2188
-2300
-2356
-2315
-2196
-2072
-1989
-1922
-1818
-1672
-1542
-1474
-1456
-1445
-1427
-1411
-1387
-1322
-1221
-1147
-1163
-1224
-1214
-1088
-929
-866
-926
-1016
-1040
-1000
-964
-963
-990
-1057
-1183
-1322
-1367
-1255
-1069
-969
-1012
-1075
-1008
-817
-650
-632
-747
-873
-918
-876
-814
-793
-819
-850
-844
-811
-805
-853
-921
-947
-939
-977
-1098
-1221
-1217
-1064
-885
-803
-823
-856
-836
-797
-796
-843
-910
-983
-1062
-1147
-1230
-1305
-1368
-1415
-1441
-1449
-1462
-1485
-1492
-1455
-1385
-1334
-1332
-1363
-1383
-1370
-1338
-1316
-1325
-1342
-1315
-1188
-929
-562
-145
284
737
1260
1860
2449
2889
3088
3084
3008
2961
2894
2654
2132
1395
659
113
-225
-499
-841
-1224
-1482
-1469
-1206
-862
-610
-502
-460
-380
-244
-130
-128
-254
-438
-590
-683
-752
-851
-983
-1084
-1081
-980
-880
-886
-1008
-1131
-1127
-988
-840
-819
-943
-1106
-1197
-1204
-1196
-1219
-1252
-1263
-1271
-1332
-1453
-1580
-1655
-1696
-1774
-1929
-2127
-2303
-2432
-2547
-2687
-2858
-3031
-3175
-3277
-3345
-3401
-3455
-3491
-3477
-3407
-3331
-3321
-3402
-3501
-3514
-3413
-3269
-3166
-3103
-3004
-2821
-2584
-2361
-2169
-1969
-1728
-1464
-1216
-1008
-837
-695
-581
-479
-358
-199
-29
102
179
249
381
584
792
923
976
1029
1156
1343
1500
1567
1589
1662
1819
1982
2049
1993
1886
1810
1790
1786
1761
1702
1627
1575
1596
1707
1853
1944
1944
1926
1994
2157
2308
2342
2278
2243
2325
2480
2593
2601
2559
2559
2634
2735
2799
2816
2825
2873
2960
3041
3064
3017
2939
2889
2891
2904
2863
2743
2588
2470
2416
2391
2350
2284
2216
2161
2105
2031
1941
1847
1751
1641
1506
1358
1215
1077
939
804
689
594
494
367
224
92
-14
-99
-182
-262
-332
-394
-452
-507
-550
-579
-595
-587
-535
-449
-372
-348
-364
-370
-339
-304
-317
-376
-433
-466
-504
-581
-671
-710
-681
-635
-642
-705
-767
-796
-832
-930
-1078
-1189
-1192
-1108
-1009
-911
-736
-393
102
632
1120
1614
2210
2895
3481
3755
3676
3415
3182
3030
2815
2362
1646
830
142
-303
-562
-779
-1037
-1298
-1455
-1433
-1233
-937
-665
-514
-496
-520
-482
-367
-278
-323
-472
-586
-578
-508
-483
-519
-526
-448
-364
-400
-561
-725
-774
-733
-715
-774
-842
-827
-741
-691
-759
-907
-1026
-1052
-1025
-1014
-1022
-978
-831
-634
-502
-489
-528
-494
-346
-171
-91
-142
-239
-257
-146
39
192
250
243
249
325
445
536
555
533
541
606
682
701
649
582
565
590
592
526
434
400
459
545
559
480
384
357
398
439
434
410
411
431
423
381
363
420
523
581
547
485
509
655
840
947
938
888
886
940
980
947
868
817
839
904
954
960
936
908
899
922
963
975
917
813
741
755
816
826
748
650
617
654
686
652
587
564
602
641
621
551
483
449
424
372
298
250
268
329
370
357
329
359
463
579
627
600
578
628
735
822
849
849
879
939
977
955
898
860
862
884
899
898
886
860
828
813
829
857
853
796
709
629
566
503
441
402
392
375
316
233
179
177
184
142
51
-40
-91
-119
-164
-231
-292
-327
-344
-364
-379
-380
-379
-397
-431
-457
-466
-491
-561
-661
-755
-838
-952
-1111
-1257
-1315
-1283
-1229
-1190
-1089
-813
-330
275
908
1562
2266
2978
3567
3911
3998
3901
3683
3337
2817
2111
1270
401
-380
-1000
-1459
-1823
-2150
-2418
-2532
-2433
-2185
-1940
-1822
-1840
-1900
-1908
-1849
-1784
-1795
-1916
-2096
-2224
-2201
-2021
-1778
-1596
-1522
-1503
-1462
-1388
-1336
-1353
-1421
-1483
-1506
-1496
-1468
-1412
-1327
-1242
-1199
-1196
-1182
-1112
-1010
-953
-975
-1028
-1027
-952
-870
-857
-905
-932
-874
-765
-695
-714
-790
-855
-874
-862
-843
-835
-855
-920
-1017
-1096
-1102
-1027
-920
-830
-756
-659
-510
-328
-155
-31
24
8
-53
-110
-129
-125
-149
-223
-301
-308
-222
-108
-41
-27
-5
58
113
75
-80
-271
-376
-331
-184
-51
-25
-106
-211
-244
-178
-92
-98
-209
-310
-278
-137
-47
-132
-333
-478
-496
-517
-720
-1102
-1452
-1547
-1385
-1175
-1119
-1219
-1297
-1181
-889
-605
-488
-536
-612
-591
-446
-221
34
255
349
267
109
77
218
324
147
-248
-489
-307
109
297
57
-310
-391
-149
68
-16
-269
-330
-43
395
684
726
664
670
750
789
690
474
250
114
55
1
-78
-134
-111
-35
-1
-70
-227
-437
-696
-988
-1245
-1389
-1432
-1475
-1557
-1588
-1480
-1304
-1243
-1365
-1529
-1576
-1531
-1562
-1728
-1897
-1913
-1794
-1682
-1631
-1561
-1409
-1232
-1128
-1079
-985
-825
-702
-703
-758
-725
-571
-406
-351
-417
-523
-592
-586
-489
-304
-38
316
811
1503
2386
3397
4462
5505
6417
7057
7364
7427
7390
7276
6942
6264
5304
4283
3393
2658
2000
1355
723
159
-263
-476
-471
-321
-133
11
86
107
100
100
143
216
259
251
263
365
533
669
746
860
1104
1394
1523
1387
1113
929
925
999
1008
920
797
673
524
332
147
42
10
-30
-131
-248
-278
-188
-42
76
152
250
411
615
830
1052
1313
1614
1920
2181
2390
2581
2795
3048
3307
3510
3617
3675
3811
4122
4552
4921
5100
5143
5211
5364
5489
5441
5211
4937
4734
4593
4451
4289
4149
4043
3922
3741
3526
3360
3287
3265
3224
3117
2965
2827
2746
2697
2605
2404
2109
1815
1618
1531
1485
1415
1324
1259
1237
1220
1164
1070
970
876
763
617
479
417
451
519
536
469
365
293
269
257
220
169
137
124
102
59
41
96
204
289
310
312
367
458
487
409
309
322
472
657
773
843
971
1191
1412
1533
1561
1579
1628
1656
1603
1493
1411
1398
1410
1378
1291
1196
1124
1057
960
831
702
599
524
490
513
582
618
534
338
156
91
86
-45
-406
-862
-1127
-1042
-729
-464
-408
-477
-465
-276
-27
72
-81
-392
-679
-839
-920
-1023
-1176
-1319
-1394
-1421
-1463
-1539
-1607
-1634
-1659
-1747
-1904
-2057
-2114
-2046
-1906
-1793
-1779
-1856
-1950
-1984
-1958
-1949
-2016
-2125
-2171
-2087
-1897
-1670
-1435
-1157
-782
-283
335
1026
1685
2190
2475
2593
2656
2702
2636
2317
1704
901
94
-573
-1065
-1435
-1766
-2099
-2388
-2524
-2426
-2127
-1773
-1506
-1365
-1295
-1218
-1111
-990
-876
-782
-718
-681
-643
-562
-434
-307
-233
-214
-202
-164
-118
-97
-106
-120
-129
-143
-165
-178
-165
-149
-167
-222
-269
-249
-143
19
186
318
393
409
384
350
337
348
349
303
200
74
-9
-6
83
215
348
454
525
573
629
723
834
876
771
545
339
286
384
506
550
550
622
815
1031
1117
1011
793
593
476
411
349
288
262
271
284
277
287
366
498
589
550
401
250
192
225
272
258
173
55
-53
-134
-207
-290
-365
-379
-305
-199
-174
-267
-383
-389
-278
-193
-257
-425
-544
-540
-495
-528
-651
-792
-906
-1019
-1150
-1263
-1325
-1373
-1470
-1598
-1658
-1582
-1419
-1297
-1296
-1362
-1365
-1209
-929
-680
-611
-715
-814
-739
-541
-451
-607
-882
-1024
-959
-883
-1005
-1263
-1395
-1278
-1074
-1033
-1184
-1313
-1243
-1064
-1013
-1187
-1422
-1482
-1337
-1197
-1247
-1426
-1503
-1371
-1197
-1242
-1527
-1776
-1721
-1427
-1232
-1372
-1715
-1900
-1718
-1322
-1063
-1140
-1434
-1653
-1608
-1377
-1195
-1223
-1399
-1519
-1451
-1249
-1064
-968
-905
-802
-666
-555
-490
-432
-356
-286
-249
-221
-166
-110
-122
-222
-351
-450
-534
-666
-844
-987
-1012
-919
-763
-562
-275
139
656
1213
1764
2283
2729
3027
3125
3057
2923
2793
2625
2309
1780
1095
416
-106
-450
-720
-1044
-1419
-1689
-1688
-1414
-1056
-825
-764
-747
-655
-502
-389
-361
-376
-395
-455
-596
-770
-870
-858
-821
-874
-1026
-1181
-1262
-1283
-1308
-1355
-1386
-1381
-1362
-1367
-1392
-1401
-1360
-1273
-1180
-1125
-1138
-1228
-1373
-1541
-1717
-1916
-2166
-2476
-2804
-3064
-3182
-3150
-3031
-2922
-2870
-2856
-2838
-2807
-2799
-2835
-2886
-2908
-2905
-2934
-3028
-3128
-3132
-3004
-2825
-2703
-2656
-2605
-2479
-2296
-2128
-1998
-1848
-1630
-1375
-1170
-1062
-1003
-889
-665
-363
-71
142
275
378
494
618
707
739
745
761
787
804
845
1000
1321
1720
2026
2140
2130
2135
2204
2246
2166
2000
1887
1926
2090
2280
2450
2627
2860
3128
3343
3419
3355
3257
3242
3318
3361
3249
3016
2843
2854
2981
3025
2900
2727
2683
2778
2877
2892
2887
2964
3101
3166
3093
2968
2915
2941
2954
2910
2882
2943
3048
3058
2908
2708
2620
2660
2698
2621
2470
2399
2487
2665
2801
2829
2785
2734
2709
2704
2696
2633
2451
2151
1827
1588
1443
1299
1071
784
538
384
289
197
92
-13
-128
-262
-397
-500
-568
-637
-733
-842
-933
-999
-1052
-1078
-1068
-1056
-1101
-1223
-1355
-1422
-1427
-1449
-1543
-1669
-1740
-1716
-1653
-1632
-1680
-1752
-1790
-1773
-1723
-1669
-1620
-1590
-1598
-1649
-1708
-1710
-1621
-1488
-1384
-1322
-1230
-1014
-652
-194
330
948
1669
2403
3006
3401
3640
3795
3850
3712
3330
2743
2031
1246
433
-317
-904
-1313
-1630
-1926
-2152
-2197
-2039
-1780
-1537
-1328
-1119
-939
-876
-955
-1059
-1062
-989
-991
-1145
-1341
-1391
-1249
-1050
-937
-909
-860
-739
-618
-583
-619
-635
-576
-474
-396
-366
-353
-330
-293
-255
-221
-184
-150
-130
-127
-124
-96
-39
15
34
23
33
110
235
329
346
323
351
476
641
747
760
733
738
793
859
894
897
898
931
1003
1098
1193
1272
1338
1401
1465
1518
1547
1554
1559
1574
1590
1586
1548
1468
1354
1230
1130
1070
1031
975
890
800
746
743
765
763
704
598
478
383
331
316
324
347
382
417
445
475
535
639
745
782
727
645
632
717
838
920
950
977
1033
1093
1116
1107
1098
1106
1105
1074
1023
981
956
929
888
836
775
704
624
538
443
333
225
174
232
371
490
512
463
438
479
524
485
349
178
45
-20
-28
-12
-2
-20
-57
-72
-49
-18
-37
-116
-204
-249
-259
-270
-300
-331
-344
-350
-373
-423
-486
-546
-594
-624
-644
-677
-743
-829
-893
-918
-931
-970
-1035
-1084
-1091
-1071
-1056
-1045
-1020
-987
-969
-965
-944
-885
-825
-814
-844
-845
-775
-683
-663
-738
-834
-867
-831
-800
-821
-864
-864
-813
-771
-792
-853
-880
-832
-756
-724
-741
-723
-569
-258
153
610
1115
1696
2327
2912
3340
3558
3589
3492
3305
3008
2536
1851
1015
193
-462
-918
-1272
-1628
-1970
-2183
-2185
-2013
-1784
-1581
-1418
-1283
-1191
-1176
-1250
-1377
-1507
-1611
-1691
-1753
-1780
-1731
-1582
-1352
-1112
-939
-863
-852
-855
-851
-848
-867
-904
-943
-965
-967
-949
-906
-848
-802
-797
-831
-873
-885
-858
-814
-776
-765
-798
-865
-922
-915
-837
-759
-754
-808
-829
-756
-634
-559
-564
-594
-576
-509
-442
-394
-331
-225
-105
-50
-116
-293
-508
-666
-685
-549
-326
-116
36
183
413
727
1004
1099
985
793
685
695
695
560
324
145
138
260
351
294
96
-139
-301
-346
-291
-202
-130
-69
48
280
591
861
962
856
610
342
145
37
-52
-238
-568
-943
-1172
-1114
-807
-434
-152
36
229
508
805
971
931
745
525
326
116
-135
-370
-489
-473
-419
-418
-450
-437
-370
-348
-455
-657
-846
-962
-1043
-1133
-1213
-1226
-1158
-1056
-979
-946
-936
-924
-899
-875
-875
-917
-970
-984
-928
-850
-830
-896
-1008
-1122
-1234
-1361
-1491
-1590
-1664
-1746
-1837
-1880
-1839
-1778
-1812
-1964
-2140
-2253
-2335
-2473
-2658
-2764
-2723
-2633
-2659
-2823
-2971
-2951
-2775
-2557
-2311
-1896
-1194
-282
647
1515
2429
3491
4557
5279
5426
5116
4685
4332
3953
3342
2498
1670
1105
801
557
233
-105
-316
-395
-500
-765
-1139
-1433
-1514
-1401
-1171
-826
-287
485
1426
2430
3442
4440
5352
6039
6398
6474
6427
6374
6287
6065
5652
5089
4460
3845
3291
2806
2345
1836
1269
758
470
448
556
604
523
386
279
178
2
-260
-522
-706
-825
-948
-1079
-1130
-1013
-753
-468
-252
-84
123
404
694
905
1034
1161
1363
1615
1825
1937
1996
2090
2252
2432
2575
2689
2831
3030
3246
3410
3501
3550
3602
3662
3704
3693
3621
3497
3343
3181
3031
2898
2780
2680
2607
2569
2548
2523
2487
2461
2455
2447
2397
2299
2192
2117
2067
2001
1903
1799
1729
1701
1681
1639
1577
1514
1459
1402
1333
1252
1163
1061
948
843
776
759
771
770
732
669
612
583
573
556
522
488
483
516
558
571
547
524
551
631
714
743
720
699
720
771
809
812
799
786
751
669
554
454
407
411
451
523
621
703
727
701
695
761
876
965
990
975
963
971
998
1052
1138
1223
1244
1172
1047
945
908
922
940
922
844
714
583
514
513
525
484
397
345
388
489
548
507
415
377
444
565
640
614
528
478
528
654
765
771
668
539
468
460
452
391
305
256
251
219
92
-117
-348
-561
-765
-961
-1116
-1210
-1291
-1409
-1544
-1614
-1583
-1520
-1528
-1629
-1754
-1849
-1926
-2004
-2046
-2000
-1891
-1813
-1836
-1915
-1953
-1905
-1817
-1757
-1737
-1739
-1753
-1799
-1873
-1920
-1870
-1721
-1549
-1416
-1287
-1042
-600
4
664
1332
2032
2766
3431
3884
4086
4135
4132
4065
3847
3433
2873
2248
1602
966
393
-61
-403
-685
-918
-1042
-1007
-869
-754
-736
-769
-763
-709
-687
-754
-872
-955
-962
-926
-892
-868
-821
-740
-658
-618
-627
-654
-667
-666
-672
-688
-701
-692
-673
-663
-667
-663
-632
-576
-526
-503
-498
-484
-448
-410
-407
-454
-531
-606
-658
-685
-684
-646
-576
-515
-506
-541
-553
-481
-340
-196
-88
26
209
464
722
929
1102
1307
1579
1893
2194
2451
2655
2805
2903
2960
2987
2960
2850
2654
2423
2218
2058
1915
1774
1662
1620
1637
1649
1603
1514
1434
1386
1338
1253
1137
1031
962
924
895
866
832
791
744
711
705
708
688
631
558
493
423
318
172
13
-142
-308
-492
-659
-773
-840
-911
-1012
-1115
-1194
-1269
-1369
-1490
-1598
-1687
-1804
-1957
-2068
-2052
-1930
-1823
-1813
-1842
-1777
-1575
-1339
-1220
-1281
-1480
-1722
-1912
-1979
-1914
-1791
-1724
-1752
-1779
-1676
-1419
-1138
-992
-1031
-1183
-1340
-1427
-1422
-1344
-1249
-1199
-1203
-1193
-1116
-998
-930
-970
-1081
-1175
-1205
-1139
-911
-474
78
508
617
446
226
102
-35
-401
-1020
-1644
-1982
-1963
-1758
-1554
-1392
-1208
-981
-775
-657
-612
-576
-522
-493
-537
-640
-727
-721
-603
-425
-284
-254
-329
-431
-471
-426
-349
-296
-255
-182
-84
-30
-65
-149
-206
-212
-215
-246
-262
-218
-127
-34
87
324
722
1219
1735
2270
2881
3547
4123
4463
4557
4515
4406
4182
3745
3067
2223
1324
446
-370
-1089
-1671
-2093
-2372
-2552
-2653
-2645
-2475
-2154
-1815
-1661
-1801
-2148
-2491
-2678
-2741
-2833
-3047
-3314
-3473
-3427
-3228
-3011
-2872
-2811
-2774
-2739
-2730
-2776
-2859
-2932
-2950
-2900
-2803
-2705
-2650
-2648
-2668
-2658
-2601
-2530
-2484
-2475
-2479
-2476
-2454
-2414
-2369
-2340
-2339
-2336
-2279
-2148
-1979
-1826
-1681
-1486
-1212
-910
-666
-501
-357
-181
11
165
260
336
436
559
676
772
871
1014
1219
1481
1765
2022
2214
2330
2395
2449
2511
2581
2664
2770
2900
3044
3195
3359
3546
3743
3904
3987
3983
3928
3866
3822
3789
3754
3710
3668
3635
3592
3505
3354
3163
2983
2847
2744
2633
2496
2354
2247
2188
2155
2116
2059
1994
1934
1880
1827
1779
1747
1733
1721
1686
1605
1485
1371
1305
1284
1265
1210
1125
1050
1005
972
911
818
734
699
716
748
761
741
705
671
642
601
527
418
289
158
32
-91
-210
-301
-348
-360
-372
-402
-437
-445
-420
-409
-459
-563
-647
-643
-563
-498
-528
-638
-728
-715
-616
-529
-531
-610
-694
-734
-731
-729
-759
-824
-899
-950
-964
-964
-990
-1055
-1118
-1132
-1105
-1094
-1128
-1168
-1158
-1102
-1063
-1073
-1089
-1055
-990
-981
-1071
-1194
-1247
-1197
-1105
-1038
-1006
-973
-908
-806
-681
-558
-472
-445
-461
-492
-531
-589
-651
-658
-572
-434
-316
-212
-22
326
786
1250
1683
2160
2730
3312
3736
3912
3903
3833
3748
3575
3208
2618
1890
1163
545
67
-320
-673
-998
-1234
-1312
-1224
-1045
-878
-777
-732
-709
-701
-730
-812
-925
-1034
-1120
-1196
-1274
-1338
-1356
-1312
-1229
-1155
-1121
-1112
-1098
-1057
-990
-911
-831
-755
-699
-681
-689
-678
-616
-530
-487
-515
-551
-506
-366
-223
-173
-221
-271
-243
-149
-73
-60
-80
-68
-2
85
148
175
188
217
268
325
365
378
388
414
459
500
517
510
508
536
588
634
653
654
673
742
858
979
1053
1063
1048
1065
1127
1188
1188
1130
1081
1099
1166
1209
1191
1147
1141
1187
1251
1289
1298
1297
1300
1310
1330
1354
1362
1329
1260
1182
1112
1041
957
873
808
760
697
604
505
435
390
324
214
93
13
-20
-52
-127
-229
-310
-341
-344
-351
-373
-392
-398
-395
-389
-379
-364
-353
-356
-375
-401
-422
-429
-414
-375
-320
-277
-273
-298
-315
-298
-258
-233
-239
-253
-233
-173
-97
-40
-3
37
101
182
253
294
308
309
310
313
318
331
368
435
520
587
611
598
595
643
725
770
716
573
426
346
322
276
153
-12
-144
-203
-233
-295
-402
-506
-561
-572
-582
-612
-649
-674
-701
-764
-866
-961
-989
-935
-856
-837
-892
-948
-905
-748
-586
-546
-648
-783
-838
-803
-762
-779
-836
-870
-857
-802
-706
-562
-394
-244
-107
91
417
849
1319
1816
2412
3131
3866
4448
4801
4977
5047
4983
4696
4154
3418
2576
1684
786
-58
-780
-1353
-1793
-2106
-2263
-2233
-2047
-1796
-1575
-1428
-1334
-1250
-1156
-1067
-1025
-1054
-1138
-1225
-1272
-1274
-1249
-1212
-1168
-1125
-1105
-1131
-1192
-1252
-1272
-1237
-1165
-1112
-1116
-1163
-1207
-1218
-1217
-1240
-1269
-1243
-1134
-991
-896
-846
-764
-606
-432
-356
-405
-471
-444
-340
-271
-294
-348
-342
-270
-204
-168
-99
65
276
421
469
513
635
766
756
566
327
181
111
-21
-238
-364
-201
235
700
962
1023
1071
1248
1492
1622
1518
1215
854
584
493
590
807
1035
1184
1244
1281
1352
1416
1358
1099
686
255
-96
-353
-542
-663
-683
-606
-498
-434
-434
-462
-474
-465
-461
-487
-546
-620
-671
-675
-622
-542
-477
-451
-482
-569
-681
-774
-830
-873
-938
-1019
-1062
-1051
-1057
-1177
-1397
-1574
-1584
-1462
-1381
-1451
-1598
-1667
-1611
-1551
-1634
-1858
-2080
-2180
-2182
-2217
-2380
-2643
-2891
-3024
-3022
-2943
-2881
-2904
-3015
-3132
-3149
-3013
-2770
-2520
-2315
-2107
-1786
-1298
-691
-58
558
1183
1831
2446
2920
3190
3273
3231
3120
2955
2732
2440
2088
1732
1455
1316
1302
1342
1369
1363
1324
1250
1134
999
887
819
771
716
665
669
781
1033
1411
1838
2190
2373
2404
2398
2441
2491
2425
2185
1854
1567
1388
1274
1171
1061
940
790
596
393
247
176
125
45
-42
-54
63
289
593
990
1520
2155
2785
3289
3642
3911
4144
4306
4302
4073
3637
3071
2461
1876
1365
956
648
427
286
247
352
623
1025
1456
1806
2020
2138
2238
2365
2496
2578
2593
2571
2562
2597
2676
2761
2795
2735
2579
2362
2121
1861
1569
1261
992
820
751
736
715
667
609
563
535
513
490
470
462
474
510
566
626
685
740
793
843
890
941
1004
1071
1119
1135
1131
1139
1175
1214
1214
1162
1093
1058
1070
1098
1110
1110
1131
1186
1251
1285
1275
1252
1257
1300
1355
1389
1392
1381
1378
1390
1404
1407
1403
1406
1418
1424
1411
1374
1334
1317
1340
1388
1412
1363
1245
1137
1136
1267
1445
1552
1562
1562
1640
1768
1828
1752
1609
1514
1489
1432
1260
1025
873
881
971
1009
940
824
735
671
566
390
200
72
32
32
9
-51
-99
-89
-26
27
15
-57
-134
-170
-183
-232
-339
-449
-485
-437
-388
-419
-531
-644
-696
-705
-723
-766
-792
-768
-736
-757
-836
-903
-888
-789
-682
-646
-700
-796
-860
-845
-766
-688
-677
-744
-835
-897
-919
-927
-937
-936
-912
-885
-890
-927
-961
-954
-912
-877
-891
-966
-1082
-1201
-1285
-1314
-1299
-1262
-1207
-1133
-1043
-961
-897
-827
-727
-620
-571
-623
-745
-861
-927
-968
-1020
-1077
-1097
-1061
-992
-923
-854
-766
-664
-577
-522
-476
-415
-351
-325
-356
-400
-390
-301
-158
11
205
448
749
1107
1538
2071
2710
3386
3975
4378
4580
4649
4661
4626
4471
4108
3517
2787
2064
1445
936
484
64
-291
-525
-611
-571
-461
-339
-252
-224
-242
-264
-265
-259
-288
-381
-500
-574
-549
-444
-328
-260
-239
-224
-194
-181
-216
-275
-273
-156
32
187
260
314
457
722
1019
1226
1316
1373
1499
1692
1857
1913
1892
1890
1946
1988
1915
1733
1561
1493
1492
1437
1270
1050
850
666
442
161
-112
-300
-393
-432
-447
-438
-402
-330
-199
-1
188
225
44
-226
-367
-305
-202
-262
-467
-602
-523
-353
-338
-545
-785
-873
-859
-949
-1225
-1516
-1602
-1471
-1317
-1305
-1426
-1561
-1621
-1603
-1535
-1452
-1435
-1566
-1815
-2010
-1991
-1806
-1706
-1877
-2237
-2522
-2562
-2438
-2350
-2391
-2463
-2434
-2290
-2130
-2033
-1947
-1760
-1459
-1178
-1098
-1279
-1600
-1864
-1983
-2030
-2134
-2345
-2574
-2680
-2588
-2324
-1977
-1663
-1472
-1430
-1473
-1470
-1337
-1118
-954
-936
-993
-944
-700
-374
-180
-211
-365
-487
-524
-523
-517
-465
-335
-157
25
242
568
971
1260
1256
1003
736
652
730
812
798
723
655
619
639
775
1023
1233
1214
977
781
855
1112
1223
1010
663
508
612
698
491
33
-391
-593
-672
-824
-1073
-1258
-1270
-1207
-1250
-1439
-1640
-1741
-1820
-2064
-2527
-3025
-3306
-3313
-3245
-3341
-3649
-3987
-4120
-3970
-3681
-3506
-3602
-3889
-4118
-4113
-3955
-3881
-3995
-4120
-4025
-3722
-3451
-3362
-3282
-2921
-2216
-1380
-605
142
975
1829
2474
2786
2875
2896
2815
2458
1771
942
215
-336
-794
-1215
-1545
-1732
-1817
-1858
-1822
-1602
-1173
-673
-295
-114
-36
95
321
549
650
579
416
290
274
358
498
682
930
1216
1445
1535
1513
1510
1622
1802
1920
1927
1914
1991
2159
2318
2400
2435
2493
2588
2690
2788
2894
2984
2996
2916
2833
2862
3003
3128
3109
2956
2797
2739
2773
2816
2803
2717
2597
2488
2417
2373
2329
2292
2301
2365
2418
2391
2325
2336
2454
2530
2382
2041
1758
1731
1873
1920
1756
1547
1542
1784
2083
2231
2193
2070
1957
1868
1775
1656
1498
1299
1085
910
826
829
854
829
731
590
452
338
217
49
-151
-314
-378
-372
-396
-518
-686
-798
-817
-831
-944
-1146
-1315
-1363
-1331
-1342
-1450
-1585
-1638
-1577
-1466
-1377
-1325
-1294
-1278
-1289
-1307
-1283
-1206
-1132
-1131
-1208
-1283
-1271
-1177
-1073
-1024
-1021
-1016
-981
-928
-871
-803
-722
-650
-620
-631
-628
-569
-479
-429
-454
-496
-471
-368
-262
-221
-220
-170
-43
81
95
2
-78
-49
60
127
84
-11
-45
26
143
215
195
108
15
-29
-11
40
72
52
-5
-61
-84
-73
-36
26
101
170
218
271
369
512
654
743
776
790
807
825
843
873
927
987
1028
1054
1088
1122
1115
1063
1017
1021
1033
964
803
661
630
654
580
355
109
19
96
193
213
242
440
852
1368
1890
2446
3102
3817
4435
4827
5012
5088
5106
5022
4751
4243
3503
2597
1651
818
183
-306
-765
-1222
-1566
-1649
-1464
-1174
-965
-886
-851
-777
-688
-672
-759
-884
-957
-950
-905
-855
-784
-665
-505
-352
-250
-197
-160
-122
-82
-44
2
70
168
279
381
454
496
523
569
651
758
861
943
1006
1059
1107
1142
1159
1170
1183
1194
1192
1178
1162
1142
1115
1074
1032
1005
989
973
943
897
842
785
734
703
690
668
616
552
526
550
576
540
449
380
399
477
523
475
353
222
129
90
97
117
103
25
-87
-146
-98
19
107
114
78
69
103
134
120
73
33
22
23
16
6
10
31
53
66
71
74
74
66
48
26
1
-26
-51
-62
-48
-21
-12
-33
-61
-61
-27
6
-1
-44
-80
-77
-53
-44
-61
-68
-28
54
134
173
172
161
164
182
198
189
142
69
2
-35
-44
-53
-76
-103
-113
-117
-149
-222
-305
-352
-360
-367
-400
-439
-445
-414
-381
-380
-404
-419
-408
-392
-401
-442
-494
-534
-568
-616
-677
-720
-727
-724
-771
-898
-1071
-1226
-1333
-1415
-1513
-1631
-1743
-1820
-1856
-1850
-1805
-1744
-1711
-1742
-1836
-1958
-2073
-2174
-2271
-2371
-2467
-2552
-2613
-2646
-2653
-2644
-2626
-2593
-2535
-2465
-2409
-2375
-2332
-2246
-2127
-2017
-1950
-1921
-1917
-1934
-1969
-1986
-1953
-1874
-1777
-1656
-1447
-1102
-654
-177
324
918
1638
2363
2904
3168
3242
3259
3238
3067
2649
2005
1245
472
-266
-927
-1462
-1862
-2170
-2418
-2556
-2494
-2213
-1840
-1562
-1477
-1521
-1550
-1488
-1378
-1313
-1342
-1421
-1462
-1401
-1241
-1050
-903
-827
-793
-776
-801
-905
-1074
-1222
-1265
-1234
-1235
-1299
-1322
-1181
-901
-673
-646
-749
-781
-641
-420
-256
-152
15
328
720
1066
1323
1570
1900
2302
2655
2817
2741
2527
2334
2236
2164
2038
1895
1865
1984
2094
2029
1811
1601
1472
1295
921
436
87
-5
23
-29
-177
-277
-255
-197
-207
-251
-234
-180
-235
-478
-782
-922
-808
-554
-356
-316
-391
-487
-551
-599
-675
-793
-927
-1033
-1112
-1210
-1369
-1552
-1660
-1629
-1511
-1447
-1537
-1720
-1830
-1761
-1573
-1445
-1508
-1728
-1972
-2136
-2231
-2344
-2543
-2843
-3231
-3664
-4051
-4249
-4136
-3688
-2970
-2054
-986
218
1484
2653
3530
4006
4114
3957
3581
2942
2047
1079
326
-80
-291
-546
-853
-926
-518
254
989
1406
1595
1836
2257
2726
3041
3142
3109
3034
2954
2887
2868
2915
3011
3121
3218
3299
3349
3357
3316
3213
3014
2706
2350
2045
1848
1721
1606
1498
1434
1407
1337
1169
965
843
850
894
859
735
618
597
652
704
719
730
766
812
843
862
897
959
1029
1100
1190
1316
1463
1601
1718
1826
1933
2030
2119
2224
2368
2547
2728
2885
3021
3146
3232
3233
3142
3017
2945
2949
2970
2941
2895
2950
3189
3545
3876
4134
4424
4861
5393
5817
5966
5886
5760
5707
5656
5438
4961
4291
3576
2942
2433
2019
1644
1281
968
793
816
1007
1258
1470
1614
1706
1755
1741
1652
1510
1363
1244
1156
1090
1043
1020
1033
1090
1183
1278
1316
1266
1149
1021
917
831
752
694
680
697
700
656
587
539
523
518
513
529
583
645
664
630
594
620
713
814
867
866
850
860
889
899
876
849
848
869
884
896
938
1021
1092
1086
1021
1003
1112
1289
1386
1321
1168
1079
1129
1257
1346
1324
1210
1074
984
972
1006
1013
928
766
608
519
481
424
319
224
209
258
283
229
143
112
153
193
157
49
-73
-186
-309
-440
-508
-460
-350
-321
-447
-642
-756
-748
-724
-791
-919
-1002
-1013
-1052
-1209
-1431
-1596
-1658
-1697
-1789
-1903
-1948
-1911
-1863
-1843
-1787
-1623
-1396
-1237
-1218
-1267
-1272
-1209
-1144
-1128
-1128
-1086
-1004
-928
-888
-852
-784
-683
-576
-475
-386
-331
-328
-347
-312
-171
36
199
249
211
162
144
136
119
111
144
202
235
226
226
294
421
531
556
493
395
314
276
285
343
433
532
618
687
741
774
777
738
651
516
358
230
181
207
260
299
351
475
688
930
1109
1179
1162
1111
1062
1016
958
870
753
629
545
535
601
707
799
844
847
826
777
680
526
361
261
259
308
343
375
497
773
1164
1593
2062
2660
3422
4232
4909
5370
5676
5910
6043
5967
5610
5002
4229
3369
2492
1674
979
422
-11
-318
-464
-433
-265
-20
253
515
715
808
797
747
715
702
669
603
546
543
598
677
749
804
840
846
804
717
607
513
466
462
460
415
332
266
255
267
232
128
14
-43
-38
-19
-27
-63
-118
-193
-285
-370
-432
-490
-576
-678
-742
-723
-622
-462
-268
-84
18
-12
-129
-225
-245
-277
-462
-813
-1153
-1270
-1120
-875
-763
-834
-923
-836
-541
-194
7
2
-107
-182
-169
-121
-116
-193
-327
-453
-505
-461
-371
-304
-277
-253
-200
-158
-205
-342
-481
-551
-573
-629
-727
-761
-613
-319
-63
-7
-129
-240
-199
-54
33
-21
-139
-192
-149
-96
-104
-145
-152
-131
-156
-260
-380
-419
-362
-288
-286
-366
-449
-456
-390
-334
-375
-505
-612
-586
-435
-276
-215
-247
-271
-203
-54
98
183
179
115
49
41
103
176
190
135
94
144
263
355
364
328
298
257
157
24
-55
-60
-94
-241
-395
-330
-12
265
144
-379
-921
-1128
-1066
-1103
-1450
-1930
-2219
-2224
-2137
-2164
-2308
-2459
-2597
-2798
-3080
-3335
-3459
-3488
-3544
-3659
-3733
-3659
-3460
-3265
-3175
-3170
-3169
-3128
-3072
-3044
-3033
-2985
-2872
-2717
-2574
-2475
-2406
-2328
-2213
-2072
-1934
-1824
-1742
-1679
-1625
-1560
-1454
-1283
-1079
-895
-729
-476
-14
650
1354
1937
2412
2936
3596
4275
4759
4952
4958
4939
4934
4848
4565
4065
3435
2807
2292
1917
1605
1236
781
370
186
291
556
792
918
982
1040
1077
1051
992
966
978
946
811
638
569
685
922
1149
1288
1351
1372
1356
1297
1218
1156
1101
1000
840
695
667
780
939
1039
1069
1107
1219
1366
1442
1386
1242
1106
1028
977
904
814
760
767
796
790
745
715
739
781
772
696
609
572
587
611
617
613
599
548
443
326
266
277
292
247
151
72
55
74
65
-2
-109
-222
-312
-370
-415
-482
-582
-680
-703
-625
-505
-444
-476
-542
-556
-514
-483
-519
-603
-666
-668
-630
-583
-536
-477
-418
-381
-370
-362
-333
-304
-312
-367
-436
-473
-465
-440
-430
-431
-413
-356
-287
-257
-291
-349
-363
-310
-236
-209
-236
-255
-219
-146
-105
-126
-170
-185
-174
-179
-217
-249
-233
-172
-103
-46
9
60
85
74
59
83
143
196
211
198
195
226
298
408
533
624
639
591
562
618
740
833
830
755
689
676
690
678
616
525
452
420
424
431
404
340
269
221
200
179
132
68
9
-34
-70
-104
-129
-134
-126
-132
-160
-199
-224
-224
-210
-200
-198
-189
-160
-112
-54
11
91
192
295
377
426
461
510
568
605
595
546
501
498
541
624
748
928
1176
1492
1868
2311
2824
3380
3902
4299
4504
4530
4455
4351
4213
3956
3487
2811
2060
1417
983
706
450
123
-232
-476
-487
-278
14
228
295
268
252
301
394
482
528
532
512
501
549
696
920
1135
1262
1306
1341
1415
1491
1500
1437
1367
1348
1361
1350
1294
1230
1197
1182
1143
1076
1019
994
978
930
846
756
676
593
497
420
402
435
459
429
366
331
355
403
416
384
350
358
407
465
511
554
616
701
793
871
928
963
985
1010
1055
1120
1180
1206
1194
1168
1154
1160
1170
1171
1157
1133
1103
1074
1059
1077
1129
1202
1278
1347
1413
1480
1547
1615
1677
1722
1737
1719
1677
1622
1555
1477
1399
1339
1303
1267
1202
1101
989
898
828
749
632
479
328
218
152
104
43
-29
-82
-88
-53
-17
-17
-55
-100
-119
-104
-75
-47
-21
13
47
55
20
-37
-66
-39
23
69
69
40
29
65
135
184
159
54
-80
-175
-204
-197
-191
-179
-121
-13
90
128
105
72
59
26
-74
-228
-367
-436
-447
-452
-481
-522
-558
-590
-627
-677
-742
-828
-937
-1046
-1112
-1111
-1068
-1029
-1010
-986
-928
-837
-748
-699
-703
-737
-768
-789
-823
-898
-1009
-1109
-1129
-1049
-936
-906
-1013
-1184
-1273
-1203
-1049
-975
-1070
-1262
-1408
-1441
-1416
-1427
-1513
-1636
-1748
-1814
-1803
-1694
-1523
-1385
-1339
-1300
-1113
-730
-289
37
254
568
1136
1829
2337
2498
2448
2428
2467
2344
1873
1154
472
-21
-443
-998
-1679
-2230
-2419
-2290
-2112
-2092
-2179
-2165
-1967
-1734
-1672
-1824
-2045
-2199
-2314
-2511
-2811
-3075
-3141
-2991
-2755
-2548
-2373
-2150
-1824
-1438
-1105
-903
-841
-856
-866
-813
-685
-504
-311
-154
-56
27
181
479
885
1261
1458
1438
1296
1170
1111
1035
817
416
-57
-430
-625
-729
-877
-1081
-1214
-1168
-1003
-879
-860
-846
-726
-545
-453
-490
-522
-419
-246
-190
-287
-344
-181
95
155
-170
-651
-877
-706
-402
-338
-605
-971
-1175
-1194
-1192
-1298
-1493
-1693
-1864
-2022
-2169
-2281
-2362
-2468
-2654
-2903
-3130
-3258
-3282
-3253
-3207
-3124
-2952
-2685
-2402
-2202
-2108
-2057
-2013
-2041
-2223
-2496
-2632
-2445
-1982
-1466
-1013
-463
448
1747
3113
4146
4720
5034
5312
5513
5361
4668
3584
2480
1630
1043
579
196
-9
40
256
477
636
771
872
811
491
33
-274
-255
-43
83
19
-81
-6
268
597
853
1015
1078
992
743
457
338
437
540
371
-95
-570
-763
-660
-499
-491
-609
-683
-629
-507
-389
-260
-75
118
200
132
28
46
223
421
481
372
207
131
197
344
475
547
597
696
862
1047
1195
1301
1428
1633
1896
2134
2290
2381
2470
2595
2739
2861
2949
3027
3115
3198
3253
3262
3224
3157
3088
3058
3080
3103
3061
2952
2874
2960
3243
3631
4018
4416
4929
5604
6343
6970
7373
7558
7571
7426
7101
6589
5909
5086
4167
3254
2472
1877
1407
972
577
339
359
575
800
891
860
829
882
977
1007
918
757
626
575
568
550
515
509
575
682
744
707
598
486
425
411
414
428
463
514
546
534
504
509
568
643
691
707
730
778
826
842
842
888
1008
1138
1195
1178
1167
1221
1306
1353
1372
1455
1647
1859
1956
1908
1823
1811
1858
1858
1748
1565
1379
1226
1109
1049
1066
1120
1130
1047
912
802
739
674
554
391
250
193
211
215
113
-88
-254
-232
-39
105
-7
-323
-543
-439
-104
135
80
-157
-305
-246
-104
-68
-179
-326
-396
-382
-361
-402
-514
-663
-796
-870
-882
-861
-850
-850
-838
-795
-733
-673
-618
-553
-478
-416
-396
-417
-443
-439
-410
-390
-412
-476
-557
-641
-723
-791
-818
-789
-736
-709
-726
-749
-734
-687
-654
-660
-680
-672
-640
-615
-609
-581
-495
-366
-249
-182
-153
-134
-121
-132
-169
-193
-173
-127
-115
-172
-274
-367
-417
-440
-469
-523
-597
-676
-744
-793
-822
-838
-847
-843
-818
-794
-810
-867
-908
-868
-749
-627
-563
-537
-485
-397
-331
-335
-382
-402
-378
-365
-427
-551
-663
-704
-687
-663
-666
-678
-665
-632
-611
-621
-640
-637
-617
-626
-694
-786
-838
-830
-787
-719
-576
-288
143
652
1191
1783
2457
3159
3755
4127
4271
4273
4208
4051
3718
3158
2419
1632
929
359
-124
-587
-1036
-1408
-1623
-1662
-1567
-1412
-1273
-1219
-1290
-1447
-1580
-1598
-1521
-1469
-1546
-1731
-1900
-1947
-1876
-1782
-1755
-1820
-1938
-2043
-2079
-2041
-1979
-1949
-1950
-2039
-1823
-1682
-1595
-1618
-1712
-1788
-1797
-1773
-1771
-1803
-1815
-1746
-1602
-1462
-1409
-1440
-1461
-1393
-1242
-1111
-1090
-1157
-1187
-1058
-770
-459
-305
-380
-558
-630
-511
-352
-383
-638
-886
-858
-549
-216
-70
-46
70
325
520
452
183
-36
-66
-20
-80
-228
-258
-31
341
615
669
594
557
611
667
630
519
433
425
445
408
293
170
120
134
110
-35
-275
-494
-590
-577
-550
-578
-652
-712
-727
-706
-683
-681
-698
-706
-669
-580
-489
-456
-476
-467
-352
-160
-4
40
13
19
99
200
253
262
280
335
408
478
563
692
843
953
988
972
945
903
811
663
493
325
147
-62
-267
-404
-458
-495
-599
-780
-968
-1105
-1209
-1348
-1559
-1804
-2021
-2181
-2315
-2466
-2644
-2819
-2954
-3050
-3137
-3248
-3378
-3490
-3551
-3555
-3530
-3519
-3548
-3615
-3692
-3742
-3757
-3778
-3860
-4010
-4172
-4275
-4290
-4241
-4152
-4022
-3855
-3707
-3662
-3754
-3907
-3993
-3942
-3803
-3693
-3679
-3705
-3643
-3409
-3045
-2682
-2432
-2312
-2270
-2263
-2288
-2335
-2359
-2304
-2155
-1949
-1728
-1489
-1177
-766
-299
146
548
972
1491
2099
2693
3152
3438
3606
3731
3834
3878
3812
3597
3229
2755
2267
1863
1582
1372
1159
924
746
729
902
1190
1480
1688
1800
1836
1823
1783
1742
1703
1635
1509
1343
1217
1209
1324
1480
1581
1599
1582
1576
1571
1529
1449
1377
1366
1421
1502
1558
1561
1511
1433
1370
1352
1378
1406
1393
1336
1278
1251
1251
1241
1197
1141
1108
1108
1104
1058
973
888
833
796
743
673
628
638
674
672
611
546
549
610
644
584
462
373
353
336
240
80
-43
-56
-3
12
-56
-146
-167
-98
-5
29
-27
-130
-224
-286
-326
-368
-416
-458
-475
-463
-441
-443
-482
-541
-588
-618
-664
-761
-891
-988
-997
-930
-847
-796
-774
-750
-721
-704
-702
-705
-707
-719
-747
-772
-764
-731
-713
-731
-756
-745
-691
-637
-623
-632
-621
-578
-545
-557
-593
-590
-518
-416
-352
-332
-300
-215
-115
-75
-99
-104
-30
73
88
-13
-116
-86
78
242
282
217
161
198
298
379
396
365
338
347
396
468
522
523
478
427
403
388
341
248
156
117
117
79
-52
-241
-402
-494
-561
-657
-772
-853
-879
-885
-907
-938
-955
-972
-1017
-1070
-1070
-1002
-933
-939
-997
-1004
-915
-797
-751
-778
-789
-723
-620
-548
-517
-468
-354
-215
-136
-158
-251
-339
-362
-317
-249
-185
-98
85
411
859
1376
1945
2594
3299
3946
4414
4692
4865
4984
4972
4714
4199
3538
2843
2121
1340
551
-117
-585
-899
-1138
-1285
-1254
-1022
-702
-453
-321
-219
-61
133
270
311
309
343
425
505
565
645
789
966
1089
1110
1081
1093
1167
1236
1226
1159
1128
1178
1251
1239
1109
938
830
808
809
765
673
591
560
562
560
537
509
487
459
423
408
444
508
543
528
504
527
596
662
678
662
658
686
726
750
751
746
758
806
877
937
956
947
958
1022
1100
1127
1087
1048
1073
1144
1169
1088
944
836
813
836
830
765
671
589
532
488
451
422
390
341
269
201
179
213
265
287
274
264
283
315
319
285
241
226
247
288
330
368
392
390
358
316
293
287
265
197
91
-10
-64
-66
-50
-62
-124
-209
-271
-292
-311
-388
-539
-713
-839
-889
-896
-908
-933
-950
-937
-893
-838
-799
-800
-844
-906
-948
-953
-933
-911
-891
-861
-811
-750
-698
-665
-651
-631
-590
-543
-523
-546
-586
-595
-564
-558
-648
-805
-913
-895
-804
-776
-870
-993
-1015
-914
-813
-840
-1008
-1218
-1366
-1426
-1438
-1442
-1452
-1463
-1474
-1484
-1495
-1507
-1530
-1567
-1615
-1659
-1692
-1706
-1696
-1668
-1644
-1649
-1674
-1682
-1652
-1611
-1615
-1675
-1733
-1727
-1677
-1663
-1730
-1810
-1792
-1637
-1439
-1303
-1224
-1084
-771
-305
205
683
1158
1698
2300
2862
3272
3480
3506
3376
3115
2766
2371
1915
1333
613
-124
-688
-996
-1176
-1436
-1808
-2081
-2002
-1557
-1017
-714
-751
-940
-1013
-898
-760
-816
-1124
-1527
-1826
-1925
-1870
-1762
-1671
-1624
-1630
-1675
-1727
-1750
-1727
-1642
-1475
-1228
-955
-734
-595
-492
-368
-251
-239
-362
-508
-516
-331
-63
135
218
274
402
569
637
505
231
-9
-85
-42
-43
-219
-557
-939
-1273
-1555
-1832
-2132
-2430
-2664
-2758
-2667
-2401
-2014
-1547
-983
-286
495
1218
1762
2135
2438
2721
2901
2866
2615
2268
1941
1649
1362
1093
898
810
786
756
694
628
579
525
422
241
-2
-251
-445
-566
-649
-769
-971
-1223
-1454
-1622
-1751
-1886
-2049
-2213
-2332
-2366
-2299
-2142
-1920
-1640
-1265
-756
-116
588
1291
1982
2695
3426
4078
4512
4659
4576
4383
4149
3857
3462
2974
2482
2083
1820
1671
1586
1534
1517
1544
1610
1683
1717
1675
1569
1447
1345
1259
1167
1075
1035
1091
1225
1379
1515
1645
1786
1906
1947
1899
1818
1757
1701
1589
1413
1250
1189
1225
1265
1217
1074
888
703
528
358
193
25
-161
-363
-522
-561
-477
-361
-324
-385
-460
-459
-374
-283
-252
-271
-279
-233
-150
-56
54
217
442
680
871
1019
1188
1420
1670
1866
2002
2152
2367
2605
2770
2817
2778
2706
2601
2447
2263
2086
1924
1771
1657
1659
1825
2104
2405
2706
3070
3523
3968
4259
4336
4278
4194
4110
3949
3620
3094
2417
1691
1043
556
199
-140
-528
-891
-1067
-970
-691
-418
-268
-225
-201
-142
-80
-66
-120
-214
-292
-319
-302
-269
-241
-209
-158
-106
-93
-129
-172
-170
-135
-135
-194
-248
-210
-75
57
94
50
17
53
136
223
311
424
553
653
693
703
735
794
838
840
829
855
922
985
1016
1041
1117
1254
1397
1482
1510
1535
1604
1698
1760
1764
1742
1751
1813
1891
1930
1915
1881
1875
1903
1917
1863
1726
1548
1408
1358
1387
1422
1401
1333
1295
1334
1399
1387
1258
1085
977
952
923
801
588
334
50
-287
-641
-884
-909
-767
-638
-644
-721
-701
-513
-267
-148
-244
-489
-752
-952
-1085
-1163
-1187
-1143
-1055
-977
-940
-911
-829
-681
-537
-487
-535
-592
-574
-501
-452
-464
-479
-433
-346
-316
-398
-526
-565
-439
-195
45
193
231
202
160
136
136
150
164
171
172
164
159
184
277
447
648
797
845
817
780
768
754
701
632
623
707
831
909
924
944
1028
1131
1144
1020
839
722
699
698
650
586
597
720
891
1007
1032
1002
968
937
885
809
733
673
619
551
483
455
495
577
630
592
462
294
159
90
66
33
-42
-148
-249
-328
-401
-483
-557
-603
-627
-655
-668
-581
-322
89
576
1112
1742
2482
3221
3779
4074
4177
4198
4147
3950
3564
3026
2389
1680
938
262
-251
-609
-903
-1187
-1398
-1438
-1309
-1114
-947
-814
-682
-557
-486
-478
-496
-508
-527
-591
-694
-778
-788
-734
-689
-718
-826
-977
-1137
-1292
-1442
-1584
-1723
-1870
-2017
-2127
-2171
-2167
-2174
-2220
-2260
-2253
-2226
-2265
-2389
-2497
-2466
-2308
-2164
-2146
-2213
-2236
-2150
-2020
-1966
-2052
-2240
-2438
-2579
-2636
-2627
-2590
-2553
-2518
-2458
-2378
-2321
-2319
-2349
-2346
-2268
-2139
-2017
-1919
-1797
-1587
-1284
-969
-734
-606
-528
-459
-411
-413
-444
-439
-359
-229
-103
6
141
352
638
936
1158
1252
1229
1173
1198
1345
1527
1582
1419
1091
740
476
303
142
-86
-388
-690
-869
-837
-601
-263
45
262
409
531
647
753
839
889
871
790
730
803
1023
1287
1500
1687
1943
2247
2414
2283
1934
1626
1527
1522
1372
997
562
272
154
56
-164
-524
-956
-1406
-1856
-2285
-2656
-2940
-3140
-3273
-3320
-3252
-3069
-2820
-2578
-2388
-2246
-2133
-2052
-2030
-2067
-2120
-2130
-2082
-2027
-2048
-2187
-2396
-2556
-2570
-2450
-2327
-2335
-2483
-2639
-2667
-2566
-2471
-2491
-2597
-2678
-2663
-2586
-2510
-2430
-2315
-2179
-2091
-2084
-2103
-2081
-2039
-2070
-2198
-2312
-2289
-2146
-2040
-2069
-2153
-2117
-1903
-1649
-1537
-1625
-1808
-1948
-1999
-2018
-2064
-2130
-2153
-2084
-1927
-1716
-1457
-1099
-597
21
673
1313
1993
2788
3678
4520
5144
5495
5638
5673
5640
5495
5168
4619
3876
3055
2307
1719
1256
805
312
-141
-393
-365
-133
140
337
466
590
731
840
860
807
756
748
753
721
665
679
828
1079
1311
1425
1412
1338
1269
1230
1211
1197
1161
1086
995
947
971
1005
947
787
653
682
834
913
781
528
383
468
668
783
748
658
610
602
585
556
550
544
461
286
137
161
358
572
665
660
705
870
1069
1155
1087
957
878
861
847
790
703
619
546
477
410
351
284
190
78
5
15
64
57
-44
-180
-252
-241
-225
-291
-425
-528
-538
-502
-510
-576
-628
-604
-559
-600
-754
-919
-983
-947
-906
-917
-937
-902
-826
-788
-813
-845
-824
-790
-832
-964
-1090
-1115
-1064
-1040
-1098
-1179
-1191
-1129
-1066
-1068
-1119
-1148
-1112
-1027
-951
-925
-956
-1011
-1041
-1024
-978
-938
-917
-897
-856
-800
-755
-723
-674
-584
-467
-361
-294
-262
-245
-219
-164
-77
20
92
124
134
149
162
148
109
77
68
50
-18
-115
-164
-126
-55
-36
-74
-98
-65
-36
-107
-277
-437
-495
-489
-529
-649
-755
-732
-578
-400
-295
-256
-222
-155
-82
-37
-12
18
57
97
146
228
347
476
575
641
707
776
800
725
574
438
401
443
489
524
637
921
1348
1790
2172
2570
3108
3778
4400
4783
4896
4861
4804
4728
4534
4134
3526
2788
2046
1416
944
593
288
5
-193
-213
-29
284
617
901
1110
1255
1362
1460
1576
1701
1781
1776
1699
1618
1601
1664
1768
1869
1947
2004
2036
2022
1970
1914
1903
1936
1959
1917
1816
1714
1663
1660
1665
1653
1640
1647
1670
1682
1673
1657
1648
1630
1573
1471
1366
1298
1269
1245
1200
1157
1154
1206
1276
1318
1320
1307
1312
1341
1374
1389
1387
1386
1403
1442
1496
1553
1612
1669
1714
1735
1727
1705
1691
1692
1694
1687
1676
1673
1681
1687
1681
1677
1694
1734
1777
1805
1815
1818
1818
1810
1796
1792
1806
1823
1808
1739
1626
1503
1401
1316
1221
1088
917
737
586
483
415
347
253
144
54
7
-14
-55
-140
-246
-320
-328
-296
-283
-312
-345
-321
-225
-101
-11
24
37
65
118
169
189
165
108
48
32
84
170
218
176
82
29
64
135
148
74
-30
-95
-105
-93
-80
-56
-16
11
-12
-78
-142
-180
-213
-280
-394
-515
-591
-607
-597
-607
-652
-701
-714
-680
-635
-622
-662
-734
-802
-848
-881
-913
-941
-955
-959
-982
-1050
-1149
-1217
-1199
-1104
-1020
-1028
-1115
-1184
-1148
-1016
-888
-855
-920
-1013
-1048
-995
-903
-854
-888
-967
-1005
-961
-892
-897
-1006
-1133
-1180
-1144
-1101
-1092
-1062
-932
-697
-423
-168
75
363
737
1177
1641
2089
2466
2705
2786
2778
2763
2721
2508
1970
1126
226
-436
-762
-905
-1089
-1377
-1628
-1658
-1411
-989
-585
-360
-373
-524
-623
-555
-393
-301
-315
-270
34
599
1223
1694
1925
1954
1842
1654
1491
1414
1341
1121
731
347
168
190
220
91
-173
-429
-594
-679
-691
-589
-377
-149
-16
15
48
149
276
332
287
223
232
328
461
603
777
1003
1205
1267
1137
886
632
436
281
153
83
91
137
163
163
177
204
195
123
44
10
-30
-187
-493
-839
-1070
-1148
-1175
-1266
-1425
-1579
-1666
-1706
-1747
-1802
-1835
-1803
-1679
-1483
-1241
-978
-681
-321
122
635
1169
1668
2090
2442
2783
3190
3692
4231
4690
4990
5149
5257
5377
5494
5549
5524
5467
5413
5317
5085
4682
4184
3710
3278
2791
2169
1483
917
593
474
442
444
508
638
751
753
649
533
468
420
339
274
350
627
1027
1415
1733
2024
2333
2624
2813
2880
2891
2916
2953
2943
2858
2733
2611
2488
2336
2146
1947
1764
1599
1438
1284
1154
1059
990
943
925
941
970
980
966
970
1038
1171
1320
1440
1524
1604
1708
1835
1972
2118
2290
2488
2687
2862
3018
3191
3402
3618
3783
3875
3935
4015
4120
4202
4226
4217
4227
4268
4286
4221
4082
3938
3840
3768
3656
3478
3281
3146
3103
3119
3167
3271
3469
3751
4058
4368
4742
5241
5814
6304
6581
6662
6640
6550
6329
5907
5308
4611
3860
3057
2248
1533
984
566
203
-95
-225
-139
62
208
246
277
406
606
745
754
703
694
742
782
766
732
751
835
938
1023
1095
1167
1224
1238
1229
1263
1373
1513
1590
1558
1467
1398
1387
1413
1444
1474
1511
1550
1586
1624
1673
1710
1695
1621
1540
1502
1490
1443
1340
1247
1246
1333
1411
1408
1346
1307
1316
1311
1232
1102
1010
992
982
897
745
621
613
714
834
894
880
833
799
804
838
871
868
818
740
677
664
707
787
868
912
905
868
831
799
742
622
455
309
247
258
279
258
202
153
147
171
196
200
176
117
30
-63
-123
-126
-88
-59
-69
-109
-150
-182
-224
-272
-297
-281
-259
-294
-398
-502
-525
-460
-387
-384
-445
-506
-515
-483
-445
-404
-332
-207
-55
66
127
148
179
253
357
455
520
557
590
648
739
839
914
951
964
970
955
892
787
687
634
623
614
591
584
620
676
701
684
666
688
733
751
720
668
621
570
495
415
371
377
389
354
275
226
269
387
495
518
468
408
381
369
324
236
142
85
58
10
-90
-219
-317
-354
-343
-323
-314
-313
-314
-314
-315
-315
-321
-353
-431
-540
-631
-666
-648
-590
-463
-208
207
746
1332
1927
2532
3150
3733
4199
4493
4605
4549
4339
3980
3482
2859
2138
1372
632
-28
-597
-1095
-1518
-1813
-1924
-1858
-1700
-1558
-1499
-1521
-1580
-1640
-1697
-1765
-1863
-2004
-2168
-2298
-2325
-2224
-2045
-1890
-1829
-1844
-1863
-1848
-1858
-1985
-2238
-2521
-2701
-2725
-2638
-2526
-2449
-2427
-2447
-2481
-2501
-2486
-2456
-2462
-2556
-2731
-2904
-2964
-2851
-2607
-2360
-2239
-2269
-2340
-2293
-2087
-1845
-1736
-1782
-1827
-1703
-1423
-1159
-1044
-1020
-937
-760
-608
-578
-593
-490
-223
66
210
201
170
222
340
440
490
529
603
732
927
1187
1480
1731
1875
1911
1886
1828
1733
1598
1456
1341
1249
1151
1046
984
1012
1129
1274
1395
1495
1601
1719
1828
1912
1973
2011
2008
1936
1812
1693
1630
1611
1574
1494
1425
1441
1532
1589
1523
1372
1265
1271
1311
1251
1058
825
640
482
273
2
-257
-461
-671
-979
-1355
-1652
-1761
-1736
-1732
-1825
-1945
-1978
-1911
-1836
-1836
-1901
-1948
-1923
-1842
-1757
-1702
-1671
-1632
-1562
-1472
-1400
-1378
-1400
-1420
-1401
-1356
-1330
-1352
-1400
-1429
-1426
-1430
-1498
-1664
-1907
-2169
-2393
-2550
-2654
-2741
-2844
-2959
-3055
-3112
-3143
-3184
-3257
-3355
-3449
-3514
-3527
-3474
-3361
-3211
-3057
-2915
-2775
-2626
-2479
-2358
-2259
-2147
-1988
-1797
-1624
-1501
-1399
-1260
-1060
-840
-662
-556
-518
-528
-560
-582
-552
-460
-335
-189
15
338
799
1336
1879
2423
3033
3748
4502
5137
5514
5616
5562
5491
5429
5241
4754
3943
3000
2193
1645
1252
824
291
-223
-524
-514
-265
44
267
376
463
633
885
1105
1181
1107
973
850
715
523
301
140
84
70
-2
-150
-293
-343
-311
-276
-281
-298
-278
-241
-245
-291
-305
-228
-125
-124
-247
-343
-246
32
291
377
341
365
531
720
766
642
478
402
417
443
422
374
341
330
316
284
246
228
226
215
168
99
56
79
146
191
161
63
-47
-122
-155
-167
-186
-229
-306
-403
-481
-510
-504
-523
-611
-745
-844
-846
-772
-713
-744
-855
-966
-1002
-967
-934
-974
-1079
-1169
-1174
-1100
-1019
-989
-999
-1000
-980
-984
-1046
-1142
-1198
-1175
-1104
-1057
-1068
-1108
-1126
-1098
-1036
-968
-914
-891
-908
-945
-960
-920
-841
-773
-744
-741
-726
-679
-608
-522
-433
-354
-297
-262
-233
-198
-167
-158
-161
-155
-126
-88
-43
11
70
112
114
95
105
167
247
285
263
221
221
285
372
416
379
292
232
244
285
262
143
9
-42
-4
20
-53
-191
-294
-327
-347
-413
-502
-548
-530
-490
-477
-481
-468
-433
-394
-362
-330
-302
-297
-322
-352
-367
-376
-405
-451
-479
-468
-436
-407
-373
-319
-266
-260
-323
-421
-514
-598
-692
-790
-852
-855
-805
-711
-544
-259
144
617
1117
1642
2212
2802
3332
3698
3855
3847
3773
3688
3533
3173
2553
1800
1154
759
541
325
43
-202
-268
-131
109
360
588
775
861
818
724
703
791
886
872
759
674
713
843
961
1014
1014
976
885
751
646
642
717
780
780
780
868
1033
1168
1197
1157
1129
1120
1069
957
858
847
890
883
794
706
707
766
770
677
574
571
663
730
693
599
552
579
617
600
538
485
463
439
392
349
354
412
476
501
492
484
504
534
549
549
554
578
610
628
623
615
639
704
773
798
761
705
689
732
798
841
861
895
973
1074
1144
1148
1092
1006
919
835
737
606
445
289
180
136
128
104
32
-77
-190
-286
-376
-481
-614
-758
-878
-953
-989
-1014
-1044
-1072
-1077
-1047
-985
-894
-788
-703
-676
-708
-750
-745
-704
-699
-784
-924
-1020
-1001
-890
-765
-682
-627
-559
-459
-359
-306
-313
-357
-407
-450
-485
-510
-520
-525
-540
-565
-582
-578
-569
-587
-643
-715
-777
-830
-900
-996
-1090
-1143
-1146
-1131
-1148
-1204
-1255
-1244
-1167
-1084
-1059
-1092
-1134
-1175
-1278
-1495
-1752
-1882
-1800
-1612
-1514
-1570
-1644
-1554
-1289
-1027
-949
-1067
-1248
-1368
-1419
-1466
-1556
-1668
-1743
-1745
-1670
-1543
-1412
-1313
-1256
-1220
-1187
-1163
-1173
-1223
-1280
-1299
-1264
-1188
-1066
-865
-559
-165
287
819
1467
2195
2865
3345
3628
3805
3918
3872
3552
2981
2326
1727
1172
580
-51
-610
-984
-1156
-1177
-1074
-846
-542
-274
-154
-203
-349
-492
-572
-599
-631
-729
-913
-1120
-1241
-1209
-1064
-926
-897
-988
-1131
-1235
-1270
-1276
-1324
-1427
-1507
-1463
-1262
-949
-613
-325
-129
-41
-8
81
308
591
717
550
188
-111
-181
-104
-106
-314
-652
-946
-1094
-1113
-1078
-1060
-1098
-1198
-1317
-1379
-1324
-1158
-982
-900
-948
-1064
-1141
-1133
-1085
-1065
-1087
-1104
-1086
-1087
-1190
-1415
-1692
-1940
-2144
-2357
-2628
-2957
-3292
-3561
-3696
-3653
-3446
-3116
-2696
-2205
-1672
-1129
-560
81
769
1320
1510
1555
1978
2695
2911
2014
657
180
767
1042
-108
-1900
-2839
-3341
-5744
-10869
-15663
-15873
-11099
-5688
-3782
-4497
-3309
2154
9210
13366
13200
11032
9493
8916
8272
7322
6812
7027
7255
6839
6077
5793
6116
6289
5700
4349
2714
1307
463
384
1014
1977
2760
2993
2603
1811
966
370
159
285
569
818
917
849
649
335
-71
-480
-758
-824
-733
-631
-642
-777
-953
-1096
-1197
-1286
-1370
-1416
-1400
-1350
-1327
-1360
-1407
-1401
-1321
-1216
-1143
-1101
-1022
-847
-591
-318
-64
204
537
913
1227
1380
1390
1387
1481
1653
1786
1828
1863
2020
2306
2605
2801
2899
2999
3165
3365
3530
3638
3714
3771
3783
3720
3584
3409
3242
3117
3027
2940
2858
2860
3061
3482
4010
4501
4922
5363
5873
6354
6629
6633
6471
6271
6048
5697
5141
4414
3619
2831
2087
1424
887
499
245
107
108
278
586
920
1150
1224
1189
1128
1083
1028
917
740
550
424
397
433
464
447
393
345
317
301
278
230
147
37
-62
-103
-81
-47
-57
-119
-187
-224
-245
-285
-339
-362
-335
-294
-291
-337
-393
-417
-404
-374
-343
-312
-290
-286
-299
-308
-277
-204
-119
-54
-15
20
69
104
68
-60
-214
-295
-271
-212
-214
-276
-302
-232
-122
-83
-135
-174
-94
75
206
232
242
382
676
983
1114
999
742
507
382
332
258
100
-130
-361
-535
-636
-681
-700
-729
-810
-967
-1182
-1386
-1507
-1539
-1534
-1533
-1535
-1524
-1516
-1555
-1638
-1705
-1683
-1569
-1430
-1334
-1285
-1238
-1158
-1055
-971
-944
-970
-1019
-1062
-1115
-1210
-1350
-1474
-1514
-1477
-1445
-1494
-1615
-1738
-1807
-1837
-1873
-1923
-1970
-2011
-2060
-2132
-2205
-2246
-2242
-2196
-2111
-2001
-1907
-1872
-1888
-1877
-1770
-1588
-1436
-1401
-1461
-1508
-1470
-1359
-1241
-1142
-1042
-929
-828
-756
-694
-600
-469
-346
-270
-227
-183
-130
-100
-119
-168
-208
-219
-208
-195
-190
-191
-185
-143
-44
94
216
267
243
184
125
75
30
-3
-2
37
97
161
229
315
434
567
679
733
717
633
494
330
183
96
67
55
32
34
137
370
688
1044
1466
2009
2649
3252
3684
3925
4044
4084
4003
3740
3299
2733
2063
1289
456
-321
-938
-1395
-1780
-2155
-2471
-2616
-2542
-2331
-2123
-1999
-1932
-1839
-1677
-1490
-1351
-1289
-1276
-1253
-1188
-1084
-945
-795
-685
-679
-783
-905
-924
-825
-716
-700
-712
-551
-90
552
1098
1370
1445
1537
1739
1928
1908
1633
1270
1046
1053
1185
1268
1236
1174
1210
1366
1511
1482
1247
927
689
588
535
413
202
-5
-90
-47
17
-2
-96
-172
-182
-194
-303
-486
-604
-566
-453
-433
-562
-730
-781
-687
-562
-535
-646
-844
-1052
-1196
-1234
-1178
-1107
-1104
-1185
-1273
-1266
-1145
-1011
-1009
-1203
-1527
-1831
-2006
-2066
-2087
-2107
-2079
-1939
-1704
-1469
-1316
-1257
-1269
-1345
-1489
-1658
-1756
-1713
-1562
-1412
-1336
-1313
-1249
-1089
-878
-739
-764
-931
-1125
-1221
-1171
-1018
-841
-685
-539
-373
-178
18
157
187
104
-38
-153
-169
-70
101
286
443
572
692
824
982
1149
1285
1334
1287
1205
1191
1308
1510
1689
1789
1867
2017
2241
2420
2442
2346
2303
2442
2702
2888
2872
2716
2608
2670
2855
2991
2945
2733
2505
2426
2545
2758
2887
2824
2620
2422
2316
2263
2157
1956
1732
1584
1539
1538
1505
1412
1266
1085
882
682
502
320
93
-179
-438
-632
-777
-939
-1151
-1391
-1642
-1928
-2250
-2540
-2720
-2816
-2947
-3167
-3374
-3417
-3294
-3163
-3114
-3034
-2752
-2271
-1785
-1437
-1136
-691
-89
439
648
524
262
34
-169
-473
-949
-1549
-2180
-2787
-3355
-3876
-4333
-4716
-5022
-5235
-5317
-5248
-5074
-4882
-4742
-4661
-4583
-4450
-4252
-4022
-3794
-3580
-3366
-3138
-2888
-2608
-2279
-1890
-1470
-1070
-716
-392
-83
187
387
529
675
862
1044
1132
1105
1050
1079
1206
1347
1412
1379
1296
1212
1137
1059
973
889
820
780
780
820
894
990
1091
1168
1190
1158
1114
1119
1208
1355
1505
1621
1722
1853
2034
2222
2325
2286
2144
2003
1938
1927
1894
1800
1677
1592
1575
1598
1623
1633
1619
1558
1437
1278
1133
1029
940
810
629
454
356
338
335
284
183
84
19
-34
-105
-190
-261
-315
-391
-517
-662
-763
-798
-828
-924
-1089
-1240
-1290
-1236
-1137
-1060
-1031
-1050
-1101
-1155
-1171
-1138
-1094
-1107
-1195
-1297
-1326
-1256
-1141
-1054
-1011
-981
-949
-938
-965
-1014
-1053
-1067
-1053
-1007
-918
-801
-702
-655
-648
-642
-616
-595
-600
-614
-599
-549
-489
-436
-373
-283
-179
-110
-115
-181
-258
-300
-303
-296
-305
-323
-317
-278
-239
-249
-311
-372
-383
-362
-381
-475
-593
-653
-636
-601
-613
-665
-699
-680
-621
-566
-540
-539
-541
-528
-494
-459
-459
-512
-598
-655
-642
-576
-517
-508
-538
-560
-545
-506
-474
-454
-425
-377
-327
-300
-302
-325
-381
-491
-642
-761
-777
-697
-583
-445
-204
227
821
1458
2059
2655
3286
3871
4248
4348
4273
4179
4098
3907
3476
2806
2020
1257
597
47
-433
-878
-1279
-1570
-1674
-1588
-1398
-1207
-1059
-946
-865
-833
-859
-909
-942
-958
-988
-1037
-1065
-1031
-945
-859
-802
-760
-709
-665
-681
-777
-906
-982
-952
-844
-741
-705
-723
-729
-677
-579
-491
-438
-398
-330
-229
-126
-41
38
129
232
332
429
542
677
801
880
925
990
1105
1233
1321
1358
1398
1486
1599
1668
1657
1611
1601
1651
1715
1735
1708
1687
1714
1775
1808
1772
1689
1621
1600
1592
1544
1445
1351
1318
1344
1381
1390
1370
1341
1311
1273
1226
1174
1119
1058
998
956
938
930
909
880
869
892
917
901
839
773
752
773
790
763
698
633
593
571
540
494
451
438
457
481
480
452
415
393
389
395
400
400
391
375
360
362
393
450
516
576
619
644
656
674
717
791
873
937
975
1003
1040
1092
1157
1226
1284
1320
1336
1348
1366
1380
1380
1373
1380
1397
1376
1277
1121
977
884
799
657
461
289
202
169
104
-22
-151
-202
-176
-155
-217
-347
-464
-525
-564
-643
-767
-870
-895
-863
-844
-869
-890
-848
-761
-722
-782
-892
-962
-975
-996
-1074
-1171
-1206
-1160
-1087
-1047
-1056
-1102
-1169
-1235
-1273
-1281
-1297
-1362
-1468
-1576
-1671
-1782
-1896
-1930
-1833
-1672
-1567
-1523
-1398
-1052
-495
142
770
1395
2024
2598
3028
3283
3385
3334
3111
2720
2205
1592
879
94
-649
-1229
-1632
-1945
-2220
-2399
-2386
-2198
-1959
-1792
-1714
-1665
-1594
-1512
-1465
-1475
-1529
-1604
-1684
-1752
-1790
-1782
-1730
-1676
-1662
-1693
-1716
-1681
-1599
-1533
-1526
-1554
-1560
-1534
-1523
-1564
-1639
-1683
-1662
-1608
-1577
-1572
-1533
-1405
-1201
-1015
-933
-968
-1065
-1145
-1164
-1116
-1017
-899
-800
-751
-777
-856
-906
-842
-644
-404
-256
-237
-221
-41
329
732
963
960
831
727
709
735
717
631
541
521
585
672
722
733
755
804
824
779
733
794
995
1267
1558
1910
2354
2778
2973
2851
2539
2203
1826
1263
480
-336
-942
-1279
-1474
-1635
-1740
-1740
-1691
-1719
-1874
-2089
-2310
-2573
-2957
-3464
-3994
-4439
-4789
-5135
-5557
-6034
-6481
-6859
-7256
-7815
-8549
-9216
-9435
-8989
-8026
-6920
-5902
-4851
-3490
-1773
-26
1309
2042
2325
2414
2428
2343
2155
1958
1852
1824
1794
1745
1769
1942
2215
2428
2467
2370
2298
2381
2610
2869
3051
3122
3117
3080
3010
2859
2591
2242
1923
1731
1663
1607
1455
1204
938
718
502
204
-184
-572
-872
-1071
-1189
-1184
-954
-451
239
961
1621
2226
2793
3248
3461
3363
3020
2588
2198
1883
1598
1305
1036
865
835
898
944
897
776
657
592
565
530
471
418
404
412
398
330
236
176
179
217
271
373
593
956
1396
1831
2254
2720
3236
3701
3988
4070
4034
3961
3820
3512
2973
2245
1430
623
-111
-742
-1270
-1714
-2073
-2300
-2331
-2152
-1843
-1521
-1254
-1038
-846
-690
-615
-624
-647
-610
-516
-441
-422
-381
-195
160
560
854
1013
1143
1339
1577
1757
1829
1855
1927
2058
2168
2186
2131
2092
2142
2274
2427
2545
2619
2681
2758
2857
2959
3040
3085
3101
3116
3146
3180
3179
3127
3050
2996
2974
2939
2838
2677
2517
2417
2385
2393
2417
2453
2488
2491
2445
2374
2320
2289
2244
2149
2020
1909
1835
1770
1669
1536
1424
1361
1304
1178
966
753
645
661
709
693
616
569
609
690
720
678
623
606
597
540
443
384
406
455
447
372
313
341
434
503
497
451
448
538
698
856
953
985
1005
1070
1180
1288
1352
1387
1439
1516
1570
1557
1493
1441
1426
1405
1327
1198
1076
994
924
833
736
691
720
761
740
643
538
494
508
513
463
389
353
387
443
451
369
233
130
125
182
189
72
-107
-189
-92
83
149
46
-90
-96
-1
9
-175
-437
-567
-520
-461
-564
-806
-1014
-1073
-1037
-1031
-1101
-1204
-1293
-1360
-1405
-1395
-1320
-1226
-1178
-1181
-1177
-1126
-1058
-1028
-1047
-1068
-1054
-1026
-1023
-1055
-1092
-1107
-1107
-1094
-1049
-950
-809
-686
-644
-692
-775
-809
-752
-646
-585
-601
-608
-465
-116
356
825
1285
1842
2553
3299
3850
4088
4113
4124
4205
4250
4075
3591
2875
2109
1463
999
651
288
-146
-565
-807
-789
-593
-386
-262
-208
-180
-182
-243
-349
-438
-482
-525
-617
-740
-821
-816
-751
-684
-632
-582
-528
-481
-444
-400
-343
-293
-263
-230
-161
-75
-40
-99
-207
-275
-265
-214
-178
-161
-128
-70
-36
-79
-196
-317
-374
-355
-306
-281
-297
-329
-339
-304
-217
-91
50
170
248
284
309
358
437
528
612
689
768
842
894
916
929
954
987
993
951
879
815
767
711
640
592
608
672
714
680
591
526
535
591
628
599
515
435
418
477
556
568
463
270
68
-112
-307
-551
-799
-958
-998
-1004
-1074
-1195
-1264
-1212
-1097
-1065
-1194
-1415
-1570
-1575
-1506
-1508
-1659
-1884
-2029
-2023
-1932
-1861
-1832
-1789
-1704
-1655
-1734
-1932
-2140
-2286
-2416
-2610
-2838
-2963
-2861
-2553
-2180
-1864
-1631
-1428
-1205
-952
-701
-478
-305
-190
-129
-101
-59
47
221
384
418
293
125
69
171
325
412
424
451
538
637
684
702
762
855
873
736
496
295
208
177
84
-122
-394
-626
-724
-650
-437
-188
-13
46
48
75
143
193
164
72
-19
-71
-107
-168
-252
-323
-360
-368
-341
-255
-100
77
200
245
273
349
450
485
418
332
347
493
687
880
1138
1568
2159
2752
3214
3586
4015
4552
5053
5326
5316
5124
4861
4525
4034
3337
2466
1513
577
-243
-889
-1380
-1785
-2146
-2413
-2489
-2362
-2153
-2016
-2013
-2073
-2110
-2113
-2126
-2160
-2169
-2126
-2069
-2072
-2142
-2211
-2218
-2183
-2163
-2177
-2192
-2203
-2249
-2353
-2458
-2453
-2310
-2134
-2069
-2142
-2232
-2195
-2019
-1828
-1754
-1800
-1845
-1779
-1618
-1480
-1464
-1551
-1629
-1617
-1530
-1466
-1490
-1580
-1639
-1584
-1408
-1178
-976
-821
-656
-418
-120
162
379
561
768
1006
1211
1340
1447
1623
1898
2206
2460
2629
2733
2790
2795
2764
2751
2800
2894
2970
2990
2983
3010
3090
3178
3215
3185
3117
3028
2911
2764
2627
2559
2572
2608
2600
2552
2522
2542
2561
2498
2346
2180
2080
2039
1979
1853
1696
1562
1464
1360
1220
1064
939
848
742
571
351
168
104
152
205
144
-41
-222
-241
-74
140
232
142
-34
-156
-171
-126
-107
-152
-250
-352
-425
-465
-495
-522
-515
-448
-354
-295
-287
-269
-175
-35
48
26
-45
-98
-147
-250
-377
-406
-285
-145
-174
-380
-542
-449
-165
17
-93
-380
-559
-480
-282
-200
-312
-490
-583
-587
-611
-710
-815
-823
-720
-602
-566
-604
-622
-556
-443
-392
-468
-633
-770
-797
-730
-660
-649
-677
-667
-581
-456
-362
-333
-340
-333
-297
-246
-204
-189
-208
-257
-319
-360
-353
-305
-239
-146
21
306
693
1118
1569
2105
2769
3468
4014
4279
4306
4246
4183
4055
3745
3213
2532
1815
1149
584
143
-185
-436
-631
-739
-707
-534
-300
-104
10
61
93
120
127
89
-8
-148
-285
-369
-386
-382
-414
-491
-565
-597
-607
-651
-742
-833
-864
-834
-794
-777
-770
-748
-721
-716
-730
-718
-656
-577
-533
-532
-517
-441
-331
-255
-246
-260
-230
-146
-60
-20
-17
-8
21
49
66
105
195
320
435
513
568
624
678
714
750
817
915
1000
1032
1023
1016
1037
1071
1103
1143
1209
1286
1339
1367
1415
1514
1636
1707
1690
1619
1566
1566
1593
1602
1578
1546
1537
1560
1603
1641
1640
1592
1518
1457
1446
1476
1507
1509
1494
1483
1466
1410
1299
1154
1022
923
840
755
680
645
657
689
705
685
632
568
517
486
464
419
341
263
235
261
286
247
156
93
120
215
300
324
315
336
413
508
569
583
589
629
699
750
759
764
831
961
1079
1120
1108
1129
1212
1293
1294
1241
1230
1297
1353
1283
1108
983
1025
1180
1285
1246
1141
1122
1250
1430
1522
1483
1397
1373
1435
1520
1568
1572
1574
1591
1606
1621
1669
1766
1862
1885
1846
1840
1937
2086
2167
2132
2050
2007
1988
1904
1733
1558
1464
1426
1349
1189
1007
887
835
789
710
611
531
502
542
665
875
1146
1468
1882
2423
3051
3624
3989
4105
4049
3908
3683
3299
2703
1936
1125
404
-159
-574
-882
-1111
-1257
-1301
-1233
-1074
-888
-758
-729
-777
-827
-830
-810
-815
-841
-840
-775
-672
-587
-531
-473
-395
-331
-333
-414
-546
-684
-795
-854
-866
-862
-870
-868
-805
-670
-528
-457
-469
-503
-508
-506
-525
-542
-505
-415
-345
-349
-392
-402
-356
-309
-306
-331
-344
-334
-328
-324
-287
-204
-119
-90
-109
-103
-28
73
107
39
-59
-76
22
161
225
169
60
16
75
175
229
212
181
192
243
307
379
458
518
505
417
327
310
348
345
260
157
144
226
309
315
277
277
322
314
171
-68
-278
-388
-435
-492
-559
-553
-421
-204
10
160
259
339
403
457
524
618
707
742
720
704
748
828
878
886
918
1048
1282
1570
1865
2135
2315
2331
2178
1937
1693
1450
1150
793
494
386
476
641
759
808
827
833
798
721
658
667
725
779
825
928
1134
1381
1536
1524
1390
1227
1072
898
686
460
261
93
-67
-230
-402
-606
-866
-1175
-1469
-1677
-1789
-1885
-2046
-2277
-2496
-2605
-2577
-2475
-2389
-2341
-2278
-2132
-1900
-1633
-1371
-1096
-760
-358
53
425
755
1081
1430
1768
2031
2172
2199
2168
2140
2129
2082
1943
1711
1475
1354
1408
1616
1957
2467
3231
4309
5660
7151
8627
9978
11126
11962
12344
12185
11565
10708
9805
8855
7718
6338
4884
3629
2708
2011
1333
586
-152
-763
-1198
-1472
-1618
-1673
-1701
-1773
-1892
-1972
-1916
-1708
-1410
-1106
-833
-591
-366
-137
119
375
534
496
262
-50
-302
-457
-566
-667
-728
-709
-643
-605
-607
-579
-470
-333
-267
-279
-265
-120
122
336
450
511
622
826
1085
1338
1553
1719
1829
1897
1954
2018
2064
2053
1989
1936
1964
2101
2311
2537
2734
2892
3030
3183
3352
3497
3550
3486
3359
3252
3208
3195
3162
3102
3055
3053
3083
3097
3053
2949
2816
2683
2563
2443
2309
2168
2058
2012
2031
2081
2127
2142
2108
2013
1868
1712
1590
1508
1415
1264
1051
834
688
641
656
656
590
474
375
343
363
377
355
321
318
356
395
404
395
402
433
473
520
589
673
724
703
650
658
782
973
1131
1231
1332
1484
1652
1746
1738
1706
1743
1837
1884
1828
1742
1750
1885
2057
2165
2207
2251
2321
2360
2326
2267
2274
2355
2409
2347
2205
2101
2086
2078
1962
1734
1502
1370
1342
1347
1321
1247
1136
1011
906
857
842
777
594
332
119
56
119
203
233
221
207
186
128
35
-56
-136
-255
-455
-702
-908
-1019
-1059
-1074
-1064
-1021
-970
-976
-1070
-1198
-1270
-1250
-1173
-1111
-1121
-1188
-1227
-1117
-795
-338
94
430
782
1330
2091
2862
3399
3645
3732
3784
3755
3491
2911
2079
1149
256
-516
-1112
-1519
-1777
-1935
-2000
-1923
-1684
-1348
-1032
-819
-706
-642
-608
-627
-703
-799
-858
-864
-859
-892
-953
-991
-959
-859
-721
-564
-397
-251
-188
-240
-345
-375
-274
-130
-103
-244
-439
-530
-475
-362
-279
-231
-187
-175
-261
-431
-555
-527
-395
-308
-332
-359
-237
59
386
584
613
544
473
443
439
428
391
336
300
323
409
528
640
734
799
803
724
589
485
479
550
603
568
477
423
456
522
521
421
286
202
182
152
62
-52
-94
-24
82
102
-4
-166
-286
-339
-373
-433
-505
-546
-539
-512
-489
-460
-400
-314
-246
-234
-276
-347
-425
-499
-556
-575
-561
-561
-620
-720
-790
-783
-731
-701
-713
-733
-734
-748
-810
-892
-921
-876
-834
-877
-997
-1100
-1124
-1124
-1199
-1380
-1591
-1731
-1788
-1829
-1912
-2011
-2051
-1997
-1880
-1776
-1749
-1799
-1882
-1947
-1995
-2085
-2273
-2536
-2764
-2851
-2797
-2704
-2670
-2690
-2696
-2660
-2619
-2596
-2553
-2465
-2410
-2511
-2768
-2995
-2995
-2801
-2658
-2750
-2988
-3126
-3058
-2929
-2933
-3058
-3112
-2999
-2836
-2783
-2834
-2813
-2625
-2398
-2327
-2435
-2547
-2494
-2305
-2147
-2129
-2198
-2214
-2073
-1789
-1472
-1243
-1134
-1045
-831
-470
-133
-51
-292
-686
-994
-1117
-1129
-1124
-1094
-947
-591
11
835
1789
2700
3359
3667
3691
3597
3488
3321
2982
2422
1715
1008
434
43
-219
-444
-694
-947
-1105
-1079
-867
-562
-297
-140
-68
-14
50
67
-25
-206
-380
-478
-523
-572
-612
-550
-340
-67
122
174
167
200
275
325
298
199
39
-181
-424
-600
-654
-650
-719
-891
-1032
-984
-761
-541
-485
-584
-716
-796
-839
-891
-941
-961
-984
-1081
-1266
-1445
-1509
-1462
-1427
-1511
-1691
-1854
-1918
-1905
-1888
-1892
-1897
-1887
-1894
-1951
-2048
-2136
-2191
-2232
-2279
-2317
-2314
-2266
-2203
-2146
-2086
-2008
-1929
-1874
-1842
-1813
-1785
-1800
-1884
-1988
-2032
-2001
-1958
-1962
-1976
-1917
-1764
-1574
-1398
-1209
-972
-759
-716
-896
-1173
-1354
-1401
-1459
-1658
-1915
-2003
-1804
-1447
-1164
-1060
-1042
-981
-876
-829
-880
-944
-934
-870
-841
-866
-842
-685
-451
-301
-320
-420
-438
-308
-114
20
60
68
105
175
235
255
237
197
156
138
160
214
269
305
330
367
405
404
342
246
178
160
162
147
126
126
140
110
4
-134
-209
-189
-142
-166
-293
-455
-547
-533
-480
-495
-619
-779
-857
-826
-787
-854
-1000
-1067
-933
-678
-509
-539
-654
-657
-489
-297
-259
-386
-529
-554
-475
-412
-448
-541
-584
-532
-441
-416
-502
-651
-782
-868
-948
-1048
-1129
-1129
-1052
-956
-854
-663
-315
135
556
909
1306
1835
2383
2709
2706
2532
2440
2480
2430
2047
1311
450
-287
-814
-1216
-1604
-1992
-2297
-2427
-2361
-2158
-1885
-1590
-1338
-1225
-1295
-1458
-1534
-1444
-1323
-1357
-1538
-1640
-1478
-1138
-870
-791
-789
-709
-561
-501
-607
-788
-915
-958
-975
-1003
-1016
-1000
-970
-941
-877
-754
-611
-521
-513
-538
-524
-464
-416
-442
-535
-615
-590
-440
-260
-157
-145
-133
-51
51
88
74
119
270
411
401
278
234
366
542
561
412
295
367
556
651
570
437
416
518
623
631
557
475
439
437
441
443
467
525
583
587
514
410
343
326
289
161
-31
-170
-179
-97
-34
-44
-90
-99
-55
-16
-40
-120
-210
-263
-277
-280
-295
-319
-319
-274
-214
-194
-231
-277
-262
-185
-121
-121
-137
-69
97
264
324
290
268
337
472
591
666
737
835
946
1042
1116
1170
1187
1162
1139
1168
1236
1259
1190
1110
1146
1309
1451
1430
1289
1203
1252
1327
1265
1061
873
820
839
784
621
473
459
542
571
468
309
230
259
291
213
21
-188
-328
-398
-449
-508
-552
-556
-543
-559
-614
-663
-658
-611
-576
-598
-670
-752
-816
-866
-907
-934
-945
-956
-995
-1063
-1115
-1099
-1021
-936
-895
-902
-922
-936
-945
-958
-954
-910
-837
-755
-651
-466
-153
257
683
1086
1507
2007
2554
3009
3241
3253
3176
3138
3133
3030
2715
2216
1687
1262
949
661
333
3
-236
-333
-314
-233
-120
16
150
246
295
313
317
294
222
107
-21
-132
-214
-260
-274
-267
-271
-319
-411
-507
-574
-611
-652
-718
-785
-812
-797
-789
-846
-960
-1065
-1105
-1104
-1130
-1212
-1293
-1300
-1231
-1159
-1135
-1142
-1129
-1085
-1050
-1047
-1051
-1019
-950
-885
-864
-881
-893
-870
-821
-781
-781
-816
-859
-888
-906
-924
-940
-931
-894
-857
-854
-882
-924
-982
-1074
-1200
-1311
-1359
-1358
-1377
-1459
-1562
-1599
-1545
-1465
-1440
-1479
-1526
-1533
-1515
-1513
-1527
-1521
-1473
-1408
-1370
-1366
-1372
-1366
-1345
-1298
-1200
-1050
-909
-867
-953
-1108
-1242
-1326
-1418
-1581
-1802
-1992
-2071
-2044
-1986
-1966
-1989
-2003
-1972
-1923
-1916
-1977
-2068
-2124
-2113
-2051
-1974
-1910
-1865
-1832
-1786
-1696
-1554
-1403
-1299
-1264
-1260
-1249
-1240
-1269
-1334
-1375
-1336
-1241
-1173
-1189
-1262
-1319
-1302
-1230
-1180
-1216
-1334
-1437
-1405
-1221
-1016
-951
-1029
-1060
-857
-479
-221
-312
-668
-978
-1023
-868
-743
-770
-867
-891
-789
-609
-399
-171
46
188
217
183
184
264
384
477
527
556
593
656
753
899
1067
1181
1192
1140
1130
1212
1306
1290
1138
966
895
894
821
601
339
223
315
503
660
795
1020
1368
1722
1959
2125
2396
2872
3426
3808
3889
3788
3719
3742
3688
3343
2673
1845
1055
360
-306
-988
-1641
-2183
-2591
-2904
-3155
-3348
-3502
-3674
-3907
-4138
-4247
-4176
-3997
-3812
-3624
-3330
-2869
-2294
-1716
-1200
-731
-330
-103
-88
-158
-161
-133
-243
-514
-710
-607
-278
80
578
1649
3402
5148
5917
5540
4955
5161
5985
6205
4980
2897
1409
1320
2101
2651
2496
2067
1977
2311
2684
2755
2509
2129
1714
1265
843
576
544
693
881
983
971
905
857
863
926
1027
1124
1169
1136
1046
937
830
723
620
557
566
627
682
681
645
628
641
627
518
314
92
-76
-186
-290
-426
-574
-686
-744
-772
-791
-790
-756
-706
-676
-667
-632
-520
-349
-182
-58
63
257
556
914
1257
1555
1836
2132
2430
2682
2863
2997
3127
3267
3385
3436
3410
3338
3273
3250
3270
3299
3294
3244
3197
3220
3329
3449
3484
3423
3353
3356
3405
3398
3281
3129
3056
3092
3152
3144
3070
2998
2971
2965
2930
2861
2784
2717
2649
2570
2494
2426
2343
2218
2065
1935
1857
1796
1696
1548
1404
1327
1335
1392
1450
1481
1477
1458
1466
1540
1675
1810
1885
1901
1918
1976
2051
2092
2087
2079
2101
2135
2142
2117
2102
2144
2248
2381
2505
2593
2616
2556
2422
2253
2079
1905
1727
1575
1500
1524
1601
1675
1761
1939
2265
2683
3093
3465
3862
4339
4830
5182
5306
5241
5086
4870
4514
3930
3122
2205
1332
601
1
-532
-1039
-1486
-1785
-1881
-1819
-1707
-1620
-1557
-1495
-1439
-1398
-1343
-1229
-1070
-962
-1005
-1184
-1382
-1495
-1530
-1570
-1666
-1784
-1854
-1847
-1795
-1749
-1721
-1682
-1606
-1517
-1473
-1498
-1550
-1567
-1544
-1535
-1561
-1527
-1316
-950
-601
-441
-476
-548
-516
-386
-264
-218
-213
-190
-131
-46
77
257
466
628
684
661
636
668
738
786
783
745
710
698
709
741
785
815
805
759
716
711
729
706
606
462
356
337
365
354
270
153
75
61
78
82
55
17
-10
-12
14
59
115
182
270
391
519
591
548
418
307
299
369
414
371
286
257
320
430
524
602
702
827
921
929
866
806
799
814
771
628
428
259
161
97
13
-86
-141
-107
-18
47
48
9
-14
-2
15
-8
-94
-223
-351
-427
-417
-333
-220
-123
-49
17
76
106
100
90
110
143
151
135
157
263
416
532
574
592
632
670
632
487
270
31
-206
-439
-643
-801
-952
-1151
-1382
-1542
-1535
-1386
-1222
-1139
-1118
-1086
-1028
-997
-1032
-1111
-1200
-1307
-1461
-1654
-1817
-1898
-1934
-2007
-2154
-2314
-2395
-2375
-2315
-2290
-2320
-2355
-2345
-2297
-2265
-2297
-2378
-2460
-2515
-2539
-2526
-2437
-2208
-1820
-1312
-739
-118
582
1359
2108
2650
2865
2803
2637
2500
2344
1999
1374
579
-163
-699
-1049
-1321
-1576
-1794
-1931
-1966
-1885
-1669
-1347
-1017
-789
-698
-693
-715
-743
-771
-785
-795
-868
-1069
-1331
-1463
-1333
-1047
-867
-937
-1117
-1125
-823
-329
134
462
725
1019
1341
1606
1738
1732
1640
1521
1414
1342
1304
1288
1278
1269
1263
1248
1213
1164
1131
1134
1149
1130
1059
972
944
1003
1093
1124
1061
958
904
940
1045
1172
1299
1422
1523
1575
1569
1526
1471
1396
1272
1088
881
710
597
498
337
66
-295
-661
-952
-1148
-1304
-1491
-1722
-1931
-2030
-1994
-1894
-1837
-1878
-1980
-2075
-2145
-2223
-2336
-2454
-2520
-2521
-2508
-2521
-2521
-2436
-2246
-2022
-1860
-1787
-1748
-1689
-1625
-1624
-1726
-1890
-2034
-2120
-2184
-2297
-2481
-2680
-2822
-2877
-2866
-2833
-2809
-2813
-2848
-2892
-2887
-2799
-2658
-2548
-2523
-2550
-2554
-2519
-2491
-2515
-2573
-2617
-2637
-2660
-2701
-2722
-2667
-2529
-2362
-2218
-2100
-1972
-1812
-1633
-1467
-1326
-1196
-1062
-937
-843
-766
-645
-422
-107
231
525
777
1030
1291
1505
1609
1609
1578
1584
1638
1693
1709
1691
1692
1765
1917
2082
2174
2158
2089
2055
2078
2093
2030
1908
1826
1857
1984
2128
2232
2297
2343
2370
2361
2315
2230
2081
1845
1536
1206
906
650
428
258
169
158
180
211
296
510
866
1303
1770
2278
2847
3408
3810
3963
3926
3826
3699
3428
2877
2058
1155
370
-225
-687
-1089
-1438
-1700
-1852
-1894
-1822
-1635
-1382
-1167
-1076
-1102
-1149
-1143
-1101
-1097
-1174
-1287
-1365
-1378
-1348
-1316
-1294
-1263
-1202
-1136
-1122
-1182
-1260
-1254
-1109
-895
-745
-722
-754
-735
-651
-596
-671
-864
-1053
-1126
-1070
-967
-908
-924
-964
-960
-887
-780
-694
-657
-660
-679
-697
-693
-657
-605
-569
-566
-574
-563
-535
-519
-521
-511
-460
-382
-315
-266
-211
-138
-74
-46
-49
-44
-2
60
96
73
1
-69
-89
-61
-41
-84
-177
-247
-237
-187
-180
-256
-377
-468
-499
-482
-432
-364
-301
-263
-238
-183
-84
7
16
-69
-183
-271
-336
-416
-500
-535
-503
-463
-484
-557
-591
-532
-428
-370
-389
-420
-390
-301
-226
-212
-234
-240
-217
-201
-223
-265
-289
-286
-277
-280
-283
-266
-244
-271
-380
-529
-631
-632
-570
-538
-583
-667
-712
-691
-643
-623
-646
-697
-768
-863
-968
-1045
-1071
-1075
-1107
-1171
-1222
-1215
-1156
-1103
-1107
-1175
-1262
-1322
-1339
-1337
-1362
-1426
-1481
-1461
-1351
-1216
-1128
-1080
-991
-811
-595
-438
-374
-330
-218
-36
149
283
371
460
581
734
905
1060
1163
1197
1205
1255
1367
1476
1508
1451
1364
1292
1222
1129
1029
968
963
998
1067
1210
1468
1827
2242
2691
3183
3689
4098
4294
4267
4122
3951
3732
3358
2774
2063
1373
802
334
-84
-456
-740
-905
-968
-952
-853
-656
-390
-146
-9
23
31
90
193
256
202
38
-152
-272
-280
-213
-146
-125
-137
-143
-129
-114
-110
-99
-62
-15
6
-13
-49
-76
-97
-125
-156
-169
-166
-183
-239
-295
-296
-229
-138
-71
-27
25
101
178
237
283
336
400
457
493
513
532
566
614
670
724
764
790
810
824
820
781
709
627
555
484
387
261
139
58
18
-13
-56
-91
-89
-54
-29
-44
-76
-81
-44
1
10
-17
-53
-74
-89
-116
-153
-181
-186
-178
-184
-229
-309
-401
-471
-511
-540
-590
-663
-730
-760
-754
-741
-741
-743
-730
-715
-733
-807
-919
-1033
-1128
-1204
-1265
-1310
-1338
-1351
-1345
-1308
-1235
-1151
-1095
-1089
-1117
-1149
-1173
-1198
-1224
-1233
-1210
-1162
-1112
-1074
-1034
-976
-896
-811
-738
-683
-643
-618
-613
-632
-665
-688
-672
-607
-533
-505
-557
-662
-758
-807
-840
-916
-1053
-1201
-1293
-1312
-1313
-1353
-1426
-1474
-1462
-1437
-1478
-1606
-1760
-1865
-1902
-1912
-1926
-1930
-1895
-1828
-1766
-1723
-1666
-1567
-1455
-1392
-1403
-1437
-1422
-1338
-1238
-1188
-1203
-1251
-1291
-1290
-1258
-1212
-1171
-1143
-1118
-1081
-1031
-984
-963
-961
-928
-793
-527
-183
144
396
635
1015
1638
2424
3139
3595
3795
3901
4023
4067
3799
3089
2077
1078
300
-283
-802
-1258
-1489
-1375
-1040
-728
-548
-360
30
598
1100
1323
1290
1194
1165
1163
1068
783
287
-364
-1048
-1602
-1925
-2040
-2044
-1989
-1824
-1494
-1059
-667
-415
-271
-147
-41
-35
-159
-324
-375
-233
34
283
418
445
418
349
202
-56
-394
-732
-1020
-1256
-1442
-1530
-1459
-1234
-951
-721
-560
-399
-201
-43
-45
-233
-491
-663
-674
-568
-437
-333
-243
-125
53
287
531
731
861
954
1072
1248
1458
1648
1793
1920
2085
2316
2577
2807
2988
3177
3451
3814
4174
4425
4559
4669
4830
4996
5042
4901
4644
4386
4150
3854
3439
2984
2629
2412
2217
1893
1435
968
595
291
-20
-323
-506
-496
-356
-208
-92
70
351
713
1031
1214
1272
1279
1285
1297
1311
1333
1376
1434
1487
1521
1543
1561
1563
1524
1433
1319
1237
1231
1289
1363
1419
1468
1541
1632
1710
1752
1774
1801
1827
1816
1757
1689
1667
1698
1729
1702
1623
1547
1517
1513
1479
1385
1264
1178
1156
1181
1232
1320
1456
1619
1757
1854
1949
2087
2249
2376
2443
2502
2612
2773
2945
3109
3293
3525
3772
3974
4111
4220
4336
4441
4485
4449
4361
4253
4138
4012
3876
3721
3524
3275
2998
2756
2581
2441
2298
2179
2168
2314
2573
2868
3195
3627
4194
4801
5287
5559
5647
5629
5527
5292
4877
4279
3546
2762
2024
1414
944
554
192
-101
-212
-82
205
480
634
694
762
898
1050
1129
1106
1026
954
920
916
946
1029
1160
1291
1368
1380
1363
1357
1374
1415
1496
1632
1807
1980
2130
2274
2435
2602
2736
2810
2829
2820
2806
2791
2767
2730
2680
2625
2569
2500
2408
2296
2190
2122
2091
2078
2078
2097
2124
2118
2061
1990
1964
1978
1951
1824
1637
1499
1468
1503
1538
1564
1614
1698
1777
1817
1849
1912
1981
1965
1806
1564
1377
1338
1406
1461
1436
1392
1441
1613
1806
1884
1804
1630
1438
1252
1065
891
775
732
723
710
704
743
830
915
954
941
882
761
556
318
169
189
317
401
350
225
151
197
316
408
406
303
137
-21
-108
-106
-68
-55
-63
-37
31
59
-31
-206
-347
-389
-407
-505
-681
-809
-782
-627
-447
-315
-219
-132
-61
-34
-54
-102
-158
-209
-246
-248
-214
-163
-130
-129
-147
-158
-144
-116
-94
-74
-28
72
212
340
406
413
404
409
408
355
232
79
-35
-60
1
105
192
227
217
208
239
297
312
222
33
-175
-311
-350
-343
-349
-377
-377
-308
-198
-137
-195
-343
-486
-557
-584
-650
-783
-917
-970
-922
-806
-643
-407
-80
303
701
1139
1681
2326
2950
3396
3610
3654
3602
3461
3181
2738
2153
1477
777
139
-374
-765
-1101
-1418
-1654
-1701
-1533
-1263
-1043
-930
-874
-808
-732
-706
-766
-884
-1001
-1082
-1142
-1211
-1291
-1343
-1320
-1228
-1121
-1067
-1089
-1154
-1206
-1225
-1224
-1210
-1193
-1200
-1274
-1430
-1600
-1694
-1690
-1665
-1690
-1739
-1721
-1588
-1410
-1316
-1348
-1427
-1447
-1402
-1365
-1381
-1394
-1328
-1192
-1084
-1065
-1067
-976
-787
-631
-619
-693
-669
-474
-263
-261
-530
-889
-1095
-1068
-942
-910
-1057
-1293
-1440
-1362
-1088
-820
-767
-986
-1306
-1484
-1430
-1275
-1218
-1325
-1505
-1623
-1631
-1566
-1490
-1440
-1434
-1473
-1533
-1541
-1427
-1189
-911
-692
-559
-449
-303
-151
-80
-132
-235
-286
-258
-223
-254
-336
-400
-399
-337
-228
-52
182
397
494
467
426
486
618
697
661
581
542
560
609
723
961
1275
1489
1490
1383
1353
1397
1310
996
641
492
521
476
262
85
130
218
-7
-559
-1003
-979
-679
-635
-1041
-1492
-1474
-990
-529
-492
-779
-998
-959
-802
-744
-841
-999
-1146
-1282
-1423
-1535
-1593
-1635
-1731
-1889
-2058
-2185
-2269
-2338
-2424
-2555
-2750
-2989
-3205
-3333
-3369
-3384
-3441
-3514
-3512
-3391
-3228
-3156
-3241
-3431
-3626
-3779
-3905
-4027
-4140
-4243
-4353
-4470
-4537
-4474
-4279
-4050
-3869
-3698
-3404
-2910
-2292
-1689
-1146
-587
55
711
1220
1479
1532
1513
1506
1479
1320
952
413
-152
-599
-883
-1076
-1255
-1394
-1394
-1190
-836
-465
-170
35
185
313
430
527
581
580
543
536
611
749
874
941
987
1072
1198
1294
1290
1195
1090
1057
1121
1255
1399
1485
1471
1375
1267
1202
1169
1101
959
791
675
634
625
608
584
572
566
541
502
473
451
386
268
161
131
151
129
60
80
304
645
882
914
876
958
1157
1276
1174
954
839
895
970
900
703
555
563
639
604
393
130
-16
9
102
122
36
-74
-103
-32
75
125
69
-74
-242
-370
-424
-420
-407
-427
-488
-571
-642
-673
-661
-632
-630
-664
-698
-675
-584
-491
-463
-485
-489
-440
-393
-423
-526
-607
-593
-521
-493
-548
-601
-547
-395
-257
-220
-237
-190
-43
112
162
105
38
33
65
76
64
82
157
253
318
355
410
499
582
609
579
541
529
520
471
384
319
319
358
345
227
63
-31
-6
66
73
-16
-125
-168
-140
-106
-115
-152
-173
-149
-87
-11
52
81
76
58
52
46
7
-75
-164
-218
-236
-263
-324
-378
-376
-327
-293
-317
-370
-396
-394
-408
-480
-598
-701
-748
-737
-699
-666
-631
-537
-312
67
542
1019
1478
1994
2641
3366
3998
4378
4479
4412
4294
4157
3936
3534
2907
2126
1363
791
455
244
9
-279
-500
-517
-317
-25
208
315
320
293
288
322
377
416
409
354
277
221
229
322
479
640
737
754
739
751
799
837
832
804
808
864
938
983
991
996
1037
1113
1199
1271
1325
1369
1407
1446
1492
1552
1619
1679
1722
1753
1792
1844
1892
1913
1896
1855
1818
1797
1783
1774
1782
1819
1873
1913
1908
1858
1788
1731
1698
1675
1642
1598
1562
1547
1531
1473
1361
1246
1191
1196
1178
1060
867
708
662
696
717
675
599
534
489
443
388
333
282
233
190
173
192
229
249
247
244
250
251
233
197
166
158
181
225
272
302
315
332
369
415
443
444
450
493
565
629
672
723
815
930
1012
1038
1055
1114
1207
1270
1266
1230
1223
1265
1319
1348
1360
1394
1462
1536
1593
1643
1715
1798
1852
1851
1814
1773
1721
1615
1433
1226
1071
989
933
858
780
744
752
752
702
624
551
467
318
91
-151
-323
-403
-426
-430
-419
-401
-403
-429
-444
-406
-341
-326
-400
-506
-555
-529
-473
-427
-389
-343
-306
-307
-340
-370
-387
-421
-487
-558
-598
-620
-662
-722
-748
-705
-613
-517
-412
-242
27
375
777
1233
1745
2254
2649
2866
2924
2887
2773
2544
2151
1589
899
161
-523
-1066
-1467
-1802
-2137
-2431
-2554
-2434
-2157
-1914
-1834
-1893
-1965
-1954
-1875
-1816
-1846
-1962
-2093
-2173
-2198
-2212
-2244
-2270
-2251
-2207
-2216
-2318
-2451
-2510
-2459
-2363
-2294
-2250
-2172
-2049
-1935
-1889
-1898
-1908
-1906
-1916
-1946
-1965
-1956
-1968
-2057
-2160
-2115
-1841
-1505
-1377
-1528
-1693
-1553
-1136
-847
-1038
-1608
-2116
-2285
-2279
-2449
-2850
-3150
-3010
-2473
-1894
-1575
-1528
-1585
-1609
-1561
-1473
-1415
-1499
-1767
-2060
-2110
-1792
-1294
-938
-855
-890
-827
-633
-407
-179
108
451
712
774
706
689
763
764
525
89
-346
-637
-803
-898
-893
-726
-459
-276
-308
-497
-665
-717
-737
-883
-1182
-1470
-1555
-1417
-1230
-1170
-1233
-1271
-1196
-1107
-1161
-1383
-1645
-1831
-1984
-2245
-2642
-3046
-3315
-3478
-3705
-4096
-4546
-4870
-5051
-5283
-5737
-6297
-6696
-6840
-6896
-7055
-7325
-7507
-7457
-7214
-6870
-6402
-5657
-4522
-3022
-1271
625
2626
4756
7036
9384
11488
12903
13369
13063
12494
12064
11731
11134
9980
8442
7082
6354
6201
6112
5644
4827
4020
3377
2657
1635
520
-225
-464
-651
-1227
-1886
-1748
-316
1908
3918
5184
6003
6943
8129
9152
9572
9299
8549
7578
6573
5682
5017
4578
4263
3971
3743
3655
3675
3686
3605
3467
3366
3334
3319
3319
3450
3801
4279
4629
4689
4578
4557
4719
4870
4741
4273
3642
3031
2457
1841
1179
585
165
-62
-109
62
494
1108
1694
2058
2171
2162
2161
2179
2143
1997
1775
1576
1483
1518
1650
1817
1967
2070
2112
2093
2036
1994
2018
2121
2263
2383
2463
2527
2607
2702
2791
2866
2933
2991
3028
3048
3092
3199
3351
3480
3544
3578
3652
3767
3833
3769
3603
3445
3356
3280
3133
2922
2749
2672
2620
2500
2330
2236
2287
2389
2391
2263
2127
2100
2162
2196
2148
2082
2081
2136
2164
2119
2049
2036
2094
2159
2165
2114
2074
2103
2188
2262
2282
2266
2273
2323
2364
2338
2251
2175
2163
2201
2233
2241
2245
2268
2310
2365
2442
2548
2649
2693
2661
2581
2495
2415
2325
2226
2140
2094
2080
2057
1995
1902
1827
1799
1780
1680
1454
1179
998
974
1027
1033
980
983
1127
1334
1437
1358
1187
1067
1039
1027
960
853
765
724
713
712
724
753
775
744
631
452
270
148
105
91
33
-107
-275
-373
-350
-266
-254
-383
-571
-655
-563
-424
-450
-683
-909
-866
-545
-217
-146
-305
-425
-328
-108
7
-69
-212
-267
-218
-169
-194
-247
-236
-114
75
248
342
354
345
379
453
506
484
388
265
148
54
16
62
156
219
227
267
444
752
1089
1407
1790
2338
2987
3538
3849
3966
4016
4028
3902
3540
2965
2282
1580
892
256
-253
-565
-679
-653
-553
-400
-183
84
344
510
535
452
342
244
137
-18
-191
-286
-236
-79
93
242
412
626
817
887
823
723
696
749
802
799
772
788
849
895
875
807
749
735
742
732
702
692
750
873
999
1042
978
876
842
913
1013
1034
950
848
825
882
939
932
882
850
854
859
829
776
728
699
681
671
670
659
608
521
452
438
424
320
123
-52
-106
-90
-161
-391
-664
-821
-851
-899
-1078
-1330
-1514
-1583
-1618
-1698
-1800
-1871
-1913
-1966
-2035
-2076
-2091
-2157
-2337
-2570
-2696
-2621
-2408
-2211
-2134
-2152
-2172
-2126
-2021
-1933
-1946
-2074
-2250
-2394
-2484
-2549
-2591
-2567
-2454
-2325
-2289
-2358
-2411
-2331
-2159
-2057
-2115
-2232
-2224
-2026
-1752
-1554
-1474
-1430
-1326
-1157
-1009
-978
-1083
-1240
-1338
-1331
-1268
-1227
-1225
-1225
-1204
-1175
-1119
-953
-627
-266
-110
-266
-550
-648
-442
-133
-12
-158
-389
-493
-445
-374
-400
-524
-686
-841
-990
-1125
-1230
-1308
-1390
-1491
-1574
-1568
-1450
-1276
-1131
-1053
-1001
-921
-815
-740
-722
-719
-676
-591
-518
-480
-439
-366
-286
-253
-258
-239
-166
-87
-70
-93
-66
72
300
566
874
1259
1716
2188
2643
3112
3626
4117
4436
4480
4290
3997
3687
3306
2706
1796
668
-456
-1394
-2138
-2815
-3517
-4172
-4622
-4803
-4816
-4821
-4884
-4966
-5025
-5088
-5205
-5381
-5563
-5692
-5754
-5769
-5768
-5775
-5780
-5736
-5602
-5394
-5184
-5039
-4942
-4823
-4644
-4445
-4295
-4216
-4178
-4153
-4145
-4155
-4157
-4116
-4033
-3934
-3831
-3704
-3528
-3324
-3140
-3007
-2905
-2795
-2661
-2516
-2371
-2215
-2030
-1830
-1657
-1546
-1488
-1446
-1406
-1380
-1371
-1337
-1221
-1028
-820
-647
-484
-284
-65
88
130
127
191
344
492
543
525
547
667
831
953
996
991
971
936
882
832
815
828
845
852
864
903
960
1009
1040
1068
1109
1155
1178
1170
1154
1157
1179
1194
1169
1093
980
855
740
643
560
482
405
343
316
332
364
374
350
325
336
375
396
370
341
375
478
580
622
651
775
1032
1327
1518
1576
1606
1717
1897
2026
2012
1875
1704
1563
1454
1361
1282
1218
1150
1057
948
854
792
730
618
452
279
149
58
-41
-179
-327
-433
-485
-537
-653
-838
-1029
-1160
-1216
-1231
-1247
-1284
-1335
-1383
-1410
-1409
-1398
-1412
-1466
-1528
-1532
-1458
-1365
-1332
-1371
-1402
-1343
-1207
-1088
-1066
-1122
-1173
-1168
-1133
-1118
-1128
-1137
-1141
-1171
-1253
-1350
-1390
-1346
-1264
-1191
-1098
-889
-511
-27
450
886
1355
1915
2483
2862
2921
2736
2517
2390
2261
1912
1249
423
-293
-753
-1041
-1336
-1700
-2025
-2168
-2093
-1876
-1609
-1345
-1122
-982
-931
-917
-891
-862
-891
-997
-1119
-1175
-1147
-1080
-1012
-941
-851
-761
-714
-734
-803
-883
-936
-935
-891
-847
-839
-853
-831
-744
-643
-603
-632
-650
-572
-408
-261
-224
-276
-306
-229
-76
28
1
-110
-170
-99
58
198
282
362
481
608
679
688
704
779
879
930
914
887
909
971
1025
1041
1036
1032
1014
957
871
798
778
798
812
785
737
722
762
816
811
720
596
523
523
543
522
471
450
495
576
642
683
734
804
843
795
687
618
651
741
777
720
648
663
775
893
934
912
892
899
891
833
757
726
762
818
843
833
833
872
939
996
1020
1019
1012
1008
1000
970
905
817
736
696
702
726
724
683
623
584
580
587
558
469
342
224
140
80
22
-35
-71
-75
-66
-68
-99
-150
-205
-256
-297
-334
-382
-453
-530
-578
-581
-567
-581
-626
-658
-641
-589
-552
-551
-565
-559
-527
-492
-463
-432
-390
-357
-345
-332
-274
-165
-44
47
118
207
327
443
522
575
643
732
804
832
843
885
972
1092
1243
1454
1754
2136
2579
3093
3689
4313
4826
5106
5155
5075
4938
4697
4248
3553
2703
1850
1107
504
18
-386
-723
-973
-1092
-1059
-913
-744
-629
-591
-603
-629
-662
-706
-760
-826
-924
-1074
-1251
-1393
-1460
-1477
-1501
-1565
-1656
-1735
-1774
-1770
-1742
-1748
-1850
-2059
-2300
-2490
-2633
-2816
-3074
-3296
-3315
-3080
-2695
-2306
-1975
-1704
-1510
-1432
-1438
-1425
-1339
-1252
-1277
-1401
-1479
-1396
-1204
-1056
-1033
-1084
-1118
-1126
-1147
-1188
-1202
-1158
-1084
-1024
-981
-922
-836
-756
-723
-742
-784
-811
-798
-734
-630
-543
-533
-609
-708
-763
-771
-781
-821
-839
-776
-662
-625
-753
-974
-1115
-1064
-889
-762
-756
-773
-662
-400
-122
30
41
-13
-74
-150
-233
-253
-143
40
155
131
52
18
28
-9
-123
-229
-260
-271
-346
-427
-321
80
612
980
1014
805
580
498
555
639
609
365
-75
-527
-747
-649
-414
-325
-474
-658
-593
-206
286
603
672
640
666
749
800
782
781
870
975
958
808
717
898
1313
1662
1675
1380
1061
950
989
939
671
300
31
-45
-7
27
35
86
233
439
618
722
778
836
898
919
868
784
740
748
747
681
580
520
513
489
405
312
307
409
516
529
456
395
397
409
338
164
-28
-109
-22
190
449
731
1110
1666
2388
3155
3827
4337
4700
4931
5008
4887
4545
3986
3243
2394
1567
872
323
-135
-508
-707
-617
-227
334
904
1401
1836
2226
2553
2767
2843
2802
2682
2512
2303
2056
1790
1550
1375
1276
1229
1204
1185
1164
1133
1086
1040
1024
1048
1075
1042
916
726
558
489
535
640
732
806
919
1125
1379
1563
1598
1542
1528
1603
1676
1619
1435
1281
1301
1473
1614
1551
1298
1035
926
956
956
779
464
202
133
216
272
179
-16
-169
-206
-185
-199
-263
-314
-296
-228
-159
-103
-32
79
211
329
429
547
718
935
1151
1339
1506
1680
1867
2040
2160
2224
2269
2341
2446
2556
2638
2699
2761
2822
2845
2798
2698
2602
2554
2536
2495
2405
2306
2254
2255
2262
2224
2136
2041
1987
1985
2002
2001
1977
1954
1959
1968
1930
1824
1691
1602
1569
1534
1441
1316
1242
1244
1263
1232
1173
1171
1249
1336
1343
1283
1247
1296
1386
1438
1427
1398
1394
1404
1383
1321
1258
1232
1245
1263
1254
1214
1162
1113
1078
1058
1051
1052
1050
1032
992
937
886
859
860
871
864
839
826
867
971
1107
1220
1283
1314
1361
1455
1576
1670
1688
1640
1598
1634
1747
1859
1884
1812
1716
1662
1648
1618
1538
1437
1344
1252
1154
1098
1176
1432
1802
2199
2620
3143
3785
4417
4846
4977
4888
4727
4544
4259
3762
3031
2168
1334
647
132
-275
-650
-1015
-1325
-1523
-1590
-1544
-1406
-1214
-1062
-1052
-1199
-1371
-1401
-1257
-1091
-1083
-1253
-1449
-1500
-1382
-1208
-1095
-1110
-1102
-1116
-1136
-1138
-1078
-944
-779
-631
-517
-419
-329
-274
-270
-285
-266
-205
-151
-147
-170
-157
-79
45
187
352
536
700
796
839
901
1016
1127
1155
1113
1093
1152
1238
1256
1187
1103
1077
1097
1098
1048
981
949
968
1013
1055
1098
1166
1260
1346
1386
1383
1387
1438
1525
1593
1607
1594
1602
1637
1662
1650
1631
1644
1678
1670
1586
1474
1414
1419
1427
1377
1291
1245
1262
1277
1213
1080
968
942
966
946
848
729
656
634
619
592
578
588
587
531
428
336
298
293
279
241
195
142
73
-14
-98
-156
-195
-241
-308
-392
-480
-559
-616
-626
-567
-442
-283
-130
1
119
241
372
500
611
696
755
795
821
840
863
902
959
1013
1028
978
863
709
557
427
296
127
-86
-307
-486
-615
-730
-878
-1066
-1256
-1400
-1473
-1485
-1484
-1528
-1638
-1772
-1847
-1840
-1837
-1951
-2193
-2429
-2515
-2442
-2337
-2322
-2393
-2456
-2458
-2441
-2471
-2546
-2620
-2684
-2784
-2943
-3089
-3114
-3012
-2902
-2877
-2885
-2776
-2486
-2093
-1685
-1250
-733
-169
332
718
1056
1399
1641
1616
1285
755
119
-604
-1331
-1846
-1998
-1973
-2193
-2815
-3474
-3626
-3167
-2593
-2474
-2868
-3320
-3389
-3064
-2667
-2443
-2355
-2235
-2001
-1706
-1427
-1167
-888
-571
-268
-57
13
-26
-77
-49
68
184
176
9
-208
-317
-243
-58
92
129
110
136
247
391
513
630
805
1054
1311
1502
1634
1761
1909
2042
2121
2170
2243
2335
2395
2404
2450
2644
2977
3286
3408
3329
3181
3082
3005
2843
2557
2221
1949
1802
1777
1862
2045
2281
2479
2559
2528
2468
2443
2440
2390
2262
2107
2012
2020
2093
2160
2195
2221
2247
2236
2135
1959
1791
1694
1645
1556
1392
1216
1104
1052
987
865
734
674
690
696
614
468
336
254
173
10
-249
-547
-807
-1005
-1163
-1316
-1480
-1642
-1760
-1771
-1645
-1442
-1301
-1323
-1461
-1548
-1483
-1355
-1352
-1556
-1843
-2021
-2031
-1976
-1975
-2029
-2054
-2007
-1944
-1946
-2034
-2154
-2251
-2316
-2378
-2458
-2552
-2633
-2675
-2656
-2578
-2464
-2362
-2325
-2367
-2446
-2504
-2530
-2576
-2695
-2855
-2942
-2876
-2690
-2494
-2349
-2200
-1966
-1666
-1407
-1264
-1195
-1115
-1012
-957
-981
-1000
-881
-597
-264
-27
89
190
382
662
921
1053
1045
961
873
807
752
693
639
610
617
647
681
718
790
950
1225
1596
2011
2443
2921
3483
4098
4636
4944
4987
4876
4745
4607
4328
3786
3031
2275
1713
1361
1082
747
366
66
-46
32
207
367
454
474
474
509
590
675
693
607
465
352
322
351
371
356
345
378
431
441
381
293
261
338
506
707
891
1034
1148
1254
1355
1422
1414
1314
1156
1001
898
855
856
879
909
944
994
1070
1163
1243
1266
1211
1097
970
882
856
884
926
948
942
929
930
949
960
942
900
854
817
788
750
697
648
649
732
864
959
951
863
793
804
863
875
790
659
578
582
626
652
647
652
690
738
756
739
720
727
746
735
678
612
587
615
646
625
545
460
418
421
432
416
391
396
451
535
606
639
634
598
529
424
290
153
47
-8
-12
25
84
145
194
234
275
312
318
261
164
92
93
145
195
223
274
383
505
546
480
390
378
443
482
416
289
217
254
334
356
290
200
159
173
185
153
86
27
-6
-32
-76
-123
-133
-97
-59
-68
-120
-160
-137
-72
-36
-76
-175
-278
-345
-370
-364
-342
-315
-294
-278
-257
-221
-183
-152
-136
-129
-118
-98
-75
-55
-45
-50
-47
-2
97
225
357
516
764
1135
1590
2058
2522
3023
3582
4119
4489
4614
4555
4440
4325
4126
3705
3027
2219
1490
964
601
265
-110
-444
-588
-489
-249
-30
96
166
236
296
287
188
56
-43
-97
-144
-204
-255
-262
-219
-150
-83
-40
-38
-77
-126
-145
-122
-94
-102
-135
-137
-78
11
68
78
85
129
194
231
215
181
178
210
232
214
171
140
134
137
137
146
167
171
119
18
-67
-77
-25
20
15
-17
-22
21
80
126
161
209
265
302
303
287
287
319
367
401
408
391
365
350
357
376
379
350
303
269
263
256
200
84
-49
-141
-177
-192
-233
-313
-407
-493
-559
-608
-646
-682
-737
-817
-907
-975
-1001
-1002
-1008
-1038
-1083
-1129
-1167
-1199
-1227
-1255
-1292
-1337
-1372
-1362
-1303
-1238
-1224
-1272
-1331
-1338
-1285
-1219
-1186
-1179
-1158
-1101
-1030
-975
-939
-903
-865
-839
-844
-869
-885
-868
-814
-737
-670
-644
-667
-717
-746
-728
-685
-664
-687
-735
-773
-792
-810
-847
-901
-955
-996
-1027
-1066
-1126
-1195
-1243
-1257
-1258
-1287
-1352
-1414
-1430
-1411
-1421
-1500
-1603
-1637
-1570
-1477
-1456
-1521
-1589
-1587
-1533
-1505
-1540
-1602
-1633
-1637
-1658
-1720
-1790
-1822
-1801
-1747
-1699
-1686
-1718
-1777
-1818
-1814
-1793
-1796
-1790
-1671
-1374
-982
-640
-362
21
646
1421
2073
2416
2532
2630
2778
2839
2649
2167
1467
633
-248
-1049
-1644
-2024
-2302
-2553
-2694
-2575
-2208
-1824
-1651
-1693
-1757
-1697
-1577
-1558
-1678
-1803
-1783
-1603
-1353
-1103
-859
-630
-464
-391
-372
-351
-320
-334
-398
-421
-324
-162
-77
-122
-195
-162
-28
68
22
-121
-246
-301
-321
-351
-383
-402
-433
-513
-619
-679
-648
-556
-461
-388
-326
-287
-311
-403
-490
-481
-366
-256
-274
-424
-579
-604
-481
-307
-186
-155
-188
-262
-362
-458
-506
-504
-505
-563
-661
-721
-699
-643
-650
-773
-973
-1162
-1282
-1337
-1373
-1430
-1485
-1464
-1298
-1001
-675
-419
-242
-82
113
321
477
555
590
627
673
724
797
907
1047
1201
1375
1584
1796
1917
1871
1686
1467
1263
1011
629
151
-262
-478
-513
-503
-528
-541
-443
-222
32
231
363
467
564
660
785
989
1272
1536
1659
1622
1534
1519
1601
1711
1777
1804
1853
1980
2174
2375
2515
2564
2538
2470
2367
2199
1963
1720
1554
1470
1378
1180
894
634
482
388
239
-11
-285
-481
-574
-617
-647
-649
-589
-491
-418
-399
-390
-331
-220
-122
-91
-106
-90
6
159
311
436
568
744
953
1155
1323
1470
1611
1718
1754
1726
1702
1744
1831
1888
1893
1939
2145
2525
2975
3406
3850
4412
5102
5775
6245
6449
6464
6383
6207
5872
5346
4655
3856
3006
2180
1474
949
575
264
-17
-193
-163
73
368
553
573
514
480
481
441
305
100
-93
-223
-299
-347
-366
-339
-278
-233
-248
-309
-371
-402
-414
-428
-439
-417
-356
-292
-265
-270
-254
-186
-93
-33
-20
-11
50
164
280
364
435
538
684
837
960
1057
1153
1245
1304
1313
1303
1319
1371
1419
1428
1430
1494
1650
1843
1983
2019
1975
1907
1848
1791
1718
1628
1535
1458
1403
1369
1355
1360
1381
1403
1413
1400
1370
1331
1290
1253
1232
1241
1277
1312
1308
1252
1176
1120
1105
1118
1127
1111
1086
1089
1146
1230
1284
1272
1219
1183
1187
1176
1079
893
695
562
498
448
361
231
83
-54
-158
-209
-208
-202
-248
-355
-465
-518
-511
-502
-528
-572
-588
-567
-554
-585
-632
-623
-513
-343
-205
-154
-167
-186
-185
-169
-144
-108
-78
-97
-170
-229
-198
-82
37
112
187
313
431
424
271
110
85
164
185
54
-141
-237
-186
-80
-23
-28
-51
-76
-108
-135
-123
-75
-48
-91
-157
-139
17
230
358
336
254
254
373
516
580
586
638
787
964
1081
1134
1191
1285
1364
1370
1300
1208
1154
1177
1315
1575
1924
2321
2771
3330
3994
4635
5082
5265
5255
5142
4932
4557
3983
3258
2470
1716
1079
610
276
-33
-392
-730
-880
-762
-494
-298
-292
-399
-464
-422
-337
-295
-320
-381
-443
-499
-531
-504
-400
-248
-101
18
134
260
354
349
233
82
-16
-50
-102
-254
-494
-712
-803
-761
-654
-550
-464
-386
-332
-339
-413
-510
-584
-647
-767
-988
-1269
-1494
-1586
-1576
-1574
-1654
-1780
-1865
-1875
-1875
-1938
-2045
-2091
-2010
-1856
-1745
-1734
-1779
-1814
-1830
-1856
-1905
-1953
-1986
-2026
-2094
-2167
-2189
-2141
-2068
-2030
-2050
-2102
-2148
-2176
-2206
-2254
-2303
-2320
-2307
-2296
-2300
-2290
-2222
-2118
-2070
-2139
-2258
-2290
-2187
-2064
-2068
-2194
-2289
-2234
-2088
-2013
-2069
-2169
-2219
-2242
-2312
-2393
-2339
-2088
-1800
-1688
-1738
-1677
-1292
-717
-343
-391
-674
-824
-693
-471
-414
-541
-642
-553
-320
-87
84
229
372
464
448
362
300
301
314
281
219
209
306
484
669
821
956
1109
1285
1448
1561
1613
1623
1634
1682
1781
1908
2024
2105
2155
2193
2232
2266
2286
2293
2294
2283
2248
2193
2133
2089
2072
2077
2083
2061
1996
1900
1816
1779
1782
1788
1759
1703
1648
1611
1580
1532
1462
1385
1325
1292
1265
1212
1123
1015
934
916
953
1013
1088
1211
1418
1704
2019
2335
2683
3099
3528
3828
3886
3739
3535
3378
3205
2853
2232
1446
700
120
-339
-795
-1281
-1700
-1942
-2000
-1969
-1937
-1921
-1892
-1847
-1819
-1842
-1921
-2024
-2090
-2056
-1899
-1665
-1461
-1374
-1403
-1490
-1606
-1778
-2037
-2352
-2638
-2834
-2944
-3003
-3022
-2977
-2873
-2770
-2735
-2790
-2902
-3025
-3139
-3248
-3351
-3424
-3442
-3408
-3349
-3279
-3197
-3107
-3044
-3035
-3056
-3031
-2913
-2748
-2631
-2602
-2606
-2562
-2457
-2339
-2238
-2124
-1956
-1749
-1559
-1419
-1297
-1157
-1013
-917
-887
-869
-793
-647
-476
-320
-181
-50
57
121
162
230
341
442
480
483
551
729
931
1019
964
878
881
951
962
852
711
668
731
784
739
641
605
652
694
648
535
447
423
397
293
135
34
53
120
91
-73
-246
-259
-92
96
135
43
-12
99
314
466
482
450
485
578
627
576
485
446
473
506
500
472
457
456
440
402
384
415
444
390
231
55
-31
-19
-5
-72
-183
-217
-125
20
109
119
118
172
261
310
269
153
13
-101
-164
-179
-179
-188
-197
-182
-149
-139
-180
-245
-279
-284
-305
-371
-442
-451
-413
-397
-435
-462
-405
-297
-241
-286
-364
-367
-283
-212
-238
-327
-379
-344
-276
-243
-225
-127
106
422
727
1021
1410
1975
2643
3224
3574
3715
3764
3773
3673
3366
2843
2194
1521
883
316
-147
-487
-730
-912
-1038
-1061
-951
-741
-510
-323
-188
-90
-16
29
44
28
-24
-127
-287
-482
-657
-746
-719
-604
-471
-385
-363
-380
-408
-448
-514
-615
-730
-820
-858
-845
-813
-785
-757
-706
-626
-553
-540
-596
-677
-729
-732
-707
-683
-676
-675
-664
-626
-561
-494
-458
-457
-465
-458
-445
-449
-467
-468
-436
-393
-368
-350
-308
-249
-216
-231
-249
-208
-106
-10
23
8
8
59
146
234
304
352
369
355
332
332
373
434
491
542
616
731
862
964
1016
1039
1065
1095
1104
1072
1019
977
956
942
925
911
908
892
834
744
668
640
632
587
494
411
404
473
555
583
549
503
484
491
493
453
365
257
175
156
195
245
261
244
231
234
219
152
58
25
107
265
406
478
519
587
690
781
820
813
784
738
675
624
632
709
805
855
847
833
855
891
885
812
714
646
620
593
529
445
395
401
429
427
386
348
355
388
395
349
286
258
267
255
180
65
-26
-63
-82
-131
-211
-292
-375
-497
-658
-793
-840
-830
-864
-985
-1110
-1125
-1015
-869
-757
-629
-379
37
566
1147
1757
2379
2930
3289
3411
3376
3288
3145
2814
2176
1289
375
-370
-926
-1416
-1923
-2384
-2673
-2754
-2718
-2654
-2557
-2383
-2168
-2041
-2082
-2220
-2311
-2278
-2187
-2159
-2237
-2376
-2505
-2578
-2569
-2486
-2384
-2351
-2436
-2583
-2673
-2626
-2475
-2333
-2295
-2359
-2444
-2459
-2376
-2249
-2168
-2172
-2219
-2230
-2180
-2108
-2071
-2079
-2102
-2127
-2170
-2231
-2268
-2241
-2173
-2132
-2152
-2207
-2248
-2263
-2263
-2252
-2213
-2140
-2067
-2033
-2037
-2048
-2043
-2031
-2037
-2076
-2133
-2173
-2177
-2153
-2133
-2126
-2112
-2071
-2028
-2054
-2184
-2349
-2434
-2405
-2347
-2356
-2434
-2498
-2497
-2465
-2467
-2474
-2411
-2287
-2222
-2313
-2478
-2514
-2323
-2037
-1862
-1839
-1812
-1632
-1356
-1187
-1258
-1504
-1754
-1881
-1862
-1726
-1525
-1332
-1214
-1154
-1035
-767
-435
-237
-268
-429
-553
-579
-547
-479
-351
-179
-86
-132
-160
77
593
1075
1194
962
701
642
678
552
194
-219
-517
-711
-902
-1077
-1117
-995
-848
-841
-976
-1139
-1267
-1420
-1654
-1886
-1947
-1768
-1452
-1122
-800
-431
-5
383
763
793
963
1203
1423
1490
1367
1109
790
435
35
-419
-916
-1404
-1794
-1998
-2003
-1912
-1859
-1891
-1927
-1875
-1734
-1576
-1440
-1300
-1129
-945
-780
-604
-370
-100
77
62
-95
-224
-201
-75
14
15
44
264
713
1285
1890
2543
3305
4149
4930
5519
5906
6152
6262
6146
5718
4992
4076
3090
2129
1261
514
-120
-656
-1070
-1296
-1301
-1156
-997
-902
-836
-721
-526
-298
-93
83
256
436
616
784
939
1075
1192
1314
1464
1623
1730
1738
1678
1641
1686
1784
1850
1833
1755
1679
1649
1650
1647
1617
1572
1550
1568
1598
1594
1539
1465
1409
1365
1296
1203
1131
1125
1168
1196
1177
1148
1155
1195
1214
1193
1176
1219
1330
1467
1596
1725
1878
2062
2249
2407
2520
2590
2633
2656
2655
2612
2526
2414
2311
2236
2172
2086
1967
1833
1727
1664
1621
1565
1484
1401
1352
1352
1377
1396
1411
1443
1500
1556
1577
1553
1510
1474
1444
1405
1342
1273
1211
1162
1117
1073
1034
999
963
920
865
796
716
627
537
450
376
324
294
279
267
248
232
238
279
339
389
404
388
364
352
353
364
390
447
537
647
754
843
912
958
984
996
1007
1021
1034
1035
1024
1002
971
946
942
971
1021
1058
1043
960
832
720
673
686
707
692
657
645
664
662
604
545
582
726
870
900
832
775
793
834
809
706
583
466
329
172
75
112
231
288
219
121
128
234
298
235
124
93
150
186
137
93
200
494
882
1269
1652
2080
2550
2989
3329
3554
3694
3759
3717
3493
3027
2339
1567
894
412
52
-317
-738
-1104
-1277
-1236
-1087
-955
-880
-829
-765
-699
-676
-712
-746
-674
-461
-210
-102
-202
-367
-393
-248
-128
-254
-609
-945
-1046
-952
-875
-939
-1036
-989
-794
-628
-623
-702
-687
-550
-451
-514
-637
-602
-365
-141
-149
-343
-464
-357
-140
-33
-89
-161
-123
-22
22
-11
-20
73
223
341
396
424
452
459
443
433
455
479
457
401
377
432
538
634
709
792
879
914
860
764
722
763
808
760
618
466
372
331
296
245
201
181
181
188
204
233
258
254
219
181
166
152
87
-54
-222
-327
-324
-262
-236
-293
-386
-423
-366
-263
-187
-160
-138
-81
-13
7
-52
-154
-225
-229
-195
-167
-144
-83
45
212
359
457
522
565
566
501
384
261
149
26
-119
-228
-230
-128
-15
19
-18
-47
-20
23
13
-85
-256
-467
-675
-819
-855
-820
-817
-919
-1086
-1211
-1250
-1263
-1326
-1428
-1485
-1477
-1497
-1647
-1901
-2123
-2205
-2189
-2204
-2308
-2421
-2426
-2301
-2126
-1988
-1904
-1846
-1808
-1820
-1869
-1894
-1867
-1836
-1876
-1991
-2073
-2010
-1809
-1566
-1380
-1272
-1185
-1069
-930
-826
-811
-891
-1019
-1122
-1120
-970
-670
-282
92
384
610
839
1096
1283
1251
929
414
-128
-601
-1008
-1363
-1645
-1819
-1897
-1927
-1931
-1889
-1785
-1634
-1444
-1216
-988
-848
-873
-1006
-1087
-1028
-928
-966
-1179
-1387
-1382
-1133
-811
-611
-591
-679
-790
-892
-986
-1058
-1085
-1070
-1046
-1034
-1018
-960
-833
-651
-474
-384
-424
-566
-716
-789
-777
-742
-745
-775
-769
-683
-553
-457
-427
-415
-359
-263
-198
-219
-308
-399
-432
-397
-317
-229
-163
-123
-79
10
125
182
108
-58
-179
-162
-52
8
-69
-234
-359
-363
-272
-186
-216
-413
-733
-1048
-1234
-1276
-1288
-1419
-1701
-2026
-2246
-2309
-2295
-2314
-2411
-2542
-2645
-2691
-2699
-2698
-2707
-2730
-2762
-2799
-2842
-2886
-2905
-2853
-2703
-2507
-2358
-2302
-2264
-2121
-1848
-1564
-1420
-1431
-1456
-1366
-1186
-1077
-1138
-1297
-1392
-1349
-1245
-1200
-1239
-1280
-1258
-1204
-1190
-1225
-1226
-1129
-967
-844
-814
-825
-801
-739
-705
-742
-811
-847
-845
-858
-921
-985
-962
-822
-631
-496
-451
-436
-371
-252
-146
-110
-119
-100
-22
69
115
119
130
177
239
289
323
347
353
332
305
314
363
404
397
363
366
420
469
461
424
424
466
473
396
289
247
279
299
236
134
94
147
235
294
333
399
517
696
973
1391
1916
2407
2724
2858
2910
2945
2903
2682
2262
1710
1109
517
0
-372
-599
-776
-987
-1173
-1179
-944
-622
-445
-483
-598
-626
-562
-536
-640
-816
-950
-994
-982
-959
-921
-861
-802
-773
-768
-760
-745
-757
-812
-886
-935
-956
-967
-974
-960
-914
-862
-853
-913
-1022
-1123
-1161
-1113
-1006
-903
-857
-865
-876
-842
-768
-705
-680
-675
-652
-599
-527
-450
-365
-272
-191
-144
-125
-115
-104
-103
-114
-114
-70
13
84
114
130
185
277
337
309
237
223
306
405
418
347
297
346
453
515
489
438
443
511
574
582
551
534
556
595
627
649
666
671
655
634
637
670
691
654
569
497
479
498
507
500
514
574
651
693
689
671
665
657
627
579
544
534
529
508
479
468
489
521
531
501
447
403
392
409
426
420
395
377
390
427
462
478
472
457
449
450
452
443
423
398
384
386
401
424
452
478
492
483
450
417
405
404
386
334
269
229
231
258
281
289
285
273
254
229
198
156
97
35
-12
-35
-47
-61
-68
-46
1
45
69
93
138
182
182
131
83
94
163
245
308
357
409
467
534
638
807
1038
1308
1622
2022
2524
3060
3510
3791
3914
3937
3897
3755
3429
2879
2173
1471
915
520
189
-167
-519
-755
-803
-706
-564
-444
-364
-332
-356
-399
-384
-274
-131
-73
-147
-276
-346
-319
-254
-225
-249
-296
-354
-438
-546
-633
-652
-608
-562
-558
-586
-609
-617
-644
-712
-794
-840
-831
-793
-750
-701
-644
-587
-543
-497
-423
-329
-265
-259
-275
-254
-179
-98
-56
-44
-22
27
76
101
113
140
185
226
251
288
372
495
595
623
606
616
690
795
859
847
784
737
757
846
944
961
864
750
802
1125
1604
1963
1992
1727
1387
1152
1013
823
478
16
-411
-652
-640
-420
-126
95
163
112
44
28
50
32
-87
-297
-526
-677
-708
-659
-614
-622
-659
-687
-717
-801
-947
-1071
-1071
-940
-794
-773
-915
-1143
-1338
-1436
-1436
-1374
-1299
-1246
-1216
-1170
-1070
-931
-811
-753
-748
-762
-781
-813
-852
-863
-841
-836
-901
-1025
-1125
-1145
-1113
-1111
-1170
-1243
-1275
-1274
-1300
-1383
-1487
-1564
-1616
-1689
-1816
-1963
-2062
-2076
-2033
-1992
-1987
-1996
-1978
-1934
-1917
-1984
-2130
-2285
-2377
-2412
-2447
-2515
-2576
-2565
-2469
-2349
-2267
-2230
-2203
-2153
-2097
-2080
-2127
-2228
-2352
-2468
-2558
-2614
-2605
-2473
-2168
-1708
-1215
-814
-487
-61
594
1378
1981
2162
1980
1697
1491
1306
966
403
-263
-857
-1303
-1635
-1908
-2140
-2314
-2398
-2387
-2330
-2302
-2309
-2245
-2018
-1704
-1510
-1589
-1884
-2202
-2457
-2725
-3068
-3394
-3553
-3536
-3481
-3449
-3290
-2808
-2035
-1283
-884
-932
-1221
-1435
-1398
-1186
-1035
-1096
-1259
-1244
-889
-322
163
385
411
420
511
706
1038
1523
2035
2328
2278
2043
1892
1909
1910
1683
1253
837
604
549
590
704
896
1117
1273
1315
1300
1295
1310
1301
1247
1177
1129
1131
1172
1227
1273
1300
1320
1346
1376
1386
1378
1401
1490
1609
1638
1514
1320
1219
1277
1388
1415
1356
1349
1483
1675
1764
1706
1609
1575
1568
1481
1301
1134
1042
948
738
413
110
-102
-294
-587
-966
-1297
-1514
-1675
-1839
-1919
-1803
-1541
-1310
-1150
-837
-134
863
1740
2161
2205
2240
2499
2847
2975
2753
2338
1996
1874
1935
2056
2135
2135
2071
1995
1968
2011
2107
2202
2245
2226
2185
2185
2271
2425
2584
2692
2748
2793
2847
2879
2836
2707
2549
2439
2395
2354
2246
2076
1934
1901
1962
2029
2036
2007
1998
2010
1974
1843
1668
1554
1546
1586
1586
1532
1501
1566
1713
1861
1953
2013
2104
2239
2375
2480
2572
2684
2803
2884
2924
2996
3177
3457
3760
4049
4392
4884
5521
6212
6891
7587
8352
9132
9778
10178
10351
10400
10373
10202
9776
9056
8128
7149
6266
5535
4914
4329
3775
3348
3152
3193
3348
3481
3542
3563
3573
3554
3480
3360
3226
3092
2954
2820
2720
2672
2661
2655
2643
2635
2641
2649
2637
2596
2545
2514
2526
2584
2651
2680
2649
2586
2533
2504
2472
2415
2351
2322
2348
2403
2449
2471
2483
2498
2510
2513
2520
2553
2618
2679
2688
2641
2590
2599
2668
2738
2756
2740
2738
2754
2754
2732
2752
2869
3035
3132
3104
3020
2990
3032
3066
3035
2973
2955
2993
3025
3005
2956
2925
2919
2896
2825
2711
2576
2435
2300
2202
2165
2171
2171
2134
2086
2076
2117
2171
2186
2160
2130
2125
2128
2097
2025
1940
1862
1773
1651
1528
1464
1459
1429
1304
1116
972
935
942
885
738
566
431
326
231
180
233
375
489
486
413
396
478
571
576
533
575
766
1001
1110
1026
835
675
597
540
412
197
-27
-144
-94
90
307
471
552
565
549
546
573
597
555
414
224
89
60
94
124
153
243
404
553
599
567
581
733
984
1208
1309
1284
1191
1100
1055
1051
1044
1004
950
921
909
844
702
568
556
642
662
521
341
336
529
680
597
411
472
940
1583
2067
2356
2724
3378
4170
4750
4949
4906
4832
4761
4559
4128
3510
2807
2090
1418
859
432
64
-333
-734
-975
-934
-680
-422
-310
-319
-330
-282
-216
-205
-267
-376
-507
-634
-721
-724
-638
-506
-372
-236
-78
95
231
283
270
275
368
540
714
821
857
877
940
1061
1209
1341
1425
1446
1414
1369
1367
1430
1521
1573
1564
1530
1518
1519
1491
1429
1370
1336
1289
1163
967
790
707
692
649
528
377
277
243
214
136
22
-76
-130
-167
-227
-317
-401
-448
-465
-477
-502
-547
-599
-656
-707
-737
-744
-744
-761
-799
-829
-819
-763
-676
-580
-510
-507
-599
-764
-919
-986
-949
-863
-793
-761
-740
-687
-584
-458
-384
-450
-677
-975
-1184
-1184
-1011
-812
-698
-649
-562
-375
-154
-41
-119
-348
-602
-791
-929
-1090
-1279
-1401
-1353
-1142
-904
-761
-697
-613
-462
-328
-305
-365
-392
-337
-293
-368
-532
-630
-582
-493
-524
-687
-827
-808
-670
-555
-511
-439
-245
22
222
290
302
347
398
349
156
-82
-226
-238
-205
-208
-231
-214
-150
-100
-96
-93
-40
38
64
30
40
193
442
628
658
601
590
649
665
549
350
219
221
275
264
170
77
74
177
349
562
831
1177
1610
2135
2741
3379
3938
4296
4408
4334
4155
3875
3413
2706
1824
944
218
-331
-769
-1145
-1438
-1607
-1649
-1596
-1474
-1301
-1111
-966
-908
-917
-927
-893
-832
-796
-823
-907
-1022
-1134
-1229
-1318
-1437
-1609
-1814
-2003
-2166
-2343
-2566
-2781
-2895
-2881
-2824
-2837
-2947
-3076
-3135
-3112
-3068
-3066
-3122
-3207
-3275
-3298
-3270
-3220
-3179
-3155
-3131
-3099
-3072
-3043
-2969
-2821
-2645
-2541
-2546
-2572
-2503
-2353
-2279
-2401
-2656
-2844
-2844
-2728
-2650
-2662
-2683
-2627
-2492
-2342
-2225
-2158
-2154
-2211
-2277
-2267
-2156
-2011
-1908
-1829
-1678
-1425
-1169
-1037
-1027
-1013
-900
-727
-587
-516
-453
-350
-224
-109
-5
108
214
266
259
251
304
410
502
548
595
709
893
1077
1187
1210
1196
1198
1229
1253
1231
1162
1081
1031
1037
1089
1155
1204
1226
1237
1249
1243
1186
1061
901
769
712
737
824
962
1122
1262
1352
1416
1499
1587
1602
1495
1325
1202
1159
1130
1070
1050
1165
1375
1510
1468
1348
1334
1454
1543
1446
1200
980
897
898
874
812
786
842
919
918
824
729
719
771
776
652
437
263
215
258
287
246
181
160
172
153
78
-4
-40
-56
-136
-303
-481
-589
-634
-707
-849
-987
-1010
-884
-661
-398
-94
284
751
1282
1817
2260
2516
2556
2471
2396
2361
2213
1762
1019
251
-249
-444
-567
-858
-1304
-1654
-1683
-1415
-1082
-908
-914
-973
-967
-890
-824
-822
-869
-910
-919
-908
-891
-862
-803
-713
-620
-550
-513
-500
-501
-501
-478
-416
-322
-224
-149
-107
-95
-107
-140
-188
-226
-221
-171
-105
-72
-92
-139
-160
-115
-15
84
120
84
32
31
85
135
122
47
-26
-58
-73
-116
-170
-180
-129
-73
-76
-119
-125
-60
13
13
-55
-111
-100
-52
-25
-27
-21
-5
-14
-66
-113
-102
-59
-64
-143
-214
-196
-109
-64
-109
-174
-160
-68
-7
-52
-149
-191
-151
-104
-135
-237
-336
-380
-392
-423
-491
-564
-601
-589
-555
-533
-544
-576
-595
-572
-511
-458
-459
-515
-575
-568
-473
-331
-205
-140
-129
-138
-131
-93
-36
16
50
79
134
236
366
489
582
649
701
735
733
693
639
598
569
536
495
465
466
486
491
457
397
338
293
251
199
140
83
25
-45
-120
-168
-169
-149
-164
-240
-335
-383
-362
-323
-331
-392
-460
-490
-490
-498
-515
-510
-457
-385
-347
-352
-357
-325
-281
-291
-369
-454
-484
-478
-514
-617
-726
-754
-678
-545
-389
-182
122
541
1066
1677
2344
2992
3524
3878
4063
4125
4077
3882
3491
2892
2138
1332
587
-27
-512
-909
-1232
-1432
-1453
-1302
-1066
-839
-649
-493
-375
-321
-331
-360
-364
-342
-331
-336
-327
-264
-151
-22
96
196
271
304
285
239
208
220
268
324
366
385
383
366
345
315
266
194
122
77
59
33
-20
-82
-117
-130
-169
-278
-435
-574
-660
-710
-766
-826
-837
-744
-546
-305
-111
-14
-2
-15
-8
0
-56
-215
-428
-587
-616
-529
-400
-294
-223
-170
-131
-122
-153
-219
-304
-400
-507
-627
-748
-845
-893
-902
-911
-944
-977
-940
-787
-565
-389
-326
-337
-329
-278
-265
-380
-609
-848
-1004
-1071
-1096
-1094
-1039
-916
-766
-650
-588
-556
-520
-482
-472
-509
-583
-658
-702
-704
-681
-647
-603
-546
-487
-450
-442
-441
-416
-370
-345
-374
-435
-469
-448
-403
-382
-395
-406
-379
-316
-251
-231
-285
-402
-537
-632
-660
-643
-627
-628
-613
-541
-424
-322
-295
-364
-490
-617
-718
-820
-956
-1099
-1177
-1143
-1048
-977
-940
-864
-720
-620
-694
-896
-1021
-985
-979
-1255
-1756
-2100
-1981
-1526
-1145
-1063
-1122
-1053
-824
-620
-562
-556
-466
-316
-242
-296
-357
-294
-131
-14
-12
-41
39
280
622
1028
1557
2286
3140
3889
4357
4588
4747
4862
4754
4235
3345
2317
1344
457
-346
-951
-1210
-1141
-949
-811
-702
-475
-92
288
460
373
156
-28
-106
-113
-118
-142
-143
-65
86
226
264
192
101
84
135
147
41
-127
-202
-90
124
238
128
-127
-340
-407
-409
-495
-685
-857
-914
-912
-979
-1129
-1230
-1169
-1006
-891
-846
-727
-399
85
526
812
1013
1268
1611
1942
2147
2193
2112
1946
1735
1516
1294
1029
684
291
-67
-332
-498
-586
-597
-536
-438
-328
-135
269
937
1756
2524
3121
3587
4040
4530
4976
5231
5211
4970
4668
4438
4272
4032
3579
2903
2131
1407
788
244
-276
-785
-1231
-1511
-1546
-1364
-1119
-987
-1029
-1151
-1230
-1248
-1304
-1488
-1773
-2029
-2127
-2034
-1826
-1620
-1489
-1416
-1323
-1171
-1013
-951
-1021
-1137
-1176
-1099
-965
-845
-735
-598
-443
-343
-345
-391
-368
-229
-41
108
216
356
581
871
1172
1464
1733
1937
2032
2053
2109
2276
2503
2676
2759
2835
2996
3227
3426
3526
3548
3553
3574
3606
3650
3706
3765
3816
3874
3962
4061
4112
4077
3989
3914
3871
3817
3716
3598
3512
3469
3428
3356
3268
3192
3131
3068
2993
2902
2780
2614
2423
2274
2216
2229
2262
2308
2429
2679
3041
3454
3884
4344
4840
5322
5708
5953
6062
6048
5899
5576
5050
4328
3472
2590
1804
1194
734
342
-8
-233
-227
6
314
515
550
501
483
517
538
501
436
401
395
359
270
195
229
385
562
658
678
719
846
1012
1130
1181
1233
1333
1437
1443
1329
1189
1148
1238
1377
1465
1480
1472
1496
1557
1623
1659
1649
1590
1518
1479
1480
1465
1369
1225
1163
1255
1382
1330
1052
764
732
951
1144
1090
881
772
849
954
958
952
1091
1288
1277
969
641
645
966
1212
1072
666
389
452
683
776
639
411
242
158
127
147
228
305
279
150
41
59
173
236
167
43
-18
2
11
-50
-114
-63
126
342
461
464
434
448
498
530
516
467
400
331
287
308
395
497
559
588
626
682
705
653
574
562
647
741
749
693
697
843
1067
1224
1241
1180
1139
1147
1145
1082
987
922
915
939
948
938
935
942
934
898
856
843
857
855
800
704
614
571
580
626
680
709
684
610
542
538
593
638
617
545
488
488
530
583
637
701
773
832
870
897
922
935
919
868
794
700
591
477
362
245
128
45
56
178
357
521
682
949
1403
1994
2580
3063
3452
3782
4024
4125
4100
4018
3879
3568
2999
2267
1611
1180
909
633
313
83
88
314
609
836
962
1013
1013
980
935
894
831
701
514
354
297
319
325
260
173
139
148
115
-11
-161
-216
-152
-86
-145
-324
-503
-579
-581
-612
-712
-824
-877
-873
-861
-854
-811
-732
-700
-796
-990
-1149
-1174
-1116
-1086
-1108
-1091
-952
-740
-583
-541
-564
-590
-631
-731
-870
-970
-986
-954
-928
-906
-851
-764
-685
-637
-601
-561
-543
-576
-622
-601
-479
-315
-198
-149
-116
-71
-60
-141
-306
-464
-540
-560
-597
-674
-729
-690
-573
-475
-464
-515
-561
-583
-629
-745
-911
-1052
-1112
-1111
-1115
-1170
-1241
-1236
-1096
-860
-636
-516
-508
-545
-585
-645
-756
-913
-1085
-1266
-1479
-1698
-1822
-1763
-1547
-1295
-1099
-932
-718
-467
-288
-279
-414
-584
-718
-844
-1012
-1200
-1310
-1259
-1064
-825
-641
-541
-482
-397
-252
-73
69
106
31
-77
-103
7
182
299
290
215
188
247
322
316
227
144
139
185
195
140
74
59
85
100
86
80
100
113
80
26
18
80
166
209
210
211
235
250
230
181
130
71
-28
-161
-273
-319
-324
-354
-422
-459
-382
-178
104
435
835
1306
1770
2103
2235
2202
2070
1847
1467
859
28
-916
-1805
-2505
-3006
-3421
-3865
-4316
-4597
-4554
-4247
-3941
-3858
-3984
-4123
-4123
-4031
-4006
-4124
-4314
-4453
-4500
-4498
-4490
-4461
-4378
-4251
-4134
-4069
-4055
-4060
-4054
-4031
-3997
-3950
-3881
-3786
-3670
-3560
-3483
-3439
-3390
-3287
-3123
-2944
-2817
-2751
-2688
-2569
-2403
-2261
-2194
-2172
-2122
-2005
-1852
-1714
-1602
-1485
-1338
-1180
-1049
-965
-911
-855
-774
-666
-548
-446
-377
-331
-287
-230
-161
-96
-40
16
68
90
70
31
24
81
171
224
189
77
-39
-91
-69
-33
-45
-110
-167
-161
-108
-85
-149
-284
-416
-490
-511
-545
-650
-820
-966
-984
-869
-746
-754
-899
-1024
-977
-781
-601
-561
-616
-615
-483
-285
-140
-93
-109
-135
-149
-150
-137
-119
-130
-195
-352
-353
-350
-305
-290
-343
-426
-462
-414
-322
-256
-237
-218
-157
-68
-14
-26
-71
-97
-92
-91
-118
-162
-192
-200
-209
-235
-267
-276
-254
-217
-196
-216
-269
-331
-396
-473
-567
-649
-680
-654
-608
-579
-574
-566
-541
-511
-492
-486
-493
-520
-572
-622
-635
-590
-522
-481
-479
-487
-480
-470
-486
-531
-584
-624
-647
-650
-626
-576
-507
-414
-255
18
394
791
1161
1565
2111
2801
3469
3913
4069
4061
4040
4019
3874
3486
2861
2119
1405
809
352
13
-248
-460
-601
-604
-423
-99
234
452
525
533
576
673
766
793
747
673
611
580
583
627
707
784
817
792
738
697
689
708
740
771
793
812
848
918
1002
1063
1079
1076
1110
1198
1290
1326
1294
1251
1260
1332
1419
1466
1466
1456
1478
1547
1635
1706
1731
1716
1686
1664
1656
1647
1620
1584
1566
1579
1597
1585
1546
1525
1561
1632
1669
1627
1536
1478
1502
1574
1616
1587
1518
1476
1490
1535
1563
1542
1471
1379
1299
1259
1255
1260
1249
1217
1178
1142
1114
1097
1093
1095
1068
979
843
719
651
625
590
513
413
338
305
290
258
198
127
69
22
-34
-118
-219
-299
-331
-329
-335
-376
-435
-465
-452
-432
-447
-497
-539
-532
-490
-461
-477
-518
-534
-498
-440
-412
-430
-458
-451
-410
-377
-385
-414
-421
-388
-345
-336
-370
-416
-437
-428
-412
-410
-428
-454
-480
-513
-558
-603
-629
-630
-633
-655
-683
-685
-650
-593
-545
-518
-495
-462
-413
-348
-270
-194
-147
-133
-126
-103
-63
-30
-14
-4
-1
-44
-163
-312
-396
-369
-273
-206
-212
-238
-164
94
518
998
1414
1767
2182
2784
3525
4178
4526
4568
4494
4442
4347
4024
3387
2540
1669
892
210
-418
-996
-1496
-1876
-2093
-2116
-1969
-1742
-1554
-1475
-1470
-1450
-1382
-1328
-1367
-1514
-1684
-1779
-1795
-1815
-1895
-1980
-1956
-1786
-1578
-1487
-1552
-1674
-1719
-1664
-1602
-1624
-1721
-1802
-1814
-1806
-1854
-1952
-2003
-1926
-1767
-1654
-1655
-1708
-1702
-1619
-1544
-1548
-1596
-1600
-1543
-1498
-1519
-1570
-1571
-1509
-1464
-1502
-1586
-1614
-1544
-1439
-1384
-1386
-1367
-1281
-1169
-1108
-1125
-1184
-1247
-1315
-1401
-1477
-1495
-1456
-1428
-1467
-1549
-1590
-1539
-1441
-1377
-1387
-1450
-1525
-1587
-1621
-1613
-1573
-1550
-1599
-1708
-1795
-1796
-1739
-1710
-1741
-1773
-1738
-1654
-1612
-1658
-1736
-1774
-1785
-1846
-1967
-2047
-1988
-1848
-1805
-1933
-2079
-2023
-1750
-1504
-1528
-1790
-2038
-2083
-1984
-1895
-1839
-1719
-1529
-1431
-1554
-1782
-1858
-1682
-1439
-1372
-1493
-1571
-1417
-1074
-719
-445
-212
5
125
77
-70
-152
-90
22
49
-14
-36
101
373
633
754
723
636
614
679
743
672
420
103
-92
-85
8
-13
-228
-516
-681
-659
-558
-527
-586
-643
-633
-592
-593
-629
-634
-595
-586
-678
-836
-962
-1017
-1064
-1177
-1337
-1472
-1578
-1733
-1993
-2305
-2584
-2820
-3090
-3418
-3701
-3803
-3704
-3512
-3301
-2984
-2380
-1407
-186
1040
2090
2950
3704
4389
4932
5289
5430
5225
4593
3698
2938
2546
2264
1623
612
-230
-621
-1259
-3232
-6561
-9723
-10999
-10197
-8647
-7460
-6226
-3685
540
5268
8931
10986
11972
12397
12038
10444
7835
5151
3145
1618
-246
-2787
-5208
-6247
-5412
-3499
-1918
-1368
-1305
-710
792
2640
3976
4398
4094
3495
2935
2561
2412
2459
2630
2882
3212
3625
4038
4294
4292
4033
3601
3127
2749
2556
2545
2627
2687
2629
2396
1993
1536
1233
1237
1491
1768
1899
1956
2156
2577
3010
3170
3003
2765
2757
3040
3420
3686
3804
3875
3988
4141
4290
4420
4536
4618
4637
4594
4536
4509
4514
4516
4487
4421
4325
4197
4040
3876
3718
3551
3353
3133
2936
2791
2661
2489
2272
2086
1998
1998
2011
1972
1875
1750
1619
1497
1401
1340
1292
1215
1092
961
873
843
849
870
908
967
1024
1053
1065
1095
1151
1190
1162
1082
1019
1015
1038
1016
929
835
807
854
913
918
861
786
748
756
766
731
651
585
588
655
701
661
563
511
572
705
810
840
844
892
997
1114
1207
1283
1348
1386
1381
1355
1361
1420
1489
1518
1514
1538
1623
1717
1733
1646
1517
1414
1342
1247
1100
933
814
779
820
920
1077
1297
1583
1941
2365
2827
3261
3585
3753
3777
3702
3571
3393
3124
2689
2061
1332
690
262
-18
-341
-799
-1252
-1468
-1367
-1091
-852
-727
-662
-611
-589
-617
-657
-671
-695
-800
-977
-1113
-1099
-949
-778
-662
-574
-458
-338
-313
-433
-617
-723
-693
-598
-556
-608
-686
-694
-600
-456
-347
-312
-320
-311
-258
-197
-189
-233
-256
-185
-43
66
81
53
85
199
312
341
294
253
271
326
374
394
403
425
484
593
732
835
836
746
653
617
606
549
445
384
435
559
655
698
770
957
1215
1380
1338
1139
951
883
893
856
712
526
420
452
568
673
723
743
779
844
912
952
955
941
930
936
962
988
984
938
860
782
733
712
697
676
645
605
557
499
447
418
417
425
415
373
302
220
150
122
150
229
320
385
417
456
545
687
840
962
1053
1139
1225
1281
1289
1275
1272
1270
1220
1091
915
744
597
467
363
317
321
306
213
80
2
14
38
-24
-164
-266
-256
-200
-248
-451
-683
-764
-668
-577
-692
-1014
-1327
-1432
-1364
-1350
-1548
-1869
-2104
-2177
-2220
-2381
-2619
-2762
-2728
-2632
-2635
-2748
-2830
-2783
-2681
-2682
-2835
-3006
-3035
-2910
-2738
-2592
-2404
-2059
-1543
-978
-484
-96
189
318
214
-84
-421
-684
-949
-1408
-2107
-2840
-3346
-3581
-3711
-3858
-3945
-3826
-3526
-3238
-3069
-2903
-2594
-2245
-2161
-2477
-2933
-3114
-2920
-2671
-2727
-3064
-3302
-3164
-2782
-2517
-2537
-2672
-2669
-2496
-2344
-2356
-2456
-2450
-2246
-1938
-1675
-1526
-1458
-1414
-1364
-1317
-1273
-1217
-1143
-1057
-970
-887
-818
-773
-742
-692
-599
-477
-370
-312
-301
-302
-292
-273
-255
-236
-208
-155
-62
69
196
268
266
237
253
330
417
467
518
657
928
1279
1622
1909
2136
2271
2249
2061
1795
1561
1362
1116
808
571
565
797
1087
1241
1225
1139
1053
915
634
221
-204
-523
-714
-843
-980
-1133
-1264
-1345
-1394
-1468
-1618
-1847
-2113
-2371
-2606
-2823
-3007
-3136
-3211
-3278
-3378
-3496
-3578
-3609
-3627
-3661
-3664
-3570
-3394
-3232
-3159
-3152
-3125
-3025
-2871
-2705
-2553
-2436
-2382
-2375
-2340
-2205
-1995
-1817
-1741
-1725
-1683
-1591
-1503
-1454
-1415
-1344
-1270
-1252
-1291
-1310
-1249
-1125
-1002
-920
-865
-818
-787
-789
-802
-780
-701
-605
-524
-436
-276
-29
225
383
433
472
575
700
742
672
581
569
636
702
734
774
863
966
1017
1007
990
1021
1111
1222
1293
1271
1172
1103
1187
1425
1667
1764
1748
1809
2077
2496
2950
3422
3981
4616
5184
5546
5708
5756
5703
5465
4979
4287
3476
2588
1642
722
-42
-584
-964
-1270
-1495
-1536
-1338
-1000
-704
-568
-561
-566
-499
-387
-315
-348
-457
-557
-586
-548
-502
-488
-493
-476
-436
-410
-427
-473
-512
-520
-503
-461
-388
-310
-293
-371
-479
-487
-338
-119
23
35
18
105
312
527
634
612
521
434
392
399
427
438
415
378
369
409
472
512
514
506
507
512
496
455
415
411
442
459
409
301
205
181
207
209
141
51
23
68
123
129
97
68
50
15
-42
-81
-73
-53
-79
-159
-225
-216
-145
-72
-34
-23
-30
-57
-101
-133
-127
-109
-130
-196
-254
-252
-208
-190
-238
-311
-336
-287
-198
-129
-107
-115
-121
-108
-73
-29
10
41
71
103
136
158
171
194
244
317
375
389
364
350
401
520
656
744
761
752
774
845
924
952
912
832
759
713
685
657
618
571
520
471
431
390
324
216
84
-25
-81
-98
-121
-169
-214
-213
-157
-75
-1
61
119
173
212
235
250
268
285
304
334
385
445
487
504
521
560
611
644
643
611
559
495
439
427
463
506
526
568
735
1078
1528
1983
2434
2967
3622
4285
4769
4988
5015
4969
4860
4596
4098
3392
2583
1789
1091
527
89
-265
-562
-769
-811
-651
-348
-34
175
254
258
269
317
361
333
206
36
-82
-93
-16
96
207
304
373
386
338
266
220
213
216
203
185
194
246
320
384
424
445
458
470
487
512
540
557
562
574
602
642
676
695
710
735
770
799
821
846
884
926
951
963
978
1010
1053
1090
1118
1138
1145
1128
1091
1061
1060
1069
1042
958
850
785
791
835
861
844
813
814
863
928
963
948
907
880
883
890
869
814
752
715
703
694
675
657
655
649
607
527
461
467
532
583
556
462
370
329
315
274
179
48
-86
-206
-302
-359
-387
-413
-461
-516
-537
-506
-455
-433
-447
-469
-473
-468
-474
-486
-476
-438
-395
-374
-362
-318
-227
-120
-42
-16
-23
-36
-56
-95
-142
-163
-152
-143
-175
-237
-276
-263
-244
-280
-374
-461
-493
-491
-515
-572
-608
-585
-536
-526
-569
-627
-666
-696
-743
-794
-817
-817
-830
-877
-926
-932
-898
-870
-886
-919
-926
-887
-839
-835
-888
-953
-979
-959
-950
-999
-1090
-1151
-1145
-1106
-1075
-1015
-833
-499
-94
292
692
1214
1868
2477
2840
2927
2873
2795
2667
2366
1835
1141
412
-232
-723
-1058
-1323
-1612
-1909
-2069
-1965
-1668
-1408
-1344
-1416
-1431
-1302
-1128
-1059
-1127
-1223
-1233
-1155
-1093
-1122
-1177
-1102
-817
-439
-215
-301
-595
-829
-824
-676
-627
-793
-1056
-1223
-1237
-1200
-1194
-1186
-1119
-1040
-1073
-1231
-1353
-1264
-998
-778
-752
-815
-734
-434
-88
90
110
178
458
901
1327
1621
1833
2082
2420
2783
3038
3052
2767
2253
1684
1211
863
562
246
-44
-195
-128
138
499
814
982
1002
968
974
1011
986
852
702
688
824
952
946
861
867
1006
1120
1056
858
710
692
698
596
423
325
343
340
181
-72
-216
-155
-30
-57
-277
-514
-588
-524
-502
-640
-869
-1035
-1078
-1056
-1018
-928
-745
-519
-347
-241
-103
147
465
737
926
1102
1334
1592
1804
1963
2126
2303
2433
2479
2498
2592
2778
2969
3087
3152
3256
3459
3724
3975
4162
4264
4265
4156
3954
3712
3461
3168
2779
2314
1901
1681
1652
1640
1465
1131
816
664
630
544
344
172
208
464
782
1028
1236
1519
1879
2181
2307
2281
2226
2222
2247
2249
2220
2183
2143
2093
2029
1977
1945
1901
1809
1691
1617
1649
1803
2045
2329
2617
2889
3181
3567
4092
4691
5203
5489
5558
5540
5534
5494
5276
4794
4110
3385
2750
2244
1822
1441
1102
860
779
899
1190
1556
1885
2121
2297
2475
2679
2858
2955
2964
2930
2905
2910
2938
2991
3064
3146
3211
3248
3261
3253
3214
3151
3100
3096
3129
3147
3116
3053
2995
2948
2889
2809
2734
2689
2655
2597
2511
2440
2426
2448
2450
2396
2312
2254
2254
2287
2293
2238
2146
2080
2077
2106
2110
2064
2007
1991
2027
2075
2090
2063
2024
2001
1986
1953
1892
1825
1784
1784
1803
1806
1780
1747
1736
1747
1757
1746
1722
1714
1716
1705
1665
1613
1595
