3856
3836
3848
3865
3864
3850
3840
3840
3839
3833
3831
3848
3880
3903
3898
3867
3836
3831
3849
3866
3860
3837
3823
3837
3873
3915
3968
4048
4153
4262
4353
4420
4469
4507
4556
4636
4740
4825
4844
4813
4786
4770
4680
4415
3996
3583
3318
3170
2979
2643
2253
2013
2038
2255
2500
2669
2778
2896
3080
3338
3643
3931
4120
4167
4120
4094
4160
4270
4316
4248
4129
4068
4109
4195
4239
4216
4174
4167
4195
4217
4209
4185
4180
4205
4238
4255
4257
4272
4307
4337
4331
4290
4252
4252
4286
4326
4354
4372
4382
4376
4358
4352
4378
4417
4430
4405
4377
4390
4442
4492
4502
4486
4483
4513
4551
4566
4555
4535
4527
4531
4538
4548
4569
4599
4621
4618
4596
4581
4596
4648
4709
4745
4740
4718
4717
4759
4820
4857
4857
4846
4858
4893
4924
4926
4912
4916
4954
5004
5028
5020
4996
4986
4998
5022
5044
5058
5061
5059
5050
5033
5009
4984
4970
4968
4959
4923
4855
4783
4737
4724
4717
4684
4620
4547
4487
4445
4397
4327
4230
4134
4072
4056
4054
4014
3926
3831
3785
3801
3833
3826
3770
3700
3651
3628
3624
3635
3650
3651
3630
3602
3593
3605
3613
3597
3576
3578
3601
3618
3607
3580
3568
3588
3626
3655
3651
3617
3571
3547
3557
3582
3593
3586
3594
3643
3708
3751
3757
3758
3774
3782
3755
3701
3658
3646
3639
3608
3569
3564
3612
3682
3735
3756
3758
3753
3744
3741
3761
3806
3843
3841
3798
3753
3746
3781
3824
3850
3858
3858
3856
3846
3834
3839
3865
3893
3894
3868
3844
3844
3856
3853
3832
3824
3850
3894
3914
3885
3833
3805
3824
3874
3914
3918
3892
3866
3865
3889
3914
3920
3913
3911
3920
3928
3922
3913
3923
3957
3998
4030
4054
4079
4101
4109
4105
4107
4128
4157
4170
4160
4144
4146
4175
4221
4267
4300
4325
4355
4396
4433
4448
4439
4430
4452
4510
4576
4620
4635
4640
4654
4681
4712
4739
4752
4736
4682
4601
4524
4487
4490
4495
4468
4402
4338
4311
4324
4341
4323
4265
4197
4154
4145
4144
4127
4088
4046
4021
4016
4017
4006
3982
3952
3928
3913
3904
3901
3907
3920
3928
3923
3908
3898
3901
3913
3925
3932
3941
3958
3975
3986
3988
3991
4008
4040
4074
4107
4143
4192
4251
4307
4371
4457
4555
4625
4638
4629
4668
4770
4873
4908
4882
4860
4848
4756
4500
4128
3797
3598
3451
3197
2803
2423
2245
2304
2471
2612
2714
2855
3078
3353
3631
3897
4151
4352
4443
4435
4420
4472
4571
4628
4586
4492
4441
4477
4558
4615
4607
4544
4461
4393
4357
4345
4338
4322
4305
4304
4317
4327
4325
4323
4341
4370
4383
4367
4338
4328
4354
4404
4457
4499
4520
4518
4497
4480
4490
4526
4555
4552
4527
4513
4522
4534
4527
4515
4529
4578
4621
4619
4582
4560
4586
4641
4675
4670
4658
4671
4706
4726
4710
4682
4678
4708
4734
4728
4708
4712
4752
4796
4813
4815
4842
4906
4969
4985
4952
4916
4923
4972
5023
5037
5014
4985
4978
4994
5014
5020
5019
5024
5028
5013
4981
4960
4974
5003
4995
4927
4840
4792
4790
4784
4729
4629
4540
4498
4492
4484
4448
4387
4325
4276
4233
4181
4118
4055
4008
3973
3933
3885
3847
3838
3850
3849
3815
3775
3762
3781
3801
3790
3756
3737
3747
3760
3741
3694
3655
3655
3675
3673
3639
3602
3604
3646
3692
3713
3712
3715
3736
3764
3783
3782
3767
3750
3743
3749
3759
3759
3752
3756
3783
3817
3825
3800
3778
3799
3851
3885
3864
3809
3776
3795
3844
3880
3887
3888
3905
3928
3934
3918
3907
3926
3968
3999
4003
3998
4016
4065
4111
4122
4098
4069
4058
4060
4055
4036
4013
4007
4020
4047
4080
4111
4130
4126
4096
4059
4041
4049
4060
4048
4014
3987
3987
4010
4030
4032
4028
4035
4052
4057
4041
4019
4011
4015
4011
3990
3970
3977
4006
4025
4006
3971
3971
4024
4085
4091
4028
3959
3953
4015
4084
4100
4063
4032
4053
4120
4183
4196
4171
4159
4202
4284
4337
4316
4250
4221
4274
4364
4407
4374
4322
4321
4369
4409
4405
4383
4386
4411
4418
4380
4318
4267
4234
4200
4157
4120
4101
4081
4035
3973
3931
3932
3963
3983
3971
3938
3904
3882
3865
3850
3842
3846
3853
3858
3858
3854
3845
3838
3845
3870
3895
3893
3855
3808
3791
3812
3842
3856
3859
3869
3886
3888
3867
3848
3866
3929
4004
4069
4123
4177
4238
4306
4380
4448
4495
4523
4558
4632
4728
4788
4774
4724
4697
4677
4563
4277
3875
3517
3308
3196
3040
2786
2533
2432
2530
2723
2868
2928
2987
3142
3400
3677
3889
4024
4112
4173
4205
4218
4240
4278
4291
4230
4111
4023
4043
4156
4274
4320
4297
4264
4264
4285
4289
4264
4245
4266
4318
4351
4326
4269
4240
4264
4308
4324
4311
4304
4321
4333
4311
4280
4291
4352
4405
4393
4334
4299
4329
4393
4432
4422
4399
4399
4425
4448
4447
4428
4413
4418
4442
4471
4486
4479
4457
4443
4456
4489
4520
4530
4521
4511
4517
4545
4583
4620
4652
4681
4712
4743
4768
4784
4796
4815
4844
4877
4901
4903
4893
4890
4914
4957
4990
4994
4987
4999
5036
5062
5044
4998
4977
5009
5058
5064
5014
4957
4941
4955
4950
4903
4838
4789
4753
4707
4646
4590
4558
4537
4502
4448
4391
4346
4312
4271
4217
4159
4112
4080
4058
4037
4015
3995
3979
3961
3932
3897
3873
3874
3890
3895
3870
3833
3818
3839
3872
3883
3860
3822
3794
3780
3774
3769
3773
3792
3819
3841
3846
3845
3856
3884
3912
3914
3887
3862
3869
3905
3930
3915
3880
3873
3917
3984
4024
4014
3978
3960
3977
4014
4037
4029
4004
3987
3993
4008
4015
4016
4029
4062
4098
4109
4092
4073
4079
4104
4120
4110
4081
4056
4049
4057
4067
4071
4076
4086
4104
4119
4122
4117
4115
4124
4139
4152
4160
4164
4156
4133
4110
4109
4137
4161
4151
4113
4095
4120
4156
4150
4099
4057
4068
4110
4131
4112
4087
4092
4119
4136
4137
4146
4173
4196
4189
4164
4152
4157
4157
4135
4110
4110
4135
4152
4143
4127
4142
4197
4263
4306
4322
4326
4332
4334
4326
4320
4335
4374
4417
4442
4448
4458
4492
4544
4590
4605
4579
4522
4458
4411
4392
4384
4355
4293
4224
4186
4189
4201
4184
4135
4085
4058
4054
4056
4055
4047
4027
3995
3967
3960
3972
3980
3970
3951
3942
3940
3923
3889
3863
3877
3923
3962
3964
3937
3915
3919
3943
3967
3978
3971
3947
3913
3886
3885
3920
3977
4034
4082
4131
4195
4276
4363
4452
4539
4610
4655
4685
4728
4806
4894
4941
4919
4859
4789
4676
4437
4035
3557
3156
2914
2774
2614
2399
2226
2227
2427
2727
3001
3196
3350
3515
3707
3899
4053
4145
4168
4142
4122
4152
4224
4278
4259
4186
4138
4174
4276
4367
4402
4394
4378
4364
4341
4313
4303
4327
4360
4370
4349
4332
4348
4388
4421
4427
4418
4416
4421
4417
4400
4390
4411
4460
4502
4502
4463
4419
4411
4445
4485
4495
4475
4462
4485
4523
4538
4514
4486
4497
4551
4607
4624
4607
4586
4581
4590
4602
4619
4637
4646
4638
4620
4612
4624
4649
4676
4705
4741
4775
4784
4766
4751
4772
4828
4882
4904
4899
4892
4894
4902
4911
4936
4982
5032
5053
5038
5013
5012
5040
5071
5079
5063
5042
5027
5015
4998
4975
4954
4941
4936
4932
4917
4878
4817
4750
4696
4663
4635
4598
4550
4503
4463
4422
4372
4321
4287
4275
4265
4231
4170
4105
4064
4050
4049
4040
4020
3997
3979
3967
3957
3948
3943
3947
3956
3955
3936
3905
3877
3865
3868
3874
3871
3858
3840
3829
3831
3844
3857
3855
3840
3830
3839
3861
3873
3864
3846
3842
3857
3874
3874
3860
3849
3850
3857
3857
3852
3852
3863
3880
3892
3885
3857
3816
3784
3781
3804
3822
3808
3770
3745
3763
3811
3845
3841
3809
3785
3787
3801
3805
3796
3785
3782
3791
3806
3828
3857
3888
3909
3910
3893
3878
3879
3893
3903
3901
3891
3885
3889
3896
3900
3900
3905
3909
3897
3865
3828
3808
3820
3852
3885
3907
3918
3925
3930
3937
3952
3974
3988
3982
3961
3945
3944
3948
3942
3930
3935
3960
3980
3975
3960
3966
3991
4004
3987
3963
3970
4002
4017
3993
3959
3963
4018
4088
4139
4168
4183
4191
4193
4198
4223
4264
4299
4314
4314
4322
4350
3165
3169
3151
3101
3028
2961
2923
2915
2915
2901
2871
2839
2811
2794
2788
2797
2817
2845
2875
2899
2901
2870
2821
2789
2797
2833
2862
2874
2889
2916
2933
2926
2927
2987
3108
3221
3258
3234
3228
3291
3395
3474
3517
3561
3633
3706
3739
3736
3746
3803
3886
3950
3972
3965
3943
3911
3875
3858
3883
3946
4009
4039
4040
4039
4052
4069
4076
4073
4065
4047
4010
3962
3925
3916
3930
3953
3982
4014
4029
4003
3941
3883
3869
3897
3921
3908
3867
3830
3816
3819
3826
3834
3841
3838
3820
3798
3783
3778
3772
3753
3732
3728
3748
3770
3766
3727
3669
3627
3628
3669
3724
3761
3770
3756
3729
3700
3680
3686
3719
3748
3738
3684
3631
3627
3669
3710
3710
3681
3670
3690
3705
3673
3599
3540
3540
3588
3630
3630
3598
3575
3585
3617
3650
3677
3700
3710
3694
3651
3608
3596
3623
3668
3696
3698
3682
3662
3649
3648
3658
3663
3648
3609
3569
3545
3537
3532
3528
3542
3579
3616
3618
3580
3531
3499
3482
3459
3429
3411
3411
3405
3368
3312
3273
3277
3308
3327
3320
3304
3300
3313
3335
3366
3406
3448
3478
3496
3517
3554
3596
3620
3630
3652
3704
3772
3822
3831
3809
3786
3782
3805
3844
3881
3899
3890
3854
3809
3776
3773
3798
3823
3810
3759
3711
3712
3760
3798
3789
3759
3758
3793
3809
3753
3651
3578
3573
3600
3592
3527
3433
3345
3263
3174
3078
3001
2962
2955
2934
2858
2742
2649
2645
2725
2815
2864
2923
3120
3520
4035
4479
4749
4913
5117
5405
5645
5661
5412
5035
4714
4519
4380
4188
3910
3600
3342
3190
3156
3201
3249
3240
3169
3100
3103
3183
3273
3299
3243
3157
3103
3110
3149
3169
3141
3083
3049
3068
3113
3122
3070
2994
2955
2965
2994
3012
3022
3035
3035
2994
2913
2833
2787
2771
2756
2722
2685
2660
2647
2638
2626
2604
2566
2511
2458
2433
2433
2425
2375
2288
2213
2195
2225
2253
2237
2187
2147
2153
2204
2261
2295
2300
2289
2285
2302
2340
2392
2448
2501
2557
2624
2704
2776
2818
2826
2826
2853
2914
2978
3001
2980
2955
2965
3006
3043
3051
3038
3025
3013
2989
2950
2925
2947
3012
3080
3114
3113
3105
3116
3147
3184
3213
3229
3234
3235
3239
3247
3257
3263
3269
3285
3316
3349
3356
3320
3260
3216
3211
3219
3205
3164
3137
3161
3219
3258
3258
3257
3302
3385
3448
3451
3422
3426
3487
3570
3625
3647
3670
3713
3764
3791
3797
3817
3881
3986
4102
4206
4297
4387
4480
4570
4640
4673
4660
4602
4520
4435
4365
4322
4317
4356
4429
4501
4546
4559
4554
4542
4526
4508
4493
4477
4432
4343
4241
4187
4205
4251
4268
4250
4241
4264
4284
4252
4175
4110
4092
4095
4069
4001
3915
3834
3766
3723
3736
3809
3895
3938
3931
3927
3969
4040
4090
4104
4112
4145
4183
4190
4161
4139
4161
4215
4250
4236
4191
4152
4134
4133
4131
4129
4132
4138
4133
4097
4040
3996
3998
4037
4057
4019
3949
3908
3928
3968
3969
3919
3869
3862
3882
3877
3828
3771
3741
3732
3714
3673
3638
3632
3634
3593
3497
3393
3350
3385
3430
3413
3330
3253
3252
3317
3384
3410
3420
3464
3543
3606
3607
3567
3543
3568
3623
3670
3695
3709
3714
3703
3676
3663
3693
3752
3787
3754
3676
3617
3620
3665
3703
3713
3712
3721
3729
3714
3677
3644
3634
3642
3645
3642
3645
3659
3665
3654
3635
3627
3630
3625
3595
3542
3481
3420
3355
3300
3266
3245
3212
3147
3057
2963
2872
2779
2700
2662
2675
2714
2760
2860
3102
3519
4023
4460
4744
4929
5128
5379
5592
5635
5470
5189
4935
4779
4671
4500
4206
3850
3565
3444
3466
3517
3492
3384
3275
3247
3312
3416
3489
3503
3474
3425
3367
3310
3270
3267
3306
3358
3384
3370
3332
3297
3284
3298
3330
3367
3388
3378
3344
3310
3294
3292
3289
3282
3283
3302
3318
3309
3281
3272
3303
3349
3360
3325
3283
3278
3302
3309
3275
3234
3232
3274
3306
3270
3173
3074
3032
3051
3093
3112
3096
3058
3015
2984
2976
2988
3006
3005
2974
2932
2904
2897
2897
2884
2862
2852
2857
2863
2847
2803
2746
2699
2677
2681
2704
2725
2723
2689
2643
2624
2654
2711
2748
2734
2687
2649
2647
2664
2673
2676
2696
2747
2811
2854
2867
2873
2898
2947
3006
3059
3103
3138
3166
3199
3255
3334
3413
3467
3497
3534
3590
3640
3651
3631
3626
3664
3724
3763
3768
3766
3776
3789
3789
3797
3849
3928
3970
3926
3832
3771
3782
3824
3833
-643
-663
-671
-669
-670
-680
-694
-695
-672
-640
-634
-664
-699
-700
-658
-610
-595
-605
-602
-570
-535
-528
-532
-503
-424
-334
-290
-297
-306
-268
-184
-87
-3
73
144
196
213
214
242
310
388
436
447
454
482
516
532
539
566
620
665
664
618
574
568
598
635
658
662
653
639
627
625
633
648
660
666
661
638
601
564
549
561
587
599
586
558
530
512
500
492
490
495
499
483
443
397
376
389
415
423
404
381
378
388
383
347
308
303
332
352
327
279
263
297
341
347
324
317
346
371
351
297
269
293
336
345
321
303
316
332
317
277
258
281
319
329
299
260
238
231
225
217
217
223
215
186
163
180
234
281
282
248
225
236
257
245
196
150
153
201
251
254
201
126
86
107
169
221
226
190
154
146
161
171
162
144
133
130
116
77
24
-9
0
44
77
64
9
-42
-52
-34
-31
-64
-105
-114
-98
-106
-161
-226
-237
-175
-86
-37
-41
-56
-40
5
48
68
74
83
100
120
139
161
191
226
265
302
328
332
310
279
263
274
292
294
282
282
305
329
326
300
284
300
333
351
344
329
314
288
244
208
217
271
313
289
211
149
147
181
182
112
-1
-107
-189
-256
-311
-349
-383
-447
-551
-648
-674
-627
-575
-568
-549
-396
-52
387
745
928
1012
1157
1436
1744
1894
1792
1524
1260
1104
1014
883
663
398
161
-6
-105
-148
-152
-144
-140
-125
-80
-14
34
31
-10
-49
-77
-114
-167
-195
-169
-113
-93
-139
-201
-208
-151
-96
-107
-168
-216
-206
-167
-155
-188
-231
-241
-224
-218
-244
-274
-270
-230
-192
-185
-194
-196
-189
-203
-252
-299
-295
-244
-201
-216
-273
-316
-312
-287
-279
-295
-310
-317
-336
-379
-421
-422
-382
-346
-358
-404
-440
-441
-425
-426
-446
-467
-478
-489
-510
-538
-566
-599
-641
-677
-679
-647
-614
-617
-654
-690
-697
-679
-657
-641
-634
-636
-653
-670
-664
-630
-588
-563
-549
-524
-487
-459
-445
-423
-371
-299
-235
-189
-141
-86
-46
-42
-49
-11
86
190
239
227
209
242
327
419
470
475
468
477
495
491
453
421
446
527
603
613
574
558
602
663
679
647
617
613
599
548
500
512
584
639
622
568
547
581
614
591
527
486
495
524
531
507
473
449
441
447
459
466
456
430
397
367
345
341
358
389
399
367
314
285
302
338
354
355
369
401
413
374
314
289
319
359
283
301
254
245
261
268
263
268
287
291
257
203
176
186
203
195
176
191
249
301
293
234
191
210
267
289
248
187
169
204
247
260
252
258
283
296
268
213
170
155
156
157
166
196
233
250
233
212
222
261
287
268
214
164
140
126
104
78
74
104
141
141
90
23
-13
-4
21
13
-44
-119
-164
-157
-115
-71
-41
-24
-4
32
81
128
153
150
134
132
154
180
193
190
190
208
239
263
273
284
301
310
295
261
240
256
295
330
347
354
357
345
315
289
307
362
398
361
268
195
198
252
287
273
248
265
313
326
274
198
172
203
214
130
-35
-200
-301
-342
-366
-399
-445
-506
-579
-632
-625
-557
-479
-417
-313
-65
337
757
1031
1140
1235
1465
1789
2007
261
-69
-352
-566
-806
-1129
-1480
-1756
-1899
-1921
-1849
-1714
-1539
-1349
-1178
-1061
-1016
-1011
-967
-840
-687
-628
-699
-784
-726
-516
-306
-238
-281
-303
-249
-193
-215
-297
-337
-257
-38
297
677
993
1165
1213
1238
1277
1232
972
526
75
-217
-362
-479
-605
-657
-550
-321
-91
65
164
250
321
352
336
307
303
331
369
392
389
363
344
378
481
628
779
924
1095
1303
1503
1618
1600
1456
1210
872
464
53
-274
-476
-580
-612
-557
-386
-128
131
319
445
538
593
587
537
498
494
493
453
389
355
376
415
425
395
354
352
455
717
1112
1505
1736
1746
1614
1442
1240
936
504
30
-353
-576
-655
-630
-522
-359
-201
-112
-107
-135
-145
-148
-191
-294
-408
-454
-392
-258
-125
-31
38
102
156
175
162
153
179
235
297
346
384
415
432
429
416
410
418
443
492
573
676
762
797
786
764
747
719
657
562
453
346
263
231
252
294
318
346
482
781
1151
1415
1480
1411
1319
1203
974
610
215
-91
-286
-395
-374
-146
234
528
529
281
34
-50
-71
-233
-543
-755
-623
-154
414
864
1185
1504
1884
2224
2346
2174
1812
1445
1197
1058
935
760
541
332
178
86
39
12
-15
-41
-49
-29
24
96
152
151
71
-74
-221
-291
-234
-86
60
117
74
-2
-56
-131
-353
-803
-1378
-1827
-1946
-1749
-1426
-1133
-837
-403
193
789
1178
1297
1240
1108
913
636
330
101
15
27
48
62
121
262
444
561
525
323
30
-245
-435
-555
-671
-802
-869
-798
-623
-447
-321
-194
-10
171
230
125
-68
-260
-440
-644
-852
-1019
-1130
-1201
-1199
-1050
-770
-521
-469
-576
-631
-505
-299
-224
-360
-581
-718
-720
-671
-652
-663
-633
-491
-251
-7
137
158
140
188
294
347
280
168
142
237
365
437
482
574
698
771
777
833
1051
1379
1648
1748
1722
1647
1520
1338
1225
1345
1674
1946
1941
1743
1634
1731
1806
1584
1091
598
297
136
17
20
302
820
1295
1490
1460
1434
1532
1619
1491
1113
656
347
297
447
642
758
782
780
805
831
800
700
607
596
665
731
736
701
680
697
712
666
563
468
457
549
686
782
787
724
660
633
629
610
562
502
449
414
412
463
568
688
767
783
767
766
798
834
841
809
763
746
791
895
1009
1068
1049
999
1002
1092
1207
1249
1185
1075
1009
1017
1049
1028
933
813
765
871
1156
1563
1968
2254
2374
2361
2270
2117
1867
1503
1073
671
381
237
232
339
530
769
1007
1197
1305
1325
1279
1204
1134
1075
1014
947
897
886
903
908
879
827
774
711
622
523
465
473
515
528
490
435
405
404
396
353
274
191
135
119
136
188
306
540
884
1235
1456
1525
1584
1783
2075
2212
1997
1525
1111
953
928
747
282
-301
-736
-915
-926
-882
-796
-629
-382
-108
158
418
654
795
773
608
395
220
102
14
-46
-63
-27
33
84
119
144
157
142
94
38
6
-1
-21
-76
-130
-120
-45
-11
-117
-323
-461
-435
-364
-465
-785
-1110
-1191
-1005
-755
-608
-507
-287
73
391
486
377
238
188
186
134
18
-76
-62
69
260
435
522
481
333
156
30
-28
-62
-110
-161
-183
-175
-155
-115
-39
54
93
19
-132
-251
-259
-168
-45
56
114
111
33
-90
-187
-202
-151
-98
-80
-77
-51
15
114
227
314
337
286
217
207
274
355
386
373
389
483
623
729
775
804
865
970
1081
1150
1158
1123
1088
1085
1116
1144
1123
1046
953
893
900
983
1122
1265
1351
1361
1351
1399
1514
1601
1564
1420
1293
1279
1332
1331
1215
1048
920
849
793
729
684
668
645
576
492
474
546
641
670
626
584
608
677
729
742
746
769
794
783
732
682
672
706
753
781
770
731
701
713
757
766
682
535
434
460
577
662
635
540
486
517
570
557
466
364
320
335
365
377
377
384
398
400
377
335
294
277
288
317
345
364
395
469
578
675
717
703
673
665
687
724
760
786
792
771
731
692
667
664
690
750
831
894
915
917
943
1005
1060
1054
983
899
855
866
921
997
1068
1111
1118
1112
1120
1141
1146
1116
1066
1020
976
915
839
770
718
659
576
487
423
389
350
286
221
191
182
142
72
59
202
484
759
894
917
996
1269
1674
1996
2056
1874
1632
1493
1448
1359
1113
730
331
15
-205
-368
-493
-568
-586
-565
-525
-462
-348
-187
-29
64
70
17
-46
-92
-119
-131
-119
-73
-12
22
1
-52
-78
-39
34
68
21
-77
-160
-188
-177
-168
-174
-184
-178
-161
-146
-137
-129
-108
-71
-28
4
10
0
-6
9
31
35
10
-24
-41
-34
-19
-12
-7
3
15
13
-6
-29
-50
-76
-118
-157
-168
-141
-99
-70
-54
-22
31
76
78
33
-27
-71
-99
-133
-178
-219
-251
-280
-301
-292
-240
-182
-179
-249
-334
-364
-339
-318
-344
-395
-415
-381
-324
-283
-261
-248
-237
-222
-194
-144
-76
-14
23
39
56
100
182
285
368
400
391
392
442
528
603
629
613
592
601
653
728
782
776
724
695
739
821
847
777
688
686
779
860
831
714
631
660
748
786
722
620
585
654
762
810
766
694
672
702
708
636
526
460
475
522
539
526
512
500
466
422
412
430
389
231
22
-97
-67
36
117
184
302
458
561
573
567
630
720
714
579
427
384
439
480
438
356
312
322
349
365
368
353
315
267
248
274
319
347
354
377
447
534
589
594
573
569
597
640
674
687
683
668
646
637
673
758
852
900
889
858
852
867
871
856
850
876
912
912
879
868
921
1004
1037
992
935
949
1036
1106
1093
1034
1026
1108
1204
1214
1140
1069
1068
1099
1093
1038
981
954
937
904
871
866
870
830
728
612
527
479
462
517
692
939
1129
1197
1247
1454
1842
2217
2356
2232
2035
1942
1943
1892
1695
1409
1147
946
765
573
412
338
353
385
369
306
267
317
452
592
635
553
415
319
297
290
235
152
118
153
180
120
2
-45
53
214
282
194
43
-24
42
169
249
239
168
88
38
30
45
39
-18
-104
-162
-149
-84
-25
-10
-32
-68
-107
-156
-220
-293
-363
-412
-427
-403
-354
-314
-307
-324
-334
-314
-281
-276
-313
-367
-405
-429
-472
-544
-611
-638
-638
-667
-754
-845
-865
-808
-745
-745
-794
-827
-813
-794
-819
-879
-921
-921
-909
-920
-944
-940
-889
-818
-764
-750
-765
-784
-791
-782
-761
-734
-698
-649
-584
-514
-459
-426
-401
-366
-321
-288
-293
-327
-352
-336
-285
-235
-216
-217
-215
-193
-154
-103
-44
3
5
-37
-81
-82
-56
-51
-78
-82
-4
139
269
345
411
513
629
678
608
435
238
108
122
292
533
706
758
782
914
1143
1294
1218
967
734
637
617
571
504
508
621
759
828
827
834
874
882
789
600
407
287
233
182
99
3
-77
-135
-205
-310
-435
-540
-615
-682
-751
-807
-826
-818
-828
-880
-945
-971
-948
-913
-903
-896
-838
-705
-527
-357
-220
-111
-10
103
239
369
425
343
171
68
165
426
653
694
603
571
704
907
1004
942
827
782
819
869
888
899
937
987
1009
1003
1003
1038
1096
1141
1147
1115
1070
1039
1042
1067
1074
1024
931
860
865
901
832
543
71
-388
-630
-631
-537
-489
-470
-351
-59
324
635
780
776
680
536
382
273
256
330
457
631
883
1236
1641
1998
2229
2329
2347
2327
2272
2159
1979
1766
1584
1467
1394
1308
1189
1081
1046
1092
1174
1246
1305
1370
1425
1427
1360
1254
1154
1082
1044
1056
1131
1221
1237
1143
1017
964
995
1019
964
880
857
899
913
853
801
855
987
1073
1064
1057
1155
1312
1379
1292
1150
1081
1084
1057
943
791
684
634
598
560
554
600
673
716
724
734
773
828
859
846
808
781
785
805
807
770
700
628
581
573
605
662
714
738
734
734
762
808
833
819
797
800
817
796
711
610
563
589
634
638
604
582
604
647
666
646
616
603
607
611
613
629
673
738
806
867
927
988
1049
1095
1120
1128
1131
1143
1166
1185
1192
1197
1232
1310
1396
1434
1413
1384
1410
1479
1523
1500
1452
1455
1522
1582
1569
1505
1469
1501
1552
1553
1492
1423
1395
1409
1429
1429
1411
1383
1358
1340
1332
1328
1317
1291
1259
1235
1232
1246
1261
1265
1250
1221
1190
1165
1137
1081
993
899
840
820
800
742
661
614
625
653
635
570
506
476
469
473
497
544
568
531
487
549
745
922
884
622
359
308
446
545
448
246
159
292
543
736
793
769
748
757
775
780
791
842
946
1082
1208
1303
1389
1502
1629
1696
1652
1549
1493
1535
1606
1610
1554
1551
1675
1856
1936
1834
1634
1488
1456
1467
1417
1285
1139
1058
1062
1108
1138
1129
1100
1076
1062
1032
951
810
642
495
403
353
302
243
230
316
470
586
584
505
453
470
472
375
252
301
625
1085
1430
1564
1658
1940
2412
2828
2955
2808
2587
2403
2150
1662
973
338
-5
-67
-45
-45
51
435
1106
1815
2280
2420
2370
2296
2234
2117
1904
1645
1433
1324
1312
1366
1452
1547
1618
1619
1530
1378
1224
1127
1101
1121
1158
1196
1229
1233
1177
1056
916
812
766
754
743
734
754
818
903
955
945
886
829
819
859
905
907
859
798
770
778
800
814
822
832
838
829
817
817
830
828
789
730
694
702
729
733
705
675
679
711
732
715
672
641
643
653
626
552
478
460
503
557
563
509
429
359
315
291
272
232
150
30
-89
-167
-192
-191
-193
-210
-233
-232
-161
17
292
591
835
1002
1135
1276
1409
1482
1473
1409
1323
1232
1147
1096
1108
1174
1249
1305
1343
1370
1376
1350
1312
1293
1296
1281
1225
1163
1156
1204
1253
1253
1221
1205
1215
1214
1182
1158
1188
1256
1299
1287
1268
1297
1355
1371
1314
1245
1235
1274
1285
1228
1150
1123
1159
1198
1191
1149
1123
1143
1201
1262
1287
1250
1152
1036
964
960
987
988
951
922
948
1024
1095
1102
1017
854
667
538
525
612
717
779
825
932
1124
1317
1398
1332
1177
1006
850
711
616
598
660
770
897
1046
1220
1387
1501
1546
1543
1505
1419
1295
1198
1198
1288
1376
1388
1349
1346
1422
1529
1583
1545
1450
1370
1356
1401
1442
1425
1359
1309
1327
1388
1413
1369
1301
1269
1264
1236
1167
1106
1099
1125
1125
1078
1015
966
922
860
790
735
676
565
409
276
230
243
216
101
-44
-124
-105
-32
64
220
472
784
1055
1246
1435
1731
2127
2465
2583
2475
2280
2139
2067
1984
1838
1639
1420
1186
960
821
845
992
1114
1106
1026
1030
1179
1355
1383
1231
1021
877
799
711
594
515
527
593
633
616
576
538
487
403
300
220
174
132
71
18
23
100
193
226
174
78
2
-32
-55
-113
-218
-338
-441
-516
-569
-605
-619
-609
-577
-521
-434
-316
-194
-101
-48
-7
49
110
148
155
156
186
235
268
271
263
261
255
211
118
4
-86
-134
-161
-207
-293
-393
-465
-489
-501
-568
-719
-912
-1066
-1139
-1161
-1197
-1264
-1315
-1299
-1226
-1154
-1136
-1164
-1192
-1190
-1177
-1197
-1263
-1336
-1354
-1301
-1217
-1157
-1132
-1105
-1036
-927
-821
-754
-723
-686
-609
-490
-364
-268
-214
-175
-121
-52
7
42
74
133
218
296
342
355
351
340
326
323
332
333
311
280
290
364
468
533
522
470
437
455
505
544
547
522
501
519
578
650
702
731
755
786
813
822
815
802
786
767
757
769
785
756
662
557
514
539
567
546
500
480
483
466
427
439
542
663
682
585
490
506
598
632
550
443
429
513
596
601
554
529
550
578
573
546
543
588
666
741
786
809
839
903
995
1080
1126
1139
1152
1181
1219
1253
1285
1326
1364
1367
1329
1289
1283
1311
1332
1315
1278
1272
1325
1410
1476
1486
1441
1386
1371
1422
1507
1560
1535
1456
1399
1419
1493
1548
1533
1475
1437
1451
1484
1479
1409
1310
1227
1169
1114
1044
967
889
790
650
487
358
295
273
256
280
418
685
988
1220
1395
1638
2035
2508
2873
3017
2988
2932
2940
2975
2938
2762
2471
2159
1919
1793
1756
1758
1757
1752
1766
1814
1885
1956
2000
1991
1926
1819
1708
1634
1616
1631
1634
1604
1549
1494
1453
1417
1366
1290
1199
1118
1062
1021
960
868
787
774
829
872
814
667
541
522
576
587
495
357
280
300
371
430
464
486
502
508
508
515
525
517
469
390
319
281
271
262
235
197
172
164
156
119
59
4
-17
-13
-28
-88
-175
-245
-265
-250
-239
-255
-286
-299
-278
-243
-221
-220
-216
-188
-148
-125
-129
-133
-101
-30
50
114
156
193
234
275
313
348
377
400
424
458
505
561
623
695
772
835
865
875
898
950
1001
1017
989
950
940
967
1010
1046
1064
1066
1060
1065
1088
1113
1116
1091
1058
1044
1048
1048
1027
995
970
958
948
935
916
884
833
773
725
700
686
663
639
635
655
674
661
618
579
569
577
566
519
460
425
423
429
410
360
311
294
309
322
306
270
247
246
240
198
130
73
46
20
-41
-125
-181
-178
-152
-157
-202
-244
-243
-213
-196
-209
-227
-226
-213
-216
-237
-257
-259
-260
-287
-336
-370
-358
-313
-273
-265
-271
-251
-189
-112
-57
-27
2
44
79
96
109
149
226
307
356
372
394
455
548
637
693
708
700
691
696
716
735
749
771
818
876
916
922
921
947
991
1018
1015
1023
1082
1167
1214
1206
1197
1239
1293
1267
1146
1030
1009
1048
1025
895
757
722
762
739
575
358
238
243
256
151
-59
-250
-328
-323
-350
-486
-683
-807
-774
-645
-576
-641
-716
-605
-260
126
318
274
153
71
-58
-400
-956
-1528
-1923
-2148
-2337
-2536
-2620
-2458
-2095
-1723
-1497
-1425
-1422
-1422
-1421
-1433
-1460
-1494
-1528
-1539
-1475
-1312
-1092
-912
-836
-844
-875
-899
-937
-1006
-1067
-1066
-997
-922
-902
-928
-941
-907
-847
-800
-761
-703
-643
-641
-731
-864
-947
-939
-885
-849
-823
-741
-555
-303
-73
75
158
228
308
379
408
395
375
384
425
477
509
522
541
579
612
621
624
655
705
710
634
525
465
441
325
21
-385
-695
-823
-884
-1044
-1293
-1437
-1322
-998
-655
-411
-235
-48
156
301
334
279
196
139
131
172
248
335
431
559
729
892
980
966
900
860
880
937
984
997
990
1000
1058
1157
1249
1278
1236
1175
1155
1183
1217
1229
1248
1307
1393
1450
1428
1336
1222
1126
1035
893
647
308
-27
-221
-198
4
284
590
958
1434
1975
2455
2769
2896
2888
2787
2615
2400
2201
2072
2025
2035
2079
2155
2256
2359
2434
2467
2465
2442
2398
2340
2288
2272
2296
2340
2359
2332
2278
2236
2222
2216
2190
2145
2112
2109
2119
2101
2043
1972
1927
1908
1887
1837
1771
1707
1646
1574
1492
1419
1376
1358
1345
1322
1291
1258
1234
1224
1223
1215
1185
1129
1060
1002
982
1017
1095
1173
1199
1165
1121
1126
1176
1202
1154
1065
1008
1008
1027
1038
1075
1185
1334
1425
1418
1398
1494
1731
1987
2109
2068
1969
1919
1910
1844
1661
1418
1220
1117
1074
1050
1071
1187
1375
1526
1546
1462
1385
1378
1393
1346
1222
1108
1098
1183
1284
1352
1412
1490
1548
1522
1428
1372
1423
1506
1508
1456
1522
1807
2170
2344
2211
1908
1650
1493
1311
976
502
31
-287
-382
-299
-147
-20
92
285
614
995
1264
1356
1385
1521
1792
2054
2161
2128
2101
2189
2343
2389
2194
1800
1386
1104
964
870
746
607
522
527
595
678
763
849
929
986
1016
1025
1013
983
941
898
850
793
752
777
876
986
1021
953
836
742
692
649
564
412
220
58
3
72
195
271
253
199
208
297
391
407
339
249
195
193
223
260
293
314
318
311
316
345
389
435
474
511
542
558
545
503
441
372
308
274
283
321
340
307
245
213
230
245
198
100
38
69
140
148
70
-1
28
131
190
132
19
-25
40
130
160
122
67
25
-24
-95
-164
-215
-277
-379
-470
-447
-294
-125
-83
-166
-227
-157
-11
64
13
-83
-110
-37
105
276
447
572
625
643
690
762
769
663
528
497
580
637
572
463
466
607
749
759
668
606
637
705
737
741
767
821
860
858
842
839
835
803
751
711
685
651
609
605
674
781
853
859
840
851
888
907
887
857
850
854
834
783
732
710
721
745
776
812
840
847
843
857
895
916
883
806
737
707
697
675
648
649
678
697
673
634
634
669
671
591
472
414
468
570
610
540
414
327
316
334
316
250
186
176
218
268
297
311
321
312
257
161
69
18
1
-12
-35
-44
-11
65
158
237
281
287
267
242
219
197
181
189
238
322
407
469
519
580
642
659
604
515
455
454
474
470
453
478
576
698
750
691
578
503
509
546
541
486
450
495
608
716
764
764
751
735
693
609
498
393
306
223
132
40
-39
-104
-174
-257
-338
-385
-395
-408
-454
-495
-426
-183
165
469
652
798
1065
1493
1930
2180
2184
2052
1920
1816
1671
1436
1150
885
680
530
442
438
512
606
647
625
593
612
667
690
636
541
477
468
480
484
496
535
573
559
497
452
459
466
398
288
256
362
495
487
318
163
183
330
402
293
103
9
67
178
238
227
168
76
-17
-31
78
218
221
35
-171
-189
-15
138
90
-102
-231
-186
-58
0
-52
-132
-159
-143
-127
-130
-136
-140
-155
-178
-180
-144
-94
-60
-46
-41
-29
-9
15
34
39
34
31
42
70
110
160
201
191
109
11
22
216
497
656
575
367
267
381
572
626
493
328
305
435
594
683
720
777
871
952
977
970
988
1054
1135
1189
1207
1215
1246
1307
1373
1414
1413
1375
1326
1291
1287
1306
1322
1311
1276
1246
1240
1249
1238
1185
1114
1080
1108
1160
1165
1089
975
896
881
886
854
775
696
662
670
685
680
662
650
647
648
652
660
666
658
635
613
610
618
611
578
538
516
513
505
482
466
490
553
613
629
616
621
648
637
541
411
359
416
466
378
194
115
270
532
639
485
242
157
267
381
331
168
87
185
362
455
424
376
410
500
535
466
366
346
423
518
564
589
664
790
888
914
929
1014
1143
1196
1117
1003
997
1121
1258
1304
1289
1305
1372
1428
1438
1445
1497
1550
1519
1405
1318
1351
1461
1520
1460
1344
1287
1321
1367
1347
1266
1195
1180
1198
1211
1227
1281
1364
1399
1326
1190
1113
1158
1236
1195
1005
814
783
896
981
910
737
604
558
514
406
283
235
259
274
272
369
660
1084
1468
1720
1913
2175
2534
2900
3161
3267
3222
3058
2837
2635
2483
2329
2096
1784
1494
1348
1371
1483
1585
1643
1687
1756
1843
1908
1921
1895
1863
1833
1778
1687
1614
1643
1790
1959
2023
1954
1857
1848
1930
2006
2002
1944
1919
1960
2027
2058
2044
2030
2048
2089
2117
2110
2074
2034
2016
2024
2045
2056
2049
2035
2031
2037
2038
2028
2015
2008
1999
1972
1932
1899
1885
1875
1844
1793
1739
1699
1671
1641
1606
1566
1520
1463
1398
1346
1319
1303
1273
1220
1165
1133
1123
1106
1055
974
895
839
794
736
662
594
553
537
524
508
499
502
501
477
430
386
364
351
323
276
239
243
288
341
370
372
371
393
439
489
528
553
572
594
621
659
712
775
831
871
902
940
990
1041
1083
1118
1148
1172
1178
1170
1167
1182
1204
1212
1207
1213
1244
1284
1300
1284
1259
1257
1279
1291
1269
1229
1214
1246
1299
1325
1314
1299
1314
1346
1356
1330
1296
1273
1249
1198
1129
1084
1080
1075
1020
924
843
809
797
768
719
676
651
626
592
567
566
572
557
526
507
506
485
415
317
241
212
208
194
164
139
142
169
198
202
168
117
82
81
90
71
23
-8
17
82
137
147
120
84
54
34
23
12
-21
-88
-147
-139
-60
16
15
-54
-97
-56
28
80
85
104
185
300
383
406
399
408
449
511
579
634
667
686
722
799
891
939
911
850
811
799
788
770
771
806
840
837
823
864
967
1049
1034
948
895
938
1024
1060
1025
982
995
1055
1096
1075
1022
993
1009
1040
1042
999
922
832
737
628
502
365
210
26
-189
-414
-619
-784
-917
-1032
-1114
-1127
-1034
-821
-512
-164
153
408
635
893
1183
1413
1483
1394
1249
1146
1082
976
777
510
236
-13
-230
-399
-517
-604
-686
-769
-819
-806
-746
-696
-701
-765
-875
-1017
-1174
-1320
-1440
-1540
-1632
-1714
-1775
-1810
-1832
-1845
-1833
-1784
-1722
-1694
-1731
-1816
-1905
-1972
-2028
-2101
-2197
-2286
-2327
-2303
-2238
-2171
-2122
-2071
-1995
-1902
-1817
-1748
-1669
-1554
-1408
-1268
-1173
-1129
-1095
-1031
-941
-881
-899
-978
-1053
-1080
-1084
-1103
-1132
-1119
-1059
-1023
-1078
-1193
-1267
-1252
-1194
-1161
-1149
-1111
-1043
-988
-955
-896
-783
-682
-686
-804
-938
-989
-954
-906
-903
-956
-1042
-1125
-1158
-1110
-1012
-945
-957
-1014
-1035
-984
-896
-822
-768
-708
-629
-541
-459
-373
-269
-140
13
176
329
441
491
495
496
538
616
684
707
707
739
833
953
1032
1053
1060
1097
1147
1163
1138
1118
1141
1179
1177
1131
1095
1112
1155
1166
1134
1093
1074
1067
1050
1023
1003
995
989
973
956
942
931
920
925
954
990
986
928
854
809
802
802
779
743
722
725
725
706
676
655
647
634
609
575
547
528
515
511
523
546
549
510
443
407
437
508
548
518
461
462
550
657
683
610
513
470
476
456
372
279
254
304
353
334
264
216
230
271
273
214
135
92
106
162
224
257
253
237
242
274
290
249
159
91
108
201
298
344
357
390
469
568
634
645
617
588
586
620
684
753
802
837
891
979
1061
1078
1027
978
995
1038
1004
867
756
817
1023
1178
1138
983
914
1010
1138
1133
1001
896
916
999
1035
1009
998
1047
1110
1118
1069
1018
997
984
945
886
840
811
773
700
598
505
444
388
286
123
-43
-137
-141
-116
-134
-196
-208
-73
222
583
886
1077
1218
1430
1777
2172
2428
2421
2208
1983
1887
1879
1801
1554
1198
880
685
588
530
491
486
514
551
577
610
688
816
937
973
884
714
569
534
594
644
592
455
340
331
403
462
451
394
355
364
398
422
426
423
438
477
510
515
518
576
691
764
692
508
369
381
479
515
468
474
638
883
1035
1032
975
966
968
873
657
416
249
157
82
11
-17
26
106
168
185
166
138
117
95
51
-42
-170
-263
-241
-105
44
82
-14
-145
-195
-143
-77
-87
-174
-259
-276
-235
-191
-171
-166
-155
-141
-134
-132
-132
-138
-149
-137
-71
40
160
264
367
479
564
582
544
517
542
578
563
510
512
631
813
950
991
994
1036
1130
1231
1292
1311
1305
1288
1275
1294
1347
1405
1429
1422
1428
1473
1522
1514
1435
1341
1286
1269
1252
1215
1175
1159
1167
1178
1183
1187
1187
1165
1106
1016
929
868
831
798
748
681
620
589
595
613
613
583
543
527
552
611
682
739
768
773
778
801
826
815
756
691
675
709
728
693
647
668
766
855
847
760
695
711
763
769
716
674
693
730
713
644
612
676
783
822
757
677
691
809
929
954
886
803
776
801
818
785
709
638
607
620
650
662
650
639
659
715
777
807
799
779
772
780
792
812
858
928
983
998
998
1034
1125
1212
1229
1175
1129
1155
1231
1278
1256
1202
1179
1204
1239
1242
1213
1176
1150
1139
1147
1163
1168
1151
1126
1128
1169
1218
1228
1189
1141
1128
1145
1154
1125
1076
1044
1047
1068
1078
1070
1049
1021
985
933
856
758
650
543
441
342
242
143
49
-35
-94
-123
-142
-176
-211
-179
-4
301
621
834
944
1069
1313
1644
1918
2019
1958
1839
1748
1695
1625
1482
1249
960
679
472
371
354
365
364
354
362
404
468
524
540
510
444
360
294
271
294
335
351
325
282
252
236
206
142
69
40
78
139
165
141
102
89
98
91
44
-20
-64
-72
-58
-40
-23
-6
13
28
29
0
-68
-156
-215
-213
-185
-190
-240
-276
-244
-169
-142
-207
-309
-371
-382
-400
-455
-508
-502
-448
-410
-431
-492
-548
-577
-596
-633
-697
-780
-854
-888
-869
-824
-799
-815
-846
-849
-817
-791
-811
-876
-941
-967
-957
-940
-935
-938
-938
-934
-931
-925
-904
-869
-838
-827
-823
-801
-753
-699
-660
-628
-580
-513
-453
-417
-394
-355
-295
-241
-216
-212
-205
-185
-164
-148
-126
-86
-42
-25
-34
-26
31
115
164
148
100
77
91
107
104
112
162
233
275
278
291
355
428
428
332
212
156
173
202
194
167
171
223
294
346
373
383
384
385
393
405
411
404
402
431
493
559
601
619
634
655
667
655
627
610
617
634
643
635
626
638
678
729
761
759
734
717
725
745
756
747
728
718
722
739
756
758
740
709
684
674
665
640
606
588
596
606
582
529
482
465
459
432
371
304
256
227
202
170
126
70
7
-54
-98
-120
-125
-123
-117
-108
-100
-93
-78
-40
22
90
127
119
97
115
205
331
418
427
400
408
467
522
519
478
464
509
571
601
603
619
665
710
721
712
722
750
758
726
679
658
673
694
697
685
677
684
693
690
673
648
619
572
490
378
269
194
146
90
-1
-105
-181
-206
-214
-257
-360
-488
-586
-634
-665
-717
-765
-718
-498
-137
234
496
661
852
1164
1548
1850
1953
1871
1726
1619
1554
1463
1283
1021
739
499
329
220
163
155
184
220
241
255
298
382
463
476
406
311
265
283
313
308
279
274
308
342
330
284
263
308
388
443
450
439
441
447
430
393
367
374
398
407
399
399
423
458
476
466
436
405
377
356
333
304
272
245
227
208
174
125
72
18
-45
-112
-150
-137
-99
-93
-142
-204
-220
-192
-178
-229
-325
-405
-442
-458
-479
-496
-491
-481
-506
-567
-602
-552
-446
-392
-476
-649
-778
-786
-735
-753
-879
-1020
-1059
-980
-874
-815
-790
-746
-679
-638
-646
-658
-624
-561
-539
-581
-616
-565
-437
-324
-296
-317
-302
-221
-135
-102
-104
-63
57
214
327
372
389
429
507
590
636
631
605
597
625
672
709
724
740
777
829
877
912
936
951
949
935
934
960
988
975
909
827
775
766
773
762
727
693
680
694
717
724
705
682
672
671
649
587
507
460
465
489
484
440
392
374
382
386
369
342
324
311
285
240
201
198
228
255
240
191
151
152
186
212
197
156
125
125
144
150
136
116
104
93
72
49
47
71
84
40
-61
-164
-216
-223
-241
-308
-393
-429
-381
-292
-234
-231
-236
-192
-102
-38
-62
-160
-244
-242
-164
-88
-92
-192
-332
-432
-442
-383
-325
-325
-363
-355
-230
-8
214
353
399
405
425
474
529
551
531
504
527
633
775
872
885
859
867
914
942
906
838
797
800
811
805
794
804
824
823
786
727
668
620
586
575
583
577
528
450
391
379
398
401
367
311
247
181
114
44
-20
-88
-176
-288
-398
-481
-546
-626
-739
-864
-961
-1009
-1026
-1026
-979
-824
-541
-192
117
340
540
820
1199
1564
1764
1753
1623
1512
1475
1445
1327
1081
752
433
196
63
6
-33
-95
-168
-207
-181
-107
-31
11
19
9
-13
-48
-80
-76
-26
34
51
9
-50
-69
-39
-3
-7
-44
-76
-74
-42
-5
20
22
-8
-61
-101
-94
-53
-32
-77
-159
-202
-172
-114
-102
-156
-221
-237
-205
-178
-199
-257
-295
-276
-228
-232
-343
-547
-778
-981
-1152
-1289
-1339
-1238
-998
-722
-522
-407
-296
-139
12
37
-129
-454
-854
-1251
-1582
-1798
-1888
-1885
-1839
-1740
-1514
-1124
-651
-251
-35
12
-25
-99
-229
-438
-688
-915
-1079
-1187
-1253
-1278
-1257
-1192
-1095
-979
-867
-805
-824
-903
-974
-983
-931
-860
-803
-764
-749
-770
-819
-858
-855
-820
-788
-760
-706
-605
-500
-440
-427
-405
-337
-244
-177
-139
-86
9
110
166
171
172
200
226
211
164
145
184
236
246
224
241
333
450
497
449
371
338
354
354
294
209
166
192
246
280
292
310
345
365
324
236
151
102
75
41
0
-8
40
114
165
193
244
339
428
444
384
322
327
382
419
404
380
411
499
582
605
577
560
592
649
675
646
598
593
657
748
797
779
734
722
750
765
721
634
558
516
474
390
277
202
211
274
317
301
257
242
268
290
257
168
70
5
-33
-80
-155
-233
-273
-265
-237
-224
-231
-230
-197
-137
-81
-45
-17
28
96
161
199
210
217
243
289
341
384
416
444
475
511
549
570
557
509
448
399
371
355
345
338
331
311
275
240
224
224
217
189
158
146
151
159
159
158
155
139
102
60
34
15
-21
-89
-171
-237
-286
-343
-421
-498
-554
-606
-700
-841
-964
-988
-902
-773
-653
-507
-246
139
526
774
876
984
1236
1583
1817
1793
1585
1410
1391
1436
1352
1067
690
383
201
92
9
-25
20
102
150
152
191
331
508
583
489
305
166
135
169
210
244
281
297
268
216
209
276
357
357
270
184
175
210
189
81
-29
-47
3
8
-77
-158
-124
0
63
-26
-185
-249
-178
-100
-143
-290
-408
-413
-345
-287
-268
-257
-236
-218
-204
-165
-89
-20
-19
-86
-151
-150
-87
-20
14
26
60
141
249
343
389
392
374
367
383
405
412
398
381
383
405
417
399
363
347
368
400
394
334
268
266
332
377
304
113
-75
-132
-52
37
-6
-180
-344
-371
-279
-205
-246
-369
-476
-516
-510
-497
-481
-445
-398
-369
-355
-326
-277
-239
-235
-239
-209
-145
-85
-46
-1
68
134
161
168
205
299
409
478
506
539
610
698
763
786
775
746
716
712
744
782
781
743
726
767
833
859
831
799
814
851
850
796
739
727
747
754
738
735
766
798
782
729
686
675
661
590
470
368
330
335
324
273
209
160
115
48
-40
-117
-165
-205
-254
-302
-310
-266
-204
-172
-172
-173
-151
-123
-124
-160
-202
-216
-192
-154
-140
-171
-231
-278
-283
-268
-284
-356
-447
-485
-441
-359
-318
-338
-367
-344
-281
-243
-279
-356
-404
-395
-367
-374
-416
-445
-428
-376
-321
-275
-221
-145
-61
5
46
80
127
182
216
215
187
166
177
217
261
291
314
349
406
472
517
519
486
447
425
421
414
381
337
321
364
446
513
532
513
498
511
544
572
583
576
551
516
499
515
548
549
482
364
243
147
62
-33
-141
-240
-315
-373
-434
-500
-562
-609
-638
-656
-666
-649
-564
-382
-110
192
447
633
808
1055
1371
1639
1714
1573
1346
1194
1141
1064
843
507
208
56
19
-8
-75
-140
-151
-120
-92
-71
-24
59
132
146
109
80
101
163
226
262
272
266
248
221
187
160
141
133
131
117
83
33
2
31
115
200
227
192
158
193
291
368
348
239
125
83
110
144
128
69
14
9
54
109
134
127
123
153
202
221
185
127
111
165
245
286
270
238
243
293
353
384
375
340
295
252
215
189
171
154
128
90
50
28
43
84
113
97
42
-5
-7
22
30
-20
-93
-123
-85
-27
-17
-56
-81
-37
47
94
67
0
-51
-78
-106
-131
-112
-40
33
42
-15
-71
-66
-11
31
15
-49
-114
-133
-88
2
93
148
167
179
204
238
266
295
342
399
439
451
477
562
688
788
812
778
751
767
802
813
790
764
760
772
774
753
724
702
684
652
596
528
472
446
444
443
423
390
367
378
422
469
481
449
398
374
396
445
482
493
499
531
598
673
731
767
797
827
853
872
893
919
949
976
1007
1050
1093
1114
1110
1110
1145
1200
1233
1225
1194
1175
1171
1160
1130
1090
1045
979
888
798
753
756
755
694
568
429
328
269
208
108
-26
-150
-226
-251
-259
-282
-319
-341
-327
-292
-268
-259
-236
-173
-81
8
78
137
202
272
339
401
453
485
497
511
558
633
693
697
668
666
715
766
759
703
663
675
715
738
734
729
727
711
671
634
622
621
604
576
581
639
701
703
645
596
614
677
696
619
485
392
391
439
444
366
255
185
167
140
55
-57
-127
-126
-76
2
160
462
876
1268
1533
1708
1916
2222
2549
2754
2747
2566
2319
2110
1966
1831
1617
1285
905
621
516
539
566
528
475
494
592
690
719
689
654
638
615
562
498
451
437
445
463
491
522
529
487
412
358
364
407
428
389
324
297
333
385
395
374
387
459
530
531
474
447
502
586
603
535
465
467
508
494
397
289
248
275
297
267
204
161
163
180
175
131
69
32
34
36
-24
-150
-255
-242
-123
-26
-71
-228
-342
-303
-158
-61
-105
-235
-325
-312
-229
-157
-142
-175
-227
-269
-279
-244
-176
-112
-89
-104
-127
-127
-94
-46
-4
27
38
23
-14
-39
-9
81
194
275
308
326
370
452
546
618
662
693
728
765
798
829
865
894
891
843
776
724
696
659
594
528
514
560
620
639
615
588
589
607
611
579
521
467
455
491
542
557
515
457
445
487
520
494
439
428
475
509
464
375
342
392
434
366
208
101
147
287
367
303
179
144
253
406
468
405
303
266
313
374
387
358
341
365
407
423
403
371
360
389
446
497
509
475
428
417
464
533
557
506
420
377
407
465
479
428
365
355
402
455
470
456
448
459
471
471
475
493
502
470
405
361
376
425
460
467
478
515
563
591
598
604
623
642
640
619
591
570
567
580
598
604
596
598
628
672
697
695
701
744
805
839
828
804
792
769
695
577
472
421
413
404
379
362
379
427
476
500
498
490
493
503
499
479
473
515
590
628
565
422
294
250
252
198
43
-152
-294
-354
-387
-456
-561
-653
-709
-738
-737
-659
-468
-203
41
223
411
706
1113
1511
1746
1767
1663
1562
1518
1477
1342
1069
714
395
197
119
97
79
61
75
136
220
289
313
274
176
50
-72
-188
-309
-415
-441
-344
-177
-54
-13
24
151
345
491
532
547
630
755
793
694
564
547
651
749
734
636
569
593
652
658
591
513
482
480
434
297
118
3
17
104
134
39
-107
-169
-112
-44
-97
-269
-428
-477
-452
-463
-556
-670
-738
-777
-854
-982
-1093
-1118
-1074
-1028
-1002
-948
-813
-615
-433
-316
-250
-189
-135
-142
-243
-404
-556
-667
-765
-876
-981
-1043
-1057
-1053
-1056
-1052
-1025
-985
-955
-922
-843
-708
-574
-504
-479
-417
-275
-114
-38
-75
-143
-144
-63
31
72
69
84
149
245
325
366
384
397
404
393
375
371
397
434
445
421
391
391
417
424
385
320
281
290
325
340
316
268
231
230
264
310
325
284
209
153
148
172
168
111
27
-30
-35
-9
19
46
92
168
256
321
333
297
247
221
227
239
227
199
195
239
306
347
341
307
279
268
263
255
246
247
264
302
357
412
441
427
380
328
290
258
217
165
113
80
83
118
167
192
179
144
125
135
147
120
62
17
22
62
89
82
74
97
144
176
173
156
151
153
135
92
58
76
153
258
349
415
466
520
578
630
657
646
606
562
540
555
596
639
658
650
637
644
670
679
640
576
550
601
689
733
708
676
708
794
854
832
753
684
657
651
646
648
662
675
677
689
742
823
873
844
748
645
565
495
409
306
204
119
48
-21
-103
-203
-306
-381
-407
-395
-366
-295
-113
216
617
946
1133
1258
1463
1771
2043
2116
1968
1743
1593
1533
1461
1287
1021
739
491
284
113
4
-27
-15
-14
-34
-37
22
125
203
206
143
60
-3
-39
-57
-58
-41
-25
-32
-56
-65
-31
19
14
-84
-224
-321
-371
-474
-715
-1026
-1215
-1144
-884
-630
-482
-360
-122
241
595
799
832
778
709
649
597
560
541
531
520
527
577
647
671
605
470
337
258
221
177
113
74
113
214
300
301
226
149
131
160
184
164
113
68
53
69
104
142
155
119
45
-21
-35
-10
2
-32
-85
-104
-80
-57
-71
-107
-121
-98
-65
-53
-59
-55
-24
27
84
143
205
264
314
352
389
438
506
580
628
626
582
549
575
655
731
753
742
755
819
903
957
973
975
983
990
985
990
1029
1095
1149
1166
1170
1207
1279
1336
1326
1255
1181
1155
1163
1151
1087
993
914
867
833
789
735
688
658
634
601
560
524
502
489
472
449
428
414
401
382
364
358
365
363
338
294
253
222
194
159
129
120
132
147
157
173
211
262
296
298
285
283
296
308
299
270
235
205
179
148
107
60
11
-39
-91
-139
-171
-182
-177
-167
-150
-122
-90
-79
-105
-153
-185
-188
-191
-233
-312
-378
-384
-328
-254
-195
-146
-88
-17
43
80
109
142
170
175
165
179
244
346
452
543
611
650
657
648
646
649
631
576
519
505
544
600
643
677
708
707
636
507
391
340
337
321
281
271
347
495
631
684
651
578
510
445
348
193
-1
-176
-291
-349
-398
-471
-560
-644
-710
-772
-837
-902
-955
-991
-983
-874
-635
-319
-40
129
246
445
783
1151
1363
1333
1159
1006
925
827
603
268
-65
-314
-498
-665
-795
-825
-762
-704
-735
-813
-819
-703
-560
-525
-620
-737
-765
-709
-647
-624
-618
-586
-534
-497
-479
-449
-385
-307
-261
-273
-326
-391
-447
-485
-493
-461
-396
-324
-270
-227
-156
-45
64
108
63
-30
-109
-152
-176
-198
-212
-211
-210
-220
-229
-215
-172
-132
-133
-181
-250
-308
-327
-300
-242
-183
-160
-184
-225
-243
-220
-188
-192
-247
-323
-370
-363
-324
-298
-306
-323
-308
-259
-217
-219
-256
-294
-319
-357
-419
-474
-475
-429
-395
-420
-479
-512
-504
-493
-517
-558
-571
-541
-493
-452
-425
-414
-430
-455
-439
-349
-230
-177
-227
-306
-302
-194
-84
-83
-186
-279
-268
-176
-102
-107
-151
-148
-60
62
136
132
100
102
138
147
79
-40
-134
-147
-98
-39
3
38
88
160
239
312
377
440
494
526
522
492
465
475
521
566
571
543
526
548
592
619
623
635
684
752
809
849
900
976
1051
1091
1099
1108
1131
1156
1177
1206
1244
1256
1226
1214
1297
1468
1604
1608
1526
1490
1547
1595
1512
1314
1126
1035
1001
932
801
671
615
648
735
822
853
796
673
546
472
456
446
384
259
122
54
104
223
297
267
196
202
304
387
343
210
134
183
278
313
295
311
394
485
533
559
611
671
685
652
633
664
703
688
620
554
527
528
534
544
561
571
557
535
526
528
508
463
443
476
516
496
403
308
286
329
361
324
239
170
144
135
106
45
-35
-114
-190
-273
-376
-499
-628
-738
-806
-825
-798
-709
-515
-204
163
468
632
722
889
1210
1568
1744
1642
1390
1186
1119
1087
935
622
238
-85
-277
-364
-400
-419
-423
-399
-332
-218
-72
73
171
194
153
92
58
66
93
110
105
103
131
187
236
240
214
217
293
415
500
482
394
337
375
456
463
352
209
162
247
365
398
341
284
296
345
355
285
167
51
-38
-94
-114
-101
-70
-48
-40
-22
18
52
51
24
10
14
5
-36
-73
-59
-9
10
-31
-89
-109
-107
-145
-240
-339
-383
-383
-400
-451
-488
-466
-407
-371
-390
-433
-456
-459
-481
-536
-590
-600
-566
-537
-558
-612
-628
-560
-436
-344
-349
-420
-463
-412
-303
-228
-232
-268
-248
-142
5
127
206
275
374
506
635
725
770
790
806
821
827
816
801
807
843
895
942
972
989
1004
1027
1051
1065
1066
1057
1052
1056
1060
1056
1054
1072
1110
1146
1157
1150
1149
1158
1163
1153
1141
1147
1164
1168
1156
1156
1202
1282
1344
1348
1305
1268
1278
1326
1368
1372
1354
1361
1415
1491
1534
1520
1484
1480
1508
1518
1472
1388
1318
1284
1261
1227
1184
1138
1068
955
829
752
749
770
741
654
566
525
517
491
432
368
323
288
248
211
210
250
301
321
307
292
304
340
375
399
431
494
588
677
724
724
715
731
761
757
697
628
621
687
760
770
736
741
823
907
884
751
634
646
753
813
751
655
660
793
942
992
948
901
909
937
928
879
840
851
895
926
925
921
952
1015
1060
1039
958
870
819
797
762
701
648
629
610
527
366
196
91
50
11
-43
-33
140
481
889
1257
1553
1821
2111
2427
2717
2899
2901
2724
2454
2203
2016
1841
1597
1271
945
705
587
572
610
646
649
624
609
629
653
618
512
396
342
353
379
407
475
588
674
651
538
446
438
457
402
273
182
217
324
372
304
195
152
184
212
179
109
57
37
23
1
-5
23
72
99
80
33
-4
-3
13
-6
-94
-225
-327
-359
-357
-398
-501
-610
-664
-670
-697
-790
-932
-1077
-1198
-1305
-1422
-1561
-1716
-1857
-1938
-1935
-1885
-1863
-1908
-1967
-1949
-1828
-1687
-1633
-1698
-1822
-1940
-2055
-2232
-2525
-2918
-3337
-3710
-4001
-4205
-4310
-4311
-4229
-4101
-3936
-3700
-3385
-3087
-2963
-3087
-3340
-3499
-3447
-3274
-3135
-3037
-2818
-2331
-1617
-874
-275
159
500
781
955
971
861
729
661
657
657
617
552
516
542
608
654
645
595
540
486
417
325
238
174
109
4
-147
-286
-342
-308
-247
-221
-232
-237
-209
-178
-178
-215
-266
-304
-327
-345
-367
-384
-371
-306
-200
-103
-52
-28
26
110
119
-70
-451
-876
-1197
-1394
-1536
-1647
-1692
-1677
-1685
-1763
-1816
-1703
-1429
-1181
-1110
-1142
-1043
-699
-230
172
447
658
827
896
843
758
732
703
513
120
-287
-476
-419
-307
-319
-443
-567
-673
-845
-1072
-1174
-986
-591
-265
-158
-110
161
716
1309
1664
1749
1735
1742
1700
1492
1150
851
737
790
903
1030
1238
1592
2023
2363
2486
2412
2251
2087
1929
1765
1615
1497
1351
1076
655
229
-28
-92
-131
-317
-647
-949
-1061
-965
-761
-552
-382
-234
-73
130
367
582
704
709
647
589
547
473
330
141
-29
-129
-150
-102
23
247
568
934
1280
1553
1768
1993
2271
2560
2774
2853
2813
2709
2569
2392
2187
1970
1714
1365
930
522
270
187
137
-6
-206
-296
-154
181
552
842
1037
1176
1280
1335
1313
1199
1010
800
623
498
424
415
517
757
1059
1272
1311
1257
1262
1356
1415
1312
1090
922
897
925
868
723
612
614
664
650
578
558
638
733
728
624
515
460
422
343
217
69
-78
-206
-276
-264
-189
-96
3
125
237
262
175
64
35
69
40
-104
-227
-132
207
613
904
1065
1195
1354
1468
1429
1230
979
788
685
617
547
514
597
807
1032
1120
1024
854
761
780
812
778
725
762
933
1153
1310
1375
1395
1418
1443
1446
1418
1368
1321
1306
1332
1372
1381
1332
1257
1207
1183
1133
1030
915
839
800
750
686
661
706
765
744
639
550
557
618
612
486
326
248
274
316
285
192
119
123
194
290
395
537
740
985
1228
1423
1544
1585
1557
1491
1434
1409
1384
1317
1223
1180
1244
1365
1404
1277
1062
905
852
825
755
689
719
819
847
723
549
478
512
502
380
294
443
825
1228
1474
1602
1759
1969
2090
2000
1751
1500
1341
1241
1146
1063
1140
1038
1035
980
892
823
790
770
734
680
651
699
823
947
979
902
804
787
870
970
1005
977
965
1017
1096
1120
1061
965
901
888
900
909
917
945
995
1051
1094
1120
1133
1137
1131
1125
1130
1144
1156
1154
1152
1185
1260
1333
1345
1281
1191
1145
1153
1153
1080
940
806
728
685
618
509
390
303
242
168
62
-57
-162
-257
-368
-498
-604
-608
-440
-93
348
750
1041
1278
1603
2085
2602
2923
2919
2700
2507
2479
2530
2471
2219
1879
1616
1495
1448
1395
1337
1310
1309
1284
1210
1139
1140
1208
1262
1243
1170
1111
1105
1131
1151
1143
1093
998
867
729
613
519
431
362
344
387
447
469
448
426
418
394
304
157
26
-23
15
88
153
212
283
366
432
462
452
400
299
163
42
-3
41
119
157
143
137
196
304
370
322
182
40
-26
-16
10
4
-30
-47
-11
63
136
172
164
145
153
197
243
247
203
147
117
115
110
83
42
1
-24
-22
9
58
95
97
85
100
154
208
234
243
262
288
295
289
313
380
429
391
284
206
227
308
353
324
280
299
391
495
548
540
507
490
499
516
522
513
493
475
457
445
437
423
381
311
241
188
144
90
42
42
93
136
115
58
54
127
194
163
59
-3
50
156
197
143
74
73
129
166
135
70
43
76
127
133
83
26
26
96
177
196
129
20
-51
-39
26
70
44
-35
-108
-135
-131
-137
-158
-162
-143
-142
-194
-262
-259
-164
-57
-32
-81
-110
-73
-36
-86
-207
-298
-300
-271
-282
-307
-245
-53
180
323
342
322
354
429
471
444
397
407
482
569
632
703
819
939
966
872
759
763
901
1054
1112
1110
1186
1414
1708
1918
1979
1954
1930
1927
1900
1824
1722
1628
1543
1447
1344
1256
1185
1093
954
794
668
573
437
206
-61
-243
-303
-346
-495
-720
-856
-798
-635
-548
-596
-671
-654
-569
-536
-585
-604
-476
-225
13
171
340
659
1143
1622
1903
1939
1849
1775
1742
1654
1422
1060
664
324
76
-79
-139
-112
-41
26
81
160
290
438
546
583
570
537
487
408
322
278
290
327
339
323
310
316
329
335
344
363
380
373
344
322
338
380
409
411
392
373
362
359
359
345
293
208
151
178
272
338
298
193
142
211
340
398
351
281
283
354
415
411
372
351
356
358
336
301
273
267
288
327
350
318
229
152
162
238
264
165
2
-75
0
110
90
-69
-198
-153
13
126
112
81
153
271
283
162
50
49
63
-77
-357
-554
-511
-335
-258
-358
-484
-473
-347
-256
-275
-342
-381
-395
-426
-471
-485
-459
-414
-349
-237
-81
65
160
245
373
517
579
505
360
254
220
206
179
182
263
388
473
492
512
585
657
633
509
392
375
436
482
466
435
448
490
502
452
372
312
284
274
268
259
251
249
256
262
251
219
181
165
178
191
173
130
97
89
80
33
-51
-130
-164
-157
-149
-156
-160
-146
-127
-129
-165
-219
-272
-317
-352
-369
-360
-336
-309
-273
-208
-111
-13
59
119
202
310
409
470
519
601
718
827
897
950
1015
1077
1101
1103
1147
1263
1391
1445
1413
1382
1423
1501
1524
1468
1398
1382
1404
1401
1352
1311
1331
1401
1466
1490
1480
1457
1429
1406
1402
1416
1407
1327
1181
1034
944
895
815
664
477
324
221
124
-2
-131
-212
-240
-271
-349
-447
-518
-552
-584
-637
-692
-733
-767
-799
-772
-606
-296
45
283
402
529
790
1166
1486
1580
1432
1181
988
896
820
649
364
49
-194
-318
-339
-298
-225
-149
-96
-71
-39
40
165
273
300
238
137
61
28
23
22
18
12
0
-25
-54
-61
-27
43
123
186
229
253
254
232
208
214
245
255
210
144
132
218
354
453
473
457
477
557
662
734
747
716
678
656
657
664
656
626
583
543
512
484
461
449
440
423
395
367
355
360
365
360
349
345
343
331
305
271
224
146
32
-90
-176
-216
-246
-301
-363
-384
-348
-302
-302
-349
-387
-379
-355
-367
-420
-454
-416
-322
-231
-169
-108
-12
108
205
254
273
288
300
300
301
324
362
381
376
392
469
580
654
666
672
737
855
959
1000
997
999
1023
1044
1048
1047
1047
1036
1009
989
1001
1034
1040
997
940
916
917
881
762
605
506
513
566
569
511
476
542
670
743
700
608
572
599
600
519
413
382
431
461
402
303
266
305
335
270
132
33
43
115
144
73
-65
-193
-272
-331
-434
-605
-810
-987
-1110
-1200
-1287
-1384
-1512
-1706
-1987
-2333
-2704
-3089
-3495
-3904
-4248
-4469
-4601
-4723
-4853
-4906
-4799
-4558
-4294
-4078
-3880
-3629
-3317
-2998
-2717
-2485
-2305
-2197
-2179
-2242
-2341
-2430
-2483
-2493
-2468
-2428
-2377
-2297
-2151
-1939
-1723
-1591
-1569
-1602
-1597
-1511
-1380
-1273
-1218
-1181
-1113
-1017
-955
-973
-1052
-1112
-1102
-1032
-955
-902
-848
-756
-619
-474
-378
-366
-424
-515
-610
-709
-824
-953
-1070
-1162
-1244
-1331
-1392
-1348
-1146
-838
-561
-410
-339
-194
107
456
644
566
321
79
-108
-317
-608
-907
-1107
-1224
-1368
-1569
-1694
-1597
-1328
-1099
-1064
-1157
-1190
-1071
-892
-793
-823
-923
-1018
-1082
-1113
-1098
-1031
-944
-897
-913
-962
-989
-968
-915
-867
-842
-831
-813
-776
-726
-673
-625
-592
-586
-607
-638
-664
-679
-694
-716
-734
-722
-675
-629
-622
-655
-692
-705
-709
-744
-824
-924
-1008
-1055
-1065
-1045
-1017
-1008
-1036
-1069
-1052
-972
-891
-874
-917
-946
-911
-847
-810
-800
-777
-744
-758
-850
-956
-988
-941
-910
-970
-1079
-1123
-1055
-940
-869
-867
-890
-889
-856
-804
-747
-708
-701
-718
-703
-611
-476
-402
-451
-560
-595
-501
-367
-329
-414
-496
-448
-286
-144
-115
-159
-172
-131
-110
-155
-207
-177
-71
3
-23
-89
-85
12
114
130
68
7
-7
9
21
35
73
123
146
134
127
160
217
237
184
96
38
29
27
-10
-73
-111
-108
-101
-121
-143
-117
-40
20
1
-79
-145
-156
-151
-197
-299
-393
-407
-346
-283
-285
-343
-381
-335
-224
-138
-144
-225
-298
-315
-305
-321
-366
-388
-361
-330
-353
-418
-452
-413
-351
-352
-443
-558
-621
-616
-596
-605
-645
-682
-685
-641
-558
-462
-393
-373
-389
-411
-425
-452
-505
-572
-617
-629
-624
-613
-589
-539
-468
-403
-360
-339
-334
-352
-401
-471
-538
-581
-597
-597
-597
-599
-587
-530
-420
-301
-241
-256
-279
-226
-99
9
21
-30
-35
56
177
211
138
39
0
2
-50
-211
-427
-574
-586
-536
-558
-712
-910
-1006
-944
-818
-748
-680
-440
-76
254
447
556
720
991
1277
1435
1412
1274
1127
1021
925
778
553
285
35
-171
-354
-538
-678
-704
-611
-498
-482
-553
-567
-422
-197
-80
-159
-329
-414
-352
-240
-189
-193
-166
-55
108
269
411
559
724
890
1033
1143
1219
1262
1286
1316
1369
1430
1475
1496
1502
1503
1485
1429
1345
1265
1219
1199
1180
1154
1144
1179
1256
1333
1366
1347
1305
1267
1234
1187
1111
1000
859
699
539
396
264
118
-53
-222
-345
-411
-451
-506
-585
-667
-739
-805
-873
-934
-980
-1029
-1096
-1173
-1220
-1211
-1162
-1106
-1062
-1025
-981
-919
-844
-764
-690
-634
-597
-579
-583
-615
-666
-709
-726
-735
-764
-812
-843
-832
-810
-824
-873
-910
-896
-850
-820
-818
-809
-763
-693
-636
-613
-603
-573
-512
-441
-385
-358
-349
-338
-315
-293
-287
-298
-309
-307
-301
-299
-297
-284
-264
-261
-279
-290
-256
-183
-119
-105
-125
-124
-78
-23
-6
-33
-70
-94
-118
-160
-197
-183
-98
13
95
139
179
240
305
347
366
376
377
353
303
264
271
314
344
329
273
211
172
161
168
172
144
78
12
0
56
121
125
68
15
14
31
-6
-103
-180
-163
-82
-36
-66
-99
-23
163
331
347
211
60
27
112
210
222
138
30
-16
46
206
395
520
540
518
568
734
934
1027
962
812
688
632
604
565
530
533
581
652
736
830
924
983
974
910
827
750
679
603
527
471
445
455
493
528
519
450
345
257
226
228
200
99
-48
-174
-235
-249
-263
-287
-255
-83
229
573
816
937
1055
1306
1678
2009
2135
2050
1902
1835
1859
1858
1721
1438
1100
821
646
549
476
403
365
397
488
567
585
569
579
620
632
555
415
315
321
400
466
471
432
379
305
186
33
-104
-194
-252
-308
-367
-404
-423
-460
-536
-622
-680
-728
-829
-1001
-1167
-1229
-1182
-1117
-1116
-1173
-1221
-1229
-1227
-1255
-1309
-1359
-1385
-1394
-1398
-1394
-1377
-1349
-1310
-1275
-1264
-1276
-1287
-1265
-1218
-1187
-1190
-1182
-1123
-1042
-1011
-1055
-1107
-1085
-999
-942
-968
-1019
-992
-855
-694
-622
-653
-691
-627
-452
-285
-245
-329
-399
-331
-150
-7
0
-51
-2
188
393
464
416
396
493
632
673
594
522
585
766
929
982
967
989
1095
1229
1302
1290
1242
1212
1210
1211
1204
1197
1193
1181
1157
1135
1123
1098
1020
889
762
701
704
709
666
589
530
514
516
494
441
379
324
272
201
98
-18
-111
-141
-103
-52
-53
-124
-214
-257
-251
-256
-326
-443
-549
-601
-609
-599
-578
-542
-506
-483
-469
-441
-397
-361
-351
-355
-349
-337
-351
-385
-391
-333
-242
-193
-215
-254
-234
-147
-60
-31
-47
-52
-23
27
78
131
193
255
299
321
346
393
464
531
564
568
585
652
761
861
921
969
1043
1121
1140
1104
1114
1249
1443
1523
1414
1226
1129
1171
1262
1289
1225
1130
1080
1120
1237
1364
1430
1428
1415
1422
1395
1285
1178
1226
1424
1544
1381
1028
815
922
1145
1134
800
415
269
368
484
444
289
172
164
215
244
245
294
471
795
1180
1487
1648
1748
1906
2126
2267
2185
1892
1544
1284
1126
973
742
451
191
36
-15
-14
-10
-7
14
54
81
90
127
207
260
178
-57
-303
-386
-272
-96
-1
-6
-36
-22
42
126
178
150
27
-134
-213
-147
0
115
152
173
238
317
345
326
322
368
427
442
414
396
432
517
618
705
755
768
763
775
815
866
918
986
1070
1132
1133
1103
1130
1256
1395
1411
1283
1145
1146
1286
1413
1402
1277
1178
1216
1376
1550
1641
1634
1587
1571
1602
1643
1641
1592
1534
1513
1545
1611
1690
1761
1804
1812
1815
1848
1914
1966
1960
1904
1854
1844
1861
1875
1867
1836
1779
1698
1614
1559
1548
1564
1551
1466
1319
1175
1100
1094
1078
983
838
757
802
904
938
875
810
832
894
881
764
640
614
673
723
714
690
703
740
748
715
677
661
658
635
595
584
626
695
751
775
789
818
855
862
826
780
769
805
856
900
942
1005
1087
1153
1173
1153
1109
1052
990
938
914
916
916
901
898
950
1055
1161
1209
1186
1134
1100
1095
1090
1048
954
847
786
811
899
977
987
944
927
1002
1141
1240
1227
1137
1076
1102
1150
1108
957
806
783
895
1023
1054
1001
979
1067
1217
1308
1268
1149
1072
1113
1243
1354
1366
1295
1236
1262
1357
1433
1417
1319
1211
1157
1164
1192
1197
1169
1129
1106
1120
1175
1251
1312
1322
1277
1211
1168
1172
1197
1185
1090
928
777
713
742
796
801
752
708
711
734
727
710
778
982
1255
1466
1575
1690
1961
2398
2841
3090
3080
2900
2690
2509
2334
2121
1842
1499
1118
763
534
482
550
601
534
368
200
97
44
-19
-127
-284
-487
-718
-915
-1006
-998
-1006
-1158
-1474
-1851
-2182
-2462
-2759
-3108
-3466
-3775
-4026
-4259
-4493
-4701
-4840
-4920
-5030
-5314
-5874
-6657
-7463
-8042
-8266
-8178
-7874
-7386
-6664
-5678
-4513
-3342
-2355
-1698
-1427
-1482
-1706
-1942
-2142
-2372
-2700
-3087
-3419
-3612
-3672
-3642
-3552
-3439
-3380
-3425
-3487
-3356
-2891
-2207
-1602
-1283
-1179
-1045
-750
-407
-227
-269
-375
-362
-210
-44
23
-5
-65
-131
-224
-336
-397
-343
-193
-33
70
109
114
97
57
4
-44
-90
-155
-248
-344
-417
-476
-555
-648
-697
-636
-465
-246
-29
205
498
857
1223
1524
1724
1818
1817
1751
1676
1638
1629
1596
1509
1411
1363
1373
1379
1331
1236
1118
979
818
685
657
760
935
1106
1253
1386
1485
1510
1474
1429
1367
1169
748
236
-61
60
487
928
1230
1521
1994
2635
3210
3508
3521
3388
3204
2971
2684
2408
2236
2191
2214
2246
2272
2307
2344
2349
2304
2222
2137
2057
1956
1807
1631
1502
1477
1538
1599
1600
1563
1566
1653
1795
1935
2042
2115
2157
2160
2130
2102
2115
2176
2257
2330
2393
2448
2499
2545
2581
2596
2574
2516
2445
2399
2395
2416
2427
2408
2374
2350
2343
2324
2259
2155
2068
2043
2068
2076
2026
1958
1939
1980
2014
1979
1888
1810
1780
1771
1739
1682
1636
1620
1619
1599
1542
1459
1374
1302
1224
1114
955
777
638
560
494
374
197
43
-19
-15
-36
-116
-150
-2
349
771
1099
1297
1460
1697
2007
2290
2441
2433
2320
2178
2063
1988
1922
1813
1631
1409
1219
1108
1077
1091
1116
1144
1180
1234
1301
1371
1432
1472
1484
1464
1409
1336
1288
1299
1349
1380
1371
1358
1377
1380
1281
1075
872
774
747
664
488
332
314
396
427
337
217
188
232
223
100
-46
-97
-54
-27
-84
-165
-165
-66
45
79
56
79
189
320
371
338
315
394
553
684
714
684
692
782
919
1044
1123
1156
1160
1147
1129
1105
1060
981
886
807
762
740
720
702
682
629
513
346
184
76
2
-103
-272
-461
-596
-648
-664
-713
-826
-972
-1092
-1158
-1190
-1242
-1337
-1443
-1507
-1501
-1458
-1436
-1456
-1468
-1407
-1260
-1091
-974
-919
-865
-748
-560
-364
-230
-176
-148
-75
71
253
422
575
746
946
1131
1246
1306
1379
1499
1598
1577
1427
1253
1176
1206
1248
1226
1153
1104
1127
1209
1303
1380
1435
1473
1500
1516
1519
1518
1524
1538
1544
1526
1493
1476
1501
1544
1556
1509
1416
1311
1202
1079
926
741
532
324
154
55
23
11
-29
-97
-150
-147
-97
-47
-29
-25
-3
54
127
190
233
263
276
256
196
130
103
130
173
183
169
197
310
461
542
496
388
349
444
605
706
697
651
678
808
956
1011
947
830
744
714
706
681
635
582
538
505
489
498
522
533
512
478
471
505
549
566
555
549
566
581
555
480
394
338
317
306
286
260
236
214
183
127
44
-56
-161
-276
-420
-589
-743
-823
-818
-785
-761
-697
-490
-118
304
624
816
1005
1309
1690
1987
2081
2014
1918
1868
1822
1694
1457
1166
879
596
284
-29
-252
-325
-305
-322
-422
-489
-366
-60
229
308
191
59
40
91
75
-56
-213
-287
-267
-232
-255
-329
-382
-347
-250
-204
-322
-594
-880
-1039
-1064
-1067
-1137
-1223
-1202
-1002
-678
-346
-85
82
156
147
80
-8
-96
-188
-281
-340
-315
-185
12
204
341
410
427
407
350
251
127
13
-67
-100
-85
-26
46
79
50
-14
-57
-52
-49
-106
-211
-285
-277
-235
-243
-319
-404
-446
-463
-498
-552
-575
-537
-467
-419
-406
-395
-366
-342
-352
-380
-391
-388
-416
-506
-622
-695
-694
-645
-579
-485
-344
-179
-64
-45
-88
-127
-147
-178
-228
-259
-229
-133
15
204
414
595
688
689
656
646
626
503
231
-122
-427
-599
-637
-589
-487
-324
-85
224
558
857
1074
1194
1226
1179
1068
922
775
627
452
269
165
215
389
543
566
491
443
476
509
441
289
175
161
181
130
-6
-136
-191
-196
-224
-290
-343
-356
-359
-389
-428
-439
-442
-508
-667
-840
-917
-875
-803
-798
-868
-953
-997
-991
-963
-947
-964
-1008
-1037
-1010
-929
-820
-697
-540
-340
-147
-20
44
116
248
401
491
503
509
580
708
838
956
1083
1224
1323
1330
1279
1270
1352
1467
1513
1465
1414
1468
1617
1745
1761
1708
1699
1764
1813
1769
1680
1675
1790
1896
1841
1632
1438
1386
1414
1361
1148
856
625
498
410
290
137
-6
-128
-255
-401
-536
-623
-653
-647
-609
-503
-298
-13
278
508
660
783
962
1230
1501
1611
1456
1106
763
585
536
410
38
-551
-1149
-1525
-1563
-1298
-871
-437
-75
263
686
1229
1777
2136
2177
1921
1510
1110
857
801
872
926
872
787
816
1014
1236
1281
1107
860
700
647
605
519
435
430
526
675
791
805
688
490
329
303
382
432
359
226
170
238
323
303
200
131
161
221
219
164
142
188
239
240
231
284
373
394
303
191
165
206
197
91
-21
-37
16
29
-44
-122
-106
-8
63
35
-51
-109
-100
-56
-42
-82
-147
-187
-159
-80
-10
9
-4
8
59
96
74
16
-9
31
88
105
87
84
122
165
172
147
137
171
222
236
196
139
133
210
328
414
428
406
422
511
621
669
636
587
593
647
667
604
507
467
516
595
632
622
608
612
621
624
636
655
637
549
433
368
379
404
364
264
180
163
185
194
187
201
243
269
242
169
92
37
2
-9
-1
4
-26
-88
-119
-44
134
298
308
139
-72
-153
-73
37
32
-99
-231
-245
-146
-39
-3
-14
-10
23
37
-4
-55
-34
83
227
300
291
299
414
621
813
914
963
1026
1097
1108
1032
942
916
945
945
863
749
690
715
770
796
780
742
689
612
516
437
410
426
439
401
312
232
222
274
315
283
192
125
134
184
192
126
10
-101
-184
-252
-327
-416
-502
-563
-588
-582
-570
-574
-590
-584
-530
-425
-274
-82
146
381
581
732
868
1032
1221
1370
1398
1284
1099
939
841
743
553
259
-52
-276
-389
-450
-512
-539
-454
-248
-16
138
214
295
428
557
599
537
453
447
529
632
686
690
696
742
809
852
832
759
685
665
715
786
806
745
648
597
619
662
643
536
403
328
330
363
375
361
357
398
467
522
540
524
488
432
361
310
308
329
303
198
104
158
378
602
628
427
183
92
162
238
198
80
13
62
172
232
184
52
-95
-208
-286
-364
-457
-523
-504
-391
-248
-150
-101
-44
44
114
105
30
-38
-52
-35
-43
-88
-125
-118
-83
-59
-66
-93
-117
-126
-118
-94
-61
-34
-25
-31
-54
-93
-128
-120
-42
82
197
266
305
347
378
352
260
163
131
155
146
59
-44
-57
25
95
61
-35
-67
6
92
90
26
24
130
262
307
260
212
215
239
225
173
133
121
109
88
93
155
230
239
176
119
123
159
151
79
-3
-52
-82
-144
-265
-439
-626
-777
-872
-973
-1239
-1794
-2555
-3216
-3481
-3329
-3009
-2766
-2591
-2273
-1692
-982
-432
-239
-373
-684
-1082
-1572
-2159
-2766
-3277
-3660
-3973
-4264
-4502
-4603
-4562
-4492
-4517
-4656
-4835
-5005
-5172
-5329
-5385
-5252
-4960
-4640
-4393
-4186
-3909
-3506
-3026
-2578
-2272
-2179
-2295
-2511
-2650
-2579
-2310
-1962
-1626
-1280
-847
-326
173
510
626
569
414
185
-138
-558
-1009
-1379
-1583
-1637
-1613
-1553
-1425
-1175
-809
-416
-100
108
264
449
699
975
1178
1218
1101
942
882
942
996
912
711
560
590
746
854
807
651
502
413
356
285
188
66
-68
-188
-250
-214
-78
122
340
533
653
673
616
549
526
551
581
571
500
383
264
189
187
249
347
452
540
578
526
380
190
35
-41
-44
11
132
346
648
994
1314
1546
1644
1578
1355
1049
769
584
486
427
392
425
572
799
1004
1099
1080
1002
904
779
622
477
410
434
502
559
596
616
578
407
97
-237
-439
-444
-328
-207
-113
31
299
668
1022
1245
1297
1207
1039
849
687
583
539
527
515
511
542
627
740
825
847
811
755
710
694
713
768
856
962
1060
1132
1166
1164
1148
1157
1218
1313
1389
1416
1421
1456
1527
1586
1589
1564
1578
1651
1721
1724
1675
1648
1678
1718
1701
1630
1574
1580
1622
1644
1628
1610
1607
1593
1534
1439
1357
1311
1272
1199
1096
1011
980
985
977
930
868
830
823
823
800
756
717
700
696
686
668
656
657
656
631
591
575
612
687
745
748
705
664
653
656
630
557
459
381
344
344
360
382
409
439
468
501
542
585
617
629
639
677
752
842
919
974
1013
1041
1051
1047
1050
1080
1126
1154
1141
1106
1083
1092
1112
1112
1081
1037
1015
1033
1076
1114
1126
1131
1157
1210
1270
1323
1375
1440
1509
1561
1592
1624
1664
1672
1607
1489
1390
1358
1367
1354
1273
1136
977
826
697
585
459
296
133
78
226
552
915
1181
1346
1513
1748
1991
2100
1994
1724
1415
1159
961
777
567
327
91
-90
-170
-134
-33
48
59
46
103
273
479
584
530
397
312
315
330
272
168
132
225
365
409
308
163
104
149
191
141
40
8
93
230
325
369
425
527
635
703
753
854
1019
1180
1256
1246
1229
1266
1346
1410
1416
1376
1327
1296
1291
1310
1348
1378
1381
1356
1325
1308
1306
1301
1284
1258
1227
1181
1106
1001
877
741
581
385
164
-41
-187
-269
-325
-391
-459
-478
-420
-327
-278
-303
-356
-368
-334
-310
-346
-435
-532
-610
-667
-703
-702
-660
-608
-590
-607
-616
-580
-509
-446
-421
-426
-429
-399
-333
-256
-202
-186
-185
-165
-123
-84
-67
-52
-10
44
64
36
10
50
152
235
239
190
174
238
356
458
497
479
454
468
528
592
598
537
466
460
530
616
652
641
636
665
701
696
642
563
482
412
368
356
363
352
312
284
320
419
522
560
513
424
351
322
333
351
342
294
246
259
353
476
542
520
454
400
353
264
116
-50
-174
-243
-294
-348
-383
-374
-343
-343
-395
-467
-521
-556
-602
-647
-637
-544
-422
-353
-360
-374
-321
-207
-112
-95
-131
-154
-124
-52
26
86
121
138
156
191
230
244
221
185
180
223
288
336
354
355
360
380
408
420
398
358
343
369
407
394
303
176
74
9
-54
-137
-220
-267
-266
-247
-246
-268
-288
-288
-275
-288
-353
-443
-472
-351
-68
281
563
733
879
1134
1522
1897
2060
1950
1713
1551
1524
1499
1318
975
615
376
257
176
91
26
15
42
75
110
166
223
226
142
12
-91
-132
-136
-149
-181
-206
-191
-128
-37
37
57
30
8
31
87
116
82
28
18
45
30
-74
-184
-167
-16
99
16
-212
-346
-244
-38
8
-205
-495
-619
-539
-432
-457
-592
-698
-695
-623
-561
-539
-537
-550
-593
-673
-771
-854
-906
-943
-996
-1072
-1144
-1166
-1116
-1031
-974
-967
-975
-949
-907
-907
-982
-1084
-1123
-1059
-946
-865
-855
-875
-861
-782
-665
-562
-500
-461
-410
-333
-249
-181
-127
-72
-7
46
67
70
97
162
237
280
283
286
324
393
463
524
594
686
792
891
976
1056
1131
1196
1245
1286
1331
1374
1413
1460
1531
1618
1700
1767
1831
1889
1907
1851
1740
1636
1575
1529
1449
1331
1223
1163
1127
1068
970
852
732
607
471
340
232
149
79
22
-12
-29
-51
-99
-169
-249
-341
-444
-541
-596
-601
-585
-576
-563
-514
-425
-337
-285
-262
-237
-208
-199
-225
-263
-288
-309
-354
-432
-508
-537
-512
-478
-475
-496
-496
-438
-317
-176
-64
-10
2
17
80
187
277
302
273
263
332
455
547
557
524
523
579
644
664
646
637
661
698
713
701
686
690
715
747
764
748
699
642
617
640
682
702
703
721
784
868
923
940
951
982
1010
991
924
861
841
837
794
702
602
523
460
392
327
279
244
225
270
453
773
1125
1389
1557
1739
2019
2353
2604
2686
2623
2496
2359
2221
2070
1891
1661
1374
1065
809
664
623
624
608
568
541
561
628
703
743
726
674
620
585
568
563
564
563
563
566
556
505
395
267
189
198
250
260
195
110
78
109
146
141
107
79
67
49
17
-7
0
21
18
-38
-125
-191
-190
-144
-139
-228
-352
-375
-232
-40
7
-136
-295
-273
-99
-7
-156
-431
-582
-515
-384
-381
-515
-627
-605
-498
-434
-453
-487
-476
-444
-452
-511
-567
-566
-523
-494
-522
-577
-583
-499
-364
-266
-255
-287
-278
-195
-97
-56
-78
-102
-84
-57
-68
-108
-113
-50
37
84
92
131
249
416
568
683
800
951
1107
1212
1247
1254
1287
1356
1424
1453
1439
1397
1349
1310
1285
1274
1258
1205
1099
967
865
824
819
791
706
588
486
424
390
352
297
251
233
243
259
268
286
337
415
479
499
501
546
665
808
885
858
772
695
639
551
393
191
6
-126
-224
-316
-403
-471
-525
-591
-687
-795
-886
-958
-1035
-1125
-1205
-1246
-1244
-1218
-1186
-1149
-1107
-1071
-1049
-1033
-1000
-938
-848
-740
-622
-495
-352
-171
59
301
496
615
701
820
984
1130
1200
1207
1214
1252
1295
1308
1294
1278
1260
1216
1142
1069
1026
1003
967
911
855
815
783
748
719
707
697
662
609
578
588
598
555
469
412
426
466
448
352
251
213
226
217
140
22
-76
-125
-147
-181
-249
-346
-456
-561
-652
-719
-732
-662
-502
-293
-98
60
219
443
742
1046
1246
1276
1163
1008
894
817
693
456
130
-177
-378
-467
-487
-465
-396
-283
-159
-48
68
222
407
565
637
606
513
422
381
405
466
521
550
572
612
671
735
791
842
876
876
855
862
936
1045
1115
1119
1122
1216
1408
1606
1720
1747
1758
1805
1875
1925
1934
1924
1932
1982
2069
2157
2191
2167
2146
2196
2295
2335
2236
2069
1981
2015
2039
1897
1608
1337
1198
1126
979
718
427
187
-12
-212
-405
-559
-689
-840
-998
-1085
-1079
-1067
-1151
-1305
-1393
-1341
-1238
-1234
-1371
-1542
-1627
-1617
-1606
-1669
-1782
-1847
-1804
-1698
-1645
-1712
-1847
-1929
-1899
-1855
-1968
-2304
-2761
-3184
-3525
-3850
-4205
-4526
-4680
-4608
-4358
-4011
-3594
-3087
-2517
-1970
-1529
-1208
-973
-816
-757
-800
-881
-923
-905
-872
-851
-805
-673
-468
-279
-188
-193
-226
-236
-225
-221
-235
-254
-271
-293
-333
-377
-402
-394
-384
-409
-472
-524
-510
-440
-391
-431
-531
-585
-525
-406
-352
-425
-552
-597
-510
-378
-343
-452
-607
-648
-506
-269
-103
-103
-205
-264
-198
-74
-42
-178
-416
-630
-752
-810
-856
-911
-960
-989
-996
-963
-872
-753
-686
-726
-837
-920
-926
-892
-867
-835
-756
-648
-597
-639
-691
-646
-505
-379
-352
-378
-351
-228
-59
81
166
212
234
232
224
244
297
335
286
145
13
41
272
582
774
771
694
716
847
923
809
573
407
389
405
327
214
257
532
858
983
866
706
696
799
832
732
638
719
953
1177
1302
1424
1678
2027
2270
2260
2052
1811
1629
1476
1299
1086
830
519
200
10
57
271
433
399
256
206
330
515
624
649
667
698
703
694
755
924
1084
1066
850
589
449
431
412
309
149
21
-21
39
188
359
441
364
189
64
63
109
79
-45
-174
-238
-259
-291
-320
-284
-184
-94
-63
-40
50
189
266
201
33
-138
-253
-339
-434
-529
-577
-539
-428
-277
-109
56
166
168
59
-89
-190
-235
-314
-497
-700
-748
-565
-309
-241
-431
-664
-683
-506
-410
-590
-891
-990
-777
-479
-385
-495
-563
-437
-255
-255
-471
-702
-774
-729
-713
-760
-763
-645
-463
-332
-284
-244
-160
-75
-60
-118
-185
-197
-155
-88
-18
46
91
109
114
139
196
253
275
260
240
265
352
461
563
654
740
793
762
648
530
495
536
549
459
325
278
367
487
495
359
180
81
98
187
298
393
449
462
467
520
609
637
497
203
-74
-133
72
371
531
491
389
395
509
542
328
-84
-480
-684
-718
-721
-764
-793
-737
-627
-571
-615
-701
-752
-775
-855
-1034
-1244
-1353
-1303
-1159
-1028
-972
-957
-904
-755
-532
-334
-255
-286
-319
-281
-253
-385
-684
-932
-887
-582
-315
-318
-478
-471
-165
210
344
208
67
133
343
489
507
526
664
869
981
915
729
541
418
369
377
401
405
416
516
744
1021
1198
1210
1127
1069
1064
1038
925
758
611
503
401
282
170
84
7
-70
-90
41
365
806
1222
1521
1728
1939
2215
2508
2676
2601
2301
1930
1643
1479
1337
1108
785
461
227
95
17
-54
-143
-262
-404
-538
-631
-683
-736
-825
-926
-971
-932
-857
-814
-813
-810
-779
-761
-802
-896
-988
-1047
-1087
-1131
-1166
-1148
-1071
-978
-911
-871
-835
-789
-744
-716
-701
-677
-627
-554
-481
-440
-443
-472
-498
-504
-498
-499
-502
-487
-435
-350
-248
-149
-76
-49
-60
-73
-54
-11
9
-27
-93
-121
-92
-71
-154
-364
-624
-817
-889
-882
-876
-920
-998
-1057
-1044
-945
-795
-663
-619
-689
-831
-958
-986
-903
-772
-683
-670
-677
-610
-433
-216
-80
-87
-172
-208
-128
27
167
252
314
406
530
642
711
760
853
1019
1216
1365
1408
1366
1323
1358
1473
1598
1660
1645
1599
1559
1508
1409
1259
1116
1020
942
814
623
434
316
257
202
140
130
210
329
390
376
368
428
503
483
334
150
45
41
51
6
-73
-109
-55
55
156
207
220
224
223
177
53
-127
-278
-314
-230
-118
-73
-99
-115
-51
68
150
128
28
-73
-109
-66
11
48
-7
-138
-253
-258
-141
5
71
32
-39
-51
30
173
315
404
413
364
321
352
460
583
647
648
633
666
762
894
1020
1108
1150
1173
1212
1275
1342
1389
1416
1430
1430
1405
1365
1347
1373
1419
1438
1423
1406
1410
1421
1417
1401
1395
1405
1405
1380
1350
1341
1349
1339
1293
1232
1175
1125
1076
1024
959
871
761
640
512
356
161
-34
-160
-197
-207
-247
-269
-152
151
530
805
903
946
1119
1477
1870
2083
2047
1896
1823
1880
1922
1774
1415
996
687
525
438
360
289
267
309
398
502
596
655
671
671
683
695
666
598
566
646
807
930
931
849
801
842
921
955
930
898
893
901
896
889
904
921
887
794
713
722
799
833
753
616
539
550
548
421
185
-28
-98
-29
73
117
95
74
129
273
432
507
456
341
273
296
359
387
375
378
426
490
526
534
539
536
501
436
386
386
415
435
449
487
553
599
582
522
474
457
442
400
340
290
258
231
212
212
226
227
193
133
74
23
-26
-69
-87
-75
-52
-29
10
83
173
226
219
191
195
235
266
252
222
233
304
394
456
491
533
597
657
683
682
688
719
761
785
784
780
804
872
966
1048
1087
1089
1092
1136
1213
1273
1275
1231
1188
1173
1160
1108
1016
925
878
873
868
832
779
749
752
756
721
654
604
601
624
624
598
588
624
676
691
667
656
689
722
677
548
420
376
403
417
366
291
273
337
427
466
437
390
387
438
493
511
492
475
490
530
566
578
561
531
504
517
594
711
788
774
709
691
768
882
935
910
874
886
932
963
966
981
1036
1098
1113
1072
1023
1007
1020
1027
1005
958
898
839
791
768
776
782
737
626
494
409
378
341
250
125
14
-86
-231
-420
-553
-509
-302
-76
57
144
321
629
957
1180
1310
1462
1699
1944
2066
2026
1903
1797
1718
1579
1304
927
563
313
194
154
146
172
243
352
467
568
656
715
704
604
458
349
308
305
293
265
241
216
156
54
-58
-141
-195
-244
-288
-293
-244
-168
-110
-75
-27
48
125
174
207
255
324
386
429
472
528
568
550
484
421
384
332
229
109
66
132
222
228
145
79
120
237
317
295
226
212
285
367
375
311
262
281
332
320
219
100
52
82
115
86
14
-33
-24
3
-11
-72
-141
-189
-226
-273
-320
-337
-311
-267
-236
-220
-201
-161
-113
-92
-112
-153
-182
-194
-218
-274
-349
-395
-380
-325
-268
-217
-138
3
180
318
368
356
358
425
528
599
601
566
560
614
708
793
844
868
888
910
922
906
865
815
780
770
777
798
837
896
946
947
887
807
763
761
748
681
585
530
540
559
534
480
456
482
504
463
365
280
254
261
253
210
151
112
109
131
150
142
113
100
132
196
248
263
265
291
338
370
364
346
363
429
518
591
623
602
534
448
379
335
285
193
77
14
77
255
462
605
674
729
829
960
1047
1040
963
886
854
855
863
887
952
1052
1141
1182
1184
1185
1211
1250
1282
1299
1309
1324
1358
1419
1496
1565
1598
1588
1541
1463
1366
1280
1230
1193
1110
953
792
730
785
846
785
600
405
286
211
93
-65
-144
-38
227
524
751
920
1112
1380
1702
1998
2172
2165
1978
1691
1419
1216
1026
731
278
-240
-651
-850
-858
-797
-779
-846
-968
-1077
-1126
-1124
-1132
-1218
-1400
-1645
-1898
-2097
-2185
-2136
-2002
-1909
-1969
-2172
-2397
-2542
-2617
-2718
-2915
-3199
-3532
-3901
-4289
-4657
-4968
-5249
-5574
-5973
-6389
-6739
-7018
-7297
-7610
-7884
-7998
-7907
-7671
-7352
-6931
-6327
-5528
-4634
-3800
-3111
-2564
-2117
-1749
-1459
-1247
-1129
-1131
-1243
-1368
-1370
-1201
-971
-841
-859
-907
-840
-656
-492
-474
-583
-679
-659
-564
-534
-649
-849
-996
-1016
-959
-918
-925
-936
-921
-898
-883
-836
-718
-571
-506
-571
-671
-653
-485
-297
-248
-354
-476
-469
-326
-174
-156
-301
-517
-680
-744
-772
-848
-979
-1085
-1090
-1000
-888
-812
-767
-728
-707
-742
-847
-987
-1111
-1190
-1218
-1211
-1191
-1180
-1172
-1127
-1010
-848
-720
-672
-657
-582
-416
-236
-137
-123
-114
-49
39
77
58
53
120
228
289
268
218
210
248
269
217
101
-16
-90
-124
-150
-193
-246
-286
-288
-254
-216
-204
-209
-208
-194
-180
-185
-211
-250
-289
-320
-333
-335
-355
-412
-466
-438
-307
-175
-181
-350
-542
-602
-523
-446
-491
-628
-729
-714
-612
-505
-445
-441
-479
-542
-592
-595
-550
-512
-532
-594
-620
-560
-442
-347
-327
-346
-335
-269
-201
-195
-251
-311
-325
-297
-259
-232
-211
-186
-151
-102
-33
55
133
173
190
214
250
259
213
147
118
118
64
-78
-211
-203
-70
6
-120
-379
-553
-528
-426
-431
-573
-707
-700
-549
-322
-40
304
647
885
1003
1121
1349
1611
1707
1534
1233
1017
928
817
550
175
-146
-332
-465
-655
-884
-1028
-1016
-913
-835
-824
-823
-771
-679
-611
-611
-668
-750
-840
-926
-984
-989
-944
-894
-890
-942
-998
-997
-943
-904
-935
-1008
-1051
-1044
-1042
-1099
-1186
-1235
-1231
-1231
-1269
-1286
-1203
-1045
-929
-929
-989
-1002
-944
-891
-907
-963
-989
-975
-966
-978
-972
-919
-860
-870
-965
-1072
-1120
-1133
-1189
-1312
-1424
-1435
-1347
-1235
-1151
-1084
-1007
-931
-907
-959
-1065
-1176
-1251
-1271
-1246
-1225
-1248
-1273
-1204
-1020
-831
-791
-940
-1167
-1353
-1495
-1652
-1837
-1983
-2034
-1996
-1902
-1760
-1595
-1497
-1543
-1682
-1753
-1676
-1548
-1525
-1612
-1631
-1436
-1096
-818
-726
-756
-755
-660
-533
-461
-444
-397
-223
82
431
697
835
907
1009
1162
1302
1354
1343
1360
1460
1606
1714
1752
1749
1722
1646
1500
1329
1199
1112
1006
840
659
533
456
354
191
20
-87
-129
-180
-276
-354
-336
-241
-182
-241
-387
-535
-658
-798
-978
-1141
-1211
-1190
-1154
-1152
-1150
-1089
-976
-884
-867
-908
-952
-956
-902
-792
-657
-545
-495
-493
-490
-460
-445
-487
-575
-661
-727
-774
-796
-753
-625
-465
-359
-333
-332
-303
-268
-294
-399
-520
-577
-560
-528
-517
-501
-424
-282
-134
-46
-25
-30
-37
-67
-144
-251
-328
-341
-314
-292
-270
-206
-87
31
95
101
100
117
113
56
-21
-48
6
105
204
296
392
476
508
470
396
331
263
154
7
-117
-162
-157
-188
-298
-434
-525
-554
-552
-509
-361
-67
315
669
946
1210
1542
1918
2217
2331
2267
2107
1924
1727
1483
1160
750
282
-171
-511
-672
-683
-645
-646
-680
-681
-612
-512
-464
-515
-644
-794
-926
-1032
-1110
-1143
-1114
-1026
-915
-834
-822
-887
-983
-1036
-1006
-935
-899
-917
-917
-839
-728
-713
-871
-1142
-1397
-1564
-1660
-1717
-1723
-1645
-1491
-1310
-1146
-1011
-902
-828
-797
-798
-814
-835
-864
-896
-910
-891
-848
-814
-816
-849
-871
-849
-806
-795
-846
-913
-917
-846
-781
-813
-932
-1036
-1058
-1039
-1059
-1127
-1163
-1101
-966
-849
-804
-820
-863
-906
-948
-978
-992
-997
-988
-954
-885
-800
-738
-712
-696
-675
-671
-723
-818
-878
-842
-735
-647
-634
-660
-644
-555
-456
-440
-528
-654
-722
-686
-580
-459
-353
-246
-110
57
235
391
508
579
608
612
607
614
637
666
689
701
699
680
638
578
526
503
495
467
403
336
322
375
452
495
489
462
448
438
468
474
467
444
404
358
320
283
227
145
59
-2
-44
-98
-184
-284
-364
-406
-420
-416
-392
-347
-277
-177
-37
128
276
357
365
341
326
314
266
162
36
-62
-112
-135
-154
-165
-148
-99
-51
-32
-26
14
98
180
202
157
115
147
251
361
422
458
536
685
861
1003
1095
1165
1237
1288
1296
1285
1317
1422
1565
1680
1745
1797
1884
2006
2103
2128
2095
2056
2038
2033
2020
2004
2007
2020
2001
1923
1817
1744
1719
1690
1585
1404
1214
1095
1053
1016
913
749
588
476
388
260
85
-69
-140
-155
-175
-178
-52
260
638
892
987
1110
1452
1943
2292
2294
2047
1819
1742
1699
1498
1102
651
298
80
-60
-170
-247
-273
-248
-181
-83
34
150
244
302
323
311
274
230
202
202
222
242
243
222
200
197
213
223
215
201
207
236
243
197
123
84
100
131
118
70
51
90
133
110
39
14
83
164
124
-48
-194
-159
21
150
94
-70
-159
-100
-8
-25
-159
-301
-370
-386
-392
-380
-319
-230
-177
-180
-185
-148
-83
-38
-22
9
79
168
246
319
411
514
589
612
603
610
656
726
800
875
964
1079
1209
1317
1373
1389
1416
1502
1629
1729
1758
1745
1764
1855
1975
2037
2008
1936
1906
1949
2015
2019
1939
1841
1805
1839
1867
1808
1665
1509
1397
1317
1218
1077
926
802
695
567
405
252
158
106
33
-88
-205
-245
-214
-198
-241
-277
-210
-46
93
101
16
-30
31
125
138
49
-57
-82
-21
59
102
112
125
149
154
110
35
-18
-19
10
22
-1
-30
-20
28
82
116
132
135
111
67
44
83
166
221
204
150
127
150
170
139
73
31
46
76
62
0
-41
7
137
265
310
286
286
377
528
641
682
715
825
1011
1187
1290
1353
1460
1630
1796
1890
1922
1962
2057
2193
2321
2413
2477
2543
2631
2735
2834
2908
2949
2967
2968
2940
2865
2742
2583
2398
2189
1937
1620
1233
809
418
120
-89
-286
-546
-845
-1065
-1117
-1064
-1070
-1228
-1461
-1601
-1586
-1506
-1492
-1532
-1479
-1210
-777
-352
-49
188
503
950
1399
1645
1611
1416
1254
1188
1113
893
529
162
-87
-220
-307
-372
-375
-298
-198
-140
-111
-32
133
318
419
404
332
284
286
318
348
350
315
257
208
200
223
236
209
160
142
185
269
332
334
290
262
296
375
441
456
436
433
479
559
642
720
799
875
933
973
1017
1077
1137
1182
1214
1251
1305
1368
1430
1491
1546
1583
1595
1594
1580
1531
1435
1324
1260
1256
1244
1138
947
768
682
663
604
443
220
32
-71
-122
-172
-234
-281
-293
-285
-283
-295
-310
-327
-352
-380
-399
-404
-422
-477
-539
-543
-464
-375
-368
-433
-458
-359
-194
-107
-146
-208
-172
-58
9
-31
-80
-18
136
249
245
213
284
449
576
576
517
523
615
697
691
638
641
734
860
960
1021
1059
1078
1085
1100
1145
1196
1206
1174
1164
1244
1399
1549
1647
1718
1804
1896
1947
1945
1943
2006
2137
2278
2372
2422
2467
2530
2603
2648
2622
2505
2315
2113
1948
1818
1668
1464
1247
1095
1014
913
710
425
158
-36
-218
-492
-886
-1327
-1713
-2010
-2240
-2446
-2655
-2877
-3099
-3293
-3429
-3504
-3569
-3698
-3933
-4239
-4518
-4687
-4756
-4826
-5000
-5271
-5533
-5697
-5795
-5920
-6091
-6202
-6135
-5881
-5508
-5055
-4507
-3887
-3300
-2840
-2504
-2233
-2027
-1943
-1971
-1990
-1935
-1945
-2251
-2878
-3535
-3854
-3734
-3388
-3075
-2809
-2384
-1636
-641
324
989
1249
1179
936
645
350
26
-335
-673
-879
-881
-709
-470
-247
-39
183
400
541
573
562
633
852
1165
1452
1597
1526
1236
826
474
300
233
53
-370
-889
-1206
-1186
-1000
-926
-1041
-1172
-1114
-864
-585
-403
-300
-200
-91
-32
-45
-66
-6
129
243
266
225
207
256
325
346
313
291
315
347
325
246
184
199
262
293
257
204
206
260
297
271
230
247
320
357
292
175
118
160
230
241
188
142
146
172
177
155
126
106
88
70
50
20
-31
-82
-92
-54
-24
-60
-148
-204
-182
-124
-115
-177
-253
-281
-258
-234
-242
-275
-321
-373
-414
-414
-367
-325
-346
-408
-411
-296
-136
-72
-151
-260
-257
-138
-40
-67
-174
-235
-192
-104
-46
-4
88
247
421
561
675
800
938
1053
1128
1177
1222
1264
1294
1313
1331
1345
1351
1358
1377
1395
1372
1286
1172
1086
1032
956
815
640
504
441
412
366
294
228
197
190
167
100
-4
-106
-168
-186
-200
-255
-352
-440
-470
-446
-422
-443
-511
-601
-692
-769
-819
-834
-835
-852
-891
-927
-937
-933
-941
-960
-969
-959
-950
-956
-960
-927
-862
-821
-851
-926
-982
-975
-934
-929
-997
-1101
-1157
-1104
-967
-842
-807
-851
-882
-823
-699
-607
-602
-635
-613
-513
-412
-385
-418
-433
-395
-357
-390
-487
-571
-587
-559
-538
-545
-562
-567
-562
-566
-576
-575
-554
-532
-527
-535
-520
-463
-389
-339
-319
-297
-248
-195
-195
-269
-371
-433
-439
-435
-474
-568
-678
-767
-831
-889
-955
-1018
-1053
-1058
-1059
-1082
-1087
-987
-729
-382
-99
36
102
267
582
908
1039
901
599
300
81
-119
-399
-789
-1224
-1585
-1802
-1886
-1907
-1916
-1900
-1823
-1692
-1593
-1604
-1697
-1759
-1737
-1723
-1838
-2063
-2206
-2107
-1827
-1577
-1465
-1393
-1225
-1000
-903
-1032
-1285
-1504
-1665
-1853
-2082
-2242
-2224
-2044
-1810
-1583
-1339
-1060
-775
-531
-327
-134
48
196
311
443
633
856
1051
1179
1239
1250
1230
1186
1110
1003
885
796
764
767
752
694
633
622
654
660
603
529
519
589
654
623
496
364
315
333
328
239
91
-41
-117
-165
-242
-380
-570
-786
-1002
-1196
-1350
-1463
-1562
-1665
-1756
-1797
-1775
-1729
-1710
-1719
-1723
-1714
-1726
-1783
-1854
-1872
-1815
-1729
-1671
-1642
-1599
-1513
-1411
-1331
-1279
-1247
-1233
-1252
-1297
-1341
-1360
-1360
-1357
-1341
-1285
-1181
-1067
-1000
-997
-1023
-1035
-1025
-1038
-1107
-1201
-1247
-1213
-1158
-1163
-1231
-1271
-1221
-1150
-1179
-1326
-1464
-1485
-1438
-1474
-1636
-1804
-1845
-1770
-1704
-1704
-1691
-1569
-1361
-1175
-1067
-1001
-923
-866
-896
-1013
-1133
-1188
-1197
-1235
-1310
-1356
-1306
-1186
-1090
-1074
-1103
-1107
-1076
-1075
-1142
-1222
-1217
-1113
-1011
-1014
-1088
-1109
-1015
-892
-871
-963
-1054
-1050
-975
-915
-891
-847
-741
-615
-537
-512
-475
-384
-269
-190
-162
-153
-125
-77
-34
-19
-38
-83
-131
-159
-170
-189
-233
-275
-276
-225
-159
-123
-121
-124
-107
-70
-37
-30
-52
-92
-126
-142
-149
-163
-191
-226
-256
-292
-346
-412
-467
-511
-563
-645
-736
-789
-780
-747
-759
-829
-895
-889
-815
-771
-833
-942
-940
-726
-365
-45
119
201
372
710
1101
1349
1357
1195
1006
877
778
624
367
38
-282
-527
-684
-784
-852
-891
-887
-845
-788
-734
-668
-568
-456
-396
-433
-543
-648
-695
-699
-707
-728
-739
-720
-687
-663
-633
-573
-496
-455
-479
-526
-539
-507
-489
-525
-587
-609
-563
-490
-454
-478
-537
-591
-624
-643
-664
-699
-745
-782
-769
-685
-548
-410
-325
-297
-284
-239
-162
-110
-140
-238
-335
-371
-358
-365
-430
-511
-540
-499
-439
-412
-409
-387
-333
-277
-250
-243
-226
-208
-239
-337
-461
-551
-592
-630
-711
-830
-949
-1040
-1083
-1059
-960
-837
-782
-850
-981
-1050
-1007
-934
-948
-1061
-1165
-1156
-1045
-920
-827
-725
-566
-376
-242
-201
-205
-174
-85
5
35
19
33
138
326
522
651
696
687
662
644
632
630
638
653
661
664
681
746
870
1016
1116
1133
1096
1075
1104
1153
1166
1137
1114
1139
1201
1241
1233
1209
1205
1211
1183
1103
1006
950
957
991
1003
965
905
867
871
878
829
700
527
370
232
64
-167
-416
-594
-673
-718
-816
-976
-1121
-1184
-1181
-1178
-1215
-1275
-1331
-1379
-1423
-1443
-1410
-1330
-1254
-1218
-1197
-1132
-1006
-870
-801
-821
-875
-885
-820
-723
-659
-643
-627
-563
-460
-382
-374
-417
-460
-487
-521
-580
-625
-610
-543
-476
-438
-404
-337
-254
-209
-226
-280
-329
-363
-380
-359
-284
-192
-156
-204
-264
-250
-170
-125
-184
-298
-366
-357
-339
-377
-450
-486
-464
-442
-477
-555
-608
-595
-540
-498
-491
-476
-372
-128
220
563
807
962
1139
1441
1838
2175
2305
2226
2071
1960
1888
1747
1467
1097
752
505
350
264
259
360
526
658
705
718
797
954
1078
1061
923
793
773
838
900
915
916
935
944
884
744
589
485
437
387
291
175
96
79
83
48
-34
-121
-185
-247
-333
-416
-449
-433
-442
-534
-663
-716
-658
-591
-651
-845
-1034
-1084
-1010
-942
-980
-1091
-1165
-1132
-1025
-934
-919
-962
-994
-965
-894
-842
-852
-891
-891
-829
-758
-742
-783
-806
-740
-602
-486
-473
-557
-637
-618
-509
-422
-461
-619
-781
-839
-804
-774
-819
-912
-976
-980
-963
-974
-1005
-1020
-1013
-1023
-1084
-1178
-1249
-1260
-1227
-1187
-1162
-1139
-1100
-1039
-958
-858
-748
-661
-624
-614
-579
-499
-416
-379
-372
-323
-208
-83
-11
36
137
308
457
502
475
484
575
678
713
685
666
690
731
765
809
885
965
1006
1010
1035
1115
1219
1289
1305
1300
1307
1326
1343
1354
1364
1364
1348
1326
1324
1359
1403
1410
1353
1246
1126
1008
874
697
483
266
81
-64
-186
-296
-384
-445
-484
-511
-522
-510
-480
-451
-436
-432
-447
-503
-613
-738
-806
-773
-668
-562
-484
-398
-251
-43
166
313
371
360
322
302
328
392
455
481
482
507
586
690
760
769
746
733
740
744
726
705
710
756
824
888
931
955
971
987
1011
1043
1074
1090
1086
1055
1005
949
897
852
806
751
693
647
614
577
520
450
376
286
171
60
5
21
58
56
32
95
330
691
1023
1212
1293
1414
1681
2036
2308
2367
2246
2092
2014
1977
1855
1574
1194
853
632
509
431
393
426
533
666
779
873
975
1069
1098
1035
927
854
836
819
752
653
587
586
603
564
447
304
200
148
115
81
52
45
45
26
-14
-49
-64
-84
-143
-251
-379
-500
-603
-688
-753
-799
-841
-891
-939
-958
-939
-914
-917
-940
-941
-910
-881
-892
-929
-944
-913
-875
-882
-943
-1015
-1053
-1061
-1073
-1101
-1108
-1050
-917
-762
-662
-662
-736
-815
-852
-868
-933
-1087
-1298
-1472
-1521
-1422
-1241
-1087
-1033
-1059
-1065
-972
-804
-669
-646
-706
-740
-685
-582
-496
-434
-347
-226
-144
-179
-306
-414
-412
-332
-302
-412
-628
-834
-944
-968
-983
-1058
-1198
-1372
-1552
-1737
-1918
-2070
-2179
-2262
-2360
-2478
-2568
-2575
-2489
-2345
-2196
-2072
-1984
-1930
-1878
-1787
-1641
-1477
-1355
-1286
-1222
-1115
-971
-845
-777
-760
-755
-743
-727
-728
-755
-795
-817
-813
-813
-865
-992
-1146
-1248
-1265
-1239
-1224
-1230
-1228
-1199
-1152
-1102
-1072
-1129
-1367
-1775
-2161
-2274
-2066
-1751
-1582
-1583
-1532
-1245
-811
-485
-409
-494
-563
-537
-448
-331
-165
56
285
453
527
501
399
267
167
101
-50
-420
-953
-1362
-1384
-1063
-752
-757
-1022
-1194
-979
-422
185
616
884
1128
1433
1749
1978
2060
1999
1833
1634
1507
1509
1599
1683
1713
1739
1818
1923
1955
1877
1788
1818
1963
2060
1965
1724
1539
1535
1608
1517
1160
697
358
175
-34
-377
-701
-726
-362
189
678
1085
1591
2306
3080
3644
3881
3911
3945
4084
4240
4232
3939
3428
2917
2605
2507
2443
2251
1960
1757
1778
1993
2256
2442
2508
2467
2364
2271
2251
2300
2339
2296
2207
2184
2285
2458
2601
2667
2675
2646
2567
2427
2277
2198
2226
2310
2374
2390
2392
2412
2430
2400
2306
2180
2086
2059
2087
2121
2120
2075
2017
1982
1973
1958
1912
1856
1828
1838
1854
1832
1749
1616
1457
1291
1129
981
865
809
861
1034
1278
1494
1609
1649
1699
1807
1925
1972
1931
1860
1831
1856
1902
1943
1971
1970
1915
1814
1720
1682
1689
1682
1630
1577
1578
1623
1640
1590
1512
1472
1479
1478
1423
1355
1352
1436
1543
1589
1561
1515
1496
1495
1475
1441
1429
1449
1466
1427
1333
1251
1253
1342
1458
1544
1599
1672
1801
1968
2116
2191
2171
2076
1953
1848
1777
1723
1663
1599
1561
1565
1587
1584
1548
1532
1569
1623
1611
1508
1400
1396
1496
1590
1589
1530
1523
1611
1710
1726
1677
1664
1745
1862
1920
1905
1876
1881
1895
1882
1854
1872
1971
2113
2223
2273
2300
2330
2327
2234
2057
1882
1778
1715
1619
1481
1415
1520
1728
1849
1774
1607
1541
1622
1682
1538
1222
948
880
957
995
899
745
657
656
649
558
406
278
235
262
308
338
364
415
496
570
601
597
604
662
737
762
729
716
799
929
973
892
819
921
1177
1370
1335
1159
1071
1159
1263
1186
936
697
608
612
573
464
382
400
480
535
517
452
398
401
478
596
678
655
534
392
291
221
152
118
192
392
640
861
1099
1481
2043
2629
3001
3066
2953
2853
2817
2732
2501
2176
1897
1727
1606
1474
1378
1400
1518
1593
1528
1380
1290
1313
1361
1316
1169
1003
880
791
707
633
600
615
646
660
643
602
547
503
490
497
480
406
300
221
198
203
186
133
72
25
-14
-64
-114
-136
-121
-103
-115
-150
-165
-144
-111
-107
-134
-162
-166
-160
-172
-203
-224
-219
-203
-201
-221
-249
-268
-282
-305
-345
-381
-396
-388
-371
-348
-313
-261
-212
-200
-231
-273
-285
-276
-300
-387
-499
-545
-471
-312
-150
-25
91
243
422
572
649
666
656
635
599
558
532
529
529
519
518
556
614
646
629
611
653
754
836
834
774
746
806
912
982
976
921
876
867
882
897
900
891
880
877
886
898
900
884
858
825
782
726
658
588
519
458
418
405
405
398
384
385
408
419
379
291
216
199
221
229
206
188
212
250
244
186
123
96
85
48
-8
-28
18
98
145
138
112
106
114
101
55
2
-31
-54
-89
-136
-158
-132
-89
-91
-155
-216
-193
-93
-7
-13
-88
-142
-127
-91
-88
-107
-84
1
92
125
118
140
220
304
328
298
281
324
407
483
530
559
578
583
579
577
587
604
622
651
689
720
733
744
773
800
772
671
555
511
562
639
658
613
569
587
657
708
670
538
373
251
198
179
137
53
-46
-123
-185
-264
-370
-473
-538
-579
-638
-727
-787
-725
-505
-188
122
362
563
809
1153
1556
1899
2068
2049
1935
1839
1781
1664
1372
908
436
140
51
24
-82
-228
-248
-78
135
194
84
-34
-24
60
72
-51
-240
-408
-504
-490
-340
-110
34
-48
-291
-461
-405
-230
-171
-333
-590
-748
-745
-652
-560
-505
-501
-564
-661
-697
-605
-450
-395
-533
-768
-919
-911
-838
-831
-904
-938
-843
-685
-590
-595
-611
-549
-438
-378
-399
-425
-389
-325
-315
-351
-332
-184
31
173
176
117
123
221
317
312
224
159
184
266
337
392
490
649
792
829
774
747
839
1001
1096
1038
883
778
814
950
1065
1074
999
948
1001
1122
1196
1151
1044
994
1035
1079
1019
868
747
747
829
868
806
712
689
742
771
695
573
551
704
909
956
754
446
269
300
374
262
-66
-411
-563
-505
-385
-319
-300
-276
-260
-304
-381
-378
-227
-38
3
-146
-304
-251
23
295
356
248
214
407
693
793
586
247
49
87
195
154
-78
-337
-422
-272
0
222
302
278
262
324
436
525
552
541
534
539
539
548
593
658
671
585
446
354
358
422
493
561
627
666
658
640
685
799
897
905
865
894
1039
1224
1333
1339
1306
1292
1307
1339
1392
1448
1450
1357
1219
1136
1149
1179
1130
1024
970
1007
1054
1028
948
899
894
869
792
725
725
744
705
643
679
835
952
863
615
429
422
474
394
184
18
9
81
104
83
121
225
276
220
183
338
667
966
1090
1118
1231
1471
1711
1824
1821
1791
1753
1638
1409
1127
882
682
457
166
-137
-345
-398
-323
-192
-74
9
79
175
299
402
423
344
216
119
92
107
123
134
159
201
223
190
113
48
35
52
44
3
-7
74
217
329
356
338
352
417
472
457
394
353
374
443
520
584
637
689
739
780
807
813
792
742
673
603
555
540
548
547
509
446
395
375
367
334
266
180
100
31
-31
-76
-87
-82
-109
-187
-263
-270
-206
-149
-172
-249
-271
-181
-47
1
-73
-169
-158
-29
97
89
-65
-259
-371
-370
-318
-297
-343
-420
-448
-376
-238
-131
-134
-221
-304
-320
-290
-283
-308
-313
-250
-141
-49
-7
8
40
105
164
167
91
-37
-140
-150
-68
29
53
-1
-42
12
138
225
198
103
49
98
202
274
271
219
177
181
234
307
351
348
332
363
457
550
565
495
425
430
482
482
377
227
146
173
241
261
210
149
134
161
182
164
121
77
41
16
15
51
106
147
156
152
158
171
168
149
136
150
179
199
215
254
328
416
475
489
490
525
611
705
746
735
752
872
1063
1201
1190
1086
1032
1095
1202
1240
1194
1139
1140
1195
1270
1361
1467
1554
1583
1569
1575
1631
1686
1680
1619
1556
1532
1535
1539
1548
1573
1611
1642
1652
1642
1627
1627
1650
1672
1649
1571
1488
1458
1486
1506
1472
1404
1346
1309
1289
1321
1461
1692
1890
1958
1969
2107
2457
2886
3171
3212
3093
2945
2797
2592
2297
1929
1506
1014
469
-37
-403
-630
-857
-1226
-1747
-2276
-2657
-2848
-2943
-3061
-3226
-3350
-3319
-3086
-2701
-2276
-1915
-1654
-1469
-1310
-1167
-1081
-1096
-1206
-1333
-1391
-1351
-1253
-1164
-1113
-1075
-1006
-892
-781
-751
-841
-1010
-1165
-1253
-1292
-1330
-1371
-1370
-1280
-1108
-906
-730
-620
-599
-664
-767
-849
-884
-907
-961
-1033
-1057
-1007
-920
-855
-823
-798
-767
-761
-811
-910
-1017
-1101
-1155
-1204
-1287
-1437
-1640
-1817
-1881
-1814
-1687
-1589
-1533
-1446
-1262
-1002
-765
-639
-631
-670
-681
-653
-628
-636
-659
-651
-601
-541
-498
-464
-414
-356
-328
-341
-346
-299
-235
-240
-341
-445
-436
-319
-227
-264
-378
-415
-291
-73
123
265
403
564
691
732
723
756
851
925
906
836
823
912
1037
1106
1105
1080
1066
1049
1014
972
941
912
858
773
682
603
543
497
455
404
334
253
188
162
157
141
103
61
25
-20
-93
-176
-235
-267
-304
-377
-458
-491
-458
-413
-418
-480
-538
-537
-490
-459
-490
-559
-599
-568
-492
-435
-420
-409
-348
-233
-116
-46
-15
19
76
130
145
134
151
229
333
403
432
472
569
702
800
830
822
832
876
920
941
949
963
981
984
980
1001
1060
1128
1172
1194
1219
1241
1223
1154
1080
1073
1128
1157
1084
938
835
853
944
1000
960
862
786
768
776
763
706
610
493
379
292
235
189
138
71
-17
-132
-275
-415
-489
-470
-403
-343
-268
-83
261
682
1029
1244
1431
1715
2067
2310
2303
2094
1862
1719
1604
1380
993
535
150
-88
-192
-214
-190
-130
-45
61
191
349
515
624
612
482
329
262
302
365
358
288
249
298
379
409
389
400
484
568
554
462
424
517
656
691
576
424
372
425
474
444
375
361
408
432
371
283
277
376
471
437
286
159
164
256
293
197
37
-61
-57
-7
10
-33
-113
-207
-304
-387
-437
-473
-535
-640
-738
-753
-667
-552
-496
-525
-592
-629
-617
-583
-558
-552
-572
-614
-651
-623
-500
-346
-281
-356
-484
-523
-427
-300
-270
-351
-442
-448
-377
-313
-308
-333
-333
-295
-245
-214
-203
-188
-151
-100
-54
-29
-17
14
77
150
201
219
238
299
399
488
525
524
527
562
605
619
598
572
567
581
590
585
581
592
613
618
595
548
496
451
415
387
360
320
262
195
140
108
97
96
97
85
49
-7
-55
-67
-40
-6
-1
-29
-62
-70
-42
10
63
101
126
149
186
232
261
254
225
200
191
179
144
103
90
112
140
140
117
99
101
99
74
40
31
49
59
31
-7
1
76
183
262
295
309
334
367
397
428
472
516
535
533
565
674
826
930
929
858
805
807
823
804
755
715
709
728
774
865
989
1082
1089
1030
987
1004
1033
1005
928
886
926
1003
1039
1017
983
971
958
900
803
704
611
503
391
328
334
334
228
29
-121
-92
69
191
205
243
500
988
1505
1839
1980
2102
2342
2653
2869
2878
2711
2476
2247
2037
1826
1588
1306
985
676
467
417
492
588
622
610
628
725
852
903
822
660
517
434
382
330
300
328
385
387
292
169
125
175
221
173
61
0
57
177
252
237
177
129
101
60
-5
-71
-126
-185
-258
-322
-335
-286
-210
-152
-104
-27
85
184
206
142
50
-14
-52
-119
-240
-376
-448
-423
-346
-304
-339
-410
-447
-430
-412
-441
-493
-502
-446
-392
-416
-490
-508
-415
-298
-292
-414
-527
-491
-331
-211
-246
-386
-486
-481
-434
-439
-494
-517
-456
-350
-270
-224
-160
-47
71
108
27
-109
-192
-159
-34
91
135
89
9
-27
8
50
6
-158
-360
-474
-436
-322
-258
-305
-402
-445
-398
-312
-256
-260
-308
-350
-344
-285
-223
-240
-341
-435
-423
-342
-328
-444
-581
-573
-425
-324
-406
-556
-537
-286
-21
0
-216
-402
-331
-69
96
-47
-419
-755
-876
-828
-801
-909
-1110
-1275
-1327
-1281
-1205
-1150
-1135
-1168
-1247
-1346
-1426
-1448
-1413
-1370
-1386
-1475
-1567
-1554
-1408
-1227
-1153
-1215
-1294
-1252
-1100
-985
-1018
-1142
-1191
-1066
-837
2986
-557
-478
-303
-76
131
289
408
502
563
587
598
650
758
858
865
781
746
903
1217
1484
1524
1393
1314
1423
1623
1711
1634
1560
1692
2051
2495
2902
3302
3783
4344
4850
5144
5166
4943
4504
3844
2956
1889
760
-296
-1181
-1864
-2342
-2599
-2601
-2348
-1922
-1460
-1085
-840
-696
-614
-576
-595
-680
-808
-905
-863
-621
-237
125
340
428
543
793
1114
1329
1341
1227
1135
1116
1098
969
716
418
149
-68
-243
-360
-386
-310
-169
-20
108
224
347
461
525
510
432
328
229
150
100
84
90
95
101
122
156
170
139
96
107
182
249
245
194
190
292
450
553
551
484
427
416
434
428
375
306
280
322
391
423
407
405
464
545
562
495
427
442
518
550
479
366
324
387
479
491
397
284
297
490
732
796
571
220
40
152
347
304
-34
-373
-388
-83
218
251
83
-13
105
301
355
214
15
-91
-81
-41
-43
-87
-127
-104
13
169
260
232
135
76
97
136
122
78
60
69
61
61
165
402
629
644
443
254
281
467
568
453
257
203
350
551
651
646
613
580
513
416
363
405
476
466
377
313
339
381
340
250
250
385
487
371
92
-79
19
229
254
19
-242
-281
-135
-38
-113
-231
-203
-38
67
-9
-167
-219
-126
-22
-41
-164
-269
-282
-246
-233
-261
-289
-286
-269
-273
-298
-302
-243
-131
-36
-26
-103
-184
-178
-76
42
90
71
59
105
190
267
336
431
544
633
670
696
776
904
991
979
914
903
993
1124
1196
1175
1111
1078
1108
1166
1178
1098
946
799
738
778
851
878
842
790
776
806
840
827
754
654
574
554
591
650
682
669
637
620
615
569
433
222
20
-80
-72
-54
-138
-336
-522
-572
-506
-472
-588
-788
-870
-698
-337
24
260
403
582
869
1214
1493
1626
1622
1548
1462
1360
1203
971
682
375
76
-197
-424
-580
-644
-628
-556
-458
-355
-259
-179
-116
-79
-85
-124
-161
-157
-112
-74
-86
-125
-125
-71
-19
-39
-118
-170
-130
-33
31
25
-6
-2
41
61
9
-83
-135
-107
-33
15
10
0
45
127
171
142
96
96
126
122
73
51
106
174
145
28
-35
55
207
240
110
-20
21
210
358
338
222
174
252
358
382
330
292
325
399
442
435
435
503
611
664
602
472
405
467
568
550
355
118
37
154
307
299
116
-53
-28
175
364
371
224
100
132
275
365
306
175
142
271
446
504
414
307
307
385
408
320
206
177
222
249
226
228
324
452
489
397
276
237
266
250
134
-6
-57
-8
40
6
-88
-153
-150
-122
-121
-146
-163
-161
-158
-156
-129
-82
-77
-152
-246
-248
-158
-146
-396
-889
-1397
-1698
-1762
-1719
-1674
-1612
-1485
-1310
-1138
-967
-751
-516
-390
-489
-748
-955
-952
-792
-668
-701
-827
-901
-864
-785
-764
-816
-883
-920
-936
-961
-982
-955
-857
-712
-568
-455
-364
-287
-216
-133
-18
122
233
244
130
-62
-253
-393
-465
-464
-391
-285
-226
-262
-347
-381
-322
-242
-241
-327
-400
-377
-277
-176
-118
-92
-88
-116
-171
-221
-249
-285
-355
-419
-401
-298
-213
-245
-366
-456
-447
-403
-427
-530
-636
-680
-669
-650
-647
-660
-695
-751
-796
-785
-722
-657
-600
-477
-201
192
553
780
950
1231
1677
2124
2340
2262
2048
1897
1837
1737
1485
1113
755
497
339
255
260
368
530
663
723
744
789
874
948
947
861
745
666
648
673
702
715
714
703
682
658
658
713
811
889
888
808
727
727
816
916
936
850
718
642
676
791
893
909
840
753
706
699
689
643
573
505
449
400
355
333
333
331
302
261
249
271
275
206
89
17
34
63
-11
-192
-351
-363
-245
-128
-111
-177
-255
-310
-363
-424
-471
-491
-507
-550
-611
-644
-618
-550
-485
-459
-479
-521
-547
-534
-497
-477
-499
-529
-513
-442
-371
-346
-353
-347
-324
-330
-386
-436
-409
-309
-219
-205
-233
-214
-113
12
78
70
43
60
124
190
216
205
193
202
216
205
170
150
182
253
307
315
301
316
369
417
414
367
318
285
248
190
135
120
147
179
187
176
165
157
136
97
57
23
-12
-52
-78
-69
-41
-38
-80
-135
-147
-104
-39
1
-10
-59
-115
-137
-106
-62
-80
-181
-283
-271
-130
16
38
-56
-132
-96
3
45
-6
-71
-70
-15
23
9
-14
-5
16
-4
-82
-179
-252
-295
-328
-365
-389
-384
-348
-303
-271
-259
-252
-229
-180
-123
-79
-42
20
131
278
414
512
586
671
768
842
859
828
788
764
744
706
655
623
625
648
668
680
695
708
685
598
463
330
231
154
65
-47
-170
-293
-415
-526
-613
-677
-733
-776
-750
-596
-328
-39
188
358
542
780
1028
1199
1231
1131
974
831
731
625
459
252
99
60
89
104
128
283
603
924
1048
981
946
1097
1303
1285
974
602
430
462
489
379
228
196
279
327
242
98
46
125
225
232
153
75
72
119
150
124
55
-22
-81
-112
-110
-85
-68
-93
-157
-220
-235
-198
-152
-153
-215
-297
-340
-325
-291
-294
-344
-403
-433
-443
-465
-501
-524
-516
-489
-468
-460
-459
-454
-440
-409
-359
-308
-289
-303
-312
-290
-262
-276
-333
-372
-353
-300
-259
-228
-161
-47
66
126
144
176
240
297
312
308
327
365
371
311
213
130
65
-19
-127
-210
-232
-226
-254
-320
-347
-285
-188
-164
-234
-304
-285
-193
-127
-142
-184
-174
-101
-29
-8
-28
-40
-7
63
134
169
171
187
251
334
363
309
237
223
259
270
223
176
196
249
249
178
121
155
237
270
231
189
187
162
42
-138
-257
-255
-206
-205
-244
-209
-28
231
433
508
498
476
468
444
374
256
125
33
15
58
105
107
85
89
132
147
61
-108
-254
-306
-299
-330
-431
-518
-496
-372
-241
-179
-163
-117
-11
93
112
39
-44
-48
33
120
127
61
16
74
204
284
238
130
27
188
292
277
157
86
168
317
363
267
179
250
442
574
537
398
304
306
353
373
361
332
298
269
283
361
451
467
382
260
183
162
145
83
-19
-122
-178
-153
-35
123
235
271
310
486
835
1221
1444
1468
1449
1559
1784
1921
1809
1510
1245
1136
1094
943
639
320
140
94
59
-41
-128
-84
101
298
381
339
268
235
206
109
-53
-201
-264
-252
-232
-236
-219
-122
12
77
-3
-163
-252
-193
-57
14
-45
-176
-254
-223
-137
-106
-185
-325
-414
-387
-275
-172
-132
-126
-112
-90
-96
-134
-171
-179
-177
-211
-261
-251
-146
-15
35
-28
-103
-83
15
88
63
3
15
100
142
65
-58
-102
-62
-79
-249
-467
-542
-427
-299
-352
-557
-706
-664
-508
-406
-424
-480
-479
-413
-333
-271
-251
-281
-350
-415
-433
-417
-429
-488
-538
-529
-483
-463
-477
-450
-338
-212
-183
-259
-318
-249
-91
-1
-60
-202
-280
-240
-153
-120
-150
-168
-111
13
132
182
162
130
145
214
267
243
175
169
280
435
507
459
397
442
583
701
714
671
667
723
782
803
807
823
831
791
718
661
642
615
543
463
441
475
486
410
284
186
155
143
97
15
-72
-155
-235
-296
-305
-276
-276
-355
-467
-518
-471
-395
-379
-434
-490
-496
-475
-474
-486
-462
-389
-314
-288
-289
-236
-99
44
87
19
-69
-79
-16
55
85
104
162
255
350
421
460
447
364
250
200
267
376
397
304
219
286
489
660
678
579
495
491
511
507
507
576
692
732
632
491
481
633
781
750
559
405
435
583
672
640
572
554
532
416
264
254
456
690
701
473
309
525
1095
1646
1822
1638
1465
1611
2013
2327
2286
1957
1615
1429
1340
1193
953
707
511
321
85
-119
-151
-4
161
180
66
-6
84
274
405
411
374
393
441
424
325
234
263
403
526
518
392
253
205
258
333
358
326
273
247
260
292
329
354
354
322
279
263
299
361
386
345
293
308
394
464
420
277
171
204
330
392
303
160
118
211
320
306
176
53
18
20
-19
-80
-78
-1
58
19
-77
-126
-84
-26
-39
-122
-198
-213
-175
-120
-74
-58
-78
-107
-107
-68
-47
-100
-202
-280
-296
-295
-332
-379
-361
-268
-190
-207
-278
-287
-187
-57
-7
-36
-45
28
143
234
293
365
475
581
626
620
627
686
770
831
862
887
925
962
971
955
926
894
850
784
702
630
587
572
555
499
397
294
252
278
301
247
137
76
137
275
368
350
278
244
278
331
350
330
278
194
100
51
86
154
158
76
6
46
158
203
122
20
25
109
123
4
-110
-40
193
361
288
57
-100
-79
-13
-96
-358
-630
-740
-684
-585
-545
-562
-582
-586
-582
-569
-531
-473
-429
-434
-455
-411
-268
-84
49
89
79
92
149
215
251
259
278
334
419
503
568
616
662
702
728
735
740
750
741
699
648
638
681
737
768
795
858
943
978
926
859
868
927
907
741
525
420
450
481
406
301
306
417
474
365
185
117
206
301
263
154
174
438
866
1259
1486
1580
1675
1878
2148
2320
2259
2008
1747
1591
1467
1233
902
652
599
626
522
265
68
124
359
523
470
309
240
328
465
512
423
256
110
57
90
130
97
-17
-135
-167
-104
-39
-62
-174
-280
-269
-119
85
253
400
649
1078
1589
1953
2025
1864
1631
1381
1018
447
-261
-913
-1364
-1614
-1740
-1783
-1731
-1581
-1378
-1182
-1013
-869
-760
-711
-724
-755
-762
-744
-722
-714
-720
-737
-766
-805
-840
-848
-821
-754
-656
-541
-441
-388
-378
-364
-298
-189
-104
-91
-128
-146
-111
-60
-59
-118
-181
-188
-142
-103
-114
-151
-151
-90
-8
31
10
-34
-51
-21
48
141
228
261
241
233
309
452
541
489
366
323
405
519
571
605
719
883
947
850
722
724
823
816
596
306
183
292
481
591
616
650
740
849
927
961
948
891
813
754
726
670
531
340
166
19
-171
-453
-771
-1002
-1109
-1165
-1267
-1425
-1568
-1651
-1715
-1840
-2051
-2310
-2559
-2774
-2960
-3122
-3255
-3342
-3361
-3298
-3159
-2984
-2832
-2731
-2655
-2551
-2409
-2279
-2214
-2206
-2168
-2025
-1792
-1562
-1412
-1327
-1224
-1045
-813
-608
-492
-456
-444
-393
-278
-119
35
156
251
358
503
663
782
831
833
845
901
986
1061
1102
1109
1098
1076
1034
960
849
713
571
434
299
159
20
-100
-193
-277
-373
-474
-550
-581
-584
-591
-624
-680
-737
-778
-800
-815
-848
-914
-995
-1042
-1031
-1000
-1004
-1042
-1039
-928
-741
-586
-522
-467
-278
96
552
923
1141
1283
1475
1756
2035
2176
2118
1915
1677
1482
1324
1137
871
562
296
132
55
23
32
120
275
401
419
387
450
648
829
806
593
402
403
526
573
472
342
310
350
349
278
223
246
299
306
280
294
361
402
367
307
302
342
343
268
179
156
192
209
163
99
67
62
38
-14
-58
-66
-64
-93
-142
-164
-136
-99
-104
-149
-177
-150
-92
-62
-90
-146
-174
-147
-84
-23
-4
-41
-112
-164
-156
-101
-66
-100
-177
-221
-183
-87
4
49
47
36
55
119
194
217
162
81
73
184
334
375
244
43
-58
0
106
90
-74
-219
-159
108
373
430
289
151
177
312
378
285
130
63
122
233
335
432
531
586
551
465
426
473
521
455
273
101
68
178
322
386
353
301
302
347
375
368
361
390
422
400
332
290
315
357
331
226
125
101
122
103
16
-80
-116
-100
-94
-134
-187
-209
-196
-180
-191
-226
-261
-276
-262
-231
-204
-187
-166
-126
-73
-48
-72
-120
-143
-148
-182
-267
-351
-368
-340
-350
-409
-391
-181
144
351
312
171
187
425
673
692
485
288
295
460
598
604
543
542
625
718
748
724
710
744
793
807
786
781
831
908
941
901
841
836
893
945
939
897
890
961
1080
1185
1240
1243
1209
1150
1080
1006
921
794
605
396
245
180
133
19
-160
-301
-312
-227
-159
-145
-86
140
510
868
1077
1168
1290
1530
1808
1950
1864
1624
1389
1260
1190
1057
792
446
142
-28
-63
-17
53
111
154
210
312
467
631
726
705
593
457
351
280
234
194
145
74
-10
-80
-124
-150
-179
-216
-249
-275
-307
-351
-386
-396
-400
-435
-520
-622
-689
-700
-686
-689
-711
-722
-694
-640
-602
-615
-671
-728
-752
-753
-772
-833
-897
-903
-828
-717
-642
-623
-631
-630
-613
-590
-562
-527
-502
-514
-546
-543
-479
-400
-382
-450
-538
-570
-539
-491
-460
-437
-408
-389
-390
-389
-354
-311
-333
-450
-579
-605
-506
-392
-375
-443
-470
-367
-195
-90
-104
-165
-174
-130
-107
-130
-128
-45
80
138
97
49
112
282
443
497
465
447
491
558
582
545
483
423
364
309
287
322
391
441
446
432
438
442
386
267
161
146
201
221
143
29
1
81
154
76
-160
-412
-537
-513
-451
-454
-511
-532
-456
-323
-238
-267
-388
-552
-750
-970
-1148
-1178
-1028
-813
-704
-743
-799
-718
-511
-364
-456
-763
-1074
-1200
-1140
-1048
-1053
-1130
-1152
-1052
-884
-750
-664
-559
-418
-311
-314
-371
-323
-112
134
237
189
160
286
513
677
721
737
811
900
910
854
838
898
935
847
678
569
571
588
526
421
367
376
367
296
223
227
286
300
232
132
71
58
81
145
225
243
145
0
-46
49
153
98
-110
-310
-366
-292
-201
-164
-178
-225
-289
-333
-316
-243
-182
-175
-178
-106
73
313
559
796
1030
1249
1438
1590
1699
1755
1751
1701
1616
1467
1210
861
515
264
109
-8
-98
-117
-59
-2
-2
23
195
461
556
274
-250
-637
-657
-456
-363
-483
-588
-419
6
424
625
634
620
681
760
756
632
447
311
307
439
613
702
664
587
610
770
963
1061
1032
952
913
931
966
977
960
939
927
916
892
858
847
897
1001
1082
1056
909
720
585
510
406
204
-52
-244
-311
-320
-386
-531
-666
-701
-656
-623
-656
-719
-754
-747
-716
-675
-629
-596
-613
-688
-763
-767
-691
-601
-569
-600
-630
-612
-560
-503
-451
-383
-302
-254
-283
-363
-404
-336
-191
-72
-50
-95
-99
2
154
220
133
-30
-137
-139
-110
-126
-159
-130
-47
2
-17
-13
108
305
410
324
131
13
54
181
260
243
195
220
353
520
612
599
552
542
522
360
40
-268
-359
-254
-170
-272
-442
-415
-93
327
561
546
452
451
507
466
264
15
-120
-98
-21
16
18
49
111
136
80
0
-29
-19
-56
-173
-275
-232
-30
199
320
300
227
205
289
424
521
517
436
381
418
536
661
745
788
802
775
715
712
846
1071
1219
1176
1029
978
1099
1241
1213
1029
904
982
1149
1183
1036
888
914
1053
1091
951
791
816
1015
1191
1187
1054
967
986
1004
886
639
407
297
267
206
95
18
44
114
100
-19
-131
-125
-54
-52
-125
-96
190
660
1062
1248
1324
1503
1826
2116
2183
2029
1814
1654
1517
1307
997
660
375
143
-80
-305
-472
-520
-457
-362
-318
-336
-340
-271
-161
-97
-141
-259
-368
-418
-417
-397
-370
-346
-337
-341
-329
-265
-164
-85
-66
-71
-43
15
47
22
-12
-2
31
5
-99
-209
-244
-220
-219
-276
-343
-369
-372
-392
-432
-459
-471
-487
-509
-496
-434
-376
-370
-390
-372
-322
-322
-408
-489
-471
-391
-377
-471
-549
-471
-279
-165
-239
-395
-448
-370
-305
-373
-524
-597
-521
-389
-332
-363
-381
-322
-239
-228
-291
-355
-365
-359
-390
-425
-385
-277
-208
-257
-347
-346
-251
-184
-221
-276
-227
-96
-29
-74
-102
14
207
289
216
146
238
446
578
546
462
473
573
629
564
447
387
403
428
399
329
280
284
319
335
306
255
217
209
212
190
149
142
203
295
337
285
188
142
183
249
245
144
7
-86
-115
-117
-127
-152
-176
-198
-232
-276
-318
-347
-374
-414
-474
-544
-589
-570
-475
-343
-244
-232
-294
-363
-381
-361
-361
-416
-516
-614
-655
-610
-491
-337
-196
-104
-66
-55
-27
49
163
267
328
377
487
665
810
795
616
412
314
298
231
52
-141
-197
-88
76
182
207
203
229
312
425
512
538
536
572
667
758
779
755
766
820
823
718
592
583
687
751
667
538
551
736
899
847
610
424
457
639
753
695
592
670
1005
1451
1807
2021
2205
2492
2879
3227
3401
3389
3282
3145
2955
2671
2316
2000
1807
1703
1572
1350
1133
1088
1278
1577
1775
1797
1753
1791
1932
2067
2078
1960
1778
1583
1385
1195
1055
991
955
859
659
405
174
1
-125
-231
-341
-488
-706
-971
-1192
-1293
-1327
-1439
-1695
-1989
-2157
-2184
-2205
-2321
-2469
-2520
-2458
-2410
-2464
-2578
-2657
-2666
-2642
-2612
-2551
-2439
-2302
-2178
-2073
-1979
-1901
-1842
-1779
-1691
-1612
-1617
-1712
-1802
-1776
-1639
-1522
-1541
-1672
-1780
-1752
-1594
-1406
-1285
-1253
-1263
-1250
-1186
-1083
-1001
-993
-1075
-1187
-1212
-1094
-899
-766
-778
-871
-915
-871
-836
-894
-1000
-1049
-1027
-1047
-1167
-1270
-1192
-945
-740
-743
-858
-836
-568
-215
-19
-25
-62
41
249
386
362
276
281
394
490
464
353
289
349
487
595
609
543
474
488
616
785
862
781
621
541
600
682
641
477
343
361
492
590
573
502
472
488
496
458
404
383
396
402
388
372
370
371
360
333
313
304
284
229
145
61
9
-1
19
38
25
-24
-98
-169
-226
-274
-324
-378
-442
-526
-617
-664
-618
-471
-284
-155
-125
-146
-120
8
185
275
194
28
-22
153
444
631
621
536
548
669
766
753
690
680
725
767
799
878
998
1066
1027
960
982
1071
1083
957
812
813
951
1061
1038
960
964
1055
1093
986
808
705
702
686
569
430
420
563
688
611
378
220
288
475
566
539
597
898
1309
1565
1597
1620
1853
2207
2371
2175
1764
1412
1225
1099
899
611
302
16
-236
-430
-519
-490
-404
-361
-415
-510
-508
-303
48
325
335
103
-128
-144
15
122
30
-174
-298
-263
-165
-112
-97
-45
61
147
149
86
37
44
70
58
2
-44
-28
52
142
185
174
160
193
263
310
290
211
121
52
3
-42
-93
-148
-211
-282
-341
-366
-367
-385
-444
-522
-586
-643
-722
-812
-861
-852
-848
-910
-993
-969
-805
-633
-608
-708
-759
-660
-529
-551
-717
-822
-731
-549
-480
-572
-667
-617
-459
-333
-299
-288
-232
-144
-64
34
196
389
509
513
483
527
644
737
756
752
809
927
1030
1083
1132
1220
1307
1298
1161
977
856
817
778
671
518
407
406
489
566
566
484
373
284
225
160
64
-51
-162
-265
-368
-462
-507
-497
-486
-530
-601
-604
-504
-389
-366
-446
-534
-559
-550
-576
-649
-726
-779
-806
-797
-718
-589
-516
-575
-689
-696
-542
-374
-366
-500
-582
-458
-204
-33
-53
-172
-221
-135
5
95
121
156
265
440
639
822
978
1108
1206
1290
1406
1584
1785
1929
1983
2013
2107
2269
2409
2455
2435
2431
2467
2479
2402
2270
2175
2160
2166
2098
1929
1715
1537
1426
1362
1305
1230
1126
996
852
724
636
598
585
557
503
457
468
553
662
715
658
497
286
60
-178
-436
-700
-925
-1065
-1108
-1099
-1096
-1118
-1132
-1110
-1072
-1074
-1131
-1171
-1089
-849
-515
-198
66
330
659
1043
1390
1594
1614
1509
1378
1276
1171
989
698
349
46
-150
-244
-270
-267
-272
-317
-389
-410
-303
-98
66
74
-36
-112
-69
15
2
-155
-366
-526
-619
-683
-724
-702
-578
-365
-118
116
327
507
643
708
667
513
299
121
50
72
122
173
266
437
627
714
637
460
301
206
131
25
-102
-205
-261
-288
-295
-262
-174
-65
6
7
-29
-45
-29
-31
-101
-242
-399
-523
-616
-700
-773
-818
-834
-874
-992
-1186
-1382
-1495
-1494
-1408
-1289
-1173
-1064
-935
-752
-514
-267
-89
-39
-114
-265
-417
-513
-546
-569
-661
-838
-1011
-1045
-893
-661
-512
-503
-544
-503
-353
-195
-136
-185
-257
-269
-223
-184
-208
-270
-295
-240
-138
-72
-71
-87
-48
62
177
234
234
238
289
346
343
269
198
202
271
329
333
344
448
646
821
858
768
665
627
613
548
442
381
411
467
440
320
208
202
274
317
278
206
164
143
101
54
69
148
177
64
-123
-215
-153
-70
-136
-324
-448
-420
-362
-449
-657
-791
-742
-600
-536
-579
-614
-553
-426
-320
-272
-279
-349
-475
-600
-636
-558
-455
-427
-473
-507
-445
-287
-125
-62
-119
-199
-176
-23
125
105
-66
-190
-112
96
230
220
218
381
640
753
626
428
384
490
516
302
-39
-246
-201
-51
-9
-128
-270
-289
-190
-106
-135
-246
-339
-355
-319
-284
-262
-218
-113
72
320
583
788
878
901
994
1262
1647
1934
1965
1794
1622
1570
1545
1366
990
580
336
288
300
258
201
237
398
592
723
793
869
973
1051
1047
977
919
927
1010
1157
1354
1564
1733
1828
1852
1817
1711
1535
1333
1168
1052
955
858
798
813
867
880
842
809
793
709
457
70
-298
-537
-685
-835
-1009
-1164
-1263
-1325
-1357
-1330
-1250
-1196
-1236
-1326
-1334
-1202
-1015
-894
-853
-818
-756
-711
-714
-720
-672
-606
-614
-726
-847
-873
-810
-754
-768
-808
-812
-781
-769
-806
-851
-857
-835
-835
-879
-944
-984
-972
-916
-843
-786
-760
-746
-718
-674
-640
-642
-660
-657
-613
-548
-491
-441
-384
-321
-278
-254
-218
-150
-71
-18
21
102
239
359
389
372
435
638
873
950
792
526
354
369
481
535
464
337
279
364
545
686
688
571
448
408
436
440
363
247
184
196
213
154
34
-59
-74
-47
-60
-133
-182
-103
115
359
477
414
255
134
109
141
165
166
160
152
137
135
174
230
206
24
-260
-482
-529
-459
-403
-411
-415
-345
-213
-84
23
143
275
362
370
360
429
589
742
812
825
857
907
900
784
638
613
764
972
1057
966
827
799
893
971
924
811
763
808
841
790
730
778
919
981
857
660
593
701
799
707
455
256
252
366
417
345
257
269
361
397
303
159
106
187
296
321
299
396
720
1177
1557
1759
1886
2107
2443
2733
2787
2573
2231
1932
1735
1557
1267
827
338
-38
-232
-305
-378
-486
-561
-550
-496
-475
-485
-459
-376
-325
-397
-563
-679
-650
-537
-478
-540
-642
-670
-599
-507
-488
-559
-666
-744
-768
-756
-738
-732
-743
-765
-775
-748
-679
-618
-615
-669
-715
-695
-637
-624
-696
-790
-813
-753
-697
-716
-788
-828
-789
-722
-700
-743
-796
-805
-769
-726
-703
-687
-664
-640
-642
-676
-703
-676
-597
-523
-521
-599
-690
-710
-630
-501
-416
-420
-462
-439
-304
-121
-4
11
5
69
181
228
160
60
55
160
266
254
143
66
126
290
429
441
331
203
159
213
303
357
357
334
312
288
268
281
339
400
391
307
228
242
344
441
452
396
361
406
517
627
687
693
670
640
619
616
644
702
757
759
690
572
441
309
171
15
-163
-361
-565
-713
-733
-629
-504
-470
-521
-539
-450
-319
-265
-312
-370
-359
-305
-267
-218
-68
184
415
503
469
426
421
381
242
53
-82
-147
-218
-319
-352
-208
81
353
482
507
558
689
813
833
734
594
496
480
550
687
838
955
1030
1104
1194
1265
1267
1205
1151
1149
1170
1166
1139
1135
1150
1120
1018
927
934
998
967
780
602
658
968
1296
1415
1361
1375
1607
1932
2115
2076
1936
1814
1686
1471
1190
951
802
672
497
316
232
270
340
376
411
513
657
737
713
683
761
923
1020
941
735
542
411
256
-10
-335
-580
-687
-758
-911
-1109
-1180
-1038
-806
-694
-783
-954
-1053
-1029
-949
-896
-899
-933
-935
-852
-688
-558
-587
-774
-975
-1091
-1205
-1487
-1927
-2274
-2274
-1950
-1558
-1285
-1073
-747
-266
215
515
580
477
285
58
-165
-345
-480
-592
-680
-717
-683
-620
-598
-637
-698
-747
-800
-902
-1072
-1288
-1513
-1713
-1855
-1927
-1972
-2061
-2199
-2277
-2170
-1869
-1516
-1266
-1130
-998
-792
-556
-407
-415
-567
-801
-1029
-1164
-1167
-1086
-1029
-1040
-1030
-865
-542
-215
-52
-60
-90
-19
126
221
199
109
45
44
78
110
136
155
141
76
-6
-40
11
107
188
237
289
380
493
595
671
726
761
758
711
652
626
634
635
593
521
461
437
431
420
404
396
400
407
418
447
492
527
530
510
486
452
374
243
97
-40
-218
-500
-868
-1170
-1248
-1095
-860
-683
-556
-355
-9
394
675
728
605
442
332
260
169
41
-75
-121
-95
-32
37
98
145
159
119
43
-25
-56
-62
-63
-60
-42
-8
35
81
141
212
265
289
311
372
467
525
492
398
333
349
405
431
424
451
547
658
697
645
582
586
651
698
669
598
574
644
767
849
836
770
747
821
941
1001
949
841
774
782
811
786
698
592
516
475
439
380
315
292
321
350
309
191
82
71
151
236
295
416
704
1131
1528
1764
1884
2038
2296
2548
2615
2430
2110
1837
1697
1614
1445
1126
722
364
143
49
16
-8
-28
-7
98
318
637
988
1277
1435
1448
1341
1174
1029
971
987
971
821
560
331
258
315
359
294
172
122
213
395
541
574
494
362
234
116
-25
-210
-397
-507
-498
-394
-235
-8
325
734
1076
1199
1079
837
592
345
22
-383
-767
-1021
-1127
-1158
-1174
-1177
-1163
-1157
-1182
-1219
-1223
-1198
-1206
-1286
-1411
-1501
-1502
-1426
-1315
-1197
-1095
-1017
-959
-909
-880
-885
-914
-911
-829
-698
-622
-652
-712
-678
-510
-293
-128
-48
-25
-50
-130
-229
-275
-243
-202
-231
-303
-289
-109
179
427
536
515
435
360
319
310
318
316
292
280
332
462
633
795
919
996
1041
1078
1127
1194
1262
1311
1344
1379
1415
1425
1395
1347
1305
1274
1235
1186
1161
1189
1256
1324
1366
1385
1388
1367
1315
1238
1142
1015
844
650
481
369
300
234
151
69
7
-48
-127
-234
-348
-448
-543
-649
-757
-826
-828
-787
-762
-789
-849
-892
-895
-885
-903
-955
-1009
-1035
-1022
-978
-905
-810
-709
-632
-595
-581
-550
-475
-364
-248
-156
-104
-84
-76
-60
-25
16
44
50
51
85
175
311
456
579
672
742
793
814
807
799
811
824
802
730
655
656
756
888
967
988
1025
1128
1248
1288
1218
1108
1040
994
896
741
615
589
626
646
646
709
860
1002
1037
1024
1129
1421
1784
2033
2128
2187
2329
2545
2721
2741
2573
2263
1900
1575
1307
1019
621
136
-289
-526
-594
-615
-660
-689
-633
-510
-416
-398
-402
-360
-302
-335
-517
-763
-909
-868
-720
-611
-604
-638
-622
-553
-510
-536
-570
-539
-450
-390
-392
-385
-285
-114
-1
-32
-148
-219
-179
-101
-90
-161
-239
-259
-243
-243
-246
-187
-54
45
-23
-250
-451
-434
-199
55
140
57
-30
6
121
169
66
-140
-343
-485
-569
-594
-531
-375
-188
-64
-48
-94
-112
-76
-43
-95
-258
-469
-631
-677
-612
-489
-378
-329
-347
-395
-433
-451
-475
-514
-542
-526
-466
-394
-345
-325
-315
-291
-238
-163
-99
-78
-96
-81
38
240
405
436
362
308
356
453
490
431
345
319
354
389
387
376
404
467
509
492
432
382
361
338
272
164
57
2
5
34
52
49
38
28
23
12
-21
-88
-178
-255
-300
-323
-350
-375
-369
-323
-266
-227
-197
-150
-99
-97
-158
-195
-104
86
187
57
-211
-377
-323
-210
-281
-550
-758
-675
-370
-128
-118
-230
-248
-138
-76
-203
-456
-637
-642
-551
-500
-527
-544
-453
-258
-63
36
44
39
84
175
263
322
369
437
528
615
680
735
797
868
951
1050
1167
1287
1388
1465
1533
1622
1743
1867
1948
1952
1899
1853
1854
1869
1815
1645
1405
1201
1086
1023
936
795
657
581
564
540
464
376
352
412
480
467
400
419
628
955
1206
1265
1222
1280
1534
1871
2083
2049
1836
1601
1449
1356
1202
900
482
76
-195
-300
-296
-253
-207
-161
-108
-55
-6
41
74
64
-9
-123
-221
-271
-280
-295
-335
-370
-367
-356
-417
-572
-732
-765
-642
-493
-454
-502
-488
-335
-144
-80
-165
-259
-253
-193
-200
-300
-388
-373
-285
-220
-220
-254
-282
-287
-263
-209
-149
-133
-176
-236
-251
-213
-176
-178
-203
-222
-235
-249
-249
-208
-142
-107
-145
-229
-300
-330
-318
-271
-204
-155
-164
-221
-248
-184
-72
-32
-126
-287
-384
-369
-304
-267
-267
-254
-202
-150
-151
-200
-248
-264
-268
-303
-372
-432
-432
-367
-275
-209
-193
-209
-211
-160
-70
11
48
67
117
209
288
306
291
313
385
440
416
338
299
338
389
373
293
221
215
250
258
219
191
234
336
424
445
426
448
537
622
600
451
276
195
226
271
233
124
35
20
45
47
18
-4
-8
-28
-89
-154
-151
-64
41
85
52
1
-12
8
14
-25
-102
-189
-277
-356
-401
-381
-299
-208
-164
-174
-190
-151
-42
97
205
242
223
205
249
367
512
620
668
701
779
912
1056
1150
1181
1180
1177
1181
1190
1202
1217
1226
1206
1148
1061
970
897
842
780
686
562
450
402
431
500
557
600
661
732
732
580
298
15
-166
-273
-404
-577
-688
-650
-526
-474
-562
-701
-777
-814
-909
-1041
-1043
-788
-369
-15
181
358
689
