-1343
-1390
-1389
-1312
-1235
-1273
-1450
-1656
-1734
-1627
-1422
-1270
-1251
-1322
-1369
-1322
-1216
-1159
-1221
-1375
-1524
-1596
-1582
-1516
-1425
-1327
-1238
-1176
-1139
-1099
-1034
-957
-900
-878
-864
-816
-711
-570
-431
-326
-265
-239
-239
-251
-261
-253
-215
-153
-91
-54
-48
-54
-48
-24
12
53
99
150
200
234
253
262
267
260
225
161
93
52
54
87
117
116
81
42
34
64
103
100
42
-43
-106
-132
-154
-213
-321
-440
-519
-545
-543
-559
-622
-718
-806
-853
-857
-844
-852
-897
-966
-1027
-1050
-1040
-1029
-1041
-1076
-1101
-1098
-1094
-1122
-1175
-1192
-1130
-1015
-924
-907
-938
-951
-923
-889
-901
-969
-1063
-1148
-1214
-1267
-1320
-1381
-1442
-1482
-1480
-1445
-1410
-1405
-1424
-1437
-1426
-1406
-1403
-1424
-1448
-1464
-1477
-1499
-1529
-1549
-1555
-1553
-1557
-1571
-1588
-1600
-1601
-1588
-1563
-1527
-1484
-1441
-1410
-1407
-1443
-1503
-1548
-1541
-1492
-1454
-1474
-1540
-1590
-1576
-1513
-1460
-1459
-1491
-1514
-1504
-1476
-1456
-1455
-1468
-1489
-1516
-1547
-1580
-1612
-1645
-1670
-1678
-1665
-1637
-1607
-1588
-1595
-1634
-1686
-1716
-1706
-1677
-1678
-1731
-1797
-1822
-1782
-1712
-1666
-1669
-1714
-1782
-1859
-1926
-1971
-1994
-2010
-2035
-2065
-2085
-2095
-2115
-2161
-2231
-2301
-2351
-2387
-2427
-2490
-2563
-2613
-2606
-2535
-2442
-2386
-2394
-2429
-2432
-2388
-2336
-2314
-2298
-2223
-2036
-1738
-1360
-939
-497
-50
399
867
1351
1792
2087
2182
2130
2040
1963
1846
1606
1238
833
489
234
20
-198
-416
-594
-706
-768
-822
-902
-1011
-1119
-1189
-1208
-1196
-1190
-1206
-1232
-1242
-1221
-1183
-1150
-1138
-1140
-1142
-1138
-1123
-1090
-1039
-987
-957
-946
-934
-911
-909
-978
-1125
-1283
-1373
-1390
-1407
-1493
-1640
-1764
-1797
-1744
-1666
-1619
-1617
-1632
-1627
-1575
-1484
-1390
-1335
-1326
-1332
-1320
-1295
-1294
-1339
-1410
-1470
-1516
-1584
-1696
-1832
-1948
-2034
-2117
-2235
-2382
-2518
-2609
-2671
-2735
-2812
-2874
-2886
-2836
-2740
-2619
-2485
-2348
-2228
-2146
-2107
-2096
-2092
-2093
-2109
-2143
-2177
-2183
-2153
-2105
-2061
-2025
-1982
-1928
-1888
-1887
-1918
-1943
-1936
-1908
-1893
-1895
-1878
-1812
-1709
-1602
-1505
-1399
-1273
-1157
-1083
-1041
-988
-908
-844
-852
-926
-991
-977
-902
-856
-891
-970
-995
-927
-823
-768
-787
-835
-861
-863
-863
-853
-812
-761
-762
-836
-917
-910
-809
-717
-721
-790
-806
-708
-562
-485
-515
-585
-606
-560
-502
-484
-507
-522
-493
-432
-387
-389
-412
-403
-356
-329
-380
-484
-551
-524
-449
-422
-472
-539
-548
-503
-479
-522
-609
-682
-721
-743
-763
-763
-726
-667
-619
-593
-569
-528
-485
-470
-493
-537
-571
-587
-592
-591
-579
-548
-506
-474
-461
-455
-430
-378
-326
-314
-366
-458
-531
-542
-504
-476
-501
-566
-618
-625
-609
-619
-676
-755
-812
-827
-811
-791
-788
-804
-819
-810
-766
-703
-659
-663
-708
-749
-739
-675
-604
-575
-591
-611
-597
-563
-549
-573
-602
-588
-522
-448
-411
-409
-396
-337
-254
-212
-250
-336
-403
-413
-393
-393
-423
-444
-419
-362
-322
-324
-351
-369
-371
-375
-389
-397
-386
-375
-392
-431
-457
-447
-431
-456
-532
-610
-638
-617
-591
-597
-631
-668
-700
-748
-834
-960
-1102
-1230
-1321
-1380
-1447
-1560
-1720
-1885
-2013
-2105
-2201
-2319
-2421
-2448
-2381
-2253
-2106
-1931
-1683
-1321
-862
-394
-12
233
378
497
617
691
654
505
323
186
93
-14
-165
-313
-389
-393
-397
-469
-591
-682
-693
-648
-612
-617
-645
-668
-689
-723
-758
-765
-743
-724
-743
-792
-831
-832
-808
-791
-786
-756
-653
-464
-234
-70
-62
-207
-395
-509
-558
-679
-982
-1381
-1628
-1541
-1207
-901
-823
-921
-1008
-1027
-1114
-1397
-1768
-1951
-1809
-1512
-1345
-1368
-1337
-992
-400
68
90
-307
-817
-1177
-1375
-1560
-1823
-2101
-2272
-2289
-2202
-2066
-1906
-1740
-1609
-1537
-1496
-1422
-1296
-1178
-1129
-1125
-1081
-955
-820
-780
-842
-899
-874
-807
-800
-877
-944
-901
-759
-620
-537
-448
-252
40
256
193
-193
-704
-1047
-1083
-961
-967
-1232
-1587
-1720
-1495
-1089
-822
-865
-1135
-1420
-1567
-1549
-1430
-1309
-1286
-1363
-1373
-1084
-411
433
1083
1333
1275
1150
1097
1096
1076
1042
1035
1043
1006
908
828
848
934
931
706
284
-163
-460
-559
-533
-481
-438
-410
-421
-493
-590
-634
-587
-524
-555
-696
-843
-872
-748
-516
-234
53
270
335
243
118
117
260
407
392
198
-18
-81
28
138
54
-229
-471
-389
54
575
819
693
440
366
548
779
795
493
-24
-557
-912
-986
-828
-637
-628
-833
-1056
-1054
-771
-393
-162
-165
-311
-465
-565
-617
-644
-643
-572
-367
-2
407
614
451
55
-189
-30
333
402
-98
-890
-1408
-1357
-968
-703
-782
-1043
-1212
-1195
-1099
-1040
-1016
-967
-880
-813
-812
-840
-819
-713
-571
-469
-445
-459
-440
-372
-312
-316
-346
-285
-67
208
324
161
-144
-258
42
613
1017
918
415
-44
-98
182
405
280
-99
-397
-393
-160
76
173
149
93
57
47
68
140
269
461
716
993
1180
1157
921
630
476
477
450
197
-271
-710
-862
-680
-342
-78
4
-73
-241
-449
-657
-838
-1015
-1265
-1618
-1938
-1980
-1606
-952
-315
130
464
859
1322
1670
1768
1691
1627
1640
1612
1407
1061
748
581
502
376
165
-41
-134
-111
-71
-101
-186
-222
-113
117
338
410
296
87
-76
-114
-69
-50
-134
-312
-533
-759
-969
-1093
-1032
-773
-474
-368
-519
-732
-752
-549
-380
-513
-934
-1359
-1524
-1417
-1219
-1085
-1026
-978
-917
-868
-844
-825
-800
-792
-830
-893
-930
-914
-867
-824
-790
-755
-724
-727
-782
-856
-886
-858
-817
-819
-857
-874
-853
-842
-885
-933
-876
-697
-533
-539
-704
-844
-816
-678
-627
-760
-971
-1076
-1010
-861
-744
-700
-701
-723
-758
-791
-794
-774
-777
-831
-904
-934
-900
-845
-814
-801
-773
-723
-686
-696
-739
-772
-768
-746
-738
-746
-748
-733
-719
-733
-769
-788
-759
-694
-638
-623
-639
-650
-631
-595
-567
-561
-566
-568
-560
-550
-546
-548
-547
-531
-499
-463
-442
-442
-446
-450
-432
-408
-393
-387
-381
-369
-360
-356
-349
-329
-299
-279
-283
-308
-339
-369
-395
-415
-431
-447
-462
-467
-452
-431
-433
-466
-500
-497
-461
-440
-469
-530
-565
-549
-502
-461
-431
-400
-362
-327
-300
-273
-253
-265
-318
-382
-405
-379
-344
-337
-346
-331
-287
-255
-271
-311
-326
-308
-303
-349
-414
-437
-395
-336
-316
-339
-364
-365
-357
-363
-367
-332
-253
-177
-161
-215
-292
-347
-368
-377
-399
-444
-513
-594
-645
-625
-534
-426
-367
-361
-362
-337
-314
-340
-403
-440
-419
-402
-476
-638
-779
-793
-696
-598
-584
-623
-622
-543
-436
-377
-390
-450
-534
-638
-748
-819
-810
-740
-668
-628
-587
-498
-378
-306
-336
-421
-460
-412
-334
-293
-279
-222
-108
-10
-16
-115
-224
-276
-286
-302
-337
-348
-307
-246
-219
-243
-282
-298
-288
-296
-364
-486
-607
-664
-631
-540
-457
-431
-478
-579
-693
-776
-817
-865
-990
-1224
-1505
-1734
-1871
-1973
-2103
-2238
-2283
-2180
-1974
-1742
-1490
-1140
-637
-39
513
917
1171
1343
1480
1585
1630
1593
1458
1224
932
653
442
292
162
38
-58
-119
-185
-288
-392
-429
-378
-308
-295
-334
-357
-328
-279
-259
-280
-321
-372
-425
-458
-450
-419
-413
-460
-527
-565
-555
-518
-467
-406
-354
-336
-340
-309
-212
-103
-83
-184
-330
-417
-426
-435
-528
-703
-857
-880
-759
-602
-543
-605
-677
-636
-492
-393
-453
-619
-725
-688
-590
-564
-625
-671
-630
-556
-562
-678
-819
-887
-870
-838
-860
-938
-1019
-1047
-1003
-920
-855
-847
-879
-902
-887
-849
-816
-779
-707
-604
-521
-499
-517
-514
-467
-421
-433
-502
-567
-574
-532
-501
-528
-599
-653
-637
-555
-458
-396
-369
-347
-319
-310
-331
-347
-322
-283
-303
-406
-512
-510
-375
-206
-114
-126
-179
-207
-194
-171
-172
-205
-255
-304
-341
-366
-386
-389
-365
-328
-307
-318
-343
-351
-344
-355
-395
-432
-434
-416
-421
-458
-482
-451
-386
-341
-346
-379
-403
-417
-447
-500
-554
-576
-554
-507
-467
-449
-444
-435
-410
-383
-381
-413
-460
-484
-464
-419
-390
-404
-448
-482
-480
-456
-456
-505
-579
-625
-615
-579
-555
-551
-535
-477
-397
-350
-372
-445
-522
-568
-585
-591
-592
-578
-546
-504
-459
-403
-331
-260
-226
-253
-328
-411
-471
-496
-478
-412
-316
-244
-246
-310
-367
-364
-325
-327
-410
-544
-658
-706
-688
-628
-550
-481
-451
-460
-480
-488
-488
-498
-514
-513
-479
-431
-403
-405
-427
-475
-570
-697
-784
-774
-705
-677
-709
-658
-349
189
666
785
549
263
209
336
331
-16
-561
-937
-916
-612
-323
-241
-320
-391
-351
-238
-160
-186
-302
-431
-500
-482
-405
-315
-234
-152
-70
-28
-60
-137
-180
-137
-42
14
-26
-124
-189
-181
-141
-139
-205
-308
-397
-435
-433
-441
-519
-675
-851
-977
-1044
-1113
-1238
-1380
-1444
-1380
-1239
-1100
-988
-856
-649
-353
9
394
760
1080
1349
1586
1792
1918
1901
1739
1518
1330
1184
1006
748
467
281
244
291
311
262
200
191
226
231
161
57
-1
5
9
-58
-180
-272
-284
-254
-261
-319
-366
-341
-266
-222
-258
-331
-365
-331
-274
-255
-284
-322
-332
-326
-340
-381
-415
-414
-396
-412
-482
-569
-616
-603
-563
-537
-541
-562
-591
-624
-653
-668
-670
-678
-706
-743
-759
-747
-729
-730
-752
-775
-792
-806
-823
-837
-838
-830
-822
-815
-797
-761
-723
-700
-694
-687
-665
-638
-624
-624
-615
-572
-499
-431
-392
-365
-315
-242
-176
-145
-142
-138
-135
-153
-188
-199
-159
-106
-108
-179
-258
-276
-235
-197
-208
-248
-267
-242
-190
-143
-116
-101
-79
-37
12
35
15
-20
-18
45
143
224
259
257
234
196
153
131
142
162
163
144
141
179
245
301
326
333
336
329
302
266
247
257
285
311
323
313
269
192
117
103
173
283
345
318
243
208
249
312
311
220
98
22
-2
-36
-109
-163
-114
34
160
152
35
-52
-12
94
126
18
-149
-235
-181
-51
53
85
71
43
-3
-85
-176
-198
-89
116
295
354
328
345
470
604
575
330
13
-162
-119
20
86
37
-18
39
186
292
248
66
-151
-315
-408
-455
-483
-488
-469
-429
-377
-321
-274
-259
-288
-348
-405
-441
-457
-467
-479
-496
-517
-542
-567
-575
-550
-487
-399
-308
-220
-119
-7
74
63
-44
-163
-181
-71
72
129
79
15
29
113
190
213
204
202
211
204
183
185
230
299
342
337
309
289
278
266
250
241
242
229
176
91
8
-34
-21
29
87
124
132
125
116
102
52
-52
-191
-314
-395
-455
-530
-610
-659
-676
-708
-803
-958
-1132
-1293
-1436
-1554
-1629
-1639
-1563
-1374
-1054
-639
-229
106
413
806
1303
1762
2012
2045
2011
2031
2053
1941
1668
1348
1098
919
743
560
443
444
519
577
582
567
566
565
519
421
305
212
158
135
126
118
101
69
39
47
104
166
162
56
-101
-219
-245
-215
-204
-243
-300
-341
-354
-355
-347
-334
-347
-427
-563
-675
-689
-633
-599
-609
-554
-311
81
407
469
277
27
-113
-164
-278
-545
-892
-1156
-1230
-1142
-993
-858
-762
-699
-661
-635
-613
-595
-598
-629
-668
-679
-650
-603
-555
-496
-414
-336
-313
-351
-390
-369
-308
-289
-352
-430
-415
-299
-190
-193
-278
-303
-174
45
184
135
-47
-209
-236
-145
-44
-27
-101
-176
-152
-12
160
240
172
18
-104
-126
-74
-32
-59
-141
-229
-279
-278
-234
-169
-105
-52
-9
30
57
60
39
23
36
69
85
49
-26
-95
-114
-79
-24
7
3
-12
-12
-4
-18
-62
-94
-94
-110
-201
-322
-327
-125
170
335
301
262
456
850
1132
1029
612
202
30
35
0
-177
-406
-538
-522
-408
-279
-198
-204
-295
-415
-490
-491
-450
-408
-366
-293
-179
-59
23
51
49
50
77
120
141
108
37
-17
-16
16
19
-17
-45
-22
28
57
53
54
80
90
23
-118
-266
-366
-427
-491
-578
-673
-743
-750
-670
-519
-370
-309
-344
-389
-339
-180
-13
40
-54
-206
-275
-162
105
385
513
424
213
50
31
86
47
-179
-532
-863
-1075
-1185
-1281
-1422
-1587
-1718
-1787
-1811
-1807
-1757
-1626
-1414
-1177
-990
-869
-750
-557
-298
-80
-9
-75
-155
-131
15
213
385
505
577
616
641
682
742
790
792
753
725
733
751
742
712
716
779
870
928
942
947
985
1043
1053
955
763
574
471
433
350
162
-65
-202
-223
-244
-395
-672
-947
-1112
-1154
-1087
-894
-559
-154
192
415
599
872
1250
1613
1821
1856
1840
1920
2131
2379
2524
2493
2313
2070
1829
1601
1365
1104
831
600
479
473
512
520
497
517
614
701
650
452
260
224
334
434
391
221
31
-97
-150
-144
-91
-14
64
133
208
291
333
280
135
-41
-192
-304
-387
-422
-371
-235
-79
16
33
20
26
58
85
76
-15
-229
-512
-660
-405
319
1208
1782
1804
1535
1486
1871
2368
2425
1808
826
17
-349
-439
-595
-985
-1478
-1825
-1889
-1719
-1435
-1132
-861
-663
-566
-539
-503
-373
-153
47
98
-29
-199
-213
1
311
491
454
360
425
671
883
864
662
484
444
475
501
583
810
1073
1104
791
368
176
267
342
109
-352
-668
-612
-364
-303
-561
-866
-842
-417
97
335
256
161
345
764
1072
963
440
-212
-698
-928
-1025
-1166
-1419
-1687
-1768
-1510
-955
-342
64
155
32
-109
-149
-114
-103
-147
-134
99
623
1287
1789
1924
1774
1631
1718
1955
2036
1735
1134
550
264
309
486
567
495
380
359
456
583
646
615
525
421
331
287
312
387
458
498
561
765
1166
1708
2244
2630
2791
2747
2555
2210
1643
806
-199
-1120
-1697
-1854
-1747
-1555
-1295
-861
-225
433
871
1030
1063
1126
1191
1129
920
691
541
453
382
421
676
1040
1188
948
586
562
986
1447
1493
1173
975
1214
1624
1670
1167
468
34
-75
-191
-571
-1095
-1410
-1314
-926
-502
-176
96
408
749
1000
1066
995
947
1000
1033
872
527
307
537
1175
1769
1881
1548
1218
1246
1539
1758
1768
1782
2027
2377
2465
2110
1535
1110
946
805
429
-145
-615
-743
-599
-454
-489
-677
-852
-919
-930
-993
-1140
-1316
-1460
-1548
-1554
-1435
-1203
-983
-927
-1060
-1227
-1249
-1135
-1131
-1468
-2069
-2526
-2446
-1843
-1178
-929
-1126
-1340
-1144
-550
32
258
162
31
61
230
428
628
851
1066
1194
1211
1182
1195
1238
1206
1006
655
258
-88
-321
-396
-241
175
713
1068
953
383
-287
-673
-743
-833
-1290
-2079
-2771
-2941
-2539
-1899
-1425
-1263
-1246
-1149
-951
-819
-863
-975
-989
-898
-862
-925
-894
-559
-33
276
105
-361
-699
-715
-585
-551
-643
-695
-596
-402
-221
-86
24
111
155
161
160
170
166
112
16
-72
-97
-52
33
115
157
162
175
239
358
498
604
650
655
654
663
659
587
404
98
-281
-623
-783
-690
-440
-246
-262
-435
-532
-369
-16
256
228
-94
-506
-779
-828
-717
-600
-602
-720
-832
-807
-648
-491
-451
-515
-574
-582
-575
-607
-652
-659
-658
-746
-960
-1202
-1314
-1221
-976
-717
-576
-619
-812
-1012
-1071
-996
-987
-1271
-1841
-2405
-2623
-2429
-2066
-1835
-1821
-1886
-1883
-1779
-1641
-1516
-1413
-1337
-1306
-1315
-1286
-1128
-835
-507
-281
-197
-184
-171
-173
-253
-417
-540
-471
-204
75
151
-20
-277
-428
-446
-480
-680
-1027
-1345
-1464
-1367
-1158
-949
-780
-628
-468
-312
-203
-164
-189
-253
-314
-331
-294
-217
-130
-41
81
268
478
567
390
-9
-380
-461
-226
76
152
-64
-362
-493
-420
-327
-421
-722
-1068
-1259
-1209
-1008
-819
-745
-755
-715
-522
-202
94
228
206
159
198
320
410
399
337
341
459
618
703
687
630
606
641
712
798
895
965
934
768
545
422
510
776
1066
1215
1172
1025
909
879
890
866
828
893
1127
1414
1531
1359
1023
756
642
530
234
-222
-598
-674
-453
-134
85
180
246
364
512
594
535
342
82
-148
-263
-229
-82
68
129
106
88
126
158
78
-107
-250
-230
-130
-152
-371
-611
-621
-377
-131
-153
-465
-842
-1064
-1101
-1085
-1147
-1298
-1449
-1479
-1295
-903
-420
8
305
523
750
999
1202
1305
1357
1443
1556
1587
1463
1252
1085
1009
945
786
538
324
257
332
438
455
361
219
114
73
49
-1
-59
-87
-87
-99
-107
-27
185
432
514
337
29
-184
-188
-63
11
-85
-336
-605
-721
-578
-224
149
337
275
105
28
124
291
364
233
-69
-412
-663
-751
-700
-602
-564
-636
-757
-799
-675
-436
-244
-203
-254
-261
-166
-67
-77
-161
-185
-117
-97
-277
-592
-770
-621
-263
-41
-178
-507
-616
-273
299
612
408
-62
-303
-116
207
228
-142
-581
-767
-718
-676
-755
-831
-770
-624
-543
-540
-469
-256
-16
87
37
-38
-28
26
32
-16
-71
-141
-290
-478
-534
-322
72
374
380
191
82
194
382
393
175
-76
-166
-121
-94
-126
-117
-9
112
141
140
265
505
616
431
119
18
221
458
408
79
-204
-193
64
327
417
324
156
48
66
152
168
25
-183
-270
-187
-55
4
42
173
351
380
175
-80
-170
-141
-230
-525
-806
-815
-582
-383
-401
-517
-495
-302
-132
-140
-278
-361
-307
-214
-214
-318
-427
-454
-415
-380
-381
-368
-282
-148
-67
-132
-291
-390
-332
-178
-70
-62
-65
36
208
293
204
24
-108
-188
-332
-603
-892
-1017
-928
-742
-598
-512
-436
-370
-372
-447
-476
-351
-146
-98
-341
-680
-695
-122
858
1731
2079
1909
1605
1531
1682
1733
1374
635
-136
-592
-653
-501
-334
-185
29
308
541
656
711
811
932
932
745
537
532
741
957
1000
952
1009
1178
1229
990
628
507
753
1057
1004
556
109
70
438
826
891
655
400
345
462
588
591
432
138
-212
-467
-459
-149
289
590
634
528
454
473
479
349
83
-208
-413
-456
-284
129
705
1256
1622
1841
2100
2475
2791
2799
2470
2088
1958
2060
2098
1861
1465
1192
1143
1137
942
562
201
16
-37
-90
-173
-212
-160
-79
-71
-146
-215
-220
-199
-242
-396
-615
-799
-856
-761
-581
-447
-439
-490
-443
-233
0
55
-103
-277
-286
-191
-215
-440
-685
-719
-552
-411
-428
-462
-294
62
342
355
221
241
511
813
858
628
364
269
306
314
242
180
195
232
239
295
500
778
898
754
508
413
489
512
325
59
-6
200
458
543
501
552
795
1063
1121
939
706
612
642
621
429
152
-20
6
119
124
-59
-325
-514
-565
-547
-554
-602
-630
-581
-454
-288
-118
49
225
406
535
554
468
367
338
370
372
299
254
381
698
1032
1174
1101
981
981
1071
1061
838
505
290
310
470
578
557
484
455
469
447
356
243
162
111
72
69
134
223
244
142
-11
-84
-42
1
-94
-315
-504
-509
-346
-180
-150
-231
-298
-294
-307
-433
-587
-539
-188
251
412
159
-251
-449
-350
-234
-410
-852
-1248
-1341
-1175
-968
-838
-719
-524
-296
-143
-101
-102
-70
-16
-9
-97
-239
-324
-285
-160
-60
-63
-128
-140
-25
150
234
172
69
76
219
369
381
264
181
284
556
807
834
613
304
99
23
-72
-310
-626
-826
-814
-696
-639
-653
-605
-425
-237
-226
-396
-559
-551
-388
-203
-79
-8
53
124
199
279
342
356
301
213
145
117
133
211
387
637
836
870
757
641
623
671
690
644
565
483
404
346
352
422
486
495
501
589
742
827
771
666
637
650
541
255
-57
-232
-331
-546
-890
-1091
-910
-488
-248
-441
-855
-1054
-880
-607
-601
-884
-1128
-1029
-614
-152
170
427
816
1382
1932
2238
2282
2266
2363
2521
2541
2315
1944
1628
1464
1411
1381
1336
1266
1167
1051
974
988
1059
1084
988
809
656
600
614
643
654
652
642
612
551
478
420
378
332
267
201
166
169
181
179
177
209
261
255
130
-55
-155
-106
-26
-94
-310
-476
-424
-236
-143
-242
-369
-328
-159
-97
-272
-541
-663
-595
-510
-555
-676
-718
-633
-520
-476
-483
-474
-445
-450
-515
-590
-616
-595
-567
-549
-535
-518
-498
-463
-400
-332
-323
-399
-489
-488
-377
-251
-230
-320
-408
-389
-256
-106
-43
-91
-190
-236
-162
-8
92
28
-165
-323
-310
-177
-120
-266
-539
-728
-695
-504
-345
-343
-467
-577
-561
-415
-236
-142
-175
-266
-288
-160
69
257
288
182
77
94
220
320
281
136
38
99
287
464
532
514
485
465
423
355
313
337
378
345
230
136
159
270
347
318
231
179
181
177
124
61
58
127
213
260
250
203
148
113
129
193
258
256
187
141
224
442
674
784
758
722
791
929
981
841
574
356
296
351
410
418
407
414
435
451
471
501
495
383
179
3
-33
53
128
97
-6
-77
-58
3
43
55
73
109
134
114
74
76
161
295
379
330
171
32
44
210
382
394
219
-3
-90
7
161
195
50
-160
-258
-170
16
164
218
230
251
269
255
242
298
414
464
358
175
102
218
390
433
332
251
297
373
302
88
-47
80
380
579
517
312
202
274
403
411
266
70
-64
-103
-91
-86
-121
-198
-290
-367
-423
-484
-554
-606
-609
-564
-486
-355
-119
220
573
838
995
1110
1247
1415
1593
1764
1914
2023
2073
2076
2048
1967
1814
1631
1507
1456
1370
1127
748
413
262
129
206
20
-238
-422
-454
-378
-282
-223
-212
-231
-258
-276
-274
-257
-247
-267
-324
-389
-430
-434
-435
-470
-517
-501
-385
-241
-192
-271
-366
-329
-146
26
22
-155
-346
-410
-374
-363
-443
-542
-562
-515
-513
-619
-757
-810
-764
-715
-743
-815
-827
-732
-588
-488
-475
-511
-540
-535
-517
-517
-538
-565
-579
-572
-547
-516
-503
-520
-551
-531
-407
-224
-124
-204
-379
-444
-311
-126
-98
-248
-395
-392
-273
-160
-74
55
226
311
244
161
230
418
482
265
-89
-284
-185
63
249
324
405
582
798
895
781
532
311
212
184
105
-57
-198
-192
-24
197
376
509
630
708
676
543
412
355
311
194
24
-75
-22
99
146
100
87
208
399
506
480
428
466
571
608
507
363
327
430
540
529
415
330
355
425
418
331
291
409
644
848
902
811
663
532
455
407
328
169
-51
-220
-210
13
317
516
532
460
441
534
688
793
770
633
478
426
495
581
549
408
318
393
567
687
695
670
675
646
513
372
387
566
697
597
366
293
506
806
888
678
386
242
260
286
234
171
197
294
373
404
450
561
681
705
613
512
499
556
585
562
565
665
813
876
806
721
781
1016
1283
1407
1345
1224
1194
1269
1313
1194
932
697
635
717
782
711
546
413
369
351
285
183
107
59
-33
-210
-390
-446
-368
-292
-339
-456
-498
-433
-409
-565
-833
-1006
-995
-945
-1049
-1295
-1492
-1519
-1467
-1481
-1547
-1507
-1287
-1028
-910
-933
-916
-732
-453
-241
-147
-77
59
234
369
450
537
648
707
618
394
154
-1
-77
-160
-305
-483
-613
-646
-590
-487
-395
-357
-385
-437
-444
-383
-309
-305
-377
-431
-365
-188
-19
38
-13
-77
-92
-83
-119
-215
-316
-360
-340
-288
-228
-144
-17
144
301
418
481
508
526
551
591
620
605
554
506
492
476
385
202
4
-109
-130
-152
-256
-413
-520
-507
-393
-231
-57
100
203
232
230
276
404
546
600
535
431
393
452
543
582
545
487
471
480
444
325
171
75
72
106
104
74
93
195
315
356
297
204
152
149
156
154
182
273
402
496
518
515
571
709
851
878
763
615
584
715
912
1039
1050
1022
1053
1151
1236
1247
1202
1164
1164
1189
1218
1260
1332
1426
1501
1532
1525
1489
1424
1331
1245
1203
1203
1207
1193
1184
1213
1263
1280
1239
1178
1144
1118
1038
892
736
632
569
491
370
240
129
5
-178
-391
-543
-565
-485
-399
-359
-335
-278
-188
-121
-114
-152
-199
-236
-267
-284
-263
-198
-128
-93
-81
-35
79
214
292
306
322
416
598
808
979
1086
1151
1212
1280
1319
1269
1110
923
831
876
974
1009
976
984
1092
1238
1316
1319
1333
1395
1432
1352
1172
987
859
755
632
517
469
491
523
520
538
673
957
1302
1544
1569
1412
1248
1244
1383
1472
1357
1110
972
1102
1426
1771
2051
2280
2448
2505
2472
2477
2604
2728
2605
2132
1444
737
70
-589
-1187
-1554
-1589
-1382
-1109
-827
-441
121
771
1301
1564
1591
1525
1483
1448
1324
1047
683
371
171
-3
-277
-686
-1137
-1493
-1689
-1754
-1764
-1782
-1809
-1752
-1513
-1131
-807
-717
-814
-855
-660
-300
5
152
251
452
756
1013
1086
966
749
551
431
346
171
-194
-687
-1108
-1305
-1322
-1316
-1339
-1277
-1047
-775
-683
-803
-909
-787
-503
-326
-405
-615
-745
-766
-827
-1036
-1345
-1663
-1989
-2373
-2757
-2970
-2897
-2622
-2365
-2276
-2334
-2411
-2391
-2236
-2002
-1797
-1722
-1793
-1922
-1980
-1881
-1628
-1307
-1044
-918
-908
-895
-762
-517
-280
-168
-171
-183
-144
-98
-119
-210
-305
-339
-306
-216
-46
256
709
1247
1752
2100
2222
2125
1850
1429
873
225
-402
-879
-1173
-1372
-1573
-1741
-1739
-1500
-1148
-891
-822
-842
-787
-603
-352
-135
-12
16
0
34
186
411
539
433
159
-47
4
281
581
721
662
486
316
248
297
366
318
134
-20
38
257
361
159
-194
-315
-26
420
594
345
-53
-196
41
421
618
519
266
106
186
492
878
1161
1202
992
660
414
425
703
1079
1295
1198
880
602
560
699
781
627
289
-39
-232
-279
-176
116
549
904
967
796
701
894
1188
1181
729
141
-152
-70
85
21
-224
-395
-358
-211
-88
37
299
733
1187
1454
1443
1228
958
747
594
402
97
-247
-440
-354
-87
122
150
128
276
625
944
974
687
308
76
25
17
-47
-114
-60
155
438
663
775
810
841
925
1071
1209
1226
1051
743
453
293
227
144
6
-108
-105
24
213
398
546
626
621
566
553
629
734
767
706
647
690
834
1007
1154
1253
1295
1279
1227
1175
1117
1012
870
797
892
1117
1303
1320
1207
1108
1097
1121
1104
1049
1015
1018
1015
987
971
1008
1061
1050
945
803
686
601
511
411
340
315
293
230
134
55
14
-25
-100
-200
-268
-263
-180
-20
215
492
761
1011
1309
1718
2170
2471
2476
2256
2045
2004
2079
2093
1963
1774
1665
1684
1765
1829
1842
1800
1696
1519
1306
1134
1051
1045
1053
1033
995
989
1040
1115
1146
1094
982
866
776
700
619
554
550
612
679
684
621
551
530
549
564
543
495
437
384
358
386
456
506
477
389
335
383
493
561
526
430
358
358
407
461
486
471
418
336
240
150
86
56
65
100
141
181
230
309
405
470
460
375
270
201
184
197
207
204
199
202
220
241
245
221
179
145
121
93
51
17
28
98
183
222
196
159
173
248
337
380
348
246
119
39
65
170
229
140
-27
-51
215
664
1021
1125
1086
1135
1356
1610
1711
1612
1417
1242
1140
1122
1186
1297
1384
1399
1373
1395
1504
1632
1674
1594
1449
1312
1214
1145
1096
1066
1048
1019
968
909
866
837
799
739
683
666
687
706
682
625
583
582
599
585
528
466
442
461
496
522
542
570
603
620
612
592
580
576
568
555
554
575
603
618
622
647
713
799
862
884
894
927
984
1038
1068
1085
1113
1159
1210
1249
1273
1290
1305
1317
1325
1331
1336
1339
1333
1317
1298
1291
1299
1311
1310
1286
1247
1211
1191
1184
1186
1204
1239
1277
1296
1288
1270
1263
1267
1262
1233
1193
1161
1143
1124
1096
1072
1074
1105
1144
1168
1178
1195
1228
1271
1312
1352
1402
1459
1507
1528
1533
1550
1606
1696
1791
1862
1907
1942
1985
2040
2092
2117
2109
2076
2040
2022
2027
2042
2055
2064
2078
2106
2140
2161
2144
2078
1976
1862
1759
1655
1518
1347
1175
1035
905
730
518
336
231
148
-15
-259
-446
-435
-254
-68
15
62
212
508
870
1204
1494
1735
1893
1951
1962
1989
1993
1857
1537
1147
848
677
528
319
109
17
51
96
53
-41
-61
25
108
45
-169
-386
-452
-361
-263
-284
-394
-452
-381
-249
-186
-221
-277
-290
-283
-303
-352
-395
-423
-466
-531
-575
-572
-555
-574
-614
-625
-598
-584
-601
-602
-541
-456
-436
-496
-548
-515
-432
-399
-452
-523
-532
-482
-436
-422
-406
-361
-312
-306
-343
-369
-349
-304
-272
-263
-257
-236
-216
-217
-233
-239
-218
-188
-181
-201
-223
-224
-211
-208
-213
-200
-158
-108
-89
-106
-115
-72
11
79
102
111
158
243
313
327
305
311
372
452
501
520
544
589
630
638
625
632
675
719
723
692
675
707
774
836
873
906
958
1014
1034
1008
977
984
1028
1067
1075
1069
1082
1116
1140
1140
1145
1180
1226
1233
1182
1119
1103
1144
1193
1202
1174
1149
1150
1155
1137
1099
1067
1055
1045
1009
949
897
885
912
947
959
943
917
910
931
970
1002
1008
997
988
1001
1037
1074
1089
1078
1055
1052
1081
1127
1155
1144
1106
1075
1077
1102
1121
1114
1086
1056
1042
1048
1066
1078
1069
1042
1017
1010
1013
992
933
865
833
847
873
866
823
780
760
754
736
705
681
675
670
644
600
567
564
589
616
629
625
617
610
604
599
598
605
615
618
606
583
560
551
559
578
597
608
610
607
606
610
622
639
654
656
650
645
641
633
619
621
673
765
835
819
730
659
683
774
838
829
794
811
889
964
986
974
973
976
941
846
722
613
523
428
332
265
232
192
113
14
-62
-114
-192
-332
-510
-667
-767
-808
-777
-637
-376
-59
223
451
697
1028
1413
1750
1987
2171
2360
2533
2597
2514
2366
2265
2217
2114
1862
1506
1202
1063
1064
1082
1040
957
904
913
955
987
986
947
868
760
664
623
635
653
622
530
410
307
245
222
232
271
341
434
519
564
552
512
486
485
477
434
370
322
294
240
137
33
5
66
139
144
82
38
77
183
292
359
379
367
335
293
252
224
210
200
176
128
85
104
204
320
321
151
-93
-225
-158
-4
48
-48
-143
-71
167
412
526
508
457
440
446
439
401
336
243
109
-50
-131
25
497
1143
1637
1706
1393
1046
974
1121
1135
765
136
-385
-551
-403
-117
220
620
1039
1347
1469
1490
1545
1615
1520
1113
462
-205
-673
-851
-739
-376
118
518
641
548
564
1004
1816
2526
2622
2043
1245
758
691
693
353
-381
-1172
-1631
-1629
-1332
-994
-755
-590
-380
-57
323
625
739
663
478
266
63
-99
-163
-91
60
168
185
200
314
495
579
453
202
56
182
533
879
990
822
541
394
489
695
779
631
364
183
171
241
271
264
327
501
695
784
760
736
796
881
874
780
768
988
1362
1626
1573
1257
928
781
797
830
778
650
507
400
378
480
696
909
977
879
743
713
773
774
652
549
674
1024
1312
1235
809
398
380
767
1172
1186
780
343
296
665
1060
1053
584
-21
-373
-323
-1
361
580
604
519
514
739
1111
1350
1258
977
879
1147
1551
1676
1362
880
628
734
975
1046
844
505
217
70
67
196
465
837
1170
1283
1114
817
636
669
769
715
490
293
300
434
472
328
156
165
330
385
122
-348
-662
-533
-5
618
1043
1244
1448
1911
2651
3388
3730
3493
2901
2428
2389
2650
2783
2538
2139
2062
2490
3064
3203
2686
1864
1273
1098
1049
743
141
-444
-688
-570
-318
-116
44
269
559
769
757
570
454
596
920
1124
976
557
178
57
100
53
-149
-280
-76
429
904
1054
911
732
666
577
236
-354
-917
-1157
-1010
-626
-167
303
757
1134
1376
1480
1456
1260
854
359
46
82
343
520
464
324
303
355
229
-205
-765
-1133
-1173
-1009
-819
-630
-354
-4
261
293
122
-48
-23
217
555
842
1016
1086
1086
1060
1043
995
777
257
-505
-1231
-1622
-1581
-1236
-787
-342
72
419
651
753
745
645
501
438
598
980
1379
1580
1598
1670
1918
2109
1856
1044
36
-625
-709
-460
-309
-431
-614
-529
-84
502
898
932
693
427
335
414
472
333
75
30
491
1352
2101
2270
1893
1448
1342
1502
1512
1094
390
-224
-496
-449
-240
39
368
698
904
889
732
718
1118
1874
2538
2618
2066
1373
1067
1142
1081
478
-449
-1063
-980
-413
133
415
575
796
1003
963
600
108
-269
-462
-545
-575
-503
-261
125
547
873
1037
1037
901
696
513
432
488
646
821
926
924
865
869
1051
1410
1808
2060
2078
1930
1723
1466
1066
479
-163
-614
-707
-484
-117
252
576
849
1043
1120
1068
904
652
356
94
-55
-56
63
233
396
503
538
523
494
439
294
61
-89
73
561
1084
1313
1226
1125
1269
1553
1658
1444
1100
901
892
882
711
429
220
189
293
451
643
903
1219
1483
1553
1383
1069
795
668
625
524
320
124
84
217
395
487
481
458
452
409
267
56
-124
-201
-203
-200
-208
-189
-118
-30
15
12
26
-22013
22530
-14590
6401
31745
7936
-1536
-6656
-13568
-18176
-14336
-3071
5889
5888
-1024
-9728
-17920
-26624
30976
28160
31488
-30464
-32256
30208
-30208
-15872
-5376
-9728
-23296
-27648
-14591
1280
-4352
25855
-21761
15615
25600
1792
-18431
5121
8705
22274
4355
2051
26370
-26880
-5121
20222
22013
-12547
20988
-2051
16382
13055
7935
21246
-3842
-18690
-513
15102
-22531
16891
-8965
19451
-23044
25597
3069
-32003
-4866
22782
-18178
-1793
6143
7679
2302
-11778
-29442
25342
31998
-8449
25855
-12289
-6145
-19969
26367
18943
30463
-8960
22784
-13311
10241
23041
24833
22785
26369
-28415
-18943
-19199
-26623
30721
18176
-10752
14591
-14081
-11520
13312
32256
32256
27648
-25599
9217
-2557
1540
7684
-23805
-1534
22272
-12544
18688
30976
10750
-19972
-10757
-4100
-32003
-11266
-7681
24575
-23041
-2304
15360
21504
23808
-30976
-16640
-16128
30464
7936
3328
19712
-20736
-255
12033
16129
11264
-2048
-17664
-25088
-20736
-9727
257
8193
18689
30977
-27647
-30207
31233
-29183
-14078
770
6914
10242
20738
-32766
26113
-10495
6144
-22272
-18432
-9216
-26880
2815
-511
2
-29693
28675
7170
25602
-27133
-8444
-6396
14593
-4609
-23554
-12801
17407
-26882
-17155
12028
23037
11519
13825
7169
-15871
14848
-32256
31745
5377
29952
-2049
-8194
-514
-14337
255
18175
-25856
17409
9217
-17663
-15615
-30975
24321
6400
20223
13310
-20993
22272
-17919
-9982
22786
-14589
-26108
26116
20739
9729
-29184
18175
27134
-24323
-13827
8700
-2307
27390
-32512
5121
-22270
-26622
-24830
12545
-3327
-4095
-29952
25598
-3586
7678
14334
-20738
-9730
-17154
-15105
511
8191
3071
13311
-3840
-6399
20224
-2560
-25087
3586
8194
-11006
27136
-1
14845
-25860
29948
7676
-17411
-7170
-12033
16383
-7167
-27132
7430
9734
-31483
23299
-11518
-5374
-18430
-17406
-24830
28162
19970
18178
23042
-27134
-2045
19715
23555
3074
31745
-8191
24065
2560
-5632
-2047
4353
256
-21504
12543
-12289
-19457
-16641
-21249
25086
-1282
-24578
16637
-23300
-17157
-11525
22779
31996
3836
-15363
-31234
28159
-26367
2818
-20476
23557
-13562
-17657
11271
29447
-12024
5383
-13306
-5883
-5115
10756
18946
-12031
23297
-29180
22536
17418
21000
-5115
-26365
23043
26627
-254
-25602
-3333
22522
16379
-6146
28415
-2560
14080
7424
29185
8193
-28927
21760
32511
21246
11517
28925
-30722
-30465
-5888
-9728
-1536
-20992
-29696
-31489
-7426
24316
-6916
-6914
-23808
-20735
17664
12542
-2050
-1
-9729
-8706
22524
-28164
27902
15616
28673
22016
-5376
31232
-6143
-17919
-4863
22784
-13568
-8447
15361
5120
12799
11006
-20226
-12289
510
-12034
12541
24572
-24068
9212
4348
31741
16382
7422
-5633
-24064
17408
-22016
-14336
-5631
29698
19458
-15870
18433
16384
-17919
16898
11522
24321
-25088
-12288
-13311
21505
30464
-15617
-21250
-11522
18941
-14083
17661
3069
18685
-9218
-22017
-12031
18434
-29182
-3070
24577
29184
-7424
-11520
-12032
28927
-9985
-25344
11521
32003
2052
10244
31748
7939
-30461
13059
9987
1282
29953
-22271
24322
3075
14851
-5373
-23806
-11774
6145
25600
18430
-258
-24321
-11519
-20734
-31743
-10496
-1279
27138
-9725
31490
5119
20732
-4869
-4868
3068
-27139
17662
7678
-1
-20224
15616
-5119
-17406
13825
-6400
-3841
-1537
-25601
-9472
22528
-13311
10497
30209
-27135
25088
-8960
16895
-12033
-15616
21505
-23549
30213
2565
-30460
-14589
30466
-30718
16642
6145
22527
-8194
14333
764
-29700
-16643
23550
6654
-19201
2815
13311
28415
-9216
25344
-14336
-5632
-14592
28672
1791
-15361
-9216
17152
-24064
-18432
-23552
-17919
2817
23297
-23038
18691
-32764
-18940
-15101
13568
-2049
-28673
-30464
2303
-4609
8190
28670
28414
-10497
3070
-4610
-15618
-22786
23549
-15875
10749
1277
26621
-2
31742
-9217
16895
-19968
7168
32256
-7935
14849
23809
14849
3585
10497
-28927
-4351
-3071
-27136
-4097
-514
-18179
29692
-6403
-27649
6912
30465
2049
15617
-1533
27396
-23548
-28669
6657
15615
-769
-30977
22527
4350
-8449
8447
-10240
-21247
20225
-18943
-2046
1281
-25088
-24577
11005
-28932
7675
2042
18937
-17159
15096
-13064
-20487
6137
-773
7420
14845
16894
15871
11520
5121
4098
19715
-14587
14598
24327
12295
-13560
14088
18439
-9978
-1531
-5628
-9981
-9726
-3582
15617
-12543
-22527
-21247
-16895
-14591
-14847
-17663
-25855
23553
1024
-19456
-30464
-31744
-31232
-32256
-28416
-11519
13825
28161
18176
-9472
29952
14336
2047
-17921
23807
12287
24831
-8960
27392
-8447
15873
-24830
1026
20226
23554
8449
-18687
17664
-5888
-20736
-26624
-25600
-22528
-21760
-24832
-28672
-30464
-31488
28928
19712
11520
8192
8448
8448
9984
17152
27648
-32768
26112
11520
1024
0
2304
-27
-6
37
73
80
83
132
239
361
427
411
348
302
303
327
320
254
164
114
141
208
250
237
200
191
218
251
256
240
237
265
311
338
331
305
292
305
324
318
284
261
284
348
409
439
462
518
599
645
613
534
477
472
477
429
331
246
235
288
347
365
348
334
348
388
439
487
517
510
463
401
360
355
364
363
358
370
398
419
420
420
439
462
444
375
299
270
288
303
272
220
211
273
362
418
427
425
443
463
457
439
450
493
509
451
375
394
531
655
612
415
248
268
427
530
456
279
165
189
291
371
390
368
335
308
295
304
322
328
314
297
297
311
328
343
361
378
374
346
311
296
303
319
326
324
319
305
275
235
194
159
124
90
69
68
76
73
61
61
91
138
172
186
201
235
273
281
245
194
167
180
206
201
151
90
86
184
364
542
634
621
564
546
593
643
610
462
265
132
120
185
242
243
225
247
321
405
461
487
499
483
415
312
234
215
211
148
18
-87
-71
46
139
102
-30
-127
-110
-44
-59
-211
-431
-606
-689
-722
-760
-798
-797
-734
-626
-502
-355
-155
116
442
791
1126
1418
1641
1785
1872
1933
1974
1950
1810
1555
1259
1012
852
753
667
574
485
417
380
384
433
504
543
506
392
260
168
130
112
81
34
2
12
71
153
221
247
230
194
162
129
67
-30
-117
-130
-50
60
119
103
75
109
206
289
280
173
26
-87
-127
-99
-31
31
50
19
-22
-24
23
82
100
57
-26
-114
-180
-203
-175
-115
-67
-64
-93
-98
-51
15
36
-5
-61
-69
-29
10
15
17
62
139
173
104
-41
-159
-172
-102
-35
-26
-44
-15
83
199
271
292
296
294
256
167
75
45
81
118
114
110
175
297
369
313
173
80
101
176
201
148
94
114
198
266
426
220
232
237
222
223
285
384
449
442
411
435
514
573
545
454
373
340
328
302
259
203
134
74
77
185
350
454
435
360
351
431
496
440
276
117
44
38
34
17
26
86
168
216
210
182
180
210
235
216
158
112
127
199
273
297
257
189
146
162
234
315
344
299
228
207
254
297
257
134
19
-11
35
96
141
180
225
254
256
261
311
394
445
417
326
224
155
143
200
308
395
379
262
155
173
299
390
329
151
-3
-34
20
58
44
29
76
172
250
263
226
183
152
109
31
-77
-175
-217
-184
-96
-1
52
51
23
5
5
4
-14
-38
-50
-63
-95
-127
-91
53
253
396
420
382
383
452
515
492
389
285
244
263
304
351
406
460
483
461
421
406
417
413
349
238
149
151
241
346
395
390
401
472
546
505
306
45
-124
-156
-156
-246
-423
-553
-546
-460
-431
-515
-651
-753
-813
-874
-946
-976
-915
-777
-615
-460
-300
-90
214
627
1095
1497
1719
1770
1786
1893
2059
2116
1942
1593
1241
996
836
680
504
350
252
210
214
279
408
542
586
503
356
256
256
305
297
189
49
-11
49
156
199
149
74
54
93
129
115
68
25
-5
-41
-77
-80
-38
10
17
-15
-37
-18
25
61
88
119
141
112
21
-76
-104
-56
-3
-15
-71
-82
7
131
173
90
-28
-50
49
155
141
6
-127
-147
-65
16
20
-41
-105
-133
-127
-101
-62
-23
-5
-19
-52
-71
-46
25
122
212
259
249
198
145
127
152
192
208
177
117
78
99
179
268
311
282
201
112
54
44
74
113
135
139
151
195
262
316
328
304
270
255
273
332
416
484
479
388
272
223
279
378
413
339
223
175
238
346
391
334
222
134
107
130
183
255
326
355
324
270
262
325
408
429
359
242
148
123
163
226
250
204
126
102
173
266
267
164
87
163
350
460
373
174
49
79
171
201
153
108
118
161
199
235
283
312
278
196
140
156
203
203
143
87
90
134
158
147
149
201
273
287
223
144
136
215
307
330
279
224
236
313
386
389
318
233
198
219
240
202
100
-2
-34
15
82
99
64
39
74
144
178
144
90
79
104
91
10
-71
-54
61
154
121
-1
-62
24
171
210
84
-82
-122
-19
89
80
-3
-26
54
126
75
-47
-67
99
332
433
338
186
154
272
406
409
263
67
-60
-71
-4
76
124
147
180
248
336
404
428
414
382
340
284
228
203
223
262
276
255
228
225
229
196
120
43
-7
-63
-178
-332
-428
-413
-354
-377
-528
-730
-873
-937
-980
-1045
-1105
-1101
-995
-784
-487
-140
214
549
882
1228
1561
1819
1978
2082
2172
2206
2085
1786
1429
1176
1073
1005
835
562
327
258
344
460
503
477
443
441
449
436
399
355
296
207
102
32
21
25
-19
-110
-171
-146
-73
-42
-76
-94
-20
104
157
79
-46
-89
-14
89
117
59
-18
-61
-67
-67
-76
-90
-104
-106
-85
-43
-3
2
-33
-79
-100
-83
-44
-15
-27
-88
-169
-216
-200
-163
-180
-281
-412
-487
-474
-422
-391
-395
-400
-377
-330
-277
-223
-167
-118
-104
-129
-164
-163
-110
-43
-15
-45
-95
-110
-79
-45
-44
-53
-15
96
232
322
344
338
347
363
343
256
118
-24
-131
-181
-177
-138
-95
-67
-45
389
376
351
337
342
356
366
374
390
410
423
430
440
456
463
455
450
463
461
394
276
219
337
606
845
893
766
620
568
559
457
208
-101
-335
-428
-396
-289
-147
2
134
237
310
352
354
323
280
239
187
110
38
35
130
269
359
364
335
344
397
443
442
409
378
351
314
283
292
340
361
307
239
284
489
730
825
730
588
556
621
627
476
251
115
109
105
-18
-202
-247
-28
357
677
778
699
587
533
510
426
217
-101
-435
-631
-552
-201
247
565
673
693
799
1013
1157
1031
619
127
-182
-194
-14
135
116
-14
-84
11
198
282
131
-215
-571
-758
-723
-564
-447
-471
-588
-646
-525
-255
30
233
360
457
513
476
348
208
121
53
-73
-252
-378
-350
-182
26
196
326
460
597
686
668
542
373
249
224
296
421
552
665
757
832
873
864
789
646
457
258
100
22
16
28
-6
-115
-274
-415
-456
-317
35
525
935
1022
713
201
-195
-360
-518
-987
-1775
-2464
-2567
-2004
-1170
-529
-185
104
556
1093
1466
1568
1504
1428
1369
1277
1179
1171
1274
1353
1258
999
756
672
720
777
803
869
1029
1196
1211
1014
699
378
60
-288
-592
-656
-366
126
500
563
439
397
528
633
480
107
-166
-61
371
815
1015
986
898
811
602
159
-429
-939
-1254
-1457
-1657
-1778
-1607
-1079
-429
-4
64
-41
-57
59
126
-13
-288
-486
-486
-359
-228
-123
3
153
243
211
99
-10
-110
-240
-355
-303
9
451
769
853
838
894
981
871
429
-202
-736
-1018
-1118
-1165
-1172
-1055
-785
-467
-240
-150
-138
-128
-115
-135
-201
-266
-274
-208
-86
73
246
384
407
271
39
-156
-225
-192
-148
-156
-192
-190
-112
29
187
315
379
376
332
287
268
263
227
117
-49
-173
-147
44
283
419
421
402
489
661
778
741
608
521
538
593
593
522
437
391
378
365
336
299
269
250
236
216
192
177
190
221
230
184
116
101
163
237
239
178
155
224
310
307
250
308
579
922
1058
877
563
399
454
531
408
97
-177
-223
-77
57
25
-139
-280
-296
-222
-169
-186
-216
-166
-10
187
347
453
536
606
633
595
518
455
421
392
354
341
393
493
574
571
485
376
305
279
278
287
319
380
448
482
457
388
318
276
259
247
213
135
-15
-242
-495
-672
-678
-510
-271
-85
17
104
263
492
683
716
560
307
90
3
43
145
236
289
336
426
576
741
846
838
731
583
449
352
294
278
301
343
367
358
348
377
446
501
492
435
395
403
408
341
215
130
164
288
388
401
372
381
436
455
365
191
25
-59
-77
-91
-134
-179
-194
-189
-219
-320
-463
-572
-600
-559
-484
-379
-225
-14
238
526
864
1235
1562
1748
1790
1798
1878
1996
2013
1844
1572
1365
1306
1324
1300
1202
1097
1050
1039
996
892
771
692
666
640
570
466
386
369
398
424
415
381
340
286
201
101
35
32
56
48
-1
-37
-7
55
66
-16
-138
-212
-220
-217
-252
-304
-308
-248
-172
-139
-151
-158
-126
-67
-19
1
2
-5
-16
-25
-19
12
56
85
81
48
3
-38
-68
-83
-87
-87
-87
-75
-30
48
125
158
136
92
73
88
104
86
33
-20
-42
-33
-22
-30
-52
-58
-33
1
-2
-74
-200
-333
-439
-514
-571
-617
-646
-651
-640
-619
-583
-529
-463
-417
-420
-463
-497
-475
-395
-309
-272
-285
-306
-286
-233
-183
-161
-149
-118
-59
8
49
55
41
40
73
121
130
56
-70
-143
-80
95
250
272
184
119
180
331
435
404
282
189
197
278
357
388
374
338
311
326
395
479
508
455
377
364
424
480
450
348
266
270
339
394
382
300
187
98
75
115
156
139
65
7
21
89
138
126
78
37
0
-55
-123
-164
-157
-136
-161
-235
-302
-303
-238
-163
-146
-203
-287
-331
-320
-303
-331
-384
-414
-405
-389
-386
-356
-256
-137
-113
-228
-380
-424
-345
-274
-326
-477
-610
-652
-603
-481
-295
-89
46
68
57
138
328
502
531
405
224
89
28
17
14
-32
-149
-302
-374
-287
-91
82
145
118
72
32
-33
-146
-287
-409
-481
-485
-414
-275
-109
35
148
254
358
408
339
155
-54
-200
-268
-314
-371
-406
-365
-236
-57
125
288
431
552
675
867
1190
1612
1995
2207
2239
2203
2194
2191
2102
1871
1544
1207
918
684
492
329
182
44
-87
-209
-323
-423
-494
-525
-538
-587
-706
-858
-956
-956
-892
-845
-857
-903
-933
-908
-835
-742
-666
-629
-631
-647
-650
-642
-637
-646
-662
-664
-648
-628
-616
-608
-593
-568
-543
-530
-527
-520
-504
-488
-488
-511
-537
-544
-537
-537
-549
-550
-514
-448
-395
-377
-377
-361
-326
-307
-329
-385
-443
-483
-507
-528
-558
-591
-620
-631
-621
-606
-606
-627
-649
-657
-655
-659
-671
-677
-664
-640
-612
-580
-541
-491
-436
-376
-314
-264
-247
-258
-262
-232
-180
-144
-137
-125
-72
14
87
122
135
152
172
184
194
224
276
328
363
389
428
470
485
461
428
423
445
460
449
426
415
418
425
428
429
424
395
346
308
314
351
368
334
277
260
302
353
356
311
280
305
361
385
356
320
323
350
340
267
175
131
148
178
183
181
204
251
284
272
230
188
148
92
27
-10
4
48
81
100
133
201
275
308
284
239
213
211
204
176
153
175
254
356
436
473
485
494
497
474
411
326
252
210
196
189
173
158
156
160
153
121
73
38
35
46
43
18
-10
-12
24
85
137
141
83
-9
-77
-91
-83
-113
-191
-246
-209
-96
-2
6
-45
-81
-79
-79
-115
-160
-174
-152
-128
-120
-97
-34
52
124
162
183
211
242
265
278
285
290
290
280
260
235
205
176
148
113
72
46
59
99
110
40
-94
-218
-286
-338
-448
-620
-766
-819
-826
-903
-1097
-1333
-1501
-1567
-1600
-1665
-1754
-1786
-1674
-1399
-1023
-643
-288
116
673
1350
1955
2300
2395
2422
2505
2569
2481
2253
2028
1843
1535
951
222
-314
-454
-346
-300
-415
-489
-281
200
716
1041
1129
1064
930
758
559
353
155
-40
-225
-364
-424
-422
-402
-392
-388
-389
-434
-564
-741
-861
-847
-730
-626
-620
-696
-780
-833
-871
-913
-930
-879
-760
-622
-513
-438
-368
-289
-214
-156
-112
-71
-29
15
62
113
161
197
227
268
327
387
435
477
540
640
763
880
978
1072
1196
1374
1602
1851
2099
2354
2636
2937
3196
3345
3375
3347
3326
3301
3198
2984
2728
2548
2485
2460
2365
2185
2018
1959
1990
2000
1919
1781
1679
1653
1661
1637
1559
1447
1305
1116
886
649
429
208
-36
-286
-495
-648
-780
-925
-1067
-1167
-1209
-1213
-1179
-1077
-900
-707
-580
-550
-585
-647
-737
-871
-1039
-1200
-1323
-1406
-1419
-1306
-1046
-718
-469
-393
-433
-452
-386
-315
-370
-579
-828
-971
-964
-879
-810
-785
-776
-764
-763
-778
-782
-740
-664
-619
-657
-766
-874
-909
-868
-822
-854
-975
-1100
-1113
-980
-790
-668
-657
-693
-683
-611
-533
-494
-472
-420
-335
-251
-178
-87
52
206
306
315
272
250
290
379
472
540
586
641
734
863
995
1093
1146
1171
1182
1183
1173
1170
1191
1229
1252
1242
1215
1204
1215
1225
1208
1167
1129
1113
1114
1105
1077
1038
1020
1041
1093
1140
1159
1171
1214
1292
1368
1404
1412
1434
1481
1511
1486
1428
1395
1411
1431
1401
1322
1239
1189
1161
1123
1064
997
937
879
805
697
557
423
356
381
438
426
310
190
208
369
496
401
82
-274
-511
-663
-873
-1181
-1465
-1593
-1606
-1658
-1829
-2028
-2136
-2164
-2240
-2429
-2639
-2716
-2610
-2411
-2211
-2002
-1701
-1269
-768
-297
93
421
714
970
1156
1249
1257
1203
1111
988
825
613
370
127
-82
-242
-356
-433
-481
-500
-485
-420
-288
-82
165
388
525
544
449
275
64
-153
-370
-597
-824
-1001
-1055
-952
-741
-525
-397
-373
-408
-455
-495
-527
-549
-566
-601
-681
-782
-834
-783
-656
-550
-550
-652
-784
-884
-961
-1054
-1170
-1279
-1365
-1455
-1581
-1727
-1822
-1818
-1746
-1676
-1642
-1608
-1526
-1404
-1296
-1230
-1173
-1085
-982
-915
-909
-930
-917
-861
-800
-770
-757
-723
-649
-549
-450
-360
-282
-224
-194
-190
-197
-198
-177
-126
-53
27
91
134
172
222
273
293
265
212
164
123
57
-60
-204
-318
-375
-413
-486
-589
-649
-601
-476
-385
-404
-501
-582
-599
-575
-560
-569
-588
-600
-572
-456
-246
-28
78
37
-75
-190
-341
-587
-870
-1037
-1035
-992
-1049
-1132
-1014
-603
-105
194
235
211
301
453
501
403
286
274
345
390
377
387
483
623
696
632
467
297
198
182
214
242
227
172
109
68
40
-23
-157
-332
-465
-493
-445
-406
-428
-459
-397
-211
4
108
53
-71
-117
-21
147
257
249
178
147
198
281
303
229
90
-55
-173
-259
-315
-346
-369
-414
-487
-554
-579
-565
-558
-589
-636
-649
-608
-537
-472
-424
-390
-370
-370
-387
-402
-406
-418
-455
-508
-549
-560
-549
-524
-481
-419
-360
-327
-311
-272
-194
-105
-54
-49
-49
-10
63
122
133
99
57
39
49
63
57
31
7
7
22
30
23
27
62
102
95
20
-87
-169
-213
-242
-274
-299
-297
-270
-230
-179
-115
-60
-70
-191
-403
-635
-831
-988
-1140
-1295
-1418
-1450
-1366
-1194
-1009
-869
-775
-657
-428
-65
350
707
964
1177
1425
1716
1971
2096
2052
1871
1614
1348
1124
962
837
710
573
467
437
486
567
636
680
695
669
597
510
463
474
499
475
393
298
239
224
225
216
196
172
144
110
78
55
38
18
-5
-22
-25
-24
-42
-91
-151
-191
-199
-188
-185
-202
-230
-257
-276
-283
-275
-259
-250
-258
-280
-300
-306
-294
-276
-261
-254
-255
-255
-239
-206
-179
-185
-228
-271
-278
-258
-252
-278
-299
-268
-187
-109
-89
-122
-161
-170
-162
-168
-201
-250
-300
-343
-373
-379
-360
-336
-337
-377
-437
-482
-495
-490
-492
-511
-535
-544
-531
-507
-482
-457
-425
-387
-347
-306
-257
-191
-109
-27
42
95
143
199
255
302
335
366
407
456
500
541
598
684
778
846
873
879
890
917
964
1037
1133
1222
1266
1270
1284
1354
1455
1507
1450
1301
1130
991
873
727
509
230
-30
-160
-102
84
251
271
145
-19
-115
-143
-207
-412
-762
-1149
-1448
-1606
-1660
-1675
-1666
-1605
-1479
-1324
-1189
-1086
-992
-909
-885
-952
-1078
-1183
-1224
-1217
-1198
-1166
-1096
-973
-803
-588
-320
-27
203
263
112
-189
-529
-836
-1090
-1303
-1472
-1571
-1575
-1466
-1259
-995
-735
-530
-398
-321
-270
-234
-217
-234
-291
-371
-432
-416
-296
-119
20
66
49
48
96
159
176
136
74
25
-6
-24
-16
29
100
168
223
275
330
374
391
380
352
301
218
118
53
76
186
312
367
318
212
146
165
211
167
-22
-262
-385
-318
-166
-97
-163
-250
-230
-118
-60
-165
-393
-603
-715
-772
-876
-1073
-1319
-1541
-1716
-1883
-2084
-2309
-2501
-2611
-2633
-2592
-2495
-2321
-2062
-1743
-1397
-1021
-589
-124
283
549
697
824
987
1144
1194
1089
864
587
321
110
-27
-121
-233
-393
-547
-610
-551
-426
-322
-280
-289
-328
-372
-384
-344
-286
-284
-375
-502
-571
-557
-518
-511
-514
-458
-334
-225
-218
-312
-410
-424
-354
-284
-309
-447
-620
-726
-724
-671
-655
-697
-716
-619
-403
-186
-97
-164
-304
-409
-453
-501
-624
-811
-968
-1001
-899
-734
-591
-502
-447
-405
-381
-391
-449
-546
-667
-775
-825
-800
-733
-689
-688
-689
-639
-564
-551
-648
-796
-880
-845
-733
-625
-557
-517
-483
-446
-402
-345
-285
-251
-265
-309
-340
-336
-301
-252
-203
-161
-134
-124
-118
-98
-65
-31
-3
21
43
56
57
58
77
117
155
166
146
114
92
92
115
151
179
189
189
197
211
209
173
124
101
109
116
93
57
51
87
117
95
26
-38
-69
-92
-157
-272
-388
-450
-443
-403
-373
-366
-362
-333
-276
-217
-201
-251
-336
-388
-363
-293
-256
-293
-359
-360
-273
-174
-166
-256
-344
-338
-260
-230
-320
-457
-497
-387
-226
-162
-233
-333
-339
-247
-162
-171
-258
-338
-355
-328
-307
-323
-369
-424
-472
-509
-542
-588
-659
-746
-818
-848
-845
-838
-852
-883
-904
-887
-839
-806
-835
-923
-1005
-1015
-951
-879
-855
-874
-880
-841
-785
-758
-775
-798
-788
-736
-675
-641
-637
-644
-643
-632
-622
-619
-611
-592
-565
-537
-504
-452
-377
-300
-241
-201
-164
-127
-105
-105
-103
-69
-7
45
53
26
5
17
48
60
39
11
11
50
103
138
150
152
142
101
26
-50
-86
-88
-108
-185
-292
-377
-448
-576
-811
-1118
-1412
-1651
-1862
-2073
-2250
-2326
-2268
-2101
-1864
-1570
-1215
-803
-333
199
778
1338
1789
2103
2334
2556
2756
2833
2706
2408
2051
1732
1473
1241
1019
822
677
597
582
630
727
826
874
843
756
665
604
567
532
499
491
532
619
722
811
869
896
898
877
834
768
681
588
508
466
475
526
592
627
601
524
440
384
349
300
218
117
34
2
33
126
244
335
366
363
375
392
314
43
-402
-884
-1259
-1486
-1594
-1592
-1440
-1126
-717
-324
-11
229
417
533
514
336
66
-171
-276
-238
-131
-37
13
47
95
152
189
181
128
51
-5
5
94
218
300
291
192
41
-135
-321
-508
-671
-787
-831
-799
-722
-656
-641
-655
-640
-579
-545
-648
-935
-1345
-1788
-2205
-2561
-2812
-2897
-2789
-2514
-2115
-1622
-1071
-538
-119
125
199
135
-39
-284
-523
-665
-665
-549
-373
-168
58
283
462
558
568
500
363
180
6
-90
-82
-19
22
8
-32
-59
-76
-107
-153
-180
-162
-121
-92
-75
-32
70
217
369
500
618
737
851
936
978
986
983
989
1007
1027
1041
1047
1061
1093
1147
1204
1242
1257
1264
1282
1322
1382
1457
1552
1663
1774
1863
1924
1975
2027
2057
2029
1943
1846
1783
1736
1636
1463
1288
1221
1280
1363
1356
1259
1170
1162
1198
1193
1114
1001
886
758
605
473
423
441
432
323
148
17
-14
8
-1
-65
-134
-162
-149
-123
-100
-72
-47
-52
-107
-189
-246
-241
-188
-124
-70
-20
40
104
152
170
168
158
137
91
20
-44
-65
-38
2
11
-27
-79
-99
-75
-50
-76
-162
-257
-300
-283
-257
-266
-299
-308
-267
-202
-154
-130
-116
-111
-142
-223
-327
-401
-424
-425
-442
-478
-506
-513
-522
-560
-632
-722
-819
-922
-1008
-1030
-944
-761
-535
-315
-97
163
500
901
1319
1704
2023
2269
2466
2639
2782
2853
2803
2636
2421
2226
2058
1871
1649
1446
1333
1314
1311
1253
1160
1108
1133
1191
1211
1179
1142
1143
1178
1213
1222
1202
1159
1105
1068
1070
1092
1077
992
873
788
747
681
525
312
152
121
184
245
244
208
203
254
318
328
260
157
89
88
118
121
81
44
56
99
103
26
-81
-136
-109
-56
-50
-91
-111
-59
38
109
117
92
83
106
127
115
69
15
-26
-49
-59
-63
-64
-60
-42
6
84
172
239
273
287
296
302
300
299
319
362
411
450
486
537
597
636
635
597
540
483
443
434
458
490
499
487
481
495
506
477
413
354
317
282
225
164
143
171
199
181
124
78
66
60
25
-41
-107
-154
-191
-236
-290
-342
-388
-429
-465
-492
-513
-538
-569
-603
-639
-689
-762
-846
-915
-953
-969
-975
-974
-963
-959
-982
-1020
-1029
-984
-926
-926
-1007
-1105
-1133
-1065
-967
-914
-908
-893
-827
-735
-674
-669
-699
-728
-747
-769
-798
-822
-829
-824
-810
-781
-735
-691
-676
-692
-708
-689
-640
-596
-580
-569
-521
-420
-298
-196
-133
-90
-48
-8
10
-8
-49
-75
-57
0
59
91
99
108
136
175
213
248
289
332
360
365
368
398
462
529
557
532
487
478
538
645
743
788
795
821
903
1014
1090
1104
1087
1091
1122
1148
1151
1154
1182
1218
1221
1181
1131
1113
1114
1091
1018
924
855
826
809
778
739
716
714
716
703
677
656
656
666
658
611
529
445
395
381
362
289
164
39
-35
-63
-106
-208
-367
-551
-735
-911
-1071
-1225
-1402
-1632
-1890
-2083
-2121
-1993
-1778
-1559
-1362
-1140
-829
-396
112
570
846
920
928
1037
1263
1436
1380
1107
799
610
540
487
383
232
63
-99
-208
-223
-179
-203
-381
-623
-726
-583
-310
-120
-93
-111
-7
242
500
615
554
400
259
182
150
125
82
22
-31
-59
-74
-99
-140
-168
-160
-139
-154
-225
-303
-323
-278
-231
-245
-324
-431
-543
-650
-726
-726
-651
-576
-578
-648
-686
-621
-493
-413
-442
-527
-573
-537
-454
-387
-364
-362
-336
-262
-153
-62
-37
-72
-117
-135
-134
-151
-198
-242
-238
-183
-107
-41
16
76
141
192
216
214
202
194
190
181
158
114
56
0
-38
-52
-51
-53
-61
-62
-32
25
77
92
64
23
3
11
29
25
-12
-64
-98
-102
-94
-94
-108
-124
-141
-166
-195
-206
-171
-99
-37
-29
-73
-126
-160
-181
-188
-147
-35
87
94
-82
-336
-475
-402
-228
-147
-221
-316
-240
51
426
714
843
857
831
807
784
750
696
626
547
467
395
347
345
394
465
491
431
320
253
292
397
477
485
449
421
406
367
287
193
134
123
131
128
109
87
65
23
-64
-208
-394
-602
-816
-1033
-1240
-1392
-1454
-1439
-1420
-1445
-1470
-1409
-1250
-1104
-1095
-1216
-1333
-1347
-1307
-1328
-1408
-1408
-1223
-928
-700
-616
-572
-435
-211
-34
-5
-84
-153
-149
-94
-32
16
40
35
12
18
90
198
276
288
282
321
410
494
526
523
539
592
648
660
621
571
548
567
613
664
688
668
604
525
466
447
447
428
372
313
309
380
489
570
586
558
536
541
540
481
362
238
167
137
77
-59
-226
-334
-360
-389
-513
-734
-973
-1167
-1328
-1489
-1618
-1642
-1538
-1372
-1231
-1125
-970
-676
-235
270
722
1041
1235
1372
1508
1638
1699
1625
1423
1170
948
780
645
512
381
273
203
153
92
9
-68
-101
-87
-82
-150
-280
-391
-412
-357
-311
-351
-470
-580
-606
-559
-519
-544
-606
-636
-623
-624
-673
-730
-741
-729
-796
-965
-1090
-978
-629
-265
-121
-208
-305
-207
60
274
246
-12
-318
-489
-479
-383
-317
-310
-300
-224
-104
-20
-25
-90
-154
-211
-301
-442
-596
-709
-758
-758
-716
-651
-606
-617
-675
-730
-754
-764
-791
-818
-807
-763
-726
-712
-684
-622
-574
-587
-612
-532
-321
-128
-122
-265
-320
-112
243
462
409
239
189
294
387
330
191
132
194
257
225
167
220
392
526
496
355
275
334
438
456
382
321
334
368
349
284
258
319
415
475
484
479
492
520
551
590
631
644
596
512
459
471
502
479
404
364
436
576
647
563
403
320
373
463
456
335
222
226
328
419
425
377
346
360
391
404
392
373
374
409
463
505
515
508
521
569
614
612
578
571
612
651
629
556
504
521
564
546
442
324
277
308
345
318
228
143
113
121
110
69
36
39
50
27
-16
-20
41
114
127
79
36
41
58
36
-20
-56
-44
-22
-36
-73
-82
-34
30
49
-1
-80
-133
-133
-110
-119
-188
-283
-337
-322
-276
-262
-285
-286
-208
-79
18
42
49
123
274
416
456
388
301
285
344
415
450
457
475
518
570
610
633
640
618
567
508
477
489
521
545
555
570
604
648
663
622
532
431
357
309
257
179
93
32
-6
-68
-180
-311
-410
-472
-543
-657
-775
-813
-717
-514
-278
-76
85
268
559
986
1467
1847
2044
2126
2246
2474
2719
2830
2751
2560
2354
2149
1912
1649
1414
1230
1052
818
561
391
383
466
494
388
218
124
176
307
392
369
269
165
102
75
58
38
13
-13
-40
-54
-36
19
75
83
40
4
24
61
17
-122
-240
-215
-95
-72
-246
-491
-611
-586
-585
-721
-883
-882
-703
-531
-498
-528
-473
-342
-295
-405
-549
-575
-499
-440
-423
-351
-177
-7
52
43
78
123
-14
-389
-756
-805
-545
-300
-297
-395
-320
-105
-106
-556
-1235
-1700
-1781
-1714
-1762
-1858
-1706
-1174
-468
97
400
537
615
627
517
294
29
-208
-379
-468
-466
-394
-298
-221
-189
-204
-267
-381
-526
-649
-709
-702
-662
-629
-628
-661
-723
-798
-852
-850
-780
-675
-593
-561
-539
-463
-298
-82
99
163
87
-99
-325
-515
-624
-667
-696
-744
-770
-666
-352
132
628
973
1121
1163
1231
1370
1510
1547
1453
1294
1156
1080
1051
1030
994
923
801
639
482
376
337
338
342
329
275
153
-42
-261
-429
-505
-510
-488
-435
-295
-18
378
827
1269
1669
2009
2268
2438
2539
2596
2613
2576
2485
2369
2266
2194
2154
2146
2162
2175
2145
2052
1926
1815
1740
1666
1539
1347
1141
987
914
893
879
856
848
867
888
877
851
865
934
988
934
771
612
562
603
614
511
338
196
127
87
35
-1
26
106
168
166
136
156
244
331
339
270
196
185
223
245
215
161
130
129
125
100
85
123
204
265
259
206
171
192
237
264
268
282
335
420
516
622
749
893
1024
1123
1206
1304
1423
1531
1604
1647
1688
1740
1796
1850
1905
1958
1982
1964
1922
1884
1850
1786
1670
1524
1392
1290
1213
1170
1187
1279
1421
1584
1762
1977
2237
2532
2844
3154
3428
3623
3726
3775
3819
3856
3821
3654
3373
3067
2814
2620
2440
2247
2077
1982
1967
1965
1905
1772
1607
1465
1376
1352
1401
1523
1688
1859
2012
2132
2151
1963
1540
1034
686
592
583
412
61
-192
-80
331
665
602
195
-201
-305
-183
-113
-254
-477
-550
-402
-149
76
276
504
717
776
625
401
325
532
1002
1621
2225
2653
2850
2963
3207
3553
3586
2830
1273
-500
-1797
-2431
-2783
-3268
-3847
-4103
-3741
-2907
-2009
-1345
-952
-750
-690
-749
-863
-950
-966
-936
-892
-831
-726
-593
-488
-450
-484
-578
-706
-818
-846
-760
-616
-505
-456
-417
-347
-292
-326
-422
-451
-328
-135
-50
-147
-321
-434
-475
-557
-766
-1051
-1285
-1391
-1387
-1339
-1295
-1264
-1228
-1152
-1014
-849
-751
-792
-945
-1111
-1229
-1338
-1496
-1661
-1704
-1561
-1326
-1165
-1130
-1123
-1045
-946
-988
-1250
-1618
-1910
-2052
-2120
-2198
-2237
-2114
-1792
-1378
-1018
-770
-612
-532
-560
-705
-904
-1070
-1179
-1245
-1237
-1095
-836
-607
-575
-736
-897
-858
-603
-290
-84
6
99
273
456
479
253
-112
-404
-510
-549
-748
-1160
-1555
-1620
-1274
-764
-405
-274
-183
63
419
636
538
212
-39
74
557
1102
1296
966
378
79
397
1078
1431
950
-173
-1198
-1540
-1306
-1124
-1478
-2253
-2923
-3060
-2650
-1957
-1254
-735
-527
-638
-885
-976
-766
-427
-276
-478
-886
-1193
-1216
-997
-657
-256
171
524
635
427
18
-377
-607
-658
-572
-375
-140
-31
-180
-489
-673
-579
-419
-572
-1143
-1783
-2033
-1792
-1341
-977
-741
-513
-254
-12
234
560
920
1065
782
219
-168
-70
316
478
150
-364
-483
51
880
1364
1194
629
163
31
36
-192
-823
-1666
-2314
-2438
-2018
-1369
-912
-863
-1105
-1390
-1609
-1845
-2141
-2358
-2303
-1967
-1513
-1035
-445
354
1228
1890
2201
2292
2342
2349
2218
2018
1999
2287
2664
2748
2403
1893
1594
1601
1671
1507
1044
470
15
-219
-275
-273
-336
-548
-884
-1201
-1328
-1193
-881
-562
-371
-339
-410
-509
-584
-638
-705
-788
-847
-819
-695
-538
-407
-297
-181
-89
-110
-273
-476
-588
-595
-605
-682
-722
-575
-263
-6
-8
-218
-397
-373
-233
-206
-389
-650
-783
-719
-575
-489
-468
-403
-241
-66
-18
-120
-227
-171
58
294
360
248
114
121
290
503
626
627
568
535
557
604
627
612
586
574
575
569
559
572
635
720
770
747
670
590
542
520
504
490
495
522
552
562
551
535
527
521
505
470
413
346
295
292
342
422
495
552
611
684
749
766
717
622
522
447
388
315
214
125
108
164
197
85
-173
-415
-468
-339
-219
-282
-493
-658
-641
-498
-386
-384
-447
-500
-522
-520
-489
-423
-356
-339
-387
-464
-522
-536
-502
-428
-359
-368
-477
-584
-543
-341
-161
-207
-476
-742
-789
-635
-484
-475
-537
-500
-293
-8
221
355
447
553
666
756
816
869
927
971
976
939
876
822
789
758
695
586
455
350
299
264
178
30
-115
-192
-215
-264
-382
-517
-580
-561
-536
-570
-632
-649
-607
-575
-625
-754
-891
-979
-1016
-1036
-1060
-1078
-1075
-1046
-997
-930
-851
-779
-741
-761
-821
-865
-844
-753
-639
-550
-495
-437
-344
-226
-121
-48
-3
32
73
127
201
293
400
518
628
702
707
647
571
539
567
613
626
606
593
623
689
755
789
783
756
740
755
789
805
778
720
676
656
622
530
391
261
179
124
58
-29
-110
-175
-241
-324
-413
-512
-647
-839
-1055
-1215
-1259
-1200
-1098
-982
-822
-556
-152
354
873
1305
1596
1784
1961
2181
2397
2483
2353
2037
1653
1311
1055
874
747
633
482
283
91
-26
-68
-115
-236
-414
-592
-764
-971
-1193
-1317
-1258
-1087
-965
-965
-977
-865
-649
-486
-486
-595
-683
-709
-730
-787
-840
-822
-739
-666
-648
-681
-733
-768
-751
-667
-570
-571
-731
-951
-1045
-924
-727
-680
-855
-1079
-1133
-1011
-927
-1061
-1333
-1497
-1411
-1186
-1051
-1111
-1268
-1352
-1302
-1190
-1128
-1167
-1271
-1356
-1370
-1325
-1290
-1332
-1436
-1507
-1459
-1307
-1154
-1077
-1050
-988
-852
-709
-649
-678
-719
-705
-658
-651
-707
-773
-791
-763
-734
-718
-680
-600
-515
-480
-481
-431
-268
-48
102
130
123
203
386
564
629
608
618
733
915
1075
1177
1246
1295
1306
1274
1258
1306
1383
1390
1287
1156
1107
1154
1194
1133
995
888
875
922
949
932
910
924
945
912
807
684
613
621
666
687
662
623
614
654
716
750
724
647
570
534
544
578
609
625
620
589
543
493
423
293
98
-94
-200
-209
-204
-265
-364
-409
-364
-301
-308
-390
-481
-542
-599
-665
-691
-627
-509
-437
-458
-495
-442
-306
-221
-295
-471
-580
-533
-419
-388
-467
-531
-473
-339
-271
-329
-419
-443
-425
-466
-576
-644
-586
-468
-424
-477
-523
-490
-460
-557
-754
-889
-858
-737
-673
-689
-661
-497
-265
-110
-84
-127
-167
-204
-258
-305
-301
-254
-216
-210
-195
-129
-31
23
-16
-125
-256
-372
-445
-443
-366
-266
-215
-232
-271
-275
-239
-210
-232
-302
-396
-487
-542
-523
-426
-307
-254
-312
-425
-498
-482
-425
-403
-450
-532
-592
-604
-598
-622
-710
-864
-1064
-1290
-1520
-1720
-1845
-1857
-1752
-1566
-1350
-1134
-906
-614
-215
283
794
1198
1442
1592
1776
2042
2296
2396
2303
2114
1944
1813
1662
1455
1225
1023
858
708
575
497
487
511
520
501
476
457
434
402
377
365
347
295
215
159
172
237
293
299
272
261
284
308
298
269
260
294
354
411
457
501
546
572
559
512
456
405
349
278
188
95
15
-37
-44
0
73
124
114
58
23
51
109
116
33
-82
-143
-121
-58
-2
43
97
156
205
250
319
411
476
458
365
268
234
266
310
314
259
162
70
23
18
12
-38
-117
-172
-168
-139
-140
-183
-228
-254
-284
-342
-391
-358
-220
-40
95
159
205
301
438
521
442
179
-143
-305
-134
365
984
1441
1580
1463
1321
1353
1550
1688
1517
989
331
-126
-222
-79
20
-110
-429
-739
-859
-753
-520
-301
-183
-155
-146
-87
30
152
218
203
118
-21
-189
-338
-401
-335
-179
-51
-58
-206
-388
-481
-443
-335
-238
-174
-105
1
112
163
114
-13
-160
-278
-341
-354
-351
-384
-494
-663
-819
-901
-926
-975
-1108
-1291
-1422
-1427
-1328
-1199
-1084
-960
-775
-509
-198
98
339
530
711
916
1138
1334
1482
1622
1826
2129
2487
2819
3106
3397
3740
4118
4467
4759
5030
5333
5675
6028
6396
6823
7334
7860
8263
8444
8423
8310
8190
8041
7780
7358
6822
6288
5860
5572
5392
5254
5074
4783
4358
3827
3244
2630
1955
1184
346
-457
-1106
-1545
-1807
-1964
-2061
-2104
-2089
-2039
-2004
-2013
-2056
-2095
-2105
-2104
-2127
-2182
-2240
-2260
-2234
-2206
-2222
-2286
-2362
-2420
-2479
-2575
-2714
-2853
-2948
-3005
-3078
-3208
-3381
-3543
-3658
-3742
-3842
-3987
-4158
-4319
-4455
-4588
-4735
-4864
-4907
-4823
-4637
-4417
-4199
-3964
-3671
-3311
-2910
-2497
-2091
-1720
-1416
-1187
-991
-792
-620
-557
-658
-878
-1113
-1296
-1434
-1568
-1703
-1796
-1808
-1744
-1643
-1537
-1435
-1331
-1225
-1133
-1076
-1054
-1030
-963
-845
-711
-597
-508
-412
-284
-136
4
119
214
303
398
500
609
717
819
919
1033
1165
1301
1414
1495
1559
1627
1700
1762
1805
1833
1855
1866
1858
1840
1829
1827
1815
1769
1701
1642
1611
1596
1579
1555
1534
1521
1500
1460
1412
1383
1391
1422
1418
1318
1131
972
984
1187
1424
1507
1431
1394
1564
1837
1898
1549
943
451
289
339
320
104
-166
-261
-102
177
374
400
314
232
212
240
280
340
447
597
740
827
859
877
895
886
815
677
492
298
162
164
338
622
917
1194
1525
1959
2407
2695
2730
2566
2287
1875
1267
528
-126
-511
-649
-698
-735
-670
-398
28
417
624
669
662
666
658
606
534
484
469
466
447
421
407
411
397
339
262
230
288
404
486
445
283
123
123
359
745
1078
1171
1009
767
680
830
1063
1104
803
286
-148
-284
-181
-100
-251
-615
-979
-1152
-1101
-938
-781
-680
-622
-580
-532
-466
-373
-268
-185
-159
-198
-270
-315
-287
-177
-28
85
106
40
-78
-211
-339
-440
-484
-459
-387
-314
-274
-277
-308
-342
-364
-367
-372
-393
-429
-454
-449
-431
-440
-489
-548
-576
-567
-555
-573
-617
-662
-689
-695
-683
-656
-623
-599
-588
-565
-500
-391
-277
-193
-143
-95
-26
56
120
151
161
168
169
134
45
-80
-193
-245
-236
-217
-249
-334
-384
-296
-67
153
168
-92
-486
-785
-893
-922
-1056
-1335
-1618
-1733
-1651
-1488
-1374
-1343
-1360
-1393
-1437
-1487
-1530
-1579
-1678
-1844
-2030
-2170
-2254
-2323
-2390
-2395
-2272
-2021
-1714
-1407
-1089
-722
-303
132
546
910
1195
1383
1498
1601
1731
1843
1854
1728
1510
1276
1057
849
649
482
369
304
260
232
236
278
324
324
261
180
159
242
395
521
546
469
358
270
208
119
-41
-261
-473
-599
-601
-506
-381
-287
-237
-212
-182
-133
-70
-16
2
-22
-63
-76
-47
-3
11
-13
-38
-27
8
20
-6
-33
-15
48
109
127
103
64
40
38
54
76
87
79
66
79
125
180
202
180
146
135
150
160
148
131
135
160
180
176
159
150
143
109
32
-64
-124
-125
-92
-75
-91
-105
-73
5
76
93
66
49
76
117
122
89
76
136
248
334
353
342
362
428
499
544
568
600
647
692
728
757
780
790
790
796
806
792
740
692
707
781
830
786
687
642
699
786
793
700
596
567
601
607
532
420
349
339
342
318
283
287
346
418
449
434
420
449
503
528
497
438
399
401
412
385
310
222
164
136
100
32
-45
-89
-97
-114
-178
-262
-301
-273
-236
-267
-379
-507
-581
-602
-626
-686
-760
-804
-799
-761
-711
-660
-612
-573
-541
-504
-448
-383
-321
-267
-212
-161
-133
-134
-126
-63
50
150
183
162
153
200
279
338
360
373
403
439
448
407
324
222
127
50
-23
-117
-247
-380
-465
-476
-448
-441
-487
-565
-632
-667
-676
-684
-706
-746
-786
-794
-747
-655
-564
-515
-515
-532
-546
-569
-630
-721
-792
-795
-736
-675
-663
-684
-670
-576
-439
-338
-317
-341
-339
-286
-219
-185
-192
-214
-225
-235
-269
-341
-443
-548
-626
-667
-686
-709
-746
-787
-834
-906
-1020
-1169
-1331
-1507
-1711
-1925
-2073
-2074
-1922
-1708
-1513
-1311
-1006
-528
67
637
1080
1390
1637
1869
2066
2181
2189
2107
1984
1830
1641
1420
1195
1011
897
837
794
738
655
567
507
493
525
569
574
514
405
304
268
277
263
166
9
-91
-51
85
201
218
182
165
170
124
-20
-189
-266
-249
-228
-285
-369
-367
-287
-260
-369
-517
-540
-412
-303
-358
-497
-524
-373
-174
-95
-132
-172
-187
-278
-515
-789
-910
-832
-718
-741
-887
-977
-875
-630
-396
-281
-285
-399
-652
-1033
-1389
-1515
-1363
-1130
-1066
-1219
-1379
-1324
-1057
-767
-618
-619
-695
-792
-869
-857
-695
-444
-263
-250
-345
-403
-363
-291
-266
-351
-322
-354
-413
-491
-521
-448
-302
-185
-183
-287
-405
-444
-378
-254
-141
-74
-38
-15
-8
-26
-59
-62
6
140
282
368
383
371
395
481
590
666
682
664
657
680
717
737
726
698
677
671
669
655
624
582
535
484
426
358
280
197
130
106
132
186
236
272
313
375
443
493
517
531
552
573
577
570
582
633
702
743
735
696
664
643
609
546
474
424
390
336
250
170
148
177
190
127
15
-75
-116
-149
-219
-311
-374
-393
-411
-459
-500
-473
-373
-281
-276
-349
-418
-414
-358
-338
-402
-510
-574
-561
-516
-501
-515
-505
-448
-381
-356
-370
-370
-328
-280
-283
-350
-436
-483
-472
-428
-396
-395
-410
-409
-380
-343
-335
-362
-388
-387
-374
-390
-432
-453
-405
-311
-236
-217
-234
-237
-207
-161
-129
-123
-143
-185
-233
-260
-257
-243
-246
-279
-323
-348
-335
-297
-263
-266
-319
-399
-463
-493
-515
-576
-684
-805
-910
-1007
-1129
-1293
-1479
-1669
-1861
-2045
-2190
-2251
-2212
-2089
-1909
-1685
-1416
-1095
-706
-240
262
715
1046
1272
1471
1693
1887
1957
1869
1689
1503
1337
1172
1006
860
736
615
498
426
445
527
584
567
532
584
709
736
521
121
-226
-339
-295
-318
-505
-715
-745
-576
-380
-306
-324
-305
-193
-53
56
167
355
610
831
915
854
720
593
498
409
289
136
-28
-178
-288
-339
-334
-295
-259
-249
-267
-279
-257
-207
-165
-149
-139
-93
-2
87
99
7
-121
-152
-10
244
449
507
467
456
534
645
695
649
557
492
497
566
654
707
696
617
483
310
130
21
70
275
517
669
727
814
1038
1363
1629
1700
1576
1387
1269
1261
1284
1228
1057
830
625
465
335
254
289
446
614
658
586
568
736
1009
1153
1016
664
290
44
-27
68
285
521
651
673
755
1054
1486
1737
1568
1066
566
297
195
50
-198
-397
-397
-249
-126
-115
-136
-85
9
7
-183
-513
-856
-1117
-1283
-1382
-1449
-1486
-1485
-1436
-1351
-1258
-1186
-1150
-1125
-1068
-958
-833
-784
-892
-1121
-1300
-1251
-983
-711
-657
-793
-842
-578
-84
309
356
127
-107
-172
-128
-138
-263
-418
-492
-470
-414
-371
-344
-323
-316
-338
-400
-484
-562
-603
-596
-557
-523
-528
-569
-615
-657
-723
-875
-1160
-1571
-2005
-2306
-2371
-2260
-2185
-2312
-2546
-2561
-2125
-1375
-723
-457
-465
-381
10
581
1047
1274
1367
1505
1755
2072
2404
2745
3099
3453
3785
4101
4437
4818
5239
5658
6023
6291
6446
6508
6522
6513
6473
6387
6241
6035
5799
5566
5353
5139
4889
4607
4339
4123
3942
3752
3537
3287
2933
2362
1552
675
-5
-363
-540
-775
-1135
-1436
-1442
-1122
-688
-409
-400
-584
-802
-951
-1034
-1086
-1107
-1035
-830
-528
-213
64
334
639
931
1077
983
703
399
192
75
-43
-225
-456
-679
-855
-984
-1071
-1117
-1121
-1092
-1054
-1034
-1034
-1036
-1008
-936
-845
-784
-782
-820
-852
-864
-878
-912
-936
-903
-821
-750
-718
-676
-557
-381
-250
-236
-303
-363
-397
-451
-537
-582
-503
-316
-113
42
181
358
559
698
721
662
594
556
528
491
468
496
578
675
743
782
823
887
947
963
924
868
845
868
915
963
1012
1064
1104
1119
1117
1125
1156
1194
1208
1199
1200
1239
1310
1382
1436
1481
1534
1595
1643
1656
1629
1578
1533
1508
1499
1494
1495
1512
1544
1571
1586
1620
1699
1779
1763
1609
1391
1231
1175
1165
1145
1144
1232
1417
1624
1777
1862
1899
1880
1789
1648
1520
1452
1440
1473
1560
1706
1868
1981
2024
2039
2072
2099
2055
1913
1729
1577
1476
1389
1287
1220
1255
1378
1462
1382
1152
931
852
869
806
553
193
-99
-235
-268
-290
-322
-331
-305
-264
-216
-139
-36
35
14
-87
-204
-298
-390
-477
-495
-373
-138
65
106
6
-72
38
374
821
1201
1370
1283
1015
733
614
711
878
856
480
-138
-663
-809
-599
-356
-407
-771
-1158
-1253
-1000
-613
-350
-294
-355
-417
-426
-386
-305
-198
-122
-150
-294
-483
-611
-622
-546
-464
-448
-524
-666
-821
-944
-1024
-1075
-1113
-1132
-1123
-1090
-1059
-1044
-1024
-969
-879
-781
-685
-551
-336
-67
162
272
282
289
359
459
497
416
254
100
30
61
145
213
232
236
302
461
635
694
589
416
303
273
229
104
-42
-94
-27
90
220
393
588
660
453
4
-459
-745
-907
-1158
-1576
-1956
-2000
-1617
-1048
-682
-729
-1048
-1291
-1253
-1078
-1106
-1490
-2013
-2298
-2174
-1804
-1459
-1247
-1087
-879
-593
-219
257
777
1188
1376
1404
1453
1593
1684
1543
1173
754
436
216
26
-137
-214
-181
-107
-74
-99
-153
-234
-363
-516
-609
-584
-474
-370
-314
-257
-129
73
277
411
468
483
487
482
465
440
411
384
375
402
466
532
566
571
586
624
637
585
499
458
501
564
570
546
598
765
919
888
662
425
357
430
455
318
122
55
187
411
582
656
684
702
690
618
508
409
349
316
292
281
315
410
541
651
691
653
579
505
446
395
344
306
292
294
307
351
441
545
579
495
354
292
379
542
630
577
478
466
575
712
787
813
863
942
994
999
1030
1149
1284
1281
1096
859
731
718
687
563
441
452
591
716
754
781
876
979
977
888
863
936
886
480
-175
-625
-544
-125
108
-98
-426
-338
305
1092
1505
1430
1172
1055
1103
1110
949
695
499
415
383
354
367
484
683
851
877
751
561
418
362
357
346
309
249
177
97
22
-32
-65
-89
-115
-146
-176
-203
-222
-221
-198
-174
-184
-234
-288
-299
-259
-207
-193
-236
-307
-354
-341
-281
-232
-250
-337
-433
-478
-476
-486
-540
-597
-592
-524
-461
-448
-450
-392
-270
-171
-150
-137
-10
231
397
282
-105
-518
-700
-618
-457
-382
-366
-255
44
470
884
1189
1353
1359
1200
919
642
499
517
601
634
602
600
722
954
1174
1269
1223
1099
957
811
662
543
496
495
449
296
80
-86
-140
-124
-115
-136
-160
-168
-185
-241
-320
-378
-405
-427
-469
-513
-524
-496
-468
-479
-534
-606
-666
-706
-744
-798
-872
-953
-1040
-1153
-1314
-1516
-1722
-1908
-2090
-2295
-2479
-2538
-2406
-2150
-1906
-1717
-1464
-996
-321
371
901
1252
1538
1839
2111
2260
2260
2149
1968
1731
1454
1182
957
784
647
549
504
492
456
375
291
260
274
263
173
42
-41
-31
30
80
102
114
127
107
20
-113
-216
-227
-155
-88
-101
-194
-280
-262
-115
78
165
43
-245
-530
-651
-591
-475
-437
-491
-545
-537
-496
-489
-529
-580
-625
-707
-855
-1013
-1069
-989
-859
-800
-859
-971
-1056
-1092
-1117
-1160
-1207
-1225
-1209
-1178
-1136
-1082
-1017
-965
-960
-1007
-1079
-1130
-1137
-1121
-1101
-1063
-981
-876
-833
-931
-1152
-1382
-1515
-1537
-1522
-1529
-1552
-1541
-1463
-1309
-1085
-824
-614
-538
-587
-648
-617
-522
-475
-522
-596
-633
-670
-790
-975
-1089
-1060
-973
-978
-1091
-1163
-1062
-807
-521
-286
-119
-27
-43
-177
-356
-488
-573
-702
-942
-1237
-1450
-1474
-1324
-1110
-926
-800
-686
-538
-356
-191
-98
-85
-122
-179
-244
-313
-370
-392
-376
-343
-296
-231
-148
-64
4
68
144
226
286
299
284
278
299
336
362
371
379
412
469
522
541
529
521
534
545
522
478
467
527
613
654
633
602
621
683
732
720
652
562
486
439
416
399
360
301
261
277
327
355
329
280
256
260
250
210
174
176
199
189
131
87
128
244
336
320
220
161
235
404
527
505
386
313
381
534
639
637
595
619
730
855
924
945
972
1035
1100
1128
1122
1113
1116
1119
1108
1092
1083
1082
1076
1067
1063
1074
1084
1073
1026
959
898
860
838
815
780
740
716
712
707
670
579
443
288
136
-6
-140
-267
-378
-461
-521
-585
-700
-883
-1110
-1333
-1535
-1756
-2021
-2285
-2444
-2424
-2258
-2045
-1836
-1586
-1206
-674
-65
505
958
1300
1572
1807
1994
2088
2052
1885
1630
1353
1098
875
670
472
290
147
66
52
81
116
126
110
95
107
137
142
91
2
-77
-109
-106
-102
-106
-91
-26
73
161
211
236
258
275
260
205
138
105
120
163
202
220
219
212
205
195
166
113
49
-19
-94
-183
-273
-338
-368
-393
-453
-550
-641
-694
-720
-758
-817
-870
-894
-903
-919
-937
-923
-875
-846
-886
-970
-1005
-935
-818
-760
-802
-876
-898
-875
-885
-975
-1093
-1156
-1145
-1116
-1112
-1107
-1029
-854
-641
-481
-411
-397
-380
-337
-295
-289
-322
-371
-413
-440
-444
-418
-360
-293
-248
-234
-220
-170
-79
37
156
249
281
243
184
186
262
320
282
194
195
343
537
640
626
575
519
378
86
-274
-529
-600
-581
-599
-640
-563
-276
131
457
562
472
323
230
201
162
60
-77
-161
-138
-60
-20
-55
-117
-153
-169
-219
-320
-426
-464
-417
-324
-235
-177
-152
-157
-197
-296
-489
-760
-981
-963
-621
-109
258
270
26
-172
-143
-21
-98
-498
-1033
-1395
-1437
-1267
-1081
-978
-938
-904
-860
-816
-780
-769
-812
-926
-1090
-1229
-1278
-1244
-1185
-1143
-1125
-1120
-1132
-1161
-1180
-1142
-1023
-843
-634
-400
-119
204
504
696
751
715
656
594
517
426
363
373
465
618
835
1138
1516
1882
2110
2135
1998
1797
1605
1436
1280
1146
1058
1026
1048
1123
1245
1388
1495
1525
1487
1437
1425
1453
1498
1557
1648
1772
1896
1971
1990
1998
2042
2125
2215
2292
2373
2486
2623
2737
2786
2766
2704
2621
2518
2375
2177
1931
1671
1429
1213
1012
829
683
578
494
413
360
387
505
652
750
779
783
833
999
1353
1922
2599
3151
3394
3380
3370
3547
3790
3786
3366
2699
2129
1863
1838
1868
1831
1730
1620
1547
1539
1587
1618
1540
1351
1181
1174
1324
1476
1489
1382
1287
1265
1224
1035
701
370
185
154
181
185
161
135
108
78
73
133
238
306
267
134
-16
-141
-271
-447
-660
-855
-1010
-1164
-1354
-1548
-1646
-1576
-1365
-1131
-990
-982
-1061
-1145
-1203
-1263
-1378
-1557
-1754
-1906
-1982
-1990
-1955
-1896
-1834
-1786
-1748
-1675
-1535
-1340
-1139
-973
-854
-769
-703
-644
-585
-530
-511
-570
-711
-867
-923
-778
-411
85
555
886
1080
1223
1353
1409
1307
1069
839
747
790
874
945
1056
1282
1605
1904
2076
2119
2117
2139
2183
2210
2211
2208
2221
2247
2278
2334
2444
2596
2724
2786
2839
2985
3207
3321
3148
2738
2363
2248
2319
2303
2049
1712
1554
1625
1707
1560
1181
756
433
196
-19
-183
-194
-19
239
455
594
716
869
1014
1080
1045
937
792
636
535
553
658
701
561
304
152
247
505
719
823
953
1238
1583
1767
1696
1482
1239
911
395
-208
-587
-535
-215
-26
-197
-567
-789
-700
-466
-379
-568
-911
-1171
-1190
-986
-708
-521
-481
-502
-464
-359
-318
-478
-765
-907
-706
-288
-19
-121
-402
-472
-199
122
98
-292
-666
-689
-447
-330
-544
-887
-1013
-896
-865
-1215
-1841
-2336
-2419
-2217
-2074
-2166
-2347
-2360
-2136
-1838
-1653
-1614
-1647
-1707
-1803
-1940
-2074
-2160
-2234
-2370
-2557
-2690
-2696
-2621
-2565
-2531
-2450
-2295
-2148
-2094
-2088
-2000
-1785
-1573
-1530
-1655
-1770
-1688
-1394
-1062
-892
-944
-1096
-1134
-938
-593
-357
-414
-691
-937
-984
-909
-908
-1067
-1283
-1421
-1457
-1433
-1347
-1146
-846
-561
-381
-258
-73
228
624
1132
1792
2514
3029
3104
2821
2530
2462
2456
2165
1501
774
359
324
427
463
460
537
690
782
726
570
416
307
197
17
-244
-511
-636
-504
-166
138
176
-45
-288
-365
-325
-327
-372
-297
-31
255
318
146
-42
-84
-88
-278
-698
-1154
-1447
-1571
-1641
-1672
-1536
-1142
-600
-150
51
51
11
22
10
-144
-434
-709
-831
-819
-800
-829
-815
-647
-378
-205
-264
-479
-671
-773
-893
-1158
-1569
-2003
-2329
-2487
-2478
-2344
-2138
-1898
-1625
-1317
-1030
-866
-876
-982
-1054
-1056
-1058
-1126
-1215
-1211
-1069
-857
-661
-508
-387
-304
-268
-248
-186
-62
70
143
141
108
80
65
63
104
206
345
476
586
709
877
1067
1230
1327
1348
1293
1170
1007
856
759
713
677
620
542
472
444
479
575
690
758
750
707
708
785
891
936
867
712
539
416
365
358
358
358
378
436
509
564
586
580
547
470
345
207
109
77
77
58
-12
-130
-257
-342
-343
-280
-227
-238
-273
-240
-105
47
101
25
-105
-182
-168
-94
-1
84
166
249
325
361
317
194
66
7
-2
-65
-234
-396
-371
-125
158
250
111
-70
-87
87
303
407
397
392
487
662
812
872
870
877
909
910
836
746
756
887
1023
1031
925
842
867
935
936
866
824
865
915
900
864
924
1095
1251
1273
1197
1164
1245
1362
1406
1365
1314
1305
1302
1241
1131
1035
1005
1022
1016
940
798
639
516
447
410
366
288
176
52
-51
-116
-150
-192
-287
-444
-627
-801
-979
-1222
-1569
-1989
-2411
-2795
-3146
-3469
-3720
-3835
-3790
-3619
-3375
-3082
-2734
-2319
-1835
-1309
-792
-342
15
311
606
918
1195
1344
1320
1165
974
827
742
672
566
424
316
310
399
500
533
491
424
361
273
133
-21
-117
-134
-140
-217
-374
-535
-623
-638
-648
-715
-835
-950
-1010
-1015
-1004
-1011
-1035
-1055
-1063
-1077
-1117
-1178
-1227
-1243
-1238
-1246
-1281
-1326
-1347
-1331
-1296
-1272
-1273
-1288
-1294
-1276
-1242
-1214
-1215
-1243
-1271
-1271
-1238
-1204
-1204
-1237
-1262
-1248
-1210
-1191
-1218
-1270
-1311
-1330
-1338
-1344
-1340
-1324
-1304
-1291
-1273
-1228
-1164
-1116
-1113
-1132
-1123
-1064
-991
-953
-955
-947
-881
-770
-679
-661
-710
-773
-810
-821
-827
-843
-868
-894
-900
-861
-778
-677
-594
-545
-527
-534
-561
-594
-594
-540
-472
-456
-509
-558
-517
-384
-254
-220
-285
-371
-410
-400
-382
-394
-432
-479
-518
-544
-552
-537
-509
-495
-514
-554
-573
-547
-501
-476
-492
-525
-547
-578
-650
-753
-832
-856
-860
-895
-951
-965
-922
-883
-910
-975
-994
-943
-906
-976
-1131
-1246
-1228
-1112
-1011
-994
-1027
-1029
-954
-832
-728
-707
-791
-939
-1080
-1163
-1198
-1224
-1273
-1323
-1328
-1277
-1199
-1130
-1075
-1018
-953
-893
-850
-810
-760
-711
-689
-702
-730
-755
-777
-818
-876
-928
-955
-968
-976
-959
-888
-776
-678
-640
-631
-580
-472
-371
-347
-400
-460
-464
-411
-351
-307
-276
-244
-201
-135
-27
120
265
357
375
347
314
291
261
202
115
28
-20
-13
29
65
63
38
42
113
218
294
311
305
328
377
393
329
209
96
31
-2
-39
-95
-166
-235
-309
-408
-553
-759
-1024
-1333
-1664
-1997
-2298
-2514
-2597
-2532
-2354
-2110
-1816
-1458
-1017
-502
58
609
1088
1454
1716
1928
2123
2263
2262
2093
1825
1563
1362
1205
1059
918
791
686
609
581
622
695
728
671
558
468
438
424
359
250
175
196
275
314
266
188
169
218
259
223
134
67
57
67
54
32
50
123
199
220
188
151
143
141
97
-9
-143
-248
-294
-309
-346
-431
-530
-583
-576
-558
-584
-648
-686
-653
-589
-569
-625
-704
-733
-702
-665
-676
-733
-785
-792
-758
-717
-691
-676
-651
-610
-572
-562
-581
-604
-604
-585
-576
-596
-633
-653
-634
-587
-535
-497
-478
-463
-432
-369
-291
-232
-208
-205
-186
-135
-69
-12
24
49
74
99
123
148
175
192
204
234
298
384
448
465
461
486
561
656
717
713
660
597
555
549
568
596
632
689
772
869
947
996
1039
1093
1139
1137
1074
988
924
889
866
849
851
866
866
839
812
828
875
895
856
788
751
770
810
831
824
807
791
768
719
633
525
430
380
372
366
340
312
320
365
406
413
401
402
411
388
318
239
198
192
189
181
199
251
300
308
295
320
404
485
487
404
318
300
338
359
324
272
266
312
357
366
366
390
415
369
242
123
81
69
-10
-142
-195
-98
38
46
-81
-195
-230
-323
-610
-961
-1064
-810
-483
-473
-807
-1091
-945
-431
38
144
-50
-232
-177
99
438
709
838
778
534
192
-99
-252
-328
-466
-738
-1058
-1244
-1182
-925
-645
-481
-463
-555
-720
-927
-1115
-1213
-1226
-1257
-1406
-1644
-1822
-1848
-1789
-1793
-1929
-2145
-2365
-2575
-2788
-2968
-3049
-3030
-2969
-2866
-2636
-2209
-1629
-1018
-452
53
470
732
844
921
1060
1170
1045
637
184
-10
102
289
324
242
257
489
845
1144
1304
1368
1401
1406
1351
1227
1054
860
684
549
470
435
421
435
507
646
822
1011
1205
1381
1467
1402
1237
1153
1312
1678
2044
2252
2376
2633
3134
3740
4193
4353
4291
4155
4017
3850
3627
3381
3175
3044
2977
2946
2936
2923
2877
2780
2634
2456
2264
2075
1911
1800
1757
1760
1757
1695
1561
1381
1193
1007
811
602
398
224
85
-29
-128
-203
-252
-295
-360
-456
-559
-642
-703
-760
-829
-899
-950
-965
-944
-900
-850
-800
-746
-681
-601
-520
-456
-417
-392
-367
-340
-323
-326
-345
-369
-384
-388
-383
-380
-387
-400
-400
-380
-354
-355
-401
-469
-519
-536
-544
-570
-608
-622
-596
-557
-542
-558
-574
-565
-542
-530
-540
-555
-551
-524
-486
-444
-403
-371
-359
-365
-371
-364
-351
-361
-404
-457
-484
-477
-463
-473
-496
-494
-452
-404
-397
-434
-462
-436
-369
-324
-346
-407
-443
-415
-348
-293
-271
-253
-192
-80
46
147
213
268
325
373
385
352
293
243
228
254
302
335
333
320
356
472
624
720
711
650
643
741
892
1003
1040
1058
1119
1232
1345
1410
1429
1434
1451
1474
1500
1544
1626
1731
1805
1816
1792
1787
1818
1839
1785
1639
1459
1331
1317
1429
1617
1791
1883
1900
1909
1943
1922
1706
1247
680
222
-19
-124
-234
-354
-335
-53
411
807
946
864
754
751
789
715
482
211
56
74
174
229
203
136
75
24
-59
-223
-470
-719
-869
-889
-857
-865
-921
-941
-861
-744
-731
-891
-1130
-1271
-1203
-988
-805
-787
-893
-945
-797
-501
-268
-254
-394
-478
-386
-196
-94
-146
-259
-329
-340
-346
-386
-456
-530
-606
-690
-771
-843
-915
-975
-979
-920
-875
-956
-1178
-1405
-1448
-1208
-704
-15
731
1348
1624
1472
1043
620
336
34
-549
-1447
-2356
-2885
-2902
-2613
-2336
-2231
-2241
-2223
-2101
-1896
-1694
-1579
-1589
-1693
-1798
-1810
-1717
-1591
-1518
-1536
-1626
-1750
-1882
-1987
-2016
-1927
-1734
-1506
-1332
-1260
-1274
-1323
-1358
-1350
-1290
-1186
-1059
-936
-832
-748
-675
-599
-496
-353
-181
-27
66
99
124
179
245
279
258
204
157
133
136
181
297
510
811
1142
1401
1478
1328
1016
664
349
47
-319
-769
-1198
-1424
-1334
-984
-605
-431
-504
-640
-603
-373
-183
-259
-569
-849
-888
-740
-616
-635
-731
-792
-832
-941
-1135
-1317
-1386
-1354
-1296
-1242
-1149
-989
-817
-722
-728
-774
-797
-796
-816
-864
-887
-834
-722
-623
-585
-580
-557
-502
-450
-437
-472
-531
-598
-665
-730
-784
-824
-835
-810
-761
-735
-777
-879
-982
-1031
-1038
-1056
-1101
-1128
-1080
-968
-859
-798
-765
-714
-638
-577
-565
-587
-610
-617
-620
-629
-633
-610
-556
-494
-459
-467
-491
-476
-405
-329
-321
-382
-418
-349
-218
-149
-172
-145
87
450
657
491
62
-291
-357
-272
-348
-721
-1189
-1420
-1262
-867
-517
-382
-417
-460
-399
-249
-104
-34
-38
-67
-66
3
147
331
479
515
440
328
261
255
255
220
187
228
367
542
652
639
526
392
318
329
384
419
402
369
380
456
541
535
376
94
-218
-481
-696
-920
-1181
-1448
-1656
-1763
-1762
-1660
-1471
-1252
-1086
-1011
-961
-818
-554
-272
-81
32
184
450
781
1062
1241
1342
1382
1337
1204
1032
883
751
584
379
202
126
143
189
209
199
185
193
245
349
465
524
504
469
523
697
904
1016
992
896
812
767
736
688
624
548
462
364
275
226
230
255
258
227
193
195
238
292
321
315
293
275
258
227
174
105
30
-48
-126
-198
-259
-302
-324
-319
-284
-226
-162
-113
-88
-80
-68
-42
-18
-27
-78
-142
-170
-149
-117
-120
-162
-198
-189
-145
-106
-94
-92
-81
-58
-29
15
78
137
161
148
137
166
222
258
251
223
211
233
293
394
510
570
502
309
91
-46
-93
-138
-260
-426
-527
-491
-354
-218
-151
-139
-121
-72
-24
-28
-101
-201
-261
-250
-191
-140
-121
-107
-63
21
124
216
289
354
427
501
562
595
589
543
465
366
276
237
296
468
707
914
1005
968
875
810
797
795
760
691
638
658
773
949
1109
1173
1127
1027
943
877
763
549
293
116
83
139
190
198
200
238
305
352
347
297
232
184
161
130
54
-64
-165
-220
-285
-449
-686
-833
-756
-538
-422
-549
-789
-875
-692
-386
-189
-179
-236
-190
1
233
352
295
127
-3
14
148
256
233
136
136
330
608
749
644
417
291
360
487
464
245
18
17
268
550
616
439
219
140
153
73
-149
-330
-256
57
375
509
497
506
584
606
443
122
-216
-479
-677
-827
-899
-881
-837
-875
-1035
-1245
-1412
-1511
-1587
-1680
-1772
-1803
-1706
-1453
-1065
-600
-97
428
956
1434
1785
1986
2104
2222
2327
2302
2048
1619
1193
939
876
889
853
752
677
716
859
1008
1070
1018
901
792
723
692
681
669
643
602
564
553
564
558
501
411
349
367
471
637
829
1004
1097
1057
901
733
643
625
583
453
292
235
360
619
886
1067
1131
1091
983
872
831
880
946
922
788
647
634
779
969
1058
985
804
621
519
514
560
594
588
568
578
634
703
733
705
641
571
515
482
478
489
471
397
282
184
145
150
146
109
76
104
199
297
325
277
222
234
311
388
414
398
376
366
361
363
384
412
403
340
274
281
370
460
482
454
445
482
531
554
552
542
525
505
505
547
607
628
586
525
500
510
511
474
417
380
382
421
479
525
525
479
429
415
425
412
357
293
265
270
274
257
235
227
226
209
173
132
93
53
4
-44
-79
-103
-122
-140
-155
-173
-198
-227
-248
-259
-276
-316
-373
-422
-444
-444
-444
-461
-489
-515
-529
-531
-523
-513
-510
-521
-535
-540
-533
-534
-556
-588
-604
-590
-560
-527
-475
-384
-264
-162
-118
-124
-140
-148
-167
-218
-289
-343
-364
-364
-357
-337
-290
-229
-190
-199
-245
-293
-319
-326
-324
-311
-274
-199
-81
66
227
380
523
656
773
852
870
838
808
818
854
864
817
741
693
706
750
774
753
707
671
648
614
560
503
459
414
334
214
105
57
68
71
-3
-173
-397
-603
-735
-798
-869
-1029
-1263
-1438
-1433
-1279
-1123
-1056
-991
-786
-423
-23
337
717
1199
1724
2126
2324
2412
2512
2602
2543
2271
1890
1549
1302
1103
910
750
655
611
574
536
526
556
587
584
570
603
705
837
938
981
994
1010
1012
955
837
723
689
704
643
443
234
239
525
891
1107
1212
1481
2041
2603
2716
2284
1709
1436
1443
1293
696
-108
-604
-558
-226
-16
-57
-144
-42
249
550
716
741
705
676
670
681
706
731
742
730
699
660
625
610
632
697
779
835
831
775
693
602
499
394
319
296
311
336
368
430
521
589
586
517
446
418
404
353
256
153
76
10
-76
-176
-257
-299
-317
-344
-392
-442
-447
-394
-311
-268
-301
-364
-376
-315
-250
-249
-278
-231
-64
117
142
-49
-349
-601
-747
-849
-984
-1147
-1249
-1196
-960
-601
-234
32
143
117
25
-57
-106
-160
-269
-428
-555
-572
-478
-356
-275
-233
-230
-348
-699
-1249
-1761
-1980
-1895
-1740
-1712
-1738
-1576
-1115
-518
-62
101
19
-188
-435
-668
-829
-894
-898
-887
-842
-678
-362
8
287
413
443
476
547
630
706
817
1036
1387
1816
2219
2520
2720
2883
3068
3282
3487
3648
3767
3859
3937
3994
4016
3999
3944
3864
3771
3679
3595
3531
3508
3533
3583
3613
3600
3565
3548
3560
3571
3553
3516
3492
3495
3493
3450
3359
3249
3150
3070
2992
2891
2753
2588
2431
2315
2240
2176
2086
1956
1817
1706
1626
1546
1434
1286
1127
989
877
775
668
553
434
315
183
21
-175
-390
-593
-769
-931
-1100
-1282
-1454
-1594
-1715
-1850
-2019
-2213
-2411
-2608
-2799
-2948
-3006
-2951
-2812
-2632
-2418
-2134
-1747
-1270
-750
-237
223
597
879
1096
1284
1433
1483
1386
1169
924
721
559
393
209
46
-53
-87
-85
-63
-18
43
91
97
76
75
118
178
208
202
201
245
324
391
415
416
435
485
547
601
652
722
822
948
1081
1209
1336
1467
1594
1696
1751
1764
1757
1760
1784
1814
1843
1888
1967
2047
2040
1888
1654
1503
1569
1813
2054
2138
2084
2032
2064
2098
1982
1665
1249
881
626
473
410
455
611
816
987
1094
1173
1265
1356
1395
1352
1261
1191
1197
1295
1460
1641
1794
1899
1958
1962
1908
1814
1711
1597
1416
1159
981
1143
1755
2557
3071
3038
2683
2480
2618
2786
2515
1698
711
32
-183
-132
-72
-80
-98
-96
-117
-190
-275
-315
-322
-367
-492
-631
-644
-463
-182
-14
-86
-283
-354
-192
40
93
-51
-130
88
505
754
583
109
-311
-420
-258
-51
13
-94
-293
-487
-635
-762
-927
-1166
-1446
-1680
-1788
-1751
-1603
-1405
-1214
-1074
-1008
-1004
-1027
-1056
-1089
-1134
-1186
-1213
-1195
-1140
-1076
-1028
-1007
-1007
-1022
-1056
-1103
-1147
-1168
-1156
-1120
-1081
-1057
-1059
-1080
-1100
-1090
-1041
-969
-899
-840
-784
-720
-645
-565
-490
-422
-360
-292
-193
-50
116
260
345
376
387
407
447
503
575
661
741
790
790
752
716
726
791
859
848
719
534
410
409
473
485
398
279
229
275
357
407
414
401
379
331
257
193
176
191
187
141
80
48
45
19
-71
-223
-404
-585
-745
-861
-927
-975
-1071
-1242
-1439
-1587
-1694
-1859
-2152
-2500
-2727
-2716
-2510
-2245
-2006
-1770
-1468
-1079
-635
-191
199
493
681
811
950
1119
1255
1276
1165
989
823
681
527
326
96
-97
-188
-174
-123
-103
-124
-142
-120
-93
-117
-184
-220
-172
-86
-56
-129
-276
-451
-626
-764
-798
-699
-537
-411
-331
-196
68
392
627
688
627
541
473
410
344
304
304
325
351
385
450
540
627
667
627
501
318
133
9
-22
13
50
41
15
45
165
313
374
302
157
34
-48
-139
-253
-314
-245
-79
69
142
211
372
601
762
759
649
570
592
665
705
697
686
698
700
648
553
464
404
345
261
180
162
211
267
271
241
240
278
278
155
-80
-325
-466
-448
-291
-61
165
348
523
763
1084
1393
1557
1530
1393
1262
1180
1111
1034
986
1006
1068
1098
1057
985
947
953
945
849
665
469
358
366
444
518
545
538
527
530
547
574
611
642
645
624
612
637
686
713
699
675
685
724
747
725
680
645
625
599
560
529
516
496
439
351
274
232
207
165
107
68
78
122
164
180
170
159
164
171
158
123
99
118
165
173
100
-15
-80
-58
-15
-57
-211
-399
-517
-525
-459
-371
-287
-209
-124
-16
123
268
374
404
362
294
240
201
167
132
105
87
76
67
68
91
128
160
161
102
-15
-147
-246
-312
-390
-511
-647
-755
-866
-1074
-1402
-1713
-1805
-1621
-1321
-1111
-1029
-937
-719
-434
-250
-261
-408
-577
-716
-837
-969
-1116
-1270
-1423
-1559
-1644
-1671
-1666
-1651
-1610
-1504
-1330
-1111
-834
-445
69
622
1078
1376
1574
1754
1909
1961
1865
1683
1523
1423
1327
1163
934
732
630
594
523
386
277
311
453
486
228
-228
-569
-574
-343
-177
-243
-423
-501
-426
-322
-298
-325
-339
-367
-467
-595
-609
-449
-245
-193
-325
-464
-432
-232
-38
6
-80
-170
-176
-115
-56
-43
-72
-134
-236
-372
-515
-631
-705
-750
-794
-846
-892
-922
-953
-1018
-1123
-1235
-1314
-1348
-1359
-1363
-1351
-1316
-1277
-1273
-1317
-1388
-1441
-1446
-1419
-1402
-1438
-1508
-1531
-1447
-1292
-1176
-1165
-1203
-1188
-1090
-970
-884
-824
-774
-786
-924
-1133
-1244
-1146
-942
-843
-935
-1075
-1044
-794
-481
-298
-303
-408
-506
-552
-563
-564
-565
-558
-535
-510
-508
-555
-645
-745
-840
-943
-1066
-1176
-1200
-1108
-940
-760
-582
-384
-185
-64
-87
-220
-335
-337
-264
-232
-309
-452
-559
-567
-508
-466
-525
-699
-900
-989
-912
-751
-627
-548
-410
-193
-56
-180
-482
-646
-495
-280
-447
-1092
-1767
-1907
-1430
-804
-527
-612
-652
-306
371
1039
1409
1424
1205
924
720
646
639
580
420
239
153
179
242
281
313
358
375
320
228
194
271
393
455
433
397
399
401
328
172
18
-47
-14
35
15
-78
-175
-204
-160
-107
-102
-139
-162
-137
-89
-56
-35
4
63
88
26
-97
-198
-220
-190
-188
-259
-357
-402
-360
-280
-245
-279
-319
-290
-196
-118
-118
-159
-163
-128
-157
-317
-535
-656
-617
-527
-543
-688
-846
-921
-953
-1043
-1215
-1391
-1495
-1533
-1544
-1511
-1374
-1134
-871
-631
-357
30
505
925
1180
1309
1432
1583
1676
1627
1470
1310
1183
1019
758
449
197
56
-33
-164
-363
-551
-631
-588
-528
-586
-794
-1024
-1104
-999
-873
-902
-1088
-1260
-1283
-1201
-1160
-1222
-1311
-1339
-1312
-1287
-1287
-1293
-1295
-1312
-1335
-1317
-1234
-1138
-1105
-1135
-1159
-1127
-1079
-1081
-1142
-1206
-1224
-1197
-1164
-1150
-1160
-1178
-1172
-1106
-995
-908
-917
-1017
-1121
-1151
-1118
-1103
-1154
-1228
-1252
-1200
-1115
-1053
-1028
-1019
-1012
-1005
-998
-986
-963
-939
-926
-914
-886
-841
-803
-791
-795
-787
-760
-737
-742
-760
-755
-709
-647
-601
-577
-553
-514
-478
-475
-502
-535
-550
-547
-534
-514
-497
-511
-560
-603
-580
-488
-401
-389
-443
-498
-524
-567
-670
-794
-849
-805
-722
-668
-628
-524
-327
-119
-15
-44
-109
-92
32
165
202
152
131
228
409
556
610
624
658
683
622
482
393
470
677
867
953
990
1081
1237
1367
1388
1310
1204
1113
1039
971
921
902
887
825
702
572
515
564
655
701
671
621
622
681
738
739
692
655
668
707
708
660
628
687
829
966
1023
1011
965
851
585
166
-256
-496
-525
-477
-464
-421
-197
230
688
980
1073
1089
1123
1135
1022
762
453
219
99
35
-40
-136
-206
-211
-173
-159
-216
-323
-417
-462
-477
-509
-571
-646
-718
-793
-877
-957
-1017
-1053
-1079
-1102
-1109
-1078
-1002
-925
-905
-961
-1039
-1071
-1056
-1074
-1194
-1387
-1558
-1661
-1742
-1853
-1963
-2000
-1974
-1994
-2142
-2369
-2555
-2653
-2730
-2858
-3000
-3046
-2926
-2655
-2284
-1839
-1323
-743
-117
530
1159
1721
2194
2601
2989
3359
3655
3832
3929
4034
4203
4402
4540
4554
4493
4514
4775
5289
5880
6325
6575
6802
7204
7741
8136
8139
7780
7320
6973
6721
6409
5959
5452
5008
4665
4379
4105
3834
3561
3257
2904
2521
2144
1785
1431
1073
723
383
33
-343
-721
-1054
-1310
-1506
-1676
-1827
-1944
-2020
-2076
-2129
-2172
-2184
-2163
-2129
-1319
-1253
-1213
-1172
-1114
-1059
-1042
-1053
-1047
-997
-937
-918
-949
-981
-966
-909
-852
-822
-802
-759
-681
-581
-485
-412
-371
-355
-352
-349
-354
-384
-443
-504
-529
-500
-436
-376
-337
-311
-271
-201
-124
-88
-116
-183
-234
-239
-215
-185
-145
-85
-27
-21
-92
-198
-267
-262
-195
-81
83
285
490
669
842
1052
1289
1467
1516
1464
1400
1384
1391
1379
1360
1387
1470
1560
1600
1605
1642
1747
1871
1916
1793
1501
1152
924
937
1136
1324
1338
1218
1163
1295
1511
1573
1375
1060
851
809
810
743
661
712
935
1198
1335
1314
1234
1188
1172
1120
1007
883
820
851
956
1092
1217
1299
1328
1318
1290
1262
1237
1221
1224
1253
1293
1311
1289
1236
1176
1123
1073
1021
971
936
914
894
864
826
799
798
826
871
915
951
988
1025
1056
1070
1066
1064
1087
1128
1153
1138
1099
1079
1107
1164
1209
1222
1218
1223
1240
1258
1262
1230
1112
860
503
172
13
37
107
78
-33
-76
58
301
475
466
310
111
-72
-241
-401
-540
-664
-811
-1013
-1253
-1485
-1676
-1816
-1904
-1935
-1911
-1837
-1705
-1487
-1163
-755
-311
124
523
859
1118
1315
1497
1689
1851
1904
1814
1624
1404
1189
965
738
541
407
324
260
203
174
184
185
114
-39
-212
-328
-372
-389
-424
-472
-491
-454
-384
-320
-278
-240
-172
-57
91
230
321
355
350
329
291
216
101
-18
-87
-80
-14
78
184
307
439
552
615
627
617
615
623
627
620
623
669
762
858
900
862
779
709
673
642
582
505
458
462
488
485
453
441
483
541
540
454
351
321
381
450
439
345
256
240
279
308
288
243
212
198
174
119
41
-50
-155
-280
-404
-494
-540
-565
-597
-633
-649
-635
-609
-597
-604
-615
-610
-585
-550
-518
-499
-491
-483
-470
-464
-479
-510
-542
-572
-599
-615
-590
-519
-455
-489
-644
-825
-907
-866
-805
-821
-891
-891
-751
-535
-364
-286
-257
-227
-199
-202
-218
-205
-158
-113
-83
-28
91
243
353
387
382
385
384
343
273
228
246
305
354
376
400
444
485
493
480
477
498
509
457
319
134
-15
-62
-4
94
155
155
134
163
279
445
574
574
429
225
98
124
237
299
231
86
-12
2
87
152
144
71
-24
-95
-109
-65
10
85
141
196
277
392
511
592
610
582
542
514
485
434
374
349
380
439
488
533
616
739
829
802
670
548
544
637
700
654
565
585
761
962
997
830
636
616
772
889
768
448
156
77
162
198
31
-296
-612
-793
-854
-892
-966
-1041
-1037
-915
-705
-465
-224
37
352
728
1128
1494
1786
2005
2182
2347
2497
2586
2565
2430
2233
2034
1859
1701
1552
1418
1304
1199
1078
946
862
886
1022
1190
1276
1241
1156
1132
1196
1260
1222
1087
938
816
666
451
254
206
304
366
225
-56
-227
-135
88
163
-27
-312
-442
-371
-287
-375
-590
-719
-627
-409
-276
-315
-400
-363
-186
-17
4
-104
-210
-221
-166
-127
-137
-177
-227
-293
-366
-424
-465
-528
-643
-769
-828
-781
-669
-565
-498
-443
-378
-312
-283
-321
-415
-519
-595
-661
-774
-950
-1120
-1188
-1136
-1046
-1000
-999
-1007
-1024
-1074
-1139
-1174
-1205
-1338
-1590
-1764
-1608
-1111
-565
-264
-187
-57
294
715
925
833
604
437
370
314
215
113
62
66
99
147
207
254
257
225
221
304
464
624
716
743
760
803
866
919
952
972
962
914
875
920
1060
1201
1234
1164
1104
1131
1196
1193
1105
1017
991
997
966
891
830
820
828
804
751
698
655
598
518
441
405
416
438
429
381
314
262
246
256
264
239
167
76
10
12
84
187
265
280
248
223
251
325
403
431
388
301
218
177
177
186
170
132
93
71
57
37
13
-2
3
15
22
14
-10
-39
-57
-49
-25
-19
-56
-120
-167
-177
-174
-195
-247
-297
-301
-252
-185
-150
-172
-229
-268
-262
-231
-225
-261
-297
-276
-196
-116
-84
-84
-59
-3
1
-136
-397
-650
-761
-738
-715
-821
-1020
-1142
-1055
-814
-621
-617
-761
-885
-872
-748
-610
-498
-387
-246
-57
200
529
878
1132
1230
1260
1375
1600
1784
1757
1515
1215
980
790
573
340
165
68
-19
-140
-242
-226
-108
-29
-108
-321
-535
-657
-697
-714
-732
-734
-719
-711
-700
-623
-446
-239
-130
-168
-268
-325
-349
-448
-630
-739
-618
-307
-22
98
158
363
753
1137
1296
1208
1025
897
835
779
714
674
681
713
726
715
704
699
676
617
530
452
407
397
424
491
578
625
569
403
211
96
92
146
183
186
200
275
407
543
615
589
484
355
261
239
278
332
360
367
400
513
703
879
936
854
723
661
701
772
789
741
678
650
668
719
781
813
766
636
490
417
439
494
510
474
432
421
439
463
479
480
449
371
270
197
193
246
303
320
297
271
271
300
340
369
368
338
300
277
284
309
325
315
287
262
251
255
267
285
298
285
250
225
245
302
348
336
274
221
216
238
227
153
46
-37
-74
-97
-146
-225
-296
-334
-362
-418
-487
-512
-474
-457
-559
-751
-863
-755
-493
-299
-314
-440
-465
-302
-77
22
-47
-166
-208
-164
-122
-153
-237
-300
-287
-203
-108
-52
-33
-4
76
188
269
279
239
201
195
212
224
213
187
166
172
218
295
373
421
415
352
256
170
125
124
143
183
266
394
521
605
686
868
1194
1539
1691
1546
1202
847
580
362
118
-151
-372
-468
-408
-214
65
340
506
512
401
272
185
118
15
-116
-198
-160
-2
215
445
693
975
1275
1544
1766
1984
2235
2506
2750
2944
3093
3173
3126
2912
2570
2206
1920
1738
1604
1443
1226
1012
897
906
959
950
863
778
733
645
402
27
-315
-493
-553
-635
-780
-843
-634
-109
568
1134
1408
1412
1311
1241
1169
945
513
20
-298
-344
-214
-44
151
430
758
990
1030
947
884
889
883
793
653
555
535
548
527
457
351
236
125
42
11
36
106
211
359
546
734
870
917
891
846
828
842
859
847
802
738
658
552
432
348
324
310
218
29
-157
-221
-151
-36
60
169
343
524
574
429
202
57
0
-152
-590
-1284
-1971
-2355
-2351
-2132
-1963
-1961
-2014
-1895
-1489
-918
-442
-240
-286
-409
-459
-418
-364
-366
-425
-495
-545
-576
-601
-610
-571
-489
-409
-389
-430
-468
-430
-310
-159
-23
102
244
414
593
761
930
1121
1330
1517
1645
1721
1793
1908
2066
2226
2379
2568
2829
3118
3330
3424
3488
3631
3813
3847
3610
3226
2946
2860
2798
2579
2307
2308
2739
3341
3679
3592
3339
3255
3341
3271
2792
2014
1287
846
660
594
600
693
825
873
793
679
650
678
608
351
4
-241
-282
-170
-16
102
148
90
-76
-300
-493
-615
-711
-841
-1007
-1142
-1193
-1173
-1131
-1105
-1100
-1113
-1143
-1183
-1214
-1219
-1203
-1189
-1193
-1212
-1234
-1249
-1253
-1251
-1256
-1275
-1299
-1303
-1247
-1120
-955
-810
-742
-765
-835
-872
-818
-699
-595
-559
-562
-525
-408
-249
-107
-13
16
-39
-178
-329
-387
-330
-251
-257
-335
-362
-255
-62
109
230
363
555
782
993
1202
1466
1815
2210
2587
2908
3177
3400
3585
3735
3841
3869
3786
3595
3323
3002
2664
2349
2106
1951
1850
1756
1668
1635
1699
1821
1905
1854
1639
1322
1028
877
900
1010
1075
1040
981
1019
1190
1393
1478
1384
1186
1013
933
918
899
847
792
774
789
802
790
763
737
707
646
557
479
450
470
503
515
499
463
425
394
373
352
330
322
344
382
382
297
149
34
41
157
277
300
235
193
274
469
662
745
721
695
755
892
1016
1055
1027
994
984
976
945
907
892
907
922
918
899
879
860
845
835
817
769
678
553
407
235
34
-141
-187
-53
170
279
126
-253
-662
-881
-816
-533
-196
63
233
435
803
1336
1858
2127
2029
1656
1226
915
767
705
632
507
374
311
363
496
612
623
518
342
150
-19
-134
-168
-115
-9
76
78
-5
-127
-233
-298
-317
-291
-236
-183
-167
-199
-251
-288
-300
-302
-297
-273
-225
-185
-190
-243
-301
-316
-288
-256
-253
-267
-262
-221
-163
-117
-92
-70
-31
22
79
142
221
317
415
481
504
500
496
497
490
454
395
327
265
241
307
499
770
988
1035
919
751
632
546
393
119
-203
-435
-500
-435
-341
-265
-158
62
399
738
927
917
819
787
856
911
824
599
379
288
319
371
362
291
201
121
59
23
20
32
16
-57
-163
-257
-310
-325
-329
-354
-427
-573
-801
-1079
-1333
-1498
-1554
-1546
-1543
-1586
-1665
-1738
-1773
-1786
-1830
-1945
-2105
-2215
-2184
-1995
-1718
-1445
-1196
-914
-523
-12
534
1006
1352
1609
1840
2051
2183
2178
2046
1843
1607
1327
996
657
388
225
150
131
172
282
420
511
509
441
354
260
139
-10
-145
-232
-278
-315
-355
-381
-381
-369
-366
-376
-386
-387
-385
-392
-412
-437
-452
-452
-441
-428
-424
-428
-438
-450
-460
-460
-437
-393
-348
-324
-317
-303
-275
-252
-253
-272
-274
-255
-240
-248
-262
-256
-243
-264
-331
-408
-455
-474
-494
-515
-497
-425
-336
-281
-269
-268
-261
-264
-292
-329
-349
-354
-358
-354
-314
-232
-150
-107
-107
-121
-144
-195
-274
-343
-371
-376
-410
-478
-530
-519
-461
-414
-415
-447
-474
-486
-490
-493
-485
-449
-397
-398
-536
-825
-1143
-1291
-1178
-944
-848
-998
-1199
-1128
-667
-58
330
366
251
271
508
796
924
849
686
559
503
480
450
398
322
224
119
27
-34
-63
-59
-12
77
194
306
391
455
511
564
610
643
660
653
615
556
509
504
539
585
619
643
662
669
656
628
605
596
592
575
541
504
482
483
500
525
540
532
504
473
460
465
472
468
446
410
361
302
245
198
156
99
18
-77
-168
-247
-330
-429
-536
-633
-709
-772
-837
-910
-980
-1029
-1046
-1036
-1016
-996
-975
-950
-919
-883
-843
-795
-742
-696
-667
-653
-638
-604
-539
-446
-346
-268
-227
-202
-144
-25
113
180
124
-8
-100
-80
9
57
-8
-151
-272
-300
-249
-195
-200
-280
-400
-527
-652
-803
-1017
-1311
-1658
-2004
-2282
-2453
-2512
-2478
-2384
-2244
-2053
-1782
-1417
-968
-444
158
814
1425
1831
1933
1794
1586
1407
1177
747
109
-540
-964
-1098
-1068
-1028
-1018
-988
-911
-829
-789
-795
-815
-837
-868
-905
-911
-844
-682
-436
-149
98
222
211
149
152
253
377
432
402
348
320
315
309
291
257
206
169
224
430
712
883
816
583
383
317
286
111
-254
-659
-924
-997
-959
-914
-894
-870
-820
-754
-694
-656
-655
-701
-783
-860
-891
-874
-844
-830
-814
-763
-688
-639
-661
-727
-754
-688
-561
-443
-377
-348
-322
-296
-285
-290
-293
-278
-257
-239
-215
-169
-105
-54
-30
-10
34
98
136
111
50
6
6
25
18
-27
-77
-91
-63
-26
-21
-58
-111
-153
-177
-204
-245
-292
-320
-315
-291
-271
-272
-292
-323
-352
-374
-395
-424
-461
-492
-492
-466
-439
-428
-419
-394
-374
-394
-458
-527
-558
-558
-580
-650
-729
-756
-718
-674
-689
-758
-809
-787
-713
-664
-675
-703
-676
-598
-546
-579
-667
-723
-714
-694
-735
-824
-878
-852
-784
-750
-776
-821
-838
-823
-809
-817
-838
-851
-845
-817
-763
-681
-584
-501
-451
-417
-359
-260
-157
-121
-179
-259
-250
-118
51
142
136
133
227
404
563
636
654
687
755
818
837
823
811
812
801
760
704
664
644
621
572
504
445
413
393
354
287
216
174
158
138
87
18
-38
-59
-51
-42
-70
-165
-337
-551
-734
-832
-867
-912
-1018
-1162
-1278
-1332
-1362
-1439
-1602
-1827
-2056
-2232
-2324
-2332
-2272
-2170
-2033
-1843
-1560
-1161
-670
-163
266
573
784
963
1142
1274
1283
1138
892
632
405
210
40
-95
-184
-239
-286
-319
-315
-290
-312
-432
-606
-726
-731
-674
-650
-679
-684
-593
-432
-302
-266
-293
-314
-304
-294
-310
-352
-406
-467
-532
-581
-595
-589
-593
-622
-645
-627
-593
-598
-656
-711
-710
-673
-674
-748
-848
-908
-923
-932
-952
-960
-952
-978
-1070
-1178
-1208
-1139
-1057
-1056
-1122
-1159
-1112
-1037
-1028
-1108
-1213
-1272
-1278
-1276
-1299
-1334
-1343
-1302
-1223
-1146
-1111
-1135
-1196
-1248
-1260
-1240
-1224
-1226
-1214
-1138
-987
-814
-691
-635
-606
-560
-496
-447
-427
-421
-401
-355
-286
-196
-94
-4
50
78
111
168
221
234
201
156
132
124
110
77
33
-3
-26
-46
-77
-118
-159
-190
-212
-241
-291
-351
-400
-431
-459
-506
-566
-610
-615
-594
-581
-594
-630
-665
-683
-686
-691
-714
-752
-789
-810
-817
-830
-862
-899
-911
-884
-830
-781
-754
-739
-708
-654
-591
-546
-528
-531
-535
-519
-473
-409
-352
-325
-318
-297
-236
-154
-94
-87
-109
-117
-97
-74
-71
-66
-19
62
135
177
224
313
402
408
320
240
276
405
499
491
468
534
674
779
807
829
891
908
781
565
447
500
560
421
112
-120
-91
99
213
143
6
-38
35
123
154
151
163
188
183
140
100
109
167
229
252
234
209
205
204
154
20
-170
-349
-470
-548
-628
-716
-774
-764
-699
-635
-617
-626
-610
-543
-482
-529
-732
-1014
-1201
-1136
-797
-304
199
671
1184
1807
2477
3012
3254
3195
2961
2675
2350
1953
1500
1080
767
549
364
182
26
-84
-179
-310
-488
-685
-863
-1000
-1089
-1127
-1122
-1107
-1118
-1166
-1235
-1306
-1369
-1421
-1439
-1398
-1308
-1223
-1198
-1235
-1267
-1217
-1074
-912
-811
-770
-716
-601
-462
-392
-434
-535
-615
-652
-709
-852
-1062
-1245
-1323
-1307
-1278
-1302
-1360
-1393
-1379
-1363
-1372
-1339
-1152
-792
-372
-28
247
587
1065
1559
1852
1858
1711
1624
1680
1799
1877
1925
2060
2359
2787
3233
3614
3915
4147
4303
4380
4411
4446
4492
4504
4443
4362
4364
4480
4609
4611
4445
4210
4043
3980
3926
3766
3461
3062
2652
2269
1901
1518
1120
735
391
84
-217
-514
-765
-915
-958
-948
-948
-955
-920
-806
-644
-504
-426
-400
-395
-400
-424
-466
-506
-523
-516
-500
-481
-473
-503
-587
-706
-800
-834
-853
-937
-1097
-1232
-1230
-1100
-969
-955
-1048
-1144
-1174
-1174
-1211
-1289
-1339
-1311
-1238
-1203
-1242
-1301
-1302
-1237
-1177
-1177
-1203
-1155
-994
-781
-621
-541
-479
-380
-271
-209
-196
-174
-107
-32
2
12
71
195
308
326
279
289
429
630
758
769
747
788
872
885
781
674
739
1016
1360
1587
1679
1790
2061
2449
2758
2829
2693
2511
2421
2426
2439
2398
2324
2280
2296
2341
2371
2365
2345
2333
2325
2297
2247
2208
2226
2298
2374
2402
2369
2307
2245
2171
2064
1939
1851
1823
1816
1765
1662
1569
1552
1596
1624
1579
1466
1337
1235
1184
1189
1243
1322
1406
1508
1647
1820
1989
2140
2320
2584
2903
3164
3283
3314
3379
3507
3580
3463
3176
2865
2622
2376
2011
1550
1161
967
893
762
516
285
221
315
409
374
230
92
42
64
96
82
1
-125
-252
-342
-387
-409
-418
-420
-431
-490
-593
-661
-602
-430
-267
-220
-253
-243
-134
-11
4
-113
-279
-409
-490
-548
-576
-551
-492
-465
-515
-615
-691
-713
-721
-779
-899
-1031
-1113
-1128
-1081
-982
-850
-717
-633
-624
-654
-671
-665
-691
-802
-991
-1188
-1301
-1274
-1097
-820
-543
-374
-346
-389
-406
-379
-407
-588
-901
-1200
-1345
-1312
-1199
-1118
-1095
-1081
-1027
-948
-906
-942
-1042
-1160
-1253
-1315
-1341
-1307
-1191
-1012
-821
-658
-520
-373
-209
-57
62
162
276
409
525
586
590
571
558
554
540
515
491
481
479
479
483
502
546
609
673
721
743
742
727
698
657
602
540
484
440
406
371
325
264
193
119
42
-42
-138
-250
-369
-473
-541
-570
-580
-591
-613
-637
-654
-664
-678
-708
-756
-817
-876
-918
-935
-940
-949
-975
-1011
-1044
-1066
-1073
-1064
-1041
-1009
-964
-897
-800
-676
-546
-428
-332
-257
-199
-152
-102
-41
28
91
149
217
306
399
451
437
379
323
292
278
257
228
209
217
255
311
364
390
371
315
257
235
243
240
186
101
55
95
191
262
264
242
268
356
439
449
397
350
341
337
291
218
178
204
269
324
342
305
181
-53
-367
-691
-984
-1270
-1552
-1737
-1679
-1331
-828
-380
-93
107
373
762
1178
1464
1556
1542
1588
1799
2120
2381
2447
2320
2112
1919
1745
1539
1285
1034
861
787
786
826
888
965
1031
1046
989
882
772
708
700
720
728
716
694
666
606
497
370
293
299
333
317
237
170
193
283
335
282
177
129
177
250
264
222
191
206
235
231
205
198
218
222
178
113
77
75
76
56
32
17
-1
-45
-101
-130
-132
-160
-250
-369
-433
-401
-313
-226
-156
-74
36
151
244
316
380
428
441
414
377
360
366
376
377
372
373
390
417
443
457
455
454
471
502
522
507
467
438
441
467
498
526
559
603
657
715
773
822
848
849
839
837
834
813
775
744
735
727
682
599
522
501
529
553
520
434
349
330
387
460
461
372
269
254
342
434
415
258
30
-172
-271
-209
23
334
550
560
444
399
525
705
744
598
405
311
308
290
213
129
71
-21
-225
-511
-742
-806
-719
-592
-513
-475
-407
-269
-97
19
9
-125
-321
-510
-664
-780
-848
-851
-786
-682
-587
-538
-540
-570
-595
-577
-494
-352
-201
-109
-108
-156
-167
-109
-41
-51
-159
-329
-552
-866
-1243
-1492
-1376
-873
-255
173
397
685
1221
1843
2189
2086
1711
1360
1159
1028
895
811
852
994
1134
1224
1311
1441
1578
1637
1590
1494
1419
1382
1357
1330
1311
1307
1282
1181
996
792
650
592
555
455
269
45
-160
-355
-596
-875
-1069
-1019
-713
-334
-87
35
276
849
1673
2399
2750
2785
2803
3009
3306
3428
3227
2802
2363
2027
1770
1520
1256
1012
824
703
646
639
663
692
715
730
730
695
631
572
545
535
493
404
311
262
243
205
134
83
108
184
238
230
193
176
181
177
160
154
158
142
83
2
-61
-101
-140
-178
-179
-134
-86
-92
-131
-122
-20
108
153
93
15
21
114
212
256
269
295
325
313
255
218
254
324
334
255
158
136
194
256
261
216
170
149
146
149
153
147
124
96
92
128
175
187
153
103
68
49
27
-6
-39
-54
-51
-39
-25
-8
11
25
34
49
83
138
195
237
269
302
342
385
419
451
492
541
574
569
531
488
460
433
390
347
348
415
511
572
580
578
621
705
778
796
758
699
645
606
596
622
672
710
710
685
677
706
752
765
716
617
502
412
379
406
462
493
465
393
320
288
308
358
399
393
336
261
226
260
326
352
291
170
55
-3
-6
1
-21
-76
-129
-141
-106
-71
-99
-195
-281
-267
-136
17
72
11
-54
7
199
383
417
312
215
263
440
599
635
585
569
647
759
813
787
747
769
858
954
1005
1015
1029
1066
1104
1099
1046
988
961
936
845
685
556
549
610
577
362
86
-43
28
125
43
-217
-476
-604
-659
-783
-1002
-1200
-1276
-1261
-1251
-1265
-1215
-1037
-779
-540
-358
-167
120
508
907
1228
1453
1629
1795
1938
2002
1944
1768
1505
1199
879
575
316
105
-75
-237
-367
-446
-477
-481
-470
-447
-438
-501
-670
-888
-1025
-1015
-930
-903
-975
-1038
-964
-752
-539
-446
-478
-544
-576
-578
-595
-637
-681
-692
-659
-582
-479
-381
-309
-258
-192
-96
-1
53
65
83
140
214
269
307
361
440
498
492
446
439
508
599
623
548
433
368
396
479
539
528
460
402
414
496
569
554
452
349
339
428
536
581
560
529
543
610
693
750
765
753
755
802
882
958
996
994
978
969
973
980
981
970
950
946
980
1033
1047
986
898
869
915
961
922
819
761
804
889
924
906
914
993
1094
1143
1133
1118
1121
1094
986
812
656
573
542
517
489
502
598
762
940
1088
1203
1288
1308
1228
1060
880
755
684
618
545
517
587
733
877
967
1010
1025
994
896
776
741
852
1031
1120
1024
794
578
467
414
291
19
-347
-647
-760
-701
-597
-564
-614
-671
-676
-657
-680
-767
-865
-912
-895
-865
-901
-1052
-1317
-1640
-1942
-2163
-2298
-2377
-2403
-2315
-2043
-1584
-1050
-592
-297
-164
-156
-248
-419
-618
-779
-878
-954
-1055
-1170
-1238
-1221
-1166
-1164
-1264
-1429
-1586
-1691
-1753
-1797
-1819
-1800
-1746
-1705
-1729
-1822
-1927
-1983
-1991
-2008
-2078
-2172
-2204
-2128
-1985
-1853
-1757
-1639
-1443
-1186
-924
-691
-476
-279
-131
-45
31
176
410
662
859
1015
1214
1517
1909
2327
2717
3050
3311
3492
3595
3628
3601
3511
3359
3168
2976
2823
2745
2762
2868
3032
3205
3350
3451
3502
3495
3406
3224
2974
2737
2620
2668
2823
2962
3019
3040
3109
3214
3227
3023
2608
2112
1676
1338
1050
759
464
200
-2
-129
-204
-271
-369
-504
-661
-822
-997
-1196
-1391
-1535
-1616
-1671
-1758
-1877
-1977
-2012
-1985
-1937
-1897
-1862
-1830
-1818
-1845
-1907
-1980
-2041
-2077
-2094
-2093
-2058
-1963
-1803
-1622
-1488
-1430
-1375
-1217
-935
-655
-557
-714
-1036
-1367
-1603
-1724
-1748
-1688
-1560
-1381
-1131
-764
-276
223
555
619
474
278
139
50
-47
-166
-261
-282
-236
-156
-60
42
139
203
214
186
169
204
304
448
608
755
869
935
957
964
990
1051
1140
1237
1331
1415
1482
1529
1560
1585
1616
1659
1709
1755
1783
1786
1769
1747
1734
1732
1729
1712
1690
1687
1719
1773
1816
1828
1825
1835
1862
1875
1852
1809
1783
1785
1779
1724
1623
1525
1471
1455
1438
1391
1329
1289
1298
1347
1399
1410
1357
1256
1150
1072
1017
948
847
748
698
708
751
787
799
792
781
786
810
841
869
877
849
792
751
811
1027
1353
1629
1701
1574
1418
1406
1536
1646
1570
1274
849
451
266
451
990
1605
1900
1707
1265
991
1037
1122
841
111
-737
-1284
-1379
-1183
-930
-735
-608
-528
-494
-514
-589
-709
-863
-1036
-1215
-1386
-1530
-1614
-1633
-1632
-1635
-1582
-1360
-982
-670
-675
-986
-1279
-1235
-903
-669
-851
-1346
-1721
-1620
-1058
-326
306
780
1178
1560
1886
2074
2087
1948
1685
1318
878
444
129
5
35
107
133
110
93
114
142
134
85
25
-34
-118
-250
-403
-515
-539
-498
-462
-459
-453
-404
-343
-359
-474
-569
-491
-238
9
67
-36
-85
65
303
372
138
-280
-654
-871
-1000
-1146
-1320
-1452
-1487
-1429
-1311
-1155
-975
-802
-671
-592
-546
-497
-435
-370
-310
-259
-207
-155
-110
-74
-36
11
62
96
107
112
146
220
306
346
291
155
19
-11
114
332
517
591
608
681
847
1003
1010
824
534
264
72
-47
-117
-137
-109
-50
28
129
261
389
457
438
369
301
266
262
291
367
484
607
687
714
727
761
791
760
651
509
382
259
91
-129
-323
-395
-328
-194
-80
0
97
251
436
587
649
622
541
459
413
407
413
390
334
279
261
281
304
292
234
161
107
88
92
105
114
116
119
130
137
124
85
37
7
11
37
51
34
-7
-39
-38
-10
24
50
67
74
60
22
-20
-29
7
57
85
87
88
105
139
168
182
179
158
126
104
107
121
120
100
91
109
120
84
13
-14
71
241
394
473
524
631
802
950
972
851
649
447
282
165
95
66
59
58
85
168
291
388
401
351
311
316
320
263
154
54
2
-32
-99
-195
-282
-340
-407
-522
-657
-738
-737
-700
-684
-684
-647
-553
-453
-394
-342
-193
97
429
633
653
607
672
893
1130
1185
980
621
300
140
102
50
-117
-359
-528
-499
-275
28
275
390
375
297
226
193
163
77
-63
-176
-210
-202
-219
-256
-219
-83
28
-26
-217
-361
-331
-206
-153
-207
-255
-216
-160
-212
-367
-497
-528
-522
-577
-687
-734
-640
-446
-282
-250
-345
-473
-528
-480
-432
-533
-812
-1100
-1155
-920
-611
-488
-601
-761
-775
-670
-629
-771
-1037
-1286
-1448
-1533
-1547
-1463
-1292
-1112
-1000
-941
-848
-675
-487
-395
-448
-584
-697
-724
-682
-625
-582
-538
-459
-332
-191
-80
-16
36
115
209
241
145
-44
-202
-213
-84
74
157
168
193
284
395
446
416
364
357
395
453
545
705
909
1044
1027
899
770
682
555
311
7
-230
-348
-419
-511
-571
-501
-329
-219
-299
-516
-718
-826
-898
-1011
-1150
-1254
-1320
-1427
-1637
-1912
-2132
-2182
-2036
-1767
-1494
-1288
-1122
-899
-579
-256
-97
-179
-412
-630
-743
-785
-834
-906
-953
-936
-872
-807
-771
-755
-743
-736
-753
-797
-847
-865
-822
-728
-638
-619
-692
-799
-851
-801
-690
-587
-513
-427
-293
-136
-27
-6
-48
-106
-161
-222
-292
-334
-324
-291
-296
-342
-351
-251
-85
20
6
-44
-35
-20
-171
-546
-942
-1077
-928
-770
-844
-1047
-1037
-644
-90
254
252
78
-54
-127
-271
-541
-852
-1101
-1276
-1419
-1542
-1618
-1657
-1710
-1807
-1911
-1970
-1973
-1946
-1890
-1772
-1573
-1321
-1055
-778
-466
-121
191
395
489
541
618
710
724
584
313
26
-169
-260
-333
-475
-681
-873
-986
-1039
-1084
-1133
-1156
-1139
-1105
-1085
-1066
-1018
-943
-867
-801
-737
-698
-743
-891
-1054
-1087
-944
-737
-630
-671
-769
-793
-705
-578
-521
-596
-766
-919
-954
-871
-767
-746
-816
-886
-874
-796
-728
-725
-775
-830
-866
-871
-858
-862
-903
-954
-949
-867
-779
-775
-836
-844
-732
-599
-609
-779
-944
-939
-806
-739
-835
-976
-971
-797
-602
-511
-493
-448
-386
-419
-597
-808
-891
-834
-773
-827
-945
-978
-858
-664
-518
-471
-480
-503
-544
-624
-717
-775
-772
-743
-732
-723
-671
-558
-436
-365
-339
-292
-196
-121
-154
-282
-371
-306
-134
-14
-38
-136
-181
-138
-85
-84
-98
-67
5
44
19
-16
16
110
188
187
125
72
82
146
213
245
241
224
217
221
219
197
165
134
107
66
3
-49
-42
36
122
127
26
-92
-107
3
124
117
-32
-197
-241
-156
-57
-55
-150
-257
-306
-293
-252
-212
-187
-194
-241
-309
-353
-339
-285
-239
-234
-258
-272
-260
-230
-206
-210
-245
-293
-326
-326
-303
-298
-329
-363
-345
-265
-188
-189
-279
-389
-446
-440
-416
-414
-434
-451
-450
-422
-370
-306
-262
-257
-278
-296
-296
-295
-312
-338
-346
-322
-284
-260
-263
-283
-305
-320
-335
-370
-437
-525
-603
-657
-719
-835
-1008
-1181
-1313
-1430
-1583
-1760
-1865
-1821
-1656
-1469
-1314
-1153
-920
-605
-248
118
483
819
1080
1260
1411
1578
1715
1718
1540
1262
1010
831
673
482
277
128
74
83
108
134
165
196
203
173
118
51
-17
-89
-150
-175
-155
-109
-70
-55
-62
-79
-104
-129
-124
-68
28
116
161
187
259
409
584
679
634
490
355
318
357
373
300
178
99
103
135
135
110
107
122
86
-31
-169
-243
-262
-318
-452
-591
-629
-549
-417
-283
-121
99
336
506
580
590
564
479
309
93
-86
-170
-171
-152
-149
-156
-153
-127
-89
-74
-113
-200
-283
-311
-283
-237
-205
-180
-140
-86
-43
-42
-78
-106
-92
-56
-44
-59
-39
56
169
207
166
175
353
642
833
774
485
86
-332
-707
-910
-801
-408
42
357
612
1055
1756
2431
2685
2395
1784
1168
707
398
215
160
203
271
334
447
651
869
944
772
397
-39
-401
-629
-733
-757
-753
-780
-868
-1011
-1170
-1301
-1384
-1431
-1470
-1518
-1573
-1612
-1610
-1570
-1524
-1516
-1567
-1654
-1739
-1805
-1870
-1958
-2066
-2167
-2234
-2264
-2258
-2215
-2145
-2073
-2015
-1975
-1947
-1938
-1967
-2021
-2039
-1952
-1748
-1487
-1226
-966
-681
-378
-123
25
59
18
-58
-145
-220
-255
-252
-233
-237
-280
-352
-431
-497
-547
-594
-657
-732
-785
-766
-653
-479
-295
-119
63
270
497
731
979
1242
1489
1671
1776
1850
1951
2078
2162
2149
2068
2004
2006
2033
1995
1836
1570
1256
956
706
522
408
367
407
529
721
959
1227
1521
1821
2083
2246
2295
2276
2256
2249
2199
2040
1773
1463
1169
905
658
428
235
89
-26
-136
-247
-340
-396
-421
-444
-488
-543
-564
-520
-440
-395
-434
-537
-641
-707
-749
-804
-872
-916
-904
-842
-780
-770
-839
-969
-1112
-1230
-1325
-1433
-1566
-1687
-1738
-1714
-1669
-1661
-1688
-1700
-1673
-1642
-1653
-1701
-1732
-1706
-1635
-1562
-1509
-1468
-1429
-1390
-1357
-1325
-1280
-1215
-1144
-1080
-1021
-939
-815
-663
-526
-434
-376
-305
-191
-47
93
202
279
337
385
430
481
548
619
673
707
742
802
883
963
1025
1083
1152
1231
1302
1353
1393
1438
1483
1509
1508
1498
1510
1555
1616
1674
1728
1789
1861
1915
1926
1898
1861
1837
1814
1767
1698
1637
1621
1652
1700
1727
1726
1716
1724
1744
1735
1684
1628
1634
1712
1803
1845
1848
1878
1960
2043
2071
2051
2026
1982
1841
1589
1371
1397
1730
2187
2479
2460
2235
2032
1964
1935
1747
1288
648
55
-289
-341
-222
-98
-56
-82
-103
-70
21
131
206
199
104
-14
-77
-50
22
68
60
19
-29
-85
-158
-218
-213
-133
-37
-5
-62
-163
-258
-350
-461
-577
-650
-661
-641
-599
-469
-183
204
518
647
684
821
1095
1296
1177
733
220
-121
-279
-413
-621
-835
-932
-874
-724
-555
-385
-219
-91
-35
-49
-77
-65
-13
36
37
-21
-118
-232
-366
-528
-716
-901
-1049
-1159
-1252
-1354
-1480
-1638
-1831
-2045
-2265
-2490
-2736
-2992
-3179
-3185
-2947
-2518
-2024
-1551
-1070
-490
212
931
1493
1809
1949
2058
2209
2338
2329
2147
1876
1626
1438
1280
1121
976
893
887
935
1002
1077
1164
1256
1322
1331
1276
1179
1075
993
938
894
842
783
745
750
782
786
719
592
467
397
371
339
272
202
185
237
319
376
395
406
427
435
396
310
228
197
226
281
330
358
348
281
163
32
-73
-163
-288
-466
-634
-702
-636
-496
-370
-299
-256
-212
-172
-160
-191
-257
-343
-427
-483
-490
-445
-375
-316
-290
-300
-342
-409
-495
-588
-678
-761
-837
-900
-934
-931
-904
-877
-868
-868
-854
-814
-761
-718
-701
-712
-740
-764
-761
-723
-671
-635
-629
-637
-627
-583
-521
-475
-470
-508
-558
-584
-571
-532
-501
-497
-506
-498
-463
-407
-343
-280
-225
-200
-216
-249
-251
-194
-109
-48
-45
-80
-109
-96
-42
16
21
-38
-119
-151
-114
-51
-11
10
46
80
41
-110
-297
-391
-341
-230
-192
-273
-390
-418
-318
-168
-73
-73
-109
-102
-44
0
-23
-75
-68
31
149
182
124
69
108
224
325
347
302
257
260
315
381
402
346
240
142
97
95
102
101
121
181
274
370
462
550
632
688
707
701
685
658
601
506
398
318
304
360
440
477
453
422
461
591
731
771
703
634
679
823
936
920
820
779
878
1048
1139
1070
898
741
657
597
468
222
-101
-401
-594
-665
-672
-676
-678
-609
-419
-149
100
288
481
765
1108
1383
1511
1556
1634
1758
1828
1780
1656
1531
1393
1185
928
731
643
562
339
-11
-309
-411
-366
-340
-409
-501
-514
-455
-404
-406
-439
-473
-516
-578
-638
-671
-687
-706
-720
-693
-631
-590
-603
-632
-610
-534
-478
-489
-526
-507
-402
-267
-176
-137
-108
-54
18
80
128
161
176
169
151
142
159
202
259
303
311
284
278
374
587
816
922
882
817
867
1030
1168
1157
1020
872
787
734
643
497
333
170
-4
-195
-366
-485
-579
-711
-906
-1097
-1196
-1201
-1206
-1292
-1434
-1524
-1499
-1411
-1369
-1414
-1489
-1522
-1502
-1463
-1412
-1326
-1199
-1062
-960
-887
-784
-611
-399
-228
-165
-200
-250
-218
-77
100
198
183
147
213
399
590
659
604
550
605
737
804
718
558
486
570
709
742
624
477
447
552
684
736
695
637
634
693
784
863
893
860
799
767
784
804
761
659
566
538
562
583
568
543
548
602
691
771
797
753
677
654
721
816
840
748
603
516
531
584
579
481
347
263
267
318
356
351
340
369
427
458
427
375
365
404
427
380
296
271
350
473
551
553
530
528
543
544
523
493
450
373
266
180
164
210
254
241
192
171
208
264
273
213
128
79
74
65
6
-94
-193
-249
-272
-301
-361
-454
-559
-636
-645
-585
-520
-524
-597
-656
-603
-426
-191
39
255
475
706
940
1190
1460
1696
1805
1750
1610
1487
1399
1279
1085
868
718
662
639
591
525
498
531
582
579
497
383
316
341
427
504
536
561
644
776
868
851
756
687
695
717
663
525
399
384
476
596
671
697
705
703
684
656
636
634
628
595
549
517
516
522
487
384
231
92
27
39
71
73
52
56
93
113
66
-22
-81
-101
-163
-339
-560
-665
-572
-377
-260
-292
-378
-382
-270
-138
-98
-170
-290
-374
-376
-310
-231
-188
-188
-189
-151
-75
-5
23
24
32
65
106
127
118
98
96
132
201
258
261
211
160
168
241
317
339
315
308
363
455
523
535
515
502
517
540
551
540
509
474
457
474
516
555
571
564
556
558
564
561
540
505
468
442
430
429
431
431
436
454
478
493
489
476
468
466
460
449
448
469
504
536
560
584
609
618
592
537
481
444
423
414
417
434
450
453
448
457
478
476
416
319
246
241
281
309
302
287
303
353
406
455
516
602
694
765
818
880
965
1047
1084
1052
971
889
851
872
921
939
883
783
721
752
840
887
841
750
710
769
877
948
943
893
833
772
694
592
479
371
280
214
176
140
64
-64
-200
-294
-356
-460
-649
-847
-905
-755
-491
-276
-167
-60
181
580
1021
1371
1589
1731
1882
2084
2304
2460
2478
2351
2143
1933
1744
1569
1416
1319
1286
1278
1258
1238
1252
1294
1312
1265
1169
1068
989
932
906
925
976
1011
998
942
885
857
855
864
877
907
966
1058
1152
1199
1174
1118
1093
1098
1041
858
608
428
378
392
387
382
453
596
699
671
549
445
423
464
534
604
614
495
276
136
255
585
828
733
380
121
206
514
686
515
144
-128
-156
-45
29
1
-70
-124
-164
-226
-317
-423
-534
-640
-734
-805
-862
-921
-968
-949
-821
-610
-408
-325
-422
-685
-1021
-1289
-1394
-1357
-1293
-1298
-1347
-1311
-1098
-761
-472
-378
-474
-629
-710
-706
-712
-797
-906
-909
-745
-500
-326
-288
-320
-325
-291
-285
-372
-547
-751
-916
-1006
-1010
-956
-912
-935
-1020
-1105
-1123
-1080
-1038
-1055
-1137
-1250
-1353
-1418
-1425
-1374
-1278
-1164
-1051
-935
-793
-603
-363
-94
171
396
569
713
880
1103
1368
1620
1818
1980
2166
2406
2669
2884
3012
3088
3175
3283
3366
3374
3318
3258
3234
3220
3159
3036
2897
2797
2732
2647
2495
2293
2106
1977
1896
1834
1782
1749
1736
1722
1687
1636
1592
1565
1546
1521
1490
1459
1436
1427
1438
1461
1462
1404
1280
1130
1003
909
818
707
585
486
425
378
313
216
96
-40
-202
-402
-625
-834
-1000
-1131
-1244
-1345
-1423
-1463
-1464
-1435
-1385
-1321
-1247
-1173
-1108
-1054
-998
-906
-734
-454
-96
264
563
805
1044
1302
1531
1644
1590
1393
1120
846
625
477
384
310
244
216
261
365
461
487
441
373
327
307
291
273
267
291
348
418
470
482
458
415
384
386
426
487
536
550
540
557
641
775
884
904
846
789
799
863
922
935
916
907
934
981
1020
1036
1032
1017
1001
987
970
944
906
870
853
862
875
859
818
787
811
888
973
1017
1015
1003
1017
1068
1141
1219
1288
1333
1345
1335
1332
1348
1364
1352
1303
1234
1174
1139
1134
1155
1183
1184
1136
1061
1011
1013
1034
1016
948
894
926
1040
1152
1187
1153
1110
1091
1062
972
825
677
572
494
410
320
262
263
301
324
304
255
219
227
275
327
341
291
188
73
-11
-47
-59
-99
-206
-360
-479
-467
-312
-115
-25
-104
-267
-357
-286
-113
18
0
-166
-388
-565
-681
-817
-1073
-1459
-1858
-2125
-2221
-2227
-2210
-2115
-1841
-1429
-1106
-1077
-1303
-1542
-1627
-1663
-1887
-2364
-2870
-3113
-3008
-2726
-2476
-2317
-2184
-2031
-1899
-1849
-1889
-1974
-2075
-2190
-2315
-2415
-2459
-2444
-2379
-2268
-2103
-1887
-1640
-1387
-1134
-875
-611
-353
-110
110
297
449
575
679
750
788
829
927
1079
1213
1263
1268
1342
1530
1727
1775
1651
1499
1474
1580
1690
1708
1655
1626
1669
1757
1836
1868
1834
1725
1556
1354
1137
902
636
343
47
-221
-427
-542
-552
-460
-296
-101
85
233
357
506
723
972
1153
1215
1246
1392
1682
1966
2054
1918
1699
1530
1394
1181
859
532
321
242
226
233
286
391
482
496
462
466
516
507
361
166
99
211
333
266
24
-167
-124
88
241
210
86
51
170
349
446
392
211
-22
-236
-387
-476
-528
-567
-592
-588
-564
-544
-539
-527
-496
-471
-486
-543
-596
-601
-566
-539
-553
-596
-637
-659
-672
-692
-724
-762
-797
-812
-798
-759
-723
-715
-733
-747
-729
-682
-649
-688
-837
-1079
-1323
-1459
-1436
-1321
-1242
-1246
-1241
-1085
-754
-399
-211
-239
-358
-407
-355
-300
-337
-450
-546
-569
-545
-523
-517
-527
-583
-726
-934
-1107
-1159
-1119
-1098
-1163
-1243
-1216
-1055
-856
-731
-670
-559
-313
27
350
600
818
1075
1365
1611
1756
1826
1891
1982
2071
2124
2145
2153
2142
2087
1992
1905
1870
1865
1818
1687
1513
1380
1333
1341
1328
1240
1086
922
803
736
680
591
465
341
270
263
290
306
279
211
134
80
57
39
-12
-104
-211
-292
-320
-308
-285
-277
-286
-302
-310
-301
-289
-295
-340
-416
-479
-471
-371
-237
-158
-183
-263
-308
-283
-253
-294
-390
-444
-391
-292
-265
-336
-392
-316
-134
0
-9
-85
-76
66
