-842
-889
-976
-1059
-1116
-1145
-1140
-1090
-1022
-989
-1025
-1094
-1125
-1094
-1048
-1044
-1082
-1124
-1158
-1215
-1314
-1414
-1445
-1392
-1318
-1310
-1419
-1622
-1851
-2036
-2136
-2157
-2146
-2149
-2165
-2148
-2061
-1905
-1714
-1498
-1246
-951
-651
-406
-256
-186
-146
-90
-19
26
-17
-173
-410
-658
-857
-981
-1033
-1024
-973
-918
-901
-937
-994
-1024
-1002
-941
-871
-817
-799
-827
-896
-975
-1022
-1019
-988
-965
-972
-1009
-1067
-1132
-1180
-1179
-1121
-1055
-1064
-1195
-1423
-1666
-1846
-1937
-1966
-1974
-1999
-2053
-2129
-2207
-2265
-2281
-2248
-2182
-2122
-2119
-2203
-2350
-2483
-2530
-2485
-2410
-2377
-2412
-2492
-2585
-2671
-2736
-2760
-2732
-2682
-2667
-2722
-2824
-2915
-2957
-2953
-2931
-2906
-2891
-2905
-2967
-3071
-3175
-3233
-3230
-3188
-3146
-3131
-3157
-3217
-3290
-3338
-3323
-3242
-3140
-3073
-3073
-3120
-3172
-3185
-3137
-3035
-2911
-2805
-2747
-2728
-2711
-2660
-2563
-2432
-2285
-2135
-2006
-1918
-1876
-1854
-1809
-1716
-1581
-1441
-1340
-1302
-1318
-1347
-1340
-1279
-1186
-1093
-1016
-950
-894
-857
-842
-827
-779
-693
-598
-542
-542
-579
-610
-600
-546
-466
-388
-333
-309
-311
-333
-364
-380
-349
-264
-155
-68
-25
-7
24
76
143
232
360
519
648
688
659
662
788
1029
1292
1496
1634
1748
1876
2033
2236
2488
2756
2971
3086
3123
3151
3201
3237
3205
3104
2983
2876
2759
2577
2318
2039
1813
1661
1539
1397
1229
1063
913
758
574
381
228
134
63
-36
-174
-313
-422
-499
-556
-603
-647
-707
-804
-932
-1056
-1143
-1200
-1250
-1309
-1365
-1400
-1417
-1447
-1516
-1613
-1698
-1726
-1696
-1656
-1673
-1770
-1896
-1973
-1962
-1900
-1855
-1862
-1896
-1906
-1871
-1816
-1771
-1740
-1704
-1654
-1616
-1624
-1686
-1770
-1828
-1830
-1785
-1724
-1677
-1639
-1568
-1419
-1171
-847
-482
-108
255
593
896
1167
1412
1629
1824
2021
2248
2482
2650
2690
2624
2530
2436
2298
2073
1784
1488
1197
881
569
370
353
431
429
278
95
34
107
177
132
5
-93
-126
-173
-330
-617
-980
-1365
-1755
-2154
-2551
-2908
-3207
-3469
-3741
-4041
-4337
-4591
-4824
-5106
-5490
-5980
-6575
-7333
-8339
-9583
-10922
-12186
-13319
-14377
-15377
-16196
-16622
-16526
-15961
-15094
-14077
-13004
-11942
-10973
-10175
-9578
-9147
-8827
-8586
-8427
-8354
-8326
-8265
-8105
-7842
-7531
-7234
-6972
-6734
-6509
-6299
-6089
-5839
-5513
-5123
-4733
-4410
-4165
-3958
-3745
-3515
-3293
-3103
-2944
-2815
-2733
-2726
-2786
-2847
-2831
-2708
-2529
-2378
-2298
-2266
-2233
-2165
-2064
-1948
-1841
-1762
-1730
-1743
-1778
-1808
-1807
-1767
-1694
-1622
-1593
-1619
-1664
-1662
-1593
-1490
-1401
-1319
-1206
-1050
-900
-809
-767
-709
-599
-468
-366
-303
-255
-215
-206
-230
-239
-172
-41
83
127
95
49
42
81
140
197
241
256
225
152
72
22
27
82
155
206
204
147
71
24
30
67
95
86
41
-24
-94
-154
-182
-165
-116
-71
-64
-101
-162
-225
-275
-302
-292
-244
-186
-157
-182
-242
-294
-300
-257
-195
-150
-152
-208
-292
-368
-397
-368
-302
-248
-247
-308
-402
-482
-521
-529
-529
-529
-527
-520
-525
-553
-592
-608
-578
-515
-459
-443
-483
-561
-649
-715
-731
-699
-645
-612
-625
-678
-736
-765
-755
-725
-708
-719
-755
-798
-839
-870
-869
-822
-740
-667
-647
-689
-757
-821
-873
-915
-931
-907
-858
-838
-881
-965
-1028
-1023
-963
-898
-871
-893
-947
-1003
-1029
-1008
-955
-894
-845
-813
-793
-790
-805
-814
-775
-664
-511
-377
-311
-307
-317
-298
-239
-160
-87
-38
-21
-25
-19
17
76
129
166
205
262
312
308
241
158
124
156
221
274
291
269
218
184
208
281
325
265
105
-90
-282
-489
-720
-918
-1018
-1032
-1036
-1050
-1005
-844
-630
-478
-398
-261
32
408
689
794
814
884
1020
1119
1097
967
792
599
372
119
-98
-214
-222
-176
-139
-143
-183
-235
-273
-281
-268
-267
-309
-397
-496
-561
-586
-598
-622
-649
-663
-674
-718
-803
-888
-920
-892
-855
-857
-896
-937
-964
-992
-1037
-1086
-1104
-1086
-1057
-1042
-1052
-1077
-1112
-1143
-1141
-1086
-1003
-958
-1002
-1118
-1233
-1297
-1314
-1322
-1330
-1333
-1340
-1377
-1453
-1531
-1567
-1555
-1537
-1546
-1588
-1646
-1714
-1782
-1830
-1832
-1798
-1768
-1782
-1836
-1899
-1943
-1972
-1997
-2014
-2013
-1990
-1961
-1949
-1971
-2024
-2080
-2102
-2076
-2017
-1968
-1953
-1969
-1989
-1991
-1967
-1921
-1869
-1831
-1823
-1841
-1864
-1874
-1870
-1852
-1813
-1745
-1662
-1604
-1603
-1646
-1678
-1647
-1550
-1427
-1330
-1282
-1268
-1255
-1223
-1177
-1133
-1097
-1064
-1042
-1051
-1105
-1177
-1209
-1164
-1066
-985
-970
-1007
-1043
-1049
-1040
-1049
-1080
-1097
-1077
-1031
-1004
-1023
-1069
-1091
-1054
-975
-909
-904
-953
-1019
-1066
-1089
-1097
-1088
-1054
-1001
-958
-960
-1009
-1074
-1110
-1096
-1045
-997
-987
-1021
-1072
-1106
-1112
-1107
-1103
-1090
-1059
-1035
-1063
-1156
-1257
-1291
-1232
-1134
-1076
-1090
-1147
-1196
-1207
-1183
-1138
-1089
-1054
-1052
-1084
-1131
-1170
-1183
-1170
-1137
-1097
-1065
-1050
-1054
-1110
-1099
-1107
-1099
-1072
-1040
-1028
-1053
-1101
-1134
-1123
-1070
-1012
-986
-1005
-1064
-1142
-1216
-1254
-1237
-1181
-1135
-1141
-1195
-1249
-1264
-1241
-1203
-1163
-1116
-1073
-1066
-1116
-1196
-1251
-1246
-1199
-1153
-1131
-1123
-1117
-1110
-1100
-1074
-1019
-945
-881
-855
-870
-912
-960
-986
-968
-900
-815
-761
-768
-817
-863
-879
-873
-870
-875
-875
-861
-850
-870
-925
-984
-1008
-987
-944
-907
-887
-894
-944
-1039
-1151
-1244
-1319
-1421
-1586
-1792
-1980
-2121
-2221
-2266
-2199
-1984
-1696
-1477
-1399
-1371
-1227
-902
-504
-194
-41
7
31
51
42
-13
-107
-232
-395
-598
-810
-982
-1082
-1114
-1095
-1042
-966
-887
-838
-851
-922
-1009
-1058
-1051
-1018
-1006
-1036
-1078
-1088
-1050
-989
-938
-900
-854
-796
-753
-758
-809
-863
-874
-839
-795
-774
-779
-800
-831
-866
-885
-856
-779
-692
-652
-672
-718
-741
-725
-685
-645
-614
-595
-594
-612
-638
-659
-665
-653
-622
-585
-571
-611
-702
-799
-853
-854
-854
-864
-907
-961
-1031
-1111
-1168
-1176
-1149
-1131
-1156
-1217
-1286
-1342
-1385
-1409
-1402
-1370
-1351
-1389
-1483
-1577
-1615
-1585
-1523
-1467
-1425
-1396
-1386
-1400
-1419
-1406
-1341
-1244
-1158
-1116
-1116
-1129
-1127
-1097
-1042
-980
-930
-905
-910
-942
-995
-1054
-1085
-1065
-1002
-939
-924
-967
-1038
-1093
-1112
-1101
-1080
-1065
-1067
-1098
-1164
-1247
-1309
-1315
-1269
-1214
-1200
-1238
-1303
-1357
-1380
-1373
-1344
-1296
-1244
-1220
-1249
-1318
-1386
-1413
-1400
-1375
-1365
-1370
-1383
-1402
-1435
-1470
-1481
-1450
-1394
-1350
-1350
-1393
-1454
-1506
-1529
-1514
-1468
-1414
-1380
-1381
-1408
-1434
-1442
-1430
-1401
-1361
-1321
-1301
-1319
-1365
-1397
-1375
-1300
-1213
-1158
-1151
-1180
-1226
-1277
-1317
-1324
-1289
-1234
-1198
-1198
-1218
-1231
-1225
-1205
-1171
-1129
-1101
-1113
-1162
-1216
-1239
-1227
-1206
-1186
-1153
-1100
-1059
-1077
-1159
-1254
-1302
-1284
-1242
-1225
-1251
-1299
-1340
-1348
-1320
-1264
-1201
-1154
-1131
-1130
-1143
-1163
-1175
-1147
-1059
-937
-846
-834
-890
-954
-974
-943
-890
-841
-802
-776
-770
-787
-800
-771
-687
-582
-506
-478
-484
-502
-531
-569
-598
-594
-559
-537
-571
-659
-759
-826
-842
-813
-748
-663
-596
-587
-641
-719
-768
-769
-743
-720
-719
-749
-826
-955
-1113
-1257
-1357
-1418
-1470
-1539
-1630
-1725
-1783
-1754
-1612
-1382
-1140
-959
-846
-735
-546
-265
34
257
366
403
419
408
317
117
-141
-360
-494
-572
-659
-772
-876
-929
-922
-874
-816
-779
-791
-861
-957
-1029
-1059
-1076
-1118
-1181
-1227
-1237
-1242
-1296
-1406
-1516
-1563
-1532
-1464
-1418
-1427
-1492
-1586
-1667
-1694
-1654
-1580
-1519
-1500
-1510
-1513
-1491
-1453
-1412
-1370
-1321
-1275
-1257
-1281
-1333
-1375
-1371
-1317
-1247
-1206
-1219
-1274
-1334
-1371
-1380
-1367
-1340
-1308
-1294
-1322
-1394
-1478
-1529
-1536
-1520
-1510
-1519
-1544
-1588
-1649
-1710
-1741
-1726
-1685
-1658
-1673
-1721
-1772
-1803
-1805
-1788
-1761
-1734
-1710
-1696
-1703
-1734
-1769
-1765
-1695
-1581
-1487
-1464
-1497
-1525
-1503
-1433
-1346
-1259
-1173
-1092
-1036
-1015
-1007
-973
-900
-813
-746
-713
-698
-688
-683
-685
-685
-658
-592
-509
-448
-443
-492
-559
-598
-584
-528
-464
-431
-450
-511
-582
-626
-625
-593
-565
-572
-617
-682
-741
-778
-786
-764
-720
-679
-668
-698
-754
-805
-831
-832
-811
-774
-729
-691
-679
-692
-705
-693
-645
-580
-525
-508
-542
-615
-688
-718
-690
-634
-601
-617
-661
-696
-708
-713
-721
-715
-675
-611
-568
-582
-646
-717
-754
-747
-712
-673
-654
-668
-716
-775
-809
-794
-738
-674
-643
-664
-724
-792
-835
-843
-826
-803
-782
-769
-775
-810
-862
-892
-867
-800
-736
-719
-754
-816
-874
-910
-918
-903
-884
-881
-896
-915
-926
-931
-937
-933
-899
-838
-787
-792
-862
-963
-1042
-1070
-1049
-1001
-958
-948
-981
-1033
-1061
-1038
-971
-900
-860
-859
-883
-919
-959
-993
-1001
-972
-922
-891
-912
-982
-1057
-1093
-1079
-1041
-1011
-1000
-997
-999
-1019
-1066
-1123
-1156
-1146
-1108
-1073
-1062
-1079
-1115
-1163
-1215
-1267
-1331
-1426
-1559
-1709
-1844
-1953
-2032
-2049
-1946
-1704
-1410
-1205
-1150
-1140
-1004
-683
-306
-59
-7
-57
-79
-45
-28
-93
-229
-373
-494
-615
-765
-925
-1035
-1048
-980
-889
-829
-811
-813
-824
-851
-899
-950
-969
-945
-912
-913
-954
-1001
-1019
-1010
-994
-982
-967
-945
-938
-972
-1039
-1094
-1094
-1036
-965
-928
-939
-983
-1035
-1072
-1084
-1072
-1052
-1050
-1085
-1146
-1205
-1227
-1208
-1168
-1133
-1119
-1124
-1141
-1167
-1198
-1229
-1247
-1243
-1215
-1168
-1115
-1072
-1059
-1081
-1120
-1139
-1110
-1046
-997
-1009
-1085
-1179
-1232
-1219
-1157
-1093
-1067
-1090
-1146
-1207
-1252
-1270
-1256
-1211
-1158
-1129
-1147
-1201
-1246
-1245
-1199
-1139
-1094
-1073
-1068
-1072
-1080
-1079
-1051
-988
-903
-823
-770
-747
-738
-720
-676
-604
-514
-423
-356
-329
-342
-376
-404
-405
-371
-314
-257
-224
-226
-257
-286
-283
-240
-178
-131
-125
-167
-241
-314
-344
-317
-256
-209
-207
-234
-257
-263
-270
-291
-310
-297
-261
-250
-307
-419
-529
-589
-601
-602
-622
-659
-691
-709
-722
-744
-768
-769
-737
-703
-717
-801
-920
-1009
-1029
-996
-952
-926
-919
-929
-955
-994
-1025
-1023
-984
-933
-902
-908
-946
-997
-1039
-1052
-1030
-992
-972
-993
-1049
-1111
-1151
-1157
-1138
-1109
-1082
-1066
-1070
-1101
-1156
-1214
-1243
-1222
-1167
-1122
-1123
-1169
-1221
-1249
-1252
-1249
-1251
-1248
-1231
-1214
-1221
-1260
-1302
-1306
-1264
-1206
-1178
-1199
-1253
-1318
-1378
-1415
-1409
-1356
-1289
-1262
-1299
-1368
-1413
-1407
-1376
-1352
-1343
-1340
-1345
-1375
-1430
-1480
-1490
-1456
-1409
-1382
-1381
-1392
-1402
-1400
-1372
-1306
-1211
-1125
-1088
-1113
-1173
-1232
-1266
-1273
-1260
-1240
-1222
-1210
-1210
-1222
-1243
-1257
-1245
-1197
-1131
-1079
-1063
-1078
-1093
-1082
-1040
-982
-943
-943
-973
-1006
-1030
-1060
-1110
-1163
-1193
-1210
-1268
-1402
-1576
-1720
-1801
-1841
-1847
-1773
-1583
-1340
-1168
-1113
-1063
-858
-472
-60
195
257
244
276
362
423
392
279
130
-29
-205
-389
-541
-613
-594
-524
-457
-414
-379
-340
-310
-320
-370
-420
-430
-404
-385
-412
-475
-526
-524
-471
-407
-373
-382
-416
-454
-483
-503
-514
-515
-502
-483
-469
-475
-501
-532
-544
-522
-471
-416
-393
-414
-464
-504
-505
-468
-423
-399
-407
-443
-500
-571
-646
-709
-739
-730
-699
-677
-694
-754
-836
-900
-918
-901
-890
-922
-999
-1092
-1170
-1219
-1240
-1238
-1222
-1208
-1223
-1276
-1349
-1407
-1430
-1421
-1397
-1379
-1376
-1397
-1438
-1489
-1529
-1544
-1530
-1492
-1442
-1398
-1378
-1381
-1382
-1347
-1270
-1182
-1123
-1110
-1123
-1130
-1121
-1096
-1054
-981
-879
-774
-708
-689
-690
-675
-630
-573
-524
-494
-488
-512
-561
-609
-626
-605
-567
-535
-514
-500
-496
-511
-537
-549
-528
-486
-454
-459
-503
-567
-621
-640
-612
-551
-494
-474
-497
-543
-586
-608
-600
-566
-520
-489
-501
-547
-597
-617
-610
-596
-591
-592
-594
-605
-644
-707
-763
-781
-760
-727
-713
-728
-761
-797
-821
-812
-752
-650
-555
-524
-561
-616
-631
-595
-546
-515
-496
-473
-458
-475
-524
-560
-545
-490
-443
-440
-474
-513
-539
-548
-540
-505
-444
-384
-357
-375
-421
-461
-477
-471
-461
-456
-460
-473
-503
-554
-606
-623
-580
-500
-440
-435
-474
-519
-551
-574
-588
-579
-548
-532
-571
-654
-724
-732
-691
-648
-629
-621
-610
-615
-659
-728
-766
-739
-665
-602
-585
-607
-638
-656
-662
-665
-667
-666
-664
-668
-686
-715
-738
-727
-662
-556
-457
-417
-448
-513
-560
-566
-551
-547
-569
-603
-633
-659
-687
-718
-732
-715
-680
-656
-663
-690
-712
-720
-722
-725
-720
-704
-702
-744
-818
-866
-849
-792
-765
-810
-909
-1035
-1189
-1378
-1574
-1722
-1800
-1837
-1848
-1796
-1628
-1378
-1158
-1031
-923
-697
-324
60
284
315
275
298
394
470
443
311
122
-92
-324
-545
-693
-720
-651
-565
-534
-559
-585
-568
-517
-481
-487
-524
-561
-583
-601
-633
-677
-713
-720
-698
-672
-675
-717
-770
-802
-796
-764
-728
-703
-696
-707
-734
-770
-807
-831
-831
-800
-752
-720
-737
-800
-864
-882
-857
-824
-816
-832
-859
-900
-961
-1023
-1045
-1014
-963
-944
-974
-1030
-1093
-1161
-1225
-1175
-1227
-1169
-1144
-1185
-1253
-1278
-1231
-1149
-1082
-1047
-1037
-1048
-1090
-1156
-1213
-1225
-1191
-1144
-1126
-1145
-1186
-1222
-1238
-1233
-1212
-1178
-1140
-1105
-1083
-1079
-1077
-1060
-1015
-949
-875
-801
-731
-680
-664
-677
-675
-619
-518
-426
-390
-403
-419
-408
-377
-340
-293
-227
-158
-126
-150
-204
-235
-212
-147
-79
-34
-20
-31
-55
-84
-103
-99
-75
-46
-30
-46
-89
-132
-140
-101
-39
0
-6
-41
-77
-108
-150
-200
-226
-197
-130
-83
-96
-148
-186
-182
-154
-139
-150
-176
-209
-254
-320
-395
-455
-475
-454
-414
-386
-393
-436
-494
-531
-528
-493
-452
-440
-473
-538
-598
-615
-581
-523
-480
-471
-487
-509
-529
-553
-582
-600
-584
-532
-479
-464
-500
-557
-588
-572
-527
-488
-473
-483
-511
-556
-602
-618
-581
-508
-450
-450
-498
-546
-561
-551
-534
-515
-480
-436
-420
-452
-510
-537
-506
-448
-414
-425
-460
-494
-526
-567
-605
-612
-580
-542
-543
-593
-651
-681
-690
-716
-765
-791
-750
-669
-635
-697
-795
-818
-719
-572
-490
-513
-588
-650
-687
-728
-775
-797
-774
-736
-733
-772
-813
-805
-741
-655
-583
-553
-574
-634
-707
-766
-802
-830
-867
-903
-912
-890
-865
-874
-916
-946
-920
-853
-799
-800
-838
-866
-855
-811
-754
-692
-633
-600
-606
-623
-611
-572
-559
-613
-714
-816
-919
-1065
-1259
-1440
-1545
-1585
-1605
-1594
-1481
-1251
-1013
-892
-855
-719
-356
137
517
641
595
570
653
763
774
646
437
221
24
-148
-286
-363
-370
-323
-253
-192
-161
-177
-233
-297
-334
-331
-314
-324
-373
-441
-493
-518
-521
-511
-492
-468
-459
-484
-538
-590
-610
-593
-563
-549
-573
-629
-684
-699
-663
-604
-556
-524
-481
-415
-370
-403
-514
-626
-652
-590
-526
-537
-617
-699
-739
-750
-763
-785
-794
-790
-804
-864
-959
-1042
-1075
-1062
-1037
-1033
-1067
-1132
-1210
-1272
-1296
-1288
-1267
-1253
-1251
-1259
-1283
-1328
-1385
-1420
-1412
-1377
-1358
-1376
-1415
-1439
-1432
-1406
-1376
-1344
-1307
-1274
-1258
-1263
-1278
-1288
-1280
-1241
-1166
-1068
-984
-946
-952
-965
-940
-865
-760
-666
-621
-633
-675
-697
-666
-588
-503
-439
-394
-355
-325
-320
-343
-355
-321
-246
-180
-169
-215
-273
-298
-276
-227
-188
-174
-181
-196
-209
-229
-254
-266
-245
-193
-144
-132
-162
-212
-254
-274
-269
-243
-212
-202
-230
-282
-325
-333
-313
-293
-294
-316
-350
-383
-414
-441
-455
-447
-419
-388
-378
-401
-449
-493
-501
-469
-405
-329
-258
-208
-192
-206
-227
-231
-207
-173
-153
-162
-192
-230
-259
-264
-228
-155
-81
-55
-101
-195
-283
-331
-338
-320
-291
-261
-247
-260
-287
-299
-278
-235
-202
-188
-183
-180
-191
-228
-276
-292
-258
-203
-178
-200
-244
-271
-267
-248
-225
-192
-146
-108
-114
-178
-262
-315
-315
-286
-262
-261
-275
-288
-295
-297
-289
-267
-238
-220
-232
-281
-359
-432
-460
-419
-330
-242
-201
-208
-229
-231
-212
-185
-155
-119
-85
-79
-127
-217
-304
-345
-333
-298
-289
-325
-394
-457
-480
-455
-405
-362
-344
-354
-388
-448
-531
-614
-663
-651
-590
-528
-513
-560
-650
-752
-849
-948
-1053
-1150
-1218
-1268
-1333
-1411
-1436
-1322
-1065
-776
-584
-503
-414
-198
130
433
596
630
625
629
599
466
224
-58
-301
-469
-569
-630
-679
-727
-766
-773
-732
-658
-592
-567
-584
-624
-673
-721
-750
-738
-688
-637
-629
-675
-746
-802
-822
-812
-779
-733
-694
-687
-723
-780
-822
-833
-825
-813
-795
-766
-744
-761
-811
-847
-820
-743
-682
-689
-752
-811
-832
-825
-814
-796
-755
-700
-673
-703
-775
-843
-879
-891
-909
-950
-1006
-1054
-1081
-1091
-1097
-1105
-1109
-1100
-1081
-1071
-1092
-1146
-1209
-1249
-1240
-1184
-1112
-1068
-1081
-1145
-1216
-1251
-1231
-1175
-1112
-1067
-1053
-1065
-1085
-1084
-1044
-977
-915
-879
-865
-858
-846
-828
-795
-728
-620
-496
-398
-353
-351
-360
-344
-294
-218
-138
-74
-43
-48
-65
-59
-14
57
120
155
165
160
139
97
50
38
82
151
181
147
88
66
95
133
140
126
128
150
152
100
20
-19
15
92
147
152
124
94
67
27
-28
-71
-71
-34
-3
-19
-82
-144
-159
-118
-54
-11
-13
-57
-136
-231
-317
-359
-344
-302
-286
-323
-387
-431
-437
-416
-389
-355
-317
-297
-327
-399
-464
-472
-430
-387
-380
-401
-414
-409
-406
-424
-444
-432
-381
-329
-324
-374
-444
-487
-491
-472
-446
-423
-408
-412
-438
-473
-493
-487
-465
-442
-428
-430
-454
-495
-532
-532
-489
-430
-384
-358
-348
-363
-412
-474
-497
-446
-355
-301
-329
-411
-482
-503
-482
-443
-407
-391
-408
-456
-503
-511
-470
-407
-355
-323
-293
-253
-219
-214
-240
-258
-231
-164
-113
-131
-213
-297
-327
-305
-275
-263
-258
-243
-229
-241
-287
-332
-342
-321
-313
-353
-436
-524
-580
-599
-603
-608
-610
-606
-620
-697
-860
-1061
-1209
-1250
-1218
-1198
-1217
-1215
-1108
-889
-640
-437
-271
-63
231
553
786
865
832
790
802
835
804
655
416
166
-26
-139
-189
-193
-159
-99
-46
-33
-68
-122
-154
-154
-146
-158
-197
-243
-282
-308
-314
-289
-236
-181
-160
-188
-244
-295
-320
-315
-289
-257
-239
-254
-307
-376
-429
-441
-417
-378
-342
-323
-325
-349
-386
-413
-408
-368
-318
-293
-309
-355
-408
-450
-473
-477
-465
-449
-446
-472
-526
-588
-633
-645
-624
-591
-577
-605
-675
-763
-833
-868
-875
-878
-895
-931
-984
-1052
-1130
-1196
-1217
-1176
-1094
-1030
-1032
-1102
-1187
-1226
-1196
-1130
-1082
-1082
-1118
-1154
-1165
-1144
-1096
-1026
-946
-873
-827
-813
-815
-809
-780
-726
-650
-559
-470
-402
-361
-334
-297
-240
-172
-110
-64
-39
-40
-69
-110
-136
-128
-87
-40
-12
-12
-33
-58
-70
-57
-18
30
64
62
18
-52
-115
-139
-110
-47
16
45
34
1
-29
-37
-20
17
58
74
44
-25
-92
-114
-87
-39
-4
13
18
11
-18
-72
-118
-123
-82
-33
-18
-48
-99
-137
-147
-133
-102
-63
-33
-33
-73
-133
-177
-185
-168
-151
-147
-153
-167
-195
-240
-279
-284
-249
-206
-191
-211
-246
-276
-297
-311
-303
-255
-182
-129
-137
-194
-248
-251
-200
-138
-102
-94
-96
-95
-101
-118
-129
-107
-49
5
11
-42
-121
-183
-208
-200
-169
-124
-89
-93
-146
-214
-246
-218
-154
-96
-69
-74
-107
-165
-233
-276
-272
-237
-215
-235
-275
-298
-288
-262
-231
-180
-97
-14
12
-44
-140
-204
-204
-162
-125
-120
-144
-183
-220
-241
-234
-203
-168
-150
-159
-189
-228
-266
-292
-303
-301
-298
-310
-337
-358
-358
-343
-343
-371
-412
-451
-509
-628
-818
-1028
-1190
-1284
-1336
-1347
-1278
-1112
-914
-791
-759
-703
-484
-113
244
422
416
361
371
439
477
424
294
127
-57
-255
-445
-578
-613
-557
-457
-373
-338
-345
-367
-376
-367
-354
-359
-390
-436
-481
-518
-547
-567
-575
-571
-559
-546
-543
-557
-589
-620
-624
-586
-526
-485
-490
-534
-591
-639
-669
-671
-634
-565
-497
-471
-502
-560
-592
-572
-515
-461
-442
-457
-489
-521
-545
-556
-548
-518
-484
-471
-500
-566
-642
-699
-720
-703
-665
-632
-632
-673
-732
-778
-794
-785
-766
-750
-747
-775
-844
-927
-974
-951
-883
-836
-853
-919
-987
-1028
-1053
-1074
-1083
-1061
-1011
-964
-943
-946
-951
-940
-901
-830
-735
-647
-603
-604
-609
-561
-441
-282
-137
-41
3
13
10
11
33
86
161
233
278
288
281
282
304
344
383
411
419
404
364
308
263
253
291
359
421
442
417
367
330
327
351
376
378
352
310
270
252
263
297
345
398
446
476
472
428
368
330
332
361
386
390
376
351
316
281
269
300
356
393
374
306
229
183
175
196
231
263
274
246
185
126
106
140
206
267
295
285
251
214
191
193
212
232
236
218
179
119
45
-18
-38
-1
62
99
78
16
-44
-69
-64
-49
-39
-41
-62
-107
-167
-211
-207
-153
-81
-29
-18
-42
-85
-130
-164
-175
-159
-134
-131
-165
-221
-268
-283
-270
-246
-224
-204
-189
-188
-210
-247
-272
-257
-205
-152
-145
-199
-289
-363
-388
-364
-320
-283
-264
-252
-236
-218
-203
-192
-165
-110
-43
-4
-27
-95
-155
-166
-138
-106
-89
-75
-56
-56
-101
-168
-197
-151
-68
-25
-64
-156
-248
-307
-327
-303
-240
-173
-159
-229
-359
-504
-640
-770
-886
-969
-1025
-1092
-1180
-1225
-1139
-919
-680
-531
-454
-321
-62
238
433
485
499
591
745
833
760
550
300
86
-81
-208
-284
-301
-287
-280
-291
-293
-252
-174
-95
-47
-36
-53
-93
-143
-175
-159
-94
-16
23
3
-58
-126
-178
-204
-202
-175
-139
-118
-126
-159
-192
-203
-185
-150
-113
-87
-78
-95
-135
-182
-208
-196
-148
-91
-62
-79
-131
-191
-228
-224
-187
-146
-135
-169
-229
-284
-313
-321
-319
-309
-291
-280
-305
-373
-450
-487
-466
-414
-380
-391
-444
-514
-577
-615
-624
-613
-602
-603
-626
-671
-733
-791
-808
-765
-684
-613
-588
-600
-610
-598
-570
-543
-519
-494
-475
-470
-479
-484
-466
-423
-360
-286
-211
-153
-132
-149
-182
-198
-174
-108
-16
67
105
87
41
15
45
117
189
220
204
164
125
106
113
143
184
216
226
210
177
140
117
124
171
242
301
311
263
190
140
139
175
216
237
238
228
210
186
168
169
197
237
260
248
202
142
97
94
137
201
242
233
186
138
113
105
103
110
136
166
164
111
32
-19
-8
44
92
102
72
21
-29
-59
-59
-31
7
34
35
6
-42
-85
-97
-69
-16
26
32
4
-41
-90
-137
-172
-178
-155
-128
-127
-156
-193
-213
-209
-188
-148
-88
-26
1
-29
-90
-124
-93
-10
76
122
119
89
58
45
54
85
127
160
162
125
67
23
20
54
93
110
99
80
68
58
43
31
36
60
84
81
39
-29
-98
-146
-154
-118
-57
-8
1
-28
-62
-63
-19
53
120
155
148
109
62
32
34
66
116
166
201
207
177
115
49
23
62
139
183
137
17
-99
-147
-132
-104
-85
-59
-23
-20
-101
-247
-388
-483
-563
-684
-840
-983
-1093
-1192
-1269
-1243
-1046
-748
-516
-440
-419
-267
70
447
690
778
828
929
1024
994
803
539
312
150
8
-145
-284
-368
-392
-385
-369
-340
-290
-238
-220
-264
-353
-443
-493
-487
-439
-377
-335
-329
-362
-415
-466
-494
-491
-458
-409
-374
-380
-432
-496
-526
-497
-430
-374
-368
-404
-448
-469
-462
-438
-406
-371
-343
-342
-381
-448
-506
-521
-492
-446
-412
-403
-418
-453
-501
-546
-564
-549
-519
-514
-558
-634
-703
-731
-718
-684
-653
-636
-641
-671
-726
-790
-837
-846
-822
-799
-805
-849
-910
-955
-967
-948
-913
-869
-826
-800
-804
-838
-876
-882
-850
-803
-769
-759
-766
-789
-824
-845
-811
-708
-575
-477
-447
-457
-457
-422
-359
-275
-177
-84
-25
-6
5
45
117
185
226
249
274
297
297
273
258
281
341
410
463
486
469
413
345
315
347
412
456
454
426
410
416
433
449
467
490
510
509
483
446
419
414
434
474
517
545
547
524
491
467
470
504
551
578
559
498
425
371
352
364
397
436
455
430
362
288
252
269
319
367
384
360
303
239
204
223
282
336
348
313
261
223
204
201
213
243
277
289
258
194
130
93
91
111
137
149
122
47
-49
-116
-119
-63
5
41
32
-4
-43
-67
-71
-57
-32
-11
-10
-38
-89
-142
-171
-161
-117
-67
-42
-57
-108
-164
-195
-184
-144
-100
-73
-64
-63
-69
-90
-124
-149
-146
-123
-112
-131
-168
-196
-199
-177
-131
-56
39
119
141
98
23
-35
-50
-32
-11
-17
-58
-121
-181
-204
-173
-98
-20
15
-13
-80
-144
-173
-173
-166
-167
-178
-188
-188
-182
-177
-176
-178
-183
-204
-270
-403
-584
-754
-851
-876
-881
-901
-907
-836
-678
-498
-370
-284
-142
137
522
889
1120
1194
1175
1134
1092
1012
851
599
296
-2
-241
-394
-461
-453
-387
-294
-212
-176
-201
-267
-329
-353
-336
-301
-268
-245
-235
-239
-255
-264
-243
-191
-139
-130
-170
-222
-246
-226
-181
-138
-106
-91
-104
-155
-223
-268
-258
-204
-146
-116
-113
-114
-110
-105
-100
-84
-46
2
25
2
-57
-118
-151
-149
-116
-56
13
56
50
3
-42
-51
-43
-64
-144
-254
-350
-425
-503
-591
-649
-632
-551
-469
-444
-478
-532
-575
-596
-595
-566
-528
-522
-576
-659
-708
-683
-608
-531
-477
-442
-425
-435
-469
-493
-466
-387
-294
-228
-195
-176
-157
-138
-113
-66
16
115
186
199
163
123
126
182
269
347
385
373
324
267
239
257
308
355
367
340
297
266
252
250
254
264
278
291
294
281
250
214
196
215
264
309
308
250
169
111
100
126
163
191
204
201
185
164
145
136
143
158
163
132
54
-48
-126
-143
-106
-47
1
25
27
7
-30
-64
-73
-50
-13
11
1
-41
-92
-117
-91
-23
49
82
65
20
-27
-63
-85
-90
-75
-50
-38
-53
-90
-131
-160
-161
-127
-70
-21
-14
-55
-116
-155
-148
-110
-82
-98
-164
-249
-320
-363
-399
-444
-486
-491
-447
-387
-361
-385
-425
-430
-379
-296
-224
-194
-215
-268
-321
-339
-303
-222
-129
-67
-53
-67
-68
-29
47
129
188
206
181
123
52
-9
-35
-16
39
109
161
173
150
128
147
207
267
286
262
230
208
187
154
124
133
190
256
279
244
185
150
162
205
253
285
293
274
238
205
198
215
232
218
162
73
-42
-198
-394
-591
-721
-761
-761
-782
-813
-776
-623
-409
-227
-101
54
318
659
944
1082
1109
1133
1215
1307
1316
1194
961
681
418
225
127
112
133
144
129
109
100
91
68
36
15
6
-16
-75
-159
-226
-238
-196
-132
-87
-91
-146
-234
-316
-359
-356
-325
-296
-283
-289
-309
-344
-377
-377
-322
-229
-149
-126
-159
-208
-235
-1515
-1504
-1493
-1481
-1480
-1494
-1527
-1593
-1712
-1861
-1964
-1964
-1887
-1825
-1841
-1894
-1888
-1800
-1694
-1657
-1700
-1770
-1830
-1896
-2002
-2139
-2260
-2322
-2328
-2299
-2252
-2194
-2113
-2005
-1873
-1744
-1670
-1681
-1750
-1807
-1805
-1764
-1733
-1722
-1697
-1630
-1543
-1485
-1469
-1461
-1433
-1390
-1354
-1324
-1261
-1147
-999
-855
-734
-634
-556
-517
-548
-681
-911
-1184
-1397
-1462
-1355
-1130
-858
-584
-335
-168
-181
-431
-852
-1257
-1457
-1393
-1150
-851
-528
-108
475
1155
1733
2012
1934
1610
1220
897
666
487
316
155
54
71
207
389
505
480
331
148
22
-24
-48
-119
-248
-393
-502
-574
-647
-735
-796
-780
-700
-641
-677
-801
-943
-1036
-1072
-1060
-972
-748
-353
166
691
1090
1285
1288
1163
973
730
418
57
-262
-443
-466
-409
-367
-346
-298
-234
-271
-525
-953
-1355
-1553
-1557
-1518
-1533
-1532
-1398
-1147
-940
-903
-1003
-1125
-1242
-1433
-1724
-1965
-1940
-1596
-1094
-633
-253
144
602
1008
1195
1111
853
548
261
17
-166
-288
-369
-438
-499
-527
-520
-523
-595
-753
-949
-1108
-1181
-1179
-1164
-1216
-1368
-1548
-1618
-1495
-1242
-1020
-914
-846
-648
-266
138
328
203
-104
-369
-470
-442
-374
-310
-245
-183
-126
-55
32
55
-122
-524
-966
-1178
-1064
-777
-532
-360
-125
265
711
1017
1055
835
443
8
-335
-505
-521
-470
-401
-279
-55
232
501
692
784
743
528
188
-124
-255
-211
-137
-149
-220
-237
-130
76
294
419
359
112
-185
-341
-272
-94
17
22
53
244
567
859
978
923
787
649
498
284
30
-137
-74
249
727
1213
1591
1764
1683
1348
869
408
40
-337
-832
-1361
-1666
-1567
-1165
-711
-355
-141
-31
-24
-103
-155
-91
15
4
-154
-270
-114
316
786
1082
1202
1270
1339
1353
1286
1210
1200
1188
1032
728
442
349
413
452
366
286
389
651
865
899
865
940
1066
969
360
-698
-1754
-2333
-2267
-1748
-1080
-400
383
1419
2698
3977
4891
5160
4769
3992
3218
2696
2398
2113
1718
1332
1180
1349
1683
1952
2048
2013
1910
1751
1547
1378
1340
1446
1598
1662
1578
1385
1153
955
842
821
896
1040
1192
1297
1342
1390
1467
1462
1154
461
-413
-1071
-1254
-1037
-678
-318
95
648
1299
1925
2461
2892
3138
3039
2536
1818
1230
987
1008
1068
1020
904
841
906
1069
1239
1315
1219
979
738
644
730
879
975
1006
1020
986
811
459
62
-156
-82
196
487
671
759
851
1031
1291
1526
1617
1532
1345
1141
926
663
371
176
178
324
452
471
464
556
727
802
650
325
18
-144
-197
-237
-291
-308
-261
-174
-69
81
313
614
937
1262
1606
1941
2167
2208
2076
1846
1552
1167
713
304
69
14
32
62
163
422
806
1153
1312
1259
1069
819
551
287
63
-83
-148
-154
-117
-28
120
301
471
593
654
645
547
341
57
-199
-297
-192
5
117
87
31
100
284
406
317
54
-186
-261
-201
-92
73
367
780
1152
1318
1284
1212
1208
1187
971
515
7
-277
-222
25
200
176
72
84
246
409
421
297
175
123
78
-38
-203
-356
-505
-691
-871
-928
-832
-704
-637
-548
-269
209
651
839
836
882
1072
1213
1043
551
18
-265
-237
-52
131
300
520
818
1125
1348
1441
1433
1368
1249
1058
818
629
593
704
853
939
969
1049
1234
1446
1543
1482
1373
1331
1315
1148
726
203
-109
-56
205
382
375
384
690
1339
2087
2613
2782
2687
2520
2423
2416
2420
2327
2102
1830
1651
1620
1653
1637
1551
1459
1400
1323
1191
1074
1089
1252
1408
1402
1253
1124
1124
1187
1158
1017
909
947
1072
1113
1003
878
882
892
579
-223
-1228
-1876
-1829
-1276
-673
-238
220
997
2073
3076
3630
3662
3367
2938
2410
1774
1148
769
794
1133
1508
1690
1675
1648
1722
1806
1690
1285
751
334
166
227
453
800
1168
1332
1108
585
132
72
366
680
767
712
790
1119
1537
1788
1772
1581
1365
1195
1066
950
842
740
648
566
478
387
309
274
268
210
48
-148
-214
-63
204
419
555
754
1142
1647
2062
2243
2197
2010
1741
1430
1155
996
940
895
838
867
1096
1488
1854
2013
1933
1717
1491
1317
1176
1023
857
761
828
1038
1234
1253
1108
975
964
979
817
456
125
69
309
637
840
858
767
656
579
552
555
524
415
254
138
145
249
362
433
477
534
612
684
756
845
935
959
879
751
701
779
893
904
805
728
783
887
867
681
478
405
421
369
215
116
210
434
601
644
688
860
1108
1251
1198
1031
887
813
763
686
596
529
500
510
547
581
580
531
466
439
467
521
568
605
669
780
905
978
946
825
693
629
645
679
681
673
729
877
1056
1167
1180
1159
1169
1199
1186
1101
996
951
985
1059
1127
1171
1207
1244
1269
1266
1229
1169
1101
1036
983
957
973
1031
1103
1138
1110
1041
985
966
952
905
829
779
791
842
879
886
898
946
1010
1039
1023
1007
1030
1066
1054
976
893
874
924
989
1026
1048
1076
1083
1016
856
652
482
385
356
377
436
512
578
631
687
752
782
711
519
272
82
25
104
256
395
481
549
664
835
968
938
736
488
340
322
355
391
461
597
724
727
606
500
524
611
603
458
321
350
523
668
670
583
518
484
419
314
258
308
402
429
377
326
312
302
222
50
-198
-506
-831
-1077
-1134
-991
-743
-475
-156
283
792
1219
1501
1724
1974
2166
2094
1703
1214
917
881
895
749
482
331
446
716
900
885
776
742
809
868
844
780
775
827
841
786
736
768
815
752
583
461
486
552
479
268
112
164
330
376
231
89
165
448
723
842
863
942
1121
1262
1213
986
742
624
625
640
595
539
563
674
800
865
864
819
717
543
362
273
287
289
190
66
74
228
354
281
82
-11
97
243
221
37
-97
-28
143
193
38
-189
-317
-340
-384
-512
-623
-585
-393
-194
-127
-174
-182
-61
120
195
73
-148
-291
-270
-154
-73
-72
-80
-19
86
148
113
12
-94
-179
-265
-351
-374
-281
-115
0
-24
-125
-184
-138
-68
-100
-230
-322
-283
-163
-56
45
241
543
764
725
479
285
359
594
671
413
9
-164
72
495
711
516
106
-126
-1
263
329
95
-177
-173
90
341
371
276
267
399
560
653
728
852
976
1017
1001
1008
1051
1044
940
832
827
861
819
705
683
863
1131
1305
1357
1414
1557
1682
1633
1402
1135
928
771
642
581
627
683
624
479
425
557
732
725
491
241
207
379
549
578
545
644
936
1253
1346
1146
824
602
540
512
377
166
85
247
566
828
931
947
998
1061
1026
854
652
567
631
731
695
472
184
15
37
168
218
33
-362
-762
-899
-647
-151
267
402
409
663
1315
2063
2398
2145
1673
1455
1549
1600
1293
728
240
27
29
115
262
452
607
666
723
911
1159
1197
871
369
63
61
127
-9
-319
-514
-386
-28
255
270
119
76
281
569
622
297
-214
-556
-532
-293
-105
-87
-162
-193
-150
-87
5
138
239
211
60
-65
-55
18
5
-109
-168
-123
-99
-208
-333
-262
6
189
38
-312
-486
-328
-84
-95
-380
-622
-568
-318
-180
-301
-519
-558
-380
-221
-340
-691
-953
-891
-623
-477
-614
-835
-812
-487
-178
-216
-599
-994
-1110
-995
-913
-1018
-1187
-1186
-934
-577
-336
-293
-337
-306
-191
-157
-329
-650
-915
-979
-897
-787
-682
-564
-423
-262
-64
215
536
758
770
606
407
273
218
286
482
663
622
356
162
330
746
948
663
157
-67
135
431
469
290
226
420
676
766
717
710
781
789
608
337
150
87
90
123
228
409
543
488
274
106
140
272
246
-22
-364
-507
-354
-65
136
175
135
129
182
242
246
166
68
10
25
72
85
77
114
217
303
275
140
18
3
64
117
145
224
413
636
751
706
584
503
501
515
494
436
377
355
412
547
725
885
935
836
647
532
611
834
988
922
743
723
962
1230
1217
907
618
604
736
675
340
37
93
447
742
726
489
266
146
30
-173
-430
-664
-848
-956
-951
-807
-556
-307
-102
81
301
606
977
1329
1549
1603
1600
1694
1906
2042
1863
1361
788
419
268
123
-175
-532
-699
-554
-230
25
85
37
38
131
206
129
-98
-321
-397
-343
-282
-326
-431
-474
-394
-249
-134
-77
-38
19
87
135
134
84
22
-9
1
-18
-145
-338
-448
-361
-155
-38
-124
-291
-324
-164
28
56
-77
-191
-150
-16
37
-73
-235
-300
-253
-218
-273
-337
-248
65
533
1049
1545
1921
2038
1817
1309
698
112
-475
-1111
-1737
-2196
-2353
-2230
-1948
-1639
-1378
-1185
-1057
-1000
-1063
-1276
-1551
-1711
-1638
-1450
-1397
-1554
-1669
-1430
-866
-387
-383
-796
-1181
-1177
-849
-564
-586
-839
-1042
-1031
-849
-654
-534
-440
-306
-122
82
266
427
564
644
670
703
820
1021
1198
1220
1083
939
934
1034
1064
925
740
737
966
1215
1254
1103
1002
1101
1265
1252
1032
824
811
931
975
874
789
906
1200
1470
1574
1586
1672
1873
2075
2144
2075
1974
1916
1860
1739
1555
1404
1362
1413
1463
1455
1406
1366
1344
1316
1283
1296
1397
1568
1735
1833
1870
1893
1899
1812
1562
1187
817
558
408
315
254
248
317
418
482
478
449
439
446
435
391
366
457
726
1117
1460
1581
1440
1167
923
747
541
239
-73
-249
-229
-86
63
179
284
381
443
448
398
307
207
133
118
183
313
506
757
1018
1160
1073
760
347
-42
-395
-776
-1190
-1538
-1699
-1645
-1455
-1250
-1095
-972
-822
-586
-258
97
380
549
652
754
865
933
920
840
716
532
287
49
-94
-164
-271
-457
-589
-503
-230
-23
-78
-288
-365
-171
128
272
205
70
-10
-62
-145
-228
-240
-193
-183
-242
-252
-70
261
515
510
284
49
-37
-29
-90
-276
-475
-542
-474
-391
-364
-322
-183
1
85
11
-117
-162
-115
-85
-144
-253
-336
-386
-424
-433
-375
-283
-251
-330
-433
-445
-374
-352
-451
-585
-633
-598
-592
-682
-808
-872
-870
-883
-976
-1121
-1239
-1281
-1258
-1217
-1204
-1230
-1239
-1156
-987
-850
-870
-1029
-1175
-1203
-1169
-1205
-1324
-1389
-1286
-1069
-882
-789
-716
-579
-401
-276
-249
-278
-296
-272
-211
-149
-132
-170
-233
-268
-263
-251
-257
-276
-280
-268
-252
-207
-87
78
175
114
-3
0
138
210
43
-262
-433
-376
-295
-384
-508
-329
226
809
1018
877
782
993
1305
1314
929
486
333
459
574
496
339
301
391
440
356
259
334
589
868
1032
1136
1304
1575
1853
2014
2032
1959
1837
1670
1489
1382
1425
1586
1750
1799
1729
1653
1679
1791
1849
1734
1486
1291
1287
1407
1466
1420
1403
1525
1705
1737
1557
1337
1266
1310
1271
1043
753
615
710
927
1099
1137
1085
1047
1077
1111
1007
688
273
-15
-38
96
188
196
273
536
885
1109
1121
1031
971
949
874
728
608
556
465
268
43
-73
-73
-116
-318
-573
-701
-683
-673
-738
-720
-457
-29
317
491
675
1034
1416
1493
1168
728
504
493
417
116
-242
-374
-219
28
177
229
304
438
540
526
456
418
423
433
427
447
521
603
629
592
564
582
586
499
346
248
278
368
369
219
22
-62
25
174
229
149
41
42
164
283
267
106
-95
-239
-315
-375
-455
-541
-613
-663
-692
-685
-625
-535
-478
-495
-547
-561
-509
-439
-425
-489
-577
-616
-588
-538
-512
-504
-487
-456
-434
-440
-454
-440
-402
-380
-399
-422
-398
-325
-252
-228
-235
-218
-150
-72
-32
-19
20
107
192
207
144
62
9
-32
-99
-180
-217
-174
-77
18
96
182
285
376
418
411
386
359
335
325
347
400
443
446
434
460
551
677
791
875
944
1017
1109
1227
1354
1433
1423
1366
1356
1440
1549
1553
1408
1201
1044
958
866
708
504
327
232
233
321
473
640
754
784
762
745
753
756
719
657
609
591
578
546
513
525
580
612
550
403
281
300
451
609
644
540
396
323
336
369
366
322
300
366
523
704
806
793
748
777
877
900
715
378
126
148
370
544
524
389
329
425
588
668
611
472
301
119
-86
-251
-288
-203
-85
-32
-53
-63
17
141
198
127
-19
-133
-163
-150
-160
-207
-248
-256
-259
-324
-496
-763
-1060
-1292
-1420
-1483
-1542
-1593
-1521
-1205
-666
-108
219
288
279
400
649
819
761
552
416
501
738
934
982
932
870
831
804
771
739
708
664
605
566
584
667
803
973
1138
1246
1260
1193
1109
1072
1082
1080
1013
895
787
738
739
737
705
667
662
703
746
736
680
626
623
661
699
711
718
761
850
950
1014
1031
1010
947
834
688
568
540
590
630
585
477
412
462
583
655
596
430
231
40
-132
-272
-325
-259
-124
0
72
107
149
178
145
17
-179
-386
-557
-687
-781
-819
-788
-704
-633
-636
-706
-725
-626
-478
-445
-615
-862
-970
-873
-724
-718
-880
-1020
-970
-734
-438
-209
-85
-26
52
234
508
717
659
354
81
97
354
535
439
265
364
760
1077
964
556
309
481
819
889
567
168
89
381
748
867
717
544
612
913
1214
1274
1086
894
892
1024
1079
953
737
593
570
613
700
873
1028
979
703
447
486
759
872
578
128
-20
223
454
337
60
56
424
754
661
304
197
550
999
1101
834
569
541
609
520
300
205
322
486
462
287
233
491
944
1280
1267
954
625
538
694
815
620
147
-236
-227
83
306
202
-36
-94
87
260
222
93
153
471
762
721
374
18
-110
-41
24
-67
-268
-427
-431
-272
-50
139
223
206
124
17
-84
-161
-263
-479
-834
-1217
-1441
-1411
-1284
-1330
-1653
-2048
-2222
-2084
-1817
-1659
-1674
-1702
-1510
-1006
-337
203
412
319
193
279
536
702
552
151
-238
-423
-453
-461
-506
-547
-576
-664
-854
-1051
-1108
-1002
-888
-925
-1088
-1170
-1025
-725
-503
-503
-644
-740
-693
-572
-503
-537
-612
-631
-549
-428
-336
-323
-387
-471
-523
-536
-519
-494
-480
-477
-480
-425
-280
-106
-33
-131
-291
-336
-224
-124
-201
-418
-592
-637
-654
-728
-794
-709
-498
-381
-492
-694
-727
-529
-314
-319
-521
-701
-686
-510
-330
-280
-367
-516
-612
-604
-548
-549
-667
-821
-881
-823
-751
-771
-830
-806
-662
-504
-438
-440
-395
-255
-123
-108
-216
-349
-395
-344
-279
-271
-314
-326
-243
-75
84
151
121
61
45
71
128
207
302
401
501
600
734
902
1041
1076
1011
900
814
771
754
762
826
944
1055
1081
1005
886
804
795
814
788
686
551
469
503
634
774
833
793
715
676
693
710
660
544
447
409
429
433
398
394
480
595
620
509
380
390
539
665
645
546
536
664
789
755
588
471
522
646
654
484
280
228
360
528
565
463
368
424
611
770
788
679
564
504
466
401
313
246
199
120
11
-51
3
125
193
160
112
144
226
266
231
189
200
231
223
206
246
342
406
392
375
455
599
665
578
420
335
352
384
352
269
201
197
261
377
499
563
538
480
471
533
580
526
392
299
338
474
599
636
586
506
450
417
364
259
119
-10
-105
-183
-263
-350
-468
-659
-914
-1140
-1252
-1300
-1431
-1699
-1951
-1989
-1818
-1642
-1602
-1598
-1437
-1101
-774
-588
-464
-250
58
316
435
491
609
770
815
593
66
-674
-1465
-2108
-2436
-2431
-2234
-1989
-1678
-1154
-349
586
1393
1913
2151
2187
2056
1747
1291
801
407
161
-1
-135
-234
-213
-18
273
476
442
176
-181
-515
-809
-1093
-1354
-1534
-1588
-1505
-1269
-859
-318
234
683
1003
1217
1298
1152
749
212
-264
-571
-762
-929
-1096
-1222
-1267
-1213
-1069
-847
-605
-365
-112
204
595
993
1296
1462
1526
1559
1566
1489
1292
1027
809
708
690
649
529
383
302
294
281
193
65
-36
-137
-324
-607
-846
-892
-763
-658
-733
-916
-984
-824
-553
-385
-390
-452
-425
-316
-270
-406
-709
-1062
-1357
-1539
-1582
-1450
-1140
-717
-270
167
618
1082
1496
1771
1847
1750
1557
1341
1151
998
877
796
774
801
822
779
662
540
482
466
403
263
143
178
383
617
705
606
441
357
383
441
448
405
366
384
473
638
905
1283
1724
2098
2243
2090
1735
1370
1100
855
495
8
-422
-568
-386
-51
213
332
396
502
639
717
679
571
493
504
569
597
547
484
523
697
890
939
789
573
476
571
759
893
909
855
803
778
764
735
678
613
573
571
578
542
443
336
295
328
359
308
200
151
262
501
720
775
645
438
280
192
89
-110
-383
-613
-701
-641
-506
-358
-219
-90
27
124
199
249
254
205
125
62
52
78
111
155
222
299
346
349
338
349
371
359
302
246
239
283
327
330
296
269
292
375
484
548
501
342
137
-44
-187
-329
-485
-618
-688
-709
-715
-690
-564
-316
-28
195
339
508
789
1143
1443
1607
1670
1711
1742
1693
1498
1180
838
575
422
343
284
231
218
280
411
550
618
577
457
327
244
202
160
95
26
-35
-124
-288
-497
-641
-650
-613
-709
-1011
-1385
-1608
-1572
-1360
-1119
-908
-713
-511
-298
-59
215
466
547
371
29
-278
-430
-505
-638
-826
-944
-913
-803
-720
-649
-485
-216
1
3
-176
-325
-288
-134
-82
-256
-561
-792
-820
-685
-525
-433
-394
-329
-170
75
314
434
396
251
114
56
75
133
196
275
391
545
730
939
1153
1329
1417
1397
1318
1257
1251
1261
1245
1231
1294
1447
1603
1655
1603
1544
1553
1591
1562
1435
1278
1172
1125
1097
1071
1068
1104
1148
1158
1142
1132
1149
1195
1256
1310
1331
1313
1292
1318
1367
1336
1172
977
927
1054
1170
1076
807
614
660
828
867
709
533
529
668
762
718
622
595
609
548
387
260
293
452
568
539
428
338
302
270
194
92
4
-49
-70
-37
68
230
391
510
595
667
724
747
758
797
873
933
934
906
919
971
980
892
769
733
814
915
928
880
889
1004
1131
1130
979
781
644
595
591
596
596
583
544
492
475
515
555
503
329
106
-52
-98
-76
-52
-41
-10
56
124
146
111
45
-25
-102
-195
-283
-328
-311
-253
-176
-87
15
102
137
121
97
96
107
93
49
9
1
23
62
115
186
251
280
272
258
273
327
404
478
523
519
453
330
168
-15
-204
-385
-553
-720
-894
-1036
-1055
-890
-593
-307
-138
-41
136
477
887
1180
1256
1191
1140
1184
1271
1301
1229
1088
935
797
678
589
548
555
576
569
531
507
541
613
661
647
595
553
526
476
389
313
312
384
461
496
517
594
741
888
949
906
807
702
598
486
390
347
359
366
320
261
279
382
449
337
50
-220
-289
-160
8
83
101
187
372
540
541
341
36
-249
-463
-625
-739
-746
-573
-247
84
273
310
312
363
401
274
-38
-358
-493
-425
-297
-242
-245
-215
-136
-74
-68
-70
-58
-115
-312
-557
-645
-526
-411
-537
-842
-981
-728
-282
-48
-179
-436
-516
-414
-366
-493
-680
-768
-765
-748
-702
-491
-113
209
276
131
26
136
361
462
336
126
72
233
460
543
415
203
80
62
45
-54
-190
-255
-203
-64
93
202
207
110
6
14
146
268
235
95
42
205
460
563
434
246
245
486
803
982
950
803
684
673
766
914
1073
1220
1365
1537
1788
2104
2391
2535
2497
2356
2227
2134
2008
1800
1577
1453
1472
1542
1543
1474
1440
1509
1619
1615
1393
1017
697
625
811
1081
1241
1263
1264
1316
1329
1175
888
662
601
557
302
-144
-470
-411
-37
284
262
-29
-289
-305
-138
-1
-35
-188
-293
-229
-16
226
406
542
644
638
443
138
-63
-49
8
-140
-471
-682
-574
-360
-404
-728
-944
-773
-435
-382
-726
-1107
-1152
-932
-792
-903
-1117
-1258
-1358
-1514
-1658
-1632
-1454
-1369
-1510
-1712
-1672
-1317
-868
-531
-303
-93
105
238
330
478
677
723
451
-19
-349
-335
-116
-11
-152
-363
-376
-123
202
358
296
178
195
342
451
379
160
-34
-66
17
80
19
-138
-288
-330
-221
14
275
426
401
296
279
425
623
694
585
406
282
229
186
143
163
233
238
63
-169
-141
284
861
1127
889
438
213
325
485
377
49
-198
-186
-33
73
146
331
602
729
541
186
-42
-12
94
14
-236
-390
-264
95
428
529
381
107
-110
-177
-109
-39
-95
-240
-309
-180
95
317
341
198
26
-43
2
52
-5
-191
-413
-548
-584
-607
-661
-660
-514
-276
-112
-93
-92
32
208
265
162
47
110
332
524
523
368
230
273
496
704
673
388
106
111
384
600
560
455
604
982
1212
1077
821
805
1008
1024
608
41
-203
-51
185
242
203
291
532
770
882
915
901
760
458
137
-20
3
32
-66
-218
-259
-143
-23
-34
-131
-194
-217
-307
-483
-545
-306
91
302
172
-77
-131
8
35
-234
-560
-623
-409
-179
-50
132
484
817
838
571
344
378
498
404
76
-202
-207
-24
112
89
19
24
97
144
125
57
2
-12
-35
-117
-269
-420
-458
-324
-96
128
271
295
219
105
57
115
183
105
-165
-460
-551
-346
-12
187
139
-10
-17
186
411
428
225
31
50
195
240
128
93
332
699
817
549
180
63
210
274
39
-378
-700
-810
-851
-939
-1009
-1066
-1167
-1335
-1432
-1300
-1012
-833
-886
-976
-847
-510
-166
103
412
791
1037
944
637
473
593
733
564
128
-221
-221
20
219
256
208
188
204
215
215
195
144
82
34
60
122
163
197
273
372
400
303
147
40
9
-7
-37
-23
100
283
413
451
475
552
631
600
423
220
113
122
157
161
153
181
251
316
333
308
286
301
347
379
363
296
234
229
274
293
229
107
8
-24
-22
-42
-80
-84
-24
80
180
249
287
287
227
111
-39
-180
-295
-384
-457
-520
-581
-637
-654
-599
-494
-410
-393
-420
-434
-419
-407
-430
-470
-491
-498
-508
-523
-528
-540
-608
-745
-871
-884
-779
-671
-658
-714
-713
-594
-437
-380
-467
-620
-724
-722
-638
-538
-470
-465
-504
-522
-451
-294
-125
-25
-19
-58
-75
-31
62
148
179
138
75
56
72
57
-22
-111
-120
-51
-1
-37
-92
-29
191
456
637
714
764
847
914
878
729
539
369
225
85
-38
-96
-68
17
113
213
350
539
751
952
1175
1514
1984
2441
2625
2348
1714
1071
677
444
60
-613
-1295
-1555
-1293
-857
-616
-545
-314
185
637
656
266
-112
-179
-92
-203
-595
-982
-1091
-974
-871
-874
-848
-666
-400
-252
-293
-370
-290
-64
110
55
-241
-632
-955
-1159
-1304
-1436
-1515
-1462
-1252
-927
-536
-65
515
1160
1735
2103
2241
2222
2153
2082
2000
1909
1807
1685
1520
1320
1142
1030
958
824
590
343
205
224
320
374
357
350
402
459
424
280
130
88
163
280
372
429
474
493
460
351
167
-61
-287
-449
-513
-528
-593
-733
-853
-835
-683
-533
-482
-461
-297
74
534
901
1109
1241
1406
1600
1707
1627
1384
1104
901
770
626
427
238
160
204
266
258
189
137
129
101
21
-47
-34
43
83
31
-55
-80
-32
12
-13
-83
-133
-134
-111
-82
-35
47
139
207
243
276
326
360
333
254
185
195
294
429
537
611
675
728
744
703
612
521
449
374
291
259
362
592
809
859
749
652
712
853
837
554
161
-77
-72
19
14
-80
-139
-119
-93
-106
-90
20
141
120
-54
-199
-171
-47
-26
-182
-367
-383
-237
-106
-117
-218
-273
-225
-150
-160
-279
-429
-509
-485
-395
-303
-249
-224
-197
-140
-52
51
142
189
184
144
107
101
126
157
165
143
112
93
90
101
136
213
328
431
465
429
390
431
560
710
803
823
801
783
793
817
809
723
561
394
302
298
311
296
290
359
487
576
563
493
454
457
434
355
284
280
295
241
118
27
34
75
37
-91
-212
-249
-228
-201
-174
-135
-139
-289
-598
-918
-1093
-1085
-1007
-975
-981
-926
-759
-481
-152
132
262
211
93
64
123
71
-257
-725
-1002
-943
-786
-876
-1225
-1482
-1362
-988
-740
-819
-1083
-1281
-1347
-1361
-1362
-1308
-1197
-1117
-1117
-1061
-777
-261
296
679
849
938
1046
1163
1224
1167
947
557
89
-271
-353
-157
147
382
542
776
1197
1732
2160
2302
2164
1897
1650
1463
1285
1091
915
788
712
681
716
837
988
1063
993
828
681
595
504
348
143
-47
-223
-453
-752
-1007
-1063
-891
-619
-401
-251
-53
280
695
1042
1222
1262
1265
1300
1339
1294
1102
786
437
166
1
-88
-144
-195
-233
-227
-140
34
218
291
180
-64
-292
-374
-325
-289
-386
-585
-727
-682
-482
-283
-203
-199
-144
13
176
210
115
31
76
210
280
211
76
19
106
281
438
523
545
538
543
585
649
675
619
515
452
466
481
406
266
183
218
284
235
69
-65
-53
21
-41
-295
-568
-644
-507
-352
-345
-444
-469
-327
-95
69
76
-51
-232
-397
-510
-573
-627
-702
-772
-776
-683
-544
-450
-437
-461
-478
-497
-560
-669
-762
-769
-695
-590
-501
-435
-385
-360
-355
-351
-329
-297
-268
-227
-136
4
122
154
134
155
256
348
319
172
36
33
146
271
338
377
443
532
593
613
628
661
685
661
601
572
610
680
721
713
701
727
782
815
783
709
655
670
731
765
710
586
486
494
611
758
858
899
916
933
929
865
731
545
339
139
-31
-143
-179
-139
-48
63
170
258
321
358
364
334
267
192
161
202
264
260
167
68
85
233
383
396
278
176
223
415
632
766
800
768
704
633
575
519
419
228
-25
-235
-319
-290
-227
-173
-98
42
224
384
482
539
576
577
530
474
446
453
462
447
415
375
316
259
241
263
245
122
-35
-48
165
453
561
433
291
366
604
720
536
208
50
188
421
457
235
-34
-120
-34
-7
-224
-609
-932
-1063
-1062
-1083
-1171
-1245
-1241
-1177
-1086
-932
-654
-282
61
300
488
709
949
1093
1075
955
844
766
652
445
195
30
30
154
301
402
453
488
523
547
544
513
461
425
417
434
462
499
568
686
823
913
911
855
831
877
928
894
773
670
686
811
946
1022
1055
1104
1177
1228
1210
1135
1049
983
934
890
846
814
804
814
830
832
801
736
659
592
534
458
343
205
97
58
69
75
28
-71
-179
-239
-240
-228
-253
-313
-361
-358
-330
-340
-427
-546
-621
-644
-672
-759
-887
-983
-998
-960
-929
-925
-940
-969
-1030
-1122
-1197
-1210
-1162
-1102
-1082
-1108
-1142
-1124
-1041
-913
-796
-746
-797
-915
-1017
-1027
-926
-786
-724
-799
-920
-898
-655
-345
-209
-309
-441
-370
-118
42
-67
-301
-380
-221
-34
-29
-155
-171
46
361
568
640
682
749
760
646
487
408
427
460
419
349
365
483
620
698
736
790
860
884
823
697
565
446
383
430
577
727
771
722
703
799
924
927
786
623
553
583
651
735
823
892
935
996
1119
1248
1223
1007
769
685
739
738
561
336
272
410
603
695
676
599
509
418
355
370
441
474
443
426
486
581
606
549
502
561
686
719
574
344
218
306
512
646
607
503
505
677
869
896
737
539
430
394
335
222
142
173
279
356
367
370
443
566
660
678
622
486
229
-114
-423
-565
-548
-544
-649
-755
-730
-619
-591
-719
-877
-946
-1009
-1232
-1605
-1841
-1720
-1371
-1105
-1051
-1017
-745
-220
307
597
622
523
456
472
494
407
167
-112
-262
-236
-177
-258
-464
-609
-574
-421
-312
-314
-352
-357
-363
-402
-434
-424
-393
-392
-411
-403
-364
-349
-389
-393
-245
23
200
133
-90
-249
-236
-215
-403
-794
-1124
-1125
-797
-377
-94
47
186
376
509
458
259
65
-45
-173
-444
-739
-797
-514
-136
-27
-259
-538
-568
-410
-387
-631
-925
-943
-694
-433
-307
-248
-114
32
11
-204
-438
-570
-667
-825
-935
-790
-395
-43
-6
-232
-414
-371
-218
-197
-402
-685
-890
-911
-736
-454
-220
-150
-225
-275
-178
-27
-25
-232
-491
-564
-429
-278
-231
-209
-43
269
495
416
94
-174
-179
-31
-13
-213
-424
-378
-72
215
328
361
466
604
606
447
312
327
385
262
27
29
433
920
1055
808
591
694
900
798
357
-23
9
301
448
308
106
108
296
459
475
390
273
152
86
177
437
660
671
534
482
616
768
718
459
169
-11
-145
-306
-390
-247
68
303
298
174
171
344
503
489
336
198
117
-4
-144
-158
36
246
205
-86
-311
-221
35
112
-83
-282
-228
22
194
193
207
382
581
558
312
112
138
237
148
-134
-334
-261
-45
49
-37
-107
-21
119
131
19
-38
45
154
117
-26
-75
69
281
351
263
180
232
359
397
298
208
280
467
575
495
342
312
447
570
503
260
27
-60
-30
6
-13
-68
-129
-171
-160
-49
141
290
288
149
5
-88
-238
-562
-998
-1327
-1421
-1414
-1545
-1850
-2077
-1970
-1589
-1272
-1257
-1418
-1429
-1134
-695
-359
-206
-97
117
410
635
700
642
564
502
380
119
-229
-455
-384
-77
183
178
6
-42
136
282
53
-545
-1140
-1347
-1142
-802
-557
-393
-136
315
864
1307
1491
1419
1238
1099
1044
980
806
569
407
374
388
365
377
568
965
1430
1827
2168
2504
2697
2503
1858
1032
378
-64
-560
-1281
-1975
-2200
-1827
-1189
-766
-705
-774
-712
-535
-453
-584
-804
-886
-740
-443
-136
103
255
332
337
279
174
41
-98
-217
-302
-359
-420
-528
-662
-752
-763
-727
-683
-578
-270
290
906
1280
1335
1293
1429
1688
1752
1425
903
552
476
411
77
-471
-911
-1021
-898
-804
-866
-979
-968
-783
-513
-280
-138
-56
30
146
275
389
480
586
713
819
866
856
853
896
911
805
604
457
489
628
681
578
455
497
692
849
829
725
730
884
1033
1035
926
835
814
792
710
619
593
629
653
622
567
558
592
614
576
496
467
548
729
944
1138
1291
1425
1529
1550
1442
1211
928
661
424
182
-78
-281
-295
-59
324
624
682
568
494
579
704
661
413
133
19
87
216
316
414
542
621
577
462
420
503
601
576
483
491
667
864
904
798
723
773
822
698
427
219
229
381
469
404
287
267
360
470
507
440
307
173
100
110
165
199
202
224
330
487
584
571
492
418
367
297
189
79
9
-10
13
54
102
148
187
227
266
274
216
99
-34
-147
-245
-327
-357
-326
-285
-296
-336
-301
-155
-2
23
-79
-166
-148
-94
-121
-226
-306
-313
-313
-343
-298
-35
444
953
1316
1551
1780
2058
2317
2447
2386
2147
1790
1424
1149
992
882
727
518
331
206
104
-13
-106
-90
16
80
3
-177
-338
-399
-373
-304
-197
-38
158
369
599
868
1140
1328
1367
1247
1011
723
429
188
51
12
5
-38
-121
-176
-188
-206
-264
-379
-574
-893
-1332
-1751
-1942
-1838
-1626
-1569
-1722
-1882
-1853
-1687
-1601
-1686
-1805
-1779
-1613
-1459
-1396
-1329
-1127
-802
-488
-291
-214
-187
-162
-155
-209
-360
-603
-850
-1001
-1010
-928
-850
-781
-666
-518
-427
-447
-523
-553
-534
-565
-716
-911
-1019
-1001
-944
-930
-917
-778
-447
0
398
624
674
639
609
591
544
445
352
358
508
740
955
1101
1192
1259
1285
1233
1087
889
687
502
321
152
41
37
156
354
553
704
806
898
1015
1158
1275
1292
1153
904
681
604
659
705
638
526
544
764
1042
1167
1074
849
623
428
215
-22
-210
-242
-83
193
458
644
801
1038
1356
1579
1513
1185
854
769
906
1014
918
715
634
780
1021
1158
1127
1019
954
971
1021
1043
1013
950
890
844
812
760
675
581
505
453
425
421
440
481
541
620
691
711
662
599
600
670
702
590
361
162
112
176
223
181
103
76
116
174
213
241
259
223
104
-45
-122
-79
28
104
108
95
149
295
486
639
687
631
541
500
530
565
520
388
255
211
266
341
355
299
235
228
278
330
335
309
301
343
413
450
411
305
162
9
-152
-321
-477
-605
-707
-786
-805
-704
-466
-148
152
383
579
806
1070
1288
1382
1358
1311
1331
1423
1499
1471
1326
1128
957
831
710
560
400
287
256
286
318
308
255
188
140
126
153
212
261
274
273
321
457
624
714
693
639
657
742
773
647
412
237
234
328
355
243
89
38
117
230
269
230
192
205
256
293
277
194
46
-129
-256
-268
-177
-75
-50
-116
-209
-251
-211
-114
7
83
62
-22
-47
58
203
216
57
-96
-82
25
-12
-280
-575
-646
-497
-374
-430
-563
-533
-246
171
522
687
669
553
452
429
435
350
144
-72
-171
-156
-131
-131
-100
14
143
175
96
26
66
178
259
251
188
157
229
375
454
333
54
-121
11
362
620
588
424
441
732
1069
1193
1100
991
1001
1073
1095
1076
1132
1318
1550
1697
1713
1669
1672
1765
1902
1982
1931
1776
1625
1573
1632
1729
1765
1703
1579
1464
1411
1414
1422
1390
1315
1248
1238
1269
1316
1383
1477
1556
1521
1336
1098
940
892
850
718
531
389
324
280
223
197
248
332
360
313
283
352
480
542
489
413
459
669
923
1038
923
640
341
118
-59
-271
-532
-745
-812
-751
-655
-591
-549
-482
-393
-327
-318
-363
-433
-493
-503
-465
-440
-498
-617
-687
-643
-578
-647
-831
-914
-741
-428
-225
-224
-261
-130
110
193
-16
-359
-557
-490
-294
-183
-219
-310
-321
-203
-56
-38
-197
-373
-349
-139
-15
-186
-503
-593
-325
14
52
-213
-466
-501
-407
-414
-538
-641
-689
-803
-1015
-1149
-1067
-882
-809
-849
-735
-292
304
733
898
976
1160
1386
1453
1290
1021
804
636
441
183
-30
-88
41
242
375
401
403
478
621
698
610
461
403
467
507
410
298
406
756
1040
945
548
266
395
758
894
610
160
-47
124
413
502
334
102
60
236
439
422
190
2
120
487
761
652
279
52
234
608
748
529
229
122
149
35
-248
-406
-207
140
229
-47
-341
-274
103
376
310
50
-137
-187
-267
-413
-444
-248
-22
-55
-328
-489
-270
165
383
174
-203
-355
-219
-71
-124
-307
-419
-405
-370
-392
-411
-364
-278
-268
-378
-519
-593
-611
-627
-654
-662
-629
-561
-422
-200
57
183
90
-140
-317
-357
-371
-478
-619
-622
-401
-95
106
168
240
420
612
637
466
249
136
142
145
31
-221
-498
-661
-632
-461
-319
-373
-559
-599
-321
99
261
29
-292
-311
-14
246
220
26
-43
76
196
179
91
54
62
47
-11
-55
-67
-81
-70
35
236
360
227
-126
-463
-600
-492
-278
-139
-129
-204
-273
-195
69
366
440
185
-219
-428
-287
49
254
191
32
26
222
430
433
220
-42
-217
-303
-373
-453
-512
-534
-529
-473
-320
-96
23
-85
-313
-440
-371
-264
-345
-596
-750
-627
-321
-12
215
408
571
629
557
451
405
359
192
-48
-136
35
315
484
532
622
777
833
681
468
398
440
372
149
-4
116
378
503
440
409
534
633
487
185
33
165
328
246
-51
-289
-329
-321
-457
-727
-983
-1142
-1247
-1322
-1306
-1144
-905
-701
-559
-359
-34
360
713
939
1050
1106
1149
1184
1184
1118
981
811
665
587
581
601
604
575
523
450
356
269
225
243
304
338
318
293
337
471
613
649
536
370
271
267
251
152
32
13
132
268
276
186
168
332
555
601
383
66
-113
-106
-72
-187
-448
-684
-751
-662
-521
-408
-341
-314
-303
-294
-250
-184
-177
-282
-454
-540
-456
-288
-226
-347
-513
-508
-282
-46
-52
-310
-572
-590
-393
-238
-333
-624
-869
-905
-779
-669
-697
-825
-927
-912
-792
-672
-652
-732
-819
-823
-728
-636
-626
-679
-711
-681
-640
-657
-721
-759
-731
-669
-605
-525
-392
-233
-128
-128
-183
-214
-208
-245
-399
-652
-875
-940
-816
-591
-399
-313
-275
-160
97
427
656
646
425
168
82
203
381
416
270
102
86
226
366
377
291
212
164
104
4
-112
-196
-265
-312
-270
-99
137
321
424
536
727
912
947
797
574
403
323
327
411
545
634
604
526
570
784
984
925
583
204
47
133
260
245
111
30
114
322
529
623
610
559
519
498
488
477
462
435
388
342
334
381
460
547
648
798
997
1160
1171
1006
777
657
708
830
863
788
751
897
1172
1367
1339
1164
1040
1053
1103
1069
953
849
818
849
936
1092
1311
1501
1524
1340
1047
783
603
458
265
-9
-301
-451
-342
-33
242
283
131
30
150
396
528
431
233
133
184
274
293
245
204
212
258
309
339
335
287
187
46
-96
-170
-144
-100
-207
-542
-949
-1143
-999
-681
-443
-346
-198
171
678
1082
1261
1303
1340
1380
1318
1132
926
812
790
770
699
625
617
679
740
749
729
732
775
811
797
765
786
895
1044
1137
1126
1048
964
900
842
784
758
788
847
872
838
790
793
866
963
1033
1071
1113
1191
1284
1339
1318
1218
1056
872
700
559
439
331
249
232
284
352
385
407
479
599
661
560
333
143
106
167
173
63
-73
-118
-58
13
19
-36
-122
-210
-278
-297
-267
-249
-308
-431
-531
-542
-501
-499
-543
-566
-533
-491
-508
-556
-536
-418
-299
-277
-321
-293
-140
24
50
-63
-159
-127
-30
-20
-132
-244
-227
-93
36
92
113
172
288
410
493
537
551
542
533
558
641
740
790
793
804
872
964
1008
985
953
974
1030
1048
982
874
804
800
814
778
684
595
577
633
707
721
647
532
467
496
562
547
400
215
162
270
349
143
-402
-1098
-1708
-2156
-2474
-2620
-2445
-1859
-990
-86
705
1418
2113
2703
2976
2807
2281
1626
1050
642
390
244
157
84
21
13
77
164
169
13
-260
-508
-616
-597
-530
-485
-474
-509
-625
-831
-1056
-1188
-1202
-1179
-1204
-1259
-1254
-1179
-1132
-1205
-1368
-1512
-1582
-1593
-1539
-1355
-998
-551
-144
178
497
882
1255
1459
1402
1145
846
630
532
531
597
707
870
1108
1408
1687
1831
1792
1645
1496
1364
1187
940
715
638
730
875
931
834
624
381
175
65
63
115
156
180
266
468
697
786
674
480
352
251
-34
-606
-1246
-1572
-1415
-985
-637
-482
-300
170
904
1609
2003
2045
1894
1708
1528
1320
1071
796
516
235
-20
-183
-199
-95
43
128
132
92
42
-24
-142
-302
-432
-474
-452
-455
-530
-608
-571
-402
-218
-118
-84
-56
-39
-105
-246
-331
-260
-114
-56
-96
-42
235
598
768
660
480
466
595
659
549
386
345
436
542
581
590
609
618
588
550
554
589
594
540
483
470
478
442
359
271
201
123
11
-104
-157
-140
-110
-116
-134
-102
-16
49
30
-44
-61
30
141
159
59
-59
-102
-79
-77
-141
-229
-291
-323
-326
-259
-95
104
211
186
131
177
305
367
273
99
-5
8
50
40
-5
-5
57
127
157
161
180
233
306
385
482
574
621
603
562
568
619
633
544
398
327
403
554
651
655
635
665
732
756
705
622
568
556
568
596
640
675
663
594
506
442
402
348
267
191
163
212
330
477
596
638
596
508
428
374
310
208
85
-7
-24
39
151
265
336
340
296
246
230
253
280
276
243
219
250
343
449
493
449
363
311
320
327
256
107
-41
-109
-100
-80
-81
-66
8
116
185
194
210
299
418
445
313
74
-141
-262
-300
-286
-224
-117
40
240
479
728
895
906
767
565
379
234
164
216
369
495
473
362
368
584
841
875
621
311
177
234
328
374
428
549
689
743
698
627
605
617
591
493
354
234
169
121
-14
-260
-525
-666
-668
-690
-849
-1054
-1082
-848
-518
-289
-139
88
428
735
901
1033
1283
1601
1744
1583
1279
1101
1113
1149
1062
888
743
649
552
449
406
456
521
483
328
171
125
224
429
672
884
1006
1039
1043
1071
1099
1057
901
681
498
401
395
496
735
1100
1479
1728
1794
1752
1707
1653
1485
1138
693
327
166
187
277
365
454
565
659
678
621
554
514
458
336
195
149
213
263
193
69
35
99
78
-152
-463
-604
-488
-306
-268
-341
-319
-120
94
109
-80
-275
-321
-277
-341
-595
-884
-998
-901
-769
-761
-852
-886
-790
-673
-665
-754
-813
-805
-815
-910
-1025
-1032
-921
-817
-814
-840
-767
-608
-520
-580
-674
-626
-445
-317
-401
-609
-695
-537
-262
-90
-75
-94
-23
112
198
201
167
130
60
-58
-126
-46
115
148
-41
-281
-296
-4
362
530
457
368
476
736
905
810
540
358
400
548
564
386
212
270
561
846
931
843
753
742
756
713
603
475
367
309
362
534
727
800
748
704
767
872
886
800
717
697
686
628
575
611
696
724
694
719
857
992
998
953
1012
1158
1181
943
619
521
730
994
1049
918
824
914
1128
1313
1402
1410
1350
1230
1101
1033
1033
1015
913
772
682
682
740
808
873
930
971
990
1009
1018
972
870
772
779
893
977
932
830
831
981
1167
1248
1200
1099
1004
923
854
843
932
1065
1146
1106
961
814
789
880
932
790
489
261
290
450
430
124
-194
-193
57
147
-155
-560
-567
-99
390
440
141
16
395
1031
1418
1361
1131
1091
1271
1403
1315
1091
929
840
680
431
261
283
394
374
193
52
125
328
443
368
217
154
187
216
162
41
-65
-99
-46
51
130
158
166
202
248
197
9
-235
-408
-485
-514
-550
-548
-446
-280
-136
-45
38
125
157
105
-9
-105
-140
-119
-70
-24
-27
-108
-191
-169
-49
29
-57
-243
-336
-237
-54
16
-80
-224
-292
-272
-235
-201
-149
-95
-90
-136
-167
-138
-98
-136
-278
-458
-565
-569
-523
-501
-543
-603
-589
-483
-401
-487
-702
-826
-709
-484
-439
-652
-865
-794
-504
-327
-451
-716
-838
-761
-675
-711
-780
-735
-571
-397
-239
-33
276
583
745
736
670
663
740
832
856
790
696
691
875
1216
1552
1709
1626
1404
1198
1081
1013
907
713
485
310
260
364
583
828
1014
1063
974
844
775
812
888
908
814
665
587
661
838
959
900
720
608
671
795
775
583
438
552
828
941
710
333
172
334
560
551
304
86
112
327
521
552
460
370
347
356
355
334
314
315
325
326
328
363
440
506
484
368
255
241
307
341
259
112
23
45
112
126
78
57
131
278
422
524
571
539
374
76
-215
-345
-315
-291
-425
-640
-683
-398
76
424
465
297
153
136
169
144
65
13
30
77
108
147
217
271
248
139
15
-66
-123
-187
-232
-192
-83
-13
-67
-167
-160
-35
42
-80
-352
-587
-670
-683
-773
-979
-1235
-1479
-1688
-1826
-1810
-1628
-1402
-1285
-1266
-1166
-823
-295
165
353
291
185
210
344
427
341
123
-88
-198
-224
-222
-206
-158
-79
-12
6
-17
-39
-38
-45
-83
-153
-235
-308
-352
-362
-348
-334
-337
-344
-328
-285
-225
-148
-31
140
372
669
1032
1424
1726
1777
1490
954
380
-74
-442
-882
-1454
-1974
-2140
-1851
-1365
-1064
-1054
-1090
-898
-551
-367
-505
-745
-776
-558
-332
-260
-224
-47
223
350
233
36
-39
16
35
-46
-71
133
528
894
1053
1005
873
747
639
520
366
167
-65
-280
-391
-343
-180
-1
127
217
297
365
378
319
214
94
-31
-162
-264
-290
-231
-129
-41
19
62
102
157
247
383
548
700
821
927
1037
1137
1203
1253
1324
1417
1477
1454
1368
1302
1319
1421
1543
1613
1610
1569
1560
1633
1775
1927
2032
2070
2032
1906
1681
1395
1112
873
663
429
154
-109
-261
-244
-96
66
133
81
-7
-51
-31
9
11
-30
-63
-44
29
117
168
166
153
176
224
230
137
-24
-145
-146
-54
37
53
10
-35
-30
55
203
350
404
321
160
44
38
102
171
228
307
433
563
619
591
525
468
410
311
151
-21
-111
-82
26
128
164
163
177
227
260
220
116
26
13
65
126
163
196
271
380
461
450
341
205
118
92
96
87
76
112
216
348
454
530
621
731
796
760
647
557
546
558
520
424
340
310
295
250
198
187
205
187
96
-19
-95
-151
-240
-374
-504
-603
-711
-855
-979
-998
-896
-754
-646
-548
-370
-76
285
628
904
1114
1265
1368
1436
1470
1451
1355
1198
1037
912
819
723
611
509
442
412
406
417
428
409
348
275
241
253
245
160
27
-71
-93
-93
-145
-236
-268
-198
-111
-120
-224
-304
-280
-223
-266
-444
-633
-684
-587
-460
-405
-413
-420
-405
-410
-453
-480
-440
-395
-529
-974
-1623
-2138
-2222
-1910
-1542
-1435
-1546
-1525
-1110
-423
154
367
296
198
220
298
316
258
179
129
103
99
122
143
115
19
-83
-128
-133
-188
-341
-529
-654
-695
-734
-845
-1014
-1170
-1272
-1316
-1309
-1260
-1217
-1282
-1531
-1925
-2304
-2499
-2443
-2175
-1773
-1292
-751
-170
412
941
1350
1571
1565
1366
1084
849
737
723
742
759
807
929
1111
1281
1360
1346
1293
1242
1194
1140
1099
1092
1101
1070
987
887
815
769
714
645
592
580
590
575
506
380
219
79
-1
9
95
196
249
233
188
171
191
178
57
-140
-273
-229
-78
-22
-165
-379
-420
-227
-7
-8
-226
-418
-378
-144
78
154
119
73
50
17
-34
-66
-64
-57
-94
-140
-116
7
177
292
285
194
105
55
13
-68
-164
-201
-145
-39
41
80
136
245
362
417
396
365
380
414
391
302
218
212
281
367
434
495
560
615
639
642
644
647
637
613
593
593
608
630
664
705
728
712
681
676
698
698
646
572
536
547
546
475
348
244
224
276
331
335
284
218
168
132
78
-13
-125
-233
-320
-389
-433
-420
-319
-139
66
238
365
498
698
975
1259
1448
1490
1435
1388
1406
1432
1368
1187
971
823
766
739
695
659
674
725
747
697
601
516
467
451
462
497
528
519
467
414
407
439
456
416
319
197
91
42
78
166
217
159
26
-57
-12
112
197
195
164
173
218
236
184
76
-62
-217
-371
-469
-457
-348
-223
-144
-95
-15
117
234
236
98
-102
-248
-286
-238
-166
-103
-42
14
43
36
12
-36
-172
-439
-772
-1007
-1050
-1008
-1081
-1313
-1500
-1426
-1121
-833
-734
-737
-637
-393
-162
-77
-83
-58
3
-27
-214
-435
-547
-541
-505
-497
-471
-390
-290
-219
-149
-28
102
138
60
3
105
349
586
685
660
582
501
472
548
708
797
680
433
318
469
668
603
276
27
92
287
255
-79
-414
-482
-376
-368
-521
-626
-519
-305
-209
-267
-284
-94
242
512
587
525
456
470
517
478
293
13
-200
-222
-70
132
297
427
539
627
669
692
766
884
920
780
522
335
364
603
917
1150
1240
1226
1201
1226
1288
1330
1311
1233
1114
975
861
855
1006
1227
1344
1273
1134
1149
1380
1652
1725
1548
1282
1106
1054
1037
982
910
890
944
1010
1027
991
972
1033
1166
1267
1241
1120
1028
1058
1135
1138
1065
1036
1124
1225
1166
937
737
726
824
794
549
259
141
180
187
62
-71
-53
83
132
-11
-236
-358
-349
-313
-357
-470
-604
-743
-869
-900
-800
-689
-743
-1035
-1419
-1664
-1673
-1544
-1448
-1470
-1556
-1558
-1346
-908
-386
-25
63
22
100
390
695
742
476
124
-85
-136
-182
-311
-451
-493
-434
-327
-207
-57
73
67
-138
-424
-579
-558
-514
-598
-773
-842
-678
-353
-48
137
214
208
134
38
7
70
128
69
-78
-153
-43
185
327
274
129
69
123
180
136
42
43
177
311
280
59
-221
-384
-342
-124
122
217
110
-43
14
361
759
869
593
187
-55
-97
-103
-169
-196
-71
121
205
139
53
64
119
75
-119
-349
-493
-494
-348
-108
134
266
234
92
-20
-6
92
150
85
-61
-157
-105
61
195
227
218
295
463
614
641
582
552
614
686
674
592
531
537
559
512
352
130
-24
20
260
527
606
485
425
705
1267
1701
1657
1224
828
751
865
860
663
481
525
721
880
960
1111
1402
1671
1681
1409
1060
853
795
728
550
305
113
45
80
142
161
123
81
123
293
516
651
601
443
346
371
391
230
-113
-409
-428
-192
51
111
50
51
194
365
412
323
212
165
166
151
94
14
-36
-12
93
236
327
310
233
182
196
222
166
10
-168
-247
-163
31
191
180
5
-170
-162
36
238
265
103
-83
-104
69
309
481
552
595
687
808
863
829
761
691
597
456
313
267
313
311
194
87
170
420
585
468
203
107
276
456
342
-17
-253
-140
170
332
215
28
30
215
312
108
-324
-690
-771
-640
-546
-657
-899
-1023
-888
-596
-361
-265
-208
-72
146
359
544
775
1079
1336
1390
1221
988
854
811
740
548
282
66
-30
-2
100
213
275
252
181
130
127
156
162
122
40
-52
-111
-119
-99
-101
-147
-218
-272
-284
-258
-196
-110
-39
-15
-24
-2
90
191
189
64
-75
-87
7
82
60
-27
-97
-144
-195
-202
-88
113
203
53
-164
-133
219
582
599
300
67
147
352
334
46
-205
-178
-5
10
-226
-480
-494
-313
-205
-315
-503
-535
-349
-126
-63
-176
-297
-280
-157
-99
-191
-335
-350
-217
-89
-117
-287
-434
-451
-400
-410
-513
-612
-601
-469
-324
-254
-266
-283
-236
-146
-108
-201
-397
-560
-578
-474
-348
-270
-209
-112
4
56
-5
-125
-207
-218
-216
-269
-374
-445
-410
-274
-114
-7
12
-32
-79
-76
-23
26
-2
-110
-234
-283
-226
-124
-63
-67
-102
-116
-97
-56
-2
64
123
136
83
5
-35
-20
-5
-55
-178
-306
-371
-365
-322
-266
-199
-136
-117
-155
-185
-126
9
92
15
-184
-345
-359
-277
-231
-264
-276
-136
180
563
867
991
940
792
623
458
241
-98
-535
-940
-1166
-1196
-1125
-1073
-1069
-1053
-991
-914
-864
-839
-784
-661
-512
-421
-419
-455
-431
-290
-77
102
214
359
661
1097
1450
1462
1082
509
45
-225
-462
-849
-1354
-1716
-1686
-1260
-704
-310
-158
-146
-122
-57
-24
-69
-158
-234
-277
-291
-242
-57
256
531
560
330
70
24
160
181
-118
-576
-844
-804
-722
-927
-1377
-1692
-1567
-1114
-710
-529
-380
4
581
1059
1234
1200
1211
1341
1423
1286
976
699
589
618
712
863
1093
1321
1405
1288
1069
885
765
629
418
175
-7
-92
-91
-3
178
384
485
410
237
133
181
296
339
259
144
115
216
387
533
599
600
580
566
553
523
480
451
433
403
344
280
250
267
314
374
470
603
713
725
618
470
387
403
455
458
401
328
282
280
298
298
253
146
-4
-155
-255
-270
-213
-140
-125
-208
-337
-393
-310
-159
-92
-186
-341
-397
-305
-166
-89
-104
-159
-219
-284
-321
-288
-174
-48
0
-45
-103
-86
6
88
85
7
-77
-96
-43
34
93
131
159
167
134
67
8
-10
2
2
-26
-42
7
128
272
366
383
355
324
297
250
167
94
104
223
387
509
550
572
648
771
860
840
716
566
472
464
510
548
543
514
503
544
619
685
708
686
640
596
584
615
664
682
639
552
474
445
453
452
411
344
296
301
338
356
312
225
146
107
90
55
-14
-86
-129
-135
-132
-145
-170
-191
-200
-220
-284
-413
-596
-807
-1009
-1161
-1224
-1175
-1031
-834
-616
-394
-174
26
171
240
249
232
212
168
88
9
-8
48
112
115
55
-11
-57
-114
-213
-304
-306
-215
-132
-151
-228
-229
-93
77
117
-37
-282
-470
-530
-496
-451
-467
-552
-652
-679
-608
-504
-481
-573
-700
-750
-701
-629
-608
-627
-619
-538
-388
-190
41
305
593
895
1203
1505
1780
2003
2162
2255
2271
2179
1977
1717
1489
1346
1269
1211
1153
1118
1114
1106
1055
975
910
870
815
704
568
496
547
676
779
796
740
653
556
453
359
305
280
247
200
200
301
464
597
644
646
667
700
671
557
429
381
424
486
506
494
485
500
523
535
532
514
480
431
374
318
281
271
283
289
256
203
178
198
222
189
115
67
74
86
44
-19
-19
41
47
-78
-250
-295
-160
18
47
-101
-267
-287
-175
-83
-119
-243
-332
-322
-260
-224
-222
-183
-57
122
269
347
391
444
478
421
262
81
-49
-143
-267
-422
-504
-424
-224
-39
56
107
193
316
402
415
398
397
398
364
304
271
294
331
330
305
323
413
507
513
430
368
418
540
600
519
371
303
370
484
536
527
546
627
689
642
509
423
467
582
643
614
573
610
722
831
871
837
775
711
646
586
551
553
579
592
585
583
613
665
688
654
582
521
494
473
425
356
314
335
401
450
435
370
311
304
340
366
341
287
279
365
505
598
582
500
453
490
536
469
256
-4
-169
-191
-144
-142
-220
-300
-286
-153
34
186
265
283
268
243
228
235
251
242
182
106
81
137
229
290
295
266
228
169
70
-39
-115
-151
-185
-250
-326
-366
-380
-438
-597
-828
-1051
-1197
-1275
-1360
-1510
-1700
-1829
-1754
-1430
-1004
-692
-554
-416
-69
449
859
966
895
890
1000
1007
752
410
294
460
624
481
75
-249
-224
98
417
457
192
-167
-352
-266
-94
-128
-469
-877
-1028
-898
-698
-597
-559
-472
-380
-420
-559
-581
-396
-195
-235
-498
-675
-567
-304
-167
-266
-452
-543
-516
-455
-413
-368
-301
-230
-175
-117
-51
-5
-14
-97
-219
-362
-509
-617
-641
-540
-369
-236
-187
-182
-158
-89
-3
47
60
80
126
149
85
-50
-171
-220
-224
-256
-329
-366
-278
-62
189
385
496
549
561
512
388
230
108
69
85
102
119
208
423
729
1008
1166
1205
1178
1111
972
788
664
670
742
728
598
513
626
886
1058
1001
840
811
968
1135
1124
940
756
705
757
804
778
670
513
354
259
253
273
210
48
-116
-167
-98
-12
-5
-80
-164
-213
-220
-196
-164
-159
-204
-285
-334
-323
-288
-269
-254
-212
-144
-97
-107
-160
-202
-212
-212
-221
-244
-266
-267
-238
-184
-132
-111
-98
-51
42
125
131
77
48
88
121
52
-110
-239
-223
-82
67
137
135
120
140
199
258
267
184
22
-142
-209
-158
-51
38
83
127
220
350
470
537
558
582
645
732
804
845
883
970
1112
1242
1285
1211
1068
953
922
950
967
935
897
925
1022
1091
1050
946
882
899
913
831
692
645
761
936
1017
971
920
954
1010
959
754
476
222
7
-210
-436
-624
-747
-788
-733
-558
-307
-79
51
120
296
687
1216
1659
1812
1701
1543
1550
1714
1822
1668
1277
911
780
826
837
700
590
723
1047
1229
1047
715
641
925
1231
1147
742
462
572
833
824
510
287
429
734
804
532
253
305
640
931
983
855
683
567
542
648
852
964
851
643
572
720
886
886
760
673
649
521
234
-37
-133
-48
43
63
130
341
624
821
868
830
752
602
341
12
-334
-616
-696
-501
-117
197
243
158
212
464
659
535
172
-69
13
229
222
-73
-362
-368
-81
241
340
189
-103
-357
-410
-230
50
191
54
-208
-296
-110
143
213
70
-31
61
200
165
-38
-166
-58
145
190
-6
-240
-262
17
439
736
737
480
209
168
386
610
555
239
-46
-86
27
21
-163
-295
-193
65
219
154
34
54
187
242
109
-75
-82
118
333
376
267
182
227
326
289
86
-144
-226
-144
-61
-85
-134
-27
296
651
815
736
558
459
454
420
253
-34
-276
-321
-155
68
140
-1
-187
-191
11
189
121
-134
-293
-224
-67
-49
-188
-295
-252
-166
-197
-321
-390
-345
-276
-268
-286
-247
-154
-102
-150
-244
-306
-319
-307
-304
-321
-336
-288
-123
148
386
441
300
127
110
250
353
234
-94
-402
-467
-271
-9
66
-100
-314
-343
-191
-103
-290
-670
-965
-1010
-927
-920
-1006
-1025
-912
-799
-821
-987
-1175
-1327
-1477
-1660
-1837
-1994
-2159
-2298
-2281
-2019
-1643
-1414
-1424
-1483
-1339
-981
-649
-530
-565
-555
-411
-245
-203
-306
-470
-609
-710
-807
-914
-1007
-1046
-1010
-922
-838
-794
-797
-810
-832
-881
-971
-1058
-1088
-1063
-1045
-1088
-1163
-1187
-1130
-1057
-1073
-1188
-1313
-1347
-1277
-1176
-1117
-1099
-1071
-1006
-913
-828
-780
-794
-864
-948
-1007
-1018
-1024
-1069
-1125
-1123
-1044
-956
-927
-955
-994
-1020
-1054
-1119
-1188
-1226
-1249
-1286
-1319
-1284
-1157
-1006
-938
-958
-968
-907
-807
-754
-803
-933
-1067
-1146
-1147
-1110
-1090
-1097
-1056
-883
-617
-437
-491
-693
-790
-664
-479
-509
-800
-1090
-1109
-876
-656
-636
-738
-729
-516
-246
-135
-227
-378
-432
-385
-374
-486
-665
-765
-709
-542
-375
-262
-194
-163
-179
-207
-187
-103
-58
-158
-335
-401
-247
4
114
30
-50
57
272
331
153
-26
114
615
1201
1573
1707
1793
1939
2019
1831
1361
819
409
148
-62
-239
-259
-14
403
777
990
1095
1201
1294
1288
1175
1049
983
951
894
843
888
1032
1166
1203
1179
1183
1215
1209
1163
1171
1306
1499
1600
1574
1517
1527
1590
1625
1612
1584
1570
1558
1529
1504
1509
1540
1558
1538
1481
1415
1374
1374
1399
1401
1340
1243
1177
1161
1158
1126
1072
1048
1076
1120
1143
1150
1154
1135
1059
937
822
739
657
543
427
362
367
409
449
499
564
607
583
520
502
567
645
623
488
352
343
465
599
624
526
389
292
238
179
84
-27
-121
-191
-252
-296
-295
-226
-107
24
152
299
503
764
1047
1303
1508
1654
1740
1778
1786
1757
1659
1472
1229
1009
867
796
740
675
623
619
685
781
841
833
785
765
811
868
839
714
613
653
800
878
761
524
362
374
466
488
397
281
238
280
360
437
500
542
545
509
459
421
392
363
326
283
237
186
146
139
155
174
174
151
109
67
46
60
99
130
127
98
74
58
25
-40
-115
-163
-184
-201
-219
-215
-186
-177
-237
-345
-423
-437
-443
-512
-619
-667
-603
-485
-435
-494
-588
-616
-564
-517
-551
-643
-714
-710
-675
-658
-641
-574
-464
-400
-426
-468
-401
-219
-74
-78
-147
-94
137
388
465
349
183
79
19
-55
-151
-233
-289
-326
-330
-257
-135
-67
-128
-294
-494
-712
-985
-1269
-1435
-1388
-1172
-916
-670
-385
-9
382
655
736
645
460
246
58
-38
-19
55
86
33
-67
-164
-262
-397
-574
-765
-957
-1153
-1316
-1368
-1264
-1073
-925
-868
-835
-741
-610
-544
-576
-606
-528
-352
-193
-121
-91
-10
134
261
314
311
296
264
186
76
11
33
91
90
15
-30
60
278
494
592
584
543
530
544
569
606
654
677
640
572
555
607
662
660
602
547
501
425
306
203
171
167
100
-43
-149
-109
48
181
191
117
65
81
98
33
-111
-248
-287
-241
-184
-187
-254
-331
-371
-390
-442
-563
-736
-909
-1023
-1033
-943
-780
-593
-414
-228
3
302
648
986
1270
1469
1581
1634
1668
1710
1738
1676
1511
1312
1190
1171
1155
1050
892
786
761
730
632
533
536
628
689
656
606
621
637
541
349
231
295
416
395
243
189
373
639
701
505
317
386
651
823
734
533
456
539
593
460
203
8
-59
-76
-110
-98
51
294
470
482
421
433
529
563
430
184
-26
-129
-169
-195
-172
-50
136
300
399
467
538
545
391
86
-241
-460
-573
-683
-857
-1035
-1097
-974
-687
-328
-29
91
7
-168
-278
-273
-251
-330
-504
-640
-632
-503
-345
-208
-93
-8
10
-38
-74
-2
170
333
392
357
326
355
415
452
456
463
491
507
476
404
349
357
415
476
514
537
561
596
632
651
630
572
505
464
456
429
344
239
212
312
476
584
585
546
554
598
593
485
314
174
109
96
96
102
122
154
191
217
203
114
-32
-139
-124
-30
-33
-233
-480
-515
-287
-39
-43
-265
-405
-252
94
370
470
485
502
460
280
52
-40
57
192
217
193
322
687
1139
1423
1386
1054
551
26
-405
-694
-859
-960
-1004
-938
-672
-177
429
935
1168
1081
789
497
355
358
373
286
130
66
163
247
39
-524
-1093
-1156
-564
266
718
598
324
452
1066
1687
1776
1285
647
304
334
483
519
398
197
-47
-318
-550
-653
-631
-608
-692
-863
-955
-816
-470
-83
188
304
367
475
620
723
749
779
950
1277
1611
1756
1660
1452
1303
1277
1336
1415
1484
1515
1458
1308
1148
1076
1086
1078
982
861
838
937
1065
1119
1117
1129
1152
1112
978
830
778
815
834
780
695
623
520
305
58
-7
212
540
674
533
377
530
985
1366
1304
822
306
97
170
232
82
-187
-343
-309
-222
-231
-300
-312
-276
-337
-553
-768
-767
-564
-428
-552
-823
-980
-953
-976
-1256
-1642
-1769
-1492
-1103
-1017
-1269
-1482
-1332
-952
-770
-971
-1266
-1272
-1008
-846
-1041
-1401
-1485
-1122
-596
-335
-517
-937
-1175
-964
-411
67
54
-428
-879
-810
-284
109
-93
-681
-994
-630
85
517
436
184
209
524
763
629
213
-152
-269
-215
-161
-138
-51
163
427
599
649
684
807
980
1064
926
627
365
279
365
471
431
240
28
-59
32
209
383
519
629
700
699
645
618
673
755
737
592
463
519
751
965
969
857
913
1276
1719
1839
1503
997
725
766
858
745
486
351
471
706
861
909
977
1147
1295
1232
870
354
-16
-35
226
483
519
415
435
717
1074
1199
1023
740
492
251
-19
-160
44
504
859
886
772
825
1024
1007
603
113
11
329
611
505
201
206
706
1313
1471
1033
358
-90
-144
-27
-80
-459
-986
-1303
-1198
-793
-452
-424
-636
-827
-860
-845
-959
-1244
-1596
-1929
-2212
-2412
-2462
-2353
-2191
-2123
-2145
-2109
-1878
-1470
-1051
-775
-671
-699
-821
-1000
-1174
-1281
-1318
-1375
-1545
-1810
-2028
-2069
-1953
-1830
-1846
-1985
-2088
-2044
-1912
-1853
-1953
-2094
-2084
-1875
-1618
-1509
-1587
-1708
-1727
-1666
-1649
-1751
-1904
-1975
-1924
-1811
-1719
-1671
-1653
-1648
-1658
-1690
-1733
-1786
-1839
-1870
-1868
-1845
-1829
-1844
-1889
-1933
-1939
-1904
-1867
-1862
-1896
-1914
-1885
-1839
-1820
-1833
-1839
-1811
-1780
-1782
-1799
-1790
-1765
-1792
-1885
-1931
-1835
-1641
-1525
-1575
-1673
-1636
-1437
-1250
-1255
-1421
-1555
-1529
-1400
-1342
-1437
-1596
-1671
-1588
-1392
-1183
-1062
-1052
-1098
-1091
-961
-762
-648
-704
-839
-850
-644
-353
-205
-277
-403
-392
-249
-130
-166
-306
-398
-366
-258
-162
-109
-36
103
282
451
564
609
604
556
493
462
487
537
548
498
467
546
710
808
724
516
372
410
549
610
530
404
350
379
436
496
595
725
802
760
682
723
920
1098
1041
756
465
365
430
452
314
111
26
113
261
345
369
409
478
509
462
376
342
356
327
208
73
47
150
287
322
218
82
50
162
331
438
439
402
410
470
515
496
457
473
507
448
270
95
70
185
284
242
110
47
143
328
462
484
429
386
421
507
566
537
479
490
601
724
736
646
576
605
661
633
503
379
350
379
382
331
266
232
230
230
235
233
201
116
9
-87
-196
-364
-594
-820
-984
-1118
-1279
-1452
-1520
-1409
-1195
-1047
-1029
-1001
-778
-359
49
245
250
264
404
577
606
457
280
203
179
76
-126
-290
-304
-236
-229
-300
-330
-247
-161
-236
-469
-658
-643
-502
-458
-608
-815
-880
-760
-603
-571
-683
-847
-963
-991
-941
-827
-669
-510
-388
-284
-144
64
266
324
176
-96
-348
-500
-590
-680
-753
-744
-632
-484
-376
-313
-253
-203
-233
-367
-528
-616
-607
-554
-525
-517
-489
-433
-358
-282
-234
-242
-302
-360
-373
-367
-403
-459
-418
-202
81
225
166
68
109
244
254
5
-383
-668
-739
-673
-580
-482
-347
-168
17
168
260
267
168
3
-165
-296
-388
-446
-423
-266
-11
249
427
541
703
977
1326
1628
1761
1732
1669
1705
1840
1921
1796
1488
1189
1097
1250
1548
1886
2226
2558
2826
2924
2793
2471
2074
1720
1458
1253
1049
818
631
594
746
984
1129
1044
757
443
293
368
560
698
719
721
835
1074
1325
1477
1527
1535
1530
1497
1457
1483
1613
1782
1869
1844
1783
1727
1625
1424
1181
1031
1038
1104
1088
970
853
804
780
710
625
632
784
987
1124
1197
1318
1570
1870
2026
1913
1586
1216
950
807
702
563
411
343
434
664
942
1176
1318
1362
1323
1248
1201
1221
1286
1333
1338
1347
1455
1717
2093
2476
2744
2819
2703
2449
2106
1710
1272
796
280
-270
-783
-1104
-1116
-886
-644
-558
-588
-545
-359
-193
-259
-558
-861
-970
-902
-822
-828
-820
-651
-308
69
328
493
688
996
1345
1577
1642
1651
1712
1774
1672
1334
907
620
563
619
609
479
318
246
300
422
527
561
516
432
377
399
485
576
615
591
561
570
610
632
618
645
784
979
1058
926
725
715
972
1259
1261
951
629
585
798
992
966
803
708
739
759
657
469
323
253
204
143
99
124
190
228
238
276
371
439
378
255
226
343
452
403
253
144
144
182
183
212
338
476
455
244
29
-19
84
160
176
229
299
188
-214
-692
-924
-916
-1041
-1557
-2167
-2258
-1654
-859
-533
-766
-1030
-806
-170
366
420
80
-277
-358
-78
403
782
835
534
92
-154
-67
128
54
-377
-856
-955
-619
-190
46
134
340
731
1009
838
268
-241
-330
-144
-129
-537
-1120
-1422
-1258
-862
-579
-525
-579
-614
-613
-622
-645
-670
-711
-812
-946
-973
-806
-530
-317
-268
-336
-418
-478
-562
-676
-760
-785
-769
-727
-613
-414
-238
-244
-428
-606
-633
-577
-587
-658
-639
-471
-318
-346
-490
-539
-432
-350
-484
-778
-1005
-1053
-1018
-1021
-1042
-973
-796
-612
-503
-451
-394
-325
-259
-196
-105
-13
32
40
86
201
328
398
420
474
604
739
766
657
504
422
419
386
237
12
-128
-74
120
277
299
274
323
438
489
413
296
263
315
369
346
231
78
6
-15
-14
-47
-180
-335
-404
-324
-100
159
432
672
893
1154
1426
1629
1707
1745
1881
2165
2391
2320
2045
1968
2350
2904
3103
2713
2061
1584
1344
1018
423
-282
-847
-1201
-1465
-1685
-1509
-752
307
1102
1173
806
681
1108
1729
1798
1180
483
288
606
924
822
521
502
810
1058
901
389
-101
-296
-273
-331
-591
-855
-765
-275
221
245
-209
-615
-557
-300
-432
-1117
-1809
-1880
-1371
-827
-647
-605
-356
-6
58
-224
-483
-394
-198
-447
-1213
-2017
-2330
-2094
-1729
-1587
-1615
-1592
-1463
-1392
-1515
-1709
-1755
-1651
-1617
-1843
-2237
-2497
-2410
-2141
-1940
-1882
-1815
-1518
-1103
-961
-1275
-1743
-1916
-1718
-1599
-1954
-2558
-2702
-2007
-929
-338
-613
-1290
-1641
-1464
-1178
-1248
-1648
-1979
-1997
-1804
-1599
-1442
-1260
-1060
-993
-1127
-1311
-1340
-1207
-1082
-1122
-1271
-1354
-1300
-1153
-992
-864
-793
-790
-871
-1015
-1147
-1185
-1115
-1006
-957
-1002
-1082
-1099
-1030
-956
-965
-1035
-1033
-911
-801
-884
-1146
-1352
-1339
-1217
-1237
-1462
-1676
-1660
-1458
-1277
-1210
-1160
-1041
-926
-929
-1014
-1042
-1013
-1064
-1269
-1493
-1545
-1398
-1216
-1129
-1092
-1001
-841
-701
-618
-576
-567
-611
-711
-836
-954
-1082
-1191
-1163
-925
-590
-412
-519
-759
-834
-639
-382
-320
-463
-579
-490
-306
-234
-320
-359
-201
-8
-84
-454
-759
-634
-174
109
-99
-542
-669
-310
159
280
60
-118
-39
81
-14
-187
-69
406
820
772
380
123
211
345
148
-340
-708
-701
-515
-464
-571
-550
-215
275
628
775
914
1245
1722
2132
2334
2372
2390
2470
2568
2583
2475
2292
2103
1924
1725
1497
1289
1186
1223
1331
1395
1371
1320
1336
1442
1558
1581
1505
1419
1419
1488
1506
1394
1201
1060
1045
1072
995
777
574
575
780
978
953
727
528
530
656
676
491
223
61
55
118
153
163
190
229
215
115
-31
-151
-211
-245
-316
-447
-593
-671
-639
-533
-449
-450
-518
-586
-609
-617
-630
-650
-658
-661
-681
-705
-698
-666
-685
-792
-897
-862
-680
-518
-543
-711
-818
-748
-596
-551
-651
-782
-837
-823
-782
-715
-610
-520
-522
-591
-606
-484
-292
-172
-183
-263
-314
-296
-205
-64
37
3
-152
-258
-162
70
219
174
64
83
233
381
467
558
694
760
688
588
641
854
1004
899
638
481
539
684
754
740
738
794
860
889
883
863
821
769
745
796
912
1019
1062
1059
1091
1212
1383
1485
1431
1269
1164
1203
1290
1266
1123
994
985
1037
1013
914
899
1052
1241
1276
1136
963
927
1036
1161
1160
981
714
533
559
732
870
855
763
770
921
1058
1032
912
878
993
1095
1050
923
901
1048
1217
1258
1234
1304
1509
1720
1782
1696
1585
1560
1593
1572
1438
1210
990
894
984
1212
1425
1463
1316
1141
1130
1312
1501
1474
1202
883
778
941
1201
1331
1258
1107
1053
1154
1290
1255
956
499
135
37
127
146
-75
-418
-585
-402
-54
121
2
-192
-140
244
729
1057
1188
1252
1384
1579
1715
1713
1597
1408
1179
925
669
470
385
428
521
568
523
459
493
666
861
869
633
283
42
2
62
81
26
-29
-43
-60
-102
-92
62
345
551
485
171
-156
-297
-258
-249
-435
-772
-1083
-1210
-1073
-720
-300
-34
-5
-61
82
470
847
879
558
243
218
404
481
320
137
177
396
524
398
124
-103
-232
-316
-367
-318
-190
-128
-221
-366
-378
-235
-130
-204
-378
-491
-485
-468
-527
-585
-521
-346
-227
-260
-377
-399
-265
-97
-2
-5
-32
-22
20
59
44
-43
-163
-250
-284
-314
-369
-364
-165
233
595
649
390
115
125
411
661
615
354
174
301
661
975
1067
991
921
949
1023
1037
953
850
801
835
943
1066
1183
1234
1198
1109
1056
1087
1146
1131
1030
953
998
1111
1196
1245
1294
1343
1301
1121
913
853
970
1101
1068
834
588
533
714
970
1061
898
617
450
464
503
419
270
219
277
292
141
-65
-105
51
179
70
-208
-428
-453
-331
-187
-86
-29
-35
-102
-163
-163
-124
-128
-227
-385
-500
-526
-477
-372
-260
-188
-172
-197
-232
-261
-262
-227
-186
-171
-202
-238
-196
-61
79
121
67
19
21
29
-16
-96
-128
-111
-138
-268
-410
-417
-277
-176
-281
-506
-601
-449
-219
-173
-390
-695
-894
-996
-1119
-1323
-1544
-1718
-1842
-1928
-1917
-1728
-1396
-1078
-894
-788
-605
-279
94
362
467
475
483
521
545
512
424
316
209
85
-66
-209
-278
-256
-198
-178
-203
-215
-166
-89
-67
-125
-215
-280
-323
-383
-459
-510
-518
-513
-535
-569
-564
-497
-410
-348
-301
-231
-150
-116
-145
-180
-166
-127
-137
-206
-256
-208
-74
55
119
124
101
65
30
21
35
31
-38
-139
-168
-73
55
67
-69
-217
-228
-114
-38
-123
-302
-375
-227
44
249
304
282
271
247
121
-98
-273
-269
-81
177
442
731
1037
1235
1172
845
410
11
-356
-787
-1288
-1670
-1719
-1433
-1048
-812
-768
-750
-596
-332
-135
-134
-290
-463
-542
-514
-414
-288
-188
-163
-223
-291
-254
-69
159
264
239
242
424
715
846
645
248
-21
11
177
197
25
-127
-61
187
395
428
369
383
485
570
565
501
440
394
326
235
162
131
120
96
87
126
207
286
300
253
200
202
268
341
345
252
133
113
259
503
681
688
598
596
768
1001
1105
1024
882
838
901
963
965
957
1015
1117
1188
1209
1242
1329
1420
1421
1332
1253
1245
1279
1277
1222
1187
1220
1268
1246
1147
1052
1030
1066
1096
1078
1028
956
853
746
698
747
824
813
689
561
541
597
617
584
599
718
822
756
551
412
462
566
490
200
-82
-150
-48
-3
-155
-416
-615
-694
-729
-805
-914
-988
-986
-938
-878
-805
-685
-481
-203
117
428
678
840
917
950
980
986
903
716
485
287
147
10
-139
-244
-279
-314
-411
-480
-355
-39
221
202
12
8
360
826
1010
818
532
441
523
540
368
125
3
39
136
209
253
282
301
306
319
360
403
399
357
311
326
401
465
449
357
264
245
294
329
297
255
294
420
514
467
322
211
200
208
109
-97
-285
-348
-305
-245
-211
-170
-100
-38
-48
-122
-181
-169
-138
-181
-335
-510
-588
-548
-476
-469
-534
-598
-602
-568
-555
-576
-600
-600
-591
-607
-657
-720
-774
-819
-873
-930
-961
-939
-875
-816
-805
-823
-802
-692
-525
-401
-398
-481
-537
-484
-355
-258
-251
-294
-294
-213
-94
-5
32
36
38
42
42
43
65
117
185
251
302
338
372
422
505
624
745
806
767
652
553
544
608
650
596
478
401
450
600
750
809
775
719
698
698
664
574
465
402
405
440
458
456
468
515
577
610
594
548
512
511
542
583
621
669
749
864
985
1076
1148
1253
1438
1680
1898
2029
2088
2138
2194
2188
2048
1798
1555
1429
1409
1403
1353
1314
1386
1585
1813
1940
1923
1816
1689
1570
1461
1331
1158
955
780
690
668
638
566
519
563
643
628
494
392
458
613
664
565
497
622
829
842
565
207
28
32
-4
-231
-550
-746
-733
-597
-447
-306
-123
114
361
609
877
1172
1457
1669
1798
1877
1936
1953
1898
1786
1686
1644
1615
1521
1363
1232
1209
1259
1271
1196
1097
1061
1091
1115
1086
1025
981
976
1004
1040
1043
967
812
653
590
634
682
655
571
513
531
574
570
511
443
402
392
409
455
528
600
640
645
631
601
558
527
545
604
660
680
682
707
763
818
833
807
750
666
569
496
480
505
516
473
409
390
423
452
417
323
228
179
168
165
167
197
260
333
380
401
419
449
474
466
422
357
300
273
275
293
312
330
357
396
429
432
404
381
395
427
422
365
309
329
427
517
524
470
445
496
576
599
550
483
449
444
446
463
519
592
617
568
509
537
658
775
792
728
693
759
874
935
909
849
823
847
881
893
872
816
726
636
602
648
731
783
797
842
976
1155
1248
1171
973
786
695
662
601
487
400
443
630
877
1073
1139
1059
855
575
268
-49
-390
-756
-1103
-1349
-1417
-1300
-1077
-857
-691
-559
-412
-247
-147
-199
-387
-570
-577
-372
-85
87
67
-35
-22
201
527
738
667
362
60
-8
195
497
713
785
813
908
1101
1299
1389
1347
1206
991
714
428
251
283
483
670
699
608
578
701
885
965
899
776
670
555
384
172
-22
-190
-372
-570
-730
-828
-899
-962
-947
-781
-470
-146
85
252
467
773
1080
1293
1430
1556
1697
1807
1842
1833
1842
1870
1862
1769
1622
1508
1491
1555
1664
1790
1925
2050
2143
2206
2266
2333
2388
2397
2351
2265
2155
2056
2012
2035
2087
2090
2015
1916
1874
1904
1942
1918
1835
1757
1732
1744
1724
1641
1534
1463
1443
1424
1349
1230
1142
1122
1128
1091
997
908
858
798
669
509
435
498
609
633
556
507
585
718
725
525
231
17
-81
-180
-400
-701
-942
-1040
-1058
-1103
-1188
-1241
-1227
-1203
-1243
-1340
-1414
-1430
-1433
-1476
-1557
-1603
-1578
-1506
-1424
-1338
-1239
-1134
-1057
-1034
-1021
-969
-886
-849
-928
-1067
-1109
-967
-731
-603
-660
-721
-555
-170
172
231
83
35
217
441
435
220
90
226
456
492
314
199
342
619
765
711
636
703
840
893
869
861
865
747
460
210
209
374
396
126
-186
-178
177
524
543
295
106
180
385
476
395
296
317
437
543
584
620
712
814
825
714
591
608
771
913
899
759
646
683
824
899
811
617
490
563
824
1156
1415
1530
1526
1474
1435
1398
1313
1144
890
596
335
209
297
556
800
852
734
656
825
1181
1448
1424
1182
971
941
1016
1049
988
883
775
679
622
669
823
992
1057
1020
997
1078
1203
1235
1116
914
742
651
645
693
761
800
797
784
786
774
669
452
159
-121
-276
-300
-293
-374
-580
-737
-616
-200
243
438
429
539
946
1443
1689
1659
1676
1967
2299
2239
1683
1007
648
617
567
236
-239
-538
-503
-242
37
231
324
344
286
209
213
296
380
347
177
27
43
176
256
211
128
98
40
-184
-515
-674
-494
-162
-10
-82
-90
177
537
637
428
232
321
552
577
292
-36
-125
-9
33
-166
-459
-586
-474
-271
-193
-263
-344
-280
-104
19
-17
-145
-188
-133
-147
-349
-611
-702
-537
-288
-173
-224
-316
-342
-291
-221
-173
-159
-185
-211
-160
-12
119
103
-60
-209
-219
-157
-201
-383
-526
-433
-152
79
75
-96
-208
-166
-68
-58
-129
-170
-129
-72
-29
75
338
715
998
1062
1000
980
1055
1107
1041
915
867
921
989
1009
1027
1121
1269
1377
1396
1372
1365
1373
1354
1307
1281
1314
1380
1407
1362
1267
1168
1086
1038
1035
1064
1050
945
804
781
949
1171
1224
1061
862
850
999
1070
897
594
436
545
751
793
628
444
454
620
715
605
403
341
462
572
501
327
272
400
522
474
328
296
451
605
573
412
330
404
509
494
367
263
262
347
470
594
684
691
618
552
590
711
807
783
660
552
534
585
626
600
524
473
489
544
558
503
438
441
511
542
466
340
288
339
407
388
300
260
307
349
284
141
40
25
-11
-205
-539
-844
-958
-900
-848
-941
-1152
-1327
-1339
-1201
-1038
-962
-984
-1003
-905
-653
-313
6
235
364
436
509
611
702
707
565
321
94
-37
-97
-156
-227
-248
-180
-83
-55
-111
-168
-161
-129
-166
-303
-462
-553
-557
-518
-473
-428
-389
-377
-385
-366
-280
-157
-78
-87
-142
-171
-173
-199
-277
-379
-462
-525
-603
-695
-755
-735
-658
-591
-578
-592
-574
-507
-440
-434
-495
-571
-613
-638
-700
-806
-880
-830
-647
-409
-182
24
229
401
483
472
403
284
80
-211
-498
-666
-700
-693
-710
-682
-528
-292
-132
-134
-205
-194
-87
-17
-74
-171
-152
34
269
394
374
296
257
261
230
117
-9
-76
-86
-151
-373
-719
-1044
-1221
-1253
-1234
-1219
-1151
-949
-614
-240
70
318
567
835
1057
1173
1238
1381
1654
1946
2112
2123
2094
2122
2183
2208
2170
2100
2008
1852
1632
1450
1417
1538
1669
1657
1484
1267
1119
1065
1052
1030
988
941
905
887
884
908
941
949
900
787
678
656
736
840
895
906
936
1003
1032
961
835
800
933
1139
1251
1207
1134
1197
1420
1648
1721
1638
1518
1436
1348
1184
982
866
884
946
926
824
758
787
836
790
648
526
504
519
469
375
361
493
648
644
459
273
251
369
447
374
233
182
246
293
221
84
31
135
311
410
397
344
326
328
277
159
31
-62
-129
-209
-290
-295
-201
-89
-92
-256
-495
-663
-712
-728
-833
-1042
-1219
-1208
-981
-662
-413
-269
-114
178
572
889
1014
1007
1035
1161
1283
1253
1059
806
591
410
230
81
25
61
93
55
-9
14
145
279
281
138
-45
-146
-129
-45
33
62
43
8
1
65
191
299
307
212
104
61
97
150
166
157
165
203
245
265
270
289
328
366
379
363
330
304
309
343
382
393
368
346
362
408
443
429
379
330
309
306
289
239
161
76
0
-57
-109
-175
-267
-362
-424
-445
-462
-508
-576
-618
-608
-584
-603
-682
-773
-823
-825
-815
-824
-846
-854
-819
-731
-603
-475
-399
-398
-436
-440
-382
-313
-317
-414
-528
-564
-497
-389
-321
-321
-351
-350
-281
-159
-49
-16
-78
-179
-233
-205
-137
-83
-52
-2
104
247
381
483
570
656
719
723
661
577
538
570
630
653
607
530
480
480
503
503
463
399
331
276
255
289
364
434
445
402
355
352
391
435
458
467
485
525
585
658
722
747
727
692
682
711
752
771
766
771
813
881
928
916
854
789
767
788
811
802
765
733
726
720
676
591
507
473
496
539
557
554
571
633
733
819
839
789
707
643
623
635
644
636
639
683
759
820
835
819
799
773
713
627
575
613
717
806
835
836
870
937
964
891
739
579
457
354
219
16
-211
-396
-479
-470
-442
-447
-468
-425
-265
-19
224
394
517
669
902
1195
1464
1638
1698
1690
1670
1649
1593
1475
1309
1139
995
880
796
766
799
849
859
822
795
828
894
909
843
770
786
889
972
942
830
747
747
776
750
649
544
511
557
626
666
667
659
671
715
766
781
739
668
624
640
689
718
707
681
672
683
693
685
659
625
591
562
540
522
502
479
456
436
416
391
364
344
331
312
282
252
235
229
223
210
191
167
124
56
-22
-82
-107
-116
-133
-154
-161
-144
-118
-108
-113
-127
-150
-187
-217
-200
-118
-19
15
-37
-114
-132
-78
-21
-32
-100
-163
-174
-137
-78
-15
49
104
141
173
241
365
512
614
627
577
528
529
570
600
578
502
405
333
321
381
485
567
569
496
421
413
454
455
353
191
72
52
96
136
152
185
262
349
392
373
330
311
325
334
292
181
25
-115
-177
-144
-66
-24
-59
-137
-191
-180
-112
-13
90
170
210
227
268
364
492
565
521
394
279
243
269
295
292
269
233
171
73
-19
-48
20
154
265
286
230
193
269
452
632
673
525
277
105
107
233
346
354
286
243
285
359
367
276
163
108
131
210
340
551
820
1030
1091
1029
955
942
947
893
772
628
487
326
152
31
-13
-63
-256
-595
-909
-1006
-872
-640
-448
-322
-188
45
415
891
1372
1733
1885
1851
1772
1774
1882
2016
2047
1928
1738
1589
1547
1585
1622
1645
1721
1898
2113
2239
2230
2196
2277
2482
2664
2681
2556
2445
2460
2560
2619
2571
2459
2368
2323
2269
2148
1981
1851
1795
1757
1634
1415
1215
1147
1197
1230
1143
984
875
844
797
639
407
232
191
235
260
216
141
102
133
219
299
308
236
134
64
29
-35
-186
-383
-527
-577
-604
-682
-795
-884
-935
-989
-1088
-1206
-1283
-1312
-1334
-1369
-1399
-1414
-1420
-1434
-1429
-1362
-1260
-1210
-1254
-1310
-1266
-1155
-1165
-1425
-1808
-2014
-1911
-1686
-1611
-1706
-1725
-1457
-1017
-714
-693
-790
-772
-613
-472
-458
-519
-516
-396
-205
-14
136
202
157
55
8
57
110
53
-70
-95
77
336
491
485
438
456
504
461
325
255
333
461
484
382
309
393
563
629
517
373
365
484
589
580
508
485
536
597
612
594
574
528
441
366
401
504
508
310
56
29
318
661
723
470
235
318
636
874
821
594
465
540
680
706
613
550
606
723
761
659
526
532
725
950
1013
895
799
929
1220
1398
1257
903
650
665
775
698
384
115
176
524
858
915
770
707
863
1101
1160
939
611
416
442
582
677
686
660
667
713
758
780
764
680
481
178
-110
-236
-166
-45
-58
-238
-450
-554
-533
-467
-432
-444
-441
-356
-176
99
435
773
1052
1213
1276
1302
1292
1214
1048
822
621
451
270
58
-69
19
291
524
520
336
215
285
415
404
222
41
-14
2
-3
-4
74
207
235
42
-254
-417
-375
-299
-384
-630
-823
-804
-614
-389
-221
-102
13
81
58
-15
-10
111
232
208
55
-57
10
185
281
194
17
-79
-37
28
-24
-191
-352
-384
-288
-183
-157
-184
-191
-144
-71
-22
-10
-29
-76
-143
-175
-71
174
382
350
75
-165
-112
163
296
46
-396
-579
-302
163
396
274
32
-56
13
41
-77
-258
-366
-388
-408
-442
-421
-274
-14
243
391
399
311
213
172
207
288
343
329
284
300
455
704
924
969
848
722
734
848
893
780
615
575
686
801
799
755
808
957
1036
936
750
649
665
653
514
340
292
403
565
660
685
733
853
1000
1076
1023
875
731
683
692
656
528
395
397
541
659
600
419
300
324
365
275
68
-80
-52
89
180
149
56
-7
2
56
113
144
130
67
14
36
123
195
167
34
-99
-121
-23
104
156
155
197
336
499
558
492
418
432
493
483
377
292
342
480
548
475
376
387
482
511
398
247
209
276
322
280
218
223
280
300
248
200
210
244
248
215
184
154
90
-26
-199
-434
-724
-1006
-1189
-1259
-1321
-1453
-1558
-1460
-1140
-821
-726
-807
-789
-496
-64
238
310
291
375
578
768
830
770
667
565
449
291
112
-22
-63
-46
-48
-98
-127
-63
66
126
44
-82
-96
18
107
48
-96
-152
-56
66
69
-45
-159
-188
-156
-128
-129
-140
-150
-147
-102
14
182
353
499
626
709
671
474
207
39
52
162
226
214
224
322
452
499
405
206
-34
-285
-538
-750
-882
-931
-897
-761
-537
-324
-239
-279
-301
-208
-101
-157
-390
-592
-579
-397
-252
-244
-299
-329
-372
-477
-580
-573
-504
-557
-799
-1043
-1054
-845
-666
-688
-798
-768
-533
-233
-31
68
163
295
407
450
442
428
424
404
345
291
310
429
608
773
891
979
1039
1028
900
694
513
411
331
198
35
-39
47
215
331
341
328
398
534
613
542
386
313
414
602
709
676
617
676
833
929
865
727
693
820
992
1079
1093
1140
1273
1428
1532
1577
1596
1614
1640
1695
1799
1929
2015
2014
1949
1885
1838
1788
1735
1671
1553
1344
1113
1027
1153
1325
1302
1066
891
1038
1399
1595
1394
989
772
886
1094
1098
880
668
642
744
788
697
565
528
597
663
625
509
435
483
580
589
467
318
282
360
430
384
265
192
198
205
144
54
22
71
120
98
31
-3
26
60
37
-36
-85
-79
-66
-118
-235
-364
-476
-592
-731
-856
-909
-906
-939
-1060
-1189
-1174
-973
-704
-500
-372
-198
108
496
831
1043
1169
1272
1338
1303
1140
900
662
466
294
110
-86
-236
-289
-253
-195
-168
-162
-121
-28
57
67
13
-28
-1
55
61
4
-65
-90
-77
-65
-65
-55
-34
-33
-61
-86
-69
-18
29
42
38
53
91
130
149
136
95
43
4
-8
-7
-25
-76
-139
-195
-246
-307
-379
-460
-546
-634
-699
-720
-708
-715
-772
-856
-919
-933
-935
-977
-1065
-1146
-1162
-1108
-1049
-1048
-1093
-1099
-1002
-850
-789
-893
-1081
-1196
-1175
-1127
-1195
-1385
-1550
-1570
-1470
-1360
-1292
-1227
-1114
-966
-841
-766
-715
-652
-574
-523
-528
-565
-590
-568
-492
-396
-320
-284
-280
-276
-229
-123
9
94
87
43
61
188
364
477
497
489
518
564
556
473
369
311
293
267
216
186
235
363
516
642
728
779
801
808
827
886
979
1062
1094
1098
1136
1222
1295
1271
1128
942
826
824
884
924
942
1016
1217
1490
1686
1722
1660
1641
1691
1702
1572
1356
1214
1218
1289
1296
1220
1141
1124
1153
1163
1114
1005
868
756
725
770
823
814
757
726
761
817
840
825
831
885
949
977
979
991
1024
1037
1009
976
1012
1121
1219
1194
1030
841
756
781
778
630
375
177
147
258
382
428
400
331
256
212
222
243
196
34
-160
-284
-316
-348
-459
-603
-667
-644
-642
-748
-913
-985
-889
-687
-493
-355
-229
-37
256
607
925
1119
1167
1122
1049
971
849
667
462
268
85
-84
-183
-139
34
189
206
106
18
9
-1
-109
-292
-434
-465
-433
-418
-432
-433
-396
-351
-338
-341
-333
-315
-283
-215
-106
10
89
149
244
361
398
277
85
0
74
155
66
-163
-311
-216
32
203
177
35
-72
-84
-47
-26
-38
-75
-126
-167
-165
-106
-36
-3
-23
-58
-69
-64
-62
-55
-32
0
12
5
14
76
170
227
205
131
72
51
25
-52
-166
-243
-225
-129
-23
44
74
103
150
195
208
176
118
66
49
79
146
222
286
337
396
480
575
635
633
591
560
564
574
566
550
562
607
636
614
571
581
677
817
923
956
937
912
907
914
896
823
683
508
367
321
374
469
531
521
467
425
428
455
455
400
320
271
272
295
303
303
326
374
397
353
257
172
155
198
252
265
220
145
90
84
101
83
-11
-147
-244
-254
-182
-74
32
108
140
149
183
254
289
177
-57
-241
-255
-188
-216
-367
-463
-366
-178
-95
-117
-16
295
590
588
316
119
210
411
367
13
-335
-376
-158
27
22
-53
1
202
374
372
255
189
229
269
177
-2
-80
55
296
416
329
193
208
342
365
120
-283
-622
-790
-874
-999
-1160
-1283
-1324
-1298
-1185
-939
-591
-259
-33
136
390
796
1250
1583
1737
1794
1839
1880
1874
1794
1659
1505
1372
1293
1263
1260
1266
1301
1388
1517
1626
1673
1686
1714
1756
1761
1718
1687
1730
1819
1873
1853
1813
1813
1843
1853
1820
1756
1668
1561
1457
1412
1423
1413
1326
1203
1141
1163
1190
1132
1009
914
877
823
678
458
259
135
47
-69
-210
-312
-337
-320
-312
-332
-339
-293
-229
-226
-316
-452
-557
-592
-594
-630
-732
-847
-893
-840
-751
-730
-818
-963
-1088
-1161
-1212
-1279
-1366
-1460
-1541
-1592
-1578
-1506
-1449
-1477
-1582
-1658
-1633
-1556
-1548
-1619
-1672
-1653
-1624
-1656
-1705
-1667
-1537
-1426
-1391
-1371
-1266
-1106
-1022
-1056
-1075
-950
-754
-670
-779
-940
-940
-718
-418
-223
-187
-222
-212
-140
-74
-75
-141
-228
-302
-361
-392
-359
-258
-142
-80
-107
-172
-196
-163
-101
-21
72
169
227
228
217
246
295
302
240
126
40
24
58
116
184
267
344
379
370
356
388
470
547
605
676
770
796
662
422
284
375
546
513
226
-14
115
548
876
827
542
367
444
578
546
376
257
314
473
577
580
530
502
550
648
703
620
433
309
379
603
788
795
680
607
650
735
747
669
593
584
616
613
554
485
487
536
539
426
231
85
87
203
332
411
451
514
616
677
620
419
118
-165
-341
-442
-594
-857
-1084
-1045
-682
-244
-64
-150
-148
276
1015
1564
1572
1223
1005
1152
1415
1350
885
360
92
37
-62
-293
-448
-304
43
291
310
243
285
406
405
199
-73
-241
-286
-312
-347
-343
-274
-212
-233
-294
-318
-314
-368
-502
-592
-543
-431
-431
-612
-830
-889
-771
-640
-638
-749
-845
-839
-754
-661
-587
-517
-460
-471
-579
-715
-775
-736
-699
-775
-932
-1009
-903
-689
-556
-584
-666
-666
-599
-601
-751
-961
-1084
-1063
-981
-952
-971
-979
-937
-866
-818
-815
-842
-895
-962
-1031
-1089
-1146
-1200
-1244
-1242
-1180
-1109
-1091
-1125
-1179
-1207
-1203
-1194
-1210
-1257
-1295
-1271
-1164
-1015
-878
-790
-729
-657
-588
-577
-634
-685
-656
-555
-473
-474
-488
-399
-191
17
89
31
-24
28
136
176
83
-70
-141
-69
54
117
83
15
1
37
44
-18
-106
-153
-144
-145
-177
-196
-159
-75
0
45
76
100
87
21
-64
-90
-20
74
76
-56
-229
-284
-137
121
273
178
-91
-305
-306
-178
-143
-313
-557
-686
-653
-581
-597
-664
-659
-561
-476
-518
-653
-745
-721
-669
-716
-868
-1008
-1030
-956
-874
-831
-792
-723
-659
-649
-661
-618
-524
-471
-512
-586
-586
-497
-424
-436
-499
-540
-534
-496
-433
-342
-256
-234
-289
-343
-310
-217
-169
-226
-345
-427
-419
-347
-254
-188
-187
-247
-307
-294
-190
-89
-105
-260
-429
-472
-412
-418
-630
-971
-1214
-1228
-1150
-1216
-1436
-1561
-1385
-1036
-847
-944
-1054
-829
-274
244
449
459
584
908
1181
1137
823
488
272
73
-241
-592
-763
-675
-460
-296
-217
-138
-16
91
108
42
-48
-96
-64
64
246
365
309
95
-148
-325
-480
-723
-1044
-1310
-1401
-1348
-1252
-1128
-933
-707
-587
-670
-876
-1018
-1000
-903
-862
-891
-881
-739
-482
-191
58
204
196
25
-231
-422
-447
-356
-289
-339
-469
-580
-636
-688
-789
-918
-1021
-1093
-1173
-1261
-1288
-1193
-1016
-875
-836
-868
-889
-869
-865
-936
-1033
-1043
-930
-769
-693
-727
-751
-658
-531
-545
-746
-965
-1014
-946
-980
-1228
-1516
-1595
-1463
-1340
-1324
-1252
-906
-336
181
488
705
1006
1323
1397
1121
723
533
638
823
878
840
889
1080
1251
1206
951
670
484
311
20
-351
-577
-467
-109
223
338
291
264
330
420
443
376
281
209
185
236
370
545
692
783
849
938
1024
1045
1007
1012
1142
1344
1480
1482
1430
1455
1560
1632
1581
1481
1489
1648
1817
1836
1716
1638
1722
1870
1850
1574
1214
1006
981
960
791
529
371
431
622
774
794
725
663
652
669
640
514
338
243
339
582
783
782
609
431
364
349
255
66
-102
-149
-94
-16
70
199
362
493
569
658
813
936
841
480
54
-184
-200
-211
-413
-730
-901
-794
-545
-378
-362
-382
-304
-130
14
42
-18
-94
-160
-273
-481
-737
-915
-926
-830
-788
-882
-1006
-982
-771
-540
-452
-466
-381
-81
334
706
1008
1373
1860
2309
2459
2226
1776
1325
923
449
-176
-831
-1286
-1398
-1193
-838
-503
-269
-122
-7
122
250
301
229
84
-15
3
84
138
150
186
273
331
267
112
11
60
204
296
280
235
256
332
363
309
238
240
321
406
433
420
418
433
438
418
398
398
400
368
303
240
199
155
80
-18
-99
-152
-214
-321
-452
-551
-608
-662
-756
-872
-955
-994
-1061
-1241
-1559
-1940
-2258
-2399
-2330
-2118
-1887
-1700
-1486
-1119
-595
-114
101
18
-176
-290
-319
-389
-560
-732
-780
-703
-593
-507
-410
-263
-112
-40
-63
-108
-97
-24
66
127
152
158
157
161
169
166
159
169
233
359
507
632
715
764
797
809
800
782
775
788
813
833
826
780
712
677
737
904
1125
1332
1500
1659
1848
2070
2292
2471
2579
2602
2550
2460
2381
2327
2274
2171
2012
1844
1723
1658
1613
1553
1491
1457
1470
1490
1468
1392
1324
1329
1407
1490
1528
1538
1562
1592
1568
1462
1341
1284
1261
1151
882
560
379
423
581
678
657
612
649
768
884
934
940
955
996
1027
1017
982
969
991
1017
995
917
813
743
733
767
805
821
819
798
759
726
719
730
724
683
651
678
752
793
759
721
770
884
927
827
685
648
696
643
351
-65
-364
-464
-512
-667
-879
-957
-806
-529
-284
-89
137
433
733
947
1076
1166
1220
1204
1111
993
896
826
746
646
545
461
389
326
282
259
237
186
123
100
142
220
268
264
260
315
418
499
512
481
467
501
545
552
529
520
553
610
653
661
646
626
607
591
583
589
604
626
658
694
712
693
640
584
550
537
525
506
486
479
487
508
531
556
581
601
613
612
594
575
576
609
663
718
769
824
885
937
962
963
951
930
895
843
783
724
680
669
699
754
802
817
806
806
843
900
928
882
769
657
617
665
739
754
680
585
575
680
821
888
853
796
809
894
972
984
962
986
1079
1160
1148
1058
987
982
979
888
730
629
667
784
854
846
863
1004
1221
1367
1349
1212
1066
967
886
777
636
498
413
408
466
544
613
677
746
799
765
623
448
345
341
352
297
198
134
164
266
374
459
539
635
737
779
735
647
589
594
600
524
358
190
132
220
414
674
945
1108
1043
764
487
427
543
562
310
-70
-234
-25
357
602
625
566
587
688
788
872
957
1002
958
869
888
1050
1184
1091
785
524
519
688
769
647
499
565
853
1136
1214
1100
945
839
753
646
541
512
610
790
955
1033
1013
937
862
801
718
587
412
243
146
183
376
673
966
1189
1399
1707
2133
2543
2775
2813
2797
2859
2961
2968
2812
2583
2425
2381
2360
2267
2094
1913
1780
1694
1624
1576
1568
1574
1513
1340
1127
1003
1026
1106
1087
927
751
695
761
848
874
857
832
760
591
380
243
223
222
149
35
14
139
296
337
276
247
319
359
200
-132
-392
-393
-228
-169
-323
-512
-517
-340
-199
-254
-423
-521
-506
-474
-502
-540
-503
-406
-356
-381
-374
-253
-68
29
-38
-176
-247
-233
-240
-334
-472
-568
-601
-636
-694
-717
-639
-504
-437
-496
-593
-599
-491
-339
-222
-133
-49
16
18
-19
-18
46
112
135
167
285
465
594
633
676
810
967
1002
891
782
812
924
978
953
961
1062
1129
1001
744
613
740
962
1021
893
799
911
1140
1254
1184
1095
1136
1227
1192
1028
933
1047
1252
1315
1195
1099
1199
1395
1440
1270
1104
1176
1411
1524
1364
1081
940
1010
1140
1157
1059
945
912
990
1170
1401
1558
1533
1342
1136
1048
1044
969
776
628
722
1056
1409
1541
1451
1355
1433
1642
1770
1643
1283
900
726
847
1138
1344
1295
1067
930
1063
1365
1549
1431
1119
873
844
958
1046
1051
1028
1039
1054
1017
941
889
932
1194
1198
1139
1113
1198
1354
1435
1315
1042
794
715
794
903
905
788
670
676
809
893
748
385
36
-95
-59
-123
-414
-724
-707
-318
95
133
-185
-416
-197
399
931
1094
1020
1033
1251
1494
1565
1468
1320
1149
875
511
235
190
300
372
368
426
616
784
753
585
523
650
758
603
243
-20
20
262
457
468
367
290
292
363
467
545
573
557
522
471
400
326
296
308
292
214
170
276
494
634
600
535
642
909
1062
900
543
279
250
327
340
273
217
212
223
234
288
389
455
394
230
81
47
108
150
118
56
32
76
117
48
-138
-336
-433
-413
-368
-381
-426
-430
-361
-244
-97
60
136
17
-296
-617
-703
-517
-277
-225
-378
-528
-457
-175
120
254
198
76
50
184
418
618
718
760
819
905
951
906
815
754
709
595
407
280
366
621
823
801
636
570
705
898
946
805
619
529
535
548
530
510
536
602
650
696
771
854
880
826
744
688
617
434
138
-91
-49
249
536
557
363
252
438
791
984
845
539
359
417
572
633
563
458
406
405
436
508
609
665
624
542
556
685
786
722
544
428
486
612
663
656
731
912
1029
917
644
450
464
562
538
347
140
77
175
349
499
575
549
430
300
245
277
321
306
229
163
142
161
201
266
360
438
438
364
297
325
441
544
537
420
295
255
293
316
242
96
-48
-168
-302
-479
-664
-812
-944
-1107
-1270
-1303
-1131
-854
-663
-612
-557
-322
77
479
760
933
1052
1105
1073
1011
997
1014
947
734
464
304
313
396
422
368
313
327
398
461
475
439
387
343
297
229
156
121
145
192
213
206
215
271
353
412
435
458
495
517
512
507
516
496
383
206
99
160
351
574
822
1217
1820
2480
2895
2856
2421
1832
1265
709
59
-705
-1429
-1887
-1944
-1645
-1168
-733
-460
-334
-271
-213
-191
-262
-428
-610
-724
-768
-779
-741
-603
-383
-224
-278
-532
-785
-851
-743
-644
-690
-831
-915
-889
-843
-888
-1000
-1055
-975
-803
-675
-645
-654
-609
-491
-359
-273
-248
-267
-320
-395
-450
-433
-350
-269
-242
-245
-220
-133
-8
111
169
120
-44
-234
-302
-177
53
245
372
558
867
1198
1396
1437
1430
1414
1316
1066
774
645
731
879
926
885
887
969
1024
970
869
850
939
1038
1084
1145
1318
1584
1827
1963
2007
1996
1936
1826
1700
1591
1474
1301
1116
1050
1151
1283
1255
1056
886
917
1091
1198
1134
1004
966
1045
1130
1130
1056
963
865
760
680
673
741
819
828
762
676
627
639
679
702
677
623
593
623
686
736
765
812
905
998
1010
919
802
768
824
867
804
657
541
514
527
528
540
619
745
805
743
655
683
811
864
702
389
118
7
12
36
39
50
102
193
300
375
361
241
80
-22
-68
-170
-382
-580
-565
-309
-18
114
140
286
660
1100
1369
1422
1413
1488
1613
1642
1496
1250
1022
847
689
512
333
203
153
171
232
318
414
496
520
460
353
278
275
298
272
180
99
117
229
341
368
322
275
272
294
295
269
240
216
182
140
116
141
205
257
255
205
142
105
101
107
95
49
-5
-16
37
117
152
106
15
-54
-68
-52
-53
-101
-188
-279
-340
-354
-337
-330
-363
-428
-486
-520
-545
-581
-621
-639
-628
-611
-605
-599
-580
-557
-545
-548
-562
-598
-667
-731
-724
-635
-582
-727
-1087
-1490
-1690
-1602
-1357
-1141
-1018
-895
-653
-263
198
601
836
855
704
511
408
424
464
418
289
187
214
351
488
552
570
600
636
606
468
279
158
175
270
322
262
119
-3
-35
27
131
216
260
275
284
300
330
379
449
532
609
682
771
899
1059
1201
1273
1266
1222
1188
1163
1113
1027
942
902
902
891
846
817
852
900
832
589
288
138
228
434
569
592
643
865
1233
1580
1767
1787
1717
1608
1470
1319
1194
1115
1057
971
847
755
756
827
885
865
792
758
803
865
870
839
863
982
1098
1078
910
734
693
773
848
834
774
761
810
855
836
766
709
702
722
718
657
562
506
535
629
717
727
656
549
427
293
163
65
-18
-144
-364
-612
-734
-641
-413
-221
-155
-128
18
350
780
1156
1392
1502
1537
1520
1441
1307
1144
965
762
532
326
222
234
303
353
362
379
434
494
500
440
360
307
294
307
330
351
359
362
391
473
589
678
697
661
620
603
598
572
523
478
459
467
486
515
566
636
693
695
644
582
563
585
592
538
447
397
436
514
545
489
400
357
372
385
340
261
218
238
275
263
196
127
98
101
97
75
57
58
67
71
82
109
138
140
110
74
58
53
33
-7
-50
-78
-93
-105
-115
-134
-175
-225
-236
-167
-54
6
-43
-153
-238
-270
-294
-347
-400
-402
-340
-239
-110
57
254
447
600
692
716
672
601
575
616
648
575
427
356
466
657
729
614
444
391
456
498
431
323
285
318
334
290
246
267
319
315
235
167
207
345
467
475
390
320
339
426
503
527
510
469
390
253
89
-21
-24
44
88
45
-49
-94
-26
123
252
276
195
78
-1
-20
-13
-24
-54
-71
-37
52
157
215
192
114
35
-21
-81
-172
-257
-250
-116
50
81
-66
-237
-250
-88
89
134
84
94
241
442
564
573
526
461
352
159
-78
-265
-320
-238
-74
97
224
299
350
403
436
398
261
61
-128
-228
-204
-92
7
-18
-180
-382
-497
-500
-495
-581
-720
-777
-666
-434
-180
58
298
545
765
944
1140
1393
1656
1832
1910
1991
2148
2301
2286
2055
1759
1603
1632
1716
1728
1693
1725
1867
2033
2099
2023
1863
1695
1542
1390
1231
1092
1010
992
1004
1014
1014
1015
1015
987
913
818
742
708
688
646
585
546
545
542
471
302
76
-133
-258
-283
-275
-328
-467
-606
-618
-479
-322
-322
-510
-748
-879
-892
-929
-1120
-1454
-1786
-1981
-2025
-2018
-2059
-2167
-2269
-2286
-2213
-2116
-2060
-2057
-2070
-2077
-2081
-2087
-2074
-2008
-1895
-1780
-1716
-1717
-1746
-1760
-1743
-1704
-1663
-1636
-1626
-1629
-1615
-1548
-1428
-1307
-1238
-1221
-1215
-1192
-1182
-1202
-1205
-1116
-936
-758
-650
-553
-363
-91
103
91
-64
-177
-171
-155
-258
-436
-518
-399
-147
93
248
353
469
607
736
805
772
642
480
370
335
327
301
287
334
425
483
477
477
570
725
811
743
603
555
662
817
862
756
600
517
531
572
578
550
517
480
436
414
464
584
678
649
512
389
383
467
498
393
208
68
32
49
65
64
101
207
348
454
483
463
452
457
417
271
64
-75
-68
24
69
29
-21
7
99
173
193
188
174
110
-32
-194
-280
-276
-271
-326
-406
-422
-326
-170
-80
-96
-125
-107
-63
-80
-183
-287
-318
-309
-359
-468
-473
-247
100
247
-8
-483
-796
-767
-599
-652
-1055
-1562
-1809
-1675
-1358
-1176
-1239
-1380
-1363
-1088
-662
-244
79
299
423
488
499
443
344
173
-77
-365
-619
-766
-782
-696
-562
-406
-207
19
202
222
40
-205
-333
-340
-386
-574
-809
-901
-819
-743
-833
-1039
-1165
-1094
-921
-802
-792
-823
-815
-761
-700
-662
-642
-644
-645
-626
-600
-580
-522
-384
-211
-102
-104
-109
22
228
268
6
-365
-481
-221
106
109
-236
-571
-580
-341
-191
-309
-546
-656
-572
-418
-307
-238
-191
-208
-329
-501
-602
-582
-508
-476
-507
-545
-550
-515
-425
-295
-158
-61
-29
-33
-25
30
126
250
357
389
319
226
234
370
509
509
394
341
460
655
739
673
596
618
673
627
491
420
523
706
774
681
562
554
641
681
618
513
455
471
522
586
667
763
828
830
788
753
737
716
668
600
542
500
465
444
457
509
562
585
583
576
558
499
398
299
232
185
133
99
136
237
320
300
201
126
139
195
202
121
-9
-118
-158
-130
-70
-42
-94
-191
-244
-200
-113
-82
-126
-158
-103
-1
44
16
22
143
296
327
192
49
76
264
422
403
272
214
304
417
392
223
60
14
40
27
-55
-121
-110
-68
-70
-117
-132
-66
37
95
83
63
103
198
283
302
262
218
196
179
138
80
46
50
55
1
-146
-353
-556
-719
-862
-1040
-1274
-1506
-1631
-1577
-1376
-1135
-952
-825
-675
-438
-123
198
438
554
563
522
482
444
377
265
127
-6
-124
-226
-281
-251
-138
-26
12
-15
-34
-3
41
46
28
36
67
54
-30
-107
-79
34
85
-41
-286
-462
-459
-356
-317
-389
-460
-397
-181
101
402
744
1102
1330
1252
864
388
62
-99
-265
-523
-703
-524
74
802
1239
1192
821
418
119
-197
-704
-1384
-1978
-2196
-1959
-1481
-1048
-796
-652
-495
-320
-231
-296
-473
-656
-777
-832
-824
-725
-521
-268
-86
-51
-135
-246
-310
-324
-334
-383
-478
-599
-717
-801
-830
-793
-706
-599
-479
-332
-150
61
285
535
762
841
663
316
76
138
351
375
121
-47
284
1053
1689
1720
1262
836
737
740
473
-116
-709
-999
-970
-774
-487
-89
370
717
810
715
613
589
575
468
284
153
182
363
598
800
932
1014
1091
1221
1423
1646
1789
1813
1775
1779
1839
1860
1761
1597
1509
1571
1744
1961
2229
2555
2828
2876
2677
2425
2342
2430
2492
2423
2376
2559
2917
3123
2932
2474
2104
1970
1835
1403
718
171
85
374
675
757
684
649
708
763
712
582
459
364
246
75
-67
-66
111
339
429
310
103
3
86
223
242
135
52
93
182
172
35
-112
-169
-157
-154
-162
-115
16
190
347
448
469
384
234
124
117
135
26
-255
-579
-785
-844
-842
-850
-872
-906
-976
-1055
-1046
-880
-627
-443
-386
-326
-92
325
761
1058
1210
1315
1403
1391
1209
900
602
422
325
188
-34
-233
-256
-87
136
249
246
256
356
469
459
312
167
141
210
246
197
154
219
368
479
482
438
458
556
629
595
504
473
542
626
606
484
384
399
496
572
567
521
502
517
515
464
392
339
313
288
243
196
173
184
213
234
224
170
72
-50
-160
-226
-258
-298
-385
-492
-546
-509
-437
-425
-509
-621
-677
-678
-706
-803
-917
-974
-971
-967
-987
-986
-920
-828
-780
-782
-774
-711
-637
-630
-697
-768
-780
-735
-675
-618
-553
-475
-390
-286
-147
13
145
209
224
240
247
196
79
-35
-62
7
93
122
125
196
371
588
747
790
720
554
297
-35
-379
-663
-838
-885
-795
-560
-187
281
783
1254
1630
1849
1890
1798
1670
1571
1490
1373
1202
1041
979
1034
1136
1185
1123
989
864
788
733
648
528
432
412
457
491
459
389
340
343
360
356
357
430
599
796
919
943
928
965
1071
1182
1217
1170
1110
1096
1112
1081
993
944
1053
1332
1646
1833
1853
1800
1774
1779
1742
1623
1453
1279
1117
971
873
870
951
1031
1027
945
872
877
946
1006
1005
981
985
1030
1106
1199
1290
1355
1369
1338
1290
1245
1209
1215
1327
1553
1773
1813
1629
1376
1221
1160
1030
734
367
85
-65
-124
-92
88
391
660
788
874
1123
1572
2009
2207
2170
2117
2213
2401
2521
2503
2388
2244
2092
1930
1775
1654
1580
1540
1517
1507
1514
1542
1575
1604
1615
1602
1573
1530
1481
1430
1384
1348
1321
1297
1267
1233
1194
1154
1123
1120
1157
1211
1235
1200
1135
1100
1130
1183
1186
1113
1013
956
964
995
1001
982
973
987
1011
1019
1012
1003
992
960
900
825
760
714
674
634
600
581
569
557
555
571
594
592
552
495
450
413
359
280
208
183
192
185
133
62
25
45
92
115
96
53
28
50
115
188
228
226
217
239
291
341
364
374
394
417
411
371
333
338
387
448
500
543
590
649
713
764
778
746
684
627
589
557
520
491
493
516
534
542
567
620
662
655
621
620
664
683
609
468
356
327
351
369
373
398
459
512
534
551
618
740
819
759
585
433
413
475
481
397
337
393
482
459
358
378
611
835
741
340
-5
-3
217
281
34
-276
-323
-91
166
265
272
347
502
610
582
465
373
395
506
611
605
476
383
509
833
1095
1045
761
604
803
1163
1312
1108
777
627
711
827
792
631
499
471
492
511
526
578
657
688
628
536
519
610
753
839
837
792
757
718
635
517
413
333
228
62
-115
-235
-330
-480
-674
-799
-767
-654
-640
-787
-942
-900
-622
-261
12
188
377
702
1165
1644
2001
2190
2248
2237
2184
2078
1922
1749
1591
1462
1381
1369
1443
1578
1704
1766
1784
1795
1819
1836
1817
1779
1765
1803
1879
1943
1962
1929
1875
1826
1774
1699
1602
1530
1532
1582
1564
1410
1187
1061
1093
1162
1087
851
634
597
700
762
683
559
503
502
461
328
174
75
35
10
-31
-101
-204
-309
-346
-287
-215
-254
-431
-633
-748
-778
-795
-820
-842
-878
-994
-1181
-1312
-1290
-1190
-1174
-1294
-1441
-1502
-1467
-1389
-1298
-1205
-1158
-1214
-1362
-1493
-1516
-1447
-1394
-1376
-1345
-1257
-1125
-966
-791
-668
-675
-809
-939
-941
-841
-790
-850
-897
-734
-361
-8
114
17
-96
-73
49
135
118
54
15
24
98
217
365
505
587
602
578
563
594
618
574
465
380
412
569
737
779
698
648
749
932
1023
950
823
770
804
853
883
927
988
1024
1028
1066
1170
1246
1186
1019
909
967
1071
1034
852
716
748
859
873
757
659
714
867
986
1026
1066
1157
1220
1156
1011
924
936
942
863
788
861
1051
1165
1087
960
996
1179
1253
1046
728
596
733
880
783
540
480
748
1101
1197
986
762
809
1090
1292
1220
975
806
827
927
952
866
751
689
707
796
936
1072
1110
1024
876
763
695
585
432
345
401
499
465
250
21
-61
-57
-181
-485
-766
-758
-472
-197
-169
-280
-206
188
652
820
651
489
662
1102
1417
1325
976
775
898
1090
992
569
153
33
106
72
-162
-307
-75
395
647
425
0
-145
117
449
436
84
-249
-260
5
279
369
282
166
145
264
455
581
541
395
289
299
344
305
202
175
290
445
489
410
325
315
322
230
21
-179
-261
-230
-168
-137
-125
-63
71
211
252
173
62
48
127
168
51
-123
-120
151
473
537
297
57
117
411
574
374
-36
-307
-285
-116
-19
-39
-68
-12
86
143
152
158
186
201
170
133
131
168
210
235
272
379
537
644
613
474
387
473
661
752
627
394
277
390
612
736
694
627
670
812
936
982
1010
1076
1130
1096
1006
966
1025
1103
1118
1112
1191
1324
1350
1186
965
900
1021
1148
1124
990
915
969
1088
1193
1255
1277
1212
1066
915
850
873
915
904
861
819
796
830
963
1168
1309
1249
1021
820
802
915
968
848
628
473
464
556
669
769
849
894
886
834
775
735
706
647
534
387
294
325
472
641
722
711
704
767
859
873
768
635
591
649
715
699
616
570
635
778
891
891
789
661
579
547
520
468
407
375
388
418
454
504
575
652
691
662
590
521
484
483
492
474
411
311
207
125
53
-57
-212
-364
-466
-543
-652
-780
-820
-684
-443
-273
-248
-237
-49
324
661
762
672
611
698
820
787
587
391
330
362
344
232
124
114
175
202
155
101
109
160
172
115
41
-5
-38
-103
-202
-281
-307
-322
-385
-478
-514
-448
-350
-333
-422
-520
-539
-492
-457
-467
-465
-403
-330
-332
-410
-463
-429
-368
-382
-476
-547
-526
-468
-471
-529
-522
-383
-233
-235
-380
-473
-365
-163
-98
-218
-290
-79
325
560
389
-17
-260
-171
18
-31
-368
-691
-701
-428
-154
-77
-134
-128
-11
55
-79
-347
-518
-440
-202
5
116
246
509
835
975
754
282
-167
-431
-605
-879
-1244
-1467
-1333
-910
-491
-286
-234
-123
135
412
544
534
521
592
670
637
520
472
584
750
762
551
280
173
281
439
477
408
395
547
780
931
932
880
887
950
986
944
857
782
724
667
630
656
758
877
939
944
945
981
1030
1040
991
923
906
971
1072
1130
1115
1104
1216
1495
1866
2211
2460
2594
2562
2318
1922
1548
1307
1105
745
219
-201
-230
91
437
550
486
460
543
605
544
430
392
437
464
433
418
487
580
575
422
174
-84
-289
-380
-290
-21
300
522
612
677
806
932
925
739
473
264
160
115
58
-35
-137
-193
-150
-14
110
102
-50
-211
-237
-143
-88
-183
-347
-418
-362
-322
-428
-635
-788
-806
-775
-801
-866
-845
-686
-486
-369
-313
-156
183
577
826
885
930
1130
1397
1457
1195
830
676
760
808
590
216
13
101
280
292
142
43
123
285
365
337
304
325
362
383
431
538
640
647
565
508
550
629
618
481
302
185
155
153
130
94
91
147
240
332
396
433
461
465
427
355
288
259
253
232
193
184
246
344
398
372
312
280
277
249
167
66
3
-26
-69
-151
-236
-271
-253
-221
-220
-250
-294
-346
-414
-500
-602
-718
-835
-925
-966
-964
-958
-978
-1019
-1046
-1045
-1044
-1071
-1127
-1177
-1182
-1140
-1079
-1037
-1031
-1046
-1044
-998
-936
-906
-929
-965
-962
-895
-787
-681
-613
-603
-654
-725
-759
-742
-717
-713
-696
-587
-381
-142
71
268
473
647
731
731
719
724
696
621
609
779
1068
1242
1164
979
941
1103
1242
1133
826
576
547
665
764
798
836
927
1022
1062
1070
1114
1211
1311
1359
1376
1423
1537
1712
1916
2104
2223
2243
2197
2179
2244
2339
2353
2244
2086
1979
1942
1908
1832
1731
1639
1555
1480
1457
1529
1659
1736
1670
1496
1324
1233
1209
1195
1164
1132
1124
1162
1263
1415
1557
1611
1540
1392
1248
1145
1061
978
936
995
1159
1350
1482
1525
1514
1481
1410
1265
1042
806
642
588
609
630
606
566
572
639
704
674
528
340
178
38
-133
-340
-522
-635
-724
-842
-935
-890
-678
-427
-284
-236
-115
188
592
919
1087
1175
1285
1426
1525
1534
1467
1352
1198
1022
863
747
655
557
478
487
610
771
855
830
770
756
788
802
752
667
611
605
626
644
658
665
655
607
546
515
529
547
512
432
389
446
567
643
617
561
581
688
771
731
599
499
503
562
582
551
539
595
686
744
744
719
703
698
689
673
661
631
572
502
468
483
497
446
336
237
199
200
183
138
114
142
180
158
66
-38
-93
-109
-136
-207
-295
-354
-358
-319
-266
-220
-191
-178
-176
-189
-225
-273
-300
-283
-225
-155
-93
-34
31
91
124
121
94
61
35
30
57
105
144
155
154
166
195
212
201
179
176
187
184
163
164
225
325
390
364
271
185
167
214
276
301
278
242
255
345
479
577
581
500
389
283
171
45
-65
-119
-124
-120
-130
-118
-33
122
289
404
433
360
192
-10
-152
-181
-143
-128
-147
-126
-19
131
243
309
372
438
429
316
200
203
304
346
253
169
254
450
540
431
299
334
457
424
163
-110
-169
-94
-146
-392
-609
-575
-358
-210
-218
-213
-53
132
130
-40
-154
-52
147
192
32
-108
-11
259
447
413
263
213
316
439
479
469
521
612
588
368
76
-111
-190
-353
-696
-1079
-1295
-1310
-1277
-1306
-1302
-1126
-805
-501
-284
-65
268
715
1169
1530
1793
1956
2005
1949
1849
1735
1545
1221
822
510
407
460
524
522
511
590
759
940
1065
1114
1121
1133
1177
1250
1319
1352
1365
1398
1474
1556
1600
1612
1674
1829
1995
2028
1909
1810
1916
2200
2438
2431
2236
2095
2183
2429
2606
2555
2324
2091
1991
2018
2045
1960
1761
1542
1398
1302
1163
952
744
626
598
574
505
423
393
419
452
439
371
280
183
62
-86
-233
-323
-365
-427
-585
-801
-933
-902
-801
-833
-1067
-1318
-1346
-1162
-1025
-1137
-1395
-1541
-1492
-1420
-1511
-1708
-1806
-1734
-1638
-1655
-1717
-1647
-1413
-1187
-1138
-1231
-1288
-1220
-1114
-1095
-1169
-1215
-1152
-1022
-928
-889
-838
-727
-573
-465
-460
-518
-553
-535
-505
-547
-667
-780
-788
-680
-545
-456
-379
-237
-31
159
265
311
355
377
309
150
24
41
170
254
201
107
143
345
561
602
478
356
361
450
487
446
422
470
528
501
415
382
438
483
410
261
182
226
302
319
282
277
346
455
584
736
902
1020
1046
977
883
806
730
647
587
569
576
569
584
714
974
1277
1479
1500
1418
1379
1447
1535
1496
1280
1010
873
913
1007
1024
973
966
1069
1207
1244
1154
1030
943
876
771
616
483
418
424
510
694
949
1186
1284
1187
953
683
452
266
81
-140
-372
-538
-545
-399
-222
-163
-204
-161
143
660
1134
1386
1505
1727
2150
2594
2760
2512
1983
1431
1024
768
570
359
139
-19
-27
134
394
625
742
700
511
228
-43
-170
-108
26
78
17
-28
59
246
385
379
296
224
131
-72
-357
-532
-457
-202
-28
-115
-357
-467
-278
60
225
36
-349
-599
-563
-389
-356
-568
-892
-1107
-1104
-943
-759
-672
-711
-779
-749
-591
-399
-302
-330
-412
-466
-479
-474
-461
-469
-534
-628
-634
-466
-214
-103
-264
-554
-710
-635
-528
-650
-1005
-1313
-1299
-969
-608
-485
-605
-717
-590
-264
-2
-18
-248
-461
-505
-429
-386
-426
-476
-469
-413
-350
-289
-228
-201
-241
-324
-366
-325
-249
-197
-180
-146
-47
79
156
156
130
144
191
186
82
-56
-87
36
190
226
161
149
307
538
621
476
251
131
125
99
-14
-108
-58
105
240
284
325
458
615
643
481
265
158
183
237
225
169
150
214
330
433
480
460
392
312
272
293
312
278
203
167
235
361
454
482
501
564
637
656
624
609
656
717
694
581
498
553
707
809
760
644
635
806
1022
1069
872
583
429
482
608
633
530
423
432
551
673
724
723
704
663
581
489
456
508
586
611
562
512
519
579
641
670
669
666
681
699
681
584
409
209
60
-27
-134
-354
-658
-882
-876
-666
-439
-335
-302
-161
175
584
877
996
1050
1143
1243
1236
1076
838
610
400
177
-30
-138
-123
-63
-44
-53
2
147
283
298
193
88
72
115
127
87
60
99
