9958
10580
10687
10060
8698
7019
5657
4943
4624
4178
3422
2736
2594
2945
3257
3071
2427
1661
1003
472
81
-64
34
147
76
-61
40
427
746
596
17
-567
-798
-678
-440
-247
-93
45
110
68
-2
15
111
134
-43
-375
-680
-779
-642
-389
-224
-314
-618
-895
-902
-705
-637
-930
-1420
-1733
-1760
-1793
-2114
-2523
-2544
-2049
-1517
-1515
-1995
-2327
-2067
-1517
-1363
-1837
-2438
-2515
-1992
-1373
-1124
-1188
-1158
-806
-292
67
123
2
-106
-110
-24
86
215
394
643
921
1145
1294
1425
1576
1661
1517
1130
791
872
1444
2164
2612
2735
2850
3222
3712
3920
3667
3235
3082
3375
3873
4229
4363
4497
4859
5410
5876
5985
5703
5264
4949
4902
5034
5162
5204
5262
5506
5930
6285
6304
5979
5579
5354
5282
5175
4983
4874
5030
5400
5733
5833
5726
5578
5495
5456
5376
5197
4946
4705
4574
4612
4773
4941
5028
5055
5163
5452
5824
5976
5655
4991
4481
4529
4968
5174
4766
4096
3907
4512
5423
5864
5572
4971
4632
4676
4768
4575
4100
3641
3501
3778
4317
4813
5045
5051
5065
5232
5370
5178
4639
4143
4132
4591
5063
5178
5070
5200
5773
6461
6775
6592
6219
5972
5815
5504
4969
4448
4222
4315
4481
4479
4281
4049
3921
3860
3679
3222
2546
1889
1456
1227
1027
811
837
1459
2746
4352
5816
6960
7958
8982
9822
9956
9047
7383
5758
4807
4466
4127
3327
2239
1436
1222
1327
1272
877
302
-292
-922
-1600
-2129
-2294
-2222
-2334
-2862
-3536
-3861
-3689
-3396
-3458
-3925
-4395
-4446
-4058
-3600
-3477
-3787
-4293
-4691
-4888
-5059
-5432
-6010
-6509
-6608
-6244
-5681
-5296
-5307
-5617
-5909
-5907
-5635
-5434
-5677
-6395
-7184
-7558
-7426
-7166
-7220
-7619
-7982
-7950
-7594
-7375
-7699
-8503
-9304
-9613
-9343
-8873
-8693
-8953
-9349
-9425
-9072
-8663
-8708
-9332
-10118
-10474
-10169
-9501
-8966
-8805
-8891
-8936
-8795
-8546
-8381
-8462
-8794
-9198
-9382
-9169
-8706
-8389
-8511
-8923
-9124
-8786
-8119
-7658
-7694
-7947
-7880
-7291
-6524
-6089
-6176
-6535
-6792
-6794
-6665
-6599
-6640
-6640
-6423
-5972
-5471
-5152
-5094
-5171
-5243
-5324
-5531
-5843
-6041
-5957
-5711
-5566
-5539
-5347
-4817
-4243
-4158
-4713
-5432
-5715
-5472
-5177
-5263
-5650
-5898
-5731
-5288
-4854
-4564
-4402
-4384
-4574
-4933
-5264
-5426
-5528
-5792
-6230
-6561
-6515
-6175
-5908
-5959
-6205
-6353
-6318
-6284
-6420
-6658
-6818
-6864
-6928
-7074
-7169
-7056
-6823
-6757
-7010
-7382
-7495
-7190
-6692
-6386
-6446
-6732
-6954
-6926
-6704
-6503
-6512
-6745
-7036
-7144
-6946
-6548
-6196
-6088
-6203
-6340
-6344
-6262
-6289
-6525
-6836
-6977
-6837
-6549
-6339
-6316
-6387
-6374
-6190
-5905
-5699
-5708
-5903
-6118
-6171
-6067
-6006
-6198
-6630
-7057
-7245
-7167
-6985
-6863
-6853
-6891
-6855
-6593
-5988
-5082
-4070
-3112
-2141
-950
485
1851
2691
2792
2329
1590
721
-308
-1503
-2761
-3961
-5001
-5730
-5948
-5603
-5022
-4767
-5157
-5930
-6480
-6482
-6214
-6201
-6583
-6942
-6801
-6242
-5855
-6111
-6831
-7371
-7353
-7067
-7099
-7627
-8156
-8054
-7256
-6379
-6097
-6478
-6995
-7101
-6784
-6504
-6659
-7176
-7634
-7773
-7722
-7763
-7960
-8108
-8016
-7794
-7730
-7926
-8182
-8262
-8208
-8276
-8630
-9192
-9840
-10628
-11621
-12592
-13063
-12792
-12131
-11751
-11920
-12255
-12229
-11875
-11830
-12595
-13920
-15013
-15328
-15009
-14599
-14397
-14252
-13921
-13395
-12905
-12641
-12600
-12691
-12870
-13062
-13075
-12684
-11852
-10792
-9791
-8962
-8205
-7419
-6676
-6196
-6100
-6226
-6276
-6057
-5635
-5204
-4852
-4480
-3990
-3469
-3130
-3061
-3088
-2975
-2731
-2613
-2798
-3127
-3233
-2919
-2349
-1853
-1599
-1519
-1460
-1330
-1131
-940
-898
-1175
-1762
-2350
-2523
-2162
-1612
-1390
-1641
-2014
-2106
-1932
-1922
-2453
-3394
-4229
-4533
-4319
-3939
-3710
-3669
-3658
-3556
-3413
-3405
-3655
-4118
-4637
-5042
-5256
-5313
-5301
-5282
-5264
-5235
-5201
-5228
-5401
-5679
-5835
-5600
-4935
-4155
-3696
-3692
-3825
-3661
-3144
-2699
-2806
-3422
-3962
-3875
-3213
-2550
-2349
-2472
-2412
-1952
-1470
-1498
-2080
-2684
-2804
-2499
-2224
-2252
-2403
-2378
-2160
-1977
-1990
-2160
-2417
-2850
-3530
-4252
-4658
-4649
-4540
-4723
-5154
-5401
-5259
-5136
-5676
-6902
-8047
-8379
-8060
-7986
-8631
-9316
-8844
-6851
-4256
-2290
-1253
-385
1132
3314
5518
7183
8280
9146
10103
11268
12478
13346
13470
12773
11628
10508
9552
8587
7507
6454
5628
5015
4476
4015
3742
3624
3416
2983
2555
2456
2679
2851
2695
2395
2342
2577
2689
2300
1561
1022
1033
1404
1659
1570
1334
1275
1455
1620
1500
1071
526
72
-213
-367
-442
-494
-587
-759
-981
-1198
-1403
-1624
-1809
-1830
-1686
-1607
-1822
-2248
-2491
-2320
-2038
-2201
-2981
-3934
-4445
-4362
-4065
-3966
-4123
-4326
-4423
-4422
-4367
-4269
-4222
-4386
-4810
-5297
-5551
-5464
-5217
-5125
-5387
-5984
-6702
-7259
-7560
-7860
-8550
-9680
-10771
-11263
-11153
-11001
-11244
-11694
-11863
-11707
-11707
-12186
-12826
-13080
-12896
-12762
-12986
-13217
-12908
-12070
-11313
-11101
-11258
-11284
-11002
-10693
-10627
-10673
-10481
-9898
-9136
-8488
-7936
-7219
-6287
-5534
-5457
-6038
-6649
-6765
-6678
-7219
-8711
-10426
-11323
-11206
-10848
-10997
-11473
-11521
-10841
-9921
-9390
-9336
-9493
-9767
-10313
-11130
-11912
-12436
-12851
-13374
-13810
-13686
-12918
-12047
-11665
-11671
-11403
-10564
-9694
-9579
-10225
-10680
-10032
-8467
-7109
-6789
-7227
-7528
-7331
-7192
-7803
-9111
-10429
-11296
-11874
-12476
-12999
-13068
-12624
-12045
-11665
-11411
-10955
-10191
-9335
-8606
-8035
-7590
-7294
-7160
-7080
-6873
-6515
-6182
-6061
-6193
-6441
-6529
-6125
-5079
-3699
-2657
-2423
-2716
-2760
-2155
-1366
-1176
-1745
-2445
-2623
-2296
-2031
-2310
-3167
-4392
-5889
-7694
-9770
-11968
-14111
-16052
-17633
-18645
-18898
-18349
-17120
-15347
-13042
-10117
-6681
-3335
-968
-69
-179
-258
288
1019
1028
93
-978
-1178
-326
839
1509
1473
1015
402
-505
-2394
-3875
-5392
-6782
-8489
-10561
-13312
-15501
-18227
-21028
-22854
-23294
-23970
-27782
-32702
30831
-28980
-16502
-2727
7408
13514
16482
15005
7595
-2315
-7399
-4307
2062
3730
-892
-6081
-7478
-5011
-3402
-3200
-2736
-2377
-7025
-17861
-26643
-23868
-6825
14940
29904
31674
24903
17321
12088
6432
-2662
-14280
-21933
-18939
-6029
5954
6660
-3128
-9803
-2572
16067
29894
29034
17158
6616
1939
-2055
-7976
-12647
-8708
-655
3950
-710
-8598
-13853
-12754
-8004
-2048
3817
5152
-2668
-15410
-21448
-12876
3446
13118
11144
5311
6819
11463
9956
-2143
-14199
-15570
-8431
-4592
-7099
-10389
-5841
1456
-113
-14625
-29130
-26868
-7161
14083
17381
1252
-19839
-25864
-14223
4870
15677
12059
436
-7954
-8350
-1562
4148
4057
-530
-4195
-3790
553
3353
647
-6293
-14429
-19464
-18079
-12345
-4883
1007
2978
1699
22
-1274
-2318
-3507
-4532
-3271
231
3235
3543
1829
1296
1129
-364
-3871
-5440
-1962
3157
3411
-3772
-14021
-17780
-11282
609
8420
7390
-363
-5783
-2726
7549
14112
10637
468
-3317
4067
12637
7800
-9500
-24980
-23690
-7820
8199
13254
8389
590
-4712
-4716
-276
4880
4073
-5170
-16866
-22492
-18695
-12263
-12564
-17754
-20753
-15661
-5318
2135
1568
-4911
-10190
-6671
6133
18388
20499
12341
3536
1147
1364
-3839
-12029
-11688
796
12200
6819
-12489
-24962
-16500
4123
16387
11691
2943
4640
15698
23768
21093
14530
13465
19560
26592
26768
22646
18296
14492
9451
3591
-647
-2388
-4738
-8655
-8380
2771
19902
28497
19285
262
-10208
-3566
8553
9617
-2504
-12933
-10707
-528
4243
-507
-6413
-5337
37
1752
-1355
-4283
-3136
-925
-2321
-7123
-10163
-6364
2777
12298
16213
12671
1218
-13863
-26437
-30352
-22496
-6820
8851
14638
7516
-7025
-18752
-21179
-16083
-10010
-7116
-4299
-423
4665
5547
1643
-3529
-6357
-7767
-7630
-4792
2297
8991
5631
-11139
-29016
-32246
-15851
4803
12742
3552
-8866
-12034
-5198
1471
1669
-669
490
5303
6841
3257
-1412
-2241
-501
-2714
-9657
-15877
-10822
4704
22925
30198
20551
-2316
-25793
31723
-20302
4196
20692
16454
-1844
-15025
-10860
2066
9434
5956
2869
9021
20727
24388
13900
-1652
-8103
-656
12655
19522
13453
-2876
-20809
-31385
-30259
-20120
-7147
1170
3579
539
-4743
-10167
-13574
-13280
-10083
-6032
-4974
-6618
-9531
-11989
-13209
-13451
-13240
-12823
-12343
-12145
-12488
-13096
-13342
-12778
-11562
-10373
-9814
-10089
-11004
-12083
-12827
-12972
-12619
-11997
-11094
-9691
-7864
-6274
-5718
-6281
-7137
-7331
-6644
-5646
-5069
-5126
-5505
-5658
-5094
-3663
-1776
-241
323
15
-543
-868
-1026
-1327
-1841
-2272
-2390
-2352
-2415
-2644
-2902
-3085
-3303
-3724
-4368
-5091
-5726
-6221
-6598
-6849
-6952
-7001
-7186
-7604
-8109
-8464
-8604
-8666
-8739
-8681
-8360
-8003
-8061
-8664
-9308
-9324
-8676
-8092
-8296
-9194
-9998
-10097
-9668
-9324
-9330
-9372
-9059
-8436
-7830
-7323
-6639
-5565
-4368
-3667
-3855
-4759
-5839
-6666
-7161
-7508
-7997
-8807
-9796
-10461
-10308
-9373
-8394
-8196
-8834
-9571
-9737
-9477
-9479
-10006
-10530
-10484
-10091
-10115
-10823
-11518
-11321
-10239
-9216
-9087
-9667
-10035
-9553
-8485
-7642
-7582
-8195
-8946
-9350
-9276
-8944
-8685
-8675
-8795
-8804
-8615
-8428
-8473
-8725
-8935
-8951
-8926
-9087
-9364
-9439
-9179
-8887
-8975
-9440
-9822
-9736
-9303
-8934
-8778
-8568
-8050
-7394
-7032
-7109
-7312
-7275
-7045
-6989
-7276
-7648
-7725
-7461
-7167
-7127
-7320
-7497
-7469
-7278
-7104
-7092
-7215
-7278
-7084
-6724
-6593
-6978
-7636
-7864
-191
-587
-807
-642
-94
658
1473
2391
3519
4832
6109
7071
7580
7684
7500
7095
6475
5660
4748
3879
3148
2565
2092
1707
1409
1167
924
638
346
136
34
-38
-167
-331
-414
-348
-211
-140
-189
-299
-390
-454
-520
-578
-578
-493
-383
-334
-370
-431
-439
-379
-320
-338
-432
-516
-499
-377
-262
-275
-416
-558
-576
-484
-407
-436
-533
-597
-599
-596
-634
-683
-688
-652
-644
-707
-802
-861
-872
-897
-993
-1144
-1274
-1335
-1348
-1373
-1438
-1523
-1584
-1597
-1585
-1587
-1630
-1699
-1765
-1805
-1820
-1825
-1826
-1805
-1747
-1663
-1578
-1505
-1425
-1307
-1157
-1022
-933
-869
-774
-612
-412
-232
-101
-1
106
253
449
663
839
933
975
1057
1237
1459
1599
1616
1610
1693
1853
1970
1972
1911
1888
1920
1951
1953
1958
1981
1988
1946
1889
1881
1925
1951
1916
1851
1808
1792
1770
1733
1709
1705
1680
1616
1553
1552
1598
1610
1539
1435
1396
1454
1547
1582
1527
1438
1394
1424
1477
1468
1359
1219
1173
1273
1429
1492
1415
1299
1278
1366
1443
1392
1234
1095
1073
1135
1180
1148
1081
1051
1071
1086
1046
973
929
926
901
791
626
506
488
518
482
345
203
178
285
429
517
557
617
722
823
879
922
1009
1130
1211
1202
1147
1139
1204
1273
1260
1164
1066
1029
1027
999
936
894
919
986
1026
1008
962
939
947
959
957
959
987
1022
993
830
562
304
163
121
17
-278
-683
-946
-852
-402
229
926
1754
2824
4112
5429
6566
7416
7926
8024
7656
6912
6033
5243
4569
3889
3122
2376
1852
1630
1555
1372
972
471
55
-211
-416
-649
-856
-916
-818
-695
-663
-702
-726
-735
-833
-1061
-1300
-1396
-1342
-1269
-1268
-1281
-1211
-1080
-1018
-1106
-1270
-1366
-1344
-1265
-1216
-1224
-1271
-1336
-1407
-1441
-1385
-1258
-1171
-1233
-1427
-1596
-1599
-1480
-1428
-1585
-1887
-2132
-2194
-2128
-2083
-2135
-2236
-2305
-2324
-2321
-2326
-2351
-2411
-2514
-2639
-2735
-2750
-2696
-2642
-2656
-2736
-2814
-2821
-2761
-2717
-2761
-2861
-2895
-2777
-2568
-2417
-2395
-2426
-2389
-2257
-2110
-2031
-2010
-1970
-1852
-1654
-1411
-1163
-942
-765
-633
-526
-434
-359
-298
-238
-168
-85
23
193
443
720
917
982
972
984
1036
1076
1060
1002
931
855
790
782
857
954
973
896
825
852
915
863
662
453
394
478
549
497
379
351
481
683
814
806
707
603
551
555
588
618
605
530
443
439
573
760
833
722
556
531
677
809
747
531
374
406
530
562
443
283
207
236
310
377
424
456
476
507
560
601
570
459
339
282
282
264
179
72
24
42
72
72
69
110
176
215
212
217
281
393
498
557
580
593
622
693
815
945
994
918
779
704
742
822
838
768
675
622
614
633
674
733
788
816
816
795
736
639
557
551
609
628
521
327
187
180
228
175
-58
-410
-724
-871
-800
-525
-84
507
1264
2223
3384
4671
5922
6916
7463
7501
7131
6552
5920
5257
4504
3643
2785
2104
1690
1488
1349
1151
880
589
324
96
-108
-299
-461
-569
-617
-616
-572
-502
-436
-413
-459
-553
-638
-679
-702
-745
-801
-815
-752
-659
-636
-715
-818
-833
-741
-646
-653
-748
-826
-813
-751
-739
-806
-881
-884
-817
-748
-740
-792
-870
-955
-1056
-1168
-1263
-1306
-1302
-1302
-1364
-1491
-1617
-1679
-1678
-1689
-1794
-1978
-2144
-2210
-2190
-2177
-2234
-2337
-2415
-2427
-2393
-2350
-2320
-2311
-2326
-2354
-2364
-2323
-2236
-2145
-2091
-2064
-2029
-1959
-1857
-1734
-1592
-1443
-1305
-1188
-1061
-886
-675
-498
-409
-378
-313
-160
31
166
213
243
350
544
742
853
869
861
896
980
1066
1107
1101
1084
1089
1129
1189
1240
1248
1206
1135
1076
1052
1055
1054
1030
1002
999
1024
1054
1054
1023
990
983
1003
1012
977
898
821
796
821
845
812
730
672
693
769
816
791
734
719
765
822
835
811
795
801
792
746
691
680
714
735
704
650
633
654
656
605
535
501
495
465
393
333
323
315
237
103
25
72
180
226
172
114
155
286
412
475
503
547
615
677
714
734
754
776
791
789
773
758
767
805
843
839
781
703
644
603
564
527
503
481
438
390
383
436
504
522
481
411
327
205
39
-144
-334
-564
-841
-1066
-1079
-796
-291
319
1030
1943
3104
4392
5564
6410
6841
6886
6631
6162
5543
4803
3978
3134
2369
1770
1366
1121
954
784
564
289
-7
-273
-483
-653
-795
-903
-954
-948
-910
-876
-863
-870
-888
-917
-969
-1052
-1146
-1202
-1177
-1090
-1019
-1040
-1159
-1298
-1357
-1310
-1221
-1183
-1225
-1285
-1279
-1207
-1156
-1202
-1311
-1376
-1344
-1276
-1277
-1363
-1448
-1461
-1433
-1448
-1527
-1602
-1613
-1591
-1626
-1752
-1899
-1967
-1935
-1889
-1941
-2121
-2346
-2491
-2506
-2457
-2465
-2587
-2757
-2859
-2848
-2777
-2721
-2694
-2659
-2604
-2564
-2560
-2549
-2478
-2350
-2233
-2180
-2173
-2148
-2060
-1915
-1759
-1641
-1572
-1510
-1388
-1176
-932
-754
-676
-622
-493
-286
-105
-44
-75
-88
-3
154
304
393
431
460
513
591
670
719
730
722
714
716
726
751
800
855
877
852
817
815
832
815
744
667
639
646
632
587
567
615
687
697
628
555
544
578
586
543
495
491
520
531
511
494
516
560
572
519
421
331
291
297
302
271
202
128
80
65
74
95
105
75
-12
-122
-188
-176
-122
-100
-143
-206
-232
-209
-169
-128
-61
46
153
201
193
202
291
423
499
460
355
287
301
346
345
283
212
185
201
214
201
180
186
219
246
238
209
181
163
151
151
171
205
220
171
46
-120
-263
-354
-444
-623
-921
-1227
-1359
-1203
-806
-289
312
1086
2106
3290
4434
5372
6043
6431
6482
6157
5532
4792
4077
3386
2651
1877
1182
683
378
163
-62
-311
-554
-770
-955
-1105
-1214
-1291
-1359
-1429
-1485
-1507
-1506
-1523
-1588
-1682
-1749
-1763
-1752
-1752
-1753
-1714
-1629
-1554
-1552
-1630
-1728
-1778
-1771
-1743
-1723
-1711
-1689
-1665
-1667
-1709
-1773
-1818
-1823
-1807
-1810
-1855
-1924
-1979
-2004
-2010
-2016
-2025
-2027
-2031
-2064
-2148
-2264
-2371
-2449
-2518
-2618
-2753
-2872
-2909
-2853
-2774
-2768
-2865
-3003
-3084
-3065
-2994
-2952
-2967
-3002
-3010
-2981
-2935
-2889
-2850
-2829
-2836
-2851
-2824
-2722
-2570
-2425
-2310
-2196
-2041
-1845
-1653
-1506
-1403
-1304
-1180
-1030
-869
-713
-570
-449
-357
-284
-210
-124
-56
-38
-57
-55
19
138
235
275
287
318
362
390
398
414
452
489
494
463
412
359
327
345
406
439
374
233
135
162
254
264
136
-19
-74
-26
27
26
21
72
140
134
49
-13
52
210
318
280
133
9
-7
51
86
30
-96
-216
-271
-251
-188
-135
-140
-221
-333
-397
-367
-288
-255
-322
-445
-535
-571
-584
-598
-603
-598
-622
-707
-806
-819
-720
-605
-581
-619
-581
-404
-188
-94
-141
-197
-154
-59
-30
-106
-195
-211
-176
-177
-245
-324
-345
-312
-286
-310
-368
-402
-377
-323
-313
-395
-528
-619
-614
-548
-526
-617
-802
-1001
-1140
-1218
-1311
-1490
-1733
-1920
-1915
-1668
-1214
-592
207
1181
2266
3344
4327
5168
5781
6024
5814
5263
4607
3990
3363
2618
1780
1020
472
105
-211
-565
-935
-1261
-1526
-1728
-1862
-1934
-1965
-1980
-1976
-1942
-1891
-1872
-1919
-2032
-2177
-2304
-2364
-2332
-2239
-2159
-2143
-2157
-2106
-1945
-1755
-1680
-1795
-2015
-2166
-2150
-2023
-1935
-1995
-2176
-2346
-2395
-2330
-2264
-2282
-2362
-2409
-2381
-2331
-2329
-2353
-2326
-2232
-2174
-2260
-2453
-2612
-2660
-2668
-2744
-2884
-2975
-2960
-2925
-2985
-3127
-3214
-3161
-3045
-3013
-3118
-3273
-3362
-3351
-3292
-3243
-3230
-3265
-3341
-3403
-3373
-3221
-3004
-2818
-2708
-2638
-2564
-2480
-2390
-2267
-2080
-1863
-1715
-1681
-1668
-1526
-1214
-860
-641
-616
-676
-662
-515
-317
-188
-160
-151
-57
129
305
363
312
268
310
390
388
269
136
111
199
297
330
332
375
455
480
397
267
206
244
278
185
-26
-197
-180
8
199
240
135
29
52
179
282
262
138
5
-61
-52
4
68
113
129
137
166
218
254
237
180
137
128
102
13
-96
-128
-45
57
53
-67
-182
-188
-112
-76
-158
-321
-476
-575
-620
-622
-583
-529
-502
-503
-482
-385
-227
-85
-10
28
93
211
340
425
460
478
504
525
519
489
466
474
502
522
524
517
516
509
485
453
433
428
413
378
349
358
413
469
473
424
361
297
188
-19
-286
-512
-644
-754
-950
-1215
-1379
-1277
-895
-331
364
1244
2355
3599
4782
5758
6474
6887
6917
6533
5860
5109
4396
3672
2860
2022
1335
915
699
506
219
-131
-451
-690
-864
-1012
-1135
-1216
-1236
-1199
-1141
-1103
-1113
-1172
-1265
-1365
-1448
-1501
-1524
-1524
-1516
-1514
-1519
-1523
-1518
-1520
-1558
-1627
-1675
-1646
-1539
-1428
-1397
-1467
-1581
-1665
-1689
-1685
-1705
-1762
-1823
-1843
-1820
-1799
-1823
-1885
-1936
-1945
-1949
-2015
-2151
-2283
-2332
-2311
-2310
-2393
-2530
-2628
-2650
-2649
-2699
-2808
-2918
-2986
-3032
-3094
-3159
-3181
-3151
-3128
-3166
-3235
-3245
-3152
-3021
-2950
-2958
-2964
-2884
-2723
-2554
-2426
-2319
-2189
-2030
-1873
-1731
-1580
-1400
-1213
-1063
-961
-865
-731
-567
-412
-291
-188
-83
23
121
218
324
420
476
500
542
629
722
756
728
701
726
772
779
738
701
704
725
720
692
687
722
760
754
706
662
652
667
681
678
657
625
595
581
581
568
525
464
431
454
510
552
558
551
559
586
610
605
561
488
407
339
306
312
340
360
350
316
283
276
282
261
187
84
7
-11
-2
-29
-118
-217
-256
-220
-179
-200
-266
-288
-199
-36
100
152
166
231
374
521
588
575
556
588
648
672
641
593
576
593
602
577
528
483
452
422
386
347
320
318
338
351
326
287
290
372
508
606
585
439
242
92
11
-83
-300
-659
-1035
-1238
-1155
-803
-252
476
1420
2582
3866
5118
6195
6978
7358
7277
6795
6086
5312
4513
3654
2749
1925
1320
949
713
492
246
-7
-256
-499
-714
-863
-946
-1007
-1080
-1141
-1138
-1062
-975
-955
-1025
-1142
-1251
-1321
-1350
-1331
-1271
-1213
-1206
-1254
-1307
-1314
-1285
-1273
-1310
-1366
-1381
-1334
-1265
-1232
-1260
-1332
-1405
-1443
-1435
-1400
-1380
-1408
-1487
-1579
-1641
-1660
-1662
-1687
-1748
-1831
-1916
-1994
-2070
-2149
-2231
-2321
-2429
-2553
-2663
-2726
-2744
-2755
-2803
-2883
-2952
-2976
-2967
-2971
-3010
-3056
-3070
-3032
-2953
-2862
-2789
-2748
-2714
-2643
-2513
-2353
-2217
-2121
-2021
-1869
-1676
-1498
-1362
-1236
-1081
-907
-761
-657
-555
-412
-245
-104
-10
73
193
354
513
632
702
745
792
855
918
960
979
997
1035
1088
1124
1128
1121
1139
1182
1212
1204
1164
1126
1118
1131
1137
1115
1067
1028
1033
1081
1128
1128
1083
1037
1021
1017
984
915
854
841
866
883
863
824
804
813
830
834
822
800
766
712
645
600
605
642
657
613
525
457
454
491
498
427
299
187
145
166
191
170
104
43
24
44
74
100
133
191
264
334
397
473
573
672
736
761
770
782
789
772
743
727
731
722
676
616
587
597
602
564
511
514
583
640
602
494
439
497
594
608
507
369
273
211
135
27
-103
-270
-499
-743
-855
-685
-219
446
1229
2157
3286
4575
5843
6849
7421
7518
7221
6668
5971
5179
4303
3381
2510
1805
1321
1016
798
587
354
103
-152
-392
-600
-758
-857
-902
-914
-921
-929
-919
-887
-863
-894
-986
-1095
-1168
-1182
-1147
-1082
-1011
-971
-1000
-1093
-1192
-1236
-1224
-1210
-1225
-1250
-1244
-1211
-1197
-1235
-1305
-1368
-1399
-1399
-1386
-1373
-1373
-1398
-1441
-1477
-1499
-1529
-1596
-1698
-1799
-1879
-1949
-2042
-2156
-2255
-2316
-2362
-2438
-2547
-2649
-2702
-2726
-2775
-2869
-2965
-3005
-2986
-2968
-3001
-3068
-3093
-3034
-2923
-2824
-2755
-2669
-2519
-2326
-2165
-2065
-1979
-1840
-1650
-1481
-1387
-1334
-1225
-1010
-744
-517
-368
-257
-127
38
206
339
431
496
558
636
738
849
946
1019
1086
1161
1229
1260
1250
1233
1244
1274
1279
1237
1177
1150
1166
1188
1173
1122
1078
1071
1089
1090
1047
983
949
981
1052
1099
1079
1018
981
996
1029
1024
971
907
870
854
833
801
789
812
842
836
787
735
726
761
792
774
715
668
667
694
702
673
634
604
559
470
351
258
228
235
219
168
130
161
256
361
430
474
528
612
709
785
813
807
805
837
883
887
829
755
729
751
758
703
632
634
732
841
860
777
689
688
760
808
751
618
509
495
569
670
723
691
575
418
280
184
76
-124
-419
-678
-723
-466
47
731
1566
2589
3784
5024
6120
6921
7353
7402
7095
6503
5736
4888
4011
3139
2337
1698
1266
996
781
549
309
98
-90
-280
-483
-662
-769
-797
-790
-786
-784
-768
-748
-770
-859
-983
-1077
-1103
-1073
-1030
-1008
-1014
-1022
-1007
-970
-950
-982
-1053
-1100
-1071
-993
-947
-978
-1053
-1103
-1113
-1126
-1175
-1228
-1239
-1220
-1226
-1288
-1379
-1449
-1493
-1538
-1605
-1687
-1770
-1853
-1933
-1997
-2037
-2079
-2158
-2270
-2366
-2415
-2443
-2504
-2601
-2685
-2709
-2689
-2679
-2706
-2749
-2764
-2742
-2705
-2675
-2655
-2625
-2573
-2491
-2384
-2253
-2099
-1921
-1736
-1582
-1475
-1393
-1283
-1115
-922
-771
-686
-630
-535
-377
-190
-26
94
190
295
428
567
678
744
785
835
903
957
967
955
969
1028
1101
1152
1185
1222
1257
1259
1231
1221
1254
1281
1234
1122
1047
1085
1194
1264
1245
1191
1171
1188
1188
1142
1076
1031
1013
1001
987
977
972
961
946
941
947
943
899
816
727
663
633
628
637
651
660
652
630
606
587
558
496
402
309
254
250
281
327
384
449
514
578
650
736
830
906
943
942
919
896
886
887
884
856
806
756
724
707
688
669
672
702
737
759
775
810
862
884
836
739
650
620
630
621
565
495
457
453
436
369
273
175
49
-148
-392
-566
-548
-317
73
617
1401
2480
3749
4993
6030
6795
7253
7338
7023
6406
5665
4898
4084
3203
2378
1785
1458
1258
1017
717
452
255
53
-210
-476
-631
-653
-640
-685
-765
-789
-728
-677
-765
-1005
-1271
-1412
-1387
-1277
-1196
-1190
-1207
-1174
-1065
-925
-832
-832
-915
-1014
-1058
-1035
-1022
-1105
-1284
-1445
-1461
-1337
-1211
-1207
-1293
-1338
-1270
-1170
-1167
-1295
-1465
-1584
-1657
-1748
-1892
-2062
-2202
-2263
-2236
-2163
-2125
-2185
-2328
-2467
-2528
-2510
-2475
-2471
-2515
-2609
-2749
-2882
-2909
-2774
-2560
-2432
-2461
-2538
-2463
-2160
-1765
-1497
-1462
-1585
-1708
-1727
-1636
-1480
-1311
-1170
-1087
-1046
-962
-756
-434
-102
102
130
51
-11
1
36
2
-111
-190
-91
199
517
668
608
488
496
669
856
894
762
603
601
834
1200
1494
1549
1371
1140
1038
1073
1073
908
653
508
582
777
909
910
865
880
961
1024
1002
874
681
500
395
362
303
128
-109
-235
-146
75
261
350
435
598
799
941
1016
1065
1042
820
403
39
0
264
494
402
99
-43
170
549
740
615
367
250
338
516
666
780
893
969
918
731
542
525
697
865
819
549
281
240
426
640
748
801
904
1012
967
721
413
205
93
-61
-314
-560
-657
-561
-351
-122
95
270
345
260
30
-254
-476
-551
-436
-106
480
1370
2545
3851
5047
5924
6454
6732
6805
6598
6018
5117
4110
3213
2485
1865
1315
891
648
539
459
353
250
165
27
-276
-758
-1289
-1679
-1789
-1620
-1339
-1174
-1251
-1447
-1400
-856
-28
487
251
-550
-1244
-1334
-979
-768
-1037
-1560
-1834
-1629
-1194
-959
-1090
-1362
-1412
-1102
-657
-443
-589
-829
-808
-501
-287
-529
-1170
-1792
-2072
-2072
-2066
-2174
-2300
-2356
-2414
-2575
-2788
-2900
-2898
-2925
-3072
-3243
-3264
-3105
-2875
-2634
-2312
-1884
-1537
-1541
-1958
-2519
-2850
-2839
-2695
-2685
-2844
-2980
-2919
-2679
-2440
-2340
-2350
-2323
-2143
-1857
-1667
-1764
-2107
-2379
-2220
-1592
-895
-624
-891
-1275
-1238
-693
-93
22
-414
-920
-978
-544
-25
217
262
494
1068
1666
1856
1624
1402
1528
1805
1722
1077
244
-244
-255
-96
-99
-289
-476
-544
-545
-558
-592
-596
-486
-184
314
823
1028
809
411
220
339
462
253
-231
-582
-520
-202
-6
-85
-246
-251
-128
-103
-290
-528
-577
-398
-188
-151
-270
-350
-243
-16
89
-98
-530
-968
-1186
-1149
-998
-873
-779
-638
-436
-269
-202
-138
76
437
716
705
439
177
121
186
136
-122
-428
-554
-406
-65
340
731
1044
1179
1051
705
316
59
-28
-43
-108
-228
-304
-262
-127
3
28
-102
-390
-768
-1108
-1278
-1235
-1061
-896
-792
-688
-491
-147
387
1182
2261
3501
4655
5538
6137
6541
6770
6711
6226
5289
4046
2784
1835
1368
1230
1049
577
-43
-423
-389
-233
-443
-1173
-2064
-2582
-2502
-2024
-1527
-1271
-1286
-1441
-1557
-1529
-1405
-1361
-1559
-1952
-2275
-2286
-1992
-1646
-1493
-1551
-1666
-1728
-1778
-1884
-1965
-1854
-1541
-1254
-1264
-1599
-1990
-2154
-2077
-1981
-2079
-2365
-2656
-2771
-2642
-2334
-2001
-1819
-1886
-2138
-2402
-2555
-2647
-2819
-3125
-3448
-3630
-3613
-3464
-3285
-3134
-3040
-3039
-3131
-3263
-3364
-3422
-3480
-3570
-3638
-3620
-3526
-3425
-3361
-3298
-3183
-3037
-2935
-2905
-2878
-2766
-2568
-2358
-2194
-2048
-1868
-1663
-1488
-1368
-1265
-1127
-960
-816
-715
-615
-466
-281
-117
-8
74
170
272
335
345
347
394
473
518
500
463
480
561
640
649
591
530
511
515
503
463
429
425
441
454
455
457
463
463
443
403
358
323
311
324
343
334
281
218
191
209
225
191
122
68
42
6
-52
-82
-32
52
45
-102
-282
-322
-195
-67
-117
-336
-547
-599
-525
-470
-520
-614
-646
-589
-498
-419
-331
-203
-65
5
-15
-43
20
169
290
284
188
126
167
250
265
195
125
130
186
213
181
138
140
177
194
160
92
27
-30
-77
-103
-102
-86
-85
-121
-192
-302
-448
-618
-791
-967
-1177
-1435
-1688
-1816
-1687
-1228
-457
557
1729
2979
4226
5367
6264
6777
6822
6447
5796
5014
4167
3278
2397
1627
1059
690
438
222
2
-228
-471
-726
-961
-1140
-1245
-1298
-1318
-1303
-1246
-1155
-1069
-1033
-1074
-1176
-1286
-1346
-1334
-1275
-1214
-1170
-1136
-1104
-1096
-1145
-1251
-1353
-1375
-1301
-1190
-1126
-1150
-1226
-1283
-1277
-1236
-1232
-1303
-1415
-1486
-1473
-1425
-1438
-1546
-1697
-1806
-1854
-1888
-1959
-2067
-2177
-2275
-2370
-2473
-2571
-2650
-2720
-2805
-2916
-3053
-3196
-3315
-3372
-3353
-3291
-3248
-3249
-3252
-3200
-3093
-3000
-2978
-3009
-3025
-2993
-2927
-2848
-2737
-2562
-2329
-2088
-1890
-1756
-1656
-1545
-1388
-1176
-942
-745
-621
-532
-388
-146
115
256
226
143
178
368
595
736
806
912
1093
1260
1310
1253
1194
1198
1226
1214
1155
1101
1090
1125
1194
1279
1336
1312
1219
1138
1134
1179
1182
1135
1120
1188
1252
1178
993
885
982
1178
1243
1108
955
992
1201
1374
1358
1209
1068
976
871
729
633
655
730
730
629
547
598
740
820
752
608
509
483
467
406
335
323
389
486
578
676
805
954
1088
1188
1270
1354
1427
1469
1479
1485
1503
1527
1535
1522
1497
1470
1443
1416
1391
1368
1345
1327
1316
1315
1318
1310
1264
1168
1058
1001
1030
1103
1135
1072
940
795
674
570
454
283
35
-256
-488
-515
-243
321
1108
2078
3218
4491
5794
6972
7861
8333
8327
7886
7161
6334
5502
4651
3754
2871
2149
1695
1473
1316
1072
725
384
156
40
-65
-233
-422
-511
-446
-304
-215
-231
-304
-373
-435
-514
-598
-649
-652
-632
-619
-615
-615
-627
-667
-733
-784
-786
-745
-690
-649
-632
-641
-677
-726
-759
-765
-765
-795
-859
-920
-943
-936
-946
-1006
-1097
-1179
-1229
-1266
-1316
-1388
-1470
-1552
-1636
-1733
-1846
-1956
-2039
-2098
-2157
-2244
-2355
-2441
-2463
-2437
-2415
-2441
-2495
-2520
-2483
-2407
-2340
-2298
-2262
-2214
-2139
-2032
-1891
-1736
-1599
-1485
-1357
-1175
-943
-710
-519
-362
-195
1
207
394
550
680
804
937
1093
1256
1400
1514
1614
1724
1840
1927
1968
1982
2005
2042
2067
2070
2071
2106
2181
2264
2319
2338
2342
2353
2381
2414
2432
2414
2360
2306
2295
2334
2380
2378
2321
2266
2276
2341
2393
2375
2302
2240
2226
2240
2226
2166
2080
2007
1971
1976
2006
2033
2024
1972
1903
1860
1863
1887
1882
1818
1708
1598
1524
1491
1477
1467
1457
1450
1445
1448
1473
1534
1620
1696
1743
1770
1792
1813
1827
1836
1852
1871
1863
1814
1755
1732
1754
1775
1754
1709
1677
1658
1617
1544
1484
1477
1500
1476
1372
1240
1177
1204
1243
1214
1124
1039
983
917
786
611
455
329
183
-7
-154
-105
226
805
1567
2511
3665
4982
6309
7458
8305
8785
8847
8474
7751
6853
5939
5052
4172
3327
2633
2177
1915
1699
1417
1088
780
524
294
82
-89
-175
-174
-129
-78
-36
-11
-23
-91
-205
-333
-433
-484
-486
-456
-413
-372
-341
-328
-353
-424
-513
-569
-564
-514
-460
-429
-420
-442
-511
-618
-708
-739
-741
-789
-906
-1016
-1029
-956
-904
-960
-1099
-1225
-1287
-1319
-1382
-1494
-1621
-1730
-1826
-1924
-2018
-2087
-2122
-2138
-2165
-2221
-2302
-2375
-2408
-2401
-2385
-2393
-2424
-2440
-2403
-2309
-2190
-2085
-2010
-1954
-1884
-1777
-1641
-1513
-1420
-1346
-1250
-1122
-986
-859
-715
-507
-255
-39
85
158
272
456
639
740
777
833
953
1084
1150
1153
1174
1260
1361
1402
1369
1320
1309
1323
1328
1324
1348
1409
1459
1457
1426
1432
1500
1561
1527
1384
1220
1148
1185
1259
1285
1252
1218
1246
1328
1399
1402
1346
1283
1245
1218
1174
1121
1084
1079
1105
1151
1203
1243
1236
1173
1092
1043
1026
994
914
818
749
716
693
675
675
691
688
659
659
751
913
1049
1086
1055
1052
1122
1213
1237
1159
1033
949
968
1067
1159
1164
1088
1021
1039
1120
1169
1132
1045
975
949
960
998
1049
1082
1058
971
883
860
890
894
798
610
400
251
180
120
-25
-273
-506
-536
-269
223
818
1508
2404
3558
4836
5981
6794
7224
7324
7131
6668
5985
5172
4319
3502
2769
2166
1705
1370
1120
918
727
502
237
-16
-194
-294
-367
-451
-512
-497
-415
-352
-384
-488
-582
-615
-627
-677
-763
-817
-776
-661
-562
-554
-636
-741
-807
-821
-811
-809
-825
-855
-896
-948
-1010
-1060
-1078
-1061
-1032
-1008
-996
-987
-971
-954
-957
-1000
-1079
-1184
-1284
-1361
-1423
-1492
-1579
-1668
-1745
-1809
-1860
-1892
-1882
-1835
-1806
-1843
-1934
-1999
-1991
-1939
-1917
-1974
-2066
-2121
-2093
-1999
-1890
-1810
-1754
-1679
-1548
-1366
-1189
-1075
-1021
-966
-865
-734
-616
-548
-502
-415
-258
-45
157
298
377
438
535
671
800
873
884
864
864
908
987
1064
1103
1085
1032
996
1022
1105
1198
1238
1214
1171
1170
1233
1316
1349
1297
1201
1142
1147
1184
1194
1158
1126
1142
1186
1185
1103
990
938
973
1005
939
795
711
772
904
958
886
803
827
907
897
765
648
675
780
782
635
498
538
711
813
738
600
569
671
771
753
665
631
686
759
780
763
775
832
881
888
884
913
972
1008
1000
989
1038
1142
1217
1200
1112
1043
1054
1108
1115
1037
924
864
890
926
881
756
660
688
791
806
636
371
199
190
213
97
-132
-276
-151
240
768
1368
2084
2960
3929
4829
5522
5946
6098
5999
5683
5207
4618
3943
3211
2495
1898
1483
1222
1009
759
456
166
-38
-136
-186
-260
-376
-475
-500
-460
-420
-417
-429
-423
-423
-484
-603
-706
-712
-639
-578
-587
-636
-664
-653
-640
-644
-654
-650
-639
-633
-628
-616
-613
-654
-731
-788
-788
-770
-800
-881
-938
-923
-879
-901
-1009
-1116
-1135
-1087
-1070
-1130
-1225
-1276
-1274
-1284
-1365
-1500
-1628
-1703
-1731
-1742
-1766
-1808
-1854
-1875
-1849
-1793
-1753
-1761
-1791
-1788
-1733
-1664
-1625
-1600
-1538
-1426
-1314
-1243
-1183
-1076
-918
-776
-699
-644
-536
-370
-223
-147
-110
-47
60
172
263
349
442
512
535
553
627
750
821
764
633
566
633
762
832
802
745
737
780
819
815
773
716
661
623
617
640
663
659
637
635
671
715
719
674
623
601
605
600
568
519
472
432
391
345
311
312
339
353
324
264
225
250
316
345
283
158
48
7
12
-16
-113
-232
-286
-241
-145
-74
-60
-62
-21
68
154
190
181
168
177
203
224
229
218
203
200
220
244
240
188
114
75
87
106
1029
1023
1000
1002
1013
978
895
833
853
928
966
915
819
765
780
817
834
861
946
1079
1174
1176
1139
1156
1248
1329
1323
1267
1267
1356
1441
1428
1359
1377
1548
1750
1794
1635
1432
1371
1460
1526
1417
1156
917
839
906
982
965
879
818
845
954
1086
1167
1151
1050
919
819
754
662
492
274
137
208
517
1010
1630
2395
3401
4708
6202
7561
8414
8609
8306
7803
7232
6482
5426
4198
3136
2458
2068
1737
1410
1242
1325
1472
1353
849
183
-317
-538
-627
-784
-1038
-1227
-1187
-917
-567
-309
-206
-218
-273
-331
-371
-368
-302
-202
-140
-188
-340
-505
-571
-497
-360
-291
-367
-528
-634
-609
-502
-406
-347
-285
-223
-246
-420
-675
-851
-894
-929
-1106
-1393
-1580
-1515
-1291
-1153
-1231
-1424
-1533
-1503
-1468
-1569
-1781
-1967
-2042
-2038
-2028
-2025
-2002
-1966
-1935
-1875
-1708
-1465
-1321
-1411
-1652
-1805
-1758
-1652
-1686
-1846
-1917
-1746
-1425
-1146
-969
-796
-566
-371
-334
-423
-464
-341
-108
113
272
412
576
748
898
1033
1161
1257
1278
1220
1126
1074
1144
1396
1826
2286
2553
2539
2395
2348
2421
2401
2126
1719
1454
1421
1469
1474
1546
1835
2218
2357
2113
1762
1692
1948
2188
2114
1796
1543
1548
1751
1978
2124
2159
2063
1853
1635
1526
1537
1579
1597
1651
1803
1982
2062
2060
2146
2398
2623
2531
2097
1657
1552
1756
1924
1812
1549
1443
1627
1956
2230
2402
2529
2621
2631
2559
2489
2477
2466
2363
2168
1988
1906
1902
1908
1899
1898
1911
1905
1846
1751
1675
1640
1624
1594
1548
1504
1464
1433
1446
1517
1577
1508
1290
1078
1039
1135
1109
774
264
-44
120
671
1316
1875
2437
3208
4250
5391
6329
6836
6872
6573
6113
5585
4975
4254
3477
2746
2133
1628
1199
841
567
357
153
-106
-413
-718
-947
-1059
-1069
-1042
-1047
-1098
-1178
-1279
-1418
-1572
-1625
-1488
-1246
-1125
-1264
-1533
-1666
-1563
-1426
-1537
-1931
-2342
-2484
-2320
-2054
-1879
-1800
-1714
-1584
-1488
-1502
-1595
-1672
-1685
-1692
-1776
-1936
-2080
-2119
-2051
-1974
-1974
-2052
-2142
-2189
-2208
-2236
-2275
-2294
-2288
-2307
-2388
-2496
-2557
-2553
-2533
-2545
-2570
-2556
-2494
-2408
-2316
-2227
-2167
-2169
-2198
-2146
-1962
-1783
-1829
-2136
-2460
-2520
-2316
-2113
-2111
-2212
-2163
-1872
-1494
-1210
-1033
-880
-750
-725
-789
-780
-571
-246
-12
48
63
194
451
703
830
826
750
677
665
730
820
852
805
799
977
1312
1581
1583
1360
1149
1108
1161
1116
914
690
613
707
857
957
1012
1087
1187
1243
1206
1107
1013
945
872
781
702
671
668
646
626
688
852
999
959
713
442
340
385
409
321
213
206
255
194
-9
-162
-68
208
401
366
263
347
647
933
1008
938
926
1041
1156
1146
1060
1044
1149
1243
1167
936
721
686
826
989
1036
975
955
1078
1295
1429
1366
1188
1063
1049
1055
947
696
422
269
270
326
306
141
-122
-360
-472
-421
-198
237
950
1942
3132
4416
5707
6892
7771
8112
7841
7122
6231
5353
4504
3629
2742
1967
1446
1243
1295
1425
1459
1313
1019
678
362
76
-207
-476
-673
-751
-699
-556
-409
-335
-369
-485
-631
-771
-883
-949
-961
-900
-774
-641
-571
-614
-718
-746
-622
-446
-442
-724
-1148
-1410
-1365
-1184
-1167
-1436
-1800
-1966
-1801
-1436
-1133
-1073
-1238
-1451
-1513
-1360
-1124
-1015
-1138
-1420
-1678
-1770
-1689
-1537
-1432
-1455
-1621
-1862
-2057
-2137
-2130
-2146
-2265
-2444
-2579
-2610
-2571
-2523
-2491
-2467
-2467
-2532
-2655
-2752
-2726
-2574
-2398
-2299
-2267
-2198
-2008
-1738
-1517
-1435
-1471
-1527
-1502
-1371
-1195
-1044
-933
-810
-622
-379
-163
-34
35
121
257
381
398
297
179
145
192
230
209
170
186
273
365
408
425
470
556
630
639
589
537
523
532
519
463
378
313
314
392
524
650
719
727
719
741
796
836
818
754
692
655
620
567
524
545
629
712
728
682
648
679
739
753
712
691
776
970
1185
1337
1423
1488
1568
1656
1730
1792
1850
1892
1898
1871
1850
1885
1970
2040
2032
1970
1944
2000
2068
2041
1910
1807
1867
2057
2207
2213
2177
2259
2456
2600
2554
2360
2153
1990
1813
1581
1331
1084
760
294
-195
-428
-214
363
1061
1767
2627
3850
5414
6993
8153
8667
8634
8312
7859
7241
6376
5349
4415
3784
3440
3207
2976
2794
2735
2720
2529
2040
1373
774
380
142
-69
-304
-495
-554
-476
-345
-247
-213
-215
-219
-224
-237
-266
-295
-312
-321
-348
-410
-493
-561
-565
-481
-329
-183
-129
-187
-301
-406
-496
-618
-795
-969
-1046
-997
-892
-835
-877
-992
-1115
-1204
-1262
-1354
-1546
-1829
-2083
-2173
-2104
-2024
-2073
-2228
-2348
-2349
-2294
-2298
-2393
-2523
-2619
-2677
-2706
-2690
-2621
-2554
-2560
-2645
-2742
-2781
-2765
-2719
-2637
-2495
-2313
-2147
-2032
-1926
-1763
-1555
-1385
-1318
-1315
-1286
-1194
-1054
-884
-664
-397
-167
-73
-109
-140
-32
195
391
465
470
536
686
824
875
873
890
925
924
898
939
1097
1290
1382
1343
1273
1262
1273
1205
1034
848
750
766
843
933
1023
1121
1227
1324
1383
1391
1373
1355
1321
1225
1064
930
942
1082
1176
1070
814
626
653
831
986
1024
981
928
910
960
1092
1250
1308
1198
1013
934
1046
1256
1407
1441
1416
1397
1418
1488
1602
1710
1736
1649
1527
1479
1520
1575
1586
1579
1610
1681
1745
1764
1741
1691
1644
1670
1813
2016
2145
2115
1977
1848
1770
1659
1430
1107
764
415
42
-272
-332
11
689
1495
2319
3279
4545
6065
7512
8520
8942
8896
8590
8114
7462
6649
5786
5027
4454
4043
3749
3564
3451
3303
3003
2535
2024
1594
1222
822
416
163
173
350
494
509
470
471
469
360
141
-73
-187
-227
-263
-281
-237
-163
-166
-294
-441
-484
-438
-415
-466
-524
-508
-461
-500
-646
-793
-834
-788
-765
-832
-934
-998
-1013
-1031
-1090
-1174
-1242
-1283
-1306
-1319
-1340
-1409
-1540
-1689
-1781
-1800
-1817
-1911
-2065
-2296
-2199
-2169
-2165
-2210
-2271
-2326
-2383
-2442
-2482
-2473
-2420
-2361
-2320
-2282
-2207
-2070
-1889
-1723
-1623
-1589
-1553
-1460
-1320
-1197
-1118
-1014
-795
-484
-222
-132
-183
-198
-37
263
516
582
510
486
632
876
1038
1033
960
967
1078
1184
1184
1096
1025
1036
1117
1217
1295
1329
1315
1280
1271
1304
1329
1284
1176
1092
1105
1177
1210
1149
1053
1040
1151
1285
1303
1174
1023
991
1086
1174
1131
982
854
824
854
858
811
766
783
841
870
824
737
699
770
900
978
941
866
884
1026
1156
1127
955
821
862
1008
1069
951
757
671
749
876
914
846
771
772
842
914
945
943
920
882
849
862
925
1011
1091
1168
1225
1174
937
559
195
-92
-448
-1041
-1769
-2262
-2236
-1767
-1155
-518
328
1597
3223
4873
6205
7053
7418
7394
7104
6650
6064
5324
4486
3728
3196
2848
2531
2184
1881
1678
1442
999
378
-168
-426
-466
-529
-740
-960
-956
-698
-415
-395
-711
-1159
-1456
-1508
-1464
-1517
-1678
-1755
-1593
-1254
-929
-729
-609
-502
-444
-488
-597
-667
-655
-633
-704
-873
-1039
-1119
-1099
-1016
-917
-869
-934
-1113
-1316
-1426
-1425
-1405
-1449
-1540
-1615
-1659
-1701
-1740
-1725
-1627
-1533
-1589
-1834
-2128
-2251
-2091
-1735
-1377
-1155
-1091
-1121
-1190
-1251
-1278
-1305
-1428
-1725
-2134
-2430
-2411
-2112
-1785
-1653
-1713
-1785
-1711
-1478
-1170
-886
-699
-631
-582
-390
-11
385
563
501
456
673
1044
1218
1045
813
949
1515
2107
2307
2098
1838
1823
1994
2077
1911
1591
1337
1279
1358
1412
1333
1131
890
697
586
530
473
372
243
163
191
281
311
192
-14
-147
-158
-188
-386
-705
-932
-936
-803
-692
-596
-388
-66
156
62
-277
-570
-656
-675
-838
-1130
-1314
-1189
-818
-427
-158
13
179
362
518
616
669
708
737
754
777
830
910
993
1087
1216
1354
1413
1328
1165
1078
1160
1323
1391
1289
1105
975
927
877
801
777
877
1072
1280
1436
1504
1449
1263
1000
740
464
12
-739
-1620
-2224
-2272
-1866
-1334
-829
-161
951
2510
4201
5631
6562
6953
6859
6412
5781
5103
4400
3630
2827
2135
1673
1412
1213
1001
805
632
373
-76
-641
-1104
-1293
-1235
-1110
-1050
-1026
-921
-698
-467
-375
-471
-682
-881
-990
-1008
-966
-898
-830
-777
-745
-723
-718
-780
-959
-1223
-1438
-1494
-1438
-1441
-1607
-1854
-2032
-2086
-2085
-2087
-2054
-1936
-1794
-1754
-1845
-1938
-1909
-1794
-1744
-1851
-2068
-2286
-2451
-2573
-2667
-2728
-2772
-2831
-2909
-2953
-2915
-2823
-2771
-2816
-2923
-3004
-3011
-2972
-2927
-2882
-2818
-2729
-2649
-2601
-2560
-2474
-2322
-2133
-1953
-1790
-1617
-1424
-1250
-1136
-1074
-1009
-897
-753
-631
-572
-556
-533
-467
-358
-237
-137
-63
-2
67
149
246
363
500
627
695
690
651
637
659
682
684
684
708
748
772
782
814
881
931
905
815
740
733
756
732
644
560
535
543
516
443
387
392
423
403
324
257
266
326
350
297
214
167
143
69
-63
-152
-92
87
241
282
298
441
711
922
914
743
613
620
646
533
321
204
280
449
566
653
858
1225
1601
1789
1755
1614
1471
1327
1163
999
860
717
573
558
850
1425
1993
2232
2106
1902
1920
2126
2176
1786
1046
351
22
14
0
-257
-648
-834
-576
63
829
1572
2382
3439
4769
6159
7281
7903
8023
7836
7568
7304
6946
6372
5625
4943
4559
4460
4405
4141
3624
3018
2490
2079
1724
1379
1059
818
706
738
878
1023
1051
906
656
426
295
226
126
-33
-165
-152
29
266
403
356
174
-2
-53
33
155
188
97
-29
-66
8
71
-8
-222
-423
-486
-448
-449
-565
-733
-840
-860
-871
-936
-1031
-1096
-1101
-1084
-1108
-1204
-1341
-1458
-1516
-1533
-1568
-1651
-1739
-1764
-1719
-1668
-1666
-1695
-1703
-1681
-1666
-1683
-1710
-1711
-1678
-1627
-1556
-1454
-1330
-1220
-1143
-1090
-1043
-1000
-956
-906
-864
-853
-854
-810
-675
-494
-375
-364
-383
-327
-195
-89
-85
-132
-101
72
318
503
542
451
311
192
95
-42
-278
-599
-930
-1203
-1403
-1557
-1676
-1756
-1827
-1948
-2138
-2336
-2450
-2488
-2584
-2844
-3200
-3474
-3607
-3774
-4189
-4829
-5408
-5704
-5836
-6138
-6742
-7373
-7610
-7335
-6829
-6445
-6234
-5943
-5341
-4462
-3533
-2746
-2124
-1563
-957
-280
419
1057
1594
2061
2530
3028
3496
3834
4019
4129
4264
4440
4572
4580
4476
4342
4225
4098
3932
3764
3661
3611
3514
3323
3141
3119
3251
3352
3244
2947
2630
2393
2195
1957
1687
1450
1301
1275
1394
1625
1838
1859
1620
1219
790
344
-176
-761
-1318
-1799
-2232
-2580
-2642
-2206
-1320
-288
646
1540
2636
4002
5327
6152
6284
5931
5474
5110
4756
4258
3645
3112
2796
2630
2468
2254
2034
1795
1396
741
-33
-652
-985
-1153
-1309
-1429
-1363
-1080
-758
-599
-611
-663
-701
-777
-941
-1144
-1289
-1348
-1357
-1338
-1277
-1218
-1232
-1325
-1379
-1274
-1045
-866
-868
-1011
-1142
-1181
-1177
-1228
-1361
-1520
-1653
-1740
-1761
-1697
-1569
-1466
-1477
-1604
-1745
-1781
-1679
-1530
-1461
-1525
-1678
-1819
-1867
-1823
-1761
-1784
-1948
-2212
-2440
-2483
-2312
-2073
-1969
-2155
-2213
-2220
-2039
-1821
-1739
-1823
-1972
-2095
-2195
-2282
-2313
-2238
-2100
-2021
-2060
-2135
-2086
-1859
-1547
-1309
-1234
-1299
-1398
-1417
-1303
-1111
-980
-1001
-1122
-1191
-1100
-876
-650
-528
-514
-538
-512
-407
-276
-207
-234
-288
-266
-164
-84
-120
-232
-282
-205
-90
-71
-174
-297
-340
-304
-263
-261
-282
-311
-366
-476
-626
-749
-789
-767
-761
-816
-883
-864
-735
-593
-562
-658
-798
-931
-1106
-1348
-1541
-1511
-1248
-966
-880
-956
-944
-675
-261
29
50
-90
-179
-104
69
207
230
176
146
206
320
398
395
374
429
551
610
515
346
294
430
619
662
533
417
491
725
909
898
751
651
677
738
722
650
616
595
456
152
-172
-354
-470
-787
-1411
-2073
-2330
-2000
-1297
-567
66
775
1799
3169
4660
5910
6620
6722
6422
6028
5689
5287
4613
3698
2859
2409
2327
2290
2035
1644
1392
1361
1304
934
294
-283
-526
-502
-492
-641
-833
-898
-818
-707
-644
-613
-616
-699
-867
-1019
-1037
-940
-861
-888
-979
-1035
-1028
-1017
-1045
-1085
-1096
-1074
-1052
-1079
-1184
-1346
-1499
-1576
-1576
-1564
-1588
-1605
-1535
-1395
-1305
-1351
-1478
-1541
-1509
-1511
-1674
-1942
-2143
-2186
-2145
-2134
-2175
-2213
-2225
-2258
-2333
-2393
-2379
-2307
-2245
-2252
-2320
-2407
-2462
-2433
-2289
-2095
-2025
-2183
-2432
-2497
-2273
-1974
-1896
-2041
-2108
-1870
-1484
-1315
-1480
-1691
-1602
-1231
-930
-958
-1177
-1239
-991
-613
-375
-344
-357
-263
-90
49
110
150
238
349
405
367
280
219
225
289
382
476
556
625
693
778
880
962
975
881
685
448
277
255
373
503
504
357
216
265
499
703
695
521
380
383
430
355
138
-76
-169
-178
-208
-286
-315
-217
-42
87
106
74
68
90
85
37
25
121
302
459
533
584
718
942
1144
1199
1110
987
911
877
831
749
679
697
822
999
1141
1199
1175
1144
1176
1251
1291
1255
1187
1169
1217
1311
1442
1625
1796
1810
1554
1112
711
447
164
-321
-904
-1188
-854
4
1003
1891
2767
3868
5196
6418
7160
7323
7099
6759
6433
6069
5572
4933
4272
3747
3430
3227
2960
2545
2063
1636
1288
950
584
262
74
47
110
167
192
215
230
188
42
-205
-487
-706
-816
-858
-926
-1072
-1224
-1246
-1083
-831
-661
-671
-797
-897
-876
-763
-674
-729
-936
-1167
-1257
-1163
-1003
-956
-1050
-1161
-1178
-1127
-1133
-1242
-1385
-1495
-1578
-1656
-1700
-1685
-1676
-1770
-1954
-2086
-2072
-2003
-2044
-2223
-2382
-2379
-2258
-2179
-2216
-2294
-2335
-2364
-2438
-2542
-2581
-2514
-2418
-2376
-2368
-2289
-2080
-1835
-1708
-1747
-1849
-1858
-1722
-1540
-1435
-1426
-1407
-1279
-1047
-802
-620
-498
-382
-242
-91
43
147
218
249
241
215
219
289
416
571
715
819
866
869
881
960
1074
1101
954
704
544
608
820
973
957
869
859
941
991
915
776
709
747
777
682
496
370
401
506
508
357
169
102
164
203
116
-5
32
272
516
522
286
65
103
357
541
429
82
-223
-264
-60
184
272
177
45
58
294
640
896
940
818
723
781
933
992
863
688
702
974
1307
1431
1306
1149
1168
1308
1311
1026
597
344
444
761
1028
1133
1194
1340
1497
1459
1123
593
42
-484
-1031
-1541
-1811
-1658
-1130
-441
313
1244
2513
4045
5509
6574
7140
7353
7406
7354
7127
6659
5986
5227
4502
3863
3316
2870
2545
2303
2038
1652
1196
866
790
857
788
462
101
61
463
1052
1439
1457
1241
1002
804
591
339
90
-136
-374
-599
-665
-470
-129
105
98
-5
-1
104
100
-171
-625
-1065
-1411
-1712
-1987
-2129
-2030
-1752
-1484
-1351
-1295
-1188
-1013
-882
-871
-895
-805
-604
-485
-611
-895
-1068
-981
-792
-787
-1038
-1327
-1411
-1302
-1227
-1322
-1465
-1456
-1258
-1036
-968
-1059
-1187
-1245
-1244
-1247
-1269
-1252
-1155
-1009
-891
-843
-832
-809
-777
-787
-856
-928
-934
-890
-892
-1016
-1218
-1400
-1528
-1650
-1787
-1850
-1740
-1499
-1303
-1251
-1212
-951
-416
161
491
545
579
806
1142
1336
1290
1161
1147
1230
1215
1010
755
618
552
340
-86
-512
-681
-608
-560
-735
-1054
-1319
-1461
-1571
-1705
-1786
-1738
-1587
-1390
-1102
-654
-150
153
122
-55
-75
97
171
-100
-587
-925
-902
-645
-425
-377
-435
-491
-496
-463
-416
-379
-374
-369
-274
-29
279
469
418
196
-16
-82
2
164
356
549
703
795
878
1074
1415
1727
1755
1457
1139
1195
1696
2267
2493
2337
2142
2228
2538
2731
2537
1988
1337
811
450
128
-311
-881
-1389
-1549
-1224
-555
179
849
1624
2789
4403
6139
7463
8004
7805
7252
6746
6396
6005
5343
4426
3507
2820
2369
1997
1564
1057
520
-49
-655
-1234
-1682
-1972
-2179
-2380
-2568
-2682
-2700
-2662
-2630
-2617
-2619
-2646
-2707
-2765
-2744
-2602
-2381
-2181
-2074
-2056
-2078
-2113
-2170
-2241
-2281
-2244
-2146
-2054
-2025
-2047
-2066
-2035
-1965
-1894
-1847
-1815
-1768
-1699
-1628
-1590
-1593
-1610
-1619
-1627
-1657
-1719
-1789
-1841
-1887
-1967
-2097
-2252
-2378
-2445
-2462
-2453
-2433
-2414
-2407
-2411
-2403
-2365
-2319
-2324
-2410
-2530
-2594
-2556
-2459
-2376
-2333
-2290
-2205
-2083
-1960
-1853
-1756
-1659
-1570
-1497
-1423
-1317
-1167
-1000
-850
-720
-580
-404
-215
-54
64
164
281
416
538
627
694
763
850
984
1226
1604
2008
2226
2131
1849
1647
1645
1656
1413
914
484
443
764
1120
1260
1253
1331
1567
1785
1782
1556
1294
1157
1147
1180
1203
1242
1350
1537
1757
1945
2039
2008
1881
1756
1762
1942
2210
2403
2405
2250
2097
2070
2118
2063
1801
1439
1214
1265
1506
1728
1796
1756
1758
1895
2130
2348
2469
2490
2461
2451
2496
2592
2702
2774
2778
2732
2693
2710
2768
2793
2730
2608
2522
2528
2587
2604
2548
2452
2365
2325
2357
2441
2476
2350
2050
1704
1445
1237
915
423
-47
-207
40
549
1140
1812
2677
3785
5031
6224
7172
7715
7775
7428
6886
6337
5797
5155
4390
3667
3172
2913
2728
2477
2173
1892
1612
1229
736
288
49
12
17
-74
-216
-256
-142
-2
0
-160
-356
-467
-501
-534
-602
-659
-647
-571
-493
-476
-543
-666
-775
-806
-752
-687
-700
-807
-938
-1020
-1064
-1128
-1233
-1329
-1382
-1431
-1539
-1692
-1817
-1884
-1962
-2135
-2393
-2626
-2753
-2811
-2891
-3042
-3234
-3415
-3575
-3737
-3916
-4097
-4260
-4384
-4460
-4494
-4503
-4498
-4461
-4360
-4196
-4036
-3961
-3987
-4036
-4023
-3952
-3898
-3910
-3936
-3871
-3665
-3377
-3104
-2879
-2651
-2353
-1979
-1591
-1254
-985
-752
-517
-263
19
330
646
926
1147
1344
1568
1816
2028
2146
2190
2233
2309
2362
2326
2205
2083
2041
2071
2085
1995
1827
1694
1689
1783
1852
1791
1604
1380
1216
1134
1090
1027
940
872
868
928
992
988
889
731
557
368
145
-99
-313
-464
-583
-704
-783
-733
-569
-451
-535
-773
-955
-955
-910
-1089
-1508
-1834
-1696
-1094
-417
-37
59
174
523
989
1276
1267
1103
994
984
980
933
918
1013
1181
1291
1295
1294
1430
1688
1872
1808
1514
1191
994
908
829
715
660
756
952
1083
1022
823
644
542
363
-102
-883
-1705
-2209
-2262
-1990
-1574
-1014
-185
960
2314
3716
5016
6042
6587
6588
6261
5938
5725
5407
4795
4021
3417
3106
2878
2494
2000
1640
1477
1271
794
139
-342
-444
-309
-269
-485
-814
-993
-940
-823
-852
-1059
-1306
-1452
-1487
-1471
-1437
-1380
-1327
-1361
-1530
-1773
-1980
-2083
-2108
-2106
-2093
-2074
-2055
-2030
-1979
-1909
-1896
-2031
-2316
-2611
-2760
-2729
-2633
-2613
-2715
-2876
-2996
-3028
-3015
-3038
-3134
-3248
-3282
-3202
-3076
-2988
-2944
-2879
-2787
-2765
-2901
-3140
-3313
-3318
-3236
-3206
-3250
-3258
-3139
-2950
-2831
-2830
-2880
-2912
-2937
-2989
-3044
-3029
-2926
-2801
-2731
-2710
-2668
-2557
-2407
-2286
-2254
-2311
-2391
-2393
-2254
-2012
-1795
-1696
-1678
-1634
-1521
-1404
-1330
-1226
-975
-591
-256
-127
-154
-121
95
378
493
349
97
-29
70
292
470
538
559
628
754
871
919
912
902
903
882
811
717
645
612
609
628
659
664
601
513
536
753
1051
1198
1076
821
645
591
504
269
-16
-162
-110
33
153
251
371
496
567
582
595
626
640
623
637
746
910
1033
1100
1194
1354
1494
1506
1397
1288
1262
1273
1212
1066
933
904
958
989
945
895
951
1158
1405
1487
1327
1098
1075
1287
1386
991
170
-557
-787
-713
-894
-1555
-2266
-2416
-1888
-1109
-476
101
1000
2376
3968
5354
6275
6693
6707
6483
6171
5802
5266
4479
3582
2879
2545
2462
2375
2142
1815
1451
1024
536
86
-206
-370
-532
-735
-868
-806
-569
-314
-196
-253
-420
-599
-733
-840
-992
-1228
-1466
-1536
-1359
-1086
-978
-1131
-1347
-1344
-1062
-742
-666
-887
-1197
-1362
-1341
-1256
-1262
-1390
-1553
-1624
-1534
-1362
-1277
-1373
-1551
-1610
-1505
-1429
-1616
-2046
-2409
-2429
-2183
-2014
-2152
-2470
-2649
-2518
-2218
-2026
-2085
-2313
-2532
-2625
-2604
-2563
-2587
-2707
-2876
-3019
-3074
-3028
-2940
-2895
-2937
-3014
-3014
-2886
-2690
-2560
-2549
-2576
-2524
-2379
-2248
-2194
-2140
-1974
-1715
-1488
-1353
-1196
-885
-467
-169
-159
-360
-526
-473
-219
87
309
391
350
283
319
518
777
877
702
408
293
498
858
1085
1084
1029
1115
1323
1454
1397
1286
1314
1491
1665
1720
1708
1767
1927
2073
2100
2019
1901
1791
1689
1599
1548
1546
1580
1656
1784
1923
1971
1884
1744
1687
1736
1761
1647
1440
1275
1224
1253
1312
1407
1523
1616
1667
1756
1976
2268
2404
2233
1890
1671
1724
1895
1904
1679
1424
1372
1534
1720
1769
1699
1628
1597
1547
1421
1239
1062
945
886
880
944
1048
1083
944
661
378
180
-36
-442
-1059
-1665
-1994
-1986
-1760
-1386
-785
139
1320
2567
3762
4903
5921
6597
6740
6428
5969
5577
5171
4572
3803
3111
2677
2414
2121
1722
1325
1015
720
340
-76
-379
-506
-557
-655
-791
-845
-754
-597
-523
-594
-750
-882
-942
-955
-972
-1009
-1040
-1031
-978
-920
-921
-1011
-1147
-1239
-1232
-1171
-1156
-1240
-1379
-1482
-1501
-1465
-1425
-1403
-1398
-1413
-1452
-1493
-1501
-1482
-1495
-1580
-1702
-1784
-1794
-1785
-1821
-1900
-1975
-2035
-2125
-2281
-2446
-2507
-2419
-2271
-2214
-2311
-2475
-2565
-2543
-2506
-2576
-2753
-2907
-2915
-2789
-2645
-2568
-2526
-2469
-2401
-2377
-2403
-2416
-2374
-2319
-2286
-2207
-1985
-1657
-1412
-1385
-1463
-1401
-1128
-854
-840
-1075
-1252
-1107
-705
-341
-228
-285
-267
-65
182
252
102
-88
-113
5
35
-190
-536
-671
-410
63
399
477
501
719
1112
1417
1447
1268
1065
913
782
671
626
645
635
554
523
669
939
1129
1115
1020
1052
1233
1390
1396
1288
1160
1032
865
686
563
482
359
203
174
401
784
1083
1197
1258
1424
1661
1813
1839
1859
1955
2055
2075
2086
2203
2370
2392
2225
2092
2204
2433
2456
2206
2027
2264
2787
3074
2842
2367
2110
2135
2038
1486
625
-43
-183
68
288
201
-83
-230
-24
389
582
251
-461
-1035
-1013
-387
462
1203
1885
2807
4142
5698
7042
7812
7943
7633
7153
6652
6099
5398
4564
3767
3199
2909
2760
2572
2258
1873
1495
1134
770
419
143
-15
-70
-91
-114
-97
14
180
257
120
-208
-574
-824
-919
-930
-934
-953
-956
-911
-824
-724
-652
-647
-733
-899
-1084
-1220
-1298
-1375
-1529
-1782
-2081
-2378
-2685
-3031
-3368
-3571
-3547
-3346
-3085
-2823
-2515
-2102
-1637
-1260
-1091
-1139
-1313
-1486
-1580
-1614
-1680
-1844
-2045
-2120
-1966
-1680
-1491
-1523
-1671
-1731
-1639
-1539
-1594
-1785
-1935
-1907
-1763
-1666
-1700
-1795
-1840
-1815
-1799
-1856
-1974
-2099
-2200
-2260
-2250
-2143
-1967
-1809
-1752
-1780
-1782
-1675
-1484
-1323
-1263
-1253
-1170
-947
-634
-337
-127
24
174
310
353
265
131
93
198
344
390
309
220
253
417
603
691
651
540
452
441
496
587
681
735
705
579
404
275
234
213
107
-103
-313
-408
-384
-328
-284
-202
-19
213
367
383
340
348
390
332
101
-194
-364
-324
-163
-24
59
156
319
505
626
652
623
601
588
555
496
454
474
545
609
622
591
560
550
552
533
469
364
252
170
125
89
50
33
47
65
47
-18
-134
-327
-621
-995
-1378
-1736
-2124
-2593
-3038
-3218
-2978
-2416
-1764
-1110
-296
877
2374
3890
5080
5783
6048
6014
5795
5435
4911
4193
3339
2508
1878
1507
1313
1155
947
689
401
96
-212
-488
-719
-931
-1130
-1276
-1304
-1181
-949
-715
-592
-634
-795
-966
-1060
-1076
-1091
-1154
-1224
-1204
-1069
-908
-840
-888
-970
-1000
-986
-994
-1028
-1014
-908
-771
-697
-697
-691
-617
-526
-514
-620
-798
-999
-1215
-1424
-1556
-1551
-1442
-1343
-1329
-1374
-1399
-1373
-1326
-1323
-1417
-1613
-1846
-2006
-2026
-1967
-1953
-2017
-2034
-1878
-1586
-1348
-1297
-1378
-1458
-1504
-1601
-1805
-2050
-2240
-2341
-2367
-2305
-2112
-1798
-1454
-1168
-940
-703
-429
-171
4
87
132
192
284
419
606
833
1046
1194
1287
1376
1497
1631
1737
1824
1939
2095
2249
2354
2428
2526
2663
2783
2843
2875
2939
3043
3129
3149
3125
3103
3084
3042
2968
2888
2806
2678
2473
2246
2104
2090
2123
2096
1996
1916
1927
1982
1958
1809
1633
1571
1640
1700
1619
1433
1309
1354
1490
1556
1487
1369
1286
1235
1181
1146
1195
1323
1417
1387
1281
1250
1392
1641
1831
1827
1631
1374
1231
1282
1429
1462
1258
918
673
660
783
841
749
603
536
554
557
511
475
516
615
711
740
673
496
244
0
-194
-439
-897
-1565
-2174
-2407
-2188
-1705
-1140
-452
515
1784
3170
4437
5429
6056
6242
5998
5482
4901
4326
3664
2851
2000
1316
879
574
227
-217
-689
-1126
-1524
-1899
-2245
-2537
-2762
-2921
-3027
-3107
-3180
-3242
-3282
-3306
-3341
-3405
-3471
-3486
-3403
-3222
-3000
-2810
-2696
-2650
-2618
-2543
-2420
-2303
-2253
-2262
-2249
-2132
-1920
-1723
-1643
-1662
-1660
-1546
-1357
-1219
-1204
-1273
-1385
-1556
-1812
-2067
-2148
-1998
-1772
-1696
-1782
-1801
-1563
-1185
-1013
-1248
-1731
-2127
-2293
-2358
-2475
-2600
-2600
-2466
-2345
-2337
-2343
-2186
-1890
-1705
-1822
-2146
-2376
-2357
-2246
-2297
-2531
-2719
-2698
-2581
-2597
-2744
-2744
-2385
-1818
-1404
-1297
-1291
-1090
-688
-362
-347
-603
-888
-1007
-930
-744
-563
-471
-468
-479
-421
-278
-114
6
89
166
233
287
360
514
717
850
833
720
640
628
603
500
354
234
150
41
-111
-240
-275
-209
-94
12
110
225
394
632
876
1013
959
769
600
562
598
561
409
261
241
314
336
246
126
90
120
101
5
-45
73
321
525
588
597
708
951
1188
1274
1226
1187
1277
1469
1641
1694
1635
1521
1407
1314
1248
1204
1135
984
750
537
461
546
694
771
734
646
571
485
311
27
-311
-643
-979
-1375
-1836
-2267
-2508
-2442
-2062
-1467
-771
-2
930
2122
3492
4742
5531
5737
5544
5235
4939
4572
4011
3278
2527
1890
1385
955
545
141
-238
-593
-948
-1309
-1647
-1897
-2013
-2017
-1992
-2007
-2044
-2030
-1945
-1866
-1885
-1992
-2082
-2068
-1952
-1793
-1636
-1498
-1410
-1416
-1518
-1649
-1737
-1772
-1803
-1874
-1954
-1966
-1877
-1751
-1693
-1760
-1893
-1970
-1915
-1775
-1684
-1728
-1867
-1985
-2004
-1950
-1906
-1925
-1991
-2059
-2101
-2108
-2084
-2051
-2052
-2123
-2242
-2319
-2288
-2187
-2137
-2216
-2362
-2435
-2370
-2250
-2207
-2260
-2306
-2245
-2109
-2026
-2061
-2143
-2153
-2056
-1933
-1870
-1869
-1865
-1808
-1700
-1576
-1446
-1314
-1191
-1093
-1012
-912
-771
-612
-480
-393
-321
-218
-67
95
218
283
320
380
480
581
642
680
750
868
984
1035
1029
1027
1064
1108
1129
1143
1182
1220
1205
1146
1124
1174
1232
1222
1169
1157
1186
1158
1023
891
901
1013
1033
861
631
557
667
771
700
486
313
299
384
433
382
295
264
313
382
412
409
441
564
772
1022
1266
1450
1529
1499
1440
1458
1569
1643
1563
1369
1232
1247
1324
1336
1300
1331
1452
1516
1392
1165
1054
1155
1316
1323
1163
1052
1176
1486
1759
1799
1574
1202
816
465
124
-249
-667
-1081
-1374
-1403
-1079
-422
442
1395
2440
3660
5061
6426
7386
7709
7500
7113
6807
6509
5958
5077
4113
3401
3025
2780
2444
2004
1579
1230
880
465
71
-160
-251
-375
-620
-846
-861
-679
-533
-606
-815
-931
-883
-799
-799
-830
-765
-627
-590
-758
-1018
-1170
-1164
-1141
-1233
-1399
-1481
-1359
-1059
-752
-635
-783
-1090
-1358
-1499
-1610
-1823
-2101
-2275
-2263
-2210
-2288
-2403
-2287
-1902
-1597
-1753
-2319
-2837
-2945
-2768
-2726
-3011
-3409
-3589
-3440
-3124
-2851
-2726
-2750
-2855
-2932
-2897
-2787
-2741
-2813
-2855
-2691
-2391
-2217
-2261
-2266
-1922
-1339
-990
-1131
-1467
-1475
-1033
-567
-504
-768
-919
-704
-313
-64
-29
-14
152
423
648
750
751
713
721
845
1082
1314
1390
1292
1181
1245
1495
1749
1791
1603
1384
1351
1563
1863
2046
2024
1868
1716
1625
1547
1429
1279
1153
1072
1022
1004
1035
1107
1152
1087
931
795
764
780
697
433
106
-68
2
190
272
148
-76
-198
-137
20
119
88
-6
-44
22
142
230
251
244
262
293
275
201
153
218
368
473
429
286
206
287
455
562
523
386
259
195
168
130
71
22
20
60
108
124
100
87
148
252
235
-43
-515
-941
-1160
-1299
-1622
-2189
-2726
-2876
-2553
-1964
-1328
-635
281
1502
2931
4346
5503
6204
6356
6070
5611
5164
4680
3995
3099
2235
1673
1438
1316
1110
808
500
195
-187
-664
-1113
-1404
-1545
-1647
-1797
-1945
-1977
-1838
-1625
-1509
-1588
-1816
-2047
-2160
-2155
-2116
-2111
-2143
-2166
-2165
-2174
-2218
-2280
-2337
-2399
-2494
-2584
-2579
-2445
-2294
-2279
-2436
-2632
-2729
-2726
-2742
-2847
-2986
-3065
-3086
-3134
-3229
-3292
-3240
-3104
-2992
-2976
-3046
-3138
-3210
-3255
-3298
-3376
-3512
-3667
-3740
-3665
-3511
-3453
-3596
-3830
-3943
-3859
-3740
-3788
-4006
-4172
-4099
-3827
-3579
-3509
-3568
-3585
-3466
-3280
-3165
-3170
-3214
-3198
-3094
-2950
-2797
-2629
-2426
-2201
-1981
-1783
-1615
-1502
-1451
-1409
-1303
-1132
-1004
-999
-1048
-993
-775
-534
-453
-540
-631
-572
-390
-238
-233
-330
-400
-367
-275
-219
-205
-147
29
253
378
370
363
502
738
839
686
444
407
661
979
1064
844
510
274
183
120
-47
-347
-696
-979
-1130
-1163
-1113
-985
-773
-536
-360
-265
-160
56
385
704
864
824
644
456
393
502
699
811
751
630
637
819
1032
1128
1107
1075
1064
1011
887
776
810
1006
1266
1484
1619
1666
1623
1515
1414
1357
1292
1127
820
425
54
-216
-396
-565
-827
-1228
-1672
-1961
-1930
-1575
-1030
-431
214
998
2011
3208
4383
5264
5683
5698
5522
5337
5160
4868
4376
3735
3095
2606
2334
2214
2053
1663
1063
524
318
410
477
257
-137
-358
-282
-163
-288
-620
-866
-867
-779
-822
-976
-1015
-816
-511
-317
-295
-336
-339
-314
-326
-381
-432
-440
-392
-286
-124
65
211
237
119
-101
-343
-540
-675
-798
-972
-1213
-1455
-1616
-1675
-1695
-1752
-1845
-1910
-1906
-1875
-1885
-1945
-2003
-2016
-2015
-2056
-2137
-2186
-2137
-2016
-1919
-1917
-1987
-2039
-2008
-1904
-1796
-1758
-1817
-1921
-1974
-1911
-1761
-1640
-1641
-1746
-1846
-1830
-1681
-1449
-1184
-904
-624
-377
-187
-40
107
252
334
286
114
-93
-228
-241
-163
-64
7
40
59
94
158
244
330
399
447
468
461
436
431
482
586
686
721
688
649
673
776
918
1034
1079
1049
975
901
844
801
775
785
841
898
898
846
841
970
1175
1266
1113
801
558
520
596
585
420
227
167
266
413
499
522
547
615
704
776
824
866
925
1007
1109
1217
1331
1453
1584
1704
1770
1756
1672
1567
1480
1411
1336
1255
1200
1211
1286
1385
1469
1546
1645
1766
1862
1886
1831
1699
1487
1191
828
449
80
-281
-607
-788
-692
-287
313
972
1684
2578
3758
5148
6485
7472
7953
7972
7716
7394
7102
6777
6266
5499
4601
3822
3337
3113
2924
2542
1924
1229
674
373
275
235
146
18
-73
-70
40
214
374
424
298
30
-227
-303
-152
110
313
379
356
319
290
238
131
-17
-176
-317
-401
-381
-242
-43
124
223
283
331
350
322
276
261
255
155
-88
-358
-444
-262
44
232
203
74
29
107
184
131
-63
-297
-485
-607
-680
-717
-724
-710
-684
-635
-551
-454
-402
-425
-485
-521
-526
-550
-620
-682
-653
-519
-362
-263
-215
-164
-88
-28
-13
-1
71
198
300
314
288
328
473
653
758
760
727
744
823
904
940
959
1020
1137
1257
1334
1379
1441
1536
1618
1637
1606
1578
1586
1615
1627
1616
1607
1622
1648
1656
1633
1585
1522
1454
1385
1312
1225
1120
1015
940
912
908
893
850
796
756
720
640
476
233
-36
-272
-458
-622
-801
-995
-1152
-1216
-1189
-1138
-1139
-1191
-1226
-1192
-1119
-1090
-1136
-1197
-1205
-1168
-1175
-1294
-1481
-1635
-1714
-1757
-1817
-1891
-1930
-1910
-1841
-1733
-1584
-1407
-1248
-1146
-1070
-928
-679
-389
-160
-28
29
12
-129
-406
-733
-1011
-1265
-1618
-2091
-2475
-2473
-1969
-1116
-142
875
2017
3360
4822
6195
7256
7859
7991
7774
7403
7015
6607
6100
5487
4869
4360
3971
3637
3301
2948
2541
2017
1382
793
451
406
513
582
557
531
609
763
859
797
580
303
66
-82
-150
-184
-209
-216
-207
-212
-283
-433
-627
-810
-974
-1145
-1323
-1460
-1527
-1586
-1748
-2022
-2249
-2251
-2057
-1913
-2034
-2356
-2616
-2645
-2540
-2506
-2584
-2644
-2606
-2587
-2727
-2935
-2957
-2697
-2373
-2299
-2525
-2784
-2794
-2545
-2301
-2276
-2426
-2528
-2470
-2349
-2333
-2430
-2498
-2445
-2369
-2419
-2569
-2618
-2453
-2215
-2124
-2205
-2276
-2207
-2091
-2072
-2089
-1943
-1597
-1262
-1132
-1113
-963
-626
-331
-306
-491
-611
-499
-247
-51
28
89
242
489
743
916
1013
1092
1192
1268
1226
1057
904
935
1134
1288
1223
1004
843
834
867
822
751
767
867
922
886
873
983
1114
1073
843
623
565
589
511
325
192
195
237
195
104
98
190
230
113
-76
-166
-110
-30
-46
-140
-203
-169
-58
64
148
180
184
192
218
239
219
161
117
124
141
85
-68
-242
-328
-318
-301
-361
-458
-477
-369
-212
-112
-95
-104
-71
14
89
54
-166
-535
-907
-1134
-1225
-1360
-1672
-2045
-2177
-1874
-1234
-510
183
969
2008
3295
4611
5684
6336
6535
6373
6019
5610
5155
4568
3823
3059
2479
2152
1946
1673
1295
920
631
375
38
-383
-753
-938
-940
-906
-963
-1086
-1140
-1061
-938
-914
-1029
-1193
-1290
-1299
-1271
-1249
-1238
-1229
-1229
-1253
-1294
-1328
-1326
-1249
-1073
-828
-616
-546
-631
-758
-802
-769
-773
-906
-1120
-1280
-1297
-1205
-1123
-1152
-1293
-1456
-1535
-1507
-1445
-1431
-1474
-1513
-1535
-1607
-1785
-2007
-2167
-2250
-2337
-2477
-2595
-2591
-2483
-2381
-2345
-2317
-2244
-2181
-2208
-2311
-2397
-2429
-2466
-2548
-2583
-2447
-2175
-1964
-1950
-2036
-2002
-1782
-1534
-1452
-1532
-1574
-1442
-1200
-999
-874
-715
-468
-240
-192
-288
-302
-78
258
406
250
1
-23
255
600
736
622
453
417
528
668
742
751
722
686
673
735
888
1046
1101
1014
882
826
845
868
873
905
962
934
736
493
453
670
880
795
502
379
619
955
980
657
373
436
686
733
471
188
195
452
704
830
923
1081
1237
1272
1229
1252
1387
1490
1402
1158
954
933
1038
1144
1192
1237
1321
1369
1307
1205
1246
1478
1682
1581
1160
740
645
847
1018
939
729
599
517
246
-281
-820
-1117
-1205
-1312
-1464
-1356
-690
469
1783
3029
4251
5502
6586
7169
7167
6811
6389
5902
5143
4114
3140
2573
2395
2256
1897
1416
1094
1005
934
663
239
-129
-338
-431
-489
-527
-564
-662
-831
-970
-954
-819
-742
-826
-954
-953
-827
-760
-864
-1044
-1131
-1107
-1092
-1166
-1251
-1235
-1111
-939
-758
-563
-388
-303
-337
-421
-468
-469
-465
-446
-360
-231
-206
-380
-661
-849
-860
-804
-826
-936
-1021
-1017
-971
-945
-923
-886
-885
-984
-1163
-1335
-1449
-1540
-1607
-1587
-1453
-1314
-1318
-1453
-1544
-1479
-1365
-1387
-1552
-1687
-1665
-1555
-1496
-1477
-1350
-1061
-772
-674
-746
-783
-648
-438
-343
-402
-462
-375
-181
-45
-38
-59
17
191
351
406
381
372
438
557
663
722
750
782
841
912
952
933
871
819
825
890
968
1010
990
932
891
907
975
1036
1026
945
847
783
756
728
678
621
585
576
578
568
542
506
468
429
395
378
380
383
359
314
292
335
428
508
542
556
604
699
824
972
1151
1299
1299
1117
896
836
959
1063
959
719
590
691
863
888
767
697
794
941
971
871
798
869
1050
1188
1128
833
409
56
-126
-298
-726
-1417
-1970
-1932
-1287
-480
140
729
1711
3175
4684
5737
6246
6478
6611
6542
6109
5374
4575
3882
3299
2783
2350
2016
1732
1438
1157
944
771
520
140
-247
-497
-600
-680
-821
-955
-978
-919
-931
-1091
-1289
-1357
-1276
-1178
-1153
-1155
-1120
-1083
-1103
-1123
-1029
-864
-870
-1192
-1630
-1793
-1523
-1119
-1032
-1364
-1772
-1869
-1623
-1334
-1260
-1353
-1384
-1263
-1111
-1067
-1110
-1138
-1160
-1272
-1451
-1499
-1334
-1182
-1351
-1772
-1964
-1593
-935
-614
-864
-1241
-1180
-718
-445
-784
-1504
-2042
-2167
-2151
-2302
-2565
-2668
-2539
-2389
-2401
-2483
-2405
-2126
-1863
-1810
-1889
-1842
-1533
-1100
-781
-666
-650
-585
-439
-303
-268
-345
-467
-539
-501
-366
-178
53
360
735
1060
1195
1143
1089
1216
1468
1582
1370
931
522
275
80
-218
-604
-881
-867
-561
-114
324
710
1077
1446
1762
1924
1860
1616
1331
1133
1032
948
841
777
865
1093
1309
1360
1237
1066
958
905
815
633
427
333
436
693
973
1140
1139
1041
993
1096
1320
1527
1590
1480
1277
1090
974
908
824
689
541
458
494
614
747
835
882
929
976
978
901
761
620
519
415
232
3
-96
60
335
425
202
-99
-159
-40
-177
-818
-1604
-1890
-1473
-793
-373
-160
400
1674
3408
5002
6070
6630
6849
6816
6563
6169
5713
5183
4548
3894
3382
3096
2947
2778
2516
2167
1743
1249
760
405
238
173
92
-27
-104
-74
12
37
-38
-138
-181
-172
-193
-293
-413
-424
-263
-11
153
108
-87
-250
-257
-147
-77
-128
-234
-284
-280
-329
-469
-580
-492
-195
129
302
341
425
684
1034
1256
1209
953
681
550
567
610
550
369
177
100
171
286
312
218
88
5
-43
-123
-251
-373
-419
-408
-436
-565
-759
-909
-948
-901
-851
-866
-930
-966
-907
-770
-649
-631
-708
-784
-783
-733
-728
-807
-904
-917
-825
-704
-620
-550
-426
-231
-33
99
177
272
413
556
640
680
739
841
912
875
750
638
604
612
586
502
420
413
506
662
818
921
946
918
893
902
904
835
693
563
526
566
592
544
468
439
460
456
374
251
164
153
184
209
222
245
292
350
422
530
680
832
944
1028
1136
1295
1464
1583
1656
1737
1845
1936
1969
1988
2075
2231
2360
2379
2320
2276
2281
2277
2202
2056
1881
1714
1606
1607
1727
1902
2018
2005
1871
1683
1498
1336
1164
909
536
127
-116
-9
438
1048
1680
2377
3296
4494
5815
6987
7788
8142
8135
7939
7689
7379
6894
6187
5407
4805
4488
4302
3995
3473
2869
2352
1930
1497
1006
549
255
179
273
443
629
806
951
1033
1037
977
878
764
667
611
612
675
792
928
1038
1078
1044
983
945
935
920
878
841
861
944
1033
1046
960
846
822
948
1151
1301
1333
1299
1302
1379
1461
1452
1315
1094
880
751
729
727
589
246
-172
-433
-456
-418
-567
-933
-1278
-1357
-1183
-969
-883
-896
-906
-889
-912
-997
-1085
-1139
-1212
-1392
-1672
-1911
-1953
-1792
-1578
-1478
-1514
-1547
-1461
-1271
-1073
-908
-739
-558
-447
-467
-522
-441
-197
16
-13
-241
-390
-259
49
258
220
53
-30
39
161
222
218
210
240
304
392
509
631
697
677
611
568
553
506
391
244
146
139
176
158
51
-87
-154
-113
-28
4
-44
-136
-231
-327
-428
-487
-439
-302
-189
-194
-272
-299
-220
-98
-5
68
169
267
279
205
175
299
518
663
643
556
565
705
862
908
834
713
615
554
501
445
399
370
351
317
258
222
276
433
643
815
865
768
567
350
182
38
-199
-640
-1258
-1846
-2138
-1987
-1447
-713
42
820
1806
3165
4796
6273
7125
7222
6877
6524
6300
6012
5448
4676
3964
3484
3189
2957
2737
2543
2336
2019
1560
1066
672
406
186
-83
-418
-732
-888
-810
-601
-482
-593
-860
-1082
-1180
-1298
-1587
-1930
-2046
-1837
-1552
-1502
-1639
-1594
-1118
-440
-71
-249
-691
-938
-860
-735
-879
-1262
-1567
-1543
-1255
-1003
-988
-1150
-1295
-1338
-1389
-1600
-1950
-2234
-2264
-2073
-1873
-1826
-1916
-2034
-2149
-2321
-2569
-2781
-2810
-2652
-2443
-2321
-2277
-2182
-1949
-1618
-1348
-1292
-1470
-1758
-1986
-2043
-1936
-1738
-1522
-1319
-1115
-893
-660
-442
-292
-282
-446
-749
-1088
-1347
-1430
-1297
-994
-634
-343
-142
69
405
850
1253
1467
1441
1231
918
579
312
189
168
107
-61
-184
-14
528
1211
1696
1867
1901
2016
2234
2384
2322
2082
1808
1591
1433
1307
1220
1164
1116
1064
1015
994
1014
1075
1161
1223
1202
1089
972
954
1058
1187
1233
1167
1017
815
592
440
461
617
735
690
547
515
720
1061
1327
1400
1313
1178
1083
1058
1069
1031
881
644
437
391
520
716
830
778
584
356
203
154
142
88
-13
-98
-131
-140
-177
-256
-361
-508
-730
-1002
-1251
-1442
-1617
-1801
-1894
-1724
-1235
-519
329
1353
2630
4083
5442
6422
6923
7013
6770
6234
5490
4691
3957
3286
2615
1982
1552
1452
1573
1633
1408
897
283
-255
-647
-908
-1043
-1055
-1013
-1002
-1027
-981
-762
-443
-262
-419
-841
-1212
-1264
-1034
-804
-785
-904
-939
-800
-615
-553
-615
-681
-679
-679
-750
-841
-844
-750
-660
-657
-687
-638
-492
-362
-364
-487
-631
-741
-852
-1004
-1161
-1238
-1216
-1185
-1262
-1440
-1581
-1553
-1401
-1333
-1514
-1850
-2045
-1906
-1601
-1512
-1821
-2296
-2517
-2343
-2046
-1982
-2174
-2317
-2162
-1806
-1567
-1592
-1722
-1740
-1653
-1650
-1815
-1989
-1965
-1739
-1491
-1324
-1143
-820
-397
-51
102
116
100
50
-96
-284
-324
-109
207
354
262
192
439
955
1358
1319
925
588
594
823
924
772
589
652
936
1153
1123
976
946
1061
1143
1111
1068
1117
1158
1039
851
872
1177
1443
1301
794
381
420
773
994
831
453
209
254
487
713
813
784
684
618
694
919
1156
1247
1173
1075
1109
1293
1506
1614
1588
1522
1514
1585
1651
1609
1435
1227
1140
1238
1426
1536
1521
1484
1541
1677
1746
1614
1321
1023
848
771
654
411
74
-249
-493
-696
-933
-1202
-1372
-1273
-834
-131
706
1629
2687
3908
5196
6372
7260
7741
7773
7409
6790
6080
5389
4726
4060
3410
2863
2481
2252
2119
2051
2027
1985
1807
1426
910
409
29
-265
-589
-989
-1363
-1546
-1486
-1303
-1156
-1077
-980
-793
-583
-504
-607
-738
-696
-467
-250
-239
-390
-476
-360
-127
46
95
73
32
-32
-75
28
327
646
714
476
192
141
317
423
227
-170
-476
-533
-441
-384
-461
-666
-937
-1191
-1324
-1269
-1101
-1019
-1147
-1374
-1462
-1314
-1102
-1116
-1457
-1931
-2217
-2158
-1889
-1688
-1725
-1926
-2068
-1985
-1720
-1484
-1459
-1625
-1758
-1656
-1354
-1081
-1013
-1078
-1054
-856
-653
-655
-843
-990
-936
-746
-593
-508
-350
-7
415
703
763
691
661
737
820
758
520
260
198
412
743
929
867
699
639
742
876
929
936
991
1077
1107
1079
1104
1239
1374
1350
1149
932
832
806
726
581
502
582
745
825
759
653
632
699
767
769
734
734
808
935
1075
1190
1236
1196
1127
1133
1260
1450
1579
1582
1519
1487
1529
1592
1595
1523
1429
1383
1404
1446
1441
1368
1279
1255
1308
1340
1259
1091
981
1063
1297
1478
1411
1102
757
546
412
128
-418
-1051
-1461
-1490
-1216
-788
-220
588
1675
2908
4101
5156
6027
6621
6829
6654
6261
5815
5330
4714
3949
3172
2547
2099
1734
1360
987
673
411
134
-205
-577
-894
-1086
-1137
-1100
-1066
-1084
-1120
-1083
-941
-781
-730
-833
-1010
-1157
-1259
-1385
-1585
-1806
-1957
-2040
-2127
-2242
-2283
-2155
-1911
-1725
-1706
-1775
-1784
-1707
-1666
-1759
-1909
-1968
-1903
-1817
-1791
-1767
-1656
-1503
-1445
-1532
-1639
-1618
-1500
-1460
-1614
-1892
-2106
-2153
-2098
-2081
-2185
-2375
-2531
-2566
-2508
-2459
-2480
-2528
-2508
-2402
-2308
-2292
-2301
-2232
-2087
-1987
-1987
-1988
-1851
-1599
-1406
-1362
-1331
-1123
-756
-466
-437
-572
-581
-300
142
482
606
624
702
867
984
926
717
486
312
145
-121
-497
-836
-951
-785
-463
-174
1
166
466
911
1358
1657
1789
1833
1865
1879
1863
1860
1933
2064
2133
2055
1863
1696
1668
1732
1715
1488
1104
766
645
725
811
719
467
257
248
372
406
199
-191
-557
-776
-883
-976
-1069
-1085
-983
-825
-688
-523
-202
318
873
1212
1238
1112
1075
1198
1331
1296
1071
800
645
642
702
696
584
429
321
285
256
174
77
79
218
426
627
790
898
861
598
173
-211
-433
-629
-1061
-1783
-2507
-2814
-2519
-1793
-985
-309
328
1232
2617
4319
5827
6659
6769
6554
6432
6434
6246
5629
4702
3796
3128
2676
2329
2017
1716
1380
980
591
325
200
114
-36
-230
-374
-437
-479
-554
-641
-711
-798
-977
-1243
-1488
-1607
-1615
-1624
-1700
-1788
-1820
-1812
-1847
-1944
-2015
-1958
-1807
-1696
-1725
-1845
-1921
-1883
-1794
-1772
-1842
-1917
-1902
-1791
-1664
-1610
-1656
-1779
-1939
-2095
-2198
-2228
-2225
-2254
-2342
-2436
-2465
-2411
-2327
-2279
-2301
-2393
-2542
-2711
-2843
-2896
-2887
-2869
-2897
-2961
-2992
-2921
-2734
-2498
-2342
-2366
-2545
-2735
-2803
-2754
-2717
-2779
-2872
-2845
-2640
-2346
-2082
-1870
-1648
-1380
-1130
-993
-973
-984
-939
-825
-697
-589
-482
-335
-140
68
255
413
536
622
672
694
693
678
667
677
684
632
505
383
364
436
472
381
241
212
324
423
367
201
88
95
121
47
-114
-258
-342
-406
-469
-488
-426
-337
-299
-325
-362
-372
-380
-415
-456
-458
-412
-337
-223
-32
245
550
793
938
1019
1092
1169
1209
1174
1081
991
962
991
1017
983
912
886
943
1005
933
692
410
256
262
317
324
338
501
836
1144
1170
880
489
233
105
-138
-657
-1292
-1651
-1461
-817
-42
660
1405
2450
3864
5375
6558
7149
7181
6879
6442
5927
5317
4615
3862
3115
2436
1901
1573
1424
1309
1060
635
126
-329
-657
-860
-983
-1059
-1108
-1127
-1079
-921
-688
-510
-514
-706
-970
-1183
-1300
-1331
-1289
-1191
-1086
-1038
-1062
-1116
-1159
-1186
-1212
-1230
-1212
-1157
-1098
-1068
-1053
-1017
-961
-909
-892
-896
-898
-892
-903
-955
-1047
-1164
-1292
-1409
-1495
-1547
-1600
-1710
-1898
-2113
-2259
-2277
-2217
-2199
-2317
-2560
-2816
-2950
-2905
-2751
-2635
-2664
-2803
-2904
-2848
-2666
-2517
-2530
-2687
-2850
-2908
-2867
-2812
-2798
-2816
-2818
-2781
-2712
-2617
-2493
-2353
-2232
-2155
-2095
-2014
-1897
-1770
-1664
-1563
-1432
-1268
-1109
-974
-824
-629
-443
-361
-395
-450
-421
-315
-248
-304
-425
-489
-449
-366
-314
-284
-230
-157
-130
-176
-216
-140
58
238
253
123
6
21
125
169
67
-113
-252
-308
-314
-285
-205
-101
-69
-179
-367
-489
-477
-429
-481
-623
-705
-619
-416
-230
-127
-55
45
163
227
211
157
118
98
67
12
-47
-85
-84
-48
2
24
-24
-141
-270
-324
-291
-258
-307
-405
-449
-393
-294
-226
-197
-197
-256
-451
-778
-1115
-1369
-1605
-1940
-2326
-2510
-2282
-1682
-931
-151
761
1935
3284
4499
5295
5608
5567
5329
4961
4463
3859
3212
2593
2063
1665
1442
1379
1358
1207
851
379
-50
-357
-617
-940
-1282
-1447
-1341
-1104
-982
-1058
-1170
-1103
-873
-725
-878
-1273
-1633
-1734
-1611
-1469
-1448
-1527
-1611
-1658
-1677
-1659
-1571
-1421
-1301
-1335
-1529
-1745
-1810
-1702
-1560
-1543
-1646
-1726
-1682
-1576
-1553
-1638
-1720
-1701
-1662
-1763
-2007
-2165
-2068
-1844
-1803
-2055
-2366
-2444
-2279
-2131
-2197
-2407
-2563
-2613
-2669
-2814
-2969
-3009
-2947
-2925
-3037
-3231
-3337
-3215
-2858
-2425
-2135
-2082
-2132
-2052
-1768
-1453
-1347
-1479
-1630
-1582
-1363
-1183
-1171
-1227
-1161
-935
-695
-618
-707
-798
-724
-476
-213
-123
-232
-386
-381
-171
86
177
56
-107
-98
113
350
431
379
378
538
753
817
670
468
395
453
481
381
237
198
268
288
139
-124
-346
-441
-472
-541
-651
-716
-676
-572
-499
-494
-506
-461
-370
-330
-396
-488
-466
-269
10
238
376
491
633
754
766
648
472
326
238
179
141
129
139
145
156
215
334
422
355
148
-10
74
378
640
623
369
165
214
393
412
134
-272
-548
-657
-786
-1054
-1299
-1234
-815
-322
-5
263
887
2066
3496
4638
5230
5480
5728
6031
6120
5744
4986
4153
3472
2933
2419
1930
1604
1517
1547
1442
1055
523
150
108
232
188
-189
-698
-936
-706
-221
88
-24
-389
-628
-552
-317
-204
-305
-468
-528
-502
-509
-572
-608
-567
-538
-632
-789
-821
-661
-461
-412
-506
-567
-505
-428
-499
-713
-897
-926
-868
-899
-1095
-1332
-1394
-1198
-916
-849
-1112
-1494
-1640
-1434
-1148
-1162
-1537
-1945
-2037
-1811
-1570
-1552
-1681
-1741
-1671
-1607
-1666
-1796
-1840
-1765
-1705
-1796
-1987
-2117
-2103
-2018
-1961
-1928
-1851
-1706
-1543
-1399
-1222
-949
-645
-464
-460
-502
-400
-110
212
421
544
698
897
1039
1033
939
905
974
1064
1088
1075
1144
1353
1616
1788
1814
1775
1753
1765
1746
1671
1578
1525
1511
1529
1587
1693
1785
1779
1677
1573
1515
1451
1345
1267
1362
1649
1925
1981
1829
1664
1637
1672
1595
1390
1211
1196
1302
1374
1342
1305
1417
1685
1951
2021
1871
1708
1759
2023
2242
2188
1907
1686
1731
1960
2107
2027
1818
1663
1635
1673
1694
1666
1591
1502
1467
1548
1714
1828
1794
1660
1547
1498
1419
1200
842
436
54
-256
-410
-352
-134
129
444
998
1935
3136
4286
5199
5950
6678
7320
7631
7461
6903
6180
5453
4769
4110
3464
2837
2306
1987
1884
1815
1553
1075
629
443
407
207
-252
-684
-752
-496
-283
-343
-498
-432
-149
11
-203
-621
-836
-663
-327
-181
-313
-491
-456
-200
97
292
385
433
461
477
502
535
520
414
268
187
225
298
303
268
277
341
357
234
23
-158
-274
-373
-477
-531
-523
-568
-762
-997
-1050
-864
-663
-723
-1026
-1274
-1243
-1040
-943
-1081
-1334
-1522
-1608
-1660
-1730
-1783
-1765
-1671
-1532
-1387
-1280
-1210
-1146
-1052
-933
-864
-902
-1000
-1049
-977
-816
-660
-564
-500
-386
-183
34
147
135
105
198
424
627
663
588
594
763
976
1053
989
950
1059
1235
1314
1258
1199
1258
1411
1519
1488
1365
1256
1231
1286
1349
1361
1309
1227
1162
1132
1125
1123
1116
1085
1001
863
733
692
745
810
814
758
701
699
743
797
846
897
962
1056
1194
1365
1495
1513
1430
1364
1413
1530
1575
1472
1319
1263
1324
1402
1401
1344
1312
1321
1315
1264
1205
1178
1174
1167
1181
1276
1437
1515
1346
936
489
199
25
-273
-830
-1457
-1792
-1644
-1159
-595
-32
679
1679
2908
4164
5246
6027
6435
6470
6228
5858
5451
4984
4401
3717
3024
2420
1963
1674
1478
1215
773
231
-184
-345
-404
-614
-999
-1311
-1353
-1218
-1148
-1211
-1254
-1174
-1090
-1164
-1367
-1506
-1476
-1373
-1329
-1364
-1408
-1423
-1431
-1437
-1416
-1374
-1363
-1411
-1459
-1434
-1358
-1326
-1405
-1558
-1689
-1748
-1749
-1723
-1709
-1754
-1881
-2037
-2113
-2041
-1883
-1765
-1751
-1797
-1820
-1801
-1781
-1799
-1847
-1911
-1989
-2086
-2176
-2182
-2055
-1840
-1656
-1604
-1662
-1662
-1440
-1085
-882
-991
-1243
-1346
-1265
-1289
-1636
-2110
-2332
-2279
-2369
-2880
-3459
-3443
-2692
-1839
-1549
-1709
-1596
-850
29
296
-135
-626
-619
-259
-74
-242
-406
-179
383
892
1101
1121
1195
1377
1514
1439
1138
769
530
489
550
564
489
420
476
640
766
758
668
581
490
295
-30
-354
-531
-549
-520
-515
-477
-310
-11
321
566
652
585
446
345
362
486
629
709
740
806
962
1152
1259
1210
1043
879
804
803
804
765
724
729
789
860
893
880
839
770
663
535
444
440
499
516
398
159
-89
-224
-251
-284
-390
-505
-553
-618
-896
-1428
-1954
-2161
-2085
-2142
-2620
-3249
-3402
-2756
-1657
-733
-188
372
1433
3008
4626
5796
6370
6503
6405
6185
5868
5428
4829
4078
3280
2609
2167
1924
1754
1568
1352
1111
836
544
303
154
69
-13
-90
-77
95
359
552
569
461
361
324
273
118
-109
-287
-343
-348
-421
-594
-788
-903
-932
-954
-1036
-1166
-1272
-1315
-1332
-1404
-1546
-1684
-1715
-1630
-1533
-1541
-1661
-1784
-1806
-1746
-1729
-1855
-2076
-2243
-2236
-2083
-1942
-1949
-2086
-2188
-2126
-1948
-1840
-1921
-2120
-2271
-2299
-2276
-2294
-2348
-2372
-2356
-2341
-2347
-2335
-2273
-2199
-2179
-2218
-2272
-2307
-2324
-2315
-2261
-2182
-2135
-2141
-2107
-1922
-1617
-1356
-1261
-1275
-1233
-1065
-857
-729
-687
-647
-547
-414
-301
-222
-144
-45
49
81
26
-52
-51
70
230
288
201
86
86
194
270
219
107
64
115
177
201
233
315
399
387
267
140
95
118
120
31
-150
-375
-558
-612
-502
-300
-139
-87
-69
42
279
544
721
784
792
816
876
952
1023
1083
1140
1208
1285
1350
1372
1355
1344
1371
1397
1356
1247
1164
1198
1336
1469
1506
1456
1387
1353
1368
1405
1434
1451
1474
1509
1511
1424
1229
982
751
522
209
-205
-561
-620
-291
297
968
1709
2672
3965
5467
6871
7881
8363
8368
8067
7637
7189
6702
6092
5345
4566
3911
3438
3055
2611
2047
1423
846
384
37
-224
-420
-521
-499
-378
-243
-164
-127
-74
4
24
-85
-265
-357
-262
-65
56
34
-39
-54
-29
-77
-219
-331
-278
-88
67
71
-17
-66
-27
4
-82
-264
-403
-412
-369
-453
-733
-1070
-1232
-1128
-881
-671
-546
-412
-197
42
178
153
6
-226
-548
-939
-1299
-1525
-1624
-1711
-1873
-2058
-2148
-2115
-2063
-2109
-2256
-2413
-2500
-2518
-2514
-2505
-2463
-2370
-2253
-2162
-2116
-2101
-2091
-2070
-2035
-1975
-1877
-1752
-1623
-1488
-1309
-1069
-818
-643
-559
-486
-337
-147
-38
-65
-139
-131
-34
46
36
1
41
151
230
226
206
258
370
446
447
435
467
508
480
389
319
330
393
456
512
584
653
671
654
672
743
772
672
496
405
468
579
594
503
419
411
429
412
392
445
566
661
672
655
699
813
928
989
1008
1024
1050
1084
1129
1179
1199
1167
1108
1058
1014
945
875
886
1012
1173
1245
1214
1186
1264
1429
1546
1476
1186
768
358
38
-247
-638
-1179
-1695
-1897
-1661
-1139
-559
62
928
2187
3673
5012
5927
6400
6578
6569
6380
5974
5367
4663
4011
3523
3211
2984
2749
2484
2203
1878
1451
924
407
30
-199
-370
-515
-575
-514
-406
-367
-405
-416
-348
-304
-426
-696
-916
-907
-693
-466
-377
-417
-467
-470
-506
-707
-1078
-1468
-1704
-1772
-1834
-1999
-2160
-2119
-1843
-1560
-1492
-1571
-1535
-1294
-1061
-1079
-1302
-1460
-1445
-1480
-1785
-2205
-2336
-2043
-1687
-1704
-2088
-2398
-2290
-1903
-1633
-1650
-1782
-1841
-1837
-1870
-1930
-1958
-2026
-2288
-2734
-3093
-3114
-2842
-2526
-2330
-2186
-1965
-1687
-1472
-1350
-1262
-1188
-1189
-1304
-1444
-1478
-1381
-1220
-1061
-953
-909
-927
-931
-831
-684
-667
-861
-1073
-999
-591
-136
62
25
25
233
521
663
606
486
460
563
740
923
1021
941
687
393
218
210
269
293
265
229
212
235
350
607
907
1048
945
756
752
1007
1292
1308
1012
654
480
480
467
340
197
193
335
469
453
318
232
330
566
739
676
404
169
239
617
1020
1151
1011
879
969
1177
1214
949
547
271
200
213
180
90
-5
-73
-90
-18
122
172
-31
-431
-780
-911
-981
-1284
-1843
-2312
-2350
-1995
-1557
-1204
-762
22
1129
2301
3332
4218
4974
5475
5581
5359
5026
4700
4275
3646
2926
2359
2029
1773
1409
1005
772
768
779
557
121
-263
-365
-215
-53
-72
-242
-382
-364
-213
-59
-27
-149
-332
-442
-404
-267
-170
-194
-283
-318
-286
-323
-536
-846
-1032
-971
-780
-685
-762
-847
-756
-521
-377
-485
-725
-829
-723
-624
-792
-1193
-1512
-1507
-1273
-1130
-1246
-1487
-1616
-1551
-1413
-1353
-1410
-1549
-1752
-1973
-2111
-2072
-1924
-1875
-2048
-2323
-2459
-2361
-2180
-2120
-2201
-2264
-2197
-2065
-2023
-2144
-2358
-2553
-2665
-2681
-2622
-2503
-2343
-2151
-1914
-1617
-1299
-1037
-878
-785
-675
-519
-375
-306
-290
-213
23
411
796
995
934
749
685
844
1057
1057
787
500
497
809
1169
1319
1281
1264
1385
1531
1540
1428
1378
1525
1783
1919
1742
1297
830
601
675
864
889
632
276
144
391
843
1166
1201
1070
993
1021
1049
1011
1013
1159
1391
1512
1437
1351
1507
1882
2155
2087
1821
1697
1820
1959
1889
1728
1796
2153
2450
2294
1739
1244
1167
1395
1502
1259
873
741
1040
1590
2056
2208
2024
1660
1343
1197
1121
833
165
-664
-1157
-1007
-417
122
412
761
1618
3044
4633
5908
6697
7126
7338
7363
7206
6889
6389
5613
4593
3629
3077
2957
2897
2528
1910
1429
1303
1296
1028
441
-153
-462
-488
-413
-341
-238
-120
-111
-269
-501
-645
-664
-649
-679
-737
-765
-726
-573
-259
138
368
212
-249
-652
-724
-571
-541
-815
-1170
-1264
-1044
-788
-763
-911
-959
-811
-683
-832
-1203
-1493
-1517
-1399
-1399
-1576
-1736
-1705
-1513
-1327
-1232
-1182
-1127
-1103
-1194
-1412
-1668
-1856
-1920
-1920
-1962
-2084
-2205
-2181
-1968
-1696
-1524
-1512
-1585
-1635
-1624
-1562
-1437
-1266
-1144
-1169
-1277
-1274
-1030
-646
-375
-359
-488
-529
-363
-79
150
236
241
273
351
433
505
602
767
950
1071
1128
1197
1335
1478
1503
1406
1309
1325
1415
1444
1371
1297
1344
1513
1690
1766
1743
1718
1787
1937
2043
1991
1797
1613
1580
1666
1690
1540
1317
1218
1314
1472
1530
1469
1370
1261
1104
896
738
722
797
849
842
872
1023
1244
1407
1464
1480
1518
1556
1565
1587
1673
1782
1824
1804
1830
1946
2031
1935
1691
1510
1544
1710
1817
1805
1784
1876
2061
2221
2295
2300
2239
2055
1713
1289
901
573
211
-274
-837
-1298
-1471
-1300
-850
-215
573
1546
2736
4085
5415
6486
7120
7309
7197
6942
6597
6118
5467
4717
4026
3504
3136
2829
2497
2097
1637
1157
725
414
223
86
-65
-221
-317
-310
-222
-120
-66
-100
-218
-389
-570
-719
-812
-838
-819
-808
-859
-968
-1047
-1004
-839
-665
-597
-646
-709
-702
-640
-621
-718
-917
-1115
-1206
-1160
-1049
-991
-1034
-1119
-1166
-1170
-1188
-1245
-1284
-1244
-1159
-1122
-1170
-1246
-1279
-1279
-1299
-1374
-1493
-1637
-1776
-1855
-1846
-1813
-1880
-2071
-2238
-2216
-2052
-1983
-2124
-2321
-2340
-2174
-2048
-2096
-2158
-2030
-1772
-1648
-1746
-1832
-1661
-1361
-1301
-1593
-1891
-1768
-1230
-733
-656
-883
-961
-620
-65
287
273
114
102
277
427
409
320
361
596
885
1068
1128
1179
1295
1440
1527
1539
1505
1485
1516
1608
1720
1775
1672
1410
1108
942
1016
1291
1610
1811
1839
1735
1549
1319
1048
722
307
-196
-658
-866
-671
-189
251
415
424
595
1082
1658
1956
1874
1647
1569
1719
1962
2138
2189
2163
2147
2194
2266
2239
2025
1681
1378
1236
1221
1223
1176
1088
987
851
674
474
298
165
96
134
278
414
372
113
-237
-478
-529
-501
-599
-953
-1508
-1999
-2110
-1697
-948
-240
206
566
1206
2256
3376
4022
3941
3361
2729
2292
1959
1512
904
318
-33
-142
-197
-403
-753
-1060
-1191
-1232
-1380
-1705
-2089
-2343
-2405
-2368
-2331
-2306
-2264
-2207
-2173
-2166
-2165
-2169
-2214
-2305
-2395
-2431
-2439
-2495
-2630
-2788
-2900
-2952
-2970
-2954
-2874
-2719
-2527
-2345
-2193
-2085
-2026
-2003
-1965
-1870
-1734
-1623
-1559
-1483
-1339
-1167
-1075
-1092
-1115
-1022
-844
-745
-820
-967
-998
-874
-771
-877
-1154
-1368
-1347
-1173
-1074
-1164
-1338
-1416
-1346
-1243
-1247
-1388
-1579
-1716
-1736
-1643
-1493
-1366
-1332
-1383
-1432
-1408
-1342
-1341
-1456
-1611
-1678
-1616
-1509
-1459
-1461
-1401
-1177
-819
-481
-309
-295
-285
-115
224
567
730
685
576
564
691
873
1011
1061
1029
957
913
971
1143
1341
1450
1434
1356
1295
1260
1216
1157
1137
1200
1311
1405
1442
1462
1542
1725
1987
2222
2310
2203
1986
1825
1815
1910
1974
1925
1804
1718
1721
1793
1889
1982
2045
2037
1953
1871
1906
2085
2283
2340
2228
2075
2016
2055
2082
2008
1852
1691
1561
1455
1367
1315
1312
1337
1351
1337
1320
1350
1440
1553
1616
1581
1464
1302
1109
859
550
233
-53
-333
-645
-906
-915
-519
208
1032
1819
2675
3799
5194
6561
7512
7859
7718
7348
6921
6437
5816
5038
4207
3484
2972
2669
2492
2332
2106
1771
1337
877
472
168
-69
-286
-492
-650
-711
-667
-565
-478
-463
-535
-658
-763
-797
-771
-742
-748
-753
-700
-605
-554
-593
-637
-543
-303
-109
-173
-475
-763
-835
-776
-864
-1229
-1685
-1915
-1801
-1530
-1355
-1331
-1306
-1152
-925
-778
-769
-820
-865
-944
-1129
-1384
-1586
-1675
-1718
-1817
-1967
-2062
-2042
-1964
-1934
-1993
-2108
-2214
-2230
-2085
-1801
-1549
-1541
-1798
-2093
-2188
-2101
-2084
-2315
-2697
-2993
-3078
-2995
-2787
-2424
-1916
-1413
-1092
-950
-808
-548
-266
-133
-180
-252
-188
26
312
623
970
1333
1635
1809
1864
1878
1907
1957
2019
2084
2153
2211
2236
2233
2238
2305
2454
2637
2748
2717
2595
2515
2559
2655
2657
2526
2376
2338
2409
2475
2462
2423
2429
2438
2353
2179
2046
2062
2166
2175
1994
1733
1575
1577
1618
1566
1429
1343
1402
1563
1700
1746
1753
1798
1864
1864
1747
1575
1465
1447
1443
1369
1243
1171
1208
1297
1324
1251
1130
1030
960
900
858
850
866
885
906
928
901
749
471
166
-95
-374
-771
-1224
-1489
-1351
-859
-250
349
1050
2032
3305
4658
5808
6554
6830
6712
6379
6005
5628
5137
4452
3677
3044
2670
2444
2168
1758
1301
893
529
153
-199
-410
-440
-393
-415
-513
-557
-458
-298
-238
-320
-430
-467
-481
-570
-697
-704
-535
-352
-373
-613
-872
-976
-955
-974
-1106
-1266
-1339
-1313
-1256
-1232
-1246
-1272
-1300
-1338
-1410
-1514
-1615
-1661
-1633
-1578
-1572
-1636
-1705
-1711
-1661
-1639
-1701
-1823
-1935
-1991
-1996
-1981
-1981
-2012
-2050
-2059
-2036
-2030
-2094
-2206
-2269
-2225
-2121
-2061
-2073
-2085
-2052
-2042
-2155
-2370
-2552
-2605
-2574
-2540
-2471
-2252
-1878
-1526
-1377
-1412
-1451
-1411
-1398
-1540
-1779
-1910
-1812
-1574
-1350
-1169
-943
-644
-377
-266
-294
-329
-285
-223
-259
-409
-557
-573
-445
-260
-120
-63
-77
-108
-82
37
199
281
189
-14
-138
-72
65
31
-267
-639
-796
-654
-420
-364
-523
-687
-652
-443
-245
-200
-274
-326
-282
-196
-164
-217
-277
-247
-99
103
267
361
428
540
699
822
826
711
593
635
881
1180
1295
1134
861
744
864
998
872
472
63
-116
-126
-203
-405
-555
-469
-190
64
169
159
70
-161
-601
-1151
-1631
-1979
-2275
-2587
-2792
-2661
-2085
-1185
-182
813
1846
2978
4115
5011
5440
5393
5098
4806
4548
4141
3438
2552
1795
1338
1039
613
-62
-780
-1233
-1328
-1250
-1243
-1369
-1494
-1484
-1377
-1334
-1452
-1670
-1871
-2010
-2151
-2355
-2593
-2783
-2892
-2940
-2934
-2848
-2685
-2552
-2581
-2770
-2962
-2999
-2906
-2884
-3075
-3354
-3445
-3208
-2807
-2548
-2566
-2715
-2759
-2628
-2476
-2497
-2737
-3077
-3365
-3531
-3592
-3605
-3596
-3566
-3506
-3419
-3349
-3364
-3497
-3695
-3865
-3959
-4018
-4113
-4232
-4304
-4287
-4215
-4157
-4148
-4178
-4258
-4411
-4600
-4700
-4596
-4334
-4095
-4033
-4136
-4261
-4287
-4215
-4129
-4120
-4205
-4301
-4270
-4036
-3669
-3331
-3115
-2961
-2752
-2494
-2322
-2328
-2407
-2377
-2184
-1930
-1723
-1540
-1330
-1128
-1025
-1021
-999
-893
-791
-818
-933
-948
-748
-441
-235
-204
-245
-259
-275
-363
-483
-513
-413
-305
-316
-392
-340
-83
196
221
-74
-438
-561
-414
-259
-353
-640
-816
-685
-375
-179
-212
-316
-312
-222
-182
-210
-164
25
210
211
86
101
372
687
732
467
174
126
280
372
259
69
11
113
197
114
-60
-120
10
171
139
-66
-185
-11
358
611
562
315
96
-34
-196
-478
-824
-1151
-1509
-1959
-2367
-2410
-1859
-865
172
1002
1785
2880
4366
5799
6572
6501
5997
5582
5323
4830
3846
2688
1951
1818
1846
1512
805
176
-51
-45
-219
-731
-1339
-1735
-1841
-1791
-1742
-1745
-1769
-1766
-1729
-1752
-1953
-2303
-2543
-2419
-2018
-1739
-1848
-2141
-2185
-1886
-1649
-1841
-2294
-2514
-2287
-1926
-1841
-2021
-2107
-1917
-1664
-1661
-1937
-2269
-2501
-2651
-2773
-2855
-2869
-2878
-2956
-3068
-3116
-3089
-3080
-3161
-3283
-3358
-3383
-3418
-3480
-3532
-3571
-3643
-3779
-3945
-4079
-4162
-4227
-4312
-4408
-4485
-4506
-4440
-4293
-4159
-4157
-4315
-4490
-4486
-4281
-4073
-4064
-4215
-4280
-4096
-3764
-3522
-3455
-3414
-3233
-2946
-2743
-2709
-2724
-2641
-2478
-2376
-2399
-2440
-2350
-2117
-1859
-1692
-1610
-1507
-1267
-868
-439
-172
-170
-340
-431
-255
118
406
382
97
-169
-143
202
616
780
596
293
199
422
742
870
757
606
611
773
969
1101
1150
1102
932
757
771
1005
1217
1163
904
763
913
1145
1188
1055
988
1088
1203
1218
1245
1433
1696
1755
1542
1344
1431
1671
1656
1248
804
811
1285
1738
1710
1254
874
966
1410
1737
1656
1335
1129
1182
1348
1413
1285
1030
716
376
54
-219
-479
-778
-1063
-1143
-897
-414
148
767
1607
2759
4061
5245
6173
6851
7277
7384
7151
6699
6176
5571
4786
3836
2962
2448
2351
2415
2317
1939
1433
1023
783
605
320
-115
-569
-862
-917
-789
-601
-470
-451
-520
-601
-637
-636
-657
-749
-878
-964
-975
-936
-888
-864
-873
-916
-976
-1010
-1009
-1025
-1116
-1253
-1329
-1278
-1167
-1120
-1177
-1250
-1250
-1197
-1189
-1292
-1458
-1582
-1599
-1528
-1460
-1469
-1557
-1669
-1756
-1835
-1959
-2155
-2374
-2549
-2668
-2766
-2862
-2923
-2920
-2887
-2891
-2932
-2940
-2885
-2819
-2823
-2894
-2939
-2879
-2724
-2553
-2419
-2324
-2247
-2188
-2138
-2053
-1911
-1772
-1729
-1787
-1799
-1595
-1196
-850
-783
-951
-1068
-916
-589
-369
-401
-546
-560
-368
-93
121
258
386
540
685
768
792
802
842
910
969
988
976
1001
1122
1302
1394
1296
1111
1054
1197
1338
1224
867
588
655
943
1086
916
679
733
1109
1463
1497
1294
1172
1265
1386
1304
1066
937
1069
1329
1456
1367
1236
1301
1584
1851
1864
1618
1350
1285
1413
1526
1485
1409
1511
1798
2029
2009
1819
1705
1756
1796
1658
1430
1359
1538
1791
1872
1775
1744
1937
2181
2111
1586
855
325
118
-47
-477
-1077
-1393
-1050
-142
891
1737
2497
3463
4695
5925
6812
7213
7212
6956
6518
5903
5186
4483
3871
3336
2826
2345
1974
1769
1650
1464
1091
547
-39
-544
-924
-1167
-1247
-1157
-965
-766
-612
-456
-195
191
578
761
610
185
-278
-521
-483
-340
-322
-481
-678
-749
-641
-458
-302
-207
-153
-144
-178
-213
-196
-111
-17
16
-42
-167
-315
-462
-616
-805
-1046
-1301
-1466
-1427
-1195
-919
-781
-824
-933
-984
-1004
-1141
-1476
-1902
-2210
-2304
-2273
-2258
-2302
-2334
-2265
-2106
-1957
-1910
-1957
-2020
-2027
-1967
-1874
-1798
-1767
-1769
-1767
-1718
-1590
-1403
-1226
-1143
-1171
-1226
-1182
-999
-766
-603
-524
-433
-251
-23
145
250
413
709
1008
1076
853
588
611
985
1417
1570
1413
1247
1366
1746
2080
2116
1886
1619
1489
1481
1499
1498
1509
1550
1570
1511
1399
1325
1353
1428
1420
1266
1041
897
929
1075
1172
1115
955
847
895
1060
1208
1238
1176
1144
1226
1394
1548
1618
1649
1741
1926
2122
2230
2242
2264
2384
2570
2700
2688
2570
2461
2454
2546
2653
2680
2594
2461
2397
2461
2578
2596
2454
2258
2169
2227
2340
2399
2358
2193
1867
1379
850
443
178
-84
-439
-735
-668
-97
805
1752
2644
3621
4828
6181
7387
8166
8418
8243
7842
7378
6879
6259
5449
4523
3662
2999
2506
2081
1688
1384
1184
979
651
249
-48
-157
-184
-317
-609
-911
-1042
-978
-864
-858
-980
-1129
-1196
-1171
-1118
-1085
-1070
-1038
-996
-995
-1065
-1157
-1178
-1085
-949
-872
-887
-925
-912
-853
-821
-862
-938
-975
-947
-886
-851
-873
-941
-1027
-1112
-1186
-1251
-1295
-1283
-1184
-1014
-838
-730
-720
-795
-925
-1088
-1284
-1527
-1819
-2109
-2290
-2248
-1972
-1609
-1355
-1298
-1365
-1423
-1430
-1464
-1617
-1871
-2117
-2241
-2216
-2098
-1957
-1804
-1596
-1283
-887
-532
-361
-412
-561
-629
-573
-533
-653
-870
-922
-627
-108
331
551
736
1133
1684
2020
1859
1362
974
941
1085
1071
832
644
792
1248
1748
2074
2205
2229
2205
2149
2109
2139
2233
2312
2314
2275
2278
2339
2393
2376
2291
2194
2116
2054
1999
1963
1955
1960
1964
1978
2037
2147
2255
2296
2258
2209
2234
2350
2467
2481
2388
2290
2291
2375
2430
2378
2278
2238
2283
2334
2312
2247
2217
2231
2199
2054
1844
1679
1588
1484
1291
1063
932
965
1084
1161
1176
1217
1323
1381
1210
780
270
-116
-381
-713
-1231
-1776
-2010
-1715
-984
-95
756
1595
2595
3857
5245
6406
7004
6976
6600
6234
5979
5620
4929
3979
3099
2545
2256
1990
1615
1199
847
548
221
-117
-356
-434
-437
-501
-663
-835
-914
-908
-925
-1067
-1326
-1589
-1743
-1768
-1718
-1641
-1531
-1375
-1217
-1154
-1244
-1430
-1587
-1643
-1637
-1660
-1763
-1904
-1994
-1956
-1791
-1576
-1405
-1318
-1285
-1238
-1156
-1069
-1006
-969
-956
-1001
-1138
-1333
-1484
-1523
-1490
-1485
-1540
-1595
-1584
-1532
-1515
-1564
-1639
-1690
-1719
-1751
-1789
-1825
-1869
-1947
-2044
-2106
-2097
-2065
-2096
-2187
-2244
-2183
-2020
-1849
-1751
-1731
-1732
-1701
-1610
-1455
-1268
-1114
-1042
-1014
-901
-597
-155
214
333
253
201
321
522
582
406
130
-37
-3
178
396
571
655
611
461
332
340
438
447
249
-63
-252
-159
153
474
611
498
212
-88
-274
-317
-298
-319
-406
-478
-430
-233
73
382
553
478
223
13
59
326
557
573
483
533
764
956
909
699
586
672
780
724
616
745
1187
1651
1766
1473
1084
931
1024
1088
893
513
270
413
878
1336
1471
1208
754
414
355
525
741
836
806
818
986
1196
1203
914
512
239
52
-356
-1133
-1946
-2231
-1775
-962
-363
-106
236
1164
2701
4336
5472
5878
5754
5472
5262
5087
4736
4060
3142
2261
1670
1370
1153
841
473
213
62
-214
-793
-1491
-1897
-1808
-1490
-1422
-1748
-2105
-2050
-1601
-1224
-1309
-1746
-2103
-2128
-1955
-1841
-1831
-1760
-1541
-1319
-1281
-1404
-1469
-1334
-1115
-1048
-1208
-1435
-1517
-1405
-1239
-1180
-1248
-1348
-1380
-1328
-1254
-1239
-1315
-1454
-1593
-1694
-1776
-1892
-2052
-2201
-2287
-2319
-2359
-2456
-2588
-2706
-2776
-2813
-2867
-2982
-3142
-3285
-3374
-3418
-3447
-3475
-3495
-3534
-3656
-3877
-4088
-4119
-3892
-3529
-3236
-3105
-3049
-2917
-2656
-2345
-2118
-2065
-2170
-2305
-2302
-2088
-1772
-1505
-1323
-1108
-766
-396
-162
-91
-34
126
313
360
251
188
356
727
1122
1348
1332
1172
1051
1099
1286
1435
1413
1283
1219
1267
1305
1246
1173
1199
1271
1219
1035
961
1179
1538
1689
1514
1270
1248
1436
1566
1486
1310
1224
1243
1235
1139
1048
1086
1245
1377
1370
1280
1264
1383
1531
1559
1464
1410
1506
1634
1593
1362
1139
1132
1343
1594
1736
1757
1726
1697
1705
1737
1733
1628
1468
1420
1587
1817
1858
1678
1545
1707
2056
2196
1894
1374
1061
1092
1181
949
352
-248
-496
-379
-170
-54
125
650
1569
2641
3646
4658
5862
7111
7883
7792
7074
6372
6032
5756
5059
3945
2973
2628
2780
2865
2558
2072
1784
1711
1534
1058
448
23
-96
-79
-140
-288
-387
-352
-234
-151
-186
-335
-509
-628
-660
-659
-671
-681
-642
-593
-664
-931
-1263
-1413
-1290
-1054
-914
-916
-947
-924
-876
-877
-934
-1016
-1146
-1344
-1551
-1641
-1567
-1453
-1427
-1480
-1533
-1563
-1637
-1799
-2009
-2194
-2357
-2561
-2788
-2915
-2838
-2623
-2446
-2431
-2554
-2719
-2851
-2931
-2956
-2925
-2873
-2866
-2915
-2929
-2798
-2540
-2291
-2182
-2219
-2275
-2226
-2057
-1839
-1657
-1534
-1441
-1319
-1120
-880
-706
-647
-637
-558
-380
-181
-32
125
398
770
1062
1139
1072
1063
1209
1417
1547
1590
1658
1818
2010
2161
2264
2363
2444
2412
2257
2098
2055
2123
2184
2169
2152
2229
2372
2447
2392
2279
2199
2148
2053
1885
1700
1562
1479
1445
1468
1537
1581
1537
1456
1462
1593
1712
1672
1502
1375
1407
1532
1629
1659
1673
1713
1765
1819
1906
2004
2024
1932
1819
1807
1877
1893
1792
1696
1753
1913
1960
1793
1566
1505
1617
1670
1488
1187
1051
1231
1581
1808
1731
1410
1063
850
739
521
10
-726
-1356
-1564
-1321
-846
-333
255
1098
2270
3628
4948
6048
6798
7092
6932
6481
5974
5510
4983
4269
3445
2757
2356
2147
1913
1552
1151
821
528
170
-257
-621
-808
-837
-842
-908
-990
-1002
-942
-904
-965
-1102
-1217
-1242
-1184
-1106
-1049
-1016
-990
-967
-962
-1012
-1141
-1327
-1501
-1586
-1575
-1537
-1562
-1663
-1769
-1810
-1785
-1758
-1790
-1868
-1932
-1943
-1911
-1859
-1826
-1843
-1920
-2040
-2173
-2290
-2366
-2394
-2383
-2370
-2394
-2434
-2394
-2219
-2018
-2001
-2255
-2609
-2779
-2681
-2531
-2591
-2854
-3068
-3029
-2805
-2628
-2630
-2743
-2845
-2908
-2989
-3090
-3120
-3005
-2777
-2540
-2327
-2079
-1778
-1539
-1505
-1663
-1798
-1703
-1401
-1112
-978
-882
-606
-112
375
624
638
606
661
758
814
846
916
1020
1074
1043
1005
1041
1115
1124
1026
915
911
1024
1174
1304
1448
1672
1956
2176
2226
2135
2048
2086
2219
2278
2133
1849
1636
1651
1838
1971
1873
1588
1351
1381
1694
2082
2279
2183
1923
1763
1876
2163
2349
2273
2083
2109
2505
3048
3368
3326
3138
3084
3162
3105
2722
2131
1636
1441
1491
1593
1615
1542
1426
1350
1402
1596
1837
1988
1973
1860
1808
1910
2084
2131
1909
1471
1008
637
300
-129
-626
-975
-951
-527
151
958
1909
3053
4344
5619
6692
7417
7734
7675
7357
6933
6486
5963
5258
4377
3488
2786
2358
2082
1740
1205
577
60
-243
-462
-838
-1421
-1977
-2216
-2132
-2014
-2111
-2336
-2384
-2111
-1728
-1564
-1705
-1918
-1933
-1731
-1514
-1430
-1420
-1354
-1214
-1069
-944
-791
-616
-541
-640
-794
-810
-698
-691
-955
-1315
-1425
-1178
-850
-785
-1003
-1227
-1235
-1080
-965
-971
-1016
-1033
-1049
-1114
-1195
-1230
-1238
-1296
-1427
-1559
-1605
-1574
-1528
-1500
-1518
-1667
-2019
-2510
-2926
-3073
-2988
-2868
-2828
-2784
-2600
-2302
-2061
-1989
-2025
-2052
-2063
-2153
-2348
-2528
-2555
-2399
-2142
-1880
-1660
-1472
-1287
-1071
-823
-616
-545
-603
-644
-529
-281
-82
-66
-150
-142
17
215
341
427
593
879
1194
1435
1590
1697
1752
1723
1644
1617
1700
1844
1945
1960
1947
1983
2081
2199
2288
2290
2162
1903
1592
1350
1244
1228
1183
1038
839
712
742
882
988
956
821
726
770
909
999
962
867
836
907
1010
1065
1077
1111
1211
1350
1457
1486
1455
1422
1435
1485
1516
1501
1480
1497
1534
1518
1413
1276
1198
1190
1187
1157
1130
1149
1222
1317
1379
1326
1074
604
19
-519
-956
-1359
-1754
-2003
-1882
-1299
-362
773
2051
3492
5043
6520
7698
8420
8640
8436
7982
7454
6896
6221
5368
4474
3784
3397
3161
2840
2365
1865
1466
1146
824
491
220
49
-43
-81
-51
58
185
242
206
136
84
28
-85
-254
-398
-438
-376
-284
-229
-241
-310
-396
-430
-364
-222
-90
-36
-58
-97
-126
-157
-217
-324
-492
-716
-942
-1072
-1076
-1076
-1244
-1593
-1917
-1995
-1848
-1741
-1877
-2172
-2348
-2259
-2042
-1944
-2038
-2177
-2192
-2088
-2029
-2127
-2308
-2387
-2262
-2021
-1855
-1870
-1991
-2059
-2020
-1977
-2060
-2274
-2483
-2564
-2522
-2437
-2334
-2172
-1922
-1647
-1445
-1342
-1267
-1149
-993
-850
-729
-590
-402
-189
2
167
350
581
820
992
1064
1080
1124
1233
1363
1445
1470
1509
1636
1833
1996
2056
2041
2043
2109
2189
2199
2104
1946
1787
1668
1606
1599
1622
1646
1670
1720
1801
1861
1837
1732
1625
1572
1530
1419
1236
1083
1054
1142
1247
1293
1294
1304
1354
1425
1487
1524
1529
1495
1434
1379
1358
1383
1445
1521
1577
1577
1507
1406
1342
1327
1299
1181
982
821
816
961
1128
1204
1193
1187
1251
1369
1455
1454
1399
1363
1355
1278
1043
672
309
65
-133
-469
-998
-1501
-1643
-1280
-579
185
933
1840
3086
4582
5967
6865
7145
6973
6622
6244
5801
5189
4413
3634
3042
2683
2448
2204
1907
1603
1308
962
508
1
-412
-628
-665
-646
-669
-708
-673
-536
-390
-356
-456
-597
-692
-738
-795
-885
-957
-972
-968
-1011
-1119
-1245
-1346
-1413
-1452
-1447
-1394
-1352
-1405
-1559
-1703
-1717
-1615
-1519
-1524
-1576
-1551
-1412
-1265
-1239
-1341
-1465
-1526
-1545
-1583
-1648
-1681
-1657
-1633
-1676
-1764
-1811
-1786
-1772
-1875
-2086
-2286
-2378
-2377
-2367
-2407
-2486
-2573
-2655
-2722
-2760
-2764
-2754
-2766
-2808
-2848
-2846
-2786
-2673
-2523
-2364
-2230
-2130
-2025
-1860
-1648
-1464
-1357
-1275
-1107
-837
-581
-456
-425
-318
-52
244
375
308
200
206
290
310
232
193
311
524
685
740
747
783
846
887
892
858
766
632
549
620
828
1005
1035
1001
1076
1267
1366
1192
846
636
743
1008
1128
1013
873
936
1151
1262
1105
784
530
445
477
552
669
812
903
903
875
907
990
999
884
749
696
686
620
527
564
772
965
923
677
472
439
459
352
136
11
113
349
535
588
591
637
702
696
568
341
67
-240
-609
-1048
-1497
-1828
-1896
-1607
-985
-139
817
1871
3080
4402
5591
6312
6416
6066
5576
5140
4711
4145
3431
2716
2165
1823
1613
1425
1178
831
385
-112
-571
-912
-1107
-1187
-1196
-1186
-1189
-1190
-1149
-1059
-1006
-1108
-1388
-1716
-1927
-1964
-1902
-1826
-1733
-1578
-1383
-1239
-1219
-1310
-1442
-1558
-1636
-1686
-1719
-1763
-1832
-1897
-1917
-1894
-1872
-1878
-1879
-1851
-1847
-1945
-2124
-2245
-2215
-2120
-2138
-2319
-2528
-2602
-2540
-2469
-2481
-2541
-2568
-2554
-2547
-2565
-2564
-2520
-2492
-2579
-2800
-3063
-3221
-3200
-3068
-2975
-2988
-3025
-2953
-2744
-2539
-2489
-2566
-2579
-2402
-2131
-1998
-2087
-2207
-2087
-1695
-1274
-1077
-1110
-1151
-1008
-704
-412
-264
-260
-306
-307
-205
-11
218
403
511
593
710
845
917
891
844
870
954
999
940
866
921
1112
1284
1293
1165
1063
1084
1124
1024
802
644
659
747
730
585
474
498
558
511
384
329
391
440
342
176
143
319
598
843
1010
1100
1082
975
933
1084
1365
1524
1381
1074
934
1148
1587
1940
1983
1748
1478
1391
1510
1647
1563
1213
823
692
871
1113
1131
899
681
726
1008
1243
1165
791
407
264
312
251
-139
-731
-1181
-1269
-1048
-709
-315
266
1156
2303
3562
4841
6070
7071
7556
7344
6653
5953
5528
5208
4597
3598
2603
2125
2241
2509
2427
1907
1246
707
284
-170
-667
-1054
-1201
-1148
-1021
-887
-731
-545
-378
-290
-285
-371
-569
-848
-1063
-1018
-692
-317
-197
-403
-703
-841
-800
-782
-938
-1178
-1284
-1164
-946
-818
-849
-958
-1042
-1079
-1112
-1209
-1394
-1612
-1744
-1715
-1588
-1535
-1636
-1782
-1805
-1697
-1626
-1721
-1904
-2010
-2008
-2017
-2131
-2285
-2364
-2377
-2448
-2636
-2846
-2958
-2966
-2949
-2955
-2942
-2874
-2782
-2722
-2709
-2705
-2688
-2663
-2629
-2561
-2433
-2256
-2064
-1904
-1800
-1715
-1579
-1373
-1189
-1160
-1272
-1309
-1058
-590
-230
-189
-299
-220
136
502
596
466
380
478
636
707
754
903
1115
1195
1080
957
1023
1219
1296
1145
950
968
1224
1517
1680
1733
1803
1936
2051
2043
1903
1719
1598
1583
1624
1635
1568
1457
1413
1514
1719
1864
1772
1457
1173
1217
1598
1951
1903
1512
1274
1557
2140
2445
2200
1750
1601
1831
2059
1987
1738
1618
1696
1770
1694
1589
1634
1792
1849
1703
1493
1453
1638
1874
1949
1799
1587
1562
1788
2014
1884
1373
863
725
837
686
-6
-873
-1276
-1021
-521
-209
19
645
1904
3493
4888
5828
6379
6663
6705
6530
6222
5836
5306
4562
3696
2957
2506
2281
2085
1766
1321
848
456
236
206
260
220
25
-188
-236
-106
26
-16
-220
-431
-551
-632
-750
-856
-817
-601
-339
-222
-310
-496
-645
-714
-750
-796
-862
-942
-1019
-1066
-1058
-1024
-1013
-1042
-1076
-1070
-1046
-1061
-1133
-1213
-1245
-1238
-1256
-1324
-1386
-1384
-1355
-1400
-1561
-1740
-1797
-1719
-1661
-1776
-2005
-2134
-2067
-1948
-1995
-2220
-2424
-2458
-2422
-2507
-2714
-2838
-2736
-2519
-2409
-2476
-2569
-2520
-2335
-2159
-2101
-2130
-2146
-2086
-1968
-1846
-1744
-1660
-1586
-1509
-1419
-1302
-1144
-968
-828
-751
-689
-559
-341
-119
-2
13
36
146
295
380
381
389
480
625
720
701
611
551
575
659
726
719
656
627
694
804
825
693
503
412
445
471
355
142
11
75
251
358
313
192
126
173
278
346
316
212
133
181
363
555
620
554
489
529
643
730
755
774
842
933
1005
1074
1176
1283
1308
1227
1120
1072
1073
1064
1030
1019
1052
1081
1078
1110
1250
1442
1547
1497
1378
1287
1208
1065
845
595
338
47
-256
-447
-416
-148
327
1018
1952
3064
4229
5365
6427
7300
7774
7747
7394
7004
6650
6135
5320
4400
3725
3372
3072
2567
1917
1396
1108
870
485
-15
-448
-696
-790
-788
-696
-539
-408
-370
-383
-332
-183
-30
22
-38
-133
-180
-156
-79
-8
2
-62
-177
-285
-326
-276
-155
-32
-3
-95
-196
-136
118
351
277
-124
-525
-592
-353
-184
-382
-834
-1158
-1132
-887
-729
-851
-1231
-1712
-2129
-2345
-2305
-2116
-1996
-2096
-2359
-2549
-2513
-2356
-2337
-2615
-3091
-3502
-3669
-3648
-3626
-3694
-3774
-3744
-3591
-3429
-3379
-3445
-3516
-3473
-3289
-3056
-2889
-2831
-2817
-2746
-2598
-2474
-2476
-2586
-2657
-2544
-2265
-1969
-1760
-1595
-1350
-978
-598
-376
-355
-410
-381
-229
-43
68
103
129
185
251
295
322
349
368
354
309
280
303
347
351
296
236
228
260
252
123
-113
-334
-427
-397
-363
-418
-516
-531
-415
-246
-117
-22
115
313
507
651
793
994
1233
1423
1523
1585
1664
1748
1782
1768
1757
1774
1786
1766
1736
1727
1716
1678
1643
1684
1804
1899
1857
1685
1505
1417
1426
1459
1444
1374
1283
1192
1076
909
677
380
14
-451
-1029
-1651
-2150
-2347
-2162
-1640
-883
62
1212
2594
4145
5646
6776
7278
7142
6621
6033
5511
4948
4206
3342
2588
2145
1979
1875
1652
1284
859
436
19
-382
-697
-875
-949
-1001
-1081
-1144
-1125
-1050
-1022
-1089
-1186
-1225
-1220
-1255
-1322
-1293
-1068
-751
-581
-689
-952
-1138
-1146
-1068
-1047
-1121
-1223
-1283
-1291
-1276
-1261
-1266
-1300
-1351
-1393
-1413
-1415
-1414
-1416
-1426
-1467
-1569
-1720
-1876
-2003
-2112
-2233
-2365
-2477
-2569
-2694
-2897
-3144
-3344
-3437
-3459
-3481
-3532
-3576
-3576
-3541
-3513
-3511
-3517
-3515
-3518
-3551
-3602
-3617
-3537
-3362
-3159
-3009
-2927
-2842
-2665
-2406
-2185
-2100
-2106
-2053
-1858
-1603
-1421
-1327
-1207
-980
-714
-534
-452
-359
-181
23
148
200
277
429
593
694
755
851
983
1062
1043
1010
1094
1289
1449
1436
1265
1076
978
954
914
810
662
533
463
455
500
583
675
713
634
450
270
219
319
447
468
400
398
583
895
1157
1255
1250
1274
1369
1468
1511
1548
1672
1894
2100
2171
2122
2083
2148
2283
2368
2338
2251
2202
2207
2231
2254
2307
2387
2414
2329
2184
2117
2212
2395
2478
2307
1900
1415
1023
759
487
49
-563
-1134
-1358
-1075
-380
491
1374
2284
3331
4545
5763
6680
7045
6862
6392
5929
5554
5120
4493
3763
3176
2878
2753
2561
2170
1656
1184
823
509
164
-198
-496
-647
-644
-582
-552
-577
-618
-650
-699
-790
-908
-1020
-1120
-1213
-1269
-1247
-1165
-1118
-1192
-1359
-1512
-1590
-1650
-1761
-1874
-1867
-1721
-1568
-1552
-1665
-1760
-1736
-1653
-1647
-1763
-1917
-2008
-2017
-1999
-2010
-2060
-2131
-2205
-2255
-2271
-2280
-2330
-2438
-2562
-2641
-2660
-2655
-2669
-2701
-2730
-2754
-2794
-2867
-2965
-3063
-3146
-3213
-3264
-3277
-3214
-3066
-2884
-2769
-2778
-2844
-2839
-2720
-2609
-2648
-2796
-2839
-2618
-2226
-1933
-1892
-1990
-2023
-1932
-1849
-1904
-2051
-2133
-2045
-1826
-1562
-1304
-1068
-862
-705
-601
-538
-530
-606
-744
-850
-803
-594
-364
-268
-302
-300
-134
98
142
-110
-490
-720
-734
-727
-886
-1131
-1218
-1045
-766
-609
-611
-616
-528
-419
-419
-535
-648
-663
-603
-558
-552
-519
-374
-131
95
182
122
8
-69
-133
-290
-579
-903
-1130
-1234
-1264
-1230
-1053
-727
-414
-318
-465
-660
-725
-689
-708
-849
-1030
-1175
-1265
-1297
-1201
-928
-612
-535
-820
-1235
-1409
-1244
-1054
-1212
-1723
-2187
-2228
-1862
-1421
-1135
-899
-464
244
1067
1851
2609
3382
4019
4274
4092
3694
3325
2962
2416
1662
938
483
257
52
-230
-465
-545
-601
-845
-1267
-1649
-1829
-1864
-1905
-1999
-2069
-2039
-1909
-1720
-1540
-1461
-1553
-1744
-1856
-1818
-1787
-1971
-2328
-2572
-2504
-2280
-2216
-2407
-2624
-2596
-2335
-2102
-2119
-2366
-2660
-2857
-2926
-2901
-2839
-2794
-2819
-2931
-3062
-3104
-3032
-2958
-3028
-3252
-3477
-3534
-3423
-3319
-3368
-3518
-3600
-3546
-3481
-3563
-3799
-4049
-4192
-4239
-4273
-4345
-4437
-4504
-4514
-4446
-4307
-4158
-4084
-4099
-4118
-4047
-3906
-3808
-3805
-3802
-3665
-3403
-3186
-3132
-3141
-3024
-2738
-2442
-2305
-2306
-2289
-2173
-2034
-1973
-1962
-1892
-1720
-1523
-1392
-1314
-1198
-989
-729
-507
-376
-304
-226
-134
-87
-153
-317
-477
-536
-495
-440
-436
-465
-463
-407
-322
-238
-181
-187
-300
-493
-639
-630
-503
-426
-509
-675
-744
-647
-515
-513
-651
-771
-738
-596
-504
-548
-639
-624
-458
-254
-159
-201
-277
-260
-135
9
58
-22
-166
-278
-293
-234
-181
-202
-300
-383
-352
-205
-46
16
-8
-13
67
195
276
295
330
444
584
619
488
256
28
-166
-401
-749
-1179
-1555
-1729
-1610
-1202
-574
188
1047
2038
3192
4426
5490
6102
6158
5835
5436
5111
4768
4246
3542
2847
2362
2110
1956
1744
1420
1022
590
167
-181
-403
-522
-625
-772
-915
-957
-867
-745
-742
-897
-1120
-1302
-1404
-1478
-1560
-1598
-1530
-1369
-1229
-1237
-1398
-1568
-1586
-1424
-1236
-1200
-1299
-1358
-1266
-1134
-1179
-1452
-1752
-1873
-1829
-1802
-1883
-1958
-1901
-1769
-1723
-1817
-1939
-1988
-2007
-2104
-2283
-2425
-2443
-2402
-2418
-2511
-2598
-2581
-2463
-2328
-2250
-2268
-2385
-2548
-2660
-2648
-2539
-2468
-2558
-2773
-2921
-2822
-2493
-2153
-2022
-2099
-2206
-2200
-2120
-2103
-2179
-2236
-2162
-1981
-1804
-1661
-1459
-1133
-767
-524
-473
-534
-581
-556
-468
-332
-158
12
111
149
228
417
648
775
731
614
592
707
846
875
798
757
870
1090
1227
1135
893
759
917
1237
1365
1089
587
268
356
669
841
730
528
494
684
960
1194
1376
1517
1552
1424
1221
1129
1242
1458
1604
1614
1564
1595
1793
2122
2436
2571
2504
2418
2542
2893
3202
3159
2766
2354
2228
2340
2369
2118
1736
1569
1780
2187
2468
2463
2297
2238
2414
2652
2621
2175
1514
1002
798
707
412
-160
-734
-941
-649
-21
685
1371
2165
3260
4659
6090
7152
7606
7556
7289
6983
6596
6016
5253
4457
3773
3237
2828
2525
2275
1975
1539
1016
580
361
296
199
-25
-272
-386
-339
-259
-275
-373
-453
-467
-487
-599
-770
-873
-847
-793
-859
-1044
-1188
-1174
-1063
-1014
-1079
-1138
-1056
-872
-745
-786
-946
-1098
-1166
-1191
-1243
-1331
-1387
-1359
-1282
-1258
-1356
-1517
-1600
-1548
-1475
-1538
-1749
-1929
-1922
-1783
-1705
-1799
-1980
-2091
-2095
-2086
-2155
-2297
-2431
-2495
-2476
-2403
-2338
-2342
-2409
-2456
-2394
-2241
-2111
-2105
-2198
-2267
-2232
-2108
-1975
-1894
-1865
-1819
-1688
-1458
-1192
-984
-872
-789
-634
-392
-159
-29
6
35
111
216
319
437
583
716
780
793
854
1016
1207
1312
1301
1255
1240
1252
1257
1267
1299
1325
1298
1243
1261
1398
1551
1580
1466
1338
1316
1375
1389
1263
1027
786
515
603
659
684
591
425
350
466
670
747
625
470
504
751
1006
1088
1040
1048
1202
1411
1540
1573
1600
1675
1751
1753
1680
1609
1592
1607
1607
1585
1572
1592
1611
1584
1509
1437
1420
1443
1457
1453
1482
1524
1444
1103
544
-15
-408
-699
-1087
-1597
-1973
-1919
-1392
-605
273
1286
2573
4109
5652
6951
7869
8380
8487
8246
7802
7301
6766
6087
5190
4214
3415
2929
2658
2375
1958
1445
939
499
173
9
-8
-15
-167
-448
-622
-460
-14
389
467
229
-81
-280
-352
-374
-392
-431
-551
-750
-928
-960
-817
-613
-446
-312
-184
-117
-199
-382
-480
-392
-269
-369
-742
-1128
-1216
-963
-614
-433
-464
-546
-503
-309
-69
77
61
-99
-312
-478
-547
-567
-647
-860
-1142
-1324
-1313
-1215
-1258
-1560
-1957
-2179
-2150
-2070
-2178
-2458
-2663
-2609
-2387
-2251
-2348
-2607
-2865
-3018
-3042
-2948
-2763
-2538
-2312
-2065
-1746
-1356
-977
-714
-588
-530
-465
-381
-297
-212
-100
52
222
363
449
484
500
526
563
578
551
528
580
719
865
928
936
1026
1281
1608
1820
1850
1824
1913
2112
2245
2185
2016
1927
1989
2088
2073
1941
1821
1806
1813
1680
1354
959
674
557
504
386
210
125
258
567
865
1014
1044
1075
1167
1276
1346
1390
1462
1570
1688
1806
1956
2126
2248
2267
2222
2213
2276
2349
2369
2358
2377
2432
2475
2471
2473
2551
2692
2766
2636
2292
1853
1462
1149
817
375
-121
-490
-550
-252
309
1010
1823
2812
4020
5376
6652
7569
7966
7891
7550
7109
6569
5835
4899
3922
3123
2617
2347
2159
1922
1602
1243
919
669
466
240
-48
-328
-489
-492
-400
-305
-254
-234
-236
-287
-409
-568
-695
-738
-702
-640
-596
-582
-581
-572
-551
-523
-508
-531
-594
-653
-635
-515
-367
-308
-385
-516
-572
-520
-448
-464
-576
-699
-767
-789
-807
-848
-910
-984
-1056
-1102
-1103
-1099
-1160
-1291
-1403
-1409
-1359
-1406
-1625
-1908
-2072
-2065
-2014
-2058
-2178
-2240
-2165
-2008
-1877
-1809
-1771
-1735
-1714
-1713
-1697
-1634
-1537
-1446
-1365
-1248
-1068
-868
-710
-596
-486
-371
-289
-262
-235
-124
68
246
339
404
566
871
1240
1564
1806
1994
2130
2170
2091
1937
1753
1531
1247
949
758
741
827
894
910
960
1108
1270
1298
1182
1064
1070
1148
1141
994
823
759
791
808
779
789
905
1060
1146
1170
1249
1439
1659
1795
1845
1888
1941
1921
1779
1592
1464
1381
1238
995
759
651
669
701
679
672
774
950
1077
1096
1077
1118
1220
1283
1244
1165
1155
1255
1412
1531
1528
1374
1100
771
439
93
-316
-780
-1165
-1295
-1106
-689
-176
411
1176
2214
3483
4776
5820
6424
6577
6431
6159
5800
5267
4504
3629
2878
2405
2148
1933
1659
1349
1056
767
442
107
-152
-310
-439
-600
-753
-785
-655
-485
-470
-673
-956
-1134
-1168
-1178
-1267
-1366
-1322
-1098
-833
-699
-717
-776
-812
-885
-1072
-1324
-1488
-1480
-1388
-1363
-1440
-1525
-1520
-1443
-1393
-1430
-1527
-1623
-1699
-1780
-1884
-1986
-2060
-2098
-2129
-2180
-2257
-2335
-2387
-2417
-2458
-2524
-2586
-2594
-2537
-2468
-2461
-2523
-2601
-2643
-2656
-2696
-2800
-2928
-3003
-2980
-2886
-2777
-2676
-2561
-2418
-2290
-2240
-2275
-2318
-2280
-2159
-2039
-1990
-1963
-1829
-1519
-1115
-777
-590
-491
-359
-149
72
209
257
287
351
423
443
411
396
446
539
619
673
741
846
938
957
922
917
979
1038
997
849
689
610
625
684
748
817
886
937
958
968
981
964
869
703
533
431
393
362
312
290
369
567
829
1079
1271
1416
1558
1709
1824
1849
1790
1712
1689
1710
1702
1627
1529
1479
1457
1371
1199
1033
987
1042
1074
1018
948
976
1123
1290
1386
1425
1482
1564
1555
1344
982
649
477
359
56
-503
-1035
-1136
-706
-86
306
452
775
1667
3017
4280
4980
5128
5110
5241
5466
5477
5093
4460
3879
3498
3221
2891
2499
2149
1892
1661
1420
1235
1174
1168
1044
756
492
461
666
911
1006
888
594
212
-124
-285
-285
-290
-449
-677
-711
-420
34
380
502
497
470
414
296
181
181
287
366
337
263
273
419
606
706
666
528
392
320
284
206
54
-75
-52
98
164
-28
-387
-639
-648
-583
-682
-938
-1110
-1040
-864
-860
-1088
-1321
-1326
-1137
-1012
-1138
-1420
-1581
-1445
-1142
-976
-1133
-1501
-1770
-1742
-1519
-1347
-1343
-1402
-1367
-1234
-1108
-1051
-1024
-970
-901
-865
-863
-833
-731
-567
-392
-260
-207
-219
-224
-146
-18
32
-45
-119
3
325
615
652
493
418
586
838
899
691
417
335
473
660
735
689
613
561
512
445
386
361
342
275
135
-36
-165
-215
-206
-192
-207
-230
-196
-59
157
355
465
515
587
710
824
858
828
828
909
1009
1044
1021
1027
1117
1229
1252
1174
1102
1130
1224
1271
1226
1177
1228
1373
1501
1520
1475
1505
1669
1838
1813
1550
1206
945
717
330
-273
-858
-1112
-969
-629
-262
220
1022
2165
3445
4633
5632
6388
6772
6715
6376
6041
5807
5474
4840
4039
3435
3192
3094
2826
2350
1894
1601
1349
964
485
116
-55
-141
-278
-449
-547
-552
-553
-601
-645
-630
-599
-631
-711
-733
-648
-518
-427
-394
-409
-498
-659
-771
-679
-407
-190
-235
-502
-730
-749
-656
-653
-816
-1026
-1145
-1148
-1084
-991
-889
-841
-944
-1200
-1473
-1607
-1593
-1565
-1644
-1800
-1895
-1868
-1800
-1800
-1870
-1932
-1984
-2132
-2442
-2773
-2881
-2692
-2412
-2325
-2465
-2603
-2524
-2312
-2252
-2486
-2849
-3050
-2982
-2787
-2648
-2600
-2521
-2313
-2014
-1717
-1489
-1351
-1296
-1269
-1154
-858
-450
-145
-92
-174
-135
117
391
443
265
93
123
304
465
533
585
701
836
902
884
866
917
1017
1107
1161
1197
1242
1288
1311
1310
1299
1262
1167
1010
853
801
888
1030
1098
1041
949
929
983
1013
945
815
711
662
630
608
650
799
1018
1200
1291
1338
1427
1576
1710
1745
1678
1594
1573
1614
1659
1668
1652
1639
1624
1576
1508
1473
1493
1516
1480
1415
1425
1558
1739
1840
1800
1653
1459
1232
951
604
189
-289
-771
-1129
-1195
-886
-273
493
1343
2334
3542
4898
6169
7116
7616
7692
7444
6969
6369
5766
5226
4706
4124
3503
2982
2662
2443
2116
1611
1077
710
530
394
221
108
170
340
412
290
100
16
29
-35
-278
-566
-670
-530
-321
-252
-349
-475
-505
-464
-460
-524
-586
-585
-533
-470
-404
-327
-274
-299
-387
-482
-548
-614
-695
-749
-740
-745
-886
-1161
-1399
-1454
-1377
-1355
-1462
-1568
-1528
-1371
-1282
-1380
-1606
-1825
-1969
-2058
-2150
-2280
-2444
-2588
-2645
-2589
-2497
-2482
-2569
-2674
-2713
-2703
-2711
-2739
-2705
-2566
-2394
-2301
-2295
-2275
-2156
-1961
-1783
-1683
-1625
-1521
-1314
-1039
-791
-635
-550
-468
-362
-259
-192
-141
-53
83
209
278
331
439
607
764
856
911
979
1033
1010
920
870
939
1064
1114
1051
976
1003
1126
1242
1271
1229
1171
1117
1057
988
923
877
838
798
768
770
813
889
976
1038
1052
1016
964
947
994
1088
1192
1274
1334
1390
1461
1555
1663
1764
1835
1857
1823
1746
1649
1562
1506
1457
1371
1234
1091
1022
1075
1205
1324
1388
1426
1505
1661
1829
1856
1623
1179
708
363
117
-188
-628
-1084
-1322
-1197
-760
-143
596
1487
2546
3731
4938
6033
6840
7182
7025
6551
6022
5557
5048
4353
3514
2764
2281
2026
1798
1463
1051
655
296
-57
-391
-641
-773
-811
-794
-707
-525
-306
-184
-247
-423
-552
-589
-682
-954
-1284
-1402
-1196
-889
-828
-1082
-1342
-1285
-963
-757
-945
-1375
-1628
-1497
-1183
-1045
-1189
-1407
-1422
-1192
-921
-818
-917
-1118
-1342
-1563
-1735
-1785
-1703
-1608
-1642
-1780
-1836
-1687
-1482
-1495
-1792
-2135
-2234
-2100
-2018
-2184
-2457
-2530
-2311
-2042
-2046
-2395
-2854
-3114
-3099
-2977
-2944
-3012
-3003
-2764
-2335
-1885
-1523
-1254
-1072
-1028
-1140
-1275
-1236
-1021
-877
-999
-1232
-1190
-733
-177
59
-50
-101
224
748
1025
875
563
434
503
508
301
31
-97
-94
-104
-173
-193
-97
16
21
-39
-21
38
-77
-459
-861
-904
-517
-54
96
-47
-93
266
936
1544
1813
1738
1495
1260
1127
1109
1132
1068
859
618
549
736
1055
1305
1422
1460
1437
1291
1037
874
1006
1384
1697
1708
1535
1510
1768
2087
2154
1898
1509
1181
945
762
676
759
934
1007
869
645
565
685
770
522
-67
-693
-1044
-1130
-1261
-1687
-2296
-2725
-2759
-2532
-2297
-2062
-1538
-485
984
2497
3758
4715
5410
5791
5769
5379
4792
4146
3438
2648
1909
1458
1374
1481
1515
1383
1198
1059
903
599
172
-221
-450
-556
-670
-833
-942
-895
-737
-622
-649
-792
-960
-1084
-1150
-1168
-1166
-1173
-1180
-1140
-1035
-933
-928
-1015
-1073
-1006
-880
-860
-1025
-1269
-1427
-1451
-1437
-1487
-1593
-1663
-1628
-1527
-1465
-1512
-1635
-1718
-1666
-1502
-1349
-1304
-1345
-1388
-1414
-1498
-1712
-2027
-2330
-2558
-2752
-2977
-3222
-3411
-3509
-3570
-3669
-3804
-3886
-3858
-3779
-3753
-3791
-3773
-3598
-3335
-3157
-3142
-3166
-3057
-2815
-2621
-2624
-2748
-2776
-2575
-2216
-1873
-1645
-1506
-1370
-1170
-896
-621
-450
-425
-456
-389
-169
75
157
35
-148
-220
-153
-68
-75
-166
-251
-257
-180
-62
44
98
113
147
243
364
414
352
257
248
329
386
340
263
293
434
544
518
449
520
758
993
1045
933
836
888
1041
1153
1146
1062
992
992
1059
1153
1233
1268
1256
1225
1212
1237
1297
1352
1363
1324
1268
1239
1242
1247
1244
1261
1328
1434
1525
1556
1556
1604
1702
1739
1610
1338
1057
845
603
172
-431
-950
-1103
-848
-384
114
708
1592
2826
4235
5536
6522
7094
7214
6925
6378
5758
5142
4465
3675
2883
2309
2047
1967
1854
1616
1329
1075
818
479
76
-266
-430
-426
-366
-330
-291
-204
-95
-28
-22
-42
-96
-260
-555
-832
-889
-694
-463
-425
-584
-748
-794
-813
-961
-1250
-1530
-1688
-1774
-1886
-2013
-2041
-1890
-1618
-1356
-1195
-1131
-1106
-1097
-1130
-1237
-1415
-1625
-1821
-1969
-2052
-2049
-1960
-1832
-1753
-1769
-1830
-1850
-1824
-1839
-1956
-2129
-2258
-2324
-2412
-2592
-2820
-2977
-3001
-2941
-2894
-2902
-2940
-2969
-2975
-2959
-2920
-2860
-2789
-2720
-2658
-2585
-2467
-2272
-2014
-1762
-1574
-1419
-1202
-892
-594
-456
-480
-509
-417
-284
-285
-432
-511
-336
-9
182
109
-25
62
381
646
617
374
207
283
478
559
457
314
283
352
387
303
147
23
-40
-93
-183
-282
-326
-304
-273
-286
-327
-339
-301
-244
-211
-193
-147
-60
29
80
101
135
185
199
129
23
0
131
346
489
480
393
381
502
643
631
416
123
-66
-77
9
56
9
-72
-77
33
179
254
241
202
153
10
-287
-649
-905
-1025
-1195
-1579
-2066
-2320
-2141
-1672
-1206
-840
-374
420
1516
2655
3582
4216
4593
4739
4663
4398
4001
3509
2932
2299
1682
1156
754
451
207
-6
-218
-452
-674
-800
-794
-747
-799
-981
-1159
-1165
-1004
-874
-951
-1186
-1359
-1342
-1224
-1187
-1272
-1343
-1278
-1128
-1046
-1097
-1173
-1145
-1018
-935
-1021
-1244
-1432
-1463
-1403
-1432
-1660
-1969
-2155
-2143
-2042
-2000
-2072
-2213
-2386
-2604
-2854
-3039
-3088
-3076
-3166
-3411
-3660
-3705
-3535
-3389
-3500
-3856
-4207
-4322
-4216
-4099
-4119
-4219
-4221
-4029
-3718
-3439
-3286
-3295
-3419
-3534
-3518
-3335
-3136
-3106
-3259
-3405
-3342
-3048
-2701
-2466
-2366
-2328
-2313
-2279
-2144
-1867
-1592
-1560
-1832
-2133
-2099
-1671
-1168
-894
-811
-636
-265
88
202
162
230
444
513
215
-226
-371
-55
430
671
595
498
638
944
1135
1043
792
628
625
641
516
279
140
259
541
703
581
319
213
359
558
557
336
94
1
22
30
-5
-9
84
242
362
378
352
400
560
739
772
602
376
311
406
426
204
-121
-244
-102
23
-141
-491
-665
-479
-137
34
-61
-220
-225
-95
-34
-206
-574
-963
-1236
-1426
-1718
-2240
-2872
-3281
-3219
-2795
-2365
-2114
-1828
-1134
66
1432
2512
3116
3384
3517
3554
3405
3051
2586
2113
1637
1099
497
-64
-455
-690
-926
-1307
-1806
-2216
-2376
-2323
-2231
-2202
-2180
-2064
-1851
-1640
-1514
-1490
-1561
-1743
-2020
-2308
-2501
-2565
-2573
-2620
-2704
-2721
-2577
-2303
-2058
-1995
-2111
-2234
-2192
-1994
-1821
-1845
-2031
-2192
-2186
-2068
-1990
-2015
-2081
-2114
-2143
-2235
-2383
-2508
-2576
-2624
-2669
-2657
-2540
-2394
-2372
-2522
-2709
-2770
-2733
-2776
-2989
-3244
-3324
-3179
-2988
-2949
-3066
-3153
-3059
-2827
-2637
-2623
-2760
-2933
-3038
-3040
-2966
-2878
-2849
-2894
-2958
-2946
-2802
-2548
-2257
-1988
-1776
-1649
-1619
-1623
-1524
-1244
-879
-651
-691
-845
-807
-444
45
320
264
94
88
296
528
616
588
571
629
718
784
821
825
771
650
523
458
457
437
334
187
122
220
425
572
532
350
210
269
455
535
395
193
185
422
670
684
505
399
544
847
1084
1142
1083
1010
955
931
999
1191
1407
1464
1316
1161
1296
1767
2253
2347
1972
1466
1227
1313
1450
1370
1084
826
761
887
1133
1439
1715
1803
1607
1223
866
641
434
85
-387
-768
-848
-574
-14
745
1660
2705
3871
5120
6307
7174
7513
7367
7023
6722
6418
5882
5038
4121
3455
3108
2862
2489
1997
1542
1163
742
231
-217
-399
-365
-386
-621
-914
-1002
-875
-782
-880
-1011
-944
-736
-683
-894
-1074
-883
-417
-137
-338
-798
-1042
-884
-578
-434
-468
-444
-223
91
269
220
46
-100
-168
-231
-400
-659
-855
-871
-772
-771
-970
-1241
-1392
-1388
-1377
-1471
-1615
-1689
-1684
-1677
-1694
-1696
-1687
-1734
-1854
-1964
-1979
-1944
-1983
-2084
-2082
-1880
-1598
-1436
-1442
-1475
-1415
-1308
-1253
-1262
-1288
-1358
-1543
-1767
-1794
-1485
-1001
-690
-704
-806
-652
-183
315
529
420
237
251
524
885
1098
1079
953
934
1106
1321
1392
1314
1258
1357
1524
1573
1496
1483
1641
1818
1803
1637
1592
1831
2169
2283
2088
1799
1658
1667
1649
1494
1280
1144
1105
1084
1037
1029
1152
1384
1571
1547
1296
1001
870
929
1009
958
853
907
1206
1572
1743
1662
1532
1548
1659
1643
1396
1092
982
1118
1293
1305
1189
1148
1288
1487
1540
1392
1178
1065
1083
1133
1125
1081
1091
1169
1219
1140
908
604
277
-122
-648
-1211
-1563
-1507
-1083
-503
103
835
1885
3273
4747
5956
6679
6916
6808
6525
6161
5694
5061
4276
3476
2839
2433
2151
1835
1418
956
542
210
-64
-303
-507
-674
-773
-770
-665
-525
-431
-393
-380
-381
-459
-660
-897
-1010
-966
-932
-1083
-1367
-1535
-1456
-1290
-1308
-1566
-1840
-1883
-1702
-1519
-1513
-1675
-1887
-2039
-2083
-2019
-1905
-1837
-1856
-1898
-1860
-1738
-1660
-1755
-2018
-2343
-2634
-2874
-3056
-3146
-3133
-3067
-2999
-2929
-2810
-2648
-2547
-2590
-2759
-2956
-3134
-3325
-3556
-3750
-3802
-3711
-3597
-3562
-3553
-3421
-3151
-2912
-2862
-2944
-2917
-2640
-2250
-2019
-2055
-2198
-2204
-2011
-1766
-1662
-1735
-1859
-1879
-1712
-1367
-915
-449
-82
116
163
145
140
162
168
134
61
-19
-36
106
434
812
1020
976
841
843
975
1002
772
459
374
587
840
876
741
667
727
764
639
430
348
433
505
392
150
34
215
587
853
831
655
654
988
1439
1600
1325
896
692
751
764
503
136
34
337
824
1193
1370
1477
1603
1695
1692
1631
1569
1493
1365
1229
1228
1454
1835
2187
2406
2533
2621
2637
2532
2345
2198
2121
1973
1591
1030
598
542
805
1123
1366
1697
2391
3513
4808
5931
6690
7093
7225
7142
6856
6380
5749
5015
4268
3606
3094
2729
2473
2277
2107
1922
1669
1337
1003
771
651
567
452
330
263
249
217
132
74
139
289
375
326
255
326
549
752
782
678
601
635
730
819
915
1061
1241
1387
1465
1512
1564
1605
1602
1571
1575
1643
1737
1800
1835
1902
2044
2215
2321
2307
2205
2078
1940
1735
1397
906
278
-473
-1343
-2296
-3244
-4088
-4800
-5412
-5939
-6301
-6383
-6170
-5795
-5436
-5146
-4827
-4382
-3871
-3475
-3288
-3203
-3021
-2675
-2291
-2031
-1920
-1862
-1785
-1737
-1810
-2022
-2300
-2578
-2847
-3097
-3259
-3247
-3059
-2799
-2581
-2435
-2302
-2123
-1896
-1664
-1465
-1301
-1150
-974
-741
-435
