3835
3696
3561
3493
3442
3296
3034
2749
2496
2203
1798
1414
1335
1689
2261
2697
2908
3170
3788
4739
5687
6314
6579
6658
6713
6800
6902
6979
6969
6805
6504
6193
6033
6069
6171
6143
5901
5535
5209
5008
4883
4750
4586
4417
4237
4004
3730
3533
3521
3634
3689
3581
3416
3365
3440
3483
3383
3229
3177
3231
3247
3144
3026
3041
3174
3249
3156
2998
2963
3084
3205
3166
2985
2811
2749
2756
2727
2630
2534
2526
2606
2696
2714
2646
2541
2469
2480
2566
2672
2733
2726
2688
2677
2707
2729
2692
2598
2513
2495
2538
2578
2564
2493
2398
2301
2213
2146
2107
2090
2080
2081
2110
2163
2208
2221
2219
2227
2222
2156
2031
1927
1921
2007
2113
2187
2241
2303
2352
2343
2276
2202
2154
2107
2046
2005
2036
2137
2268
2417
2615
2862
3066
3129
3089
3093
3237
3462
3624
3658
3623
3612
3661
3752
3864
3975
4042
4020
3914
3793
3735
3759
3825
3889
3944
4009
4113
4253
4386
4455
4434
4358
4293
4255
4207
4111
4003
3967
4034
4158
4271
4344
4386
4401
4378
4327
4271
4214
4137
4034
3942
3909
3943
4003
4061
4113
4155
4166
4133
4077
4023
3965
3881
3769
3683
3673
3731
3797
3823
3830
3886
4030
4227
4382
4409
4305
4151
4028
3950
3864
3733
3584
3473
3435
3452
3488
3531
3582
3641
3698
3751
3802
3851
3883
3883
3840
3758
3658
3576
3547
3584
3645
3667
3621
3561
3578
3705
3865
3930
3853
3719
3663
3722
3798
3761
3600
3434
3389
3461
3529
3486
3357
3258
3265
3336
3364
3313
3255
3290
3416
3538
3573
3546
3544
3604
3667
3659
3574
3473
3399
3351
3322
3325
3366
3432
3508
3601
3720
3841
3931
4001
4095
4210
4262
4183
4020
3900
3883
3885
3803
3653
3544
3534
3559
3534
3456
3406
3414
3425
3380
3286
3185
3072
2902
2657
2359
2037
1702
1393
1211
1265
1558
1988
2460
2964
3559
4262
4995
5662
6222
6694
7083
7340
7416
7335
7195
7075
6951
6717
6316
5854
5535
5481
5583
5611
5427
5105
4835
4711
4656
4528
4282
4008
3832
3809
3889
4004
4119
4240
4349
4373
4234
3952
3662
3491
3431
3351
3194
3053
3046
3145
3180
3054
2873
2808
2873
2908
2797
2648
2672
2926
3239
3397
3362
3274
3272
3346
3388
3332
3210
3078
2956
2833
2734
2713
2764
2786
2673
2455
2295
2302
2392
2372
2192
2008
2006
2163
2261
2170
2009
1981
2111
2199
2077
1843
1761
1957
2262
2419
2376
2317
2390
2499
2429
2146
1872
1822
1915
1876
1604
1312
1269
1455
1584
1472
1244
1131
1175
1218
1148
1041
1035
1116
1145
1058
942
906
984
1145
1372
1663
1965
2170
2238
2251
2298
2349
2293
2101
1893
1816
1891
2014
2120
2265
2512
2791
2950
2929
2854
2888
3040
3170
3188
3163
3214
3344
3428
3377
3256
3196
3229
3279
3289
3286
3328
3424
3538
3653
3790
3944
4063
4116
4135
4196
4333
4508
4650
4714
4695
4612
4501
4426
4452
4578
4724
4793
4777
4771
4865
5026
5113
5012
4744
4435
4197
4068
4019
4014
3998
3913
3746
3573
3516
3605
3723
3720
3575
3420
3379
3415
3379
3201
2970
2833
2813
2815
2768
2731
2824
3073
3372
3609
3780
3938
4088
4170
4162
4133
4143
4157
4097
3979
3925
4027
4206
4318
4338
4373
4497
4634
4652
4550
4464
4483
4542
4503
4334
4127
3980
3909
3871
3853
3872
3922
3958
3967
4008
4118
4222
4192
3987
3716
3523
3443
3393
3301
3195
3135
3115
3089
3069
3125
3274
3390
3331
3119
2916
2855
2875
2821
2647
2446
2335
2316
2314
2253
2110
1875
1559
1203
814
346
-229
-805
-1144
-1077
-697
-256
106
512
1179
2167
3310
4381
5265
5956
6449
6710
6777
6787
6855
6920
6790
6385
5886
5630
5758
6035
6093
5812
5439
5280
5336
5308
4979
4472
4062
3859
3719
3503
3284
3244
3408
3602
3675
3655
3641
3636
3557
3393
3262
3264
3327
3297
3139
2990
2994
3121
3206
3155
3055
3074
3248
3448
3505
3372
3144
2938
2811
2727
2616
2435
2201
1992
1864
1829
1853
1895
1925
1919
1870
1803
1768
1782
1793
1737
1619
1508
1432
1320
1089
780
551
503
547
523
398
325
451
742
993
1044
940
851
881
969
1001
960
918
929
959
970
990
1087
1242
1345
1322
1259
1304
1472
1605
1570
1426
1358
1445
1591
1692
1787
1983
2267
2500
2617
2730
2980
3318
3533
3493
3332
3319
3554
3895
4160
4328
4517
4788
5056
5183
5146
5044
4964
4890
4783
4665
4608
4630
4669
4671
4658
4686
4748
4786
4791
4824
4921
5010
4984
4857
4770
4825
4936
4907
4670
4386
4282
4400
4569
4622
4577
4574
4683
4813
4842
4766
4707
4729
4749
4666
4516
4452
4556
4725
4790
4727
4657
4665
4666
4536
4322
4224
4358
4588
4687
4609
4545
4676
4937
5084
4982
4744
4575
4542
4526
4425
4308
4335
4538
4754
4791
4653
4540
4604
4774
4830
4673
4449
4370
4476
4608
4622
4555
4531
4589
4664
4702
4735
4802
4864
4866
4827
4825
4881
4929
4908
4827
4737
4628
4462
4276
4164
4161
4181
4137
4069
4099
4277
4513
4699
4846
5041
5290
5467
5443
5239
5009
4879
4853
4841
4782
4704
4667
4698
4743
4729
4629
4492
4362
4224
4059
3895
3792
3764
3724
3570
3301
2988
2670
2317
1922
1594
1498
1693
2067
2460
2837
3319
4048
5031
6089
6946
7413
7526
7526
7662
7952
8179
8134
7842
7518
7339
7289
7269
7234
7204
7167
7038
6814
6617
6548
6542
6423
6095
5668
5329
5153
5060
4969
4886
4850
4846
4819
4755
4698
4665
4599
4452
4296
4286
4471
4693
4723
4524
4314
4340
4596
4834
4822
4595
4401
4417
4580
4697
4673
4587
4565
4623
4656
4577
4432
4351
4424
4599
4743
4775
4741
4760
4870
4964
4884
4569
4138
3795
3673
3744
3877
3957
3964
3960
4029
4201
4389
4446
4275
3946
3665
3594
3693
3757
3635
3384
3212
3261
3463
3635
3670
3610
3558
3551
3553
3560
3651
3874
4132
4224
4054
3773
3660
3814
4018
3949
3549
3112
2987
3223
3554
3717
3715
3757
3961
4236
4442
4552
4617
4642
4585
4469
4410
4504
4700
4881
4998
5100
5240
5382
5448
5415
5332
5244
5170
5124
5120
5160
5245
5389
5630
5958
6286
6513
6632
6710
6782
6794
6693
6524
6393
6349
6365
6425
6550
6714
6793
6677
6430
6258
6254
6251
6026
5603
5255
5184
5280
5252
4984
4651
4484
4479
4417
4149
3765
3474
3388
3452
3553
3616
3602
3514
3402
3347
3381
3412
3315
3074
2834
2777
2934
3179
3353
3403
3388
3396
3476
3612
3748
3819
3795
3740
3754
3888
4076
4177
4114
3959
3869
3945
4126
4261
4254
4146
4052
4060
4160
4280
4347
4338
4269
4171
4087
4059
4115
4242
4393
4521
4604
4644
4649
4638
4641
4663
4660
4564
4373
4200
4194
4369
4572
4629
4538
4437
4413
4394
4262
4037
3870
3859
3918
3907
3833
3861
4089
4405
4596
4571
4434
4292
4095
3715
3165
2679
2506
2659
2908
3037
3084
3300
3870
4686
5454
5964
6259
6524
6865
7200
7379
7349
7189
7021
6909
6840
6781
6722
6657
6580
6480
6350
6189
6004
5804
5604
5430
5287
5145
4982
4794
4621
4509
4457
4431
4391
4334
4294
4289
4308
4326
4329
4324
4318
4302
4262
4184
4066
3923
3804
3777
3879
4073
4254
4322
4274
4187
4137
4118
4063
3920
3722
3562
3537
3668
3896
4114
4236
4239
4158
4054
3957
3857
3724
3564
3419
3335
3317
3341
3385
3440
3488
3487
3411
3286
3176
3111
3055
2959
2822
2707
2678
2721
2753
2692
2534
2360
2269
2286
2328
2286
2145
2014
2023
2174
2335
2381
2333
2314
2397
2537
2631
2647
2631
2640
2686
2744
2795
2817
2793
2744
2742
2855
3055
3225
3271
3252
3322
3570
3909
4142
4160
4037
3942
3974
4093
4203
4250
4253
4251
4273
4349
4506
4703
4834
4818
4701
4628
4686
4805
4834
4716
4535
4415
4389
4404
4408
4399
4401
4418
4453
4523
4643
4784
4869
4828
4671
4508
4477
4613
4794
4846
4706
4513
4482
4671
4899
4928
4712
4435
4303
4326
4359
4318
4291
4414
4678
4919
5014
5016
5064
5205
5342
5373
5318
5270
5274
5270
5194
5061
4941
4867
4812
4753
4715
4731
4780
4813
4826
4878
5005
5141
5167
5043
4903
4958
5268
5632
5755
5542
5225
5137
5350
5584
5513
5124
4739
4655
4840
5001
4944
4751
4626
4628
4650
4614
4583
4649
4767
4796
4685
4553
4544
4644
4697
4592
4370
4163
4040
3985
3973
3990
4001
3954
3838
3717
3661
3671
3682
3655
3622
3632
3681
3733
3783
3862
3970
4040
4011
3888
3710
3477
3133
2676
2230
1975
2005
2262
2614
2984
3409
3960
4658
5461
6288
7019
7518
7717
7694
7651
7729
7866
7876
7658
7300
6973
6744
6567
6394
6247
6127
5934
5571
5117
4791
4732
4812
4768
4480
4089
3820
3749
3772
3774
3727
3655
3553
3390
3204
3084
3083
3151
3199
3199
3198
3252
3357
3455
3508
3521
3522
3527
3524
3506
3476
3453
3444
3442
3426
3378
3312
3262
3259
3295
3326
3304
3223
3127
3064
3041
3019
2973
2940
2984
3111
3231
3238
3134
3019
2983
2999
2959
2814
2632
2542
2606
2787
2990
3143
3208
3183
3089
2946
2774
2578
2375
2197
2081
2056
2122
2262
2427
2546
2560
2469
2348
2271
2225
2130
1961
1826
1876
2133
2454
2657
2717
2740
2808
2881
2866
2763
2671
2682
2796
2960
3140
3338
3545
3717
3834
3909
3961
3982
3952
3893
3857
3889
3984
4095
4184
4240
4293
4387
4526
4666
4747
4770
4803
4888
4976
4971
4861
4739
4687
4691
4674
4607
4521
4450
4400
4396
4498
4700
4870
4862
4704
4598
4702
4947
5105
5049
4856
4718
4720
4773
4751
4621
4473
4417
4456
4479
4386
4214
4122
4213
4389
4437
4275
4081
4137
4528
5010
5225
5041
4657
4419
4480
4685
4745
4559
4303
4234
4432
4728
4882
4814
4611
4373
4114
3793
3441
3186
3129
3241
3404
3548
3752
4149
4699
5150
5230
4947
4618
4531
4648
4688
4494
4233
4192
4418
4685
4794
4796
4865
5038
5166
5117
4929
4736
4581
4405
4166
3899
3660
3464
3304
3211
3220
3301
3370
3391
3424
3531
3665
3690
3554
3368
3293
3363
3454
3435
3290
3120
3009
2960
2920
2851
2731
2529
2219
1834
1496
1337
1384
1548
1732
1951
2316
2884
3548
4120
4513
4815
5156
5517
5745
5754
5676
5733
5990
6273
6354
6176
5873
5613
5440
5282
5056
4748
4397
4063
3793
3616
3541
3539
3529
3402
3122
2781
2551
2520
2596
2595
2441
2226
2089
2060
2052
1979
1836
1659
1479
1340
1312
1421
1582
1635
1504
1295
1188
1268
1444
1568
1581
1540
1522
1564
1673
1853
2065
2197
2144
1948
1817
1951
2300
2574
2525
2223
2005
2118
2446
2637
2506
2221
2089
2225
2471
2606
2576
2522
2587
2764
2938
2993
2930
2847
2811
2816
2800
2720
2593
2476
2417
2434
2511
2578
2531
2323
2058
1943
2060
2255
2297
2138
1989
2053
2272
2383
2231
1922
1694
1645
1668
1628
1521
1459
1517
1672
1844
1954
1989
1971
1945
1967
2058
2197
2323
2392
2420
2486
2661
2909
3091
3076
2917
2822
2932
3159
3273
3153
2940
2876
3037
3264
3356
3275
3152
3120
3200
3323
3421
3498
3572
3619
3626
3625
3670
3762
3848
3876
3876
3933
4074
4228
4311
4330
4377
4489
4585
4557
4433
4371
4488
4716
4851
4769
4574
4502
4689
5044
5332
5387
5245
5111
5138
5284
5376
5298
5105
4968
4979
5076
5157
5197
5232
5287
5351
5419
5479
5476
5337
5087
4892
4902
5046
5055
4781
4408
4282
4522
4856
4912
4634
4326
4293
4505
4655
4535
4235
4010
3964
3985
3930
3775
3643
3644
3780
3974
4147
4253
4293
4318
4397
4547
4654
4552
4194
3742
3438
3362
3372
3288
3122
3032
3118
3304
3444
3532
3658
3817
3863
3699
3469
3426
3625
3833
3785
3486
3183
3069
3076
2958
2556
1917
1225
681
431
542
965
1534
2085
2600
3185
3946
4851
5734
6427
6873
7133
7305
7446
7568
7656
7697
7639
7433
7108
6787
6617
6621
6670
6606
6398
6154
5971
5826
5623
5344
5045
4739
4368
3926
3548
3423
3587
3858
4015
4003
3940
3942
3993
3998
3917
3801
3704
3622
3532
3436
3369
3338
3303
3241
3168
3125
3125
3135
3119
3067
2998
2930
2861
2802
2774
2787
2796
2736
2600
2474
2451
2534
2614
2594
2492
2423
2463
2571
2651
2658
2626
2611
2610
2582
2487
2327
2157
2030
1960
1911
1820
1681
1568
1562
1653
1731
1716
1655
1653
1724
1760
1669
1495
1381
1388
1414
1333
1166
1057
1114
1280
1421
1480
1510
1574
1660
1719
1747
1786
1845
1884
1885
1895
1978
2154
2370
2569
2732
2869
2977
3048
3096
3153
3224
3286
3318
3341
3402
3533
3715
3877
3945
3912
3864
3917
4098
4288
4325
4173
3982
3956
4136
4366
4456
4375
4253
4225
4291
4355
4346
4285
4232
4218
4229
4246
4260
4271
4281
4291
4307
4335
4358
4355
4325
4298
4293
4299
4286
4247
4220
4244
4323
4424
4506
4559
4598
4629
4641
4624
4580
4527
4476
4423
4370
4339
4352
4401
4463
4515
4563
4623
4691
4740
4737
4682
4618
4589
4594
4586
4538
4481
4468
4509
4548
4538
4518
4564
4688
4809
4840
4796
4764
4774
4764
4662
4473
4270
4102
3987
3943
4000
4152
4305
4340
4242
4147
4213
4454
4706
4775
4620
4398
4328
4503
4792
4988
4995
4885
4799
4813
4891
4965
4981
4891
4678
4413
4202
4082
3983
3843
3720
3723
3841
3898
3787
3581
3386
3153
2731
2147
1697
1626
1844
2062
2181
2411
2964
3774
4595
5273
5801
6169
6342
6392
6545
6898
7189
7064
6537
6061
6042
6358
6498
6153
5543
5118
5068
5192
5202
5033
4855
4794
4791
4726
4554
4350
4224
4213
4282
4399
4545
4681
4724
4621
4426
4270
4240
4278
4246
4080
3883
3818
3939
4172
4393
4555
4704
4908
5172
5418
5569
5636
5708
5843
5957
5895
5621
5320
5222
5341
5424
5226
4788
4403
4306
4456
4632
4693
4663
4601
4467
4192
3814
3470
3245
3059
2766
2359
2005
1881
1988
2148
2185
2070
1898
1754
1637
1506
1351
1200
1064
933
815
758
811
965
1133
1206
1138
977
825
756
745
679
487
253
174
353
662
864
849
746
772
994
1277
1446
1481
1520
1688
1959
2200
2313
2338
2389
2526
2677
2722
2639
2558
2637
2900
3215
3438
3563
3713
3966
4272
4496
4552
4463
4329
4248
4264
4343
4397
4366
4282
4245
4322
4468
4569
4544
4412
4257
4165
4171
4233
4254
4159
3981
3852
3885
4059
4231
4264
4151
4020
4003
4132
4322
4450
4453
4381
4328
4355
4416
4415
4323
4207
4148
4141
4128
4105
4152
4333
4584
4747
4753
4682
4657
4705
4755
4762
4754
4768
4786
4754
4678
4629
4657
4712
4712
4635
4542
4510
4553
4625
4693
4748
4782
4786
4759
4703
4611
4476
4328
4234
4228
4268
4297
4342
4469
4672
4847
4908
4892
4907
4970
4985
4879
4714
4607
4582
4553
4457
4345
4302
4336
4376
4370
4347
4347
4372
4413
4480
4580
4669
4681
4607
4493
4367
4200
3974
3726
3508
3319
3133
2970
2866
2761
2515
2093
1699
1612
1863
2167
2249
2179
2313
2881
3738
4552
5143
5602
6077
6558
6908
7031
6973
6851
6732
6585
6339
5973
5571
5288
5213
5272
5280
5133
4916
4810
4883
5015
5023
4845
4571
4328
4174
4091
4053
4043
4040
4011
3942
3843
3743
3664
3609
3592
3626
3754
4004
4160
4267
4285
4214
4123
4090
4112
4087
3914
3620
3371
3322
3459
3618
3675
3652
3666
3788
3973
4132
4220
4257
4278
4289
4267
4178
4012
3811
3642
3547
3505
3480
3477
3541
3653
3720
3686
3620
3647
3762
3807
3653
3395
3272
3386
3581
3650
3581
3528
3583
3651
3572
3336
3070
2885
2784
2711
2636
2558
2484
2448
2502
2657
2813
2837
2715
2584
2570
2625
2598
2445
2326
2430
2733
3047
3246
3400
3633
3921
4100
4068
3912
3772
3671
3545
3416
3430
3693
4125
4520
4775
4963
5186
5399
5470
5353
5163
5063
5102
5198
5263
5278
5269
5260
5271
5303
5305
5200
4973
4742
4677
4832
5077
5247
5314
5388
5542
5715
5781
5711
5597
5526
5477
5379
5228
5096
5028
4970
4819
4556
4291
4157
4190
4322
4451
4531
4597
4703
4866
5036
5125
5080
4933
4771
4663
4596
4515
4405
4318
4316
4378
4422
4402
4374
4405
4469
4437
4221
3887
3610
3509
3560
3666
3773
3890
4029
4168
4274
4333
4355
4349
4331
4328
4354
4390
4395
4361
4338
4373
4442
4467
4384
4226
4089
4045
4077
4122
4157
4220
4352
4528
4667
4717
4711
4734
4815
4894
4900
4843
4799
4815
4854
4836
4740
4633
4591
4609
4618
4550
4411
4254
4125
4039
3987
3953
3915
3854
3739
3547
3256
2858
2387
1934
1610
1482
1553
1791
2205
2827
3642
4546
5398
6124
6744
7292
7720
7940
7930
7790
7666
7616
7555
7366
7046
6701
6453
6312
6188
5994
5745
5532
5413
5335
5176
4891
4566
4322
4173
4010
3754
3500
3451
3693
4057
4245
4127
3850
3650
3588
3533
3375
3191
3149
3285
3472
3590
3674
3812
3968
3980
3766
3474
3346
3461
3643
3670
3517
3371
3437
3753
4161
4427
4386
4060
3671
3475
3531
3633
3518
3163
2843
2826
3094
3391
3536
3579
3635
3680
3587
3327
3042
2896
2903
2943
2917
2839
2794
2878
3144
3562
3985
4210
4135
3842
3517
3256
2992
2631
2216
1888
1747
1757
1815
1873
1944
2061
2207
2302
2253
2034
1760
1645
1834
2248
2644
2837
2905
3073
3421
3771
3880
3714
3458
3302
3273
3330
3503
3856
4310
4615
4588
4297
3989
3811
3697
3487
3160
2852
2724
2833
3116
3466
3764
3924
3931
3842
3728
3617
3493
3343
3209
3145
3186
3286
3361
3391
3441
3569
3713
3729
3531
3232
3046
3070
3176
3179
3036
2862
2766
2734
2719
2734
2823
2955
3034
3038
3051
3138
3231
3219
3127
3098
3192
3286
3237
3075
2987
3082
3275
3386
3356
3286
3300
3428
3613
3799
3946
4045
4106
4161
4245
4352
4415
4377
4249
4100
3985
3886
3764
3625
3526
3522
3593
3661
3662
3605
3551
3545
3574
3575
3512
3415
3351
3360
3411
3452
3488
3555
3671
3787
3849
3854
3855
3882
3894
3825
3698
3627
3679
3798
3865
3858
3881
4025
4234
4370
4388
4373
4415
4476
4472
4420
4428
4544
4640
4567
4359
4219
4272
4407
4387
4119
3706
3281
2871
2468
2167
2094
2232
2400
2477
2617
3115
4036
5093
5911
6386
6706
7082
7505
7800
7847
7682
7410
7124
6872
6689
6558
6408
6189
5946
5779
5697
5591
5345
4968
4576
4250
3966
3680
3394
3157
2993
2882
2818
2812
2855
2902
2919
2883
2773
2579
2348
2203
2241
2415
2554
2533
2419
2378
2473
2608
2661
2609
2519
2455
2444
2494
2606
2749
2862
2905
2897
2877
2864
2864
2887
2942
2995
3011
3010
3060
3177
3264
3210
2995
2749
2607
2574
2561
2514
2470
2503
2647
2861
3050
3131
3083
2968
2854
2750
2597
2355
2093
1969
2081
2342
2559
2621
2593
2607
2716
2866
2963
2946
2811
2582
2332
2164
2127
2163
2149
2052
1951
1944
2040
2180
2333
2530
2773
2980
3062
3040
3031
3126
3260
3304
3219
3115
3141
3315
3503
3575
3547
3563
3694
3829
3801
3587
3378
3396
3653
3922
3987
3865
3756
3821
4027
4201
4240
4189
4148
4152
4159
4128
4102
4144
4245
4334
4352
4347
4395
4510
4618
4657
4663
4709
4780
4797
4749
4759
4915
5107
5112
4844
4519
4440
4651
4877
4828
4518
4221
4160
4290
4413
4447
4467
4547
4645
4695
4732
4841
4969
4958
4766
4564
4562
4732
4843
4758
4608
4622
4820
4994
4998
4892
4814
4770
4670
4533
4492
4604
4727
4694
4565
4572
4819
5122
5226
5088
4901
4829
4834
4790
4688
4636
4679
4720
4643
4494
4412
4434
4463
4397
4272
4205
4245
4320
4354
4376
4472
4629
4735
4708
4575
4439
4353
4296
4206
4022
3745
3459
3301
3324
3415
3363
3089
2724
2411
2106
1663
1125
789
909
1371
1814
2063
2333
2942
3884
4818
5451
5827
6150
6477
6670
6637
6506
6479
6572
6574
6326
5925
5646
5645
5806
5883
5739
5464
5217
5055
4917
4745
4557
4370
4134
3792
3401
3138
3141
3350
3554
3601
3505
3378
3309
3327
3436
3633
3849
3953
3854
3605
3374
3271
3243
3149
2923
2663
2532
2611
2839
3088
3251
3296
3245
3164
3119
3124
3111
3000
2803
2646
2632
2733
2814
2794
2726
2696
2679
2562
2334
2142
2131
2256
2320
2217
2064
2057
2232
2402
2381
2173
1957
1891
1965
2044
2014
1874
1735
1700
1775
1868
1883
1830
1817
1913
2040
2060
1949
1858
1928
2095
2161
2041
1879
1886
2081
2263
2274
2198
2247
2513
2859
3096
3173
3178
3206
3246
3235
3150
3040
2979
3006
3120
3284
3447
3601
3788
4039
4320
4530
4578
4473
4327
4253
4272
4321
4322
4262
4193
4180
4263
4432
4615
4715
4660
4493
4343
4313
4398
4476
4443
4308
4162
4087
4105
4185
4282
4356
4382
4368
4367
4394
4380
4240
4001
3810
3795
3934
4096
4196
4260
4347
4467
4615
4798
4987
5063
4901
4554
4266
4228
4368
4443
4356
4268
4348
4529
4568
4375
4157
4142
4275
4298
4075
3789
3700
3805
3857
3689
3455
3439
3726
4093
4274
4273
4319
4561
4868
4970
4763
4437
4248
4230
4181
3972
3736
3713
3930
4144
4118
3907
3765
3831
3994
4068
4030
3987
4020
4106
4224
4422
4696
4895
4846
4582
4352
4364
4540
4622
4484
4273
4234
4403
4592
4624
4531
4501
4614
4747
4723
4513
4222
3939
3667
3421
3299
3408
3712
4082
4464
4939
5601
6380
7095
7640
8041
8330
8448
8335
8056
7776
7565
7335
6966
6493
6087
5860
5755
5606
5332
4999
4710
4490
4273
3993
3659
3331
3040
2775
2524
2327
2238
2252
2288
2264
2175
2102
2130
2253
2368
2349
2158
1896
1742
1814
2049
2238
2220
2059
1967
2082
2337
2533
2551
2445
2350
2326
2341
2349
2339
2346
2396
2471
2528
2542
2534
2561
2658
2786
2857
2841
2829
2945
3204
3482
3650
3683
3653
3610
3534
3406
3268
3184
3160
3143
3104
3087
3132
3194
3186
3082
2945
2844
2779
2693
2577
2519
2596
2773
2935
3017
3074
3190
3344
3411
3297
3083
2939
2936
2980
2929
2765
2612
2598
2719
2862
2943
2984
3068
3229
3408
3531
3593
3649
3729
3786
3760
3674
3633
3711
3869
4025
4170
4363
4620
4860
4998
5075
5214
5425
5542
5410
5108
4877
4841
4877
4801
4628
4553
4686
4900
4996
4967
5009
5232
5485
5509
5255
4940
4805
4872
4969
4960
4854
4757
4751
4860
5053
5233
5268
5109
4874
4761
4834
4943
4909
4750
4650
4722
4865
4912
4857
4863
5045
5302
5439
5382
5255
5210
5235
5168
4917
4584
4357
4301
4294
4199
4051
4023
4209
4502
4710
4765
4775
4848
4945
4936
4780
4580
4452
4396
4324
4192
4058
4000
4012
3995
3865
3646
3456
3398
3465
3569
3627
3640
3676
3791
3970
4142
4230
4202
4089
3966
3905
3913
3938
3921
3855
3792
3785
3839
3907
3929
3867
3746
3642
3636
3759
3935
4069
4128
4137
4111
4016
3820
3555
3281
2990
2623
2210
1929
1979
2350
2817
3174
3444
3831
4476
5281
6004
6495
6801
7040
7271
7460
7588
7689
7785
7806
7653
7332
7000
6822
6813
6820
6717
6512
6315
6208
6173
6139
6060
5890
5579
5141
4725
4499
4492
4562
4565
4531
4611
4852
5089
5088
4819
4488
4315
4329
4376
4296
4080
3848
3732
3804
4034
4298
4430
4329
4055
3810
3754
3851
3908
3767
3481
3257
3249
3419
3601
3668
3630
3564
3535
3541
3525
3450
3349
3286
3305
3365
3376
3291
3182
3178
3315
3462
3447
3220
2893
2636
2522
2506
2509
2477
2408
2343
2339
2449
2661
2885
3016
3013
2947
2951
3097
3335
3509
3475
3247
2997
2900
2967
3030
2939
2753
2659
2756
2972
3168
3288
3340
3289
3087
2806
2635
2690
2838
2861
2749
2747
3076
3635
4095
4247
4181
4119
4145
4165
4083
3920
3760
3651
3610
3651
3781
3953
4091
4172
4241
4333
4422
4466
4489
4535
4589
4582
4485
4366
4302
4266
4150
3921
3716
3726
3984
4315
4507
4522
4516
4631
4828
4932
4835
4627
4498
4543
4679
4778
4808
4847
4967
5127
5222
5199
5095
4972
4838
4655
4418
4192
4084
4159
4386
4661
4869
4963
4976
4975
4996
5025
5029
4977
4857
4679
4495
4375
4360
4410
4450
4451
4455
4499
4559
4601
4647
4748
4886
4944
4818
4539
4242
4041
3952
3932
3961
4022
4089
4141
4204
4347
4579
4805
4887
4770
4534
4329
4251
4297
4396
4469
4485
4467
4451
4443
4409
4316
4171
4025
3934
3912
3903
3852
3753
3676
3701
3809
3866
3756
3506
3270
3144
3029
2746
2277
1846
1714
1909
2224
2474
2706
3097
3716
4429
5070
5609
6123
6617
6973
7098
7069
7074
7199
7314
7214
6866
6482
6302
6353
6406
6243
5888
5555
5394
5327
5171
4893
4625
4469
4336
4097
3788
3592
3609
3718
3746
3686
3654
3666
3598
3375
3139
3097
3220
3250
3041
2769
2735
2962
3158
3073
2829
2756
2974
3262
3344
3249
3265
3572
4032
4367
4465
4444
4440
4437
4338
4135
3894
3651
3373
3076
2890
2936
3143
3274
3179
2965
2854
2918
2979
2853
2598
2442
2512
2694
2803
2850
3023
3400
3792
3934
3795
3625
3628
3708
3605
3263
2927
2855
2977
2990
2786
2608
2729
3061
3223
3015
2686
2629
2894
3118
2986
2604
2350
2448
2752
2969
2995
2968
3049
3267
3557
3877
4233
4594
4873
4985
4951
4882
4869
4903
4897
4795
4660
4618
4715
4887
5022
5085
5128
5193
5253
5254
5190
5079
4923
4732
4572
4505
4492
4399
4166
3907
3829
3986
4197
4246
4111
3968
3976
4099
4171
4092
3909
3728
3583
3427
3224
3020
2908
2916
2980
3031
3056
3124
3285
3485
3611
3611
3543
3501
3495
3438
3278
3116
3115
3298
3513
3606
3616
3723
3996
4278
4374
4278
4160
4134
4135
4067
3970
3967
4076
4170
4167
4160
4284
4514
4685
4706
4651
4641
4670
4645
4539
4413
4305
4175
3986
3807
3754
3849
3995
4081
4098
4108
4141
4174
4169
4131
4094
4066
4036
4008
4018
4083
4163
4201
4175
4137
4150
4214
4260
4208
4047
3856
3736
3700
3661
3532
3316
3124
3033
2958
2730
2323
1974
1979
2368
2852
3159
3342
3687
4343
5151
5852
6374
6835
7279
7589
7660
7573
7508
7513
7462
7250
6964
6801
6841
6971
7013
6905
6722
6556
6415
6213
5882
5483
5133
4885
4673
4390
4053
3791
3693
3712
3725
3682
3650
3676
3709
3654
3519
3429
3462
3573
3628
3531
3290
2995
2763
2663
2690
2762
2792
2772
2740
2722
2707
2690
2703
2753
2780
2719
2613
2608
2782
3032
3174
3127
2978
2879
2875
2891
2839
2712
2572
2496
2511
2581
2628
2606
2550
2560
2691
2857
2902
2755
2536
2431
2494
2605
2603
2491
2412
2456
2545
2546
2452
2389
2420
2455
2381
2261
2278
2489
2718
2765
2684
2726
3010
3339
3409
3168
2878
2814
2960
3084
3022
2858
2789
2895
3102
3311
3521
3751
3945
4018
3973
3951
4056
4224
4298
4215
4074
4024
4100
4213
4281
4306
4326
4356
4384
4421
4472
4499
4444
4318
4195
4144
4159
4182
4178
4181
4216
4266
4300
4307
4295
4271
4247
4256
4332
4439
4493
4479
4465
4520
4610
4645
4606
4580
4631
4703
4719
4708
4770
4897
4924
4741
4493
4454
4674
4877
4787
4501
4388
4643
5042
5215
5101
4990
5114
5334
5335
5050
4767
4780
5046
5260
5235
5084
5019
5092
5177
5162
5065
4947
4810
4627
4449
4370
4402
4452
4430
4337
4253
4240
4297
4392
4481
4512
4465
4379
4333
4360
4418
4453
4455
4449
4429
4362
4279
4268
4363
4462
4440
4307
4199
4201
4246
4216
4084
3933
3844
3791
3689
3495
3251
3034
2859
2638
2267
1768
1353
1283
1617
2145
2593
2909
3291
3919
4733
5511
6129
6636
7103
7488
7702
7768
7825
7948
8052
7984
7712
7374
7123
6976
6815
6543
6188
5871
5660
5494
5247
4885
4524
4297
4190
4049
3763
3409
3190
3200
3323
3356
3210
2971
2799
2755
2765
2718
2605
2542
2629
2818
2930
2839
2628
2507
2572
2698
2703
2586
2539
2680
2888
2943
2811
2690
2752
2900
2893
2669
2449
2463
2663
2784
2660
2411
2302
2417
2581
2573
2376
2172
2140
2272
2411
2416
2287
2137
2073
2111
2183
2205
2137
2003
1863
1787
1802
1869
1902
1842
1703
1558
1463
1401
1319
1197
1094
1066
1099
1119
1086
1061
1136
1296
1422
1427
1370
1395
1550
1715
1734
1607
1493
1530
1683
1805
1826
1824
1915
2105
2296
2417
2498
2610
2771
2924
3016
3053
3082
3152
3259
3348
3364
3309
3281
3371
3554
3684
3656
3544
3523
3653
3801
3818
3739
3738
3902
4107
4179
4107
4029
4037
4074
4051
3991
3977
4017
4022
3940
3851
3861
3959
4032
4014
3964
3980
4068
4158
4218
4286
4393
4476
4455
4339
4243
4248
4302
4284
4163
4048
4068
4251
4513
4747
4887
4895
4757
4532
4338
4251
4221
4136
3979
3855
3872
3999
4113
4151
4162
4199
4222
4173
4085
4064
4126
4130
3944
3652
3503
3633
3886
4008
3972
4003
4279
4677
4877
4722
4394
4202
4241
4305
4150
3783
3500
3620
4169
4815
5127
4956
4571
4375
4479
4586
4320
3650
2952
2642
2802
3190
3483
3523
3370
3179
3089
3093
2991
2558
1799
1058
756
981
1418
1710
1831
2087
2734
3700
4662
5362
5816
6198
6624
7053
7384
7548
7543
7392
7123
6772
6409
6106
5892
5742
5621
5516
5428
5355
5304
5281
5314
5365
5305
5031
4575
4127
3873
3828
3870
3895
3923
4056
4323
4663
4992
5274
5499
5645
5710
5719
5695
5590
5344
4999
4691
4515
4416
4251
3990
3763
3683
3685
3618
3454
3316
3303
3339
3260
3034
2814
2730
2745
2703
2507
2197
1855
1526
1214
949
770
647
471
176
-153
-324
-233
14
192
192
140
242
553
906
1083
1023
855
740
705
667
553
380
266
298
464
662
790
837
918
1159
1555
1930
2095
2036
1922
1925
2035
2107
2053
1966
2007
2204
2421
2535
2594
2753
3051
3337
3440
3374
3332
3476
3765
4037
4203
4333
4517
4726
4870
4919
4935
4954
4929
4825
4734
4812
5077
5361
5492
5487
5501
5613
5716
5652
5444
5322
5471
5820
6101
6148
6050
6019
6101
6130
5946
5619
5390
5368
5392
5259
5006
4893
5067
5350
5437
5244
4992
4908
4968
4967
4826
4687
4698
4811
4859
4801
4780
4920
5153
5288
5270
5239
5328
5473
5493
5326
5124
5072
5181
5290
5295
5258
5302
5429
5530
5534
5471
5396
5295
5141
4974
4887
4908
4962
4965
4923
4900
4929
4987
5062
5191
5386
5580
5687
5727
5819
6023
6233
6259
6044
5742
5567
5565
5583
5472
5275
5152
5181
5270
5290
5235
5184
5154
5094
5002
4967
5040
5109
4984
4638
4249
3952
3651
3177
2593
2225
2331
2789
3223
3433
3603
4038
4762
5487
5927
6088
6184
6360
6550
6634
6628
6662
6772
6833
6703
6397
6099
5981
6030
6086
6003
5783
5535
5350
5226
5097
4887
4570
4187
3820
3550
3427
3468
3649
3916
4192
4393
4476
4461
4411
4360
4295
4181
4004
3785
3580
3463
3481
3636
3880
4129
4298
4337
4254
4105
3967
3868
3759
3545
3211
2890
2755
2859
3080
3243
3293
3326
3455
3685
3902
3998
3961
3871
3836
3897
3997
4026
3906
3655
3391
3232
3187
3165
3085
2992
3011
3193
3438
3574
3531
3405
3318
3255
3078
2719
2323
2128
2211
2426
2578
2666
2842
3178
3513
3597
3371
3041
2850
2816
2767
2590
2394
2379
2600
2905
3095
3104
3013
2930
2905
2935
3000
3052
3037
2973
2994
3234
3638
3972
4044
3917
3851
4006
4248
4323
4154
3942
3911
4055
4174
4135
4023
3988
4041
4056
3971
3898
3986
4219
4410
4403
4255
4148
4184
4290
4336
4286
4213
4171
4150
4118
4083
4081
4116
4171
4249
4366
4479
4497
4397
4299
4325
4414
4353
4036
3651
3514
3720
4043
4208
4192
4191
4332
4513
4550
4431
4301
4247
4169
3944
3661
3589
3876
4350
4664
4670
4557
4622
4916
5170
5101
4718
4282
4002
3836
3604
3252
2938
2848
2992
3200
3314
3352
3448
3684
3979
4159
4138
4007
3939
3991
4055
3987
3792
3611
3548
3556
3495
3321
3136
3058
3103
3189
3238
3246
3249
3266
3274
3247
3180
3078
2934
2745
2544
2389
2293
2165
1897
1528
1269
1335
1709
2128
2353
2423
2606
3099
3829
4555
5111
5490
5763
5977
6163
6365
6587
6741
6718
6510
6246
6055
5965
5907
5821
5693
5521
5309
5096
4938
4859
4821
4766
4649
4438
4107
3697
3353
3213
3254
3279
3109
2778
2504
2458
2603
2761
2805
2764
2732
2745
2763
2733
2643
2521
2396
2278
2170
2087
2046
2043
2046
2012
1940
1867
1837
1865
1942
2053
2178
2276
2296
2225
2107
2007
1948
1895
1796
1636
1463
1355
1370
1492
1630
1694
1695
1721
1821
1913
1877
1700
1523
1481
1551
1603
1598
1635
1795
1977
1979
1743
1470
1394
1511
1575
1401
1096
959
1132
1451
1630
1555
1361
1240
1238
1257
1215
1160
1205
1392
1657
1902
2084
2234
2386
2512
2535
2408
2187
2013
2007
2166
2373
2533
2670
2871
3163
3434
3531
3424
3215
3023
2865
2724
2647
2727
2952
3152
3189
3144
3241
3536
3798
3733
3302
2796
2536
2565
2684
2736
2759
2882
3142
3443
3671
3780
3803
3762
3628
3368
3038
2800
2801
3014
3255
3366
3355
3363
3461
3557
3514
3338
3149
3016
2917
2814
2730
2694
2679
2658
2668
2787
2978
3082
3005
2835
2735
2757
2810
2789
2715
2691
2770
2887
2925
2822
2623
2447
2408
2487
2520
2351
2020
1752
1742
1953
2189
2315
2368
2481
2741
3115
3468
3639
3554
3306
3106
3109
3252
3361
3380
3423
3552
3636
3490
3159
2911
2910
2998
2923
2691
2571
2728
2980
3035
2883
2789
2880
2906
2531
1782
1063
675
482
155
-328
-573
-218
609
1400
1813
1983
2300
2932
3663
4179
4412
4549
4778
5093
5350
5456
5428
5336
5208
5037
4834
4636
4484
4370
4217
3970
3648
3349
3166
3087
2987
2752
2390
2026
1788
1687
1636
1577
1541
1595
1724
1823
1823
1770
1766
1841
1902
1871
1781
1758
1849
1947
1891
1661
1407
1294
1336
1415
1426
1383
1373
1460
1605
1725
1777
1784
1794
1831
1855
1814
1720
1672
1745
1887
1948
1865
1753
1774
1922
2016
1938
1779
1727
1835
1977
2044
2066
2140
2252
2273
2158
2020
2011
2129
2215
2145
1982
1905
2013
2230
2374
2330
2142
1978
1968
2072
2116
1974
1706
1524
1559
1711
1767
1645
1491
1501
1676
1807
1745
1579
1537
1706
1927
1994
1896
1825
1943
2155
2220
2047
1825
1827
2105
2423
2499
2324
2147
2216
2546
2919
3115
3100
3008
2979
3035
3108
3123
3053
2937
2839
2813
2870
2976
3081
3166
3233
3279
3295
3287
3296
3377
3514
3614
3597
3499
3434
3467
3543
3553
3457
3319
3240
3241
3290
3368
3494
3693
3935
4129
4190
4106
3940
3780
3662
3562
3428
3261
3143
3147
3265
3415
3540
3651
3752
3811
3793
3734
3690
3683
3665
3593
3505
3486
3552
3618
3609
3567
3603
3789
4038
4157
4041
3791
3636
3704
3854
3816
3501
3120
2983
3181
3510
3729
3804
3879
4038
4174
4132
3905
3637
3474
3400
3294
3101
2894
2793
2844
2982
3110
3174
3155
3061
2916
2773
2672
2562
2328
1923
1428
974
562
108
-379
-711
-676
-279
266
780
1311
2016
2919
3844
4587
5099
5460
5733
5912
5985
6011
6085
6216
6309
6276
6150
6082
6182
6382
6490
6337
5936
5438
4991
4615
4233
3801
3359
2985
2741
2630
2627
2716
2871
3060
3223
3291
3231
3070
2870
2688
2547
2444
2379
2348
2355
2406
2501
2621
2708
2707
2618
2516
2471
2469
2431
2307
2156
2087
2148
2271
2348
2344
2314
2330
2411
2504
2555
2536
2448
2307
2141
1989
1886
1829
1796
1768
1729
1671
1607
1577
1629
1739
1794
1699
1505
1370
1399
1512
1537
1413
1256
1214
1297
1392
1413
1370
1318
1275
1233
1211
1235
1278
1276
1208
1139
1147
1209
1222
1129
992
921
945
1001
1043
1098
1225
1408
1573
1665
1706
1743
1782
1812
1847
1932
2075
2212
2282
2294
2316
2386
2469
2510
2508
2509
2538
2589
2668
2803
3006
3219
3343
3331
3242
3185
3215
3292
3324
3271
3190
3184
3311
3507
3638
3614
3481
3353
3297
3279
3229
3151
3128
3225
3415
3587
3655
3618
3535
3453
3369
3269
3159
3068
3030
3048
3111
3218
3381
3603
3847
4013
4018
3893
3750
3682
3669
3610
3463
3301
3227
3248
3300
3349
3440
3601
3741
3733
3575
3418
3404
3501
3534
3396
3179
3071
3148
3325
3471
3539
3569
3592
3590
3543
3481
3465
3515
3571
3571
3520
3471
3488
3571
3675
3780
3885
3956
3929
3774
3572
3450
3441
3432
3300
3072
2899
2880
2968
3051
3087
3099
3075
2947
2676
2300
1868
1387
899
570
591
956
1400
1669
1829
2201
2975
3957
4768
5227
5479
5753
6090
6355
6435
6336
6115
5801
5454
5216
5199
5327
5370
5166
4821
4564
4515
4536
4391
4030
3645
3466
3500
3524
3361
3104
3012
3187
3410
3352
2950
2475
2244
2293
2391
2342
2188
2124
2274
2567
2811
2829
2583
2225
2014
2104
2392
2627
2674
2635
2698
2879
3034
3035
2912
2783
2677
2537
2332
2106
1930
1866
1951
2194
2511
2736
2764
2666
2606
2635
2608
2377
2008
1729
1718
1923
2161
2317
2413
2533
2692
2831
2878
2808
2651
2481
2382
2384
2428
2393
2237
2066
2037
2172
2312
2288
2138
2072
2221
2474
2620
2619
2654
2884
3241
3498
3528
3451
3463
3614
3796
3874
3839
3780
3750
3720
3656
3609
3671
3867
4086
4198
4201
4217
4357
4580
4726
4685
4508
4331
4234
4181
4114
4052
4048
4094
4111
4051
3960
3919
3937
3937
3848
3695
3545
3438
3371
3338
3364
3470
3611
3716
3755
3768
3807
3869
3904
3899
3883
3886
3913
3948
3995
4072
4158
4215
4243
4296
4422
4612
4803
4939
4978
4902
4757
4654
4672
4747
4709
4498
4289
4337
4669
5022
5126
4984
4832
4839
4921
4888
4691
4465
4344
4339
4388
4489
4671
4893
5055
5115
5154
5250
5349
5322
5163
5055
5163
5415
5548
5426
5214
5183
5400
5664
5764
5724
5713
5785
5814
5678
5430
5206
5055
4893
4651
4399
4262
4267
4362
4496
4624
4679
4589
4383
4205
4144
4059
3714
3111
2580
2483
2815
3182
3242
3113
3229
3820
4654
5308
5636
5858
6243
6756
7138
7236
7149
7062
7009
6892
6681
6496
6473
6581
6659
6609
6475
6371
6331
6268
6086
5785
5438
5118
4864
4682
4563
4496
4439
4362
4276
4238
4257
4278
4221
4069
3913
3884
4034
4277
4466
4510
4432
4321
4257
4260
4289
4272
4161
3991
3883
3948
4155
4329
4300
4078
3848
3764
3801
3808
3697
3545
3483
3548
3648
3679
3623
3534
3454
3360
3203
2974
2729
2556
2500
2520
2522
2466
2411
2462
2638
2825
2879
2776
2617
2525
2528
2560
2542
2459
2348
2254
2191
2141
2084
2033
2028
2107
2229
2299
2253
2118
1984
1919
1905
1884
1821
1737
1675
1695
1833
2062
2293
2456
2568
2717
2934
3131
3204
3161
3124
3168
3243
3279
3329
3516
3825
4060
4046
3852
3735
3838
4026
4045
3834
3616
3662
4010
4437
4694
4741
4737
4845
5048
5188
5162
5024
4904
4852
4811
4725
4641
4652
4758
4847
4835
4785
4841
5051
5277
5329
5155
4879
4665
4558
4468
4295
4050
3842
3779
3871
4034
4171
4255
4319
4389
4439
4419
4337
4253
4221
4216
4169
4062
3968
3971
4037
4056
3970
3866
3880
4018
4137
4124
4039
4031
4152
4268
4226
4027
3797
3635
3527
3435
3385
3438
3580
3710
3754
3733
3735
3811
3921
3978
3930
3813
3718
3711
3792
3894
3968
4019
4076
4133
4145
4100
4067
4129
4267
4350
4282
4110
3965
3911
3885
3776
3508
3085
2563
2053
1719
1690
1948
2316
2620
2858
3190
3725
4360
4883
5211
5444
5706
5968
6086
6017
5918
5964
6127
6197
6029
5710
5465
5420
5478
5464
5294
4997
4635
4248
3880
3593
3419
3302
3130
2857
2588
2476
2577
2782
2923
2915
2793
2636
2481
2341
2242
2236
2332
2464
2545
2557
2565
2627
2736
2831
2870
2858
2829
2800
2775
2765
2780
2813
2834
2805
2705
2555
2423
2397
2512
2694
2789
2692
2471
2332
2426
2685
2853
2721
2322
1910
1724
1800
1972
2048
1960
1792
1673
1661
1721
1766
1746
1687
1648
1642
1613
1507
1337
1171
1068
1017
956
855
763
750
826
930
986
972
933
915
908
865
776
705
723
830
952
1020
1047
1099
1213
1354
1454
1470
1433
1406
1443
1563
1725
1867
1961
2029
2120
2255
2387
2426
2325
2166
2110
2258
2546
2795
2868
2804
2753
2788
2835
2795
2694
2650
2720
2839
2915
2949
3017
3139
3258
3302
3244
3104
2930
2776
2709
2758
2848
2888
2879
2932
3126
3375
3502
3433
3255
3082
2928
2769
2666
2739
3001
3321
3555
3696
3799
3848
3777
3608
3469
3438
3425
3307
3130
3062
3181
3338
3361
3244
3118
3078
3071
3015
2891
2735
2575
2462
2459
2565
2679
2697
2661
2753
3059
3408
3541
3397
3176
3122
3267
3469
3587
3628
3683
3785
3904
4019
4137
4236
4231
4019
3615
3156
2832
2729
2807
2949
3037
3055
3080
3216
3485
3738
3757
3489
3141
2962
2963
2903
2576
2078
1692
1525
1425
1215
975
979
1352
1935
2485
2939
3430
4047
4690
5192
5517
5780
6073
6336
6431
6313
6090
5892
5737
5517
5151
4705
4313
4043
3847
3675
3557
3531
3545
3458
3202
2884
2676
2616
2564
2359
2033
1803
1847
2112
2355
2368
2162
1924
1814
1823
1815
1683
1472
1341
1408
1639
1879
2007
2047
2098
2222
2356
2381
2250
2033
1854
1798
1851
1934
1973
1962
1969
2056
2180
2217
2107
1947
1907
2036
2202
2244
2143
2034
2043
2153
2254
2266
2168
1976
1729
1529
1482
1559
1582
1403
1089
868
872
983
997
883
835
1026
1382
1666
1736
1694
1759
1993
2216
2202
1948
1708
1738
2020
2284
2303
2131
2045
2229
2568
2778
2704
2483
2411
2647
3064
3373
3407
3282
3252
3448
3742
3885
3760
3506
3367
3453
3664
3860
4008
4167
4358
4523
4594
4600
4644
4755
4824
4725
4485
4301
4342
4558
4716
4635
4396
4236
4262
4339
4263
4000
3718
3567
3527
3481
3376
3283
3280
3353
3412
3383
3286
3202
3206
3271
3288
3164
2954
2847
2985
3268
3441
3350
3129
3053
3216
3435
3482
3350
3227
3258
3414
3585
3711
3810
3877
3873
3798
3706
3632
3565
3492
3440
3427
3419
3393
3417
3604
3920
4150
4107
3887
3800
4066
4527
4780
4592
4146
3835
3860
4052
4092
3881
3631
3613
3850
4114
4213
4192
4230
4385
4513
4443
4196
3958
3882
3937
3971
3876
3658
3434
3330
3364
3405
3257
2846
2314
1847
1445
939
275
-281
-350
113
707
1024
1103
1396
2226
3385
4354
4835
4998
5187
5513
5810
5900
5813
5694
5607
5478
5247
4973
4771
4688
4655
4589
4456
4280
4120
4011
3942
3851
3654
3343
3020
2805
2724
2706
2690
2713
2842
3026
3105
2986
2773
2663
2726
2846
2908
2947
3075
3285
3434
3425
3340
3341
3450
3514
3396
3168
3036
3104
3270
3361
3329
3266
3293
3413
3527
3533
3400
3196
3034
2991
3060
3147
3137
2999
2831
2770
2842
2917
2851
2654
2492
2488
2558
2496
2238
1966
1916
2091
2247
2169
1924
1768
1827
1966
1970
1802
1610
1527
1529
1505
1416
1326
1283
1256
1189
1102
1087
1187
1324
1382
1336
1270
1282
1383
1498
1569
1614
1688
1801
1909
1979
2045
2157
2313
2454
2540
2605
2694
2796
2858
2865
2886
2987
3126
3197
3152
3087
3134
3296
3426
3404
3279
3225
3332
3513
3609
3575
3503
3485
3507
3489
3419
3362
3368
3397
3378
3317
3289
3323
3388
3441
3474
3496
3493
3466
3464
3531
3623
3634
3557
3522
3633
3795
3811
3647
3500
3559
3754
3840
3711
3528
3489
3566
3565
3391
3182
3124
3246
3425
3559
3660
3788
3950
4091
4156
4134
4054
3949
3855
3784
3715
3632
3549
3502
3517
3592
3706
3840
3975
4081
4120
4086
4006
3920
3840
3750
3636
3498
3374
3330
3385
3499
3589
3620
3627
3662
3711
3694
3566
3385
3258
3245
3302
3361
3435
3583
3787
3924
3859
3583
3201
2813
2399
1894
1348
975
979
1346
1832
2200
2450
2781
3373
4165
4911
5398
5602
5658
5681
5681
5621
5517
5423
5360
5274
5111
4927
4856
4942
5066
5047
4820
4519
4336
4302
4281
4130
3857
3573
3383
3286
3202
3072
2926
2859
2936
3088
3139
2984
2711
2538
2565
2652
2587
2350
2116
2044
2118
2234
2367
2552
2756
2881
2900
2922
3022
3082
2930
2578
2269
2213
2347
2433
2356
2232
2249
2458
2735
2932
2986
2938
2886
2891
2926
2906
2780
2578
2391
2274
2233
2252
2321
2403
2408
2276
2083
1993
2092
2293
2414
2365
2232
2189
2347
2639
2889
2945
2801
2614
2550
2625
2718
2712
2610
2508
2469
2455
2414
2338
2243
2122
1950
1751
1614
1586
1630
1683
1744
1862
2019
2102
2026
1846
1727
1776
1920
2008
1988
1939
1952
2000
1986
1872
1735
1665
1673
1700
1707
1725
1807
1965
2166
2355
2482
2514
2460
2372
2302
2254
2167
2027
1930
1989
2200
2407
2447
2316
2161
2118
2181
2243
2225
2163
2170
2300
2494
2632
2640
2548
2447
2395
2387
2392
2430
2558
2774
2992
3106
3103
3071
3090
3148
3164
3091
2964
2851
2807
2854
2982
3147
3258
3233
3099
2968
2946
3006
3026
2947
2853
2886
3070
3276
3363
3323
3282
3335
3433
3457
3385
3325
3393
3552
3666
3653
3581
3572
3655
3731
3704
3607
3554
3593
3657
3673
3676
3763
3950
4132
4208
4212
4254
4350
4389
4269
4064
3952
3989
4022
3868
3545
3267
3172
3119
2826
2233
1656
1508
1876
2435
2814
2988
3269
3892
4736
5492
6010
6387
6741
7013
7096
7058
7110
7335
7547
7517
7265
7041
7017
7089
7009
6681
6240
5870
5603
5341
5020
4699
4486
4392
4312
4144
3911
3740
3735
3858
3957
3921
3782
3646
3561
3489
3389
3300
3299
3389
3472
3455
3342
3220
3163
3165
3166
3133
3094
3102
3167
3235
3235
3151
3036
2949
2879
2765
2589
2409
2293
2240
2186
2109
2066
2113
2212
2253
2189
2087
2044
2065
2067
1992
1877
1799
1783
1807
1841
1891
1967
2067
2172
2256
2298
2280
2228
2181
2127
2007
1782
1519
1366
1412
1585
1726
1755
1737
1784
1909
2003
1964
1806
1629
1529
1519
1555
1614
1712
1875
2089
2300
2435
2469
2444
2453
2570
2773
2950
3010
2997
3049
3264
3569
3790
3817
3706
3596
3585
3673
3787
3872
3930
4005
4144
4320
4415
4370
4282
4332
4555
4734
4635
4314
4093
4205
4510
4641
4416
4031
3819
3887
4068
4126
3999
3815
3728
3779
3900
3991
4021
4046
4130
4258
4348
4332
4228
4121
4054
4000
3961
3995
4148
4365
4502
4484
4418
4491
4740
4967
4915
4541
4097
3895
4003
4182
4154
3898
3667
3696
3979
4299
4456
4437
4365
4359
4442
4568
4674
4715
4661
4495
4235
3952
3753
3720
3845
4020
4148
4237
4361
4534
4653
4615
4447
4283
4213
4192
4140
4096
4179
4421
4696
4833
4788
4659
4563
4495
4371
4129
3809
3539
3422
3448
3502
3456
3274
3007
2673
2225
1650
1109
849
995
1437
1992
2638
3498
4586
5675
6471
6914
7208
7535
7823
7847
7524
7051
6713
6602
6556
6373
6025
5675
5504
5526
5594
5529
5277
4929
4614
4391
4223
4040
3804
3516
3206
2941
2789
2803
2959
3161
3288
3281
3161
2984
2804
2638
2469
2270
2039
1831
1750
1868
2149
2438
2589
2598
2603
2729
2953
3120
3101
2920
2720
2615
2609
2641
2665
2689
2737
2809
2899
3019
3170
3312
3373
3307
3141
2955
2807
2697
2591
2476
2388
2392
2522
2734
2922
3003
2979
2927
2904
2880
2777
2570
2331
2147
2028
1921
1814
1753
1750
1721
1571
1364
1302
1503
1856
2122
2182
2143
2174
2284
2327
2187
1905
1612
1405
1284
1219
1215
1310
1519
1807
2102
2325
2438
2462
2459
2483
2540
2591
2608
2601
2608
2683
2864
3146
3475
3752
3887
3873
3782
3686
3582
3422
3204
3018
2949
3001
3085
3126
3157
3272
3493
3720
3811
3714
3513
3362
3374
3537
3724
3791
3707
3598
3620
3797
3987
4034
3940
3853
3874
3956
3983
3912
3791
3688
3629
3610
3621
3637
3586
3420
3217
3145
3301
3608
3868
3936
3851
3806
3947
4233
4480
4552
4483
4403
4356
4252
4075
3973
4095
4342
4414
4162
3835
3795
4063
4275
4112
3689
3397
3452
3697
3883
3958
4051
4232
4433
4571
4601
4507
4306
4066
3885
3778
3629
3326
2968
2813
3002
3416
3830
4141
4390
4631
4809
4855
4744
4479
4084
3663
3369
3236
3116
2864
2572
2470
2569
2561
2222
1788
1759
2284
2915
3146
3057
3219
3966
4968
5623
5743
5660
5713
5859
5861
5695
5569
5591
5611
5458
5206
5068
5101
5112
4920
4577
4279
4097
3919
3641
3312
3067
2939
2806
2546
2198
1929
1861
1962
2087
2112
2008
1810
1564
1332
1178
1153
1248
1388
1505
1610
1754
1935
2080
2107
2037
1963
1946
1941
1872
1746
1679
1770
1994
2202
2257
2144
1991
1943
2019
2098
2040
1840
1641
1598
1715
1868
1932
1901
1860
1872
1917
1935
1892
1803
1720
1673
1625
1498
1277
1058
983
1053
1088
897
547
345
494
810
911
669
390
460
881
1280
1359
1218
1180
1372
1614
1696
1644
1632
1707
1742
1646
1527
1573
1822
2090
2178
2073
1953
2008
2277
2631
2889
2974
2968
3028
3219
3445
3535
3421
3221
3112
3144
3223
3272
3311
3393
3489
3510
3438
3390
3491
3695
3821
3764
3625
3601
3733
3845
3753
3495
3272
3210
3215
3106
2855
2632
2580
2632
2591
2379
2132
2027
2050
2023
1833
1591
1499
1622
1812
1911
1906
1908
1964
1976
1847
1647
1553
1638
1784
1811
1670
1499
1474
1619
1820
1949
1984
1998
2055
2158
2272
2375
2478
2596
2698
2733
2692
2633
2631
2691
2732
2679
2558
2476
2497
2582
2660
2724
2835
3016
3186
3232
3139
3029
3042
3197
3388
3467
3387
3227
3121
3155
3275
3341
3247
3010
2747
2580
2546
2597
2644
2638
2590
2566
2610
2670
2611
2356
1982
1621
1283
845
302
-117
-130
264
737
988
1085
1356
1987
2818
3544
4009
4300
4532
4720
4837
4917
4988
4998
4847
4540
4237
4089
4087
4092
4010
3855
3697
3549
3402
3280
3213
3157
3013
2743
2445
2271
2236
2217
2130
2031
2032
2130
2185
2098
1942
1861
1918
2076
2273
2472
2611
2599
2399
2150
2043
2117
2204
2126
1918
1794
1902
2159
2335
2299
2135
2023
2038
2086
2038
1903
1833
1939
2131
2204
2079
1904
1883
2019
2103
1974
1722
1581
1670
1871
1984
1935
1809
1707
1663
1671
1706
1717
1650
1515
1413
1436
1565
1697
1743
1708
1654
1596
1525
1452
1417
1443
1474
1426
1277
1090
975
995
1103
1184
1166
1078
1020
1050
1107
1088
975
868
865
943
1004
1021
1099
1343
1718
2058
2231
2258
2254
2305
2405
2515
2623
2720
2776
2766
2730
2758
2881
3033
3116
3093
3023
2979
2990
3027
3057
3056
3045
3068
3178
3382
3603
3725
3686
3527
3338
3176
3029
2855
2640
2418
2259
2247
2419
2717
3021
3229
3333
3396
3450
3465
3378
3174
2909
2688
2597
2663
2850
3094
3343
3568
3741
3805
3721
3531
3347
3249
3200
3106
2946
2827
2871
3070
3289
3394
3387
3358
3361
3370
3327
3216
3093
3018
2997
3013
3044
3093
3175
3284
3362
3347
3225
3066
2967
2951
2934
2819
2630
2514
2596
2833
3037
3074
2987
2961
3125
3417
3632
3595
3315
2968
2762
2761
2837
2799
2570
2288
2182
2321
2547
2631
2489
2225
1969
1705
1323
817
368
208
388
734
1049
1333
1755
2420
3194
3833
4234
4537
4908
5314
5584
5657
5704
5914
6215
6312
6029
5519
5104
4909
4772
4503
4122
3820
3708
3702
3648
3513
3366
3255
3125
2871
2453
1977
1663
1678
1988
2339
2505
2501
2548
2787
3060
3084
2790
2412
2220
2222
2204
2027
1772
1627
1674
1817
1915
1919
1857
1765
1653
1538
1483
1567
1789
2020
2065
1857
1559
1449
1632
1873
1798
1286
641
298
431
805
1070
1108
1064
1141
1364
1588
1679
1648
1616
1664
1744
1712
1495
1219
1115
1266
1466
1427
1099
741
652
814
935
815
578
518
705
904
886
721
679
891
1189
1329
1271
1182
1232
1432
1706
2029
2418
2835
3156
3272
3195
3020
2829
2619
2356
2059
1790
1610
1539
1570
1686
1866
2072
2247
2365
2429
2435
2356
2186
1994
1864
1770
1585
1260
928
790
867
950
856
656
600
799
1079
1209
1174
1160
1295
1478
1549
1498
1469
1563
1704
1738
1596
1349
1126
1013
1004
1021
977
860
757
800
1025
1310
1458
1380
1158
972
939
1059
1239
1352
1333
1212
1112
1160
1379
1660
1854
1892
1828
1775
1816
1950
2118
2247
2288
2244
2175
2176
2300
2506
2689
2768
2752
2707
2683
2680
2665
2623
2573
2544
2552
2621
2785
3043
3309
3460
3449
3348
3289
3340
3452
3510
3456
3339
3280
3348
3495
3597
3578
3476
3391
3349
3269
3098
2919
2858
2904
2864
2593
2171
1800
1529
1212
774
414
427
833
1313
1572
1699
2046
2797
3719
4413
4736
4909
5201
5620
5943
5998
5845
5672
5579
5498
5327
5084
4896
4824
4790
4674
4460
4273
4228
4288
4287
4111
3802
3503
3295
3114
2862
2560
2353
2351
2507
2671
2745
2767
2817
2892
2923
2882
2818
2771
2693
2505
2225
1996
1954
2093
2278
2388
2427
2472
2561
2638
2604
2446
2260
2159
2171
2218
2213
2155
2131
2199
2315
2367
2298
2153
2027
1957
1901
1818
1743
1742
1807
1840
1764
1639
1604
1712
1839
1796
1545
1251
1096
1097
1111
1008
800
592
460
398
374
394
489
647
798
885
923
961
1032
1123
1193
1196
1111
940
734
590
598
746
922
1031
1097
1223
1453
1707
1854
1849
1759
1675
1630
1619
1643
1719
1837
1964
2067
2148
2236
2367
2557
2793
3010
3123
3115
3072
3125
3296
3455
3440
3250
3062
3047
3178
3255
3147
2953
2887
3037
3275
3438
3526
3634
3760
3765
3565
3298
3194
3297
3399
3306
3103
3067
3335
3731
3956
3910
3775
3776
3928
4054
3988
3758
3535
3443
3460
3491
3514
3584
3702
3759
3645
3413
3241
3206
3165
2947
2629
2510
2767
3210
3461
3375
3183
3185
3401
3568
3470
3161
2864
2713
2686
2734
2851
3029
3192
3285
3353
3485
3669
3773
3712
3554
3428
3355
3258
3131
3102
3261
3493
3573
3440
3297
3366
3598
3711
3526
3184
2962
2938
2942
2803
2577
2441
2455
2496
2430
2257
2037
1783
1496
1283
1316
1640
2081
2421
2652
2980
3556
4286
4926
5319
5497
5588
5678
5792
5916
5997
5945
5716
5392
5128
5005
4965
4884
4717
4523
4364
4240
4116
3964
3781
3557
3281
2970
2684
2475
2365
2335
2358
2409
2450
2435
2351
2232
2119
2021
1907
1769
1675
1706
1856
2005
2034
1943
1845
1817
1809
1725
1566
1436
1411
1454
1468
1432
1432
1542
1733
1894
1954
1927
1883
1869
1882
1879
1835
1758
1687
1653
1650
1645
1633
1667
1788
1967
2094
2077
1945
1815
1773
1783
1741
1611
1475
1434
1496
1568
1595
1616
1694
1798
1818
1693
1501
1370
1342
1352
1340
1311
1291
1272
1250
1273
1386
1539
1601
1505
1351
1295
1375
1473
1480
1418
1383
1406
1437
1450
1503
1663
1899
2107
2228
2305
2407
2532
2627
2667
2687
2713
2696
2572
2379
2271
2367
2599
2765
2734
2586
2521
2633
2823
2912
2844
2727
2698
2766
2830
2813
2742
2718
2800
2952
3080
3119
3085
3060
3133
3316
3508
3561
3412
3164
2997
3016
3172
3311
3315
3196
3051
2992
3074
3246
3390
3412
3341
3297
3343
3396
3332
3167
3044
3059
3144
3150
3059
2991
3069
3305
3634
3980
4243
4317
4185
3990
3928
4004
4031
3863
3591
3428
3418
3414
3321
3217
3199
3207
3112
2926
2839
2970
3205
3362
3419
3509
3675
3800
3784
3730
3817
4031
4186
4149
3998
3907
3918
3913
3771
3480
3133
2812
2552
2382
2332
2384
2448
2432
2348
2303
2336
2323
2103
1690
1335
1313
1621
1982
2166
2253
2511
3047
3663
4131
4468
4852
5326
5698
5790
5686
5624
5678
5644
5304
4720
4193
3947
3919
3889
3746
3556
3451
3437
3368
3129
2776
2493
2386
2355
2210
1902
1603
1508
1618
1734
1674
1458
1239
1116
1055
993
944
981
1123
1285
1366
1347
1284
1256
1272
1276
1212
1094
1008
1020
1105
1185
1225
1281
1410
1565
1614
1493
1292
1175
1190
1235
1219
1178
1203
1301
1394
1444
1494
1586
1657
1598
1409
1220
1145
1168
1197
1192
1177
1159
1107
1041
1051
1161
1261
1207
1000
784
674
636
574
480
428
436
436
398
410
583
884
1137
1227
1214
1245
1357
1466
1516
1546
1614
1716
1797
1834
1884
1985
2104
2200
2295
2442
2632
2783
2856
2948
3183
3521
3737
3655
3350
3096
3080
3219
3282
3192
3092
3158
3392
3653
3835
3946
4022
4044
3969
3813
3637
3458
3248
3025
2886
2892
2972
2985
2918
2933
3143
3411
3477
3256
2937
2768
2769
2731
2472
2050
1683
1545
1640
1832
1938
1866
1686
1586
1705
1988
2219
2226
2057
1905
1918
2068
2211
2240
2172
2113
2169
2332
2470
2439
2235
2008
1892
1866
1797
1642
1516
1539
1662
1751
1761
1810
2008
2273
2412
2338
2170
2088
2161
2302
2411
2469
2538
2665
2823
2936
2977
3004
3096
3207
3192
3010
2845
2952
3350
3720
3713
3334
2942
2838
2926
2895
2673
2505
2595
2787
2725
2322
1886
1703
1623
1222
351
-579
-972
-665
-53
382
591
912
1619
2608
3535
4173
4552
4807
5009
5178
5344
5512
5612
5557
5394
5282
5279
5231
4932
4408
3924
3656
3487
3161
2618
2080
1795
1758
1754
1638
1465
1375
1415
1513
1578
1576
1516
1412
1270
1101
920
764
691
751
915
1059
1061
920
763
738
882
1091
1210
1177
1076
1059
1196
1389
1467
1369
1194
1078
1059
1075
1079
1090
1135
1181
1179
1146
1150
1227
1334
1418
1478
1536
1574
1544
1432
1297
1201
1135
1034
855
640
475
425
486
610
745
853
913
910
847
767
731
756
783
721
562
418
404
511
592
548
446
428
526
625
623
572
597
727
851
884
869
910
1009
1060
1003
920
938
1069
1191
1207
1165
1205
1394
1645
1808
1804
1693
1613
1655
1786
1895
1899
1837
1819
1919
2106
2280
2369
2376
2343
2293
2222
2142
2079
2059
2084
2143
2247
2402
2583
2733
2792
2748
2639
2510
2398
2323
2294
2309
2362
2448
2574
2723
2843
2864
2780
2654
2554
2474
2350
2170
2016
1983
2076
2211
2299
2342
2394
2468
2515
2505
2483
2525
2627
2683
2604
2418
2248
2182
2176
2113
1951
1796
1792
1953
2147
2236
2230
2248
2356
2463
2447
2300
2167
2182
2329
2460
2458
2353
2271
2297
2418
2555
2645
2667
2642
2607
2588
2583
2553
2457
2300
2140
2035
2000
2014
2053
2103
2133
2104
2036
2002
2022
2002
1827
1502
1160
876
546
41
-548
-916
-849
-484
-171
-51
125
703
1707
2792
3596
4072
4434
4846
5252
5502
5555
5510
5472
5440
5345
5158
4928
4742
4624
4493
4245
3854
3441
3169
3061
2967
2715
2298
1889
1638
1515
1388
1228
1176
1342
1647
1871
1881
1757
1668
1675
1696
1637
1495
1335
1204
1097
1013
975
1030
1172
1307
1332
1242
1163
1216
1380
1500
1471
1373
1351
1426
1454
1329
1141
1059
1122
1226
1266
1241
1197
1158
1121
1092
1053
940
731
561
633
937
1199
1164
903
720
752
810
622
187
-224
-394
-357
-265
-170
-17
200
392
491
558
682
831
865
694
405
190
149
236
360
480
605
729
824
905
1048
1289
1538
1651
1600
1510
1483
1471
1354
1144
1007
1057
1216
1307
1294
1303
1437
1640
1789
1847
1866
1863
1790
1637
1482
1398
1351
1255
1090
946
890
874
805
684
617
685
840
965
1012
1059
1190
1369
1474
1426
1290
1208
1236
1283
1232
1098
1051
1225
1567
1860
1951
1882
1818
1852
1914
1895
1770
1618
1523
1524
1627
1834
2112
2371
2517
2553
2573
2649
2736
2704
2492
2201
2002
1984
2086
2162
2140
2073
2069
2184
2381
2572
2684
2696
2650
2608
2620
2682
2752
2792
2807
2855
2993
3209
3432
3566
3577
3517
3463
3449
3443
3391
3295
3220
3228
3302
3389
3466
3553
3638
3635
3470
3211
3034
3020
3058
2978
2772
2617
2642
2766
2816
2738
2612
2443
2094
1510
906
616
736
1015
1168
1229
1522
2270
3355
4441
5272
5806
6097
6216
6252
6306
6392
6378
6106
5607
5134
4936
5006
5095
4983
4680
4357
4118
3910
3657
3413
3286
3265
3177
2900
2554
2399
2545
2801
2861
2638
2345
2238
2342
2480
2489
2377
2263
2210
2189
2130
2024
1930
1924
2040
2250
2451
2532
2471
2360
2322
2385
2462
2438
2282
2067
1901
1836
1841
1842
1792
1709
1649
1631
1610
1545
1466
1454
1534
1625
1617
1500
1373
1334
1367
1377
1291
1138
1011
974
996
997
920
789
686
650
627
534
382
291
349
495
548
424
228
144
219
324
323
233
192
296
490
634
643
544
443
430
506
600
628
581
524
539
661
857
1054
1210
1320
1408
1524
1704
1922
2113
2228
2285
2323
2338
2286
2180
2126
2211
2373
2454
2391
2300
2339
2509
2653
2647
2527
2406
2347
2349
2427
2605
2827
2970
2969
2896
2858
2850
2787
2656
2555
2558
2619
2651
2688
2866
3202
3500
3530
3306
3087
3093
3264
3354
3244
3082
3072
3204
3273
3150
2965
2933
3057
3097
2886
2582
2520
2808
3169
3271
3088
2907
2938
3071
3054
2838
2613
2555
2628
2671
2651
2689
2882
3152
3309
3261
3098
2990
3027
3154
3236
3180
3013
2850
2777
2777
2763
2695
2616
2601
2667
2759
2821
2836
2819
2779
2712
2633
2548
2450
2327
2203
2124
2115
2105
1983
1705
1315
894
507
223
122
252
562
945
1350
1838
2470
3174
3765
4127
4320
4473
4634
4734
4749
4765
4871
5031
5101
5002
4811
4670
4623
4582
4451
4225
3977
3772
3638
3568
3550
3535
3434
3185
2831
2501
2308
2270
2307
2315
2241
2101
1964
1902
1934
1996
1993
1888
1753
1679
1677
1663
1557
1375
1202
1094
1040
1013
1015
1063
1152
1254
1345
1416
1455
1428
1327
1196
1093
1040
1012
969
907
862
876
955
1058
1122
1106
1011
870
708
553
459
484
612
745
788
764
781
875
938
832
565
311
233
326
470
604
799
1128
1499
1710
1639
1368
1096
924
771
511
158
-118
-160
46
379
712
984
1169
1245
1224
1166
1138
1141
1117
1040
983
1037
1207
1414
1582
1707
1831
1945
1993
1952
1858
1780
1751
1742
1705
1614
1499
1445
1524
1728
1959
2102
2112
2052
2042
2151
2358
2567
2691
2713
2684
2651
2602
2484
2284
2076
1943
1879
1820
1770
1841
2131
2565
2906
2993
2893
2783
2745
2693
2521
2250
2000
1871
1896
2065
2356
2688
2924
2972
2861
2695
2558
2457
2373
2315
2296
2305
2323
2352
2421
2521
2599
2610
2577
2564
2591
2611
2585
2539
2533
2556
2535
2429
2325
2352
2523
2697
2736
2666
2643
2770
2981
3140
3188
3188
3185
3129
2962
2716
2496
2363
2277
2180
2083
2039
2083
2197
2332
2421
2399
2298
2268
2416
2627
2633
2320
1918
1755
1828
1749
1231
517
174
472
1078
1464
1525
1679
2321
3328
4202
4606
4674
4740
4907
4961
4733
4353
4125
4203
4445
4630
4723
4833
5006
5097
4935
4533
4028
3524
3019
2506
2054
1730
1502
1325
1272
1426
1699
1838
1690
1394
1198
1148
1028
688
288
115
231
418
494
537
737
1064
1249
1109
783
603
732
991
1096
950
702
563
560
552
381
43
-298
-461
-431
-357
-380
-467
-446
-249
-16
43
-107
-311
-425
-480
-577
-699
-719
-593
-470
-511
-648
-660
-480
-319
-426
-760
-1028
-1021
-841
-763
-898
-1081
-1103
-953
-797
-768
-850
-921
-909
-841
-775
-740
-736
-758
-798
-817
-759
-620
-494
-492
-608
-714
-683
-529
-394
-375
-413
-361
-152
135
362
470
503
519
538
552
571
618
701
804
930
1101
1312
1513
1646
1704
1722
1719
1684
1612
1559
1595
1731
1908
2046
2132
2194
2236
2228
2138
1984
1841
1792
1878
2095
2403
2730
2993
3152
3201
3154
3020
2812
2561
2322
2147
2071
2097
2195
2318
2435
2539
2630
2686
2672
2562
2407
2314
2348
2461
2567
2664
2835
3109
3362
3406
3210
2966
2884
2940
2903
2641
2317
2203
2344
2497
2439
2232
2103
2121
2097
1850
1450
1156
1108
1169
1129
949
788
806
1012
1278
1473
1536
1472
1346
1259
1269
1338
1362
1283
1146
1041
1016
1037
1032
951
789
588
432
393
436
413
197
-141
-413
-561
-757
-1190
-1757
-2090
-1912
-1312
-633
-96
374
976
1759
2592
3329
3910
4324
4567
4663
4705
4811
5007
5182
5199
5030
4789
4624
4581
4558
4426
4140
3775
3438
3187
3006
2870
2752
2612
2415
2170
1945
1810
1766
1758
1760
1775
1782
1734
1630
1561
1610
1710
1698
1518
1300
1211
1254
1268
1134
914
785
812
903
939
914
915
983
1050
1009
828
588
415
353
312
182
-38
-206
-190
-35
73
15
-111
-101
101
327
384
275
176
216
314
293
101
-128
-240
-243
-273
-410
-587
-664
-618
-576
-643
-762
-768
-600
-396
-340
-453
-574
-550
-407
-288
-278
-325
-348
-334
-321
-311
-278
-232
-215
-219
-165
-1
208
337
371
416
552
717
791
770
782
918
1106
1194
1150
1100
1186
1396
1595
1684
1706
1776
1952
2178
2357
2435
2439
2435
2456
2492
2513
2525
2567
2659
2765
2826
2836
2854
2920
2985
2958
2797
2585
2442
2413
2423
2360
2205
2045
1991
2062
2164
2187
2117
2040
2048
2135
2209
2207
2154
2124
2140
2153
2110
2014
1930
1901
1919
1937
1907
1832
1758
1745
1799
1843
1767
1545
1283
1138
1169
1285
1364
1378
1415
1553
1767
1955
2033
2019
1978
1928
1850
1735
1629
1593
1633
1701
1756
1790
1824
1884
1963
2034
2071
2063
2027
1998
1983
1966
1937
1934
1988
2055
2017
1828
1609
1542
1638
1708
1583
1332
1168
1175
1184
998
617
201
-177
-616
-1175
-1670
-1800
-1470
-900
-386
30
555
1354
2331
3216
3839
4254
4584
4845
4946
4854
4681
4570
4528
4431
4190
3876
3652
3604
3653
3628
3419
3056
2647
2289
2012
1794
1592
1371
1130
905
760
748
876
1079
1257
1313
1206
978
729
531
372
193
-8
-114
17
371
741
906
845
743
770
882
895
735
502
333
259
235
254
344
457
477
375
293
380
582
662
485
188
3
-9
-1
-95
-201
-158
0
37
-204
-588
-771
-581
-228
-104
-387
-853
-1094
-940
-638
-573
-867
-1260
-1407
-1233
-973
-853
-851
-798
-631
-466
-404
-387
-294
-128
-36
-122
-326
-502
-592
-667
-779
-858
-790
-569
-327
-192
-133
-4
277
596
740
633
451
450
689
977
1112
1126
1238
1577
2009
2299
2394
2467
2684
2977
3122
3012
2782
2672
2759
2896
2876
2646
2345
2164
2172
2276
2329
2281
2200
2167
2181
2158
2042
1866
1699
1554
1374
1120
855
716
782
962
1049
894
533
178
7
5
-2
-152
-393
-551
-517
-330
-123
18
88
118
134
160
214
284
321
277
162
52
3
-12
-67
-207
-393
-524
-526
-434
-359
-393
-510
-580
-511
-356
-264
-320
-442
-445
-243
62
277
325
315
421
651
806
692
358
91
119
372
562
510
337
309
529
845
1058
1113
1092
1083
1077
1019
886
705
516
327
92
-284
-837
-1444
-1852
-1859
-1510
-1079
-787
-581
-211
509
1503
2516
3328
3896
4294
4617
4916
5179
5357
5393
5265
5016
4741
4524
4396
4320
4256
4176
4049
3841
3547
3208
2890
2630
2409
2173
1902
1628
1402
1274
1254
1316
1399
1436
1394
1298
1202
1151
1155
1202
1284
1393
1517
1626
1689
1694
1644
1579
1544
1537
1514
1449
1385
1391
1482
1571
1562
1475
1419
1443
1465
1379
1211
1101
1119
1169
1115
983
927
1027
1170
1177
1028
892
913
1034
1077
961
808
770
848
914
876
781
719
702
669
600
559
595
652
620
484
360
345
393
378
262
145
117
133
77
-61
-154
-108
15
59
-24
-115
-78
84
252
346
394
469
587
712
808
876
941
1021
1125
1262
1441
1655
1866
2021
2096
2118
2144
2211
2309
2388
2398
2341
2268
2240
2292
2408
2522
2566
2533
2496
2539
2655
2725
2638
2437
2283
2276
2346
2345
2255
2209
2321
2526
2639
2562
2400
2319
2373
2464
2483
2426
2356
2304
2263
2238
2269
2380
2521
2595
2566
2503
2516
2629
2743
2719
2525
2295
2216
2320
2430
2355
2135
2025
2191
2475
2544
2278
1931
1836
2010
2159
2063
1830
1777
2062
2541
2946
3127
3115
3007
2874
2756
2678
2606
2470
2260
2086
2101
2348
2691
2914
2921
2802
2722
2757
2828
2817
2688
2521
2423
2410
2401
2316
2158
2003
1885
1759
1559
1297
1080
963
843
554
89
-295
-280
180
778
1150
1248
1395
1939
2875
3845
4494
4749
4808
4898
5068
5235
5304
5251
5093
4856
4596
4402
4332
4342
4313
4159
3895
3606
3338
3063
2768
2521
2387
2320
2190
1936
1659
1526
1584
1718
1781
1726
1604
1466
1332
1228
1199
1238
1262
1198
1086
1052
1164
1358
1510
1594
1673
1773
1832
1773
1616
1457
1336
1207
1030
861
782
794
802
738
628
533
452
348
237
197
279
418
525
583
656
772
862
847
745
649
596
529
407
282
245
294
315
220
64
-38
-67
-119
-259
-406
-405
-207
79
310
435
484
466
362
182
-9
-154
-260
-341
-361
-257
-54
147
283
410
614
871
1055
1085
1022
985
1005
1015
969
905
891
935
990
1046
1142
1284
1412
1478
1524
1632
1800
1916
1901
1818
1809
1915
2027
2027
1934
1881
1945
2046
2033
1860
1619
1438
1343
1269
1180
1138
1246
1508
1793
1951
1953
1907
1917
1966
1937
1759
1497
1288
1210
1228
1246
1223
1208
1283
1467
1678
1800
1814
1818
1916
2079
2172
2115
1981
1910
1945
1993
1968
1901
1874
1902
1937
1968
2044
2174
2245
2130
1852
1616
1594
1746
1871
1833
1702
1672
1846
2127
2330
2356
2263
2179
2167
2206
2233
2196
2102
1996
1928
1937
2028
2157
2254
2250
2154
2044
2006
2069
2177
2242
2231
2176
2125
2096
2068
2036
2018
2008
1938
1735
1426
1115
874
695
515
319
176
192
412
805
1267
1707
2096
2467
2890
3393
3912
4345
4622
4766
4836
4844
4772
4610
4375
4090
3779
3461
3203
3074
3056
3029
2866
2552
2209
1978
1861
1738
1495
1143
796
590
619
888
1297
1649
1743
1556
1275
1139
1190
1215
1012
657
446
565
872
1077
1095
1103
1272
1518
1602
1432
1187
1071
1065
994
793
579
484
470
390
196
-6
-104
-117
-135
-192
-245
-241
-186
-111
-36
3
-42
-191
-412
-650
-874
-1076
-1243
-1335
-1338
-1280
-1208
-1135
-1064
-1047
-1145
-1351
-1565
-1703
-1791
-1917
-2090
-2178
-2067
-1837
-1700
-1764
-1913
-1957
-1862
-1765
-1769
-1810
-1749
-1576
-1443
-1482
-1633
-1704
-1597
-1408
-1304
-1348
-1427
-1365
-1113
-777
-528
-434
-418
-378
-288
-220
-246
-344
-423
-404
-271
-63
157
314
353
301
245
241
230
115
-93
-234
-143
140
383
391
219
115
248
536
749
754
647
623
734
868
901
849
798
769
711
615
572
682
906
1085
1115
1082
1160
1399
1661
1775
1700
1522
1332
1160
1036
1047
1252
1548
1724
1690
1602
1694
1980
2213
2166
1905
1700
1696
1748
1666
1489
1428
1557
1697
1647
1469
1413
1589
1806
1786
1503
1186
1031
1011
974
853
715
640
631
643
681
776
881
895
766
574
469
512
611
595
378
56
-157
-109
133
318
227
-92
-382
-441
-320
-253
-393
-672
-888
-937
-896
-966
-1309
-1900
-2506
-2835
-2762
-2437
-2139
-1981
-1760
-1203
-285
740
1598
2254
2834
3376
3760
3886
3849
3826
3846
3759
3461
3063
2782
2717
2750
2719
2560
2293
1955
1591
1308
1219
1286
1297
1063
645
336
337
538
652
535
327
241
276
233
2
-275
-365
-230
-77
-111
-293
-397
-301
-124
-78
-212
-366
-365
-212
-71
-64
-167
-262
-304
-340
-405
-459
-445
-370
-324
-369
-464
-534
-557
-583
-662
-766
-848
-904
-981
-1099
-1207
-1238
-1198
-1169
-1232
-1373
-1502
-1526
-1428
-1283
-1189
-1209
-1297
-1329
-1208
-987
-862
-992
-1319
-1584
-1593
-1434
-1380
-1584
-1901
-2031
-1868
-1620
-1550
-1677
-1786
-1699
-1497
-1388
-1446
-1546
-1521
-1378
-1261
-1252
-1286
-1240
-1085
-893
-754
-673
-586
-454
-293
-152
-66
-15
50
156
272
332
333
350
472
690
895
1004
1055
1152
1334
1519
1593
1550
1471
1414
1369
1325
1330
1425
1576
1695
1749
1801
1923
2084
2175
2148
2064
2023
2036
2010
1869
1668
1552
1606
1755
1835
1769
1647
1636
1791
1997
2094
2032
1898
1807
1804
1851
1897
1902
1857
1799
1801
1891
2007
2021
1881
1682
1554
1514
1451
1281
1088
1031
1160
1338
1393
1307
1217
1250
1366
1410
1276
1044
903
975
1190
1358
1350
1209
1102
1131
1238
1283
1196
1031
883
804
794
830
900
968
995
979
958
962
981
1016
1094
1207
1249
1088
750
441
342
380
290
-85
-619
-1073
-1379
-1666
-2005
-2250
-2186
-1802
-1308
-883
-471
128
1004
2024
2954
3645
4100
4412
4679
4929
5109
5122
4913
4548
4166
3866
3628
3390
3126
2845
2546
2194
1800
1450
1227
1112
1000
814
584
388
264
217
260
394
544
584
478
338
306
399
494
490
413
345
307
251
154
65
16
-47
-188
-354
-415
-298
-86
76
127
109
78
38
-10
-26
20
81
57
-82
-216
-196
-21
146
154
11
-168
-298
-406
-517
-586
-536
-390
-272
-276
-350
-345
-204
-32
5
-167
-458
-711
-833
-861
-894
-983
-1072
-1073
-967
-842
-788
-812
-841
-818
-778
-807
-948
-1136
-1253
-1210
-1020
-791
-640
-596
-562
-410
-139
87
84
-147
-412
-499
-386
-239
-221
-323
-352
-146
236
555
647
611
717
1070
1441
1487
1140
719
589
764
891
670
231
12
278
823
1176
1122
926
1003
1419
1799
1752
1336
993
1022
1255
1328
1183
1149
1485
1989
2236
2126
2000
2186
2530
2563
2119
1577
1433
1721
2002
1908
1556
1369
1550
1885
2024
1883
1681
1627
1687
1684
1560
1449
1488
1646
1772
1793
1794
1866
1976
1996
1884
1759
1756
1845
1850
1671
1414
1289
1353
1440
1360
1109
866
772
796
799
705
575
491
452
380
238
65
-77
-162
-218
-288
-387
-516
-652
-758
-800
-785
-774
-824
-925
-1003
-998
-925
-851
-802
-749
-681
-656
-744
-925
-1080
-1144
-1247
-1599
-2207
-2763
-2873
-2442
-1788
-1320
-1120
-889
-303
636
1606
2294
2656
2865
3060
3251
3409
3559
3729
3864
3844
3642
3408
3327
3418
3490
3349
2996
2592
2287
2084
1902
1718
1569
1459
1332
1140
932
823
861
976
1048
1029
967
938
953
959
918
855
836
875
905
848
721
644
733
957
1146
1181
1109
1106
1263
1447
1434
1166
834
680
738
835
822
764
852
1142
1483
1664
1636
1512
1390
1251
1040
796
623
568
563
501
390
351
481
741
969
1037
962
862
842
905
976
991
946
863
769
707
717
801
890
894
821
779
857
1009
1116
1123
1093
1110
1166
1189
1150
1094
1074
1097
1123
1119
1103
1088
1080
1098
1190
1377
1587
1680
1596
1442
1409
1564
1772
1830
1700
1555
1587
1813
2083
2259
2326
2354
2391
2420
2426
2422
2436
2468
2475
2414
2278
2112
1989
1944
1929
1845
1658
1445
1353
1453
1672
1862
1939
1919
1871
1846
1855
1877
1875
1808
1677
1529
1435
1420
1431
1385
1274
1194
1249
1431
1614
1685
1671
1704
1858
2060
2165
2106
1942
1790
1724
1733
1764
1760
1703
1640
1659
1797
1975
2068
2035
1966
1949
1949
1860
1655
1458
1405
1484
1559
1541
1488
1520
1684
1931
2179
2356
2403
2298
2109
1975
1965
1988
1898
1695
1560
1644
1876
2026
1971
1816
1729
1709
1623
1414
1202
1124
1159
1155
996
676
238
-273
-745
-989
-887
-559
-250
-32
304
990
1938
2778
3244
3433
3623
3889
4032
3877
3572
3429
3554
3726
3682
3433
3227
3225
3309
3235
2927
2516
2163
1896
1659
1431
1262
1179
1136
1065
964
878
845
854
878
886
827
670
439
216
57
-58
-169
-243
-188
18
270
419
443
451
532
638
655
555
421
336
299
260
203
161
156
150
92
-28
-181
-325
-432
-498
-531
-549
-564
-568
-530
-419
-235
-44
38
-87
-400
-733
-897
-859
-786
-870
-1110
-1299
-1220
-874
-492
-338
-488
-786
-999
-998
-859
-766
-824
-960
-995
-846
-600
-391
-259
-147
-46
-48
-212
-446
-579
-564
-513
-564
-711
-827
-832
-754
-662
-577
-495
-449
-497
-627
-733
-705
-546
-367
-284
-306
-352
-323
-209
-78
-18
-47
-92
-70
14
63
0
-113
-142
-49
32
-77
-365
-624
-675
-565
-488
-556
-671
-658
-465
-205
-17
51
25
-73
-227
-379
-451
-427
-374
-355
-334
-221
-23
127
133
51
27
95
123
-16
-265
-434
-424
-327
-306
-400
-506
-545
-548
-574
-605
-567
-447
-324
-283
-324
-381
-419
-462
-546
-668
-807
-950
-1069
-1103
-1012
-838
-701
-684
-741
-737
-608
-457
-457
-663
-945
-1102
-1059
-936
-904
-1001
-1083
-984
-714
-454
-372
-447
-510
-448
-324
-301
-453
-703
-920
-1046
-1106
-1134
-1154
-1176
-1188
-1149
-1034
-904
-906
-1134
-1508
-1870
-2168
-2480
-2828
-3040
-2893
-2384
-1789
-1365
-1064
-621
73
793
1210
1280
1265
1402
1631
1732
1671
1666
1888
2192
2254
1952
1532
1309
1306
1283
1060
728
506
463
466
365
152
-89
-306
-474
-573
-604
-631
-755
-973
-1180
-1332
-1516
-1776
-1934
-1762
-1307
-952
-980
-1179
-1069
-567
-202
-522
-1394
-2101
-2125
-1675
-1332
-1309
-1308
-1037
-640
-463
-579
-722
-711
-700
-955
-1460
-1894
-1984
-1772
-1483
-1275
-1164
-1131
-1182
-1277
-1305
-1206
-1073
-1051
-1197
-1404
-1521
-1522
-1524
-1629
-1810
-1956
-1972
-1844
-1639
-1462
-1388
-1419
-1467
-1453
-1410
-1483
-1780
-2197
-2463
-2418
-2205
-2150
-2396
-2734
-2817
-2566
-2273
-2249
-2486
-2675
-2580
-2311
-2162
-2262
-2462
-2559
-2549
-2599
-2819
-3120
-3337
-3385
-3292
-3139
-2978
-2809
-2559
-2170
-1704
-1345
-1251
-1379
-1508
-1474
-1351
-1324
-1430
-1518
-1455
-1290
-1163
-1105
-1021
-855
-702
-675
-751
-801
-756
-685
-670
-654
-489
-138
216
343
187
-58
-151
-55
49
-28
-268
-472
-463
-239
34
199
211
138
75
83
152
197
133
-30
-175
-159
31
248
311
194
41
3
89
171
136
29
6
165
452
708
813
797
794
899
1068
1170
1144
1084
1160
1426
1741
1913
1907
1861
1899
1971
1932
1741
1535
1459
1488
1503
1480
1538
1741
1947
1964
1793
1650
1705
1865
1902
1740
1564
1599
1822
1978
1874
1579
1350
1330
1404
1364
1155
921
811
775
620
242
-302
-895
-1504
-2116
-2626
-2863
-2785
-2558
-2353
-2124
-1653
-853
85
884
1452
1913
2399
2888
3273
3507
3611
3591
3429
3159
2865
2588
2314
2042
1828
1715
1646
1537
1410
1368
1414
1387
1131
709
340
148
47
-84
-214
-213
-76
55
87
94
180
286
247
35
-145
-106
68
100
-131
-415
-449
-206
68
169
188
346
653
849
719
384
178
254
402
329
29
-199
-114
183
371
259
-41
-292
-396
-420
-452
-500
-509
-437
-290
-97
80
132
-25
-356
-716
-974
-1121
-1241
-1368
-1448
-1388
-1189
-951
-780
-710
-737
-861
-1088
-1363
-1575
-1651
-1615
-1548
-1491
-1416
-1289
-1151
-1085
-1108
-1157
-1167
-1145
-1145
-1177
-1187
-1097
-906
-701
-571
-553
-622
-706
-708
-558
-285
-30
62
-11
-74
51
344
585
598
444
369
531
836
1059
1100
1054
1079
1214
1370
1470
1524
1566
1593
1589
1561
1545
1542
1506
1403
1281
1236
1292
1367
1365
1297
1279
1410
1650
1847
1888
1816
1767
1826
1942
2016
2026
2057
2182
2343
2401
2297
2138
2088
2155
2168
1988
1698
1535
1635
1886
2060
2067
2007
2011
2087
2147
2132
2062
1968
1836
1651
1468
1386
1440
1570
1670
1676
1602
1506
1439
1399
1331
1197
1017
864
811
851
916
957
996
1076
1183
1254
1250
1210
1205
1245
1275
1232
1126
1042
1034
1072
1079
1020
931
863
790
661
500
417
469
562
530
318
44
-180
-418
-833
-1433
-1954
-2090
-1808
-1363
-1000
-681
-167
669
1684
2608
3301
3819
4248
4573
4719
4686
4578
4483
4377
4163
3825
3476
3265
3209
3176
3017
2695
2302
1952
1678
1453
1262
1119
1018
909
756
597
521
575
687
726
623
399
131
-109
-276
-341
-293
-165
-4
164
330
472
552
553
499
418
284
54
-236
-458
-513
-425
-303
-206
-83
126
380
554
555
421
258
129
6
-164
-380
-566
-637
-569
-398
-196
-33
56
65
-11
-165
-379
-606
-799
-961
-1148
-1386
-1571
-1530
-1193
-718
-403
-391
-531
-551
-366
-168
-190
-439
-699
-786
-723
-656
-643
-604
-459
-274
-196
-294
-479
-607
-628
-609
-642
-730
-790
-751
-646
-551
-473
-319
-31
283
422
320
169
226
516
783
763
489
276
391
789
1185
1352
1315
1273
1358
1528
1634
1564
1347
1113
991
1019
1119
1168
1115
1020
1009
1127
1307
1448
1521
1575
1657
1754
1817
1848
1896
1983
2051
2020
1883
1731
1655
1650
1646
1615
1630
1786
2074
2365
2539
2625
2760
3013
3267
3320
3098
2750
2488
2392
2353
2235
2029
1819
1664
1560
1494
1477
1509
1539
1490
1353
1200
1105
1088
1104
1087
968
719
376
42
-186
-301
-381
-481
-576
-618
-625
-649
-695
-697
-624
-553
-584
-697
-750
-648
-465
-355
-378
-446
-442
-388
-391
-516
-717
-867
-877
-765
-639
-607
-686
-809
-926
-1100
-1460
-2000
-2493
-2669
-2486
-2160
-1887
-1599
-1064
-209
752
1558
2141
2600
2975
3178
3165
3076
3096
3225
3260
3054
2729
2569
2723
3037
3219
3125
2850
2603
2499
2480
2413
2222
1940
1658
1442
1309
1246
1252
1339
1492
1643
1711
1638
1410
1069
708
424
279
252
273
317
440
705
1070
1386
1532
1520
1453
1382
1269
1099
955
962
1143
1376
1519
1544
1523
1507
1459
1296
1002
674
435
332
329
370
464
661
965
1280
1477
1513
1454
1372
1278
1153
1017
928
901
882
819
723
656
642
643
604
513
406
341
363
489
678
829
866
824
823
933
1074
1092
930
706
576
585
646
667
653
671
733
788
800
794
814
847
848
819
842
987
1211
1394
1454
1439
1469
1594
1747
1818
1776
1683
1623
1617
1614
1566
1484
1420
1393
1366
1302
1239
1262
1392
1541
1597
1544
1481
1505
1604
1656
1559
1333
1096
968
974
1051
1116
1143
1175
1263
1383
1451
1418
1337
1301
1321
1305
1188
1042
1028
1198
1405
1458
1322
1149
1089
1120
1099
951
753
637
658
778
935
1090
1215
1287
1287
1223
1126
1028
978
1016
1121
1210
1204
1148
1175
1357
1581
1640
1460
1187
1048
1133
1326
1439
1414
1350
1391
1569
1757
1793
1634
1409
1293
1336
1433
1472
1468
1510
1618
1725
1770
1796
1840
1829
1670
1406
1221
1215
1253
1113
749
341
44
-183
-437
-655
-650
-377
-37
166
314
691
1424
2292
2955
3306
3525
3819
4180
4438
4495
4423
4339
4267
4132
3867
3500
3141
2891
2779
2741
2665
2496
2302
2217
2292
2412
2380
2101
1690
1357
1217
1211
1209
1156
1073
1000
952
950
1028
1178
1325
1387
1367
1356
1419
1516
1557
1505
1408
1319
1241
1154
1077
1058
1087
1082
982
848
801
874
954
893
683
472
417
518
640
663
605
567
609
687
721
674
581
494
428
372
321
281
240
163
45
-59
-78
-20
16
-75
-272
-436
-459
-385
-367
-506
-745
-931
-957
-848
-714
-651
-678
-745
-779
-747
-682
-646
-661
-677
-618
-466
-289
-164
-107
-80
-72
-126
-268
-445
-539
-485
-322
-122
102
377
694
980
1161
1248
1314
1393
1456
1473
1466
1474
1494
1480
1431
1405
1439
1487
1468
1369
1278
1289
1409
1565
1680
1737
1757
1751
1704
1606
1481
1374
1326
1345
1423
1555
1736
1925
2046
2038
1919
1771
1662
1594
1539
1518
1575
1718
1884
2007
2076
2101
2048
1886
1661
1483
1407
1354
1221
1033
948
1061
1280
1449
1529
1619
1781
1925
1938
1848
1796
1859
1939
1891
1705
1527
1500
1614
1731
1736
1652
1603
1659
1769
1806
1700
1491
1236
965
703
521
522
736
1067
1397
1705
2047
2423
2703
2764
2609
2362
2117
1872
1605
1384
1334
1498
1747
1890
1851
1724
1668
1720
1768
1685
1422
1028
569
91
-360
-717
-933
-1011
-970
-813
-509
17
852
2010
3348
4558
5352
5699
5822
5930
5943
5583
4738
3659
2733
2181
1976
1998
2177
2449
2679
2728
2598
2418
2303
2250
2163
1957
1612
1158
705
394
294
335
356
236
10
-150
-78
239
610
756
577
264
122
239
366
205
-228
-584
-567
-228
118
244
228
304
555
818
832
485
-105
-665
-965
-981
-882
-877
-1020
-1196
-1256
-1163
-1007
-914
-929
-1016
-1111
-1158
-1133
-1056
-976
-954
-999
-1081
-1179
-1281
-1351
-1345
-1290
-1299
-1493
-1845
-2163
-2246
-2078
-1835
-1699
-1677
-1647
-1509
-1314
-1190
-1196
-1285
-1397
-1531
-1702
-1861
-1923
-1868
-1768
-1699
-1649
-1540
-1324
-1039
-761
-539
-376
-265
-190
-109
11
128
166
101
23
60
231
416
513
576
753
1103
1479
1694
1723
1734
1872
2073
2147
2018
1833
1803
1974
2196
2302
2293
2303
2448
2700
2936
3059
3069
3040
3035
3055
3044
2953
2807
2688
2666
2749
2875
2951
2938
2879
2858
2918
3014
3040
2938
2760
2632
2626
2704
2768
2765
2728
2714
2734
2755
2737
2673
2593
2559
2611
2700
2698
2518
2243
2089
2186
2410
2480
2245
1845
1574
1567
1670
1618
1330
946
663
545
524
522
516
500
446
372
392
592
898
1092
1054
900
848
961
1090
1086
1001
983
1056
1087
984
844
826
927
966
830
648
656
913
1226
1369
1302
1161
1050
926
692
328
-128
-662
-1270
-1857
-2208
-2128
-1647
-995
-424
13
456
1090
1967
2959
3821
4365
4581
4629
4702
4841
4939
4875
4640
4302
3938
3604
3377
3315
3363
3353
3156
2827
2553
2454
2459
2400
2182
1838
1472
1158
909
704
512
332
187
104
70
62
81
146
247
332
348
292
202
89
-69
-276
-465
-551
-508
-381
-222
-49
117
236
269
217
129
39
-47
-143
-254
-373
-469
-493
-427
-308
-211
-165
-123
-21
110
153
41
-123
-175
-86
-15
-140
-447
-713
-742
-571
-417
-431
-549
-593
-509
-433
-512
-718
-896
-950
-951
-1026
-1173
-1261
-1184
-982
-785
-660
-567
-444
-291
-172
-136
-176
-263
-364
-433
-430
-346
-209
-49
117
294
495
716
927
1083
1146
1122
1075
1069
1117
1183
1228
1259
1307
1394
1531
1723
1933
2070
2068
1975
1930
2007
2124
2142
2028
1919
1946
2064
2128
2068
1979
1998
2132
2251
2247
2169
2156
2267
2399
2386
2171
1895
1769
1861
2015
2014
1816
1622
1654
1902
2122
2108
1917
1786
1844
1964
1957
1811
1700
1742
1842
1822
1662
1525
1549
1667
1707
1605
1474
1447
1526
1620
1669
1670
1637
1566
1462
1375
1346
1355
1343
1293
1247
1257
1319
1393
1439
1437
1393
1326
1267
1236
1230
1240
1258
1283
1303
1306
1305
1320
1336
1315
1247
1191
1216
1290
1288
1155
987
929
996
1015
837
542
348
355
427
362
144
-76
-219
-403
-776
-1246
-1518
-1420
-1104
-861
-775
-626
-174
571
1375
2045
2559
2977
3305
3506
3600
3659
3702
3659
3461
3138
2807
2576
2472
2431
2364
2201
1954
1720
1592
1542
1443
1209
896
628
438
252
26
-143
-113
101
297
290
105
-75
-102
-7
68
56
5
-10
18
26
-28
-95
-97
-23
36
-40
-264
-508
-612
-539
-415
-399
-519
-646
-640
-496
-330
-253
-287
-379
-468
-504
-451
-325
-207
-180
-226
-235
-146
-59
-145
-451
-798
-953
-878
-771
-826
-1025
-1152
-1034
-731
-476
-443
-604
-790
-889
-957
-1117
-1392
-1654
-1773
-1758
-1734
-1766
-1779
-1680
-1517
-1424
-1440
-1428
-1264
-1033
-942
-1038
-1130
-1032
-830
-768
-905
-1015
-875
-566
-372
-406
-459
-311
-38
81
-57
-250
-257
-96
20
-17
-88
-36
144
320
401
423
448
482
502
521
575
673
751
754
718
749
902
1103
1193
1074
826
656
677
780
756
541
313
284
460
636
635
497
405
456
552
537
384
220
195
338
563
760
864
885
877
887
921
923
839
692
569
519
507
455
370
354
459
575
536
322
105
44
98
82
-94
-321
-435
-417
-395
-477
-631
-758
-811
-833
-875
-917
-898
-792
-643
-539
-525
-567
-588
-542
-466
-424
-439
-483
-526
-574
-609
-582
-466
-327
-266
-298
-319
-242
-115
-63
-113
-163
-138
-123
-251
-513
-760
-928
-1143
-1554
-2065
-2364
-2237
-1807
-1382
-1096
-794
-263
485
1238
1820
2246
2621
2977
3253
3410
3494
3577
3653
3661
3573
3425
3261
3087
2886
2669
2455
2244
2028
1823
1671
1591
1539
1444
1301
1160
1070
1030
1015
1032
1109
1226
1310
1306
1248
1225
1267
1315
1292
1187
1038
869
677
499
412
464
602
697
682
621
630
736
844
844
708
511
363
333
425
584
721
762
717
671
711
809
849
737
527
372
363
436
464
417
383
444
569
644
613
515
439
416
419
419
423
458
523
580
589
534
427
319
252
209
137
0
-163
-255
-218
-87
50
136
184
229
283
335
388
432
440
403
367
424
606
812
888
807
717
771
939
1044
979
878
956
1237
1511
1571
1461
1402
1500
1614
1549
1302
1076
1039
1140
1195
1097
928
842
907
1041
1117
1082
994
961
1036
1136
1138
1013
880
890
1070
1290
1410
1422
1415
1450
1505
1525
1506
1485
1463
1411
1314
1211
1165
1204
1301
1400
1462
1486
1506
1564
1657
1728
1706
1595
1457
1334
1199
1032
881
824
897
1033
1153
1260
1404
1583
1703
1672
1505
1298
1126
993
864
741
684
771
1021
1344
1568
1574
1410
1251
1213
1226
1121
846
563
477
613
796
851
796
798
959
1184
1287
1194
1009
905
924
962
901
737
594
584
662
682
538
270
5
-198
-435
-848
-1424
-1944
-2143
-1956
-1578
-1237
-949
-509
259
1281
2280
3035
3533
3869
4085
4173
4177
4195
4231
4122
3713
3094
2559
2338
2334
2247
1920
1480
1184
1138
1206
1190
1023
811
684
684
737
725
589
367
171
86
101
120
57
-91
-236
-276
-170
31
217
301
296
294
381
527
618
602
542
525
528
460
292
132
100
159
141
-63
-378
-635
-757
-795
-822
-834
-801
-747
-723
-716
-639
-460
-301
-310
-484
-632
-595
-445
-413
-588
-799
-813
-624
-460
-504
-692
-845
-920
-1043
-1289
-1543
-1643
-1607
-1613
-1739
-1871
-1841
-1658
-1498
-1502
-1636
-1755
-1769
-1713
-1701
-1821
-2056
-2296
-2409
-2348
-2207
-2115
-2099
-2061
-1887
-1574
-1222
-923
-690
-488
-306
-161
-64
-9
7
-20
-92
-191
-279
-323
-304
-224
-85
88
251
370
440
465
431
325
170
36
-3
73
225
402
587
795
1015
1197
1290
1281
1168
941
621
308
141
179
325
441
490
551
683
831
909
918
912
882
751
489
242
203
388
596
620
480
368
425
587
701
712
723
851
1074
1244
1230
1037
784
580
419
214
-78
-362
-462
-292
52
375
558
645
725
809
826
716
506
283
115
40
60
157
341
609
907
1140
1232
1183
1048
842
539
164
-137
-226
-139
-58
-52
79
569
1287
1742
1549
890
344
262
420
324
-220
-938
-1422
-1531
-1426
-1343
-1423
-1690
-2034
-2256
-2203
-1904
-1544
-1226
-829
-197
625
1441
2143
2798
3435
3900
4004
3818
3659
3688
3697
3350
2624
1885
1480
1377
1244
869
379
54
23
152
223
111
-149
-446
-686
-821
-832
-748
-626
-513
-421
-307
-156
-49
-99
-327
-622
-846
-955
-1006
-1047
-1052
-1003
-941
-904
-863
-787
-757
-935
-1358
-1813
-2013
-1908
-1721
-1687
-1770
-1745
-1496
-1190
-1096
-1292
-1602
-1803
-1869
-1944
-2141
-2389
-2504
-2407
-2214
-2134
-2264
-2501
-2656
-2643
-2539
-2464
-2450
-2443
-2376
-2239
-2065
-1905
-1819
-1862
-2016
-2186
-2288
-2323
-2349
-2384
-2351
-2203
-1987
-1808
-1688
-1565
-1408
-1279
-1249
-1288
-1309
-1293
-1304
-1365
-1390
-1292
-1108
-971
-924
-863
-670
-367
-85
88
188
285
370
406
392
375
388
412
414
394
385
427
557
770
1012
1174
1196
1151
1190
1370
1577
1642
1545
1453
1528
1754
1969
2050
2039
2055
2143
2222
2195
2067
1950
1941
2037
2136
2152
2092
2028
2022
2070
2122
2132
2100
2045
1984
1948
1959
2022
2059
1997
1840
1688
1642
1692
1718
1636
1506
1464
1553
1646
1576
1330
1060
921
917
928
851
715
629
667
777
852
812
683
552
468
399
294
170
109
177
336
459
479
448
502
706
972
1129
1071
847
633
592
724
864
849
676
513
536
744
954
995
868
735
732
824
851
713
469
273
195
109
-198
-789
-1446
-1800
-1649
-1147
-670
-444
-342
-21
715
1693
2555
3088
3361
3566
3774
3894
3862
3760
3709
3706
3634
3407
3086
2831
2743
2797
2879
2840
2590
2172
1759
1533
1517
1533
1381
1041
682
493
530
702
874
947
862
631
355
172
130
143
107
44
69
225
391
401
222
-4
-118
-106
-86
-153
-311
-481
-572
-549
-435
-311
-268
-334
-435
-462
-378
-264
-229
-290
-354
-340
-277
-281
-430
-663
-829
-850
-811
-862
-1054
-1263
-1315
-1174
-1009
-1001
-1154
-1305
-1316
-1224
-1168
-1209
-1296
-1354
-1367
-1379
-1422
-1471
-1505
-1521
-1529
-1553
-1597
-1638
-1644
-1600
-1523
-1432
-1320
-1172
-1009
-875
-772
-635
-416
-184
-88
-188
-357
-406
-290
-148
-122
-192
-203
-46
220
464
608
672
706
754
851
1030
1247
1394
1399
1330
1361
1572
1839
1937
1789
1542
1412
1456
1524
1462
1296
1190
1248
1409
1546
1603
1624
1655
1675
1646
1592
1567
1569
1538
1437
1346
1380
1549
1729
1785
1721
1666
1703
1764
1700
1465
1178
1000
981
1045
1096
1107
1122
1191
1303
1404
1439
1401
1335
1278
1217
1111
968
861
840
869
870
849
898
1074
1282
1382
1338
1273
1287
1317
1222
979
748
677
714
692
569
517
717
1105
1394
1382
1183
1088
1227
1421
1397
1102
776
674
802
934
878
688
559
614
779
880
831
697
599
583
572
460
214
-99
-410
-722
-1071
-1404
-1542
-1338
-869
-400
-116
101
548
1345
2257
2908
3165
3249
3458
3835
4167
4264
4170
4056
3981
3833
3506
3085
2750
2556
2377
2054
1592
1150
869
767
771
819
870
882
816
685
563
507
496
459
354
196
26
-113
-170
-106
51
205
257
217
204
305
446
464
301
89
0
23
-25
-250
-516
-586
-412
-229
-287
-544
-703
-548
-209
-27
-176
-486
-656
-591
-452
-439
-580
-747
-804
-716
-523
-292
-100
-25
-90
-236
-385
-528
-714
-969
-1246
-1484
-1677
-1829
-1906
-1852
-1663
-1438
-1288
-1244
-1241
-1203
-1129
-1074
-1086
-1157
-1238
-1283
-1277
-1241
-1204
-1176
-1130
-1048
-966
-938
-941
-865
-638
-351
-201
-293
-496
-567
-386
-67
176
244
226
262
400
559
615
523
347
183
101
116
251
524
892
1228
1398
1408
1401
1455
1431
1133
607
178
121
340
506
509
593
991
1545
1848
1731
1431
1270
1249
1124
800
465
339
433
611
819
1086
1342
1427
1328
1234
1302
1388
1210
744
307
215
412
563
480
325
371
627
844
819
617
461
473
579
662
716
820
1006
1174
1159
914
567
294
160
79
-64
-250
-350
-247
34
360
612
751
798
799
797
827
896
969
995
943
834
714
615
555
509
425
274
105
-1
-15
20
37
23
-35
-190
-487
-887
-1278
-1594
-1903
-2298
-2744
-3108
-3330
-3502
-3719
-3910
-3877
-3518
-2945
-2342
-1772
-1178
-523
135
710
1186
1569
1821
1894
1838
1786
1821
1890
1874
1744
1592
1509
1479
1404
1220
961
700
480
303
160
42
-86
-254
-436
-540
-521
-443
-437
-548
-700
-785
-796
-808
-865
-928
-940
-905
-853
-761
-564
-272
-21
34
-108
-290
-329
-187
12
107
51
-63
-97
-6
120
137
-1
-200
-335
-378
-407
-479
-544
-505
-385
-313
-393
-558
-643
-578
-469
-479
-637
-809
-855
-778
-698
-696
-729
-707
-618
-554
-581
-652
-668
-609
-566
-629
-783
-926
-999
-1041
-1108
-1188
-1215
-1145
-1012
-862
-705
-550
-451
-447
-497
-492
-382
-260
-268
-402
-478
-320
6
243
211
17
-66
99
364
474
377
282
420
792
1172
1367
1397
1429
1559
1712
1750
1636
1464
1350
1340
1416
1532
1634
1677
1647
1584
1544
1533
1493
1361
1170
1033
1037
1162
1315
1424
1501
1596
1702
1764
1740
1642
1512
1370
1202
1002
808
668
590
563
602
752
1014
1283
1420
1383
1278
1224
1209
1101
813
444
199
190
346
498
560
581
663
812
923
868
625
292
7
-156
-213
-204
-119
82
397
762
1095
1346
1501
1542
1453
1240
977
770
671
642
631
639
732
946
1225
1443
1501
1406
1260
1148
1064
927
693
430
282
331
505
650
679
637
607
597
516
281
-95
-546
-1037
-1545
-1961
-2123
-1947
-1542
-1110
-738
-341
196
867
1557
2181
2716
3117
3296
3242
3112
3098
3213
3260
3061
2674
2340
2230
2295
2369
2345
2221
2031
1792
1544
1338
1184
1019
758
410
88
-96
-122
-37
109
248
294
183
-49
-248
-296
-246
-262
-413
-578
-592
-470
-398
-508
-692
-725
-543
-325
-267
-349
-387
-289
-176
-209
-377
-507
-486
-375
-299
-286
-262
-192
-121
-76
2
154
294
273
57
-216
-373
-381
-356
-394
-470
-511
-474
-385
-271
-144
-25
35
-9
-149
-328
-486
-580
-610
-625
-697
-856
-1030
-1072
-910
-637
-450
-463
-597
-658
-529
-287
-106
-94
-200
-295
-315
-300
-321
-385
-411
-302
-38
309
616
793
851
871
922
983
954
772
496
276
212
278
364
392
372
359
382
445
543
670
792
871
893
897
929
976
976
883
731
594
511
454
407
415
547
800
1058
1183
1136
1007
918
900
887
818
711
644
673
775
884
935
917
857
789
737
707
703
730
779
825
863
911
983
1054
1069
1006
912
851
839
836
807
790
826
905
964
975
979
1015
1056
1036
940
841
827
908
1000
1022
965
891
866
891
924
940
965
1045
1170
1266
1253
1129
983
900
894
913
909
862
784
711
708
808
956
1025
950
832
824
920
944
774
503
344
339
258
-117
-679
-1047
-941
-498
-124
-57
-122
57
655
1474
2167
2533
2639
2662
2714
2804
2885
2902
2845
2765
2761
2892
3066
3089
2868
2517
2250
2128
2000
1726
1386
1218
1344
1598
1684
1510
1261
1161
1205
1168
876
397
-37
-280
-413
-581
-777
-833
-600
-184
131
188
130
227
546
830
772
398
38
-41
52
-51
-487
-957
-1049
-677
-152
210
410
652
1004
1271
1253
960
585
278
52
-117
-223
-294
-404
-549
-608
-458
-170
-11
-178
-583
-978
-1220
-1381
-1581
-1812
-1945
-1907
-1743
-1548
-1383
-1264
-1213
-1249
-1339
-1409
-1412
-1395
-1457
-1642
-1905
-2143
-2303
-2394
-2460
-2527
-2572
-2551
-2444
-2261
-2054
-1892
-1817
-1798
-1765
-1662
-1502
-1355
-1256
-1159
-980
-710
-431
-225
-101
-3
105
184
180
103
30
19
66
131
218
342
470
520
453
339
305
391
503
519
421
314
282
316
360
396
420
397
288
150
127
281
482
512
316
87
71
330
683
881
855
749
776
1034
1400
1626
1550
1249
980
948
1099
1217
1162
1007
952
1104
1382
1601
1619
1452
1268
1254
1453
1688
1733
1585
1499
1711
2143
2463
2471
2327
2316
2473
2536
2321
1975
1786
1822
1897
1865
1848
2033
2383
2651
2680
2571
2520
2556
2526
2338
2066
1851
1739
1659
1551
1435
1352
1306
1259
1180
1079
975
881
779
617
387
157
24
3
-21
-184
-503
-880
-1241
-1621
-2063
-2446
-2560
-2344
-1994
-1769
-1693
-1527
-1031
-223
659
1408
1992
2487
2933
3306
3588
3776
3858
3780
3498
3087
2707
2491
2439
2429
2351
2187
1993
1821
1670
1512
1340
1154
938
672
393
223
267
513
808
972
941
786
616
477
344
191
44
-17
60
228
361
374
318
356
569
835
916
711
378
172
191
294
283
128
-41
-95
-10
131
247
296
258
151
33
-43
-70
-99
-147
-170
-148
-151
-271
-484
-641
-655
-648
-819
-1194
-1553
-1683
-1623
-1613
-1779
-1967
-1956
-1757
-1604
-1659
-1802
-1792
-1578
-1381
-1403
-1571
-1645
-1503
-1264
-1115
-1087
-1077
-1020
-950
-927
-928
-902
-870
-894
-969
-1001
-917
-747
-572
-405
-190
111
454
761
1000
1193
1347
1415
1365
1234
1096
985
867
719
594
572
658
749
774
817
1026
1411
1758
1835
1647
1456
1497
1723
1876
1795
1591
1499
1606
1781
1853
1798
1728
1735
1796
1843
1865
1917
2011
2078
2044
1941
1891
1965
2092
2143
2086
2039
2138
2347
2485
2421
2216
2046
2005
2023
1965
1803
1652
1645
1785
1951
2038
2067
2141
2308
2477
2498
2328
2093
1972
2014
2075
1984
1735
1500
1447
1548
1623
1554
1433
1451
1666
1943
2096
2090
2068
2161
2352
2511
2533
2408
2202
2009
1890
1848
1823
1735
1582
1451
1427
1503
1594
1635
1630
1569
1407
1150
916
842
894
882
673
341
48
-214
-602
-1155
-1625
-1698
-1357
-906
-603
-358
157
1103
2273
3325
4100
4671
5137
5480
5644
5658
5628
5580
5427
5107
4706
4392
4230
4099
3850
3470
3060
2690
2333
1943
1555
1256
1070
921
740
544
406
381
468
617
745
757
610
374
195
158
209
241
215
194
240
334
411
434
415
362
271
168
105
95
76
-9
-135
-197
-150
-58
-17
-47
-89
-104
-113
-158
-222
-256
-245
-225
-222
-215
-171
-83
18
86
79
-28
-208
-396
-531
-628
-757
-949
-1128
-1173
-1058
-880
-766
-745
-768
-802
-865
-978
-1115
-1228
-1304
-1366
-1432
-1471
-1424
-1250
-975
-706
-569
-608
-731
-789
-738
-694
-794
-1000
-1090
-892
-494
-167
-50
-7
200
614
1012
1150
1041
925
1009
1250
1419
1368
1187
1078
1143
1282
1328
1191
1114
1105
1200
1266
1208
1096
1111
1319
1585
1717
1683
1648
1769
1998
2125
2038
1858
1789
1859
1890
1747
1543
1492
1633
1778
1757
1645
1643
1784
1887
1821
1690
1669
1727
1662
1419
1215
1265
1477
1548
1340
1067
1009
1159
1276
1202
1036
974
1054
1155
1180
1187
1288
1492
1690
1746
1612
1385
1219
1224
1357
1440
1355
1169
1075
1193
1429
1587
1565
1412
1240
1116
1053
1056
1125
1192
1129
879
536
324
382
621
791
703
409
144
91
211
311
255
84
-77
-163
-192
-197
-164
-94
-56
-124
-282
-442
-577
-784
-1115
-1431
-1484
-1166
-648
-192
139
524
1135
1921
2634
3052
3148
3058
2962
2957
3019
3037
2888
2541
2093
1683
1396
1216
1074
895
627
270
-104
-378
-505
-558
-664
-875
-1121
-1304
-1407
-1476
-1560
-1665
-1778
-1892
-1986
-2018
-1984
-1948
-1981
-2078
-2137
-2075
-1935
-1839
-1858
-1946
-2002
-1999
-1992
-2027
-2057
-2005
-1876
-1767
-1743
-1756
-1721
-1626
-1562
-1589
-1650
-1642
-1547
-1458
-1442
-1437
-1337
-1128
-933
-878
-952
-1031
-1017
-928
-841
-808
-808
-790
-725
-614
-491
-395
-354
-389
-484
-593
-653
-633
-564
-514
-516
-520
-440
-259
-76
-14
-104
-257
-358
-377
-354
-343
-368
-402
-390
-276
-47
225
418
474
460
496
624
759
799
743
671
654
701
792
916
1046
1127
1154
1202
1355
1593
1786
1836
1805
1843
2002
2157
2151
1972
1763
1654
1637
1624
1598
1624
1749
1906
1987
1973
1963
2046
2181
2253
2191
2055
1945
1902
1893
1865
1813
1764
1737
1720
1687
1617
1524
1461
1472
1528
1529
1397
1190
1070
1130
1280
1332
1219
1057
1017
1144
1342
1492
1552
1527
1434
1296
1156
1049
975
925
923
1006
1157
1279
1295
1252
1253
1323
1363
1272
1082
922
858
834
765
648
558
547
603
708
853
996
1042
946
801
758
850
946
888
676
467
392
442
509
517
468
401
336
303
354
498
651
680
531
278
50
-119
-342
-742
-1264
-1675
-1750
-1486
-1108
-815
-583
-206
439
1238
1956
2450
2756
2985
3197
3384
3509
3523
3389
3145
2900
2734
2616
2461
2277
2198
2278
2339
2130
1636
1132
878
821
670
261
-235
-514
-467
-223
52
305
535
693
715
626
514
416
268
31
-189
-219
-38
173
238
185
207
394
595
591
369
131
34
-7
-194
-555
-889
-1006
-938
-846
-806
-760
-660
-574
-582
-644
-660
-651
-741
-967
-1185
-1230
-1128
-1055
-1116
-1216
-1170
-962
-770
-756
-910
-1079
-1138
-1101
-1079
-1142
-1260
-1357
-1381
-1340
-1263
-1168
-1073
-1026
-1078
-1208
-1312
-1290
-1150
-1004
-949
-976
-991
-908
-716
-469
-246
-103
-34
21
137
347
622
888
1089
1207
1248
1238
1207
1176
1125
1019
873
757
739
805
884
937
1014
1177
1387
1501
1420
1207
1030
969
928
763
470
209
134
230
349
378
337
311
329
337
281
176
83
51
78
114
124
127
174
280
396
442
422
433
542
688
725
593
388
254
217
172
41
-125
-209
-150
9
195
366
493
561
582
600
642
676
646
556
476
480
571
699
830
962
1092
1178
1176
1101
1007
943
906
858
791
748
780
895
1037
1126
1133
1114
1142
1221
1284
1271
1196
1119
1059
971
819
648
557
588
681
746
763
797
898
1014
1014
826
526
251
71
-62
-236
-446
-627
-764
-912
-1097
-1214
-1110
-770
-368
-70
136
402
818
1326
1835
2324
2797
3183
3376
3400
3429
3587
3773
3775
3536
3226
3035
2970
2879
2662
2359
2042
1720
1372
1005
667
420
301
325
439
482
306
-37
-289
-239
-5
60
-236
-679
-871
-674
-341
-183
-182
-72
269
593
525
2
-606
-862
-686
-373
-232
-277
-266
-39
305
553
578
368
-43
-611
-1177
-1492
-1468
-1318
-1315
-1427
-1285
-634
237
719
516
-44
-393
-356
-289
-581
-1145
-1537
-1467
-1103
-837
-859
-1042
-1193
-1276
-1359
-1469
-1550
-1577
-1625
-1754
-1900
-1958
-1915
-1862
-1875
-1904
-1863
-1770
-1735
-1792
-1828
-1719
-1507
-1366
-1359
-1357
-1220
-1018
-962
-1145
-1393
-1450
-1280
-1082
-1036
-1104
-1108
-966
-791
-729
-753
-697
-465
-166
-14
-102
-305
-429
-383
-233
-116
-120
-231
-379
-477
-483
-444
-459
-583
-729
-744
-570
-319
-147
-95
-92
-80
-85
-147
-220
-219
-147
-97
-114
-127
-42
118
212
153
27
-5
106
258
318
266
198
217
348
525
664
731
753
790
870
961
1012
1013
999
998
980
892
752
662
712
876
1036
1082
1019
926
877
878
892
879
823
745
707
783
1011
1348
1671
1865
1925
1937
1990
2081
2145
2120
2029
1951
1934
1975
2030
2053
2038
2018
2032
2093
2180
2224
2165
2043
1993
2130
2379
2498
2312
1951
1753
1908
2198
2195
1721
1053
611
470
316
-123
-692
-956
-694
-148
281
495
776
1413
2360
3319
4059
4582
4995
5319
5502
5557
5587
5630
5575
5275
4759
4265
4018
4002
3951
3626
3048
2458
2062
1863
1708
1488
1223
977
768
569
386
285
295
344
323
211
104
88
131
145
116
161
379
690
875
796
540
342
329
419
442
323
131
-29
-112
-119
-50
72
189
239
232
256
380
556
663
631
503
360
232
89
-63
-153
-128
-19
81
124
167
290
479
605
553
337
80
-129
-327
-598
-925
-1172
-1218
-1096
-941
-842
-773
-675
-546
-448
-403
-389
-395
-452
-583
-723
-783
-736
-657
-637
-691
-753
-747
-654
-512
-373
-266
-191
-118
-21
115
294
501
689
807
849
882
978
1117
1184
1113
987
966
1099
1269
1343
1334
1361
1475
1598
1647
1639
1634
1630
1580
1517
1549
1722
1921
2000
1973
1985
2120
2282
2308
2154
1921
1729
1622
1608
1689
1814
1879
1827
1748
1814
2042
2249
2260
2106
1982
2015
2130
2173
2102
1995
1938
1924
1906
1858
1784
1704
1644
1623
1629
1609
1543
1499
1551
1669
1726
1648
1524
1500
1582
1631
1537
1369
1296
1377
1497
1510
1403
1317
1370
1535
1696
1785
1834
1893
1951
1939
1856
1792
1827
1909
1900
1752
1584
1548
1653
1754
1723
1589
1472
1429
1414
1372
1300
1234
1197
1181
1153
1069
890
636
377
133
-207
-751
-1384
-1761
-1624
-1098
-583
-317
-125
349
1220
2244
3095
3666
4063
4388
4650
4835
4960
5035
5006
4808
4464
4105
3862
3768
3742
3671
3487
3192
2861
2586
2380
2196
1976
1700
1383
1061
785
625
621
710
767
735
681
695
747
729
611
501
499
544
487
293
85
-2
8
-9
-85
-109
4
193
316
313
253
217
185
88
-72
-209
-256
-236
-224
-241
-241
-181
-87
-27
-41
-112
-202
-289
-352
-355
-289
-215
-226
-354
-516
-601
-595
-593
-692
-875
-1041
-1108
-1090
-1051
-1028
-1015
-999
-987
-991
-999
-993
-985
-995
-1011
-998
-934
-864
-853
-911
-962
-917
-778
-643
-593
-601
-566
-435
-258
-114
-21
63
161
246
287
315
390
522
663
760
818
872
937
1002
1049
1066
1040
959
857
802
833
928
1019
1070
1106
1165
1251
1345
1430
1501
1536
1504
1413
1326
1307
1354
1406
1407
1348
1259
1178
1132
1130
1144
1117
1030
948
970
1122
1306
1407
1417
1412
1433
1426
1340
1229
1205
1267
1275
1111
844
698
799
1028
1156
1099
981
965
1069
1193
1293
1411
1542
1573
1424
1230
1244
1519
1776
1675
1209
748
649
885
1103
1033
772
642
826
1164
1341
1214
939
792
866
961
840
529
323
458
829
1106
1109
1009
1091
1400
1698
1738
1498
1163
948
976
1229
1530
1625
1367
871
413
117
-173
-662
-1271
-1650
-1550
-1093
-593
-171
329
1027
1781
2334
2625
2832
3073
3221
3088
2720
2384
2249
2206
2054
1798
1655
1777
2055
2267
2327
2329
2392
2512
2587
2544
2390
2171
1919
1638
1316
958
612
356
261
295
330
246
43
-157
-234
-193
-125
-119
-213
-395
-642
-927
-1223
-1505
-1754
-1957
-2106
-2202
-2268
-2343
-2448
-2555
-2612
-2601
-2579
-2637
-2796
-2956
-2962
-2739
-2395
-2152
-2147
-2314
-2445
-2392
-2209
-2084
-2146
-2346
-2522
-2567
-2499
-2405
-2344
-2302
-2254
-2210
-2187
-2154
-2039
-1818
-1577
-1448
-1474
-1539
-1472
-1231
-968
-884
-1030
-1247
-1328
-1217
-1040
-968
-1041
-1156
-1158
-982
-709
-484
-378
-326
-190
87
394
558
527
449
517
758
996
1051
972
989
1251
1624
1818
1711
1481
1397
1510
1614
1517
1262
1064
1061
1194
1322
1406
1509
1687
1896
2047
2101
2100
2128
2232
2368
2438
2365
2178
1999
1931
1948
1922
1768
1554
1426
1460
1575
1634
1598
1548
1561
1598
1558
1409
1247
1192
1254
1323
1310
1245
1230
1326
1493
1657
1773
1825
1804
1727
1664
1682
1766
1805
1723
1574
1491
1537
1646
1712
1714
1703
1707
1696
1640
1575
1544
1508
1386
1168
975
932
1019
1088
1042
967
1014
1196
1353
1332
1171
1051
1078
1172
1192
1124
1079
1144
1262
1309
1271
1263
1361
1490
1495
1331
1127
1046
1084
1100
1013
898
856
857
761
500
157
-172
-540
-1055
-1664
-2099
-2129
-1792
-1352
-1007
-696
-223
478
1264
1946
2440
2764
2935
2962
2920
2941
3079
3206
3137
2843
2510
2350
2371
2370
2175
1813
1455
1218
1062
874
615
354
183
100
29
-94
-230
-267
-147
2
-56
-438
-980
-1363
-1428
-1306
-1239
-1275
-1245
-1014
-691
-512
-575
-735
-825
-857
-963
-1187
-1401
-1445
-1300
-1095
-964
-934
-944
-933
-895
-852
-817
-769
-695
-638
-664
-797
-968
-1092
-1183
-1345
-1654
-2002
-2159
-1996
-1626
-1280
-1076
-985
-958
-1032
-1251
-1551
-1808
-1986
-2168
-2413
-2630
-2663
-2506
-2321
-2255
-2266
-2222
-2115
-2074
-2165
-2270
-2212
-2001
-1841
-1883
-2051
-2146
-2102
-2046
-2127
-2331
-2508
-2551
-2484
-2369
-2215
-1988
-1699
-1398
-1131
-910
-720
-543
-373
-218
-108
-79
-121
-157
-108
27
175
282
369
498
691
909
1107
1262
1360
1401
1406
1417
1441
1415
1285
1090
943
912
931
888
759
645
648
751
842
839
757
659
568
462
319
143
-24
-146
-222
-295
-404
-544
-668
-724
-728
-757
-866
-1024
-1139
-1146
-1064
-957
-867
-796
-731
-690
-708
-794
-918
-1028
-1096
-1137
-1183
-1238
-1272
-1235
-1108
-930
-774
-709
-752
-845
-891
-842
-744
-700
-771
-906
-986
-945
-825
-714
-659
-632
-583
-501
-409
-344
-341
-410
-529
-638
-681
-651
-596
-562
-548
-522
-467
-418
-414
-471
-587
-746
-913
-1050
-1140
-1214
-1329
-1510
-1747
-2055
-2477
-2994
-3441
-3593
-3389
-3014
-2698
-2433
-1977
-1145
-61
944
1646
2099
2463
2785
2989
3021
2922
2736
2436
1988
1475
1074
895
866
791
553
204
-104
-255
-286
-352
-570
-913
-1247
-1467
-1598
-1731
-1882
-1974
-1954
-1896
-1927
-2069
-2219
-2280
-2281
-2309
-2361
-2340
-2188
-1999
-1931
-2039
-2215
-2331
-2379
-2445
-2563
-2656
-2596
-2347
-2021
-1790
-1743
-1818
-1853
-1768
-1655
-1709
-2029
-2497
-2847
-2908
-2754
-2631
-2716
-2936
-3032
-2828
-2436
-2187
-2335
-2782
-3147
-3158
-2906
-2722
-2819
-3095
-3297
-3315
-3226
-3121
-2999
-2850
-2750
-2798
-2966
-3105
-3130
-3121
-3191
-3339
-3448
-3450
-3404
-3410
-3476
-3525
-3496
-3398
-3269
-3106
-2875
-2538
-2125
-1752
-1565
-1616
-1818
-2015
-2112
-2135
-2156
-2162
-2053
-1759
-1336
-945
-721
-690
-806
-995
-1185
-1353
-1527
-1732
-1910
-1936
-1726
-1363
-1037
-884
-915
-1073
-1296
-1488
-1531
-1388
-1183
-1079
-1088
-1020
-744
-427
-407
-812
-1396
-1779
-1800
-1611
-1446
-1391
-1345
-1186
-897
-592
-423
-462
-650
-860
-1010
-1124
-1277
-1474
-1646
-1752
-1832
-1941
-2065
-2140
-2143
-2123
-2110
-2066
-1940
-1746
-1568
-1499
-1562
-1713
-1869
-1977
-2074
-2250
-2540
-2851
-3007
-2902
-2603
-2302
-2118
-2020
-1889
-1662
-1390
-1183
-1119
-1184
-1296
-1378
-1408
-1412
-1424
-1456
-1489
-1499
-1480
-1440
-1379
-1309
-1240
-1185
-1156
-1138
-1117
-1110
-1160
-1310
-1532
-1731
-1835
-1831
-1779
-1758
-1814
-1956
-2150
-2346
-2521
-2721
-3013
-3396
-3710
-3735
-3426
-2957
-2553
-2251
-1879
-1292
-542
179
740
1158
1496
1772
1963
2090
2202
2321
2399
2352
2130
1766
1388
1143
1069
1042
856
480
135
52
193
266
60
-317
-590
-674
-733
-912
-1119
-1151
-1005
-898
-994
-1207
-1332
-1322
-1303
-1372
-1482
-1548
-1599
-1700
-1821
-1842
-1731
-1615
-1625
-1726
-1782
-1770
-1831
-2065
-2370
-2537
-2514
-2465
-2554
-2757
-2896
-2870
-2757
-2706
-2779
-2926
-3080
-3191
-3209
-3100
-2911
-2770
-2796
-2949
-3061
-3017
-2877
-2808
-2893
-3070
-3213
-3249
-3189
-3063
-2906
-2777
-2754
-2844
-2933
-2923
-2844
-2829
-2929
-3028
-2963
-2735
-2515
-2463
-2542
-2593
-2558
-2549
-2696
-2971
-3178
-3134
-2848
-2497
-2260
-2144
-2026
-1810
-1561
-1441
-1504
-1613
-1598
-1475
-1413
-1477
-1502
-1288
-883
-563
-525
-682
-781
-715
-613
-610
-669
-661
-563
-480
-474
-467
-336
-115
3
-123
-413
-640
-677
-607
-608
-736
-894
-964
-946
-931
-949
-937
-860
-778
-810
-993
-1237
-1402
-1426
-1334
-1202
-1098
-1058
-1067
-1050
-949
-811
-752
-844
-1049
-1274
-1469
-1626
-1701
-1624
-1404
-1171
-1032
-932
-718
-374
-118
-209
-629
-1055
-1196
-1077
-986
-1092
-1232
-1121
-711
-285
-156
-359
-654
-837
-921
-1046
-1257
-1453
-1519
-1432
-1226
-959
-700
-529
-465
-440
-368
-271
-253
-367
-536
-622
-578
-490
-468
-584
-826
-1102
-1283
-1260
-1074
-910
-927
-1086
-1211
-1217
-1254
-1575
-2271
-3145
-3842
-4086
-3853
-3348
-2819
-2383
-1958
-1373
-559
357
1157
1692
1972
2109
2236
2436
2728
3024
3144
2955
2535
2130
1936
1911
1818
1508
1067
718
577
560
523
414
274
142
-29
-303
-655
-938
-1011
-873
-691
-673
-862
-1093
-1158
-1041
-935
-1028
-1272
-1434
-1378
-1207
-1126
-1213
-1369
-1478
-1530
-1548
-1505
-1368
-1200
-1140
-1247
-1397
-1403
-1208
-971
-931
-1145
-1445
-1588
-1481
-1267
-1185
-1334
-1586
-1724
-1679
-1555
-1510
-1597
-1743
-1858
-1914
-1925
-1900
-1837
-1766
-1760
-1864
-2034
-2169
-2204
-2175
-2171
-2249
-2379
-2493
-2528
-2461
-2320
-2179
-2137
-2233
-2379
-2426
-2298
-2078
-1928
-1918
-1984
-2020
-1999
-1959
-1930
-1908
-1905
-1938
-1987
-1975
-1836
-1600
-1370
-1199
-1059
-915
-798
-760
-778
-758
-666
-600
-668
-803
-808
-574
-235
-49
-111
-256
-254
-96
6
-107
-349
-486
-400
-204
-93
-126
-203
-204
-116
8
124
214
255
231
170
147
204
297
344
317
268
250
262
283
321
393
467
466
367
249
236
341
446
425
295
183
185
290
430
548
613
605
524
428
384
378
322
183
52
45
143
201
142
77
159
377
548
540
430
397
496
608
601
474
329
237
196
173
170
210
300
419
551
696
862
1030
1156
1182
1091
930
775
645
499
305
112
16
44
128
175
194
269
413
506
395
80
-265
-488
-669
-1055
-1762
-2542
-2934
-2676
-1962
-1257
-855
-629
-238
488
1388
2157
2630
2857
2965
3049
3176
3418
3762
4046
4049
3699
3183
2785
2642
2630
2527
2219
1771
1343
1050
914
868
801
597
236
-161
-412
-407
-195
68
257
332
296
151
-94
-390
-671
-910
-1121
-1302
-1404
-1365
-1197
-1000
-852
-746
-630
-502
-438
-502
-650
-760
-769
-737
-771
-895
-1012
-1037
-1007
-1063
-1263
-1493
-1563
-1400
-1130
-962
-959
-1010
-971
-825
-697
-726
-956
-1332
-1752
-2130
-2423
-2623
-2749
-2796
-2725
-2520
-2225
-1930
-1708
-1574
-1502
-1501
-1628
-1903
-2263
-2592
-2766
-2721
-2468
-2113
-1829
-1752
-1858
-1968
-1912
-1729
-1655
-1893
-2348
-2659
-2527
-2012
-1484
-1243
-1214
-1065
-614
-80
127
-136
-593
-829
-714
-491
-449
-603
-719
-610
-321
-18
203
374
527
614
611
600
715
982
1279
1482
1606
1758
1979
2195
2316
2339
2335
2352
2328
2168
1857
1504
1265
1190
1176
1068
816
547
448
573
803
956
954
859
748
632
484
326
207
126
0
-220
-444
-495
-307
-23
123
39
-153
-270
-268
-275
-410
-627
-779
-787
-710
-660
-666
-669
-647
-653
-737
-862
-935
-920
-859
-819
-805
-783
-747
-688
-587
-421
-228
-105
-108
-157
-96
134
410
531
448
317
322
474
616
597
439
300
293
416
597
776
923
990
922
763
637
610
609
487
218
-84
-335
-604
-1003
-1453
-1697
-1585
-1262
-1008
-875
-609
16
901
1733
2344
2859
3448
4061
4493
4652
4660
4678
4705
4612
4352
4027
3760
3558
3329
3026
2709
2445
2240
2048
1834
1623
1451
1303
1121
873
613
446
432
531
650
739
813
877
879
762
569
416
382
417
404
314
229
239
337
423
444
445
484
545
556
479
355
253
218
248
324
411
444
357
166
-13
-64
-2
14
-126
-337
-416
-277
-69
-4
-110
-217
-181
-53
-10
-121
-271
-323
-294
-320
-476
-683
-831
-920
-1039
-1237
-1450
-1570
-1544
-1418
-1271
-1149
-1044
-946
-858
-807
-849
-1024
-1302
-1579
-1728
-1708
-1596
-1501
-1453
-1375
-1178
-875
-591
-456
-484
-563
-552
-416
-241
-147
-159
-190
-130
33
202
276
244
169
109
63
13
-26
-20
31
101
178
284
449
644
803
891
915
886
786
610
420
322
354
439
463
403
363
470
730
1001
1108
1018
868
837
950
1062
1019
829
658
625
647
554
323
127
142
325
462
427
344
439
745
1055
1132
967
762
693
728
692
481
177
-23
7
235
494
624
583
460
380
377
379
280
36
-306
-629
-789
-694
-365
56
411
667
921
1245
1561
1707
1607
1345
1046
761
477
216
79
152
405
715
944
1003
900
720
555
406
204
-99
-443
-722
-910
-1047
-1145
-1172
-1170
-1322
-1737
-2217
-2341
-1899
-1159
-608
-417
-234
413
1548
2689
3320
3361
3154
3062
3140
3196
3072
2811
2560
2389
2251
2094
1948
1894
1958
2063
2087
1975
1773
1561
1374
1184
949
667
372
114
-69
-132
-38
198
460
595
529
305
50
-130
-223
-277
-331
-377
-363
-251
-48
190
394
532
610
633
570
415
230
125
158
265
319
239
63
-110
-221
-295
-394
-553
-744
-892
-932
-874
-792
-767
-817
-885
-893
-839
-815
-911
-1115
-1322
-1428
-1437
-1443
-1519
-1628
-1676
-1632
-1568
-1582
-1688
-1807
-1857
-1834
-1805
-1821
-1869
-1887
-1840
-1771
-1752
-1791
-1814
-1725
-1520
-1305
-1199
-1211
-1253
-1239
-1165
-1076
-988
-876
-730
-575
-444
-307
-101
169
393
447
318
128
10
-9
13
52
159
382
656
837
860
813
834
928
944
763
474
311
416
693
915
950
870
836
915
1032
1066
990
890
863
904
931
895
842
853
927
982
979
997
1132
1350
1497
1475
1364
1312
1338
1321
1180
985
878
904
962
960
917
936
1070
1259
1396
1419
1330
1191
1101
1141
1309
1504
1578
1467
1273
1193
1343
1627
1808
1735
1511
1381
1471
1661
1724
1583
1372
1262
1257
1263
1276
1383
1626
1856
1856
1601
1302
1165
1160
1052
691
211
-97
-77
172
444
636
781
905
944
849
701
654
752
837
696
338
6
-88
-15
-69
-425
-914
-1172
-1021
-614
-242
0
298
856
1623
2289
2569
2459
2225
2136
2264
2466
2566
2535
2522
2693
3054
3433
3608
3472
3101
2649
2194
1737
1280
904
711
698
743
722
629
540
513
503
403
170
-131
-376
-503
-548
-590
-700
-884
-1073
-1173
-1146
-1044
-973
-976
-994
-945
-838
-765
-785
-858
-918
-965
-1040
-1128
-1137
-1021
-856
-767
-767
-753
-660
-565
-593
-739
-872
-916
-927
-991
-1081
-1083
-960
-820
-788
-868
-962
-1016
-1054
-1098
-1099
-1009
-859
-740
-697
-698
-693
-689
-743
-876
-1045
-1192
-1295
-1370
-1430
-1465
-1451
-1392
-1331
-1303
-1309
-1313
-1288
-1243
-1202
-1170
-1138
-1090
-1022
-936
-832
-720
-620
-548
-475
-346
-153
50
216
372
564
768
878
855
818
929
1176
1345
1258
1015
911
1115
1483
1720
1707
1602
1625
1810
2012
2110
2143
2217
2316
2321
2196
2089
2181
2433
2604
2536
2372
2420
2764
3134
3193
2930
2646
2573
2586
2407
2007
1690
1736
2066
2337
2363
2303
2410
2700
2937
2930
2728
2508
2329
2094
1729
1336
1105
1105
1208
1236
1150
1082
1154
1322
1421
1339
1150
1009
964
913
753
517
355
363
484
581
579
519
485
536
689
908
1094
1152
1098
1069
1174
1345
1387
1222
1001
927
1013
1090
1033
916
902
1025
1166
1210
1162
1071
954
814
704
671
681
620
438
199
-51
-385
-887
-1443
-1759
-1661
-1311
-1019
-860
-572
111
1123
2131
2907
3502
4069
4587
4906
4998
5026
5122
5186
5001
4533
4044
3818
3864
3912
3731
3347
2950
2657
2414
2110
1740
1406
1172
990
779
543
399
470
737
1020
1107
927
613
367
271
233
115
-118
-371
-521
-534
-484
-454
-489
-587
-710
-789
-768
-648
-484
-340
-247
-204
-214
-280
-397
-547
-723
-933
-1139
-1266
-1273
-1208
-1152
-1113
-1015
-842
-707
-707
-793
-827
-787
-808
-1006
-1281
-1426
-1417
-1426
-1596
-1842
-1960
-1907
-1826
-1834
-1868
-1814
-1707
-1672
-1723
-1714
-1559
-1397
-1446
-1707
-1944
-1955
-1810
-1737
-1822
-1912
-1825
-1604
-1461
-1488
-1543
-1436
-1164
-908
-808
-809
-741
-548
-344
-256
-290
-317
-213
15
259
417
473
497
595
810
1076
1275
1318
1220
1074
968
930
937
971
1012
1041
1058
1107
1249
1489
1724
1829
1765
1627
1552
1583
1669
1737
1755
1756
1776
1830
1909
1986
2021
2004
1951
1882
1797
1683
1564
1515
1585
1712
1751
1627
1422
1293
1294
1320
1227
1008
798
719
770
848
850
781
699
659
670
689
677
605
482
367
326
374
452
469
401
340
394
566
719
716
562
404
382
494
618
651
607
578
625
724
812
859
888
920
940
913
837
766
742
745
719
629
530
512
603
726
759
656
482
338
262
199
59
-201
-564
-998
-1487
-1996
-2448
-2720
-2720
-2459
-2049
-1612
-1175
-649
60
931
1825
2578
3118
3492
3784
4040
4248
4372
4373
4222
3933
3590
3297
3094
2905
2609
2161
1651
1209
889
651
452
298
217
183
120
-28
-225
-365
-385
-338
-331
-441
-649
-870
-1024
-1077
-1036
-921
-775
-669
-657
-708
-713
-594
-411
-339
-478
-716
-808
-642
-384
-304
-469
-682
-713
-566
-445
-482
-574
-562
-477
-524
-800
-1137
-1262
-1120
-937
-961
-1179
-1353
-1310
-1124
-1020
-1141
-1412
-1643
-1703
-1598
-1448
-1376
-1408
-1461
-1436
-1344
-1289
-1370
-1555
-1721
-1798
-1840
-1944
-2096
-2172
-2076
-1869
-1713
-1698
-1743
-1671
-1431
-1172
-1098
-1258
-1479
-1538
-1398
-1241
-1239
-1360
-1424
-1319
-1131
-985
-899
-802
-689
-655
-763
-926
-982
-877
-715
-612
-573
-511
-341
-64
243
461
518
464
420
447
483
450
361
322
379
437
409
344
342
378
297
27
-277
-400
-350
-356
-577
-881
-1005
-886
-733
-767
-962
-1103
-1054
-890
-758
-679
-544
-311
-91
-15
-81
-163
-176
-175
-264
-473
-718
-888
-937
-879
-742
-576
-462
-476
-614
-774
-880
-959
-1101
-1335
-1589
-1753
-1790
-1750
-1716
-1744
-1831
-1929
-1997
-2039
-2096
-2199
-2319
-2401
-2419
-2399
-2373
-2310
-2151
-1888
-1586
-1331
-1163
-1082
-1092
-1200
-1385
-1594
-1791
-1983
-2168
-2287
-2256
-2080
-1870
-1730
-1653
-1562
-1439
-1376
-1458
-1651
-1862
-2081
-2389
-2801
-3155
-3203
-2851
-2275
-1770
-1476
-1253
-839
-108
808
1640
2193
2475
2630
2783
2941
3044
3041
2933
2747
2525
2333
2255
2307
2393
2350
2095
1712
1380
1192
1086
940
705
441
249
171
172
195
209
226
272
346
386
320
141
-56
-134
-19
215
396
389
246
144
215
401
507
412
198
65
133
332
474
427
206
-63
-240
-269
-190
-104
-97
-177
-273
-300
-220
-82
-5
-88
-329
-593
-702
-607
-444
-409
-535
-652
-582
-350
-155
-150
-284
-397
-425
-440
-513
-604
-627
-576
-532
-552
-590
-574
-491
-398
-329
-268
-213
-221
-332
-492
-584
-569
-558
-666
-848
-910
-706
-320
24
197
263
362
526
669
706
657
590
536
482
446
487
632
812
920
926
911
956
1032
1039
936
822
828
976
1145
1200
1121
1018
990
1013
986
861
721
684
757
831
822
765
773
876
959
899
700
496
408
435
496
534
565
614
670
704
710
708
709
688
616
511
446
499
664
843
919
859
741
655
599
507
357
213
162
207
274
313
346
406
463
455
373
276
231
248
295
351
434
553
683
775
786
715
598
478
377
288
206
155
170
247
340
409
465
531
591
620
616
598
551
419
190
-49
-172
-160
-132
-209
-379
-535
-609
-666
-855
-1253
-1769
-2191
-2312
-2110
-1746
-1410
-1138
-780
-188
602
1409
2095
2644
3072
3335
3393
3328
3287
3295
3219
2925
2480
2102
1918
1833
1675
1405
1135
963
858
719
523
354
279
224
64
-234
-542
-696
-679
-613
-620
-684
-718
-698
-703
-781
-867
-839
-658
-425
-292
-332
-497
-668
-747
-734
-709
-751
-852
-905
-803
-559
-309
-189
-219
-310
-363
-365
-372
-446
-587
-742
-843
-852
-776
-662
-557
-486
-446
-418
-389
-365
-354
-374
-439
-545
-649
-702
-698
-720
-871
-1171
-1500
-1702
-1736
-1710
-1740
-1811
-1803
-1655
-1456
-1319
-1259
-1207
-1144
-1160
-1317
-1537
-1660
-1626
-1537
-1538
-1637
-1704
-1632
-1465
-1338
-1322
-1335
-1247
-1041
-836
-741
-726
-650
-445
-221
-156
-273
-407
-387
-231
-101
-92
-124
-62
106
264
324
329
369
448
488
441
368
349
376
362
265
152
115
161
209
197
154
166
278
452
606
679
660
584
501
444
392
289
115
-64
-148
-103
-1
56
50
52
135
291
447
537
547
514
495
524
579
584
472
281
143
153
242
242
82
-106
-128
48
248
287
171
74
125
281
359
240
-15
-214
-232
-132
-97
-220
-367
-315
-29
266
341
245
231
414
593
502
186
-20
97
360
439
269
114
230
548
786
773
603
463
401
326
164
-66
-301
-532
-795
-1089
-1371
-1617
-1857
-2132
-2383
-2446
-2197
-1725
-1275
-1012
-806
-344
531
1619
2533
3059
3308
3536
3855
4174
4334
4276
4059
3742
3358
2952
2608
2377
2197
1913
1420
777
200
-119
-186
-189
-301
-510
-672
-700
-642
-586
-553
-498
-407
-335
-324
-350
-384
-446
-554
-667
-726
-769
-936
-1275
-1611
-1692
-1451
-1091
-843
-743
-672
-543
-424
-454
-678
-1015
-1330
-1501
-1497
-1390
-1301
-1276
-1231
-1046
-750
-555
-643
-955
-1248
-1351
-1329
-1366
-1551
-1804
-1984
-2054
-2094
-2165
-2246
-2273
-2213
-2117
-2057
-2041
-2012
-1920
-1788
-1708
-1756
-1925
-2131
-2297
-2392
-2441
-2477
-2509
-2514
-2470
-2388
-2301
-2227
-2167
-2127
-2146
-2255
-2416
-2535
-2562
-2547
-2567
-2605
-2559
-2368
-2089
-1850
-1708
-1608
-1486
-1355
-1267
-1232
-1191
-1064
-846
-613
-464
-450
-533
-645
-748
-865
-1035
-1241
-1413
-1492
-1489
-1447
-1358
-1189
-975
-839
-863
-969
-982
-836
-658
-612
-708
-788
-751
-671
-677
-777
-858
-860
-863
-962
-1089
-1048
-753
-357
-103
-63
-84
2
178
269
177
24
27
255
543
675
614
503
488
542
524
385
255
289
475
640
660
633
742
1006
1234
1224
991
742
650
708
788
801
760
735
788
953
1195
1401
1443
1325
1212
1268
1468
1642
1682
1651
1673
1736
1707
1509
1220
976
826
724
650
644
723
818
853
857
922
1024
995
712
277
-64
-207
-318
-623
-1129
-1617
-1945
-2225
-2643
-3146
-3452
-3386
-3090
-2810
-2566
-2133
-1359
-364
608
1463
2258
2987
3507
3716
3728
3753
3834
3825
3602
3252
2986
2906
2925
2884
2699
2375
1969
1559
1222
992
820
611
324
25
-175
-228
-214
-249
-364
-476
-485
-399
-328
-346
-388
-321
-118
89
154
88
28
33
1
-169
-374
-388
-152
108
111
-142
-381
-414
-340
-375
-551
-670
-584
-400
-329
-416
-480
-399
-281
-330
-587
-853
-911
-750
-563
-527
-622
-683
-587
-378
-242
-339
-649
-1001
-1266
-1473
-1717
-2020
-2274
-2377
-2341
-2240
-2112
-1946
-1764
-1640
-1602
-1577
-1486
-1356
-1285
-1316
-1381
-1415
-1415
-1419
-1426
-1405
-1371
-1383
-1459
-1523
-1473
-1312
-1113
-921
-705
-429
-126
98
180
167
148
169
197
168
75
15
92
323
588
734
720
643
630
713
825
878
855
792
749
762
817
876
906
929
993
1108
1217
1252
1230
1234
1316
1409
1403
1274
1121
1048
1056
1077
1078
1108
1208
1341
1430
1482
1579
1758
1934
1977
1874
1752
1745
1843
1926
1908
1839
1809
1837
1872
1873
1862
1889
1958
2017
2004
1910
1798
1766
1856
2006
2076
1969
1733
1527
1470
1524
1558
1497
1390
1330
1351
1417
1492
1562
1622
1640
1588
1496
1439
1462
1524
1542
1470
1352
1277
1281
1299
1243
1100
959
913
956
973
893
782
751
807
808
633
315
-18
-341
-767
-1342
-1876
-2054
-1784
-1329
-1031
-917
-675
-31
910
1782
2347
2690
3031
3408
3671
3718
3633
3552
3471
3274
2930
2602
2482
2574
2665
2564
2288
2003
1821
1669
1420
1049
664
376
185
26
-121
-187
-107
79
255
324
286
209
142
83
3
-101
-187
-215
-175
-108
-69
-95
-181
-282
-350
-365
-351
-345
-363
-399
-438
-468
-475
-455
-432
-450
-521
-603
-634
-600
-565
-604
-709
-791
-782
-714
-677
-713
-761
-742
-654
-580
-609
-751
-924
-1055
-1131
-1193
-1288
-1416
-1520
-1527
-1421
-1268
-1156
-1119
-1114
-1076
-994
-912
-878
-896
-919
-901
-846
-806
-842
-947
-1022
-993
-908
-897
-1008
-1086
-906
-459
-16
164
165
331
812
1304
1352
863
221
-120
-82
29
-62
-328
-538
-526
-304
1
267
454
588
732
901
1054
1140
1158
1114
995
798
572
447
503
680
842
921
972
1054
1148
1183
1137
1033
873
621
296
26
-55
33
123
133
181
416
773
977
855
563
425
520
578
312
-170
-477
-370
-13
262
349
413
590
785
828
700
536
399
190
-169
-559
-753
-652
-374
-118
31
163
376
636
782
700
442
180
42
-2
-55
-116
-62
158
409
505
412
267
204
190
107
-66
-218
-235
-118
42
162
234
296
399
563
755
892
898
764
554
353
237
217
196
-12
-515
-1165
-1622
-1672
-1473
-1395
-1577
-1744
-1517
-859
-119
371
610
808
1049
1230
1270
1273
1389
1602
1731
1653
1455
1316
1296
1261
1036
567
-29
-568
-932
-1117
-1172
-1138
-1055
-974
-954
-999
-1046
-1028
-977
-1006
-1172
-1383
-1475
-1374
-1179
-1055
-1072
-1148
-1147
-1013
-814
-664
-604
-582
-513
-361
-165
2
96
133
144
128
69
-32
-126
-122
26
256
423
434
328
237
266
391
517
574
573
554
539
542
579
624
584
372
34
-259
-367
-314
-239
-213
-160
9
260
450
487
416
334
276
221
149
83
54
81
198
451
801
1090
1144
961
742
685
785
859
770
615
607
808
1079
1260
1337
1404
1499
1554
1517
1425
1368
1371
1405
1471
1595
1758
1864
1860
1834
1917
2084
2166
2064
1889
1857
2034
2272
2397
2405
2413
2476
2513
2447
2310
2197
2149
2111
2019
1896
1812
1795
1830
1886
1915
1896
1842
1811
1873
2023
2162
2190
2119
2065
2114
2228
2298
2287
2255
2235
2177
2030
1844
1738
1744
1745
1612
1381
1237
1312
1529
1709
1771
1802
1915
2096
2202
2126
1900
1652
1469
1348
1222
1067
952
952
1068
1210
1277
1274
1295
1405
1546
1592
1485
1319
1248
1316
1414
1412
1298
1185
1187
1299
1411
1423
1336
1240
1218
1261
1273
1173
980
808
723
698
659
584
538
567
632
628
489
199
-245
-800
-1330
-1632
-1574
-1252
-904
-661
-431
-22
634
1423
2177
2818
3339
3718
3929
4032
4171
4401
4565
4412
3909
3329
3010
3013
3052
2817
2309
1797
1502
1374
1204
907
586
367
246
137
7
-79
-60
35
103
81
-23
-150
-225
-194
-67
73
132
104
83
161
290
298
64
-342
-689
-803
-703
-556
-505
-558
-611
-591
-525
-495
-552
-664
-776
-860
-932
-1017
-1082
-1061
-936
-791
-753
-848
-951
-916
-752
-650
-784
-1117
-1424
-1551
-1568
-1664
-1904
-2141
-2183
-2028
-1852
-1803
-1840
-1817
-1682
-1523
-1416
-1312
-1111
-821
-571
-460
-440
-413
-400
-529
-835
-1162
-1308
-1241
-1123
-1098
-1116
-1017
-730
-352
-48
121
225
335
459
571
695
878
1116
1311
1363
1286
1195
1164
1133
980
680
365
191
189
248
272
274
325
445
569
629
629
627
669
737
779
765
721
701
723
741
709
630
552
507
479
447
443
518
639
693
613
486
461
555
593
408
65
-178
-135
107
317
383
404
521
719
852
828
705
598
545
490
395
294
250
281
356
422
439
405
351
333
388
485
555
557
528
528
571
598
560
457
341
259
223
216
229
278
401
606
845
1017
1034
892
668
463
321
225
161
153
225
357
484
545
528
449
303
82
-194
-455
-626
-690
-690
-674
-669
-728
-940
-1334
-1773
-2004
-1880
-1530
-1237
-1123
-987
-493
471
1669
2706
3329
3554
3574
3595
3715
3891
3966
3807
3442
3060
2842
2784
2701
2404
1889
1324
896
679
622
631
630
585
497
402
337
303
267
202
129
88
98
136
167
208
283
352
317
102
-251
-618
-925
-1185
-1396
-1454
-1252
-845
-452
-285
-370
-543
-663
-761
-964
-1310
-1672
-1845
-1711
-1310
-801
-356
-91
-39
-169
-389
-582
-717
-885
-1186
-1543
-1686
-1453
-998
-670
-632
-675
-537
-291
-260
-595
-1053
-1286
-1249
-1194
-1305
-1474
-1474
-1266
-994
-750
-509
-257
-94
-130
-345
-629
-909
-1190
-1455
-1625
-1640
-1553
-1488
-1477
-1459
-1390
-1313
-1298
-1342
-1395
-1430
-1442
-1406
-1272
-1024
-730
-497
-362
-264
-135
25
167
273
360
466
595
717
792
806
786
741
631
394
43
-286
-449
-448
-453
-606
-826
-877
-658
-344
-187
-220
-231
-48
233
391
347
233
197
241
311
427
627
831
880
718
488
387
418
400
199
-92
-244
-145
97
287
337
295
247
215
166
88
20
7
46
116
216
359
521
618
580
419
236
122
77
32
-69
-207
-318
-344
-265
-94
111
254
271
211
220
392
656
850
907
911
947
971
895
759
738
913
1116
1105
890
760
929
1270
1433
1255
950
851
1025
1205
1119
805
521
431
390
104
-518
-1194
-1488
-1218
-643
-209
-73
69
633
1659
2731
3395
3599
3654
3802
3969
3941
3696
3444
3350
3322
3165
2852
2570
2468
2443
2255
1796
1222
794
610
537
401
175
-19
-65
25
120
94
-56
-234
-351
-425
-558
-817
-1131
-1347
-1377
-1269
-1147
-1076
-1028
-946
-834
-762
-788
-891
-953
-891
-739
-628
-677
-869
-1053
-1084
-967
-825
-776
-845
-984
-1103
-1119
-1002
-827
-748
-845
-1023
-1091
-995
-877
-917
-1110
-1289
-1349
-1334
-1335
-1342
-1285
-1176
-1100
-1104
-1113
-1052
-978
-1024
-1215
-1430
-1532
-1505
-1450
-1454
-1485
-1449
-1301
-1095
-923
-842
-853
-913
-961
-973
-960
-939
-908
-856
-799
-780
-789
-733
-516
-177
84
121
11
-16
172
450
585
505
350
275
283
286
283
357
514
631
613
521
508
630
776
812
731
619
537
482
441
422
446
512
576
589
522
412
356
418
550
613
516
330
217
226
253
200
124
163
336
484
456
307
251
415
685
817
706
488
379
470
665
815
862
856
836
779
662
518
425
432
464
400
226
85
152
446
790
968
918
768
691
722
756
695
579
527
606
756
878
942
987
1036
1053
1005
914
812
696
569
483
520
660
759
707
567
528
662
802
745
512
345
413
582
556
226
-205
-475
-593
-826
-1329
-1891
-2101
-1808
-1249
-783
-505
-210
311
1012
1682
2185
2521
2717
2788
2800
2898
3146
3382
3351
3009
2613
2428
2432
2385
2158
1867
1669
1557
1410
1229
1144
1184
1180
942
534
217
158
244
241
100
-13
46
204
246
70
-190
-337
-332
-300
-363
-503
-610
-637
-650
-716
-806
-828
-770
-721
-747
-805
-785
-653
-496
-417
-422
-450
-490
-583
-738
-875
-914
-871
-847
-907
-989
-987
-886
-778
-775
-887
-1035
-1151
-1220
-1263
-1295
-1320
-1351
-1410
-1486
-1526
-1496
-1451
-1491
-1657
-1867
-1991
-1961
-1854
-1801
-1839
-1884
-1831
-1670
-1486
-1360
-1289
-1216
-1105
-987
-903
-843
-768
-678
-628
-673
-779
-835
-778
-668
-628
-684
-709
-545
-209
93
180
87
26
142
338
408
277
87
19
90
189
245
315
465
636
717
703
707
803
897
863
724
647
736
874
860
658
445
398
483
522
412
239
160
213
302
334
333
366
432
462
429
396
437
523
523
363
123
-40
-39
67
170
223
253
298
400
609
935
1253
1347
1112
692
377
322
412
397
155
-186
-363
-201
251
739
975
867
578
397
433
481
276
-164
-494
-411
-13
323
409
445
707
1134
1362
1175
783
559
607
703
655
568
681
1006
1273
1202
800
307
-54
-264
-476
-813
-1235
-1577
-1726
-1734
-1763
-1853
-1854
-1602
-1154
-780
-673
-713
-606
-220
312
784
1150
1489
1820
2079
2249
2422
2671
2913
2977
2785
2446
2124
1871
1622
1308
912
470
47
-277
-419
-387
-313
-371
-588
-807
-851
-735
-656
-740
-861
-794
-533
-370
-580
-1063
-1421
-1396
-1138
-1015
-1176
-1406
-1417
-1201
-1005
-1001
-1079
-1024
-808
-627
-640
-783
-873
-855
-842
-927
-1050
-1099
-1112
-1239
-1488
-1649
-1503
-1105
-757
-681
-825
-982
-1045
-1099
-1277
-1607
-2016
-2422
-2767
-2995
-3073
-3029
-2944
-2864
-2751
-2567
-2369
-2284
-2372
-2558
-2733
-2859
-2976
-3116
-3239
-3250
-3092
-2806
-2502
-2261
-2082
-1889
-1624
-1319
-1049
-867
-784
-789
-859
-922
-854
-577
-177
151
279
255
217
234
248
179
25
-132
-202
-112
164
563
912
1036
932
795
823
1005
1137
1080
931
886
1009
1204
1351
1418
1414
1309
1095
889
867
1053
1263
1296
1200
1231
1544
1973
2204
2096
1800
1564
1466
1411
1300
1136
977
845
729
640
612
665
774
883
955
983
988
1013
1079
1151
1160
1068
866
583
270
17
-57
90
364
592
702
799
1031
1370
1623
1627
1445
1275
1207
1137
941
675
527
583
720
760
695
680
808
966
976
797
558
412
372
367
371
405
460
483
448
371
261
57
-291
-730
-1141
-1467
-1760
-2069
-2317
-2406
-2349
-2277
-2317
-2499
-2780
-3095
-3349
-3424
-3281
-3039
-2872
-2796
-2612
-2118
-1354
-587
-61
208
365
536
719
834
829
707
509
274
44
-156
-306
-403
-463
-530
-664
-892
-1169
-1398
-1518
-1563
-1666
-1936
-2348
-2736
-2905
-2800
-2548
-2337
-2252
-2224
-2178
-2134
-2176
-2326
-2498
-2609
-2667
-2749
-2873
-2966
-2947
-2831
-2720
-2702
-2754
-2771
-2654
-2421
-2188
-2090
-2153
-2280
-2356
-2364
-2389
-2498
-2667
-2818
-2930
-3043
-3164
-3218
-3143
-2983
-2844
-2766
-2672
-2482
-2232
-2050
-2002
-2037
-2076
-2123
-2238
-2434
-2634
-2773
-2869
-2975
-3073
-3093
-3006
-2876
-2780
-2732
-2690
-2641
-2623
-2675
-2786
-2912
-3026
-3104
-3127
-3089
-2995
-2852
-2648
-2364
-2041
-1772
-1591
-1451
-1297
-1175
-1183
-1350
-1565
-1694
-1697
-1616
-1471
-1236
-901
-536
-230
-6
186
386
565
649
594
419
217
114
176
325
405
343
250
307
560
845
974
940
903
974
1084
1075
896
678
580
612
656
603
481
421
507
686
818
825
762
744
808
886
891
814
725
687
702
730
744
747
736
682
576
447
345
285
233
155
56
-27
-53
-11
76
167
198
127
-21
-148
-174
-126
-121
-244
-441
-576
-591
-562
-591
-673
-722
-689
-632
-626
-649
-615
-497
-378
-345
-378
-387
-345
-320
-371
-449
-447
-338
-216
-186
-231
-243
-166
-85
-115
-245
-349
-350
-330
-429
-671
-939
-1167
-1446
-1882
-2370
-2613
-2411
-1885
-1342
-927
-494
160
1014
1828
2402
2740
2960
3104
3161
3160
3197
3297
3348
3218
2925
2626
2438
2322
2147
1845
1467
1104
799
532
283
71
-52
-66
-27
-37
-155
-331
-454
-466
-443
-519
-740
-1020
-1248
-1386
-1456
-1452
-1333
-1123
-945
-909
-991
-1055
-1025
-965
-940
-904
-765
-556
-439
-509
-659
-726
-714
-801
-1103
-1491
-1713
-1653
-1432
-1219
-1067
-936
-840
-856
-1016
-1245
-1454
-1632
-1820
-1993
-2051
-1956
-1786
-1658
-1623
-1645
-1683
-1722
-1735
-1675
-1568
-1516
-1583
-1690
-1695
-1585
-1506
-1591
-1786
-1963
-2121
-2361
-2669
-2813
-2603
-2184
-1965
-2146
-2453
-2430
-1983
-1516
-1480
-1871
-2259
-2254
-1883
-1463
-1177
-913
-514
-46
225
133
-158
-351
-353
-351
-562
-939
-1205
-1140
-788
-386
-104
31
46
-42
-208
-374
-429
-333
-168
-62
-78
