-77
-152
-158
-137
-131
-138
-145
-172
-238
-335
-427
-464
-418
-309
-260
-409
-761
-1100
-1158
-926
-705
-787
-1094
-1244
-981
-449
5
221
322
450
575
591
513
462
461
399
206
-25
-123
-41
105
211
265
277
240
161
109
140
200
174
41
-61
-18
114
157
28
-155
-236
-193
-135
-134
-152
-142
-141
-202
-284
-286
-191
-110
-137
-210
-166
68
396
663
812
907
1028
1179
1281
1250
1071
834
669
644
689
676
550
406
378
484
612
639
535
385
283
258
281
301
291
281
298
317
288
178
21
-101
-125
-80
-83
-225
-464
-643
-639
-510
-433
-506
-629
-617
-460
-339
-389
-486
-363
55
518
740
719
698
852
1069
1094
832
432
97
-102
-229
-356
-464
-493
-440
-360
-313
-317
-332
-309
-265
-287
-423
-611
-744
-773
-727
-664
-604
-562
-541
-523
-472
-425
-524
-883
-1401
-1783
-1814
-1577
-1344
-1241
-1107
-721
-99
505
861
950
889
739
474
97
-297
-585
-705
-708
-672
-634
-584
-498
-376
-267
-249
-368
-565
-728
-774
-709
-594
-480
-382
-304
-261
-266
-308
-353
-371
-345
-288
-234
-222
-250
-263
-229
-186
-204
-284
-331
-280
-204
-247
-452
-684
-805
-818
-824
-831
-720
-403
45
470
828
1192
1577
1857
1907
1749
1532
1339
1132
873
632
517
538
600
649
721
862
1013
1065
982
839
722
651
597
543
505
501
518
527
504
441
362
301
284
292
289
284
326
439
566
628
583
470
336
177
-37
-292
-508
-586
-460
-156
205
477
617
748
1051
1537
1983
2114
1904
1615
1529
1672
1836
1829
1659
1467
1355
1299
1239
1148
1042
932
813
679
545
442
390
409
487
558
547
444
327
301
402
546
594
488
307
187
201
297
370
382
399
496
645
733
696
590
509
442
259
-135
-626
-967
-1001
-792
-520
-269
35
485
1032
1510
1782
1838
1754
1592
1363
1094
859
715
648
600
538
490
506
558
544
420
245
137
134
164
176
208
319
468
538
486
395
322
162
-239
-844
-1368
-1550
-1421
-1234
-1146
-1048
-743
-214
339
708
852
846
736
519
199
-175
-532
-794
-872
-675
-198
391
869
1119
1194
1183
1063
723
128
-579
-1175
-1508
-1570
-1439
-1183
-832
-425
-32
263
408
402
300
156
-15
-231
-481
-684
-739
-611
-343
17
465
992
1507
1888
2120
2339
2651
2927
2857
2281
1409
646
192
-125
-574
-1147
-1553
-1553
-1218
-785
-357
144
753
1299
1585
1648
1699
1829
1886
1718
1439
1373
1682
2189
2606
2861
3102
3407
3584
3339
2598
1596
624
-218
-999
-1752
-2359
-2647
-2572
-2256
-1845
-1403
-963
-595
-399
-389
-445
-444
-383
-365
-424
-452
-345
-160
-90
-232
-453
-526
-400
-262
-310
-525
-696
-671
-518
-429
-512
-703
-867
-941
-946
-936
-943
-977
-1038
-1085
-1062
-960
-829
-711
-590
-417
-222
-119
-188
-369
-508
-519
-471
-466
-513
-521
-398
-147
148
397
542
571
534
535
645
819
934
921
858
872
989
1106
1115
1035
980
1010
1081
1118
1116
1125
1166
1208
1189
1090
933
749
559
363
174
35
-14
32
135
236
300
356
427
490
502
475
478
553
648
671
625
610
699
851
960
991
1007
1059
1133
1211
1339
1578
1896
2164
2280
2258
2172
2028
1756
1307
740
187
-245
-509
-602
-512
-242
155
571
922
1233
1577
1967
2286
2391
2279
2123
2103
2209
2265
2155
1986
1965
2153
2411
2575
2641
2728
2908
3137
3332
3460
3529
3536
3480
3397
3338
3309
3255
3144
3000
2881
2801
2718
2591
2413
2194
1952
1720
1531
1405
1328
1280
1257
1261
1271
1247
1170
1046
876
627
284
-97
-422
-652
-838
-1033
-1199
-1243
-1149
-1025
-989
-1051
-1119
-1151
-1207
-1359
-1580
-1752
-1798
-1761
-1728
-1738
-1756
-1764
-1785
-1844
-1931
-1998
-2023
-2024
-2026
-2024
-1990
-1902
-1778
-1668
-1637
-1714
-1851
-1949
-1940
-1866
-1837
-1915
-2055
-2146
-2126
-2027
-1920
-1855
-1832
-1832
-1824
-1783
-1715
-1671
-1688
-1747
-1774
-1724
-1622
-1528
-1460
-1370
-1237
-1104
-1030
-1005
-958
-852
-736
-682
-686
-661
-545
-369
-210
-117
-71
-37
-1
42
86
122
131
117
131
221
367
485
524
537
596
688
727
678
615
638
737
811
807
795
855
958
994
923
836
828
879
900
861
841
909
1034
1144
1216
1292
1400
1499
1546
1539
1512
1486
1460
1433
1426
1435
1437
1422
1420
1473
1591
1745
1909
2044
2100
2051
1945
1889
1943
2043
2072
1983
1857
1813
1880
1983
2023
1962
1830
1685
1563
1469
1374
1279
1216
1213
1255
1302
1341
1413
1541
1664
1701
1658
1638
1721
1867
1966
1985
1996
2069
2170
2218
2207
2209
2250
2272
2229
2173
2200
2321
2443
2493
2508
2548
2604
2597
2503
2369
2241
2084
1844
1563
1359
1283
1262
1187
1042
899
809
736
608
404
165
-68
-286
-490
-678
-829
-923
-967
-995
-1051
-1149
-1258
-1313
-1282
-1222
-1218
-1289
-1347
-1293
-1142
-1014
-1014
-1111
-1176
-1136
-1038
-993
-1043
-1109
-1085
-948
-776
-657
-595
-519
-367
-174
-46
-61
-193
-343
-427
-453
-467
-482
-460
-363
-218
-86
11
111
256
422
534
547
487
429
426
478
544
572
527
423
333
318
351
343
246
127
104
208
349
426
444
479
567
654
678
650
628
643
687
749
823
893
920
889
843
831
842
830
790
786
861
960
996
965
964
1059
1192
1234
1147
1030
996
1056
1114
1098
1047
1045
1117
1201
1234
1217
1200
1204
1191
1142
1080
1051
1052
1040
989
929
910
917
894
808
700
641
648
663
630
548
463
405
363
308
227
131
42
-11
-6
53
130
170
151
116
116
153
172
122
17
-74
-106
-93
-91
-122
-163
-183
-182
-186
-199
-204
-177
-126
-79
-53
-33
-2
41
76
95
110
139
179
215
235
247
277
346
456
588
700
740
688
596
537
540
542
464
321
213
224
326
424
476
528
624
736
808
827
846
888
904
840
710
603
565
556
512
430
360
326
285
195
95
82
236
529
818
950
867
642
413
251
92
-188
-592
-934
-979
-653
-98
478
958
1303
1455
1317
876
274
-310
-831
-1411
-2125
-2807
-3118
-2886
-2207
-1531
-1120
-989
-1019
-1190
-1598
-2252
-2979
-3538
-3837
-3961
-3974
-3762
-3161
-2223
-1257
-567
-180
146
632
1257
1814
2121
2159
2025
1847
1726
1753
1964
2287
2563
2684
2690
2714
2830
2965
2978
2800
2505
2224
2042
1961
1978
2106
2338
2601
2794
2909
3038
3253
3481
3551
3359
2999
2679
2515
2459
2389
2240
1988
1579
965
216
-413
-683
-589
-374
-263
-252
-178
58
360
580
667
675
641
549
407
288
228
150
-65
-446
-896
-1319
-1743
-2252
-2846
-3432
-3918
-4309
-4644
-4898
-4991
-4889
-4660
-4419
-4247
-4154
-4088
-3988
-3803
-3539
-3241
-2963
-2711
-2449
-2160
-1848
-1509
-1123
-731
-464
-447
-654
-918
-1104
-1250
-1469
-1775
-2069
-2296
-2530
-2880
-3340
-3780
-4106
-4359
-4622
-4885
-5043
-5018
-4851
-4656
-4540
-4536
-4614
-4687
-4655
-4457
-4101
-3636
-3082
-2413
-1592
-614
482
1617
2666
3477
3960
4171
4275
4389
4485
4449
4251
4011
3880
3884
3935
3974
4029
4137
4254
4279
4189
4083
4050
4048
3933
3623
3192
2782
2471
2240
2066
1965
1978
2091
2242
2385
2505
2586
2577
2423
2137
1794
1474
1182
882
567
317
225
281
351
311
171
51
30
51
-8
-183
-385
-510
-546
-553
-575
-597
-596
-583
-576
-559
-500
-381
-230
-90
16
79
108
142
217
326
401
391
325
289
348
468
578
646
700
787
912
1057
1203
1320
1374
1353
1306
1289
1309
1316
1263
1185
1167
1267
1462
1672
1836
1945
2025
2097
2153
2166
2110
1988
1814
1626
1467
1378
1385
1463
1553
1589
1575
1568
1620
1713
1763
1710
1569
1407
1285
1227
1227
1257
1292
1311
1314
1324
1361
1421
1448
1382
1221
1036
908
854
813
710
554
408
306
216
111
28
17
41
-11
-175
-317
-292
-159
-163
-438
-819
-1020
-966
-844
-841
-921
-959
-988
-1148
-1424
-1568
-1407
-1127
-1087
-1345
-1513
-1188
-419
330
683
708
744
965
1222
1273
1065
742
451
221
13
-174
-293
-331
-327
-325
-336
-350
-363
-360
-297
-152
34
155
126
-13
-125
-104
30
145
145
95
134
294
462
508
452
415
432
393
217
1
-88
-69
-153
-457
-789
-823
-487
-61
172
249
417
775
1145
1297
1208
1018
833
660
493
388
383
443
519
628
809
1037
1224
1325
1380
1418
1413
1338
1239
1200
1252
1334
1371
1327
1212
1044
849
663
488
307
107
-68
-144
-86
61
205
308
392
480
538
517
416
289
169
27
-176
-425
-642
-760
-788
-782
-782
-783
-777
-781
-820
-891
-966
-1017
-1048
-1086
-1143
-1201
-1231
-1218
-1165
-1098
-1047
-1027
-1028
-1027
-1001
-931
-807
-644
-488
-386
-347
-318
-263
-214
-249
-392
-568
-688
-746
-800
-866
-902
-891
-905
-1026
-1206
-1289
-1175
-947
-765
-661
-522
-247
114
422
608
698
702
543
180
-258
-537
-545
-402
-292
-246
-111
239
724
1123
1302
1330
1334
1333
1244
1041
840
759
767
716
551
392
363
379
201
-271
-832
-1161
-1142
-950
-806
-702
-436
97
758
1294
1588
1714
1781
1790
1696
1553
1506
1619
1776
1808
1724
1721
1937
2288
2547
2649
2788
3178
3752
4203
4313
4149
3922
3691
3295
2577
1577
498
-464
-1214
-1727
-1988
-2034
-1962
-1847
-1691
-1454
-1153
-864
-649
-502
-372
-256
-164
-75
27
121
163
183
285
499
711
773
724
760
962
1132
993
555
108
-172
-446
-1017
-1888
-2755
-3372
-3835
-4362
-4928
-5279
-5271
-5052
-4813
-4521
-4026
-3400
-2926
-2738
-2656
-2456
-2247
-2358
-2816
-3207
-3135
-2728
-2490
-2649
-2875
-2704
-2108
-1508
-1255
-1270
-1237
-1013
-723
-480
-281
-88
17
-29
-121
-45
257
601
782
807
859
1061
1343
1559
1672
1769
1907
2046
2132
2165
2204
2309
2487
2687
2835
2892
2896
2949
3112
3317
3418
3352
3209
3130
3159
3250
3357
3505
3746
4040
4260
4306
4149
3821
3351
2750
2047
1309
636
122
-184
-301
-277
-134
158
605
1107
1512
1727
1829
2003
2366
2893
3457
3904
4131
4121
3964
3775
3576
3261
2716
2012
1395
1106
1164
1436
1792
2165
2489
2650
2578
2354
2136
1991
1817
1513
1114
768
595
589
692
846
1007
1100
1082
1013
997
1059
1111
1076
1013
1034
1124
1124
925
638
507
660
953
1136
1114
1039
1108
1336
1560
1618
1509
1341
1189
1055
919
801
729
700
680
654
641
655
688
707
693
637
536
406
291
228
215
207
169
111
62
28
-25
-111
-204
-268
-290
-294
-304
-323
-338
-337
-316
-280
-229
-170
-125
-114
-137
-175
-204
-215
-224
-247
-271
-264
-219
-178
-191
-240
-239
-141
-14
4
-145
-364
-474
-398
-241
-177
-269
-406
-419
-260
-34
93
61
-51
-125
-111
-72
-101
-221
-369
-460
-480
-488
-544
-627
-677
-666
-653
-704
-813
-903
-915
-880
-872
-911
-949
-942
-915
-920
-976
-1043
-1071
-1052
-1020
-997
-954
-860
-735
-629
-590
-607
-623
-594
-525
-453
-414
-408
-413
-399
-339
-239
-157
-176
-318
-502
-603
-571
-479
-423
-365
-154
287
819
1174
1196
966
661
336
-117
-780
-1519
-2036
-2123
-1832
-1401
-1008
-640
-189
347
810
1031
992
823
651
495
317
130
23
39
115
150
124
105
128
130
38
-123
-244
-271
-287
-407
-614
-777
-825
-847
-965
-1148
-1225
-1074
-766
-463
-222
29
353
678
879
941
974
1078
1238
1357
1386
1364
1366
1411
1478
1558
1642
1707
1717
1659
1566
1483
1426
1365
1256
1089
897
737
653
635
623
563
468
417
442
481
438
283
89
-65
-182
-316
-471
-572
-558
-439
-266
-61
182
456
738
1022
1324
1631
1865
1961
1957
1960
2028
2091
2044
1883
1706
1605
1590
1612
1629
1623
1584
1522
1481
1492
1522
1472
1293
1056
886
831
810
735
628
579
608
631
564
436
344
306
241
83
-111
-210
-182
-124
-148
-237
-279
-209
-79
18
62
100
152
179
144
88
77
121
161
155
136
175
289
419
508
571
664
794
910
957
946
945
995
1054
1052
974
891
895
983
1066
1061
998
982
1078
1231
1336
1350
1324
1325
1352
1360
1335
1304
1298
1305
1301
1290
1299
1338
1378
1384
1355
1321
1314
1328
1329
1286
1205
1128
1099
1115
1129
1116
1108
1159
1281
1412
1480
1484
1481
1506
1539
1538
1513
1497
1489
1463
1415
1374
1365
1365
1351
1351
1396
1460
1443
1299
1109
1002
1002
1013
958
891
933
1128
1395
1630
1821
2001
2158
2226
2179
2067
1952
1830
1653
1423
1209
1079
1027
1003
980
969
964
922
805
648
526
458
389
283
179
143
164
141
25
-84
-56
74
110
-78
-371
-526
-460
-358
-452
-740
-999
-1035
-871
-689
-615
-643
-691
-692
-630
-534
-462
-466
-529
-572
-537
-447
-395
-420
-470
-480
-455
-445
-456
-433
-330
-178
-59
-26
-58
-101
-122
-105
-29
126
341
533
622
618
599
595
526
280
-144
-585
-865
-918
-792
-539
-149
371
940
1417
1688
1725
1568
1286
963
663
407
217
172
405
984
1812
2664
3365
3900
4363
4809
5193
5407
5364
5035
4462
3768
3105
2558
2108
1697
1351
1155
1157
1297
1476
1667
1887
2141
2317
2317
2179
2043
2006
2026
1974
1799
1560
1328
1110
889
631
260
-280
-934
-1494
-1748
-1716
-1621
-1604
-1537
-1183
-537
84
376
370
343
463
606
536
208
-185
-388
-276
119
645
1130
1411
1412
1157
704
66
-763
-1754
-2820
-3860
-4768
-5430
-5761
-5796
-5755
-5854
-6112
-6381
-6557
-6714
-6990
-7375
-7711
-7905
-8012
-8117
-8215
-8232
-8162
-8086
-8037
-7947
-7734
-7394
-6944
-6351
-5612
-4866
-4323
-4035
-3804
-3432
-2963
-2588
-2315
-1854
-940
308
1475
2303
2940
3702
4648
5512
6017
6184
6282
6538
6940
7354
7706
8031
8360
8654
8835
8865
8772
8582
8286
7863
7351
6846
6428
6109
5847
5618
5448
5370
5350
5298
5150
4927
4700
4479
4176
3687
3041
2422
1997
1750
1515
1179
812
549
404
258
13
-281
-496
-586
-612
-592
-423
-13
573
1113
1429
1497
1367
1059
556
-112
-853
-1581
-2255
-2794
-3051
-2933
-2534
-2080
-1731
-1463
-1185
-898
-717
-690
-739
-759
-726
-691
-660
-573
-383
-140
44
101
48
-38
-87
-83
-48
-16
11
50
92
94
18
-106
-200
-234
-262
-331
-402
-379
-255
-140
-147
-271
-405
-469
-490
-527
-611
-726
-832
-882
-828
-662
-448
-274
-167
-57
113
301
401
349
193
42
-29
-28
-7
-22
-56
-48
53
225
395
517
605
678
705
662
619
672
765
697
342
-121
-370
-293
-122
-132
-291
-300
25
543
972
1191
1271
1269
1124
784
359
49
-80
-140
-238
-317
-198
189
694
1058
1144
1041
902
774
576
255
-123
-432
-626
-709
-673
-517
-363
-446
-865
-1415
-1765
-1818
-1811
-2001
-2325
-2467
-2220
-1672
-1046
-493
-68
148
91
-142
-319
-300
-202
-254
-511
-770
-782
-514
-140
153
281
253
109
-90
-247
-302
-301
-335
-414
-435
-324
-179
-202
-444
-722
-826
-771
-779
-970
-1191
-1190
-927
-592
-374
-262
-137
29
162
241
363
608
909
1127
1249
1407
1692
1999
2145
2074
1922
1856
1885
1881
1759
1579
1464
1454
1478
1451
1369
1283
1215
1141
1039
933
857
821
806
789
758
695
600
495
416
365
308
226
152
124
118
56
-94
-274
-385
-418
-448
-526
-610
-611
-500
-346
-240
-202
-193
-187
-202
-272
-390
-517
-642
-782
-944
-1086
-1144
-1118
-1072
-1077
-1137
-1193
-1193
-1152
-1128
-1161
-1243
-1347
-1447
-1520
-1541
-1524
-1526
-1602
-1739
-1849
-1858
-1790
-1738
-1765
-1835
-1879
-1876
-1877
-1917
-1963
-1945
-1866
-1815
-1869
-2005
-2105
-2082
-1971
-1864
-1804
-1745
-1610
-1368
-1053
-726
-458
-289
-207
-151
-61
63
165
216
266
407
672
982
1229
1378
1465
1519
1530
1489
1430
1405
1428
1483
1583
1797
2177
2644
3032
3214
3194
3080
2943
2776
2528
2169
1721
1256
879
695
719
833
871
773
678
781
1130
1592
1993
2276
2516
2770
3013
3190
3275
3291
3285
3304
3387
3520
3637
3697
3742
3826
3920
3895
3699
3489
3494
3769
4131
4366
4415
4342
4174
3887
3518
3182
2918
2598
2083
1435
881
540
259
-199
-877
-1604
-2198
-2631
-2982
-3259
-3384
-3299
-3053
-2768
-2547
-2442
-2477
-2672
-3029
-3509
-4001
-4361
-4487
-4383
-4138
-3840
-3508
-3130
-2765
-2526
-2432
-2347
-2125
-1764
-1403
-1142
-981
-905
-985
-1282
-1712
-2103
-2423
-2842
-3447
-3993
-4063
-3517
-2663
-1909
-1333
-671
271
1328
2145
2552
2658
2659
2644
2614
2590
2610
2680
2782
2908
3078
3271
3430
3522
3606
3733
3870
3907
3793
3582
3412
3374
3433
3465
3381
3202
3028
2941
2912
2869
2794
2741
2755
2805
2836
2867
2977
3189
3443
3642
3746
3756
3651
3394
3017
2663
2471
2437
2433
2351
2233
2237
2516
3060
3700
4193
4384
4303
4141
4094
4192
4260
4091
3643
3117
2829
2941
3324
3660
3704
3463
3146
2923
2767
2516
2068
1499
969
573
320
203
238
418
683
939
1130
1238
1264
1208
1096
1006
993
1013
984
904
872
979
1168
1282
1229
1066
911
835
848
940
1078
1167
1108
923
785
850
1082
1272
1276
1193
1237
1479
1746
1818
1670
1478
1415
1464
1458
1295
1058
908
899
949
943
849
702
546
402
278
182
76
-103
-337
-494
-436
-187
57
147
139
210
426
649
713
616
507
479
481
419
312
237
200
141
36
-39
13
162
268
251
170
127
147
167
152
133
144
164
156
134
140
176
180
96
-37
-123
-107
-2
150
318
494
645
757
845
939
1021
1017
858
596
380
306
325
301
162
-20
-124
-120
-94
-132
-229
-320
-379
-440
-508
-525
-454
-354
-333
-419
-516
-537
-502
-494
-535
-575
-583
-601
-678
-785
-858
-883
-888
-866
-785
-662
-604
-681
-824
-886
-818
-719
-701
-731
-672
-441
-97
234
469
595
637
614
518
334
41
-311
-594
-705
-662
-575
-517
-440
-261
-2
233
377
439
430
305
32
-324
-627
-805
-929
-1126
-1433
-1743
-1887
-1775
-1451
-1056
-738
-592
-655
-927
-1344
-1761
-2042
-2160
-2226
-2335
-2409
-2238
-1699
-927
-229
162
251
194
103
-45
-323
-717
-1111
-1375
-1467
-1434
-1334
-1160
-866
-443
31
438
732
971
1238
1563
1891
2146
2290
2318
2250
2112
1921
1690
1422
1139
871
650
470
292
80
-166
-399
-572
-666
-721
-787
-865
-933
-971
-1021
-1157
-1393
-1650
-1838
-1927
-1950
-1938
-1866
-1699
-1454
-1189
-953
-724
-451
-131
177
385
449
402
329
295
313
337
326
277
239
278
421
629
821
934
967
977
1001
1013
948
786
602
483
441
425
392
353
343
353
329
239
117
18
-54
-120
-181
-208
-174
-91
-14
8
-32
-100
-145
-148
-122
-101
-103
-112
-103
-68
-39
-24
-6
24
53
46
3
-44
-77
-103
-130
-143
-119
-76
-52
-50
-33
36
140
229
276
298
321
360
432
570
784
1026
1225
1375
1547
1793
2065
2251
2301
2288
2320
2429
2543
2587
2573
2569
2611
2676
2717
2722
2710
2698
2683
2649
2600
2554
2521
2488
2443
2391
2357
2344
2333
2296
2238
2186
2164
2158
2138
2096
2042
1979
1889
1772
1668
1625
1629
1601
1483
1319
1220
1244
1322
1323
1192
1009
904
924
988
981
874
739
660
636
584
444
253
113
79
109
117
72
20
34
127
247
326
325
253
155
85
71
90
82
11
-98
-187
-224
-244
-294
-387
-493
-582
-653
-709
-728
-681
-580
-481
-437
-443
-447
-411
-342
-285
-279
-319
-360
-365
-344
-334
-365
-414
-435
-409
-366
-346
-357
-374
-380
-394
-431
-499
-612
-801
-1075
-1351
-1478
-1363
-1081
-800
-619
-475
-231
144
540
802
865
781
654
592
669
878
1121
1277
1304
1274
1246
1186
984
592
116
-254
-402
-370
-309
-357
-518
-653
-571
-201
326
778
1049
1278
1725
2497
3420
4175
4573
4670
4659
4669
4710
4754
4801
4889
5017
5182
5426
5814
6341
6880
7237
7331
7233
7077
6935
6790
6592
6307
5957
5601
5292
5039
4778
4437
4051
3746
3596
3484
3202
2673
2033
1475
1069
746
434
147
-54
-121
-30
215
544
841
1038
1187
1342
1404
1178
612
-117
-802
-1462
-2304
-3411
-4540
-5321
-5647
-5741
-5877
-6137
-6424
-6663
-6913
-7256
-7705
-8192
-8636
-8960
-9083
-8979
-8722
-8410
-8053
-7613
-7151
-6865
-6912
-7200
-7444
-7451
-7286
-7176
-7224
-7308
-7241
-6977
-6659
-6468
-6452
-6475
-6350
-6033
-5672
-5424
-5235
-4863
-4157
-3290
-2598
-2209
-1915
-1441
-825
-358
-213
-237
-155
75
228
133
-80
-149
-15
115
66
-15
267
1141
2434
3772
4977
6215
7694
9325
10725
11602
11991
12128
12129
11905
11357
10562
9726
9002
8404
7903
7490
7148
6811
6401
5898
5366
4894
4519
4190
3827
3388
2933
2595
2448
2399
2260
1943
1577
1409
1554
1865
2090
2102
1971
1822
1683
1474
1133
696
256
-128
-431
-629
-682
-591
-419
-271
-203
-210
-285
-457
-757
-1160
-1587
-1957
-2228
-2388
-2421
-2316
-2106
-1865
-1659
-1522
-1452
-1420
-1405
-1397
-1391
-1392
-1397
-1385
-1332
-1265
-1230
-1241
-1269
-1274
-1251
-1215
-1183
-1160
-1152
-1144
-1100
-1001
-897
-864
-918
-990
-1007
-976
-966
-1012
-1075
-1094
-1057
-987
-879
-701
-445
-163
83
259
374
423
407
372
377
417
418
327
208
194
337
527
607
549
473
477
533
542
488
449
514
680
871
998
996
855
616
348
67
-298
-828
-1472
-2038
-2357
-2438
-2431
-2403
-2301
-2048
-1723
-1495
-1449
-1517
-1610
-1748
-2013
-2427
-2921
-3400
-3800
-4094
-4295
-4445
-4571
-4654
-4666
-4641
-4645
-4667
-4599
-4415
-4304
-4521
-5063
-5592
-5762
-5591
-5359
-5248
-5124
-4766
-4184
-3576
-3062
-2559
-2011
-1550
-1368
-1430
-1487
-1349
-1085
-895
-831
-778
-618
-382
-159
39
257
459
572
606
685
895
1154
1308
1331
1356
1480
1608
1566
1318
999
720
476
226
53
119
469
988
1548
2170
2932
3772
4479
4887
5003
4943
4790
4562
4297
4086
3996
4014
4083
4179
4312
4439
4484
4422
4310
4208
4097
3915
3655
3397
3223
3144
3114
3100
3099
3085
3032
2953
2904
2929
2989
2991
2882
2660
2332
1897
1398
967
744
737
826
904
980
1130
1372
1630
1796
1801
1632
1314
926
578
358
244
142
2
-137
-195
-154
-68
-7
-5
-40
-93
-158
-223
-273
-298
-302
-298
-295
-274
-219
-151
-133
-240
-454
-649
-685
-548
-370
-297
-346
-379
-265
-8
272
440
466
397
296
213
172
166
152
81
-39
-122
-76
74
199
178
14
-181
-325
-442
-584
-712
-698
-472
-112
224
472
704
1009
1352
1574
1560
1372
1186
1098
1035
899
704
544
478
488
551
670
788
774
573
356
353
523
490
-2
-676
-951
-631
-191
-225
-721
-1068
-803
-151
306
339
272
487
950
1329
1445
1459
1612
1907
2136
2143
2017
1983
2176
2508
2709
2556
2081
1535
1125
800
322
-410
-1187
-1712
-1922
-2047
-2294
-2554
-2504
-2003
-1291
-734
-444
-203
222
791
1244
1409
1348
1210
1032
748
345
-65
-338
-405
-270
64
556
1072
1460
1703
1915
2160
2290
2058
1402
529
-254
-784
-1096
-1314
-1560
-1874
-2192
-2340
-2173
-1739
-1256
-895
-605
-234
231
682
1084
1522
1951
2050
1544
659
55
169
706
991
809
762
1658
3586
5740
7155
7488
7149
6712
6330
5724
4582
2951
1246
-51
-694
-764
-467
44
679
1337
1844
2094
2157
2203
2308
2356
2184
1800
1412
1244
1330
1510
1608
1575
1486
1428
1414
1402
1375
1383
1481
1656
1826
1922
1962
2028
2178
2397
2619
2803
2930
2989
2993
2985
3030
3145
3251
3260
3202
3236
3490
3909
4286
4455
4447
4422
4480
4572
4569
4422
4223
4105
4119
4199
4256
4251
4203
4141
4041
3861
3598
3303
3031
2781
2527
2270
2058
1942
1924
1929
1901
1848
1823
1849
1875
1832
1731
1673
1733
1854
1877
1718
1481
1376
1483
1652
1659
1456
1225
1176
1305
1420
1359
1147
915
753
659
609
600
619
622
575
508
469
462
446
398
302
106
-226
-601
-823
-817
-772
-971
-1416
-1761
-1670
-1210
-781
-641
-644
-478
-74
330
502
452
361
308
213
10
-235
-403
-451
-451
-476
-544
-617
-659
-658
-643
-650
-701
-775
-836
-868
-879
-878
-858
-821
-805
-852
-961
-1083
-1175
-1235
-1288
-1347
-1387
-1389
-1366
-1347
-1351
-1361
-1354
-1319
-1273
-1254
-1287
-1354
-1407
-1421
-1415
-1409
-1404
-1382
-1346
-1326
-1343
-1366
-1351
-1305
-1283
-1311
-1358
-1365
-1320
-1249
-1177
-1102
-1016
-930
-848
-763
-675
-622
-627
-663
-666
-603
-515
-455
-407
-307
-129
49
129
106
82
148
274
362
356
309
323
435
590
720
792
818
807
770
726
706
721
741
721
641
540
476
484
536
572
546
455
357
312
337
393
423
408
371
327
262
167
80
47
58
40
-43
-128
-125
-42
-4
-106
-281
-378
-348
-306
-375
-509
-540
-380
-123
72
153
199
269
337
321
202
45
-93
-210
-336
-472
-580
-639
-666
-701
-750
-796
-836
-912
-1077
-1331
-1607
-1833
-2013
-2202
-2407
-2576
-2674
-2750
-2892
-3113
-3312
-3391
-3397
-3461
-3643
-3839
-3892
-3770
-3602
-3531
-3556
-3549
-3442
-3288
-3210
-3230
-3261
-3235
-3204
-3271
-3420
-3506
-3400
-3148
-2920
-2799
-2695
-2483
-2176
-1900
-1714
-1538
-1252
-883
-608
-551
-634
-661
-535
-346
-278
-397
-556
-549
-338
-88
23
7
24
161
310
326
227
173
216
202
-37
-416
-641
-538
-240
-21
23
55
262
626
969
1151
1210
1268
1400
1582
1741
1829
1862
1890
1965
2093
2234
2336
2393
2459
2569
2699
2798
2865
2960
3125
3324
3477
3558
3627
3752
3896
3950
3867
3739
3696
3743
3758
3641
3440
3295
3268
3277
3205
3033
2852
2739
2670
2562
2375
2148
1940
1777
1634
1489
1351
1253
1217
1219
1214
1183
1154
1168
1220
1252
1234
1201
1213
1270
1309
1292
1269
1316
1432
1538
1581
1606
1667
1726
1705
1614
1571
1660
1810
1874
1810
1751
1854
2123
2412
2570
2578
2522
2498
2538
2604
2628
2557
2404
2240
2143
2140
2192
2247
2279
2293
2301
2317
2348
2381
2382
2317
2196
2057
1941
1866
1829
1824
1837
1839
1809
1762
1745
1768
1786
1735
1617
1504
1453
1447
1431
1379
1312
1243
1152
1029
915
860
854
817
697
554
505
597
741
798
727
625
607
681
723
606
337
72
-32
25
99
74
-8
-8
142
355
498
526
488
418
292
101
-89
-198
-244
-314
-434
-518
-471
-320
-189
-146
-162
-185
-237
-370
-562
-706
-733
-705
-733
-829
-883
-806
-649
-541
-531
-545
-513
-479
-540
-697
-826
-830
-770
-787
-907
-991
-943
-853
-881
-1036
-1141
-1076
-956
-993
-1209
-1347
-1192
-859
-680
-799
-994
-971
-758
-686
-961
-1388
-1625
-1603
-1614
-1912
-2361
-2555
-2273
-1697
-1186
-905
-735
-482
-122
190
324
277
130
-53
-234
-330
-170
397
1312
2259
2883
3053
2885
2557
2122
1553
924
433
205
170
201
336
748
1474
2260
2765
2879
2790
2741
2836
3039
3290
3541
3752
3898
4037
4263
4547
4709
4573
4158
3677
3297
2992
2657
2319
2122
2051
1838
1237
395
-201
-236
38
49
-417
-934
-923
-329
306
470
247
163
544
1167
1574
1582
1397
1281
1221
1011
567
28
-409
-699
-972
-1397
-2006
-2695
-3296
-3703
-3953
-4188
-4509
-4876
-5171
-5339
-5473
-5689
-5969
-6157
-6142
-6015
-5971
-6045
-6036
-5727
-5136
-4487
-3955
-3483
-2936
-2349
-1940
-1845
-1925
-1909
-1690
-1438
-1376
-1521
-1682
-1663
-1414
-1032
-606
-135
432
1117
1874
2612
3258
3794
4233
4566
4750
4759
4642
4509
4438
4407
4336
4183
3981
3776
3566
3311
2993
2642
2293
1956
1631
1344
1149
1084
1125
1229
1368
1543
1752
1958
2119
2226
2308
2397
2496
2571
2590
2580
2595
2674
2801
2941
3098
3331
3692
4150
4607
5003
5379
5846
6449
7105
7658
8028
8252
8426
8600
8744
8781
8660
8402
8095
7838
7649
7428
7042
6459
5765
5071
4363
3531
2514
1397
331
-625
-1533
-2467
-3411
-4302
-5115
-5884
-6655
-7425
-8159
-8826
-9389
-9821
-10121
-10344
-10564
-10817
-11070
-11253
-11336
-11355
-11371
-11422
-11500
-11547
-11494
-11325
-11099
-10907
-10771
-10626
-10399
-10101
-9814
-9590
-9374
-9075
-8678
-8254
-7878
-7544
-7190
-6779
-6348
-5956
-5609
-5260
-4841
-4341
-3810
-3296
-2784
-2206
-1545
-885
-350
30
362
757
1204
1594
1863
2078
2373
2810
3321
3789
4149
4420
4647
4845
4988
5055
5048
4992
4918
4838
4739
4607
4434
4235
4038
3842
3601
3234
2699
2069
1513
1153
958
809
676
672
918
1363
1814
2146
2392
2607
2695
2495
2020
1525
1245
1136
956
584
184
-19
-24
-21
-135
-284
-340
-329
-408
-614
-775
-707
-445
-204
-143
-213
-266
-256
-261
-360
-524
-678
-831
-1076
-1458
-1868
-2142
-2250
-2346
-2576
-2865
-2971
-2760
-2397
-2204
-2334
-2628
-2829
-2866
-2872
-2966
-3074
-3011
-2687
-2206
-1739
-1361
-1046
-755
-512
-386
-389
-462
-522
-509
-414
-239
16
333
665
954
1190
1417
1683
1957
2152
2227
2258
2384
2673
3046
3339
3460
3467
3504
3661
3888
4067
4153
4199
4282
4403
4485
4463
4363
4243
4122
3952
3680
3318
2937
2608
2371
2234
2182
2193
2235
2285
2332
2383
2426
2421
2310
2068
1745
1444
1262
1200
1171
1090
969
908
974
1107
1182
1141
1048
983
931
817
620
441
405
514
633
638
551
527
689
989
1260
1372
1352
1332
1398
1489
1462
1264
995
826
812
848
808
688
617
685
819
861
759
612
545
554
529
404
241
143
113
63
-57
-186
-236
-209
-203
-279
-381
-419
-380
-355
-425
-573
-721
-817
-878
-957
-1069
-1182
-1250
-1244
-1183
-1112
-1071
-1062
-1058
-1029
-977
-935
-922
-924
-912
-864
-787
-707
-635
-561
-469
-366
-285
-245
-241
-240
-229
-223
-241
-275
-289
-252
-177
-111
-97
-121
-131
-93
-22
33
43
47
112
265
473
682
865
1025
1157
1220
1191
1100
1001
906
785
618
452
367
387
472
561
622
656
666
653
625
585
527
443
346
273
251
274
327
412
517
580
511
277
-57
-372
-613
-809
-1005
-1186
-1286
-1247
-1069
-793
-495
-262
-173
-235
-363
-454
-481
-514
-612
-720
-711
-522
-218
66
252
339
333
196
-109
-541
-1002
-1424
-1816
-2193
-2516
-2707
-2741
-2692
-2666
-2661
-2554
-2246
-1773
-1296
-944
-678
-349
116
619
1013
1288
1608
2136
2850
3556
4100
4521
4991
5586
6204
6669
6931
7100
7307
7543
7703
7737
7712
7704
7688
7550
7252
6923
6718
6668
6694
6770
6996
7444
7941
8132
7795
7022
6072
5092
4038
2873
1757
962
648
759
1138
1677
2289
2848
3209
3337
3341
3366
3429
3423
3275
3071
2963
3006
3086
3027
2776
2437
2109
1793
1410
953
557
381
439
559
543
351
122
-10
-83
-260
-617
-1028
-1276
-1297
-1248
-1317
-1511
-1637
-1546
-1300
-1085
-969
-857
-629
-295
35
302
557
842
1120
1321
1454
1573
1682
1711
1622
1489
1408
1386
1333
1208
1099
1117
1240
1331
1296
1185
1131
1186
1280
1325
1315
1326
1430
1616
1811
1956
2056
2143
2249
2359
2441
2481
2492
2501
2510
2505
2485
2467
2466
2481
2498
2525
2587
2684
2768
2789
2751
2708
2687
2641
2468
2137
1750
1466
1379
1443
1528
1543
1528
1597
1811
2119
2393
2528
2528
2479
2471
2513
2559
2540
2439
2312
2245
2257
2284
2238
2111
1998
1994
2090
2164
2113
1971
1870
1896
1989
1996
1845
1601
1411
1360
1398
1400
1285
1095
936
860
807
669
416
132
-76
-198
-324
-521
-786
-1058
-1299
-1515
-1718
-1902
-2048
-2158
-2256
-2349
-2428
-2491
-2541
-2584
-2620
-2651
-2685
-2705
-2665
-2551
-2414
-2333
-2328
-2339
-2289
-2181
-2098
-2084
-2095
-2054
-1946
-1818
-1700
-1557
-1350
-1111
-938
-885
-905
-908
-860
-805
-800
-852
-910
-916
-856
-763
-678
-622
-587
-559
-533
-508
-478
-415
-322
-262
-304
-417
-474
-382
-199
-82
-122
-240
-281
-183
-37
31
-8
-68
-58
12
66
31
-97
-260
-394
-463
-458
-398
-310
-202
-68
106
311
505
648
739
811
887
933
897
771
603
452
341
236
98
-69
-225
-343
-441
-542
-642
-720
-782
-872
-1037
-1249
-1450
-1611
-1783
-2026
-2305
-2495
-2505
-2377
-2233
-2134
-2046
-1914
-1767
-1684
-1702
-1778
-1862
-1944
-2051
-2190
-2336
-2466
-2572
-2659
-2729
-2783
-2833
-2879
-2926
-2987
-3073
-3160
-3194
-3149
-3075
-3064
-3150
-3268
-3332
-3314
-3264
-3256
-3314
-3422
-3524
-3571
-3562
-3542
-3569
-3649
-3730
-3773
-3808
-3878
-3955
-3955
-3852
-3737
-3703
-3725
-3674
-3482
-3249
-3131
-3173
-3284
-3367
-3415
-3475
-3552
-3618
-3672
-3736
-3797
-3790
-3684
-3543
-3480
-3512
-3532
-3446
-3295
-3192
-3182
-3174
-3062
-2839
-2608
-2440
-2314
-2165
-1967
-1767
-1604
-1461
-1276
-1006
-677
-333
-6
314
655
1037
1447
1848
2187
2429
2582
2703
2846
3003
3115
3148
3158
3273
3570
3972
4327
4556
4720
4937
5225
5491
5637
5686
5740
5867
6049
6224
6384
6558
6770
6993
7180
7315
7401
7449
7460
7434
7388
7344
7294
7219
7118
7020
6944
6881
6807
6723
6663
6647
6638
6591
6521
6498
6554
6629
6646
6595
6561
6626
6762
6876
6908
6892
6899
6944
6978
6963
6921
6901
6906
6891
6824
6732
6674
6662
6645
6572
6448
6336
6286
6292
6306
6283
6211
6109
6008
5929
5884
5853
5790
5679
5549
5451
5405
5383
5347
5294
5239
5186
5118
5041
4987
4964
4927
4826
4676
4547
4478
4424
4320
4166
4017
3894
3748
3548
3349
3240
3213
3153
2970
2719
2522
2416
2324
2151
1910
1681
1501
1338
1166
1008
896
801
667
479
283
126
-8
-161
-329
-462
-524
-538
-563
-623
-688
-725
-770
-900
-1125
-1346
-1446
-1413
-1340
-1306
-1274
-1155
-947
-743
-618
-536
-415
-264
-192
-255
-377
-441
-438
-465
-587
-755
-868
-900
-919
-985
-1087
-1169
-1209
-1249
-1338
-1475
-1616
-1729
-1850
-2041
-2312
-2591
-2779
-2850
-2880
-2956
-3073
-3150
-3140
-3094
-3109
-3200
-3288
-3293
-3228
-3181
-3211
-3280
-3313
-3294
-3270
-3274
-3272
-3220
-3161
-3218
-3459
-3795
-4014
-3989
-3825
-3779
-4001
-4353
-4520
-4301
-3802
-3325
-3083
-3004
-2842
-2448
-1922
-1516
-1388
-1465
-1544
-1462
-1201
-830
-406
81
652
1275
1841
2233
2368
2215
1777
1122
365
-340
-882
-1215
-1327
-1191
-763
-54
816
1634
2216
2516
2603
2613
2621
2579
2362
1936
1458
1152
1075
1049
885
610
399
307
157
-204
-668
-941
-868
-613
-430
-358
-230
83
505
931
1407
2073
2927
3727
4188
4216
3924
3421
2674
1562
78
-1573
-3114
-4363
-5293
-5949
-6371
-6574
-6586
-6473
-6303
-6141
-6035
-6000
-6020
-6033
-6011
-5983
-5950
-5833
-5530
-5080
-4681
-4479
-4423
-4355
-4271
-4312
-4469
-4464
-4008
-3204
-2511
-2313
-2567
-2954
-3220
-3276
-3030
-2359
-1375
-509
-176
-339
-568
-590
-652
-1240
-2459
-3847
-4770
-4952
-4548
-3832
-2937
-1891
-786
214
985
1516
1875
2106
2189
2094
1884
1724
1825
2292
3034
3814
4410
4749
4919
5083
5369
5817
6398
7075
7831
8632
9396
10000
10383
10611
10821
11074
11285
11338
11232
11091
11006
10920
10700
10297
9805
9342
8925
8479
7961
7411
6881
6340
5693
4903
4055
3296
2695
2184
1645
1058
520
127
-131
-362
-644
-953
-1217
-1438
-1696
-2065
-2525
-3013
-3516
-4065
-4669
-5251
-5713
-6058
-6400
-6851
-7388
-7876
-8199
-8386
-8585
-8876
-9169
-9286
-9171
-8959
-8847
-8868
-8882
-8756
-8553
-8468
-8617
-8909
-9139
-9195
-9122
-9012
-8884
-8680
-8348
-7902
-7405
-6937
-6565
-6328
-6207
-6136
-6044
-5922
-5807
-5724
-5646
-5526
-5341
-5110
-4872
-4656
-4491
-4384
-4300
-4167
-3958
-3732
-3579
-3500
-3398
-3162
-2809
-2469
-2253
-2139
-2012
-1797
-1529
-1286
-1088
-895
-647
-313
106
589
1079
1474
1684
1699
1596
1479
1376
1247
1059
886
879
1126
1555
1986
2290
2483
2647
2782
2804
2658
2419
2232
2159
2142
2108
2068
2086
2182
2288
2335
2295
2149
1874
1473
1039
729
638
707
795
824
832
904
1058
1217
1273
1177
949
639
286
-97
-504
-923
-1315
-1635
-1857
-2013
-2157
-2313
-2469
-2608
-2725
-2824
-2909
-2993
-3096
-3210
-3303
-3348
-3351
-3335
-3299
-3230
-3193
-3306
-3586
-3841
-3820
-3504
-3158
-3018
-2968
-2627
-1797
-716
191
733
1088
1500
1980
2345
2463
2400
2325
2325
2383
2466
2586
2756
2955
3128
3232
3274
3278
3271
3278
3284
3268
3234
3226
3285
3380
3411
3329
3223
3235
3370
3432
3238
2865
2626
2760
3052
3289
3329
3361
3606
4040
4432
4620
4649
4644
4630
4569
4476
4447
4535
4688
4823
4915
5009
5133
5240
5280
5234
5107
4926
4737
4584
4490
4430
4362
4276
4186
4093
3965
3762
3490
3210
2987
2831
2693
2515
2295
2069
1864
1661
1428
1175
966
841
766
669
532
416
390
440
464
381
199
-19
-242
-498
-824
-1201
-1551
-1809
-1964
-2049
-2084
-2070
-2011
-1948
-1939
-2011
-2126
-2232
-2312
-2394
-2492
-2557
-2519
-2367
-2171
-2007
-1889
-1767
-1608
-1442
-1323
-1266
-1223
-1138
-985
-783
-575
-400
-277
-220
-237
-326
-452
-553
-583
-561
-561
-620
-684
-667
-571
-474
-427
-390
-296
-153
-34
39
130
298
492
599
613
658
841
1113
1327
1411
1434
1489
1574
1606
1553
1463
1385
1299
1166
1019
951
992
1054
1029
941
922
1012
1049
808
265
-366
-844
-1134
-1373
-1610
-1691
-1437
-884
-264
252
703
1178
1597
1738
1499
1032
582
232
-124
-552
-934
-1083
-955
-681
-415
-187
51
294
442
381
80
-411
-1023
-1713
-2455
-3215
-3936
-4544
-4984
-5252
-5385
-5427
-5403
-5324
-5221
-5150
-5171
-5309
-5542
-5805
-6000
-6031
-5878
-5635
-5413
-5208
-4888
-4351
-3676
-3058
-2604
-2232
-1810
-1352
-1006
-858
-805
-692
-502
-356
-338
-347
-191
214
767
1305
1759
2184
2652
3172
3704
4215
4708
5222
5792
6414
7031
7548
7888
8033
8021
7878
7587
7123
6510
5856
5287
4870
4595
4427
4382
4506
4789
5082
5175
4953
4497
4018
3665
3396
3067
2633
2248
2138
2391
2878
3384
3790
4101
4339
4432
4245
3743
3052
2366
1786
1278
791
384
201
339
754
1271
1710
1969
2047
2003
1916
1850
1814
1757
1612
1355
1048
809
745
858
1038
1132
1067
913
814
857
1012
1207
1421
1657
1893
2087
2230
2359
2507
2643
2699
2688
2694
2769
2880
2967
3052
3197
3409
3611
3710
3702
3667
3688
3778
3871
3909
3875
3812
3777
3793
3856
3946
4060
4178
4239
4183
4039
3910
3867
3857
3757
3511
3210
2996
2920
2914
2900
2873
2875
2935
3010
3044
3030
3005
2982
2929
2825
2704
2614
2539
2413
2231
2123
2239
2553
2809
2776
2456
2082
1822
1588
1175
541
-112
-555
-755
-838
-903
-887
-697
-375
-111
-78
-284
-565
-769
-876
-986
-1170
-1366
-1413
-1203
-808
-405
-123
60
257
508
743
870
898
915
988
1071
1083
1015
935
919
945
940
877
828
879
1016
1140
1157
1077
984
938
918
882
822
785
811
893
991
1089
1181
1237
1216
1118
1002
932
910
889
841
787
783
849
950
1038
1073
1044
978
906
861
834
793
708
575
423
295
215
171
110
-41
-299
-593
-818
-922
-960
-1024
-1151
-1290
-1363
-1360
-1351
-1404
-1512
-1617
-1680
-1729
-1801
-1874
-1873
-1773
-1653
-1619
-1680
-1734
-1718
-1684
-1720
-1828
-1928
-1985
-2043
-2129
-2180
-2120
-1990
-1910
-1922
-1939
-1891
-1819
-1815
-1852
-1821
-1691
-1583
-1620
-1745
-1785
-1674
-1532
-1492
-1542
-1553
-1468
-1356
-1301
-1273
-1180
-1011
-853
-796
-828
-860
-835
-772
-714
-676
-660
-680
-739
-794
-769
-643
-497
-448
-512
-585
-563
-469
-421
-474
-550
-547
-487
-491
-606
-717
-695
-558
-473
-546
-693
-740
-638
-512
-507
-627
-753
-795
-783
-793
-836
-871
-872
-866
-892
-949
-1005
-1040
-1062
-1089
-1120
-1134
-1110
-1042
-936
-821
-740
-715
-722
-710
-655
-592
-583
-629
-672
-652
-573
-483
-419
-366
-297
-211
-131
-64
6
83
132
109
27
-43
-55
-27
-20
-47
-55
10
127
237
306
359
426
480
473
406
331
285
259
229
208
220
252
254
201
131
88
68
19
-64
-128
-134
-118
-144
-201
-206
-126
-33
-46
-167
-266
-222
-59
77
69
-53
-159
-152
-45
67
107
71
18
5
37
76
90
98
130
192
244
255
222
162
76
-34
-143
-199
-172
-78
80
345
740
1197
1572
1805
1987
2246
2575
2804
2800
2627
2480
2467
2501
2429
2233
2042
1974
1988
1948
1776
1537
1345
1230
1125
958
750
589
530
525
493
406
342
394
575
782
889
855
772
760
834
895
845
712
636
710
866
949
895
791
766
828
857
771
647
629
745
866
856
744
694
794
936
950
822
723
805
1008
1140
1107
1021
1061
1260
1485
1601
1606
1595
1632
1697
1739
1748
1746
1754
1771
1801
1845
1913
2005
2103
2197
2270
2322
2376
2452
2542
2601
2600
2569
2566
2620
2687
2696
2630
2551
2535
2594
2669
2695
2662
2626
2652
2744
2839
2868
2819
2744
2716
2754
2822
2864
2863
2843
2841
2874
2925
2963
2959
2920
2872
2837
2816
2791
2769
2771
2796
2823
2819
2784
2747
2722
2696
2644
2571
2511
2480
2468
2449
2409
2359
2323
2314
2326
2327
2287
2215
2157
2141
2132
2065
1930
1793
1721
1695
1635
1503
1358
1279
1266
1235
1115
922
732
598
511
435
349
258
177
118
88
85
107
130
126
86
19
-40
-68
-63
-39
-22
-30
-73
-122
-134
-93
-44
-57
-140
-218
-220
-165
-142
-193
-264
-295
-305
-373
-514
-642
-683
-674
-720
-859
-1023
-1128
-1177
-1241
-1365
-1510
-1623
-1680
-1695
-1684
-1644
-1569
-1458
-1331
-1225
-1134
-1012
-823
-626
-568
-706
-865
-773
-346
168
413
272
-44
-265
-349
-480
-823
-1361
-1923
-2337
-2539
-2574
-2540
-2506
-2448
-2305
-2084
-1902
-1846
-1829
-1680
-1368
-1056
-884
-782
-582
-268
21
241
538
982
1358
1389
1164
1173
1770
2703
3350
3369
2998
2707
2663
2664
2491
2183
1921
1793
1760
1793
1942
2229
2548
2722
2648
2357
1962
1557
1172
785
356
-109
-540
-842
-973
-986
-969
-972
-989
-1008
-1056
-1134
-1163
-1044
-786
-516
-302
-2
577
1357
1919
1901
1422
994
945
1010
620
-457
-1883
-3155
-4112
-4950
-5826
-6642
-7217
-7532
-7690
-7685
-7381
-6737
-5950
-5319
-4966
-4783
-4612
-4408
-4230
-4115
-4060
-4068
-4153
-4265
-4284
-4120
-3819
-3541
-3414
-3431
-3492
-3518
-3502
-3462
-3382
-3242
-3065
-2887
-2705
-2460
-2119
-1734
-1380
-1051
-661
-145
439
951
1309
1558
1799
2090
2412
2711
2963
3207
3522
3987
4607
5280
5821
6094
6111
6010
5925
5859
5701
5366
4923
4608
4678
5214
6037
6817
7328
7592
7806
8127
8527
8855
8997
8982
8966
9116
9529
10175
10910
11573
12085
12459
12724
12848
12801
12644
12506
12442
12348
12097
11720
11398
11259
11205
11016
10590
10032
9486
8958
8334
7547
6663
5800
4974
4104
3158
2229
1459
882
379
-211
-950
-1777
-2599
-3382
-4155
-4947
-5750
-6509
-7155
-7636
-7963
-8208
-8435
-8632
-8719
-8659
-8533
-8487
-8587
-8745
-8839
-8848
-8853
-8894
-8913
-8821
-8629
-8420
-8239
-8019
-7681
-7269
-6932
-6772
-6752
-6758
-6736
-6732
-6810
-6961
-7108
-7192
-7215
-7204
-7166
-7101
-7032
-7015
-7079
-7181
-7246
-7246
-7217
-7209
-7222
-7222
-7194
-7151
-7103
-7024
-6909
-6801
-6765
-6814
-6898
-6944
-6934
-6881
-6796
-6672
-6506
-6310
-6072
-5769
-5412
-5078
-4850
-4737
-4653
-4523
-4372
-4280
-4271
-4276
-4202
-4026
-3807
-3614
-3478
-3392
-3340
-3300
-3259
-3241
-3280
-3375
-3466
-3485
-3427
-3327
-3190
-2975
-2664
-2311
-1982
-1666
-1303
-886
-498
-203
57
392
830
1263
1590
1835
2105
2454
2826
3135
3361
3536
3685
3790
3834
3829
3800
3760
3704
3617
3489
3321
3142
2982
2842
2687
2475
2194
1865
1512
1172
854
532
153
-302
-769
-1149
-1380
-1493
-1559
-1596
-1570
-1472
-1352
-1265
-1207
-1146
-1100
-1163
-1413
-1828
-2281
-2645
-2884
-3066
-3288
-3566
-3798
-3842
-3654
-3342
-3078
-2930
-2803
-2564
-2184
-1766
-1423
-1175
-982
-831
-730
-662
-571
-457
-390
-418
-487
-483
-357
-171
-7
147
361
650
945
1196
1440
1729
2026
2245
2365
2465
2617
2792
2904
2925
2912
2934
2975
2984
2953
2898
2800
2606
2339
2125
2087
2186
2268
2251
2240
2396
2697
2938
2951
2812
2763
2954
3308
3639
3869
4097
4443
4904
5361
5699
5892
5989
6042
6053
6007
5904
5787
5697
5640
5585
5504
5398
5284
5152
4960
4682
4366
4088
3871
3656
3403
3145
2951
2827
2680
2420
2054
1681
1376
1130
886
624
392
234
140
57
-57
-196
-335
-468
-616
-803
-1021
-1234
-1398
-1507
-1591
-1680
-1773
-1845
-1882
-1910
-1970
-2074
-2178
-2222
-2176
-2072
-1960
-1859
-1743
-1576
-1367
-1160
-982
-804
-583
-314
-43
195
420
666
917
1100
1176
1184
1197
1244
1294
1336
1416
1591
1846
2089
2251
2353
2465
2600
2686
2644
2487
2304
2167
2070
1964
1843
1765
1770
1823
1859
1860
1879
1958
2070
2150
2174
2174
2185
2209
2248
2323
2435
2537
2570
2553
2566
2634
2685
2641
2537
2506
2618
2797
2914
2939
2946
2986
3014
2957
2816
2658
2531
2425
2322
2256
2274
2372
2489
2561
2558
2490
2369
2197
1965
1675
1355
1050
788
553
296
-8
-329
-636
-973
-1451
-2113
-2828
-3355
-3553
-3511
-3459
-3543
-3701
-3748
-3583
-3309
-3154
-3286
-3693
-4224
-4720
-5127
-5477
-5798
-6078
-6285
-6414
-6485
-6518
-6516
-6505
-6529
-6632
-6832
-7104
-7377
-7585
-7714
-7812
-7951
-8113
-8174
-8023
-7707
-7401
-7202
-6965
-6439
-5540
-4444
-3404
-2542
-1859
-1376
-1155
-1190
-1377
-1644
-2022
-2493
-2813
-2613
-1765
-598
381
924
1178
1408
1655
1741
1537
1133
747
556
632
965
1509
2178
2859
3453
3905
4186
4294
4263
4183
4156
4223
4362
4544
4756
4981
5177
5303
5350
5343
5318
5318
5397
5598
5893
6175
6334
6360
6348
6385
6461
6505
6504
6529
6649
6835
7001
7108
7222
7423
7681
7871
7906
7853
7851
7946
8043
8027
7919
7874
8008
8262
8468
8525
8489
8490
8578
8688
8727
8680
8612
8598
8646
8691
8658
8517
8305
8085
7898
7720
7503
7211
6876
6565
6339
6200
6101
5985
5827
5646
5474
5334
5220
5088
4900
4644
4359
4118
3980
3941
3929
3863
3727
3580
3491
3461
3419
3289
3063
2799
2564
2380
2233
2109
2012
1951
1929
1924
1907
1861
1788
1713
1644
1564
1450
1294
1122
980
894
849
804
722
609
524
530
606
633
501
243
31
8
139
258
270
262
400
730
1115
1371
1442
1408
1364
1326
1246
1098
913
747
625
535
461
404
372
364
360
334
278
207
146
96
48
7
-18
-34
-84
-205
-386
-560
-679
-762
-861
-1000
-1135
-1226
-1309
-1470
-1752
-2107
-2430
-2670
-2873
-3114
-3399
-3648
-3785
-3811
-3811
-3861
-3958
-4040
-4051
-3996
-3912
-3835
-3771
-3711
-3654
-3610
-3587
-3571
-3548
-3523
-3499
-3473
-3427
-3334
-3184
-3005
-2850
-2759
-2743
-2786
-2861
-2936
-2977
-2974
-2945
-2903
-2812
-2614
-2306
-1971
-1709
-1533
-1368
-1175
-1017
-980
-1045
-1100
-1076
-1028
-1064
-1182
-1282
-1287
-1235
-1209
-1233
-1264
-1272
-1280
-1331
-1430
-1536
-1599
-1612
-1605
-1618
-1672
-1749
-1797
-1777
-1703
-1630
-1599
-1605
-1606
-1574
-1497
-1377
-1229
-1086
-983
-934
-915
-892
-858
-840
-855
-893
-913
-891
-856
-863
-938
-1043
-1101
-1064
-952
-831
-754
-732
-742
-759
-777
-806
-873
-1009
-1207
-1403
-1515
-1533
-1549
-1654
-1819
-1917
-1868
-1751
-1717
-1806
-1889
-1828
-1641
-1482
-1462
-1541
-1611
-1650
-1723
-1858
-2003
-2096
-2166
-2293
-2480
-2648
-2741
-2805
-2943
-3183
-3463
-3718
-3950
-4175
-4359
-4440
-4430
-4429
-4508
-4621
-4655
-4564
-4424
-4322
-4237
-4054
-3709
-3273
-2870
-2538
-2210
-1820
-1416
-1112
-949
-865
-784
-717
-739
-874
-1050
-1161
-1187
-1195
-1237
-1284
-1264
-1156
-999
-845
-702
-556
-421
-338
-329
-371
-418
-451
-494
-572
-672
-752
-776
-740
-664
-562
-445
-316
-187
-51
113
327
579
826
1041
1242
1454
1679
1886
2061
2233
2417
2596
2741
2857
2983
3140
3294
3399
3472
3573
3728
3888
3984
4011
4032
4101
4195
4242
4194
4077
3962
3887
3831
3741
3598
3446
3343
3297
3258
3174
3054
2940
2847
2736
2574
2398
2272
2211
2158
2062
1953
1907
1951
2028
2070
2085
2147
2317
2562
2797
2977
3124
3287
3474
3664
3839
3995
4127
4229
4309
4403
4537
4686
4804
4887
4984
5134
5314
5465
5581
5727
5943
6184
6359
6439
6478
6532
6588
6593
6541
6497
6518
6609
6730
6842
6936
7011
7054
7047
6987
6883
6744
6578
6399
6224
6069
5946
5844
5741
5611
5456
5293
5127
4948
4749
4552
4375
4199
3976
3691
3388
3112
2847
2534
2156
1787
1521
1382
1322
1285
1255
1241
1240
1235
1224
1211
1179
1096
945
761
591
468
389
324
238
104
-57
-194
-266
-283
-304
-378
-502
-644
-773
-878
-946
-980
-1006
-1054
-1112
-1122
-1044
-916
-812
-755
-710
-645
-596
-605
-640
-606
-456
-260
-125
-78
-54
12
113
198
231
208
125
-19
-193
-345
-444
-515
-605
-726
-846
-931
-975
-992
-985
-953
-923
-934
-989
-1027
-958
-732
-396
-59
179
280
256
117
-163
-617
-1242
-1987
-2755
-3412
-3807
-3825
-3474
-2887
-2254
-1702
-1263
-939
-778
-860
-1217
-1769
-2370
-2907
-3346
-3656
-3749
-3553
-3145
-2760
-2577
-2510
-2282
-1722
-974
-354
-36
85
199
331
332
90
-340
-790
-1131
-1326
-1385
-1328
-1172
-921
-578
-177
197
399
457
468
558
757
1014
1306
1663
2071
2422
2625
2735
2879
3081
3184
3028
2668
2352
2283
2447
2655
2732
2629
2398
2110
1818
1576
1418
1321
1227
1103
986
954
1047
1215
1342
1346
1252
1184
1238
1352
1347
1133
853
753
915
1144
1172
933
634
472
419
284
-28
-400
-657
-775
-872
-1027
-1157
-1151
-1042
-1007
-1158
-1407
-1564
-1551
-1489
-1538
-1718
-1909
-2011
-2045
-2104
-2227
-2365
-2465
-2530
-2597
-2677
-2752
-2792
-2778
-2696
-2521
-2222
-1816
-1370
-951
-558
-110
459
1105
1674
2040
2252
2499
2924
3477
3974
4273
4390
4449
4547
4670
4752
4741
4644
4544
4547
4711
5003
5326
5609
5848
6055
6183
6159
5971
5700
5467
5326
5230
5120
4997
4912
4904
4980
5116
5285
5434
5491
5416
5241
5066
4966
4916
4822
4619
4315
3954
3561
3124
2654
2209
1808
1385
857
219
-395
-832
-1048
-1145
-1253
-1397
-1496
-1464
-1344
-1276
-1373
-1623
-1906
-2136
-2346
-2640
-3051
-3499
-3854
-4080
-4255
-4480
-4794
-5153
-5480
-5731
-5914
-6059
-6209
-6406
-6667
-6950
-7189
-7334
-7405
-7479
-7600
-7735
-7824
-7847
-7818
-7749
-7633
-7476
-7347
-7309
-7345
-7371
-7348
-7355
-7485
-7711
-7891
-7937
-7918
-7992
-8195
-8395
-8441
-8334
-8219
-8211
-8282
-8321
-8271
-8167
-8088
-8071
-8098
-8118
-8083
-7979
-7837
-7720
-7670
-7661
-7625
-7525
-7376
-7217
-7072
-6928
-6776
-6622
-6473
-6314
-6133
-5935
-5746
-5570
-5379
-5152
-4909
-4690
-4505
-4320
-4092
-3822
-3561
-3351
-3171
-2965
-2704
-2411
-2131
-1885
-1643
-1366
-1052
-745
-507
-352
-246
-128
38
229
390
475
489
486
534
674
902
1160
1377
1518
1623
1772
1997
2224
2333
2281
2155
2082
2104
2150
2134
2047
1955
1907
1876
1815
1717
1609
1488
1310
1055
784
578
466
376
207
-51
-322
-519
-623
-677
-730
-814
-953
-1126
-1268
-1317
-1307
-1372
-1625
-2021
-2368
-2511
-2474
-2393
-2343
-2262
-2061
-1752
-1447
-1225
-1057
-864
-639
-456
-387
-401
-379
-227
37
298
471
594
784
1107
1500
1834
2047
2187
2336
2521
2697
2826
2914
2978
3009
3003
2989
3004
3062
3125
3145
3106
3050
3022
3038
3083
3113
3084
2980
2850
2790
2854
2995
3109
3136
3126
3173
3291
3389
3370
3243
3117
3083
3124
3170
3198
3266
3434
3685
3940
4138
4283
4385
4446
4455
4416
4359
4307
4267
4236
4218
4215
4209
4172
4068
3865
3556
3166
2761
2404
2111
1851
1595
1344
1118
932
780
650
537
428
308
167
18
-138
-335
-608
-935
-1240
-1463
-1607
-1733
-1862
-1942
-1918
-1811
-1717
-1712
-1803
-1934
-2043
-2087
-2053
-1956
-1836
-1707
-1545
-1307
-1012
-743
-567
-462
-352
-215
-125
-151
-254
-304
-225
-59
89
158
168
160
150
142
146
160
166
151
124
112
131
170
197
198
180
165
174
216
282
362
460
584
715
810
857
895
977
1103
1217
1271
1284
1320
1410
1534
1664
1800
1965
2163
2384
2637
2933
3249
3514
3661
3707
3747
3875
4098
4337
4504
4578
4619
4697
4826
4956
5018
4991
4903
4785
4653
4537
4498
4598
4813
5024
5123
5115
5101
5144
5194
5154
4998
4805
4666
4602
4566
4524
4489
4475
4455
4374
4204
3971
3721
3473
3207
2899
2574
2314
2213
2289
2427
2433
2170
1657
1024
376
-292
-1030
-1839
-2645
-3376
-4004
-4492
-4783
-4873
-4898
-5074
-5502
-6067
-6565
-6926
-7277
-7780
-8441
-9095
-9566
-9800
-9839
-9752
-9593
-9440
-9377
-9423
-9481
-9411
-9178
-8909
-8796
-8894
-9052
-9081
-8975
-8915
-9051
-9306
-9435
-9293
-8961
-8588
-8199
-7693
-7024
-6293
-5606
-4939
-4218
-3525
-3101
-3110
-3417
-3694
-3749
-3692
-3748
-3958
-4126
-4024
-3621
-3072
-2535
-2033
-1495
-859
-147
582
1272
1886
2428
2945
3471
3984
4419
4759
5083
5506
6028
6538
6940
7271
7661
8137
8586
8911
9158
9459
9831
10146
10306
10385
10562
10893
11235
11428
11462
11470
11564
11717
11826
11831
11748
11640
11570
11580
11675
11791
11836
11803
11786
11903
12141
12361
12426
12348
12256
12245
12295
12302
12219
12074
11910
11740
11547
11340
11135
10937
10725
10488
10239
10008
9798
9593
9374
9126
8837
8482
8064
7614
7180
6783
6419
6077
5750
5440
5163
4958
4838
4751
4609
4386
4152
3985
3878
3747
3555
3373
3276
3218
3073
2801
2504
2307
2198
2065
1856
1664
1610
1698
1824
1899
1935
2000
2117
2240
2318
2341
2325
2270
2163
2020
1891
1809
1749
1656
1498
1310
1157
1069
1027
998
975
961
945
917
908
960
1046
1060
915
656
418
296
241
134
-70
-299
-463
-540
-573
-607
-650
-690
-726
-765
-821
-914
-1057
-1230
-1390
-1508
-1587
-1646
-1687
-1685
-1631
-1545
-1460
-1408
-1415
-1499
-1660
-1874
-2117
-2381
-2676
-2984
-3245
-3409
-3479
-3518
-3579
-3656
-3719
-3759
-3811
-3909
-4045
-4181
-4297
-4403
-4513
-4611
-4657
-4631
-4572
-4548
-4589
-4657
-4701
-4702
-4688
-4690
-4688
-4636
-4520
-4382
-4291
-4263
-4238
-4148
-3996
-3873
-3859
-3910
-3889
-3707
-3429
-3208
-3114
-3064
-2931
-2698
-2473
-2358
-2336
-2316
-2242
-2140
-2057
-1980
-1862
-1680
-1471
-1297
-1196
-1145
-1101
-1028
-937
-885
-925
-1024
-1084
-1037
-936
-909
-1008
-1143
-1178
-1082
-988
-1028
-1185
-1315
-1314
-1240
-1237
-1354
-1483
-1487
-1368
-1263
-1281
-1388
-1463
-1431
-1338
-1275
-1272
-1290
-1286
-1261
-1258
-1306
-1394
-1484
-1558
-1624
-1707
-1811
-1895
-1918
-1885
-1854
-1872
-1910
-1898
-1811
-1732
-1777
-1971
-2212
-2372
-2423
-2456
-2574
-2772
-2949
-2998
-2923
-2814
-2765
-2788
-2813
-2770
-2674
-2604
-2601
-2614
-2558
-2423
-2307
-2338
-2536
-2803
-3038
-3245
-3506
-3865
-4261
-4591
-4813
-4959
-5052
-5076
-5003
-4871
-4769
-4741
-4745
-4687
-4521
-4278
-4018
-3752
-3452
-3088
-2702
-2372
-2139
-1959
-1771
-1573
-1458
-1513
-1702
-1871
-1900
-1813
-1732
-1738
-1792
-1798
-1716
-1598
-1505
-1422
-1311
-1180
-1091
-1096
-1158
-1189
-1149
-1078
-1046
-1061
-1073
-1027
-923
-796
-664
-492
-267
-13
215
403
602
858
1138
1327
1360
1325
1404
1689
2091
2466
2793
3190
3720
4265
4644
4832
4975
5196
5421
5472
5306
5083
4985
5022
5057
4994
4890
4868
4959
5075
5131
5140
5167
5232
5265
5195
5051
4938
4919
4933
4888
4765
4646
4599
4601
4594
4567
4566
4593
4575
4457
4297
4222
4292
4449
4585
4658
4709
4778
4862
4923
4941
4925
4905
4901
4913
4937
4977
5045
5154
5291
5415
5482
5481
5432
5373
5325
5273
5195
5083
4971
4906
4913
4969
5030
5073
5099
5106
5072
4983
4869
4781
4732
4683
4594
4484
4414
4416
4462
4487
4451
4361
4246
4116
3959
3764
3533
3306
3112
2940
2740
2482
2201
1984
1867
1791
1662
1464
1282
1194
1178
1129
990
819
717
705
696
617
508
481
584
725
777
731
711
812
968
1015
875
661
547
571
605
530
393
347
460
640
756
780
777
791
793
743
661
589
524
421
277
156
123
171
230
253
247
232
217
198
178
154
101
-13
-179
-325
-397
-404
-419
-487
-601
-714
-800
-866
-910
-920
-911
-945
-1072
-1266
-1430
-1496
-1503
-1557
-1705
-1885
-1998
-2014
-1976
-1929
-1894
-1866
-1862
-1897
-1945
-1955
-1908
-1856
-1867
-1943
-2000
-1952
-1828
-1759
-1852
-2054
-2184
-2103
-1855
-1614
-1477
-1362
-1130
-763
-389
-156
-105
-195
-380
-603
-768
-793
-707
-625
-597
-520
-256
183
588
763
719
610
524
403
161
-153
-386
-452
-405
-341
-268
-112
140
382
505
542
634
854
1091
1182
1128
1110
1277
1554
1711
1642
1489
1486
1721
2044
2279
2425
2654
3096
3652
4072
4190
4039
3767
3444
2993
2353
1628
1045
752
686
678
639
624
711
845
875
721
455
196
-7
-163
-261
-243
-112
15
9
-103
-151
-29
131
91
-252
-724
-1054
-1153
-1201
-1419
-1810
-2106
-2029
-1571
-1012
-663
-599
-670
-756
-960
-1486
-2360
-3349
-4189
-4826
-5375
-5886
-6205
-6146
-5732
-5199
-4772
-4512
-4363
-4260
-4168
-4061
-3932
-3806
-3730
-3701
-3635
-3466
-3228
-3018
-2893
-2829
-2779
-2724
-2662
-2571
-2430
-2274
-2190
-2207
-2251
-2203
-2032
-1825
-1668
-1531
-1298
-930
-528
-247
-123
-34
156
459
776
1041
1295
1591
1884
2064
2125
2228
2536
3008
3410
3555
3482
3397
3443
3574
3658
3645
3600
3620
3769
4079
4561
5171
5784
6286
6646
6904
7067
7075
6881
6521
6062
5532
4928
4295
3723
3260
2825
2273
1559
784
83
-493
-1006
-1524
-2031
-2454
-2763
-3008
-3267
-3573
-3882
-4161
-4448
-4816
-5277
-5747
-6111
-6350
-6559
-6820
-7124
-7371
-7493
-7523
-7543
-7587
-7639
-7677
-7706
-7726
-7690
-7550
-7340
-7148
-7027
-6929
-6760
-6510
-6288
-6187
-6155
-6042
-5786
-5496
-5335
-5323
-5327
-5244
-5130
-5108
-5190
-5240
-5149
-4980
-4871
-4857
-4807
-4580
-4208
-3856
-3642
-3514
-3350
-3106
-2858
-2689
-2592
-2507
-2406
-2316
-2271
-2251
-2226
-2206
-2235
-2330
-2458
-2584
-2716
-2880
-3070
-3242
-3364
-3439
-3488
-3501
-3462
-3383
-3304
-3250
-3195
-3103
-2978
-2871
-2815
-2775
-2684
-2497
-2238
-1966
-1732
-1558
-1418
-1275
-1109
-948
-839
-782
-716
-588
-422
-301
-255
-203
-44
201
394
445
427
502
717
967
1132
1233
1383
1622
1877
2074
2233
2404
2561
2617
2559
2497
2531
2619
2627
2502
2354
2325
2419
2505
2455
2284
2099
1969
1846
1631
1292
907
573
300
12
-360
-792
-1200
-1539
-1848
-2189
-2557
-2882
-3109
-3250
-3365
-3494
-3633
-3754
-3834
-3868
-3867
-3861
-3874
-3890
-3856
-3722
-3491
-3224
-2961
-2716
-2489
-2287
-2142
-2081
-2124
-2268
-2470
-2656
-2765
-2802
-2819
-2832
-2787
-2622
-2358
-2111
-1975
-1941
-1905
-1783
-1607
-1475
-1429
-1397
-1265
-998
-685
-428
-224
3
282
532
664
717
835
1100
1442
1722
1901
2070
2324
2657
2979
3200
3289
3264
3190
3165
3253
3421
3562
3621
3664
3797
4035
4290
4484
4636
4808
4996
5122
5133
5061
4990
4975
5016
5088
5151
5182
5180
5185
5246
5347
5408
5362
5221
5065
4941
4813
4638
4435
4265
4140
3982
3729
3427
3183
3044
2927
2725
2431
2137
1921
1764
1608
1448
1318
1213
1060
805
501
268
166
132
69
-42
-143
-174
-140
-80
-25
4
-30
-153
-326
-450
-473
-457
-521
-707
-926
-1060
-1074
-1034
-1015
-1029
-1044
-1041
-1025
-1006
-978
-936
-897
-881
-894
-926
-953
-945
-893
-820
-765
-744
-749
-738
-698
-641
-582
-511
-414
-306
-231
-212
-226
-219
-162
-83
-40
-68
-150
-251
-340
-415
-487
-567
-649
-707
-720
-681
-607
-521
-420
-292
-139
0
78
95
109
181
310
443
528
585
681
861
1102
1333
1492
1568
1603
1656
1745
1827
1840
1776
1714
1732
1821
1896
1917
1966
2161
2496
2804
2915
2825
2657
2502
2316
2020
1630
1256
995
872
870
965
1114
1242
1300
1318
1364
1444
1489
1454
1396
1410
1520
1667
1811
1971
2163
2332
2387
2306
2167
2045
1919
1700
1342
904
487
121
-252
-693
-1176
-1603
-1894
-2048
-2127
-2182
-2225
-2241
-2216
-2140
-1990
-1754
-1471
-1196
-944
-664
-314
77
434
717
950
1159
1320
1402
1424
1445
1491
1524
1525
1559
1711
1961
2176
2249
2223
2237
2364
2526
2593
2534
2450
2457
2577
2737
2865
2941
2970
2955
2875
2708
2469
2207
1993
1864
1811
1819
1920
2168
2568
3024
3410
3653
3782
3845
3849
3782
3680
3617
3648
3739
3806
3815
3814
3870
4000
4136
4192
4156
4106
4129
4243
4376
4467
4544
4671
4858
5019
5054
4971
4879
4875
4932
4951
4885
4787
4745
4802
4910
5003
5052
5076
5104
5142
5177
5192
5194
5197
5201
5181
5127
5069
5038
5017
4941
4774
4581
4482
4531
4647
4686
4582
4407
4274
4206
4127
3953
3675
3372
3134
3011
3000
3057
3125
3155
3143
3133
3146
3146
3068
2874
2601
2345
2181
2119
2108
2085
2024
1951
1922
1949
1987
1973
1889
1777
1697
1675
1694
1722
1725
1683
1598
1502
1433
1402
1384
1361
1360
1415
1515
1589
1595
1566
1565
1610
1644
1601
1486
1365
1306
1319
1353
1360
1320
1256
1212
1196
1193
1187
1183
1196
1212
1191
1108
1010
954
949
936
865
752
665
640
654
668
682
717
767
797
784
757
775
866
994
1106
1188
1278
1422
1598
1745
1804
1788
1749
1707
1627
1465
1231
990
798
642
468
251
17
-191
-370
-552
-751
-951
-1145
-1371
-1670
-2005
-2258
-2339
-2293
-2271
-2360
-2487
-2525
-2443
-2351
-2355
-2443
-2516
-2539
-2563
-2630
-2695
-2690
-2627
-2578
-2572
-2559
-2499
-2414
-2356
-2305
-2207
-2072
-1988
-1994
-2034
-2017
-1953
-1913
-1936
-1963
-1936
-1880
-1850
-1825
-1732
-1576
-1486
-1560
-1715
-1768
-1645
-1474
-1421
-1487
-1528
-1435
-1271
-1170
-1174
-1197
-1174
-1134
-1156
-1243
-1308
-1275
-1177
-1107
-1107
-1124
-1092
-1019
-981
-1012
-1094
-1182
-1262
-1339
-1377
-1321
-1160
-966
-817
-731
-660
-546
-377
-186
-29
53
53
15
-12
-4
7
-35
-151
-317
-504
-682
-823
-901
-931
-976
-1092
-1265
-1418
-1499
-1536
-1602
-1752
-1966
-2175
-2299
-2301
-2208
-2099
-2046
-2043
-2030
-1981
-1957
-2049
-2256
-2468
-2580
-2607
-2641
-2732
-2841
-2907
-2931
-2955
-2996
-3038
-3076
-3153
-3287
-3422
-3471
-3414
-3326
-3269
-3244
-3234
-3280
-3444
-3704
-3943
-4102
-4256
-4511
-4830
-5055
-5087
-5000
-4932
-4895
-4798
-4615
-4463
-4465
-4567
-4581
-4405
-4121
-3877
-3709
-3512
-3185
-2757
-2342
-2033
-1853
-1777
-1775
-1819
-1869
-1886
-1858
-1814
-1781
-1761
-1733
-1666
-1561
-1463
-1437
-1499
-1590
-1618
-1543
-1419
-1335
-1329
-1330
-1249
-1093
-969
-976
-1088
-1166
-1106
-945
-804
-741
-680
-502
-208
79
242
314
438
709
1065
1382
1616
1853
2182
2585
2968
3269
3508
3748
4007
4244
4430
4575
4708
4835
4953
5070
5190
5309
5408
5471
5509
5556
5629
5719
5816
5913
5987
6001
5948
5874
5845
5862
5850
5742
5566
5422
5380
5399
5381
5288
5177
5123
5130
5144
5111
5026
4933
4862
4832
4831
4826
4779
4689
4619
4622
4680
4703
4623
4482
4391
4404
4465
4483
4427
4339
4258
4178
4083
3985
3906
3847
3785
3715
3681
3734
3862
3986
4026
3981
3918
3909
3962
4025
4025
3945
3835
3773
3799
3877
3928
3905
3828
3756
3733
3757
3788
3794
3781
3761
3739
3713
3691
3698
3751
3827
3881
3893
3887
3902
3942
3956
3890
3745
3568
3400
3241
3067
2884
2743
2678
2654
2601
2491
2382
2335
2333
2293
2174
2032
1948
1909
1826
1663
1492
1398
1369
1297
1123
906
752
699
693
670
608
520
419
319
222
116
-29
-215
-382
-460
-437
-365
-293
-220
-107
54
226
384
525
642
711
721
705
710
732
709
592
401
210
69
-24
-96
-167
-256
-384
-546
-686
-737
-700
-669
-743
-913
-1058
-1067
-959
-849
-802
-767
-674
-533
-402
-307
-222
-142
-125
-187
-227
-118
129
369
531
728
1102
1559
1791
1614
1195
861
702
471
-60
-765
-1263
-1329
-1122
-978
-1059
-1267
-1441
-1549
-1654
-1778
-1896
-2023
-2191
-2336
-2277
-1886
-1283
-799
-670
-798
-887
-795
-705
-874
-1287
-1636
-1666
-1478
-1354
-1343
-1126
-385
785
1870
2386
2234
1675
1003
292
-572
-1699
-3003
-4201
-4974
-5187
-4992
-4665
-4330
-3891
-3256
-2573
-2128
-2028
-2059
-1897
-1468
-972
-618
-404
-183
125
452
708
871
952
901
649
256
-66
-135
-8
42
-193
-645
-1067
-1279
-1275
-1052
-494
484
1651
2505
2726
2458
2090
1761
1211
176
-1182
-2362
-2976
-3049
-2851
-2564
-2189
-1709
-1216
-849
-652
-598
-668
-851
-1098
-1303
-1384
-1332
-1175
-924
-589
-255
-57
-52
-154
-213
-170
-92
-50
-17
103
319
542
673
717
757
834
914
959
986
1018
1029
959
804
625
470
337
207
108
77
72
-2
-162
-285
-241
-41
170
297
436
762
1316
1947
2464
2810
3090
3397
3701
3888
3912
3848
3816
3846
3869
3827
3746
3711
3758
3840
3893
3904
3914
3967
4069
4191
4290
4344
4350
4335
4332
4323
4239
4060
3859
3759
3814
3936
3970
3824
3532
3188
2857
2526
2136
1652
1103
578
186
-18
-55
18
163
370
628
856
950
842
574
256
-40
-354
-748
-1189
-1523
-1612
-1494
-1359
-1347
-1418
-1450
-1414
-1424
-1585
-1856
-2101
-2240
-2321
-2432
-2593
-2770
-2947
-3146
-3385
-3667
-4000
-4422
-4957
-5569
-6164
-6651
-7005
-7276
-7560
-7911
-8308
-8669
-8927
-9093
-9246
-9444
-9665
-9845
-9936
-9952
-9935
-9918
-9923
-9963
-10039
-10132
-10211
-10265
-10316
-10377
-10442
-10491
-10520
-10538
-10540
-10495
-10384
-10247
-10149
-10102
-10045
-9901
-9662
-9399
-9180
-8985
-8738
-8389
-7963
-7538
-7164
-6828
-6465
-6016
-5471
-4887
-4344
-3879
-3462
-3027
-2555
-2094
-1714
-1434
-1205
-964
-701
-442
-202
21
229
409
554
692
861
1055
1201
1251
1228
1218
1281
1396
1487
1518
1561
1721
2023
2373
2649
2822
2948
3061
3069
2818
2272
1616
1126
918
855
720
484
352
533
981
1396
1484
1200
726
255
-172
-620
-1113
-1584
-1944
-2180
-2321
-2383
-2351
-2239
-2137
-2156
-2333
-2575
-2739
-2764
-2711
-2678
-2677
-2639
-2506
-2323
-2202
-2208
-2303
-2389
-2426
-2453
-2525
-2632
-2694
-2645
-2489
-2295
-2110
-1918
-1679
-1397
-1139
-965
-857
-735
-542
-320
-159
-82
-17
143
415
707
914
1033
1164
1399
1716
1995
2144
2196
2276
2475
2757
2997
3118
3173
3286
3506
3754
3908
3938
3925
3972
4081
4175
4189
4145
4132
4210
4358
4522
4649
4720
4757
4796
4866
4976
5109
5247
5396
5576
5792
6014
6205
6358
6491
6606
6666
6630
6498
6315
6116
5898
5652
5383
5102
4811
4496
4152
3796
3456
3127
2788
2436
2097
1795
1536
1300
1077
885
722
554
344
70
-254
-608
-977
-1348
-1704
-2025
-2304
-2539
-2720
-2827
-2846
-2788
-2693
-2610
-2579
-2599
-2641
-2661
-2644
-2614
-2611
-2647
-2682
-2643
-2483
-2234
-2002
-1884
-1874
-1871
-1793
-1672
-1612
-1647
-1679
-1573
-1312
-999
-712
-418
-56
342
675
909
1126
1390
1648
1777
1759
1730
1825
2020
2181
2241
2280
2408
2612
2779
2845
2871
2961
3118
3236
3230
3144
3104
3169
3273
3314
3273
3228
3264
3386
3534
3662
3764
3853
3927
3994
4072
4186
4330
4462
4552
4618
4696
4791
4888
4972
5053
5132
5194
5222
5227
5232
5248
5266
5280
5305
5357
5423
5469
5478
5470
5470
5474
5450
5361
5205
5011
4823
4678
4577
4495
4413
4343
4319
4348
4392
4406
4386
4355
4321
4256
4120
3920
3701
3499
3319
3141
2953
2769
2607
2476
2375
2281
2156
1974
1736
1471
1214
979
764
554
335
95
-156
-392
-605
-829
-1113
-1468
-1834
-2140
-2379
-2596
-2819
-3007
-3109
-3146
-3209
-3353
-3538
-3699
-3837
-4026
-4302
-4600
-4819
-4919
-4960
-5024
-5132
-5234
-5265
-5209
-5098
-4964
-4771
-4433
-3903
-3268
-2741
-2500
-2557
-2771
-3020
-3315
-3739
-4296
-4849
-5211
-5265
-5011
-4529
-3930
-3331
-2809
-2378
-2021
-1737
-1583
-1597
-1718
-1807
-1764
-1607
-1421
-1240
-1009
-674
-281
55
271
436
686
1068
1493
1815
1986
2077
2160
2215
2196
2141
2130
2178
2209
2208
2322
2691
3192
3474
3358
3108
3167
3599
3950
3762
3153
2711
2831
3290
3564
3472
3336
3503
3913
4225
4260
4163
4145
4179
4086
3811
3513
3360
3326
3262
3103
2943
2886
2936
2989
2987
2991
3087
3280
3480
3607
3676
3758
3889
4030
4118
4133
4123
4170
4321
4567
4853
5119
5353
5581
5819
6021
6103
6031
5875
5767
5772
5827
5827
5751
5692
5738
5844
5867
5730
5492
5275
5106
4884
4527
4075
3665
3386
3200
3019
2818
2659
2609
2671
2788
2906
3020
3155
3322
3501
3639
3693
3661
3581
3482
3352
3168
2930
2700
2524
2378
2198
1974
1764
1626
1538
1416
1225
1019
876
804
749
673
620
651
748
824
829
806
825
856
777
520
194
-3
8
108
120
12
-81
-32
123
235
213
122
75
99
121
80
17
14
82
144
124
51
23
89
194
238
198
143
153
243
352
416
429
431
456
516
599
676
715
699
643
571
490
395
286
183
94
1
-118
-250
-352
-404
-446
-533
-674
-827
-956
-1066
-1182
-1323
-1474
-1615
-1732
-1815
-1870
-1917
-1978
-2045
-2087
-2078
-2048
-2048
-2092
-2137
-2131
-2078
-2036
-2061
-2140
-2205
-2196
-2122
-2050
-2045
-2089
-2094
-1994
-1835
-1734
-1744
-1789
-1750
-1604
-1444
-1362
-1347
-1319
-1237
-1138
-1056
-976
-867
-754
-699
-718
-750
-726
-642
-554
-505
-477
-433
-380
-352
-364
-388
-382
-356
-359
-422
-512
-556
-528
-493
-534
-660
-789
-849
-865
-928
-1072
-1223
-1275
-1217
-1133
-1113
-1173
-1258
-1316
-1342
-1360
-1397
-1461
-1535
-1572
-1526
-1390
-1217
-1078
-1000
-956
-906
-837
-781
-768
-793
-824
-833
-823
-814
-824
-852
-879
-888
-881
-881
-904
-946
-974
-956
-881
-783
-712
-688
-676
-635
-560
-509
-523
-595
-675
-736
-787
-853
-939
-1026
-1101
-1168
-1234
-1293
-1337
-1360
-1372
-1391
-1420
-1432
-1395
-1318
-1233
-1166
-1095
-972
-804
-666
-614
-607
-555
-436
-329
-319
-392
-446
-407
-303
-223
-219
-266
-316
-351
-395
-490
-670
-928
-1223
-1485
-1655
-1725
-1742
-1773
-1838
-1886
-1837
-1663
-1433
-1253
-1164
-1109
-1022
-935
-936
-1045
-1175
-1237
-1258
-1355
-1579
-1822
-1937
-1904
-1847
-1882
-1983
-2041
-2002
-1925
-1903
-1954
-2017
-2033
-2014
-1993
-1978
-1930
-1825
-1690
-1581
-1526
-1498
-1442
-1339
-1224
-1139
-1077
-993
-869
-745
-675
-669
-670
-629
-560
-514
-521
-559
-593
-607
-605
-599
-608
-642
-688
-709
-677
-622
-607
-653
-715
-734
-706
-683
-692
-697
-653
-565
-486
-444
-407
-328
-209
-97
-26
8
31
56
82
108
137
172
200
220
224
224
227
244
286
344
390
396
373
368
418
500
560
584
612
678
756
804
832
898
1028
1157
1214
1219
1264
1396
1548
1640
1686
1769
1918
2066
2149
2197
2294
2460
2621
2713
2756
2820
2928
3043
3131
3206
3292
3371
3411
3415
3432
3492
3554
3557
3499
3453
3477
3551
3588
3540
3468
3468
3554
3635
3625
3546
3487
3491
3513
3499
3469
3477
3522
3542
3503
3454
3457
3499
3495
3395
3247
3135
3087
3060
3007
2920
2825
2750
2708
2700
2709
2703
2659
2586
2526
2506
2510
2498
2446
2369
2297
2249
2215
2175
2118
2047
1979
1925
1893
1895
1918
1934
1926
1902
1886
1888
1888
1865
1823
1784
1745
1689
1618
1569
1566
1590
1599
1576
1546
1536
1547
1559
1570
1588
1606
1620
1640
1692
1767
1810
1792
1744
1722
1731
1736
1724
1717
1712
1648
1502
1370
1386
1523
1571
1370
1027
823
906
1119
1207
1108
1008
1096
1370
1686
1936
2108
2226
2294
2321
2342
2356
2289
2074
1766
1520
1431
1418
1361
1253
1206
1299
1451
1534
1519
1480
1448
1357
1191
1079
1176
1430
1564
1369
961
673
680
794
669
151
-599
-1288
-1715
-1881
-1963
-2198
-2740
-3510
-4218
-4597
-4664
-4691
-4923
-5321
-5610
-5573
-5238
-4800
-4428
-4151
-3939
-3777
-3671
-3597
-3501
-3385
-3329
-3398
-3546
-3654
-3665
-3639
-3663
-3737
-3820
-3939
-4138
-4295
-4109
-3375
-2264
-1242
-646
-424
-339
-323
-529
-1062
-1826
-2648
-3449
-4190
-4705
-4760
-4333
-3723
-3282
-3087
-2930
-2620
-2197
-1851
-1688
-1631
-1533
-1314
-993
-658
-394
-234
-181
-228
-385
-647
-954
-1185
-1242
-1121
-907
-707
-589
-550
-546
-530
-499
-483
-496
-498
-429
-303
-221
-257
-362
-414
-362
-278
-254
-269
-212
-33
195
384
558
813
1184
1578
1866
2040
2209
2472
2810
3112
3308
3445
3627
3904
4232
4529
4760
4971
5205
5451
5652
5772
5834
5892
5963
6009
5986
5891
5782
5713
5678
5621
5500
5335
5183
5076
4975
4828
4650
4494
4368
4198
3913
3552
3250
3091
3013
2876
2636
2392
2253
2206
2132
1948
1683
1414
1168
913
631
370
182
65
-29
-135
-250
-373
-518
-705
-926
-1149
-1355
-1550
-1739
-1909
-2035
-2116
-2165
-2204
-2271
-2406
-2633
-2929
-3224
-3473
-3683
-3900
-4143
-4379
-4569
-4734
-4927
-5172
-5426
-5630
-5786
-5956
-6181
-6407
-6523
-6482
-6374
-6346
-6457
-6619
-6683
-6618
-6559
-6660
-6924
-7196
-7324
-7309
-7295
-7406
-7623
-7827
-7953
-8055
-8245
-8561
-8936
-9277
-9553
-9796
-10030
-10228
-10337
-10342
-10274
-10165
-10009
-9798
-9568
-9394
-9314
-9275
-9173
-8945
-8613
-8251
-7903
-7558
-7171
-6714
-6198
-5655
-5102
-4543
-3980
-3406
-2796
-2123
-1402
-706
-116
362
795
1226
1602
1820
1884
1925
2079
2340
2573
2681
2704
2753
2886
3065
3214
3287
3272
3194
3120
3131
3248
3399
3508
3569
3633
3711
3751
3720
3684
3747
3887
3951
3812
3543
3361
3392
3517
3478
3148
2674
2330
2239
2265
2177
1904
1592
1436
1480
1588
1594
1449
1228
1022
841
636
369
79
-152
-291
-421
-656
-1007
-1340
-1521
-1560
-1614
-1822
-2135
-2366
-2397
-2291
-2211
-2234
-2283
-2246
-2099
-1933
-1857
-1880
-1896
-1785
-1538
-1272
-1105
-1034
-918
-635
-226
135
323
383
471
661
866
970
958
939
1010
1154
1280
1353
1422
1551
1741
1921
2002
1926
1698
1412
1227
1251
1442
1632
1700
1715
1860
2220
2657
2959
3049
3026
3015
3021
2964
2807
2609
2449
2336
2211
2053
1933
1927
2051
2227
2364
2446
2523
2645
2824
3035
3240
3390
3426
3337
3187
3100
3147
3287
3426
3536
3688
3957
4308
4623
4843
5030
5265
5518
5662
5624
5488
5404
5408
5397
5278
5094
4972
4965
4993
4948
4825
4707
4648
4622
4574
4488
4395
4324
4276
4247
4229
4201
4130
4018
3917
3873
3871
3851
3778
3668
3566
3496
3449
3407
3351
3255
3108
2930
2761
2622
2489
2329
2146
1966
1802
1647
1495
1362
1252
1152
1034
903
787
694
609
519
441
394
357
288
183
94
67
59
-23
-210
-426
-572
-653
-758
-938
-1126
-1223
-1228
-1245
-1353
-1497
-1556
-1493
-1402
-1393
-1468
-1525
-1493
-1401
-1345
-1376
-1463
-1536
-1549
-1518
-1479
-1452
-1421
-1359
-1256
-1126
-1018
-983
-1037
-1154
-1271
-1339
-1347
-1320
-1267
-1157
-944
-633
-294
-12
188
365
598
893
1171
1349
1423
1478
1586
1737
1852
1861
1777
1660
1545
1423
1288
1174
1124
1128
1111
972
707
438
273
181
36
-239
-591
-912
-1156
-1341
-1479
-1560
-1653
-1928
-2493
-3207
-3750
-3933
-3857
-3781
-3826
-3857
-3669
-3213
-2633
-2127
-1808
-1687
-1703
-1764
-1795
-1791
-1817
-1951
-2193
-2470
-2685
-2814
-2905
-3018
-3172
-3347
-3490
-3565
-3572
-3554
-3554
-3598
-3702
-3870
-4070
-4249
-4383
-4503
-4647
-4821
-4993
-5140
-5273
-5420
-5594
-5773
-5926
-6008
-5958
-5732
-5344
-4859
-4355
-3864
-3382
-2909
-2474
-2106
-1785
-1453
-1072
-665
-274
88
475
934
1455
1949
2346
2660
2969
3322
3701
4068
4411
4748
5083
5405
5734
6131
6640
7207
7714
8087
8374
8675
9014
9303
9412
9318
9136
9032
9083
9222
9327
9341
9333
9399
9539
9644
9605
9425
9207
9036
8925
8831
8735
8665
8631
8598
8515
8392
8292
8253
8238
8170
8026
7873
7805
7838
7906
7924
7874
7806
7775
7774
7773
7758
7742
7736
7721
7664
7565
7453
7359
7279
7183
7054
6895
6735
6604
6501
6403
6277
6124
5980
5867
5766
5636
5468
5307
5189
5088
4929
4676
4380
4118
3900
3665
3380
3104
2923
2855
2823
2755
2664
2602
2567
2505
2383
2240
2129
2044
1946
1835
1779
1822
1922
1986
1976
1948
1963
2005
1994
1884
1719
1571
1466
1373
1251
1091
912
740
602
514
466
412
318
206
138
147
197
209
149
57
-11
-50
-111
-222
-355
-459
-515
-549
-581
-595
-563
-504
-477
-527
-626
-715
-781
-857
-968
-1067
-1083
-990
-830
-670
-539
-423
-309
-189
-59
73
168
174
87
-13
-37
14
26
-101
-339
-570
-724
-863
-1094
-1434
-1775
-2011
-2144
-2269
-2463
-2698
-2881
-2968
-3008
-3078
-3209
-3343
-3405
-3384
-3355
-3395
-3494
-3567
-3559
-3510
-3498
-3535
-3544
-3470
-3345
-3265
-3256
-3254
-3188
-3064
-2943
-2850
-2752
-2626
-2490
-2365
-2226
-2034
-1800
-1589
-1445
-1322
-1150
-924
-714
-590
-547
-514
-432
-304
-193
-145
-165
-206
-213
-177
-141
-150
-192
-229
-241
-262
-322
-405
-458
-467
-472
-514
-581
-621
-617
-607
-640
-714
-782
-814
-821
-833
-871
-916
-937
-914
-861
-820
-822
-862
-909
-937
-955
-994
-1057
-1116
-1144
-1135
-1102
-1053
-984
-909
-856
-839
-843
-850
-859
-890
-935
-964
-950
-897
-840
-800
-768
-724
-661
-591
-527
-475
-448
-454
-475
-467
-398
-279
-164
-96
-58
9
146
309
417
422
358
290
226
114
-65
-246
-339
-356
-420
-600
-805
-868
-757
-639
-696
-911
-1082
-1058
-913
-839
-912
-1006
-965
-786
-618
-573
-611
-612
-534
-452
-448
-519
-590
-621
-643
-710
-834
-991
-1173
-1399
-1672
-1951
-2195
-2423
-2682
-2963
-3212
-3392
-3554
-3767
-4000
-4153
-4176
-4170
-4275
-4493
-4677
-4709
-4636
-4604
-4683
-4798
-4834
-4755
-4606
-4433
-4231
-4008
-3798
-3626
-3459
-3242
-2982
-2752
-2604
-2513
-2413
-2273
-2128
-2015
-1915
-1782
-1601
-1412
-1284
-1242
-1244
-1202
-1068
-890
-771
-754
-773
-724
-586
-433
-355
-352
-347
-271
-140
-13
76
133
193
261
304
272
159
49
61
241
506
735
899
1082
1363
1706
2006
2212
2369
2526
2655
2703
2684
2690
2782
2925
3035
3069
3062
3077
3134
3211
3269
3284
3253
3197
3146
3119
3108
3090
3051
2999
2944
2884
2819
2787
2842
2984
3114
3124
3015
2905
2896
2944
2936
2847
2772
2785
2823
2777
2671
2655
2799
2970
2978
2813
2651
2633
2708
2711
2572
2367
2199
2096
2022
1960
1912
1874
1837
1798
1770
1753
1744
1752
1784
1817
1790
1689
1572
1513
1518
1511
1419
1274
1162
1140
1179
1217
1241
1288
1394
1540
1663
1721
1735
1773
1871
1996
2080
2096
2083
2097
2145
2182
2170
2129
2097
2086
2072
2039
1995
1957
1924
1880
1819
1768
1748
1736
1686
1586
1483
1442
1468
1496
1453
1339
1227
1188
1224
1267
1253
1180
1107
1105
1185
1288
1339
1309
1238
1187
1178
1197
1220
1243
1272
1296
1300
1295
1299
1312
1314
1297
1288
1316
1372
1415
1416
1393
1374
1370
1368
1347
1282
1173
1064
1021
1072
1158
1196
1188
1232
1402
1659
1889
2038
2155
2290
2434
2561
2709
2919
3097
3051
2714
2299
2146
2350
2644
2684
2435
2243
2482
3172
3953
4417
4435
4177
3864
3542
3090
2406
1549
713
62
-389
-703
-893
-911
-749
-538
-457
-578
-822
-1073
-1310
-1592
-1916
-2203
-2374
-2444
-2490
-2548
-2602
-2665
-2822
-3114
-3465
-3746
-3909
-4038
-4226
-4444
-4559
-4477
-4266
-4092
-4065
-4141
-4170
-4041
-3786
-3538
-3401
-3371
-3361
-3331
-3336
-3458
-3665
-3795
-3713
-3485
-3320
-3385
-3611
-3779
-3768
-3700
-3825
-4265
-4903
-5505
-5938
-6208
-6366
-6403
-6266
-5951
-5523
-5058
-4581
-4068
-3517
-2967
-2463
-2020
-1632
-1288
-988
-726
-481
-261
-114
-84
-138
-199
-225
-249
-310
-405
-493
-580
-736
-992
-1273
-1469
-1575
-1690
-1842
-1932
-1848
-1602
-1315
-1047
-745
-350
98
505
859
1241
1690
2160
2596
3028
3516
4046
4513
4852
5103
5338
5576
5778
5944
6111
6287
6414
6442
6400
6359
6326
6226
5994
5679
5413
5296
5291
5317
5354
5455
5647
5835
5867
5647
5214
4688
4133
3517
2783
1959
1177
568
174
-70
-266
-479
-700
-887
-1027
-1150
-1307
-1538
-1850
-2219
-2597
-2931
-3190
-3381
-3554
-3764
-4013
-4235
-4350
-4347
-4326
-4405
-4603
-4815
-4924
-4930
-4927
-5000
-5118
-5179
-5150
-5081
-5039
-5022
-4971
-4880
-4821
-4861
-4973
-5057
-5033
-4911
-4776
-4697
-4678
-4691
-4714
-4737
-4743
-4710
-4647
-4588
-4559
-4523
-4401
-4160
-3856
-3579
-3382
-3258
-3177
-3118
-3068
-3034
-3019
-3049
-3125
-3184
-3153
-3032
-2903
-2848
-2846
-2807
-2697
-2584
-2557
-2626
-2724
-2792
-2843
-2916
-3017
-3107
-3153
-3163
-3149
-3097
-2993
-2848
-2697
-2574
-2476
-2394
-2362
-2433
-2635
-2897
-3093
-3131
-3031
-2908
-2836
-2772
-2607
-2280
-1848
-1454
-1195
-1068
-999
-922
-822
-716
-627
-592
-633
-730
-821
-837
-795
-782
-861
-1000
-1114
-1162
-1204
-1342
-1586
-1859
-2085
-2258
-2431
-2612
-2753
-2810
-2820
-2869
-2987
-3114
-3199
-3320
-3650
-4254
-4957
-5465
-5631
-5563
-5488
-5494
-5470
-5296
-4992
-4714
-4595
-4630
-4752
-4914
-5103
-5279
-5378
-5360
-5250
-5116
-5004
-4903
-4764
-4559
-4331
-4158
-4062
-3981
-3811
-3527
-3228
-3036
-2961
-2894
-2743
-2545
-2404
-2357
-2315
-2153
-1830
-1417
-1003
-643
-331
-31
283
599
842
947
953
995
1141
1312
1352
1238
1121
1122
1166
1079
856
700
778
1001
1139
1123
1142
1417
1916
2387
2625
2673
2746
2985
3354
3694
3876
3915
3948
4094
4358
4640
4843
4978
5127
5329
5531
5671
5760
5886
6070
6244
6324
6317
6314
6363
6408
6361
6207
6010
5812
5576
5248
4864
4549
4387
4314
4191
3955
3680
3481
3362
3214
2940
2562
2177
1854
1563
1234
851
471
159
-72
-292
-578
-921
-1225
-1400
-1467
-1544
-1707
-1882
-1933
-1831
-1721
-1760
-1947
-2126
-2161
-2067
-1993
-2063
-2263
-2474
-2577
-2547
-2453
-2387
-2374
-2357
-2249
-2020
-1701
-1340
-958
-565
-198
101
341
562
801
1037
1233
1381
1509
1623
1717
1818
1981
2216
2444
2574
2608
2652
2775
2934
3028
3044
3061
3143
3256
3332
3368
3421
3520
3622
3685
3728
3805
3930
4062
4169
4270
4394
4523
4600
4605
4576
4553
4529
4471
4375
4280
4226
4217
4231
4250
4259
4236
4152
4008
3850
3734
3675
3639
3581
3505
3472
3528
3649
3761
3813
3824
3843
3886
3932
3966
4016
4117
4259
4386
4454
4492
4554
4641
4682
4613
4467
4348
4304
4262
4113
3879
3741
3856
4163
4426
4479
4394
4366
4431
4396
4060
3470
2873
2438
2072
1574
907
242
-249
-585
-908
-1272
-1591
-1878
-2255
-2626
-2948
-3099
-3124
-3167
-3299
-3445
-3500
-3458
-3419
-3481
-3681
-4016
-4476
-5028
-5599
-6106
-6541
-6991
-7547
-8193
-8807
-9265
-9547
-9743
-9954
-10208
-10457
-10633
-10702
-10673
-10584
-10450
-10232
-9863
-9298
-8572
-7792
-7071
-6471
-5971
-5508
-5034
-4563
-4165
-3900
-3722
-3475
-3030
-2414
-1797
-1326
-978
-637
-266
42
192
202
179
189
223
268
354
518
732
921
1048
1145
1251
1373
1489
1607
1782
2068
2475
2947
3391
3734
3976
4193
4478
4852
5255
5604
5878
6142
6472
6886
7329
7718
8000
8196
8366
8573
8824
9066
9232
9302
9322
9343
9355
9323
9253
9206
9212
9210
9103
8896
8731
8725
8816
8828
8669
8453
8344
8348
8321
8152
7901
7698
7566
7411
7179
6933
6761
6652
6529
6384
6312
6379
6490
6475
6280
6028
5875
5840
5801
5665
5467
5305
5206
5094
4904
4665
4464
4319
4155
3906
3620
3432
3414
3489
3515
3437
3335
3312
3379
3459
3485
3467
3457
3486
3540
3601
3684
3808
3961
4102
4188
4203
4172
4133
4109
4102
4092
4070
4046
4028
4009
3963
3883
3787
3708
3667
3657
3657
3652
3638
3623
3616
3620
3622
3615
3612
3633
3677
3712
3707
3674
3678
3755
3870
3934
3905
3821
3743
3689
3606
3432
3177
2904
2668
2469
2261
2013
1761
1575
1476
1422
1330
1168
991
878
850
846
800
702
593
506
421
288
95
-117
-306
-486
-709
-1017
-1380
-1713
-1946
-2095
-2252
-2482
-2762
-3011
-3185
-3327
-3501
-3698
-3862
-3959
-4024
-4094
-4142
-4110
-4000
-3878
-3792
-3724
-3628
-3511
-3420
-3376
-3330
-3227
-3097
-3009
-2988
-2974
-2898
-2772
-2659
-2604
-2562
-2457
-2279
-2102
-1995
-1947
-1891
-1785
-1661
-1579
-1572
-1616
-1663
-1681
-1659
-1596
-1523
-1475
-1456
-1419
-1328
-1220
-1200
-1337
-1569
-1748
-1782
-1717
-1663
-1647
-1585
-1392
-1095
-813
-625
-496
-325
-84
118
157
46
-50
7
180
281
184
-32
-171
-145
-72
-106
-281
-481
-587
-601
-605
-662
-768
-877
-950
-981
-1016
-1122
-1309
-1486
-1532
-1432
-1328
-1388
-1613
-1829
-1864
-1729
-1597
-1590
-1668
-1693
-1598
-1453
-1358
-1350
-1376
-1372
-1326
-1284
-1286
-1318
-1341
-1324
-1286
-1288
-1369
-1509
-1636
-1679
-1627
-1547
-1515
-1536
-1537
-1440
-1257
-1088
-1031
-1093
-1198
-1281
-1345
-1433
-1571
-1725
-1842
-1893
-1902
-1928
-2000
-2074
-2067
-1966
-1864
-1864
-1936
-1949
-1832
-1696
-1715
-1902
-2064
-2023
-1833
-1709
-1766
-1884
-1861
-1655
-1403
-1244
-1172
-1095
-973
-846
-759
-698
-617
-522
-455
-426
-391
-309
-200
-125
-107
-106
-58
56
185
265
295
334
439
592
715
747
703
657
664
711
737
701
628
570
572
617
657
647
598
567
604
675
692
604
484
464
587
739
770
671
580
623
764
850
795
672
612
656
739
787
781
762
761
793
860
942
997
981
899
802
744
719
678
597
509
466
478
503
511
514
553
631
700
721
722
767
859
929
909
828
781
808
846
811
712
644
674
766
838
869
911
996
1093
1150
1168
1182
1211
1236
1232
1217
1233
1294
1383
1478
1574
1670
1766
1858
1947
2036
2118
2187
2252
2329
2406
2449
2442
2419
2429
2481
2520
2504
2461
2467
2556
2681
2764
2780
2778
2806
2869
2927
2934
2865
2732
2578
2451
2358
2267
2145
2019
1955
1973
2011
1989
1898
1791
1686
1548
1355
1158
1044
1032
1059
1080
1125
1248
1431
1599
1706
1776
1849
1902
1859
1686
1439
1226
1105
1041
955
808
641
544
568
657
694
619
482
383
361
360
309
210
123
93
100
100
95
121
192
268
289
238
157
106
103
124
138
134
132
165
234
310
348
335
302
300
347
405
409
342
260
238
288
345
334
254
177
173
237
297
294
228
148
96
86
97
97
64
-2
-76
-119
-111
-75
-71
-123
-196
-235
-222
-197
-209
-267
-335
-373
-371
-333
-271
-203
-151
-111
-51
70
260
507
826
1252
1764
2240
2523
2525
2292
1941
1559
1147
677
161
-312
-631
-730
-624
-400
-157
29
115
116
86
96
185
343
539
787
1143
1637
2200
2721
3141
3453
3638
3649
3495
3284
3145
3108
3126
3169
3241
3333
3422
3608
4167
5323
6882
8257
8940
8930
8602
8194
7526
6308
4581
2765
1273
228
-420
-634
-329
373
1062
1340
1189
924
759
526
-98
-1154
-2290
-3067
-3362
-3387
-3388
-3400
-3348
-3264
-3305
-3513
-3730
-3768
-3672
-3627
-3664
-3568
-3174
-2666
-2429
-2555
-2656
-2269
-1427
-669
-455
-647
-690
-240
475
952
980
792
751
937
1118
1056
777
517
435
465
423
233
-3
-138
-157
-207
-447
-854
-1250
-1479
-1562
-1649
-1822
-1976
-1921
-1600
-1169
-858
-760
-768
-721
-576
-456
-507
-733
-974
-1049
-879
-506
-12
553
1182
1868
2591
3336
4077
4759
5309
5698
5979
6235
6494
6709
6831
6877
6899
6913
6872
6758
6629
6566
6572
6568
6508
6437
6422
6436
6357
6112
5751
5392
5075
4737
4297
3736
3087
2370
1580
718
-165
-1028
-1891
-2810
-3801
-4790
-5667
-6394
-7039
-7676
-8297
-8807
-9144
-9337
-9468
-9558
-9557
-9439
-9253
-9086
-8944
-8745
-8430
-8059
-7766
-7590
-7429
-7157
-6779
-6447
-6309
-6382
-6571
-6784
-6998
-7225
-7462
-7681
-7828
-7823
-7609
-7204
-6708
-6217
-5737
-5188
-4532
-3844
-3243
-2766
-2336
-1860
-1348
-903
-607
-446
-338
-205
-42
101
172
165
128
119
158
217
264
304
353
393
384
315
217
123
17
-137
-340
-551
-748
-949
-1165
-1366
-1499
-1585
-1712
-1931
-2185
-2377
-2496
-2641
-2919
-3331
-3781
-4189
-4559
-4943
-5378
-5857
-6344
-6809
-7221
-7575
-7885
-8170
-8428
-8631
-8768
-8862
-8937
-8990
-8984
-8902
-8765
-8605
-8421
-8188
-7898
-7584
-7296
-7068
-6899
-6755
-6604
-6437
-6265
-6095
-5906
-5670
-5379
-5045
-4681
-4283
-3865
-3471
-3159
-2947
-2786
-2611
-2408
-2229
-2143
-2163
-2235
-2281
-2273
-2235
-2180
-2087
-1942
-1791
-1693
-1630
-1502
-1283
-1121
-1220
-1585
-1969
-2120
-2064
-2044
-2207
-2434
-2521
-2453
-2400
-2495
-2691
-2871
-3029
-3241
-3524
-3771
-3881
-3872
-3843
-3860
-3894
-3863
-3723
-3509
-3308
-3185
-3111
-2984
-2743
-2449
-2212
-2055
-1885
-1625
-1324
-1092
-933
-714
-320
202
684
1023
1282
1593
2000
2409
2692
2822
2888
3007
3206
3419
3570
3662
3765
3922
4097
4236
4340
4465
4638
4809
4913
4960
5003
5074
5150
5196
5219
5245
5257
5220
5141
5074
5050
5037
4976
4843
4674
4515
4392
4317
4292
4300
4311
4325
4401
4612
4954
5336
5668
5925
6134
6328
6510
6676
6821
6921
6948
6911
6864
6857
6854
6774
6596
6396
6263
6187
6072
5851
5574
5347
5204
5078
4886
4618
4317
4021
3726
3424
3128
2851
2585
2318
2071
1886
1779
1703
1594
1443
1295
1195
1141
1094
1020
921
823
738
665
605
550
488
410
322
245
184
102
-49
-280
-555
-819
-1059
-1298
-1549
-1784
-1965
-2091
-2194
-2291
-2365
-2401
-2428
-2491
-2595
-2682
-2700
-2672
-2668
-2714
-2758
-2726
-2614
-2490
-2414
-2375
-2320
-2230
-2137
-2072
-2019
-1933
-1795
-1641
-1522
-1454
-1402
-1316
-1180
-1009
-834
-669
-520
-379
-236
-75
109
301
481
645
814
1015
1247
1483
1698
1898
2096
2285
2437
2536
2606
2690
2818
2981
3169
3399
3700
4068
4443
4753
4986
5184
5373
5508
5530
5453
5375
5370
5412
5406
5317
5232
5249
5350
5413
5341
5174
5035
4984
4969
4910
4814
4735
4681
4603
4454
4267
4103
3949
3751
3506
3291
3189
3202
3255
3335
3498
3748
3986
4129
4223
4359
4489
4459
4252
4108
4263
4590
4647
4178
3436
2891
2693
2513
1973
1104
268
-253
-507
-687
-878
-1059
-1244
-1533
-1985
-2536
-3094
-3651
-4272
-5002
-5789
-6532
-7195
-7821
-8439
-9043
-9654
-10335
-11152
-12072
-12957
-13702
-14363
-15078
-15872
-16578
-17005
-17136
-17058
-16740
-15969
-14614
-12891
-11253
-9992
-9029
-8120
-7217
-6527
-6246
-6302
-6419
-6346
-6007
-5469
-4823
-4106
-3317
-2442
-1487
-511
393
1198
1973
2782
3612
4386
5079
5747
6453
7146
7685
8005
8225
8530
8971
9414
9699
9824
9921
10058
10125
9981
9635
9287
9159
9324
9707
10193
10728
11291
11874
12459
13032
13569
14016
14299
14380
14304
14169
14045
13915
13706
13389
13024
12709
12473
12264
12046
11851
11723
11651
11578
11468
11343
11232
11113
10952
10770
10588
10383
10084
9682
9285
9006
8825
8610
8302
8007
7889
7982
8168
8312
8376
8386
8355
8244
8022
7716
7380
7032
6662
6257
5837
5443
5087
4751
4404
4052
3729
3455
3208
2949
2698
2510
2412
2360
2288
2192
2118
2075
2000
1828
1585
1361
1217
1115
977
760
496
253
75
-50
-178
-368
-635
-920
-1118
-1189
-1196
-1234
-1336
-1435
-1455
-1410
-1384
-1435
-1540
-1627
-1663
-1687
-1749
-1834
-1863
-1762
-1539
-1289
-1103
-993
-888
-721
-517
-368
-336
-365
-321
-135
109
246
214
126
157
339
531
589
545
567
749
1001
1163
1195
1211
1318
1476
1566
1544
1485
1497
1601
1746
1853
1897
1894
1882
1873
1843
1748
1572
1363
1186
1055
924
760
598
494
436
328
103
-193
-448
-609
-719
-845
-1009
-1180
-1318
-1409
-1444
-1426
-1394
-1390
-1421
-1446
-1425
-1381
-1370
-1416
-1470
-1481
-1455
-1445
-1476
-1514
-1518
-1491
-1479
-1513
-1567
-1584
-1546
-1500
-1517
-1595
-1650
-1615
-1520
-1467
-1493
-1523
-1464
-1328
-1224
-1228
-1288
-1302
-1249
-1212
-1263
-1370
-1443
-1450
-1431
-1440
-1480
-1504
-1480
-1422
-1379
-1386
-1432
-1469
-1464
-1423
-1390
-1385
-1388
-1373
-1344
-1333
-1344
-1354
-1347
-1356
-1408
-1470
-1460
-1333
-1137
-970
-883
-838
-771
-665
-556
-490
-489
-536
-590
-605
-549
-444
-350
-322
-356
-404
-445
-512
-641
-801
-912
-923
-861
-774
-673
-527
-332
-129
50
216
385
522
565
507
431
423
471
486
410
283
182
131
83
4
-98
-200
-315
-468
-644
-795
-904
-1022
-1210
-1457
-1681
-1821
-1901
-1980
-2067
-2114
-2098
-2058
-2042
-2041
-1994
-1884
-1766
-1701
-1675
-1635
-1553
-1463
-1404
-1377
-1358
-1336
-1314
-1280
-1215
-1124
-1048
-1027
-1045
-1055
-1041
-1038
-1088
-1191
-1314
-1442
-1579
-1739
-1906
-2062
-2218
-2404
-2619
-2828
-3013
-3185
-3368
-3564
-3751
-3921
-4088
-4260
-4416
-4538
-4648
-4781
-4939
-5071
-5137
-5151
-5159
-5180
-5187
-5152
-5082
-5004
-4924
-4814
-4665
-4511
-4396
-4317
-4225
-4085
-3906
-3733
-3580
-3408
-3177
-2895
-2612
-2358
-2118
-1867
-1615
-1409
-1270
-1159
-1026
-873
-744
-659
-575
-435
-247
-80
10
38
63
117
182
223
243
274
340
421
476
493
501
538
606
660
662
625
613
690
852
1029
1140
1162
1141
1143
1190
1250
1279
1272
1268
1302
1374
1473
1591
1720
1831
1893
1903
1891
1889
1905
1925
1946
1989
2062
2155
2245
2329
2424
2532
2622
2656
2633
2597
2596
2636
2678
2682
2660
2668
2741
2846
2908
2885
2811
2757
2742
2718
2628
2474
2319
2228
2213
2230
2238
2234
2240
2272
2318
2344
2330
2294
2265
2251
2233
2188
2135
2117
2152
2214
2260
2282
2311
2369
2423
2408
2307
2181
2117
2130
2149
2108
2023
1974
2016
2106
2166
2166
2138
2120
2104
2054
1966
1872
1811
1787
1773
1734
1655
1558
1494
1493
1537
1559
1524
1478
1483
1541
1569
1486
1291
1052
838
672
542
445
394
412
512
676
840
935
966
1026
1194
1438
1623
1671
1673
1795
2081
2382
2517
2472
2411
2475
2629
2727
2697
2620
2619
2704
2775
2762
2706
2704
2784
2869
2886
2864
2874
2925
2944
2874
2728
2543
2310
2008
1690
1457
1335
1252
1198
1350
1944
2949
3971
4563
4609
4356
4061
3685
2992
1894
624
-458
-1132
-1382
-1289
-947
-471
-18
289
436
486
464
331
77
-197
-348
-318
-168
0
158
318
430
349
-54
-752
-1564
-2296
-2873
-3305
-3612
-3787
-3844
-3829
-3768
-3654
-3490
-3330
-3225
-3141
-3026
-2895
-2847
-2923
-3056
-3144
-3209
-3379
-3699
-4040
-4221
-4234
-4245
-4382
-4578
-4652
-4506
-4215
-3934
-3732
-3550
-3275
-2883
-2469
-2136
-1878
-1579
-1149
-671
-306
-101
77
363
666
731
422
-92
-501
-685
-815
-1088
-1468
-1714
-1656
-1364
-1045
-818
-647
-445
-197
38
225
382
538
694
858
1053
1296
1544
1747
1910
2089
2308
2504
2577
2535
2493
2552
2677
2731
2632
2436
2272
2196
2157
2071
1933
1795
1690
1598
1494
1398
1341
1319
1293
1248
1225
1285
1422
1577
1699
1803
1938
2110
2266
2345
2333
2262
2171
2078
1976
1858
1737
1635
1565
1518
1479
1457
1487
1588
1721
1811
1826
1810
1829
1860
1822
1672
1463
1289
1154
996
793
623
560
568
522
361
152
10
-48
-115
-275
-493
-664
-722
-705
-694
-736
-810
-873
-926
-1015
-1182
-1419
-1674
-1900
-2080
-2217
-2334
-2472
-2715
-3104
-3582
-4019
-4338
-4604
-4930
-5318
-5627
-5733
-5680
-5642
-5743
-5967
-6219
-6450
-6679
-6934
-7188
-7389
-7496
-7498
-7422
-7318
-7222
-7150
-7098
-7069
-7090
-7193
-7384
-7633
-7880
-8060
-8122
-8097
-8093
-8199
-8365
-8384
-8092
-7572
-7123
-6997
-7162
-7382
-7499
-7603
-7892
-8403
-8948
-9300
-9374
-9241
-8985
-8649
-8255
-7856
-7505
-7204
-6943
-6752
-6672
-6661
-6585
-6330
-5922
-5488
-5096
-4696
-4203
-3656
-3187
-2896
-2741
-2589
-2349
-2000
-1582
-1153
-776
-488
-269
-56
185
417
558
581
554
567
649
779
974
1286
1724
2202
2629
3023
3463
3953
4372
4613
4716
4793
4818
4616
4117
3541
3228
3263
3382
3295
3051
2970
3244
3699
3979
3898
3569
3211
2910
2584
2151
1653
1224
948
773
587
338
102
4
38
15
-285
-873
-1492
-1852
-1894
-1797
-1749
-1747
-1636
-1328
-930
-637
-522
-488
-420
-331
-330
-459
-621
-678
-615
-548
-570
-671
-765
-817
-888
-1038
-1243
-1434
-1594
-1769
-1968
-2128
-2186
-2163
-2154
-2219
-2326
-2410
-2451
-2478
-2493
-2451
-2318
-2131
-1983
-1927
-1933
-1940
-1928
-1914
-1909
-1897
-1869
-1841
-1826
-1783
-1651
-1441
-1258
-1213
-1286
-1306
-1117
-742
-367
-159
-118
-121
-76
-18
-69
-302
-674
-1060
-1327
-1394
-1262
-1003
-719
-492
-348
-283
-297
-411
-650
-1012
-1457
-1907
-2272
-2480
-2523
-2465
-2387
-2321
-2255
-2178
-2136
-2186
-2324
-2471
-2531
-2474
-2355
-2233
-2122
-2000
-1842
-1635
-1371
-1056
-720
-426
-227
-120
-48
34
122
166
152
129
171
310
536
829
1180
1582
1976
2274
2419
2449
2458
2520
2616
2691
2723
2758
2855
3014
3183
3332
3466
3573
3618
3573
3498
3521
3731
4069
4387
4578
4670
4775
4961
5200
5401
5517
5573
5625
5712
5811
5880
5892
5856
5790
5688
5536
5346
5177
5083
5063
5062
5037
5009
5022
5093
5190
5262
5265
5187
5035
4855
4731
4704
4743
4787
4809
4839
4904
4985
5044
5095
5190
5338
5493
5619
5741
5906
6090
6217
6246
6217
6183
6132
6017
5859
5749
5744
5787
5757
5595
5338
5050
4754
4440
4117
3804
3507
3238
3053
3036
3193
3413
3561
3595
3587
3613
3657
3619
3427
3131
2864
2736
2742
2771
2729
2618
2537
2568
2699
2832
2875
2780
2538
2195
1864
1658
1570
1424
1028
382
-287
-747
-997
-1247
-1689
-2298
-2889
-3300
-3508
-3587
-3608
-3607
-3605
-3603
-3592
-3572
-3584
-3686
-3912
-4238
-4605
-4960
-5266
-5499
-5658
-5781
-5930
-6120
-6296
-6415
-6556
-6898
-7529
-8281
-8825
-8996
-8985
-9161
-9727
-10532
-11265
-11781
-12206
-12749
-13470
-14247
-14919
-15415
-15741
-15907
-15866
-15594
-15173
-14767
-14483
-14247
-13856
-13204
-12440
-11829
-11448
-11085
-10473
-9629
-8854
-8380
-8066
-7546
-6633
-5499
-4428
-3471
-2429
-1167
153
1230
1909
2281
2514
2684
2803
2950
3271
3829
4516
5149
5675
6175
6727
7282
7686
7843
7808
7717
7643
7579
7513
7502
7636
7889
8113
8172
8097
8061
8182
8391
8531
8555
8565
8663
8802
8856
8785
8690
8691
8793
8931
9071
9246
9495
9814
10177
10570
10965
11324
11628
11924
12284
12688
13016
13166
13205
13292
13490
13669
13636
13362
13015
12763
12623
12470
12221
11930
11700
11552
11419
11251
11075
10922
10739
10446
10050
9688
9489
9454
9472
9436
9333
9231
9191
9230
9312
9379
9373
9263
9072
8868
8719
8636
8580
8496
8353
8165
7972
7805
7671
7540
7385
7194
6969
6718
6463
6237
6037
5813
5501
5099
4685
4347
4100
3888
3656
3420
3226
3084
2949
2802
2683
2648
2688
2728
2701
2614
2540
2536
2587
2614
2563
2460
2381
2364
2354
2278
2152
2079
2119
2202
2203
2114
2056
2123
2246
2274
2168
2052
2043
2098
2080
1950
1814
1768
1769
1691
1488
1250
1071
932
742
473
192
-28
-202
-406
-697
-1039
-1338
-1541
-1689
-1872
-2128
-2398
-2587
-2669
-2726
-2846
-3020
-3157
-3195
-3184
-3220
-3337
-3462
-3504
-3448
-3368
-3343
-3379
-3414
-3396
-3338
-3291
-3282
-3288
-3274
-3244
-3222
-3224
-3222
-3189
-3126
-3054
-2999
-2974
-2966
-2940
-2861
-2744
-2660
-2678
-2766
-2816
-2757
-2649
-2614
-2685
-2757
-2722
-2598
-2505
-2506
-2542
-2527
-2458
-2393
-2361
-2335
-2292
-2254
-2257
-2287
-2300
-2280
-2261
-2262
-2264
-2231
-2178
-2142
-2143
-2154
-2143
-2106
-2066
-2031
-1992
-1938
-1870
-1790
-1693
-1581
-1475
-1404
-1378
-1370
-1344
-1288
-1227
-1182
-1159
-1136
-1101
-1064
-1041
-1031
-1025
-1016
-1022
-1051
-1078
-1069
-1023
-993
-1036
-1137
-1217
-1217
-1159
-1115
-1113
-1104
-1026
-878
-728
-648
-651
-700
-764
-838
-924
-1005
-1054
-1051
-995
-898
-768
-602
-417
-238
-106
-44
-35
-33
-3
46
62
14
-67
-109
-83
-56
-125
-303
-488
-586
-609
-652
-764
-884
-935
-939
-989
-1152
-1396
-1660
-1920
-2170
-2374
-2474
-2464
-2403
-2320
-2169
-1899
-1537
-1189
-914
-660
-360
-50
162
228
239
320
498
678
758
740
706
730
810
914
1001
1045
1031
956
845
740
665
595
483
308
104
-74
-190
-251
-304
-397
-549
-742
-931
-1101
-1265
-1436
-1601
-1720
-1787
-1843
-1928
-2038
-2122
-2160
-2183
-2228
-2289
-2324
-2316
-2294
-2291
-2304
-2304
-2287
-2277
-2282
-2277
-2243
-2191
-2157
-2147
-2128
-2077
-2010
-1968
-1963
-1971
-1967
-1951
-1938
-1930
-1910
-1877
-1845
-1817
-1777
-1714
-1659
-1646
-1667
-1668
-1619
-1567
-1572
-1626
-1646
-1577
-1475
-1432
-1460
-1462
-1365
-1215
-1127
-1131
-1145
-1084
-962
-867
-840
-831
-771
-657
-536
-434
-323
-175
5
178
328
465
601
743
895
1061
1218
1332
1412
1511
1672
1850
1959
1983
2009
2108
2216
2198
2043
1920
1990
2194
2327
2299
2265
2412
2717
2976
3063
3057
3093
3159
3123
2941
2738
2646
2645
2616
2513
2422
2429
2503
2540
2488
2384
2271
2150
2001
1833
1665
1499
1333
1194
1120
1100
1068
963
798
646
559
531
513
465
389
326
334
443
607
729
748
694
650
653
669
662
667
742
880
1006
1074
1126
1229
1366
1448
1423
1342
1297
1314
1345
1343
1324
1342
1414
1513
1598
1647
1667
1672
1675
1684
1702
1723
1713
1619
1416
1170
999
961
974
892
682
486
466
613
745
718
579
478
470
476
405
285
197
157
123
85
82
120
132
77
13
24
93
111
22
-130
-279
-415
-555
-682
-748
-755
-728
-642
-441
-170
19
51
79
347
864
1345
1509
1412
1391
1674
2133
2444
2428
2180
1943
1866
1934
2036
2063
1990
1873
1790
1766
1795
1888
2102
2457
2838
3054
3031
2913
2904
3023
3062
2822
2360
1966
1861
1984
2085
1998
1809
1702
1710
1662
1369
857
360
95
57
68
4
-41
110
424
630
457
-62
-629
-1008
-1266
-1637
-2193
-2728
-2963
-2837
-2569
-2450
-2614
-2965
-3289
-3430
-3391
-3306
-3300
-3383
-3444
-3371
-3160
-2885
-2614
-2383
-2221
-2133
-2070
-1955
-1776
-1624
-1587
-1610
-1523
-1211
-787
-456
-273
-104
187
566
867
1006
1056
1137
1254
1321
1299
1247
1220
1191
1098
966
894
909
943
914
841
829
930
1098
1250
1340
1347
1272
1175
1155
1237
1295
1147
778
402
272
423
642
705
586
428
361
393
442
433
350
228
127
84
100
144
202
305
478
703
914
1078
1247
1493
1822
2160
2441
2693
3006
3415
3854
4224
4503
4763
5064
5361
5549
5597
5613
5739
5995
6257
6392
6418
6476
6652
6868
6965
6880
6694
6526
6380
6161
5806
5371
4955
4596
4264
3937
3625
3335
3020
2623
2139
1617
1103
604
114
-365
-852
-1390
-1991
-2580
-3049
-3384
-3680
-4038
-4441
-4774
-4970
-5092
-5257
-5515
-5815
-6072
-6259
-6398
-6511
-6574
-6539
-6393
-6200
-6051
-5986
-5962
-5915
-5854
-5866
-6017
-6271
-6515
-6684
-6791
-6882
-6967
-7043
-7127
-7255
-7433
-7614
-7759
-7869
-7967
-8037
-8020
-7910
-7775
-7703
-7721
-7773
-7818
-7904
-8110
-8424
-8716
-8856
-8847
-8789
-8749
-8691
-8561
-8395
-8281
-8241
-8193
-8073
-7945
-7945
-8104
-8287
-8332
-8232
-8120
-8104
-8143
-8092
-7886
-7625
-7424
-7270
-7066
-6800
-6570
-6448
-6376
-6263
-6148
-6151
-6261
-6303
-6209
-6195
-6538
-7123
-7441
-7147
-6499
-6086
-6119
-6170
-5709
-4746
-3799
-3301
-3225
-3288
-3370
-3529
-3735
-3799
-3603
-3259
-2943
-2652
-2205
-1528
-770
-124
346
671
848
838
704
640
811
1165
1474
1565
1490
1456
1574
1739
1757
1531
1174
897
827
927
1078
1205
1314
1440
1575
1660
1614
1370
925
386
-71
-346
-499
-676
-911
-1043
-894
-488
-60
182
251
308
449
613
695
696
709
801
944
1070
1167
1261
1368
1456
1501
1529
1593
1727
1901
2070
2213
2324
2380
2341
2207
2069
2040
2143
2275
2309
2233
2169
2216
2327
2357
2245
2090
2048
2163
2332
2450
2539
2697
2950
3198
3320
3316
3284
3292
3314
3282
3199
3148
3201
3323
3424
3463
3479
3532
3622
3694
3713
3697
3711
3826
4040
4281
4472
4592
4691
4810
4916
4922
4804
4649
4581
4623
4673
4623
4473
4324
4238
4167
4019
3771
3488
3229
2986
2703
2349
1955
1578
1259
993
740
471
184
-100
-362
-577
-734
-844
-933
-1058
-1257
-1524
-1809
-2078
-2340
-2612
-2877
-3093
-3226
-3264
-3201
-3040
-2821
-2609
-2446
-2327
-2220
-2127
-2080
-2074
-2049
-1950
-1785
-1616
-1477
-1340
-1177
-989
-808
-639
-463
-284
-130
-4
133
302
472
596
701
865
1118
1405
1677
1987
2419
2941
3376
3587
3631
3675
3766
3772
3588
3333
3281
3574
4090
4604
5023
5437
5957
6570
7153
7600
7883
8042
8148
8270
8441
8645
8846
9028
9221
9442
9662
9826
9926
10014
10130
10238
10284
10278
10281
10316
10358
10401
10492
10645
10759
10727
10594
10522
10537
10388
9808
8893
8094
7758
7761
7698
7388
7066
7033
7263
7448
7376
7108
6785
6421
5945
5404
4969
4736
4636
4524
4323
4096
3951
3938
4003
3999
3769
3289
2704
2212
1893
1631
1236
596
-256
-1172
-1984
-2586
-2986
-3284
-3586
-3900
-4140
-4205
-4081
-3860
-3695
-3712
-3948
-4362
-4909
-5603
-6435
-7352
-8243
-9067
-9873
-10650
-11244
-11542
-11692
-12057
-12880
-14032
-15126
-15962
-16739
-17786
-19087
-20185
-20579
-20212
-19537
-19118
-19153
-19390
-19504
-19475
-19565
-19957
-20484
-20753
-20504
-19754
-18663
-17348
-15902
-14504
-13381
-12685
-12375
-12328
-12458
-12712
-13005
-13226
-13317
-13303
-13229
-13018
-12503
-11659
-10703
-9920
-9395
-8916
-8209
-7283
-6411
-5780
-5214
-4369
-3187
-1946
-859
228
1601
3224
4676
5662
6352
7132
8065
8849
9240
9416
9768
10445
11247
11938
12506
13096
13731
14275
14615
14821
15065
15424
15814
16113
16301
16505
16853
17308
17647
17659
17400
17201
17350
17775
18132
18212
18186
18390
18843
19168
18980
18310
17569
17096
16822
16419
15703
14837
14147
13791
13629
13423
13088
12730
12465
12261
11985
11589
11205
10989
10927
10858
10672
10448
10339
10375
10405
10251
9898
9502
9227
9110
9068
8982
8792
8525
8272
8102
8008
7931
7832
7721
7624
7520
7366
7150
6918
6740
6635
6550
6433
6310
6283
6412
6607
6627
6295
5678
5027
4535
4170
3785
3366
3101
3198
3653
4284
4908
5471
5974
6369
6542
6399
5958
5353
4768
4324
4018
3773
3547
3394
3383
3469
3497
3348
3061
2764
2502
2191
1746
1214
742
421
191
-65
-400
-750
-1016
-1157
-1210
-1242
-1284
-1350
-1451
-1576
-1681
-1705
-1645
-1579
-1557
-1526
-1389
-1174
-1058
-1191
-1491
-1689
-1607
-1370
-1251
-1368
-1560
-1574
-1351
-1081
-996
-1159
-1430
-1649
-1786
-1909
-2089
-2306
-2491
-2612
-2703
-2808
-2922
-3028
-3134
-3260
-3401
-3524
-3628
-3727
-3802
-3792
-3680
-3568
-3580
-3699
-3774
-3727
-3687
-3838
-4158
-4396
-4358
-4127
-3940
-3879
-3792
-3521
-3128
-2829
-2744
-2781
-2786
-2729
-2703
-2788
-2937
-3030
-2992
-2853
-2712
-2630
-2612
-2617
-2603
-2566
-2548
-2586
-2670
-2741
-2728
-2617
-2458
-2331
-2277
-2263
-2231
-2156
-2084
-2056
-2054
-2027
-1962
-1896
-1857
-1817
-1746
-1705
-1812
-2086
-2366
-2434
-2241
-1959
-1767
-1645
-1410
-963
-426
-36
90
29
-78
-187
-354
-622
-938
-1203
-1359
-1416
-1416
-1389
-1351
-1304
-1244
-1185
-1175
-1239
-1340
-1412
-1437
-1456
-1506
-1560
-1582
-1591
-1647
-1754
-1832
-1819
-1771
-1784
-1834
-1768
-1488
-1110
-856
-822
-901
-954
-986
-1104
-1359
-1684
-1977
-2218
-2430
-2580
-2602
-2498
-2368
-2304
-2284
-2218
-2095
-1997
-1981
-1986
-1914
-1767
-1645
-1585
-1474
-1173
-723
-352
-230
-278
-266
-94
114
200
165
129
156
187
162
119
122
144
93
-61
-232
-336
-397
-491
-644
-805
-948
-1097
-1266
-1427
-1554
-1665
-1797
-1935
-2023
-2068
-2163
-2385
-2688
-2940
-3057
-3079
-3095
-3120
-3060
-2814
-2373
-1846
-1358
-974
-661
-354
-46
184
266
209
116
89
158
289
431
567
688
787
859
911
949
955
901
799
697
628
579
526
473
456
491
533
524
465
430
465
526
505
367
197
111
113
99
7
-82
-35
164
350
343
153
-29
-23
163
374
480
494
520
638
839
1050
1202
1273
1287
1288
1304
1319
1303
1261
1244
1308
1447
1594
1695
1761
1859
2019
2207
2370
2478
2544
2593
2637
2673
2697
2708
2700
2682
2675
2688
2701
2684
2632
2579
2560
2545
2459
2279
2076
1961
1973
2027
2009
1906
1802
1769
1769
1723
1613
1505
1461
1460
1437
1381
1321
1274
1210
1108
1014
995
1060
1146
1199
1250
1370
1575
1788
1910
1914
1852
1788
1737
1688
1646
1639
1686
1774
1877
1987
2112
2233
2295
2262
2169
2101
2114
2180
2226
2229
2241
2316
2441
2534
2527
2434
2313
2205
2110
2011
1920
1868
1871
1914
1974
2024
2050
2049
2039
2044
2064
2071
2037
1970
1909
1892
1930
2005
2086
2135
2132
2111
2139
2233
2306
2242
2023
1776
1636
1599
1542
1386
1180
1037
987
966
912
830
762
744
788
875
945
921
799
692
739
932
1089
1038
810
580
438
290
-5
-437
-842
-1085
-1191
-1262
-1332
-1315
-1121
-773
-421
-205
-117
-25
181
463
669
726
729
803
940
1037
1104
1317
1760
2223
2421
2413
2639
3383
4328
4796
4459
3630
2815
2094
1144
-201
-1614
-2615
-3069
-3182
-3109
-2732
-1913
-821
149
755
1092
1379
1672
1864
1909
1915
2009
2185
2358
2509
2722
3025
3305
3384
3222
2942
2721
2660
2739
2877
2979
2976
2845
2609
2302
1924
1454
870
170
-622
-1472
-2280
-2883
-3157
-3122
-2942
-2763
-2572
-2248
-1740
-1179
-774
-607
-592
-598
-608
-668
-753
-719
-447
10
444
718
872
1009
1134
1107
807
258
-405
-1080
-1738
-2340
-2803
-3056
-3110
-3052
-2942
-2778
-2550
-2294
-2071
-1907
-1791
-1706
-1661
-1670
-1739
-1850
-1959
-2017
-2011
-1986
-2018
-2126
-2238
-2256
-2158
-2012
-1871
-1706
-1442
-1077
-697
-396
-191
-47
45
22
-159
-444
-687
-763
-627
-300
180
753
1322
1771
2057
2253
2457
2659
2727
2569
2316
2260
2584
3179
3773
4197
4522
4906
5350
5711
5892
5955
6034
6174
6323
6444
6585
6805
7077
7298
7394
7352
7207
7004
6787
6589
6427
6275
6079
5791
5375
4820
4166
3503
2912
2381
1808
1120
338
-447
-1158
-1792
-2378
-2927
-3437
-3886
-4242
-4464
-4530
-4446
-4220
-3853
-3401
-3033
-2953
-3232
-3746
-4324
-4929
-5661
-6575
-7533
-8293
-8725
-8860
-8800
-8598
-8274
-7886
-7537
-7289
-7111
-6932
-6718
-6523
-6408
-6355
-6270
-6047
-5670
-5235
-4864
-4595
-4376
-4171
-4034
-4061
-4240
-4441
-4537
-4523
-4505
-4556
-4632
-4623
-4488
-4304
-4185
-4188
-4277
-4391
-4513
-4687
-4949
-5277
-5598
-5848
-6026
-6172
-6327
-6511
-6737
-7007
-7295
-7559
-7784
-8009
-8284
-8594
-8859
-9011
-9069
-9130
-9236
-9342
-9354
-9242
-9079
-8950
-8880
-8822
-8727
-8596
-8451
-8302
-8137
-7952
-7758
-7571
-7389
-7200
-7000
-6780
-6515
-6170
-5754
-5319
-4902
-4494
-4057
-3578
-3067
-2537
-1995
-1481
-1050
-706
-362
53
503
837
959
926
868
830
744
594
494
573
823
1117
1374
1636
1978
2346
2574
2563
2361
2107
1875
1646
1384
1108
867
679
525
380
230
68
-123
-354
-613
-868
-1100
-1333
-1593
-1843
-2007
-2086
-2197
-2446
-2792
-3070
-3202
-3311
-3533
-3796
-3896
-3807
-3773
-4015
-4384
-4492
-4198
-3783
-3587
-3537
-3255
-2570
-1764
-1221
-973
-727
-289
174
393
358
314
455
724
943
1051
1145
1326
1598
1880
2083
2165
2157
2128
2134
2180
2224
2247
2281
2350
2411
2383
2236
2035
1888
1842
1857
1864
1844
1832
1863
1929
2004
2074
2138
2189
2189
2109
1968
1815
1700
1652
1706
1914
2315
2888
3556
4243
4899
5494
6008
6421
6726
6918
6993
6960
6875
6811
6804
6833
6840
6794
6704
6595
6476
6336
6155
5912
5602
5251
4917
4641
4412
4193
3963
3734
3521
3303
3047
2756
2467
2215
1995
1767
1502
1217
967
816
798
889
1021
1129
1196
1240
1283
1311
1275
1143
922
666
445
305
256
274
325
382
440
502
580
664
720
712
629
505
382
283
195
106
32
0
11
27
19
-3
-14
3
38
69
69
30
-32
-81
-85
-49
-5
32
72
109
96
-7
-161
-252
-195
-21
176
353
571
903
1331
1765
2128
2419
2661
2850
2967
3023
3068
3145
3264
3414
3592
3805
4040
4253
4411
4517
4589
4636
4645
4593
4495
4408
4392
4450
4518
4531
4487
4437
4408
4368
4266
4128
4058
4143
4341
4517
4587
4598
4664
4828
5003
5049
4904
4605
4226
3819
3416
3064
2815
2684
2638
2633
2647
2685
2739
2755
2665
2416
2000
1460
869
299
-210
-686
-1189
-1745
-2304
-2767
-3102
-3386
-3711
-4072
-4368
-4559
-4749
-5082
-5536
-5896
-6002
-5976
-6114
-6533
-7050
-7458
-7847
-8502
-9492
-10507
-11200
-11604
-12069
-12793
-13523
-13871
-13796
-13660
-13770
-14013
-14023
-13649
-13108
-12699
-12430
-12022
-11269
-10304
-9422
-8705
-7888
-6687
-5209
-3920
-3210
-3042
-3068
-3037
-3025
-3246
-3723
-4190
-4273
-3711
-2455
-664
1315
3066
4320
5079
5493
5611
5319
4529
3389
2285
1621
1631
2308
3438
4729
5947
6980
7809
8427
8780
8849
8740
8607
8569
8651
8844
9166
9605
10047
10326
10354
10180
9940
9739
9608
9528
9479
9456
9462
9485
9502
9495
9464
9425
9372
9312
9267
9262
9294
9288
9201
9069
9009
9079
9189
9173
8986
8782
8748
8914
9118
9201
9195
9259
9473
9737
9891
9884
9822
9817
9849
9799
9611
9383
9265
9287
9324
9247
9073
8960
8995
9111
9134
8990
8782
8663
8685
8742
8712
8566
8383
8242
8160
8075
7913
7658
7343
7004
6654
6283
5893
5510
5162
4857
4583
4332
4114
3946
3830
3740
3637
3486
3281
3058
2871
2744
2645
2528
2382
2248
2175
2158
2158
2158
2174
2222
2273
2290
2272
2236
2187
2102
1953
1745
1517
1302
1115
954
813
695
587
495
444
439
427
334
150
-36
-138
-197
-357
-683
-1066
-1343
-1515
-1743
-2112
-2467
-2558
-2345
-2061
-1943
-1977
-1962
-1788
-1572
-1480
-1533
-1612
-1618
-1570
-1524
-1473
-1365
-1183
-956
-733
-542
-413
-383
-446
-540
-599
-624
-671
-789
-958
-1113
-1203
-1220
-1208
-1210
-1240
-1283
-1326
-1376
-1436
-1497
-1546
-1600
-1687
-1807
-1902
-1914
-1856
-1794
-1783
-1803
-1802
-1776
-1767
-1812
-1891
-1969
-2026
-2060
-2071
-2073
-2117
-2238
-2395
-2486
-2460
-2390
-2394
-2488
-2571
-2541
-2438
-2384
-2444
-2547
-2580
-2543
-2534
-2621
-2751
-2808
-2748
-2650
-2625
-2704
-2820
-2896
-2926
-2960
-3022
-3089
-3118
-3117
-3107
-3097
-3073
-3030
-3006
-3023
-3057
-3074
-3074
-3101
-3165
-3215
-3204
-3150
-3117
-3126
-3140
-3094
-2994
-2906
-2880
-2912
-2947
-2937
-2872
-2779
-2702
-2673
-2685
-2711
-2738
-2787
-2876
-2981
-3026
-2954
-2775
-2549
-2314
-2057
-1759
-1443
-1166
-967
-835
-753
-724
-758
-830
-876
-842
-742
-633
-543
-454
-331
-186
-67
-7
11
23
35
23
-17
-54
-56
-35
-42
-102
-187
-245
-260
-271
-325
-419
-504
-547
-558
-579
-632
-706
-782
-864
-965
-1073
-1162
-1224
-1302
-1432
-1606
-1777
-1902
-1999
-2114
-2270
-2442
-2591
-2703
-2799
-2882
-2932
-2920
-2848
-2763
-2706
-2683
-2652
-2564
-2414
-2242
-2103
-2020
-1962
-1878
-1738
-1559
-1379
-1222
-1092
-982
-878
-770
-657
-552
-473
-434
-427
-441
-482
-570
-694
-806
-854
-842
-820
-828
-854
-866
-860
-876
-943
-1042
-1132
-1203
-1280
-1383
-1499
-1576
-1585
-1535
-1461
-1400
-1351
-1292
-1189
-1036
-862
-711
-591
-467
-300
-101
72
182
261
364
512
657
753
809
886
1012
1149
1227
1220
1158
1091
1036
990
956
965
1058
1255
1543
1853
2113
2298
2460
2666
2908
3085
3100
2969
2819
2756
2767
2761
2677
2532
2387
2271
2165
2045
1897
1722
1540
1392
1312
1286
1261
1190
1081
983
924
884
818
717
626
593
625
685
722
710
657
606
606
667
752
795
766
706
705
815
996
1147
1221
1255
1323
1447
1577
1652
1667
1669
1695
1746
1801
1853
1895
1910
1885
1832
1798
1807
1834
1824
1760
1679
1634
1635
1643
1619
1569
1523
1495
1460
1402
1348
1335
1360
1371
1321
1234
1172
1177
1219
1233
1188
1118
1086
1124
1218
1324
1398
1428
1434
1446
1474
1511
1537
1540
1519
1478
1422
1368
1336
1323
1295
1211
1080
971
957
1039
1149
1217
1248
1310
1456
1664
1855
1969
2017
2052
2114
2191
2249
2275
2290
2322
2368
2406
2424
2439
2477
2537
2584
2585
2539
2471
2408
2365
2334
2292
2219
2107
1987
1912
1904
1923
1909
1842
1750
1669
1603
1527
1430
1335
1274
1243
1219
1194
1191
1226
1278
1292
1240
1152
1096
1091
1076
979
832
775
917
1191
1405
1453
1429
1495
1646
1684
1431
959
542
366
353
286
82
-79
42
423
779
863
753
788
1193
1812
2257
2323
2168
2059
2021
1840
1368
742
225
-85
-299
-504
-567
-256
486
1448
2313
2879
3142
3185
3047
2708
2151
1422
652
-11
-486
-759
-834
-695
-369
19
266
254
53
-184
-381
-612
-995
-1534
-2113
-2601
-2943
-3158
-3286
-3336
-3313
-3287
-3373
-3606
-3864
-3961
-3872
-3775
-3827
-3936
-3833
-3435
-2987
-2732
-2535
-2012
-1098
-285
-117
-559
-1051
-1195
-1211
-1582
-2372
-3132
-3444
-3391
-3372
-3580
-3841
-3921
-3852
-3881
-4157
-4574
-4904
-5014
-4915
-4701
-4465
-4218
-3905
-3466
-2914
-2346
-1853
-1444
-1048
-612
-148
318
795
1321
1858
2291
2556
2729
2944
3234
3541
3893
4479
5444
6622
7582
8030
8095
8129
8247
8176
7587
6514
5341
4434
3873
3543
3380
3413
3646
3996
4373
4754
5154
5510
5709
5701
5546
5346
5175
5033
4909
4800
4688
4542
4347
4123
3910
3724
3535
3306
3036
2761
2476
2105
1587
968
399
11
-201
-357
-546
-750
-896
-958
-998
-1101
-1307
-1595
-1922
-2259
-2591
-2889
-3092
-3157
-3112
-3053
-3048
-3063
-2999
-2818
-2623
-2563
-2670
-2834
-2927
-2947
-2988
-3110
-3295
-3484
-3660
-3831
-3970
-4032
-4004
-3927
-3836
-3722
-3540
-3279
-2999
-2794
-2738
-2852
-3093
-3391
-3698
-4020
-4388
-4811
-5251
-5650
-5958
-6165
-6287
-6367
-6462
-6612
-6810
-7023
-7237
-7479
-7769
-8076
-8332
-8502
-8631
-8770
-8895
-8940
-8899
-8871
-8945
-9094
-9185
-9159
-9096
-9122
-9247
-9348
-9320
-9203
-9113
-9093
-9073
-8985
-8855
-8744
-8646
-8494
-8276
-8082
-7991
-7956
-7854
-7639
-7391
-7184
-6991
-6756
-6535
-6461
-6548
-6610
-6425
-5992
-5514
-5145
-4790
-4225
-3361
-2367
-1501
-870
-400
26
427
728
882
929
973
1095
1294
1502
1674
1845
2084
2403
2727
2960
3091
3199
3347
3511
3627
3668
3663
3639
3590
3496
3376
3260
3138
3004
2890
2845
2866
2869
2804
2732
2733
2773
2712
2495
2244
2090
1961
1648
1091
526
254
300
414
383
271
285
499
769
916
910
816
660
425
131
-142
-336
-478
-617
-741
-783
-723
-604
-460
-277
-51
157
250
212
132
115
159
175
110
24
27
167
385
606
821
1066
1339
1570
1684
1694
1678
1692
1713
1689
1614
1534
1485
1445
1364
1234
1094
983
885
768
629
502
400
305
202
111
53
11
-60
-158
-230
-226
-168
-108
-61
10
131
278
416
547
714
933
1172
1395
1600
1797
1971
2094
2168
2237
2322
2387
2366
2264
2146
2067
2011
1920
1770
1601
1455
1315
1135
891
610
344
118
-79
-265
-462
-679
-908
-1121
-1294
-1444
-1612
-1812
-2007
-2154
-2246
-2312
-2356
-2346
-2270
-2177
-2123
-2104
-2067
-1989
-1909
-1874
-1868
-1837
-1775
-1737
-1757
-1796
-1782
-1699
-1605
-1552
-1524
-1469
-1368
-1245
-1131
-1012
-860
-677
-502
-363
-260
-166
-55
88
255
422
564
683
808
965
1145
1315
1451
1577
1719
1875
2012
2109
2190
2291
2419
2559
2708
2887
3093
3280
3405
3483
3583
3740
3908
4011
4036
4044
4094
4184
4265
4315
4361
4435
4528
4608
4662
4707
4764
4835
4915
5006
5111
5223
5329
5431
5546
5664
5742
5746
5695
5656
5684
5782
5900
5999
6070
6128
6161
6123
5964
5680
5331
4989
4671
4341
3988
3695
3574
3652
3820
3948
4021
4131
4327
4520
4559
4401
4145
3923
3783
3689
3597
3497
3388
3252
3065
2826
2546
2216
1818
1344
818
293
-191
-598
-917
-1161
-1368
-1596
-1899
-2325
-2899
-3602
-4378
-5159
-5914
-6660
-7414
-8151
-8812
-9353
-9771
-10109
-10424
-10767
-11174
-11641
-12122
-12558
-12939
-13354
-13942
-14781
-15796
-16774
-17490
-17863
-17968
-17917
-17723
-17265
-16425
-15247
-13929
-12679
-11582
-10620
-9766
-9025
-8391
-7780
-7104
-6365
-5644
-4989
-4375
-3766
-3193
-2728
-2344
-1905
-1299
-551
216
963
1798
2835
4032
5162
6022
6611
7107
7680
8336
8956
9466
9922
10430
11019
11621
12168
12662
13141
13605
13997
14272
14458
14610
14775
14978
15223
15491
15721
15869
15947
16026
16139
16246
16285
16253
16200
16149
16068
15951
15838
15765
15682
15494
15205
14930
14765
14657
14459
14116
13736
13466
13336
13239
13059
12785
12495
12270
12120
11980
11777
11493
11194
10973
10868
10821
10730
10569
10372
10190
10026
9852
9645
9393
9091
8765
8474
8266
8112
7917
7629
7316
7094
6976
6861
6664
6420
6238
6166
6138
6082
5995
5916
5853
5776
5681
5584
5488
5354
5168
4981
4862
4802
4721
4556
4353
4201
4114
4013
3835
3605
3402
3260
3137
2972
2757
2534
2330
2127
1892
1619
1331
1053
809
595
389
182
-18
-198
-360
-521
-678
-807
-903
-1004
-1152
-1318
-1417
-1411
-1361
-1358
-1406
-1413
-1310
-1146
-1029
-998
-1002
-992
-988
-1039
-1137
-1223
-1273
-1336
-1455
-1606
-1723
-1777
-1795
-1835
-1903
-1977
-2038
-2086
-2116
-2113
-2085
-2061
-2058
-2067
-2063
-2033
-1990
-1952
-1925
-1921
-1944
-1984
-2022
-2044
-2072
-2135
-2236
-2340
-2418
-2470
-2524
-2584
-2640
-2691
-2747
-2814
-2872
-2900
-2922
-2969
-3024
-3040
-3009
-2995
-3053
-3142
-3162
-3073
-2956
-2938
-3055
-3229
-3351
-3381
-3354
-3328
-3324
-3309
-3221
-3028
-2777
-2552
-2393
-2243
-2009
-1698
-1433
-1324
-1338
-1343
-1256
-1143
-1119
-1213
-1352
-1459
-1521
-1553
-1553
-1521
-1507
-1572
-1694
-1783
-1775
-1721
-1717
-1795
-1899
-1968
-2006
-2053
-2116
-2147
-2110
-2039
-2002
-2029
-2092
-2136
-2122
-2047
-1929
-1796
-1679
-1588
-1528
-1507
-1520
-1535
-1510
-1459
-1445
-1510
-1606
-1623
-1530
-1408
-1354
-1356
-1325
-1230
-1149
-1168
-1258
-1308
-1270
-1214
-1221
-1280
-1310
-1273
-1217
-1205
-1245
-1292
-1324
-1360
-1425
-1514
-1597
-1643
-1662
-1688
-1760
-1875
-1982
-2040
-2065
-2108
-2185
-2261
-2301
-2308
-2309
-2300
-2269
-2271
-2387
-2609
-2793
-2808
-2709
-2695
-2863
-3085
-3144
-2990
-2788
-2706
-2732
-2727
-2628
-2491
-2390
-2313
-2194
-2016
-1847
-1747
-1710
-1670
-1574
-1424
-1273
-1182
-1173
-1203
-1203
-1154
-1106
-1117
-1188
-1263
-1287
-1270
-1271
-1327
-1427
-1531
-1610
-1670
-1754
-1919
-2203
-2571
-2930
-3196
-3373
-3532
-3742
-3986
-4187
-4287
-4299
-4276
-4264
-4273
-4285
-4274
-4223
-4136
-4033
-3928
-3830
-3728
-3606
-3453
-3273
-3089
-2929
-2804
-2697
-2575
-2427
-2266
-2118
-1999
-1906
-1816
-1711
-1589
-1472
-1395
-1369
-1352
-1290
-1190
-1120
-1136
-1199
-1214
-1151
-1085
-1106
-1193
-1234
-1164
-1052
-1014
-1068
-1116
-1073
-972
-910
-929
-968
-945
-850
-735
-656
-615
-582
-538
-492
-461
-445
-427
-399
-371
-367
-382
-377
-304
-168
-28
59
107
187
348
542
675
711
720
797
952
1107
1199
1261
1374
1555
1726
1822
1869
1966
2160
2386
2549
2643
2755
2953
3196
3368
3402
3349
3325
3401
3553
3708
3835
3974
4186
4477
4789
5057
5274
5471
5665
5807
5842
5783
5716
5715
5760
5760
5655
5487
5353
5308
5298
5227
5059
4861
4737
4715
4718
4645
4491
4343
4283
4290
4267
4166
4050
4018
4088
4172
4181
4116
4052
4029
4008
3943
3843
3760
3715
3661
3551
3403
3275
3192
3116
3006
2885
2815
2816
2833
2803
2730
2682
2686
2692
2634
2517
2409
2355
2324
2267
2189
2142
2145
2163
2151
2115
2088
2071
2041
1992
1958
1961
1969
1946
1902
1887
1909
1920
1869
1782
1720
1699
1665
1571
1435
1324
1265
1228
1173
1099
1033
991
975
981
994
990
954
905
876
879
870
803
698
629
661
757
825
825
818
888
1017
1084
991
763
528
405
412
471
473
367
197
94
158
331
414
259
-47
-243
-158
128
398
568
737
1017
1359
1610
1688
1653
1602
1556
1473
1305
1078
912
983
1401
2066
2679
2976
2958
2855
2809
2690
2278
1589
889
390
41
-335
-761
-1075
-1175
-1173
-1273
-1526
-1809
-2010
-2146
-2268
-2353
-2332
-2208
-2072
-1994
-1961
-1936
-1943
-2032
-2193
-2376
-2588
-2914
-3386
-3862
-4108
-4038
-3821
-3702
-3738
-3738
-3482
-2969
-2395
-1954
-1674
-1475
-1308
-1194
-1138
-1108
-1064
-1023
-1015
-1003
-895
-677
-457
-361
-404
-456
-389
-204
-1
153
293
483
730
971
1151
1260
1318
1340
1337
1332
1354
1395
1418
1404
1389
1420
1501
1575
1579
1530
1505
1551
1624
1631
1555
1483
1521
1657
1768
1745
1606
1474
1435
1473
1527
1597
1748
2041
2450
2870
3222
3520
3837
4203
4541
4720
4657
4373
3957
3487
2999
2526
2126
1838
1652
1542
1542
1725
2098
2542
2875
3005
3000
2973
2971
2933
2796
2559
2275
2001
1769
1586
1438
1308
1165
993
775
497
148
-242
-608
-892
-1115
-1366
-1720
-2158
-2595
-2973
-3318
-3703
-4159
-4653
-5140
-5620
-6117
-6619
-7057
-7357
-7495
-7518
-7497
-7464
-7404
-7295
-7163
-7064
-7032
-7037
-7023
-6984
-6974
-7009
-7007
-6842
-6482
-6066
-5784
-5686
-5635
-5454
-5118
-4767
-4540
-4425
-4287
-4023
-3668
-3334
-3097
-2947
-2832
-2738
-2690
-2708
-2766
-2829
-2899
-3003
-3155
-3325
-3459
-3538
-3617
-3765
-3990
-4236
-4448
-4631
-4840
-5108
-5395
-5651
-5876
-6120
-6410
-6715
-6969
-7158
-7334
-7539
-7757
-7930
-8034
-8098
-8170
-8258
-8330
-8356
-8356
-8375
-8446
-8551
-8640
-8680
-8694
-8713
-8730
-8709
-8624
-8512
-8432
-8394
-8336
-8197
-8007
-7842
-7722
-7572
-7300
-6909
-6495
-6127
-5756
-5299
-4769
-4290
-3983
-3844
-3777
-3711
-3664
-3667
-3686
-3629
-3445
-3158
-2818
-2426
-1955
-1415
-874
-400
-9
333
651
928
1161
1380
1627
1909
2196
2470
2743
3042
3348
3596
3727
3749
3731
3734
3769
3786
3737
3616
3478
3373
3298
3205
3072
2928
2829
2787
2761
2708
2651
2656
2739
2826
2846
2806
2804
2899
3008
2971
2718
2354
2043
1855
1729
1592
1447
1354
1332
1346
1365
1388
1414
1397
1288
1105
920
797
727
676
637
637
695
800
918
1032
1154
1294
1453
1628
1818
2016
2231
2475
2746
3039
3350
3683
4043
4411
4759
5085
5425
5789
6115
6312
6366
6365
6402
6449
6381
6126
5773
5496
5360
5265
5054
4698
4296
3952
3661
3346
2965
2548
2127
1699
1273
885
543
186
-245
-694
-1014
-1137
-1165
-1248
-1384
-1438
-1333
-1182
-1159
-1279
-1380
-1337
-1222
-1217
-1398
-1658
-1839
-1910
-1965
-2112
-2353
-2605
-2792
-2895
-2943
-2975
-3014
-3067
-3128
-3183
-3219
-3254
-3320
-3441
-3622
-3844
-4095
-4376
-4669
-4924
-5095
-5175
-5212
-5248
-5271
-5239
-5145
-5033
-4949
-4898
-4868
-4886
-4996
-5200
-5409
-5526
-5537
-5513
-5507
-5485
-5382
-5195
-5002
-4864
-4753
-4600
-4395
-4203
-4076
-3981
-3846
-3657
-3465
-3303
-3143
-2948
-2740
-2568
-2440
-2290
-2065
-1793
-1539
-1319
-1077
-766
-410
-80
198
462
757
1084
1404
1690
1955
2225
2511
2808
3109
3414
3725
4036
4333
4604
4848
5076
5300
5527
5757
5981
6196
6397
6582
6752
6921
7107
7311
7499
7638
7728
7818
7956
8143
8336
8499
8638
8780
8931
9077
9209
9344
9497
9653
9789
9903
10010
10116
10187
10184
10110
10015
9946
9898
9847
9789
9755
9778
9852
9940
9997
9986
9866
9604
9206
8724
8212
7686
7123
6502
5866
5285
4797
4372
3945
3485
3034
2643
2301
1930
1484
1015
636
393
198
-72
-432
-780
-1014
-1155
-1315
-1558
-1832
-2045
-2166
-2256
-2389
-2599
-2871
-3177
-3492
-3807
-4137
-4521
-4977
-5459
-5882
-6221
-6536
-6887
-7255
-7548
-7729
-7881
-8119
-8464
-8826
-9122
-9372
-9658
-10019
-10400
-10731
-11012
-11289
-11596
-11933
-12302
-12731
-13232
-13758
-14217
-14524
-14637
-14557
-14333
-14027
-13667
-13189
-12477
-11511
-10447
-9530
-8877
-8378
-7839
-7189
-6545
-6078
-5833
-5707
-5548
-5276
-4915
-4542
-4205
-3886
-3528
-3094
-2615
-2140
-1695
-1272
-862
-484
-151
178
572
1046
1547
2034
2534
3106
3772
4486
5210
5969
6806
7712
8630
9508
10329
11091
11784
12406
12976
13515
14025
14497
14936
15358
15762
16125
16434
16702
16924
17070
17109
17079
17057
17062
17035
16934
16808
16747
16752
16727
16608
16461
16406
16446
16475
16417
16318
16271
16276
16255
16156
16026
15929
15843
15698
15467
15210
14989
14799
14599
14358
14091
13815
13536
13257
12979
12681
12338
11961
11596
11273
10958
10594
10194
9843
9598
9408
9156
8801
8424
8124
7897
7669
7410
7179
7046
6987
6922
6815
6711
6665
6667
6646
6546
6381
6206
6061
5955
5868
5765
5612
5415
5212
5032
4842
4579
4233
3875
3574
3327
3066
2749
2422
2154
1956
1776
1553
1287
1016
760
516
281
64
-135
-322
-498
-640
-719
-757
-810
-908
-1020
-1094
-1117
-1139
-1227
-1375
-1520
-1609
-1644
-1679
-1750
-1849
-1936
-1987
-2011
-2049
-2126
-2232
-2327
-2376
-2379
-2367
-2361
-2359
-2351
-2337
-2336
-2348
-2362
-2372
-2416
-2528
-2672
-2782
-2836
-2892
-3025
-3233
-3433
-3568
-3663
-3760
-3848
-3869
-3815
-3771
-3805
-3878
-3885
-3791
-3679
-3650
-3703
-3738
-3691
-3584
-3476
-3371
-3228
-3041
-2869
-2773
-2740
-2707
-2635
-2552
-2511
-2520
-2541
-2529
-2468
-2371
-2265
-2172
-2106
-2084
-2105
-2135
-2126
-2055
-1956
-1886
-1873
-1900
-1934
-1973
-2036
-2114
-2168
-2165
-2145
-2145
-2147
-2068
-1873
-1629
-1440
-1331
-1227
-1062
-871
-750
-737
-789
-832
-844
-854
-886
-951
-1064
-1221
-1380
-1481
-1518
-1554
-1658
-1819
-1943
-1966
-1923
-1899
-1938
-2011
-2080
-2153
-2249
-2337
-2361
-2325
-2301
-2343
-2415
-2430
-2363
-2279
-2243
-2251
-2242
-2204
-2200
-2269
-2366
-2416
-2392
-2342
-2302
-2250
-2143
-1991
-1852
-1762
-1697
-1622
-1548
-1524
-1578
-1681
-1774
-1827
-1852
-1864
-1865
-1855
-1835
-1805
-1762
-1700
-1634
-1597
-1617
-1678
-1728
-1725
-1671
-1619
-1616
-1657
-1697
-1686
-1627
-1569
-1593
-1724
-1898
-2016
-2038
-2038
-2127
-2324
-2517
-2595
-2587
-2624
-2769
-2922
-2934
-2796
-2671
-2701
-2835
-2901
-2817
-2681
-2648
-2753
-2886
-2929
-2879
-2813
-2781
-2767
-2724
-2640
-2526
-2394
-2263
-2154
-2088
-2053
-2012
-1950
-1896
-1892
-1943
-2005
-2027
-2009
-2005
-2054
-2136
-2194
-2192
-2158
-2152
-2205
-2292
-2373
-2432
-2493
-2581
-2694
-2797
-2850
-2848
-2816
-2787
-2782
-2791
-2795
-2783
-2763
-2750
-2746
-2743
-2734
-2717
-2692
-2649
-2579
-2479
-2360
-2225
-2071
-1896
-1718
-1562
-1442
-1332
-1201
-1030
-847
-698
-616
-582
-548
-478
-377
-286
-228
-188
-132
-48
33
91
135
189
252
298
312
309
323
369
440
498
503
429
302
200
175
192
145
-18
-206
-275
-183
-44
9
-29
-42
56
211
307
305
270
290
366
446
488
507
543
614
701
769
801
805
809
839
891
931
939
943
992
1098
1200
1231
1195
1160
1179
1227
1251
1241
1237
1263
1283
1260
1204
1155
1116
1032
872
691
603
669
847
1051
1233
1404
1593
1816
2062
2299
2487
2596
2615
2574
2519
2483
2460
2425
2353
2240
2096
1953
1849
1803
1789
1746
1646
1534
1490
1548
1640
1653
1553
1421
1357
1369
1371
1295
1171
1081
1051
1039
1005
973
987
1060
1160
1263
1373
1498
1620
1713
1774
1826
1880
1923
1942
1959
2000
2065
2125
2156
2162
2166
2171
2165
2143
2126
2134
2148
2128
2056
1964
1896
1856
1808
1713
1574
1431
1326
1281
1285
1316
1357
1391
1414
1429
1443
1463
1472
1425
1280
1053
831
710
697
698
611
441
312
320
432
519
498
410
360
396
472
505
468
393
323
287
313
435
645
883
1044
1073
1039
1089
1288
1539
1691
1709
1698
1748
1824
1832
1824
2005
2538
3356
4217
4925
5453
5870
6193
6354
6217
5628
4498
2921
1231
-175
-1107
-1700
-2193
-2632
-2830
-2612
-2032
-1346
-808
-508
-401
-396
-435
-457
-439
-443
-570
-852
-1242
-1674
-2121
-2579
-3005
-3311
-3476
-3582
-3724
-3864
-3872
-3714
-3564
-3615
-3816
-3883
-3627
-3179
-2820
-2636
-2417
-1953
-1319
-763
-389
-63
364
846
1220
1439
1603
1793
1937
1927
1767
1559
1362
1170
989
890
935
1085
1248
1399
1577
1773
1875
1786
1565
1382
1320
1283
1126
851
608
533
606
691
696
650
636
697
818
954
1069
1123
1102
1018
898
774
649
517
394
297
218
146
95
100
182
284
342
380
522
864
1340
1746
1928
1932
1946
2100
2343
2521
2562
2560
2692
3050
3556
4035
4360
4527
4633
4755
4882
4936
4873
4733
4607
4553
4551
4527
4426
4234
3966
3631
3241
2802
2325
1833
1364
958
637
378
139
-116
-412
-761
-1155
-1551
-1889
-2149
-2374
-2640
-2953
-3216
-3331
-3307
-3277
-3376
-3618
-3908
-4158
-4379
-4645
-4988
-5355
-5661
-5878
-6034
-6153
-6219
-6194
-6081
-5931
-5791
-5665
-5527
-5357
-5169
-4988
-4822
-4662
-4508
-4375
-4281
-4227
-4205
-4213
-4260
-4340
-4436
-4536
-4631
-4714
-4772
-4802
-4831
-4897
-5020
-5188
-5370
-5552
-5728
-5880
-5986
-6046
-6084
-6106
-6089
-6003
-5868
-5749
-5692
-5680
-5670
-5657
-5663
-5702
-5751
-5794
-5860
-5985
-6153
-6296
-6376
-6436
-6557
-6758
-6961
-7071
-7070
-7028
-7019
-7044
-7044
-6973
-6846
-6724
-6648
-6607
-6548
-6422
-6222
-5986
-5773
-5605
-5443
-5210
-4867
-4459
-4072
-3734
-3386
-2958
-2461
-1975
-1547
-1120
-619
-53
488
943
1353
1798
2295
2798
3271
3719
4151
4531
4819
5028
5218
5410
5548
5562
5452
5297
5158
5010
4793
4504
4216
3979
3734
3364
2858
2359
2028
1868
1728
1490
1214
1045
1023
1025
905
628
247
-193
-680
-1189
-1675
-2126
-2602
-3140
-3658
-4011
-4157
-4231
-4419
-4742
-5041
-5158
-5137
-5178
-5404
-5700
-5827
-5677
-5390
-5173
-5053
-4857
-4433
-3838
-3278
-2876
-2560
-2181
-1696
-1188
-740
-329
133
685
1274
1830
2339
2837
3332
3780
4126
4365
4554
4744
4914
5014
5032
5015
5006
5007
4984
4915
4810
4683
4548
4412
4267
4070
3782
3425
3086
2832
2628
2387
2100
1867
1770
1762
1718
1588
1467
1470
1587
1698
1718
1680
1682
1761
1865
1916
1904
1875
1865
1860
1826
1757
1670
1584
1507
1438
1366
1275
1138
952
760
611
513
420
291
153
65
32
-25
-181
-423
-667
-848
-992
-1157
-1352
-1535
-1674
-1775
-1860
-1936
-2000
-2074
-2195
-2360
-2515
-2600
-2622
-2642
-2696
-2761
-2782
-2751
-2706
-2685
-2687
-2685
-2671
-2659
-2649
-2616
-2541
-2430
-2305
-2165
-1995
-1809
-1650
-1547
-1472
-1368
-1218
-1051
-906
-778
-634
-460
-274
-113
16
132
258
399
544
683
825
983
1167
1369
1576
1777
1964
2134
2283
2414
2539
2670
2811
2962
3126
3305
3498
3688
3865
4035
4212
4390
4550
4673
4765
4849
4944
5052
5165
5270
5359
5443
5546
5690
5863
6022
6135
6219
6322
6466
6608
6692
6704
6683
6671
6677
6680
6672
6663
6654
6630
6577
6516
6478
6469
6450
6375
6242
6096
5975
5878
5777
5661
5558
5489
5434
5348
5221
5084
4972
4861
4706
4506
4322
4204
4124
4014
3851
3695
3608
3561
3460
3246
2965
2707
2513
2354
2197
2063
2007
2059
2179
2288
2318
2253
2117
1926
1677
1359
996
644
367
201
140
145
157
106
-50
-299
-587
-869
-1147
-1443
-1751
-2022
-2198
-2257
-2224
-2150
-2090
-2089
-2175
-2349
-2591
-2854
-3088
-3268
-3415
-3569
-3741
-3888
-3965
-3993
-4072
-4270
-4560
-4825
-4963
-4960
-4885
-4836
-4874
-5007
-5192
-5374
-5551
-5796
-6176
-6667
-7154
-7533
-7791
-7987
-8188
-8407
-8604
-8719
-8713
-8613
-8494
-8399
-8288
-8078
-7749
-7372
-7015
-6645
-6182
-5625
-5065
-4562
-4088
-3577
-3029
-2510
-2056
-1631
-1191
-751
-338
43
400
721
998
1264
1572
1911
2205
2404
2560
2770
3038
3285
3469
3654
3912
4209
4440
4552
4614
4727
4904
5096
5279
5501
5806
6184
6576
6946
7304
7666
8026
8374
8702
9012
9306
9578
9836
10091
10323
10476
10495
10371
10159
9926
9710
9503
9290
9085
8908
8763
8639
8522
8411
8293
8153
7992
7844
7755
7725
7717
7699
7681
7689
7703
7662
7530
7341
7161
7011
6860
6689
6538
6466
6484
6524
6516
6442
6348
6286
6262
6246
6210
6162
6132
6137
6163
6182
6167
6098
5946
5704
5408
5129
4908
4705
4443
4106
3774
3537
3379
3193
2906
2582
2349
2250
2184
2039
1831
1677
1653
1685
1647
1515
1375
1300
1260
1186
1099
1089
1182
1264
1205
1025
874
848
874
798
578
352
266
309
350
300
223
232
347
472
511
473
429
422
430
421
395
361
320
281
281
351
453
506
468
393
358
351
286
119
-93
-261
-379
-515
-701
-889
-1016
-1084
-1168
-1312
-1486
-1644
