-50
-40
-38
-72
-127
-155
-140
-121
-148
-210
-250
-233
-194
-184
-206
-216
-185
-143
-133
-150
-151
-122
-97
-111
-151
-169
-143
-100
-89
-110
-115
-71
1
30
-12
-54
-19
73
119
69
25
154
517
1014
1476
1796
1923
1831
1580
1366
1403
1680
1925
1887
1637
1482
1582
1716
1526
919
153
-455
-822
-1067
-1283
-1421
-1404
-1257
-1082
-955
-882
-841
-843
-898
-990
-1086
-1143
-1134
-1036
-854
-617
-368
-177
-107
-180
-356
-537
-626
-585
-445
-273
-119
-8
55
70
38
-20
-56
-26
75
184
246
282
385
602
865
1063
1188
1341
1582
1815
1890
1796
1681
1666
1683
1564
1268
919
636
382
41
-390
-780
-1021
-1159
-1323
-1526
-1643
-1546
-1251
-900
-613
-403
-214
-7
213
445
709
1008
1278
1403
1332
1145
991
926
842
583
123
-370
-670
-686
-509
-307
-182
-124
-55
76
253
406
473
446
377
331
331
356
381
402
413
404
365
308
263
246
240
226
215
232
284
344
381
384
362
320
255
178
113
78
62
49
28
11
12
26
42
52
60
74
88
86
54
-5
-72
-128
-168
-203
-245
-285
-305
-292
-256
-215
-185
-172
-189
-243
-328
-422
-505
-579
-647
-695
-692
-627
-533
-460
-420
-381
-313
-243
-230
-305
-421
-492
-479
-421
-390
-400
-401
-333
-202
-81
-19
10
70
186
307
371
377
381
423
480
504
479
439
423
434
446
453
465
483
487
463
428
414
426
425
377
296
230
198
177
140
97
76
78
64
22
-13
-8
-2
-71
-217
-341
-338
-232
-151
-174
-231
-194
-33
145
219
183
130
124
151
164
153
143
147
151
140
122
113
111
107
101
100
104
104
97
88
92
103
105
86
57
35
28
25
16
22
73
162
221
176
27
-138
-226
-224
-210
-256
-348
-399
-339
-187
-18
97
134
115
79
65
117
255
447
609
655
569
430
338
311
248
28
-355
-750
-965
-922
-704
-471
-311
-196
-37
219
531
801
937
920
809
693
629
610
593
536
428
295
181
120
108
111
93
58
53
120
243
359
409
395
350
294
218
122
34
-15
-34
-57
-92
-104
-62
19
89
119
120
110
83
27
-43
-87
-85
-69
-96
-186
-295
-352
-322
-251
-240
-353
-540
-664
-631
-495
-417
-505
-704
-849
-830
-679
-503
-367
-255
-116
70
284
484
622
662
600
477
363
299
272
251
225
213
237
289
342
381
412
443
454
426
369
324
323
358
387
376
338
317
331
347
304
192
90
91
193
256
127
-194
-525
-670
-612
-500
-464
-485
-436
-244
32
291
466
545
535
460
382
366
408
426
357
248
206
267
351
358
290
218
176
128
36
-58
-71
15
129
201
255
365
539
684
707
629
554
546
561
511
376
225
136
113
104
76
55
89
186
302
393
447
491
545
592
595
536
440
352
285
211
89
-80
-246
-350
-352
-261
-126
-5
52
41
11
26
124
284
447
545
533
410
234
89
2
-116
-405
-889
-1393
-1660
-1576
-1270
-978
-811
-687
-466
-124
216
429
485
439
347
233
109
14
-13
27
93
136
148
151
161
170
159
125
89
67
51
11
-61
-135
-169
-162
-157
-191
-242
-243
-156
-20
78
81
17
-40
-52
-46
-78
-169
-279
-354
-374
-364
-355
-355
-347
-321
-290
-283
-307
-341
-363
-369
-371
-380
-390
-384
-353
-304
-254
-217
-200
-196
-190
-167
-119
-43
55
159
242
281
280
270
279
298
290
233
155
106
108
133
145
138
134
152
165
144
104
94
136
192
209
177
140
136
153
152
120
89
82
77
41
-26
-84
-101
-98
-120
-185
-267
-328
-359
-379
-401
-425
-445
-465
-480
-472
-423
-332
-228
-153
-125
-133
-150
-159
-168
-196
-252
-322
-387
-436
-453
-416
-316
-175
-52
7
9
16
76
176
249
240
175
129
160
250
326
333
279
225
211
226
240
238
231
230
222
189
149
140
171
190
128
-23
-193
-305
-355
-418
-548
-716
-823
-798
-649
-438
-226
-51
67
142
225
386
637
894
1023
960
765
569
446
357
195
-114
-524
-890
-1068
-1012
-792
-529
-296
-83
165
461
755
962
1025
944
773
582
426
323
270
261
299
373
450
499
516
531
571
621
630
567
459
362
316
309
305
288
274
283
311
341
373
403
416
381
296
208
180
218
268
282
260
225
176
92
-13
-90
-105
-94
-124
-207
-280
-268
-176
-84
-68
-134
-229
-293
-304
-284
-263
-255
-253
-240
-208
-160
-102
-46
-9
-10
-55
-120
-172
-191
-187
-176
-154
-118
-82
-79
-122
-184
-216
-198
-164
-164
-206
-256
-255
-180
-51
91
217
310
346
297
165
4
-123
-207
-303
-449
-594
-621
-472
-222
-24
33
-8
-52
-69
-109
-216
-361
-474
-514
-502
-471
-424
-347
-249
-161
-120
-135
-182
-235
-269
-270
-243
-213
-204
-215
-215
-172
-96
-33
-24
-58
-74
-22
92
205
259
252
230
237
270
288
260
200
152
147
172
193
193
200
253
356
451
479
430
360
328
320
269
143
-4
-90
-92
-79
-123
-211
-265
-221
-100
20
76
55
-19
-109
-164
-140
-27
139
297
403
452
462
451
431
382
248
-26
-420
-792
-960
-860
-603
-368
-233
-116
107
448
793
1012
1052
955
795
633
511
445
417
389
340
280
244
251
288
334
378
423
462
488
502
515
532
538
507
433
347
299
319
387
445
441
378
309
297
355
433
459
409
328
288
309
345
330
248
143
63
25
17
25
43
57
61
63
83
124
156
166
197
315
525
749
901
981
1066
1197
1299
1233
943
514
99
-209
-435
-638
-810
-875
-776
-545
-274
-30
192
401
564
632
604
537
469
378
234
74
-1
64
205
314
365
434
602
842
1040
1113
1085
1047
1047
1050
1001
894
776
697
655
624
596
586
595
591
546
484
464
508
574
604
592
590
646
736
784
749
665
596
576
575
541
468
416
442
544
654
712
724
752
830
927
971
923
818
720
667
644
612
554
494
463
466
484
503
530
571
615
630
599
529
432
305
139
-51
-223
-349
-424
-456
-454
-432
-404
-369
-294
-150
40
195
247
197
119
98
184
372
606
795
850
754
593
488
467
429
241
-108
-460
-621
-525
-276
-36
118
231
383
589
792
935
998
994
942
867
805
785
792
785
755
740
771
816
815
763
728
773
881
986
1045
1070
1087
1097
1095
1099
1130
1175
1195
1179
1166
1207
1310
1438
1549
1619
1651
1669
1710
1800
1918
1999
1975
1838
1642
1457
1318
1210
1097
954
791
649
571
564
593
606
577
516
440
349
236
114
3
-91
-180
-276
-362
-408
-397
-358
-333
-339
-347
-328
-293
-290
-338
-402
-428
-415
-434
-548
-742
-924
-1025
-1059
-1090
-1153
-1212
-1204
-1102
-940
-783
-672
-609
-564
-509
-440
-383
-359
-367
-376
-359
-311
-253
-197
-143
-81
-13
33
25
-49
-153
-232
-257
-248
-246
-270
-297
-288
-231
-156
-111
-126
-201
-316
-449
-580
-693
-774
-811
-804
-761
-699
-631
-552
-461
-387
-384
-480
-646
-800
-874
-867
-830
-805
-785
-744
-695
-696
-785
-933
-1061
-1128
-1153
-1176
-1194
-1149
-1006
-808
-654
-608
-647
-715
-774
-829
-896
-977
-1055
-1095
-1045
-868
-598
-355
-268
-350
-478
-504
-385
-206
-64
22
101
197
290
343
321
183
-104
-503
-865
-1003
-841
-478
-97
209
487
831
1243
1611
1815
1825
1708
1567
1465
1427
1458
1547
1669
1778
1833
1821
1751
1639
1497
1331
1160
1017
926
886
878
884
896
911
910
871
799
735
709
711
696
644
585
562
570
566
522
461
432
450
482
491
473
455
452
462
467
456
427
382
328
277
232
191
150
117
101
100
95
77
58
60
86
112
119
113
114
135
164
178
169
145
119
96
69
37
12
7
18
29
27
19
19
29
30
16
0
9
51
114
177
232
266
261
198
91
-26
-131
-233
-348
-446
-465
-371
-212
-83
-42
-65
-90
-95
-119
-205
-341
-467
-537
-550
-532
-491
-413
-301
-202
-167
-200
-251
-266
-243
-232
-274
-352
-409
-407
-358
-306
-283
-287
-294
-281
-244
-195
-154
-139
-150
-173
-180
-161
-128
-105
-97
-81
-28
63
163
231
251
238
215
185
143
91
42
6
-32
-89
-156
-211
-244
-273
-321
-388
-458
-519
-555
-538
-436
-270
-123
-66
-74
-34
138
403
635
739
715
616
494
379
293
225
105
-137
-466
-718
-725
-483
-164
50
125
168
278
448
600
685
703
673
609
539
524
593
698
748
709
641
612
607
544
398
249
184
182
131
-23
-188
-215
-74
109
182
121
29
14
82
163
201
208
237
327
471
624
743
810
842
854
832
750
615
490
429
421
405
358
329
367
434
421
277
82
-37
-45
-30
-85
-193
-240
-157
3
119
125
59
5
12
69
139
196
233
260
291
337
397
442
441
396
341
317
316
297
232
146
96
108
143
137
71
-12
-51
-25
50
141
224
278
288
268
249
251
246
182
57
-76
-179
-276
-423
-608
-750
-789
-778
-827
-969
-1110
-1134
-1026
-871
-740
-628
-490
-317
-147
-20
48
55
-2
-112
-236
-335
-401
-440
-446
-393
-270
-114
23
119
194
278
369
429
430
378
311
270
269
289
309
319
328
347
368
380
380
383
391
391
367
330
311
317
314
253
129
-13
-121
-199
-293
-431
-594
-728
-781
-727
-590
-442
-366
-390
-445
-417
-258
-46
86
63
-82
-260
-395
-471
-532
-656
-903
-1235
-1512
-1589
-1452
-1227
-1056
-958
-845
-647
-398
-194
-85
-46
-31
-34
-75
-147
-203
-202
-148
-86
-67
-97
-137
-136
-87
-27
4
6
23
81
153
184
159
123
125
165
196
183
144
119
121
131
127
114
111
124
143
156
160
156
140
120
110
115
117
86
18
-59
-108
-127
-150
-207
-288
-349
-349
-298
-246
-233
-249
-248
-200
-139
-127
-180
-251
-279
-257
-228
-228
-239
-216
-147
-83
-78
-131
-187
-196
-161
-135
-153
-200
-222
-177
-81
6
33
-2
-58
-101
-130
-155
-182
-199
-202
-202
-210
-212
-197
-159
-115
-88
-85
-99
-122
-143
-153
-158
-182
-243
-328
-412
-484
-551
-614
-652
-633
-551
-445
-358
-299
-243
-165
-78
-26
-45
-128
-228
-297
-318
-306
-283
-244
-171
-71
9
8
-90
-231
-339
-384
-403
-447
-507
-502
-364
-111
147
305
338
303
273
267
246
169
49
-53
-85
-44
28
94
157
229
279
254
131
-41
-184
-282
-383
-537
-728
-872
-898
-810
-674
-565
-513
-483
-400
-212
59
319
476
506
455
379
308
235
129
-49
-320
-642
-902
-984
-868
-638
-407
-213
-13
236
512
746
883
903
824
673
503
375
325
334
365
406
469
557
626
624
553
479
464
501
522
479
399
340
336
376
419
431
396
330
271
255
282
311
309
287
280
291
280
215
126
65
37
-15
-133
-279
-365
-357
-300
-261
-256
-250
-208
-143
-90
-75
-104
-173
-265
-351
-407
-429
-437
-443
-433
-377
-284
-204
-185
-231
-294
-334
-361
-412
-482
-498
-365
-68
289
552
631
561
441
326
186
-32
-314
-583
-764
-830
-790
-663
-479
-293
-179
-177
-253
-332
-363
-364
-393
-484
-600
-649
-565
-375
-207
-178
-283
-390
-383
-285
-236
-329
-498
-597
-582
-556
-626
-740
-718
-446
-12
362
524
483
348
193
2
-276
-652
-1063
-1405
-1588
-1577
-1401
-1137
-868
-649
-495
-384
-284
-193
-136
-145
-217
-298
-309
-220
-70
75
159
158
66
-99
-269
-347
-289
-152
-43
-1
43
161
311
348
182
-110
-352
-443
-445
-492
-641
-813
-875
-767
-558
-390
-380
-519
-661
-641
-424
-149
-15
-89
-255
-348
-320
-261
-292
-462
-740
-1056
-1316
-1416
-1305
-1055
-816
-681
-595
-430
-163
91
208
202
208
302
406
395
259
128
123
220
281
219
76
-50
-101
-94
-64
-36
-39
-98
-202
-290
-311
-261
-189
-130
-79
-32
-17
-77
-212
-361
-456
-483
-490
-531
-592
-583
-441
-193
59
228
285
235
111
-6
-3
135
252
169
-53
-61
446
1320
2018
2121
1731
1298
1081
886
361
-559
-1581
-2368
-2807
-2977
-2956
-2763
-2436
-2068
-1748
-1479
-1213
-957
-791
-765
-840
-922
-946
-918
-875
-836
-786
-729
-697
-726
-804
-868
-859
-771
-644
-516
-403
-308
-242
-230
-279
-379
-495
-586
-625
-623
-633
-701
-815
-914
-946
-932
-932
-970
-1000
-968
-880
-793
-753
-750
-754
-757
-772
-808
-858
-913
-970
-1011
-1004
-943
-863
-814
-801
-783
-724
-647
-601
-613
-652
-674
-672
-676
-702
-721
-693
-619
-558
-562
-602
-591
-480
-324
-246
-298
-407
-463
-438
-397
-400
-430
-434
-411
-408
-443
-476
-475
-481
-571
-756
-938
-1020
-1012
-1012
-1081
-1160
-1143
-1004
-842
-774
-820
-890
-880
-780
-652
-546
-457
-363
-290
-299
-389
-482
-516
-533
-643
-878
-1116
-1188
-1051
-825
-649
-536
-397
-183
58
241
341
391
422
429
404
368
356
374
405
419
394
338
292
324
466
656
776
773
714
706
762
775
650
420
212
112
93
92
98
146
231
295
293
261
270
327
368
338
259
203
201
214
196
160
164
214
239
167
28
-64
-34
63
104
30
-99
-187
-221
-265
-366
-489
-556
-533
-456
-369
-283
-177
-48
76
155
185
195
210
220
189
106
13
-22
33
143
242
299
332
370
407
412
370
296
197
54
-151
-381
-571
-689
-775
-893
-1057
-1214
-1305
-1322
-1309
-1307
-1325
-1352
-1375
-1382
-1367
-1329
-1289
-1263
-1236
-1173
-1054
-901
-757
-643
-555
-483
-440
-443
-491
-567
-657
-756
-860
-958
-1041
-1105
-1138
-1122
-1063
-1005
-1003
-1063
-1128
-1150
-1142
-1169
-1268
-1403
-1508
-1550
-1550
-1539
-1529
-1513
-1486
-1439
-1368
-1284
-1220
-1198
-1197
-1174
-1115
-1063
-1068
-1132
-1214
-1300
-1408
-1541
-1646
-1657
-1577
-1490
-1483
-1552
-1621
-1621
-1556
-1503
-1533
-1656
-1795
-1832
-1698
-1435
-1154
-937
-778
-638
-531
-521
-641
-836
-1019
-1174
-1355
-1572
-1714
-1648
-1365
-1012
-757
-633
-541
-379
-165
15
125
227
407
694
1051
1426
1765
1998
2048
1898
1609
1269
904
485
45
-269
-298
-30
371
710
930
1093
1243
1299
1136
737
239
-187
-463
-627
-738
-781
-694
-462
-164
86
222
253
223
171
107
29
-65
-172
-269
-324
-329
-307
-294
-301
-312
-308
-287
-253
-206
-153
-100
-9
202
571
994
1259
1230
981
705
494
248
-167
-727
-1241
-1535
-1583
-1462
-1237
-940
-621
-366
-215
-133
-61
10
31
-19
-88
-101
-38
66
172
266
344
390
384
341
312
339
417
499
550
565
549
498
409
293
175
75
-9
-72
-91
-51
33
117
174
214
259
296
282
203
97
24
-10
-50
-132
-216
-215
-90
98
242
284
268
279
358
460
513
485
413
347
307
290
309
410
625
903
1125
1192
1108
968
861
786
669
447
150
-108
-215
-142
58
305
556
802
1020
1153
1147
995
743
453
160
-137
-429
-680
-832
-838
-689
-441
-199
-69
-74
-133
-132
-26
134
256
285
230
134
35
-36
-69
-100
-207
-438
-731
-936
-939
-768
-559
-419
-329
-198
7
207
294
250
153
86
57
16
-55
-111
-107
-52
-10
-25
-75
-108
-89
-27
37
71
66
38
19
25
40
28
-17
-58
-54
-15
5
-35
-111
-168
-180
-166
-160
-167
-175
-174
-167
-157
-149
-167
-236
-339
-420
-438
-427
-455
-532
-581
-528
-418
-388
-518
-716
-808
-729
-604
-601
-730
-821
-713
-426
-144
-20
-52
-118
-127
-88
-53
-48
-70
-111
-167
-215
-210
-143
-60
-23
-46
-98
-135
-144
-126
-88
-48
-55
-137
-248
-284
-196
-57
-3
-89
-234
-320
-319
-296
-303
-315
-268
-154
-28
60
123
201
286
308
212
27
-154
-253
-269
-263
-281
-313
-304
-222
-95
19
82
98
78
23
-57
-121
-122
-59
0
-14
-90
-151
-142
-97
-87
-135
-178
-151
-59
31
72
81
109
166
216
207
129
10
-101
-172
-193
-178
-158
-148
-132
-75
31
143
202
187
130
71
13
-77
-210
-351
-452
-516
-587
-696
-802
-822
-723
-566
-458
-456
-509
-505
-379
-167
28
123
111
45
-23
-73
-110
-156
-241
-394
-602
-778
-816
-677
-441
-237
-126
-58
57
243
440
570
602
555
466
374
311
302
340
385
397
368
329
319
348
400
447
465
455
435
426
433
439
417
369
317
273
227
156
72
8
-14
-14
-26
-61
-90
-84
-56
-44
-69
-120
-172
-221
-276
-338
-395
-438
-481
-541
-609
-662
-685
-697
-729
-783
-832
-853
-845
-833
-831
-830
-822
-809
-806
-816
-822
-809
-781
-757
-746
-735
-702
-645
-582
-527
-482
-444
-417
-403
-394
-372
-329
-276
-232
-210
-200
-183
-149
-105
-71
-64
-88
-123
-144
-141
-126
-118
-121
-125
-120
-107
-94
-77
-54
-39
-59
-129
-228
-311
-354
-373
-397
-437
-479
-508
-521
-511
-467
-385
-290
-228
-219
-234
-224
-171
-115
-99
-123
-146
-132
-90
-48
-6
50
125
193
234
260
303
369
420
420
380
349
361
402
430
424
400
389
396
403
384
330
261
208
186
180
161
113
50
-8
-51
-94
-161
-265
-400
-552
-699
-842
-990
-1124
-1184
-1103
-902
-707
-635
-663
-632
-418
-78
207
308
259
184
146
116
56
-51
-222
-484
-812
-1075
-1120
-917
-616
-394
-291
-189
16
294
517
591
527
406
285
179
91
38
43
109
203
276
290
251
204
191
207
204
158
98
73
88
98
71
34
30
51
37
-38
-124
-152
-119
-97
-138
-219
-279
-294
-297
-315
-343
-360
-368
-384
-406
-416
-406
-396
-405
-433
-457
-458
-439
-422
-431
-472
-522
-540
-510
-471
-474
-518
-539
-492
-416
-396
-457
-521
-497
-404
-342
-370
-424
-406
-308
-218
-203
-224
-200
-117
-47
-47
-85
-80
-3
94
154
174
196
239
275
274
239
191
127
35
-71
-142
-143
-87
-29
-3
2
13
42
72
74
31
-53
-160
-264
-338
-377
-391
-387
-359
-294
-190
-61
60
146
182
176
143
95
29
-58
-148
-209
-217
-183
-139
-97
-47
22
103
174
231
287
346
390
401
384
376
401
451
500
532
554
572
586
594
608
638
676
690
661
607
574
585
627
653
632
566
480
394
322
265
209
120
-43
-269
-456
-478
-293
-21
142
101
-47
-102
33
273
450
465
355
210
103
60
77
104
43
-168
-457
-635
-552
-247
95
322
439
550
724
930
1101
1196
1214
1160
1054
951
917
973
1071
1140
1151
1128
1101
1065
994
898
821
790
793
790
781
796
853
912
908
823
710
629
588
544
474
415
422
496
596
675
719
744
758
754
716
637
515
367
235
163
154
166
175
203
284
400
479
479
432
406
406
381
309
244
258
338
405
413
415
488
620
710
676
559
475
487
535
522
420
304
275
364
499
581
580
549
566
664
792
872
881
857
858
887
910
901
873
846
814
767
726
728
778
817
789
697
597
530
478
411
334
281
260
249
225
207
213
245
278
295
290
252
169
77
43
111
228
291
256
192
211
340
495
573
556
509
504
547
599
626
627
624
630
638
644
658
705
793
891
958
975
967
977
1017
1045
1014
937
875
865
875
849
784
758
828
941
998
977
959
997
1033
955
750
518
331
167
9
-33
193
661
1137
1431
1605
1865
2231
2455
2288
1757
1130
614
204
-193
-579
-871
-1031
-1084
-1037
-848
-514
-129
177
371
521
698
895
1070
1208
1304
1345
1312
1226
1151
1128
1148
1161
1142
1106
1082
1083
1102
1128
1137
1106
1034
955
911
911
923
904
846
769
693
622
554
494
448
418
409
431
478
520
531
518
522
569
623
621
539
418
326
278
244
195
138
98
85
80
65
34
-6
-43
-67
-71
-60
-50
-46
-35
3
69
135
169
157
114
72
52
52
54
44
20
-9
-34
-43
-17
44
117
169
181
187
230
313
382
374
285
187
151
186
228
227
200
209
285
389
462
482
471
440
376
284
209
213
283
337
314
252
247
335
443
477
428
374
392
474
553
589
599
614
636
647
645
650
670
692
702
723
764
779
676
424
123
-79
-117
-70
-40
-12
140
502
1009
1494
1834
2024
2127
2175
2153
2048
1892
1743
1636
1570
1534
1530
1573
1655
1741
1783
1756
1681
1591
1501
1402
1279
1140
994
843
674
498
353
278
262
260
242
232
282
413
572
684
727
751
807
874
879
782
621
460
297
73
-229
-513
-647
-595
-452
-343
-293
-242
-148
-47
-2
-31
-112
-236
-393
-522
-531
-399
-238
-211
-371
-618
-807
-875
-852
-761
-596
-365
-118
108
340
625
918
1089
1028
767
469
288
263
327
390
414
424
464
545
627
644
556
383
179
5
-107
-150
-136
-94
-68
-84
-143
-229
-323
-405
-457
-476
-488
-527
-592
-642
-643
-613
-617
-690
-779
-791
-691
-545
-453
-458
-515
-557
-554
-528
-515
-540
-606
-684
-727
-694
-595
-489
-437
-454
-511
-564
-593
-604
-621
-662
-740
-838
-914
-920
-850
-749
-686
-687
-717
-717
-660
-579
-521
-496
-480
-455
-429
-411
-377
-283
-131
10
79
93
128
217
308
329
279
236
258
329
404
484
610
784
948
1047
1093
1131
1167
1137
986
739
500
365
348
398
462
535
640
792
974
1135
1221
1199
1073
899
743
637
561
473
368
284
276
354
471
561
601
616
647
693
715
677
588
500
459
456
438
355
215
82
26
65
157
233
247
201
137
118
176
289
398
454
451
424
405
393
363
292
169
3
-179
-316
-342
-244
-84
46
110
155
249
394
522
567
534
487
479
493
492
466
460
515
618
716
756
744
723
724
741
743
712
661
618
605
621
646
649
621
585
582
630
699
741
735
697
657
632
615
588
536
443
305
146
10
-76
-122
-153
-175
-166
-116
-50
-6
-6
-24
-28
-15
-7
-21
-37
-9
91
247
402
494
490
401
271
144
44
-34
-105
-166
-188
-145
-56
14
13
-50
-122
-168
-215
-306
-434
-530
-527
-430
-308
-217
-156
-91
-16
35
23
-54
-155
-236
-276
-276
-247
-199
-143
-95
-65
-48
-29
-2
17
4
-52
-135
-214
-265
-297
-348
-439
-550
-616
-580
-441
-260
-116
-46
-26
-12
0
-32
-141
-292
-407
-431
-385
-324
-266
-177
-22
176
347
431
429
380
323
277
244
228
218
204
190
199
253
339
419
458
454
442
453
484
498
472
409
332
255
178
99
23
-46
-109
-156
-160
-113
-58
-68
-162
-265
-292
-251
-259
-399
-607
-721
-654
-483
-341
-271
-208
-106
-25
-63
-230
-430
-582
-714
-903
-1125
-1239
-1122
-806
-451
-183
6
208
451
658
740
699
616
561
527
478
414
378
397
436
426
340
220
136
111
106
68
-2
-46
-10
92
195
247
251
250
269
299
315
302
256
183
94
10
-43
-68
-89
-131
-183
-221
-242
-279
-368
-499
-629
-728
-805
-878
-929
-922
-849
-753
-684
-648
-613
-558
-512
-521
-593
-691
-769
-812
-827
-819
-790
-744
-692
-634
-566
-488
-421
-396
-412
-442
-448
-425
-393
-374
-370
-369
-363
-350
-336
-329
-334
-355
-384
-410
-424
-428
-425
-413
-387
-354
-327
-316
-315
-323
-351
-415
-508
-594
-636
-628
-593
-561
-537
-512
-475
-428
-390
-386
-431
-510
-586
-629
-637
-632
-632
-627
-603
-566
-544
-560
-601
-639
-662
-679
-705
-736
-747
-716
-645
-556
-483
-439
-422
-413
-397
-372
-349
-341
-354
-370
-366
-328
-273
-235
-232
-253
-269
-264
-245
-235
-249
-278
-300
-295
-262
-228
-233
-293
-387
-482
-555
-617
-694
-798
-917
-1006
-1010
-895
-701
-529
-469
-504
-524
-427
-226
-32
52
16
-89
-205
-307
-388
-458
-561
-746
-990
-1181
-1197
-1026
-778
-574
-435
-298
-112
93
243
302
293
252
195
124
55
24
53
125
195
230
226
205
189
186
183
167
135
99
68
40
7
-38
-82
-104
-93
-68
-65
-99
-150
-176
-164
-145
-160
-221
-291
-326
-317
-295
-294
-322
-364
-400
-426
-446
-468
-497
-542
-604
-672
-723
-743
-729
-711
-719
-758
-796
-791
-738
-679
-659
-675
-685
-655
-607
-584
-599
-620
-617
-594
-586
-601
-610
-584
-534
-492
-480
-489
-494
-480
-456
-441
-451
-483
-513
-514
-477
-430
-408
-424
-447
-438
-402
-388
-436
-522
-574
-554
-501
-490
-546
-613
-627
-587
-554
-574
-633
-687
-722
-751
-778
-781
-752
-725
-744
-802
-840
-806
-720
-648
-646
-704
-765
-783
-755
-714
-698
-716
-753
-788
-808
-813
-805
-787
-764
-746
-725
-677
-590
-484
-397
-344
-302
-243
-179
-157
-194
-245
-249
-194
-130
-107
-122
-138
-123
-94
-88
-129
-201
-274
-330
-375
-428
-495
-561
-602
-614
-619
-655
-744
-863
-942
-909
-767
-609
-556
-640
-750
-725
-502
-184
52
105
12
-109
-164
-157
-178
-337
-672
-1085
-1391
-1439
-1240
-937
-675
-476
-263
17
321
553
654
638
554
431
285
145
56
43
89
144
166
154
135
134
149
172
191
202
197
173
138
105
76
33
-49
-163
-272
-332
-332
-300
-280
-294
-323
-337
-323
-300
-300
-328
-360
-370
-361
-355
-369
-390
-400
-394
-392
-401
-414
-415
-402
-394
-413
-459
-509
-533
-525
-510
-524
-582
-652
-686
-661
-602
-550
-521
-496
-445
-359
-261
-194
-186
-229
-286
-320
-328
-335
-363
-399
-410
-387
-351
-329
-319
-295
-247
-199
-193
-235
-288
-311
-296
-275
-281
-312
-339
-349
-356
-394
-467
-524
-512
-439
-381
-394
-449
-451
-368
-285
-318
-447
-509
-349
7
376
599
668
673
664
596
410
113
-232
-568
-852
-1026
-1042
-914
-736
-611
-555
-499
-381
-218
-96
-68
-110
-153
-136
-41
102
233
302
298
254
222
226
253
274
287
318
397
515
628
687
676
626
591
598
632
650
630
580
519
444
323
143
-76
-290
-455
-540
-521
-405
-257
-167
-167
-189
-114
107
402
637
720
660
542
459
439
410
250
-95
-530
-849
-896
-688
-376
-93
153
425
746
1052
1258
1331
1282
1140
925
675
459
338
330
407
517
613
677
707
730
770
834
894
906
849
746
651
604
602
598
544
438
335
299
342
412
450
446
435
448
469
461
403
312
219
151
119
115
111
83
37
15
42
90
88
1
-125
-210
-218
-191
-191
-232
-272
-262
-208
-153
-127
-113
-80
-23
24
36
25
31
66
101
101
70
35
17
4
-16
-25
0
57
117
162
205
263
328
371
380
375
367
340
256
110
-50
-155
-180
-158
-130
-98
-33
87
241
379
465
481
430
317
155
-40
-262
-502
-736
-914
-1006
-1037
-1059
-1076
-1011
-784
-412
-26
251
412
545
722
914
1036
1029
914
761
640
598
636
701
714
635
510
430
409
355
159
-160
-430
-480
-306
-70
94
214
406
659
796
666
340
81
66
216
324
338
421
732
1215
1630
1795
1730
1568
1379
1145
854
556
313
128
-25
-116
-63
154
416
540
463
313
268
380
548
669
736
803
869
867
764
624
503
343
36
-411
-825
-1021
-967
-777
-552
-295
29
400
761
1097
1423
1696
1810
1700
1454
1263
1234
1303
1329
1256
1156
1121
1158
1195
1175
1107
1028
950
850
727
629
606
646
691
713
746
846
1013
1172
1239
1200
1124
1087
1106
1129
1082
931
711
504
387
367
385
369
321
309
374
455
438
282
78
-46
-66
-64
-102
-134
-52
158
392
529
557
556
589
627
594
467
301
179
136
157
210
268
316
348
358
342
304
246
174
87
-14
-110
-167
-155
-96
-50
-65
-123
-156
-127
-68
-37
-44
-40
21
113
156
100
-20
-134
-210
-279
-383
-519
-632
-679
-678
-673
-678
-656
-569
-440
-337
-306
-325
-342
-341
-359
-426
-523
-601
-645
-679
-721
-745
-709
-603
-479
-402
-386
-395
-392
-375
-371
-396
-444
-496
-537
-555
-538
-481
-411
-366
-365
-389
-404
-394
-377
-378
-411
-471
-543
-601
-630
-631
-635
-675
-757
-848
-908
-931
-942
-974
-1030
-1099
-1174
-1260
-1371
-1488
-1541
-1451
-1204
-893
-659
-555
-500
-356
-84
217
405
421
319
187
84
28
6
-37
-173
-421
-679
-782
-638
-308
53
340
567
797
1039
1241
1371
1455
1567
1747
1946
2080
2102
2042
1968
1900
1781
1541
1174
768
437
250
241
429
808
1302
1762
2042
2103
2022
1895
1737
1477
1059
542
87
-164
-184
-63
88
212
300
350
364
397
537
809
1106
1255
1175
959
775
684
601
407
90
-248
-491
-582
-537
-401
-228
-67
61
162
244
296
290
211
82
-46
-132
-159
-132
-68
10
79
127
157
179
196
216
249
315
418
529
605
623
596
559
530
489
399
254
88
-51
-138
-194
-251
-312
-345
-308
-201
-70
26
65
73
80
75
22
-94
-231
-336
-399
-453
-514
-552
-528
-468
-434
-442
-434
-347
-208
-118
-135
-205
-228
-168
-90
-66
-92
-102
-56
16
66
83
102
150
220
277
302
305
306
313
318
301
261
217
198
222
280
348
412
464
509
547
576
591
589
567
525
476
431
382
310
208
93
-6
-79
-148
-241
-371
-515
-622
-638
-554
-428
-361
-407
-506
-512
-334
-36
219
330
341
362
432
479
416
229
-46
-386
-762
-1085
-1215
-1074
-735
-365
-70
178
454
764
1028
1168
1169
1064
893
698
549
507
576
689
767
786
776
767
762
748
718
674
614
534
448
394
411
493
593
655
669
669
696
744
765
722
616
482
354
250
186
175
208
254
286
316
378
475
559
576
527
467
438
421
367
273
193
170
177
157
100
58
76
127
146
108
57
37
37
14
-37
-66
-42
0
2
-45
-92
-104
-104
-137
-203
-260
-271
-254
-241
-226
-168
-45
107
222
268
260
235
208
173
130
89
63
50
33
1
-46
-101
-160
-220
-283
-353
-432
-501
-533
-507
-436
-360
-320
-327
-362
-401
-437
-492
-583
-688
-758
-756
-700
-642
-608
-569
-495
-408
-385
-454
-548
-570
-492
-379
-297
-230
-118
57
245
392
484
533
528
449
330
258
296
403
481
482
459
503
630
766
825
797
729
670
625
583
552
541
526
464
342
196
78
2
-68
-164
-272
-335
-304
-179
-28
60
25
-109
-250
-315
-300
-268
-275
-315
-353
-377
-407
-455
-517
-618
-810
-1106
-1410
-1568
-1508
-1308
-1109
-966
-818
-592
-305
-47
114
172
152
84
-3
-61
-43
45
145
195
189
165
159
166
161
139
121
132
172
216
245
266
298
342
374
365
323
285
281
300
304
271
220
190
202
234
253
247
226
205
196
199
213
233
247
251
251
245
224
171
97
30
-6
-25
-57
-111
-160
-174
-159
-146
-151
-157
-140
-100
-65
-53
-52
-39
-9
19
21
-8
-54
-102
-146
-189
-228
-254
-266
-273
-284
-292
-280
-242
-194
-171
-188
-230
-263
-267
-252
-248
-274
-323
-367
-389
-400
-421
-456
-477
-460
-417
-398
-432
-485
-506
-491
-487
-532
-591
-594
-520
-428
-386
-392
-381
-322
-264
-287
-403
-542
-627
-644
-644
-670
-698
-661
-523
-317
-135
-49
-55
-85
-73
-22
10
-23
-103
-165
-155
-81
17
105
172
217
245
267
291
306
296
256
209
180
167
155
137
139
171
196
155
48
-67
-136
-166
-210
-306
-439
-578
-696
-751
-697
-538
-367
-309
-386
-471
-411
-184
83
248
279
235
165
71
-48
-174
-312
-516
-821
-1143
-1298
-1167
-824
-466
-224
-58
153
448
742
927
975
941
885
822
751
704
719
791
865
886
857
822
806
800
782
760
759
787
820
831
826
820
807
766
698
639
610
580
492
347
214
163
192
238
258
263
281
311
335
352
371
372
321
218
106
27
-26
-78
-125
-129
-87
-53
-69
-109
-103
-44
-8
-68
-196
-290
-288
-233
-206
-237
-278
-276
-233
-188
-169
-167
-162
-152
-150
-153
-142
-106
-63
-49
-67
-74
-31
53
116
108
41
-20
-26
9
36
21
-31
-90
-121
-111
-76
-46
-40
-52
-62
-77
-122
-207
-292
-327
-327
-356
-448
-546
-554
-449
-312
-237
-237
-241
-193
-112
-60
-69
-121
-174
-208
-224
-229
-227
-215
-194
-172
-157
-146
-120
-67
9
80
133
173
225
291
344
359
341
319
312
314
298
263
225
213
241
295
348
375
373
366
373
388
379
317
207
91
10
-31
-60
-111
-193
-291
-388
-462
-484
-427
-309
-207
-204
-293
-361
-290
-78
158
301
330
307
283
265
247
214
134
-48
-334
-610
-700
-533
-218
59
220
345
546
821
1062
1177
1168
1107
1039
959
860
771
736
764
815
829
785
713
659
639
642
648
663
699
749
790
809
820
838
847
818
750
687
660
660
650
627
614
609
569
459
313
207
163
134
79
33
67
183
294
334
331
360
428
452
366
213
94
56
47
0
-77
-118
-93
-49
-47
-83
-101
-72
-31
-23
-41
-27
50
153
222
243
261
321
401
447
430
386
361
362
348
276
150
20
-48
-28
53
146
218
278
363
491
635
745
786
766
728
711
726
757
778
773
746
714
677
630
566
495
431
359
253
121
25
17
64
68
-24
-126
-90
119
368
502
534
634
919
1291
1529
1524
1389
1313
1346
1365
1250
1033
860
829
903
974
985
962
950
953
940
894
828
758
685
605
529
466
398
303
202
161
217
324
388
370
328
319
321
252
81
-127
-298
-445
-643
-902
-1122
-1171
-1008
-734
-495
-365
-313
-238
-71
155
331
370
273
101
-109
-358
-610
-775
-794
-738
-754
-869
-920
-713
-258
218
481
511
473
515
633
728
742
701
667
682
746
847
953
1033
1079
1103
1110
1080
993
877
799
810
883
943
938
884
836
825
826
809
777
754
738
695
623
574
592
643
640
565
515
584
710
717
525
268
149
214
316
325
300
399
661
938
1071
1060
1029
1043
1041
935
740
552
440
390
355
329
327
345
359
364
384
431
472
458
401
373
433
552
638
640
600
596
651
716
742
739
753
799
839
833
778
697
607
506
405
329
301
313
332
326
292
248
203
154
85
-7
-112
-197
-232
-213
-173
-159
-188
-228
-238
-220
-229
-312
-455
-585
-643
-633
-601
-573
-532
-444
-311
-167
-49
25
50
22
-52
-147
-233
-289
-314
-319
-307
-276
-230
-174
-120
-79
-63
-76
-114
-164
-217
-261
-283
-270
-238
-221
-236
-264
-270
-244
-214
-209
-229
-258
-303
-381
-484
-574
-628
-660
-705
-765
-803
-773
-664
-498
-318
-184
-156
-242
-369
-441
-429
-382
-359
-359
-345
-317
-315
-360
-423
-487
-606
-854
-1200
-1487
-1557
-1408
-1185
-1019
-910
-760
-514
-237
-37
35
4
-72
-156
-237
-304
-326
-271
-129
74
279
423
477
466
434
402
367
340
355
418
478
471
390
301
255
216
88
-164
-472
-718
-839
-843
-760
-603
-389
-165
10
109
163
203
219
182
85
-23
-70
-18
103
231
322
372
381
335
237
140
130
236
402
539
613
668
746
815
789
627
378
150
21
1
50
128
227
359
517
654
710
661
548
433
340
255
159
74
42
81
163
233
250
209
136
75
54
68
86
87
81
90
114
129
123
110
104
97
64
-1
-74
-131
-164
-179
-193
-222
-279
-349
-392
-381
-327
-282
-275
-282
-259
-205
-160
-158
-187
-209
-204
-184
-172
-168
-160
-143
-118
-91
-55
-1
68
133
163
147
100
61
55
68
55
2
-53
-49
29
137
220
265
293
318
325
292
226
147
64
-32
-140
-248
-334
-392
-436
-486
-552
-620
-661
-654
-610
-572
-577
-623
-667
-665
-609
-510
-378
-228
-107
-83
-190
-376
-545
-660
-782
-992
-1272
-1489
-1503
-1298
-987
-701
-481
-277
-43
198
373
427
360
220
67
-53
-116
-121
-91
-49
2
71
157
244
308
342
346
319
265
198
135
84
39
-5
-41
-56
-47
-23
4
31
57
72
59
12
-49
-84
-69
-21
13
-16
-115
-241
-338
-378
-375
-363
-357
-345
-291
-182
-51
40
46
-15
-75
-74
-36
-42
-144
-290
-366
-309
-171
-60
-24
-15
47
172
299
362
363
359
382
412
410
373
345
352
354
293
171
64
46
104
154
132
68
38
78
148
193
204
208
225
241
230
182
107
20
-64
-139
-204
-260
-305
-324
-317
-315
-363
-465
-575
-636
-645
-650
-693
-758
-796
-787
-759
-747
-754
-748
-702
-618
-528
-463
-433
-417
-381
-309
-213
-124
-49
39
170
342
523
675
773
803
765
671
547
412
271
125
-1
-62
-31
71
188
265
282
251
202
157
110
31
-95
-236
-322
-312
-242
-197
-240
-360
-486
-563
-577
-560
-546
-555
-578
-586
-557
-487
-385
-259
-117
7
57
-2
-141
-282
-384
-494
-684
-963
-1229
-1344
-1247
-992
-692
-433
-229
-49
138
336
511
614
605
493
343
238
219
263
312
327
314
302
299
294
272
238
207
185
173
173
177
165
112
29
-36
-46
-21
-20
-75
-148
-185
-182
-194
-262
-364
-442
-467
-466
-475
-500
-524
-532
-533
-542
-566
-601
-636
-657
-655
-638
-625
-632
-648
-649
-618
-567
-522
-491
-462
-425
-397
-401
-441
-485
-492
-451
-394
-352
-314
-243
-138
-46
-14
-35
-46
-12
36
42
1
-32
-8
63
129
153
144
128
120
120
123
126
114
81
41
31
62
101
99
48
-7
-15
26
68
63
8
-60
-106
-129
-152
-203
-289
-389
-469
-496
-458
-368
-265
-185
-144
-132
-128
-124
-126
-153
-208
-273
-311
-302
-250
-183
-128
-95
-71
-41
-1
38
59
54
42
56
111
182
223
217
199
214
261
300
305
289
281
287
284
262
238
248
295
348
363
311
210
105
40
17
-13
-102
-258
-422
-504
-455
-308
-146
-46
-15
3
82
258
499
729
868
870
744
560
405
312
221
24
-309
-666
-863
-806
-568
-311
-142
-32
107
318
557
734
782
710
588
493
454
444
418
372
349
388
471
540
548
501
440
401
392
404
421
432
428
414
408
429
477
527
537
482
385
300
270
293
332
349
343
336
343
353
351
323
259
161
48
-39
-72
-63
-50
-41
-18
26
51
-3
-130
-245
-260
-170
-50
24
45
59
94
137
165
170
164
148
119
92
98
159
258
345
380
364
332
315
318
326
312
268
209
163
158
187
219
223
198
162
134
118
110
120
151
187
188
145
88
59
65
60
8
-79
-143
-144
-103
-80
-110
-179
-251
-297
-310
-293
-252
-208
-188
-199
-215
-209
-177
-151
-154
-170
-153
-82
17
93
130
162
229
321
380
363
291
239
253
314
365
383
390
415
447
465
469
481
499
497
460
418
418
463
508
509
467
420
393
380
356
302
214
105
8
-56
-108
-196
-356
-547
-672
-646
-488
-311
-230
-257
-280
-174
79
364
544
573
512
440
389
350
311
253
129
-98
-382
-575
-554
-339
-81
77
132
190
340
566
771
870
841
728
601
518
503
527
545
535
514
506
508
496
456
411
396
427
480
521
535
531
529
537
544
536
498
433
358
298
270
272
286
292
280
257
237
231
233
225
192
143
100
77
65
51
36
30
33
31
9
-34
-96
-170
-238
-261
-218
-142
-95
-104
-124
-84
17
114
147
130
120
145
170
160
126
106
113
121
104
70
48
53
75
99
120
133
129
103
57
9
-27
-48
-59
-78
-122
-185
-225
-181
-44
121
219
216
170
172
242
314
312
238
160
129
123
82
-5
-72
-36
112
298
433
480
461
407
324
195
15
-206
-436
-628
-735
-723
-591
-353
-18
402
868
1301
1622
1806
1878
1858
1720
1430
1014
578
242
63
14
43
111
207
324
453
586
710
794
794
701
565
470
463
515
563
566
538
510
479
413
286
109
-76
-236
-364
-475
-568
-618
-608
-565
-560
-652
-807
-916
-881
-704
-484
-334
-292
-319
-349
-341
-302
-279
-323
-437
-555
-569
-427
-173
89
296
459
626
801
950
1039
1072
1068
1046
1010
971
947
947
960
968
965
947
911
853
779
710
665
651
649
636
600
549
494
440
390
353
343
358
371
354
312
291
326
409
487
520
519
521
536
538
502
436
367
306
235
149
70
28
20
21
11
-1
-12
-33
-79
-122
-108
-28
51
64
45
96
255
426
478
414
359
392
429
350
205
214
522
1012
1413
1580
1598
1611
1607
1450
1068
558
82
-288
-573
-786
-881
-812
-611
-375
-192
-85
-24
34
100
156
170
142
125
191
353
545
679
717
683
608
509
406
338
334
376
415
432
469
583
779
1013
1242
1461
1665
1818
1863
1772
1569
1289
956
593
243
-39
-218
-286
-248
-111
89
288
430
509
562
619
666
676
645
600
562
537
528
546
584
608
590
539
497
493
517
537
544
549
545
500
381
190
-29
-225
-382
-527
-690
-860
-969
-942
-783
-588
-480
-492
-543
-522
-399
-246
-168
-213
-356
-519
-606
-554
-385
-237
-294
-623
-1090
-1450
-1567
-1526
-1518
-1621
-1733
-1682
-1398
-967
-532
-195
8
99
120
108
66
-21
-124
-137
45
392
736
933
1012
1131
1359
1554
1493
1101
531
16
-316
-487
-570
-604
-582
-503
-389
-275
-202
-183
-221
-310
-458
-670
-902
-1065
-1086
-979
-838
-738
-675
-609
-542
-519
-561
-617
-627
-599
-597
-646
-693
-661
-540
-404
-332
-342
-401
-474
-543
-594
-603
-569
-533
-549
-615
-652
-596
-469
-365
-346
-365
-331
-215
-84
-14
9
59
177
318
407
418
399
420
511
653
808
972
1176
1436
1714
1942
2084
2172
2240
2244
2097
1792
1444
1178
992
779
484
191
7
-68
-119
-187
-216
-164
-81
-39
-13
76
234
360
367
305
302
387
463
447
375
358
438
557
647
708
781
883
980
1039
1050
1019
947
839
714
595
486
373
256
178
193
321
515
687
779
799
798
802
795
746
653
553
476
416
363
334
348
381
380
321
235
169
119
52
-23
-40
36
140
170
118
94
195
392
564
637
634
606
552
441
297
182
97
-38
-277
-531
-621
-458
-143
135
280
364
506
730
947
1058
1040
952
859
789
734
693
680
699
715
680
584
467
384
362
385
426
470
508
537
574
644
734
775
702
529
359
278
269
247
171
98
107
191
272
294
274
253
234
184
100
23
-5
10
32
32
17
-3
-33
-70
-93
-89
-76
-95
-167
-245
-266
-218
-170
-200
-304
-390
-373
-264
-152
-103
-98
-76
-20
30
29
-13
-61
-96
-127
-161
-175
-154
-113
-84
-78
-74
-61
-59
-90
-139
-165
-153
-131
-131
-147
-141
-99
-51
-35
-50
-70
-77
-84
-100
-108
-93
-64
-56
-83
-117
-123
-100
-82
-97
-131
-151
-134
-93
-59
-60
-90
-128
-153
-170
-189
-202
-181
-123
-73
-77
-129
-170
-161
-136
-152
-214
-263
-257
-217
-180
-129
-13
166
328
402
416
465
587
701
696
554
376
271
242
207
110
-9
-66
-39
4
-8
-68
-118
-135
-151
-190
-236
-269
-314
-396
-443
-325
-18
303
415
294
137
144
303
437
431
329
225
123
-27
-198
-306
-354
-478
-781
-1164
-1378
-1281
-977
-691
-522
-379
-154
132
361
477
522
544
504
332
54
-185
-264
-210
-166
-236
-384
-494
-503
-448
-405
-407
-433
-458
-480
-513
-551
-586
-616
-637
-643
-630
-592
-544
-494
-443
-393
-361
-365
-392
-409
-405
-412
-475
-595
-723
-815
-885
-983
-1128
-1288
-1408
-1470
-1495
-1511
-1522
-1519
-1507
-1502
-1504
-1504
-1498
-1500
-1534
-1597
-1665
-1713
-1730
-1722
-1695
-1649
-1589
-1526
-1463
-1393
-1313
-1235
-1184
-1167
-1169
-1170
-1170
-1181
-1204
-1218
-1198
-1146
-1089
-1049
-1029
-1015
-1002
-994
-995
-1002
-1020
-1054
-1105
-1159
-1196
-1214
-1233
-1268
-1306
-1320
-1302
-1282
-1290
-1320
-1341
-1338
-1335
-1360
-1405
-1430
-1410
-1362
-1317
-1286
-1255
-1207
-1151
-1111
-1097
-1096
-1089
-1066
-1035
-1008
-986
-955
-902
-832
-769
-728
-698
-657
-605
-563
-547
-541
-522
-490
-457
-433
-404
-362
-326
-318
-330
-330
-299
-253
-221
-207
-201
-201
-213
-230
-224
-185
-150
-169
-250
-352
-430
-488
-558
-653
-755
-860
-966
-1043
-1025
-892
-735
-706
-853
-1045
-1096
-956
-749
-638
-666
-767
-867
-948
-1017
-1078
-1148
-1282
-1505
-1738
-1829
-1692
-1388
-1066
-823
-640
-453
-244
-60
38
32
-55
-172
-272
-326
-332
-311
-278
-245
-221
-221
-255
-321
-403
-479
-528
-532
-494
-446
-439
-487
-554
-587
-574
-560
-587
-649
-704
-727
-737
-759
-779
-770
-738
-732
-784
-859
-901
-891
-876
-898
-937
-956
-946
-949
-990
-1043
-1068
-1072
-1102
-1160
-1195
-1166
-1101
-1063
-1069
-1062
-1014
-973
-1000
-1070
-1083
-996
-885
-854
-898
-900
-790
-641
-586
-659
-754
-755
-673
-615
-655
-747
-797
-776
-729
-724
-765
-813
-834
-826
-817
-818
-830
-842
-847
-848
-859
-890
-933
-966
-978
-991
-1026
-1070
-1076
-1023
-953
-938
-1003
-1093
-1131
-1109
-1090
-1130
-1211
-1256
-1212
-1095
-969
-888
-870
-896
-924
-923
-892
-872
-906
-990
-1062
-1059
-982
-889
-840
-832
-821
-783
-740
-729
-749
-754
-706
-614
-517
-448
-409
-377
-341
-309
-298
-324
-386
-462
-517
-528
-510
-494
-498
-495
-451
-389
-376
-454
-586
-693
-746
-796
-897
-1040
-1174
-1274
-1348
-1384
-1347
-1248
-1185
-1255
-1417
-1496
-1358
-1063
-817
-772
-899
-1052
-1124
-1115
-1101
-1169
-1366
-1646
-1871
-1883
-1640
-1271
-959
-778
-639
-434
-170
42
117
70
-18
-93
-150
-199
-231
-224
-171
-85
3
49
38
-8
-31
1
61
92
67
15
-15
-13
-3
-20
-76
-163
-264
-346
-384
-382
-383
-426
-502
-564
-575
-554
-554
-598
-661
-707
-721
-723
-739
-773
-818
-862
-892
-898
-871
-827
-789
-770
-765
-754
-731
-709
-705
-719
-734
-727
-692
-646
-611
-600
-616
-643
-661
-656
-636
-626
-642
-673
-686
-662
-609
-555
-502
-429
-333
-239
-190
-194
-217
-222
-215
-241
-329
-457
-565
-612
-617
-620
-647
-684
-712
-728
-733
-711
-646
-559
-499
-497
-522
-518
-474
-441
-467
-538
-600
-630
-662
-726
-776
-735
-593
-437
-369
-389
-403
-335
-224
-186
-280
-448
-562
-556
-469
-384
-346
-333
-295
-206
-78
57
163
218
235
244
270
302
307
282
258
261
278
273
243
221
239
280
302
285
251
220
182
124
57
9
-26
-98
-243
-420
-546
-587
-609
-715
-916
-1099
-1140
-1052
-985
-1067
-1248
-1326
-1144
-745
-315
5
205
345
454
517
525
476
328
23
-399
-755
-842
-636
-327
-119
-36
61
274
535
694
691
583
462
347
219
108
85
173
299
363
339
283
256
262
259
230
197
182
178
174
172
190
228
256
255
241
244
261
255
203
130
87
92
118
132
125
115
124
150
171
159
106
28
-42
-67
-43
-4
9
-8
-18
9
65
107
103
62
20
5
17
24
-3
-48
-58
5
103
147
95
15
15
109
188
153
39
-21
44
156
197
146
87
90
126
128
94
81
121
169
169
129
120
183
270
284
167
-50
-265
-393
-429
-438
-476
-534
-555
-496
-368
-211
-68
19
22
-58
-172
-260
-316
-395
-561
-817
-1089
-1288
-1371
-1352
-1275
-1182
-1082
-945
-727
-430
-132
63
112
66
23
26
35
-14
-123
-224
-229
-115
64
221
303
328
349
397
454
469
424
353
299
279
276
268
242
194
121
46
11
24
28
-61
-267
-514
-691
-762
-798
-873
-968
-992
-883
-683
-488
-359
-302
-274
-224
-106
95
333
508
552
479
365
274
206
118
-32
-261
-536
-755
-791
-592
-249
56
217
293
414
630
855
978
973
905
849
834
865
946
1062
1159
1172
1093
979
893
847
809
759
702
653
610
561
509
472
458
429
333
153
-63
-245
-365
-461
-597
-787
-972
-1085
-1108
-1096
-1112
-1169
-1245
-1316
-1383
-1446
-1496
-1523
-1543
-1581
-1634
-1667
-1642
-1572
-1503
-1474
-1480
-1488
-1475
-1446
-1412
-1375
-1331
-1283
-1240
-1203
-1167
-1114
-1053
-1016
-1023
-1051
-1044
-969
-858
-773
-739
-734
-729
-746
-805
-849
-745
-418
29
381
502
450
386
363
263
-62
-605
-1195
-1641
-1879
-1953
-1915
-1774
-1541
-1284
-1085
-980
-940
-936
-983
-1106
-1290
-1469
-1580
-1611
-1590
-1542
-1474
-1396
-1336
-1327
-1372
-1437
-1477
-1467
-1423
-1392
-1410
-1458
-1487
-1467
-1438
-1455
-1517
-1542
-1460
-1291
-1125
-1020
-941
-820
-646
-473
-352
-278
-229
-213
-252
-335
-405
-417
-387
-363
-361
-344
-265
-127
18
122
184
230
278
311
303
251
181
129
118
142
175
192
181
165
191
291
432
544
579
569
597
706
866
1023
1158
1272
1337
1300
1144
925
706
480
191
-157
-453
-563
-460
-245
-31
145
310
488
661
797
883
909
864
758
646
602
663
790
912
970
958
901
828
748
656
534
374
206
102
136
318
576
787
872
845
778
713
621
433
134
-212
-501
-668
-701
-614
-425
-183
33
156
192
206
253
321
353
325
262
211
181
165
163
161
108
-44
-267
-450
-501
-448
-393
-376
-307
-67
330
731
973
1015
924
772
582
346
70
-230
-535
-803
-958
-940
-761
-517
-311
-183
-103
-21
81
182
242
238
175
87
20
1
16
35
41
31
1
-54
-120
-166
-157
-90
-7
37
4
-97
-223
-329
-383
-389
-370
-341
-293
-201
-60
93
203
237
209
163
129
104
74
34
-7
-38
-45
-21
32
85
111
102
82
59
18
-49
-88
-19
183
435
615
682
696
729
776
761
622
369
73
-181
-318
-312
-207
-98
-50
-42
-9
66
117
72
-62
-214
-335
-433
-529
-603
-609
-535
-413
-289
-187
-113
-65
-32
14
97
222
362
468
492
410
250
84
-33
-125
-280
-535
-801
-926
-836
-606
-367
-184
-24
154
334
473
559
601
596
531
428
355
359
411
443
428
403
401
401
351
247
145
105
125
151
139
100
86
127
194
223
192
142
117
102
24
-163
-410
-618
-743
-836
-955
-1082
-1146
-1125
-1077
-1062
-1058
-989
-838
-696
-674
-776
-894
-917
-843
-750
-705
-674
-580
-393
-160
37
156
215
248
258
215
100
-67
-230
-343
-402
-434
-472
-527
-583
-613
-604
-572
-555
-590
-680
-783
-839
-831
-799
-798
-839
-884
-899
-895
-899
-914
-904
-853
-787
-744
-732
-729
-725
-734
-767
-811
-846
-866
-876
-873
-854
-827
-814
-812
-787
-710
-593
-481
-404
-347
-282
-210
-162
-161
-193
-232
-262
-289
-320
-346
-353
-332
-291
-245
-204
-167
-130
-88
-43
-1
34
62
92
127
164
191
207
215
226
241
257
270
273
262
230
186
150
140
147
150
131
100
74
40
-27
-139
-277
-407
-524
-664
-851
-1054
-1189
-1176
-1017
-794
-612
-511
-440
-320
-127
87
265
383
436
388
202
-84
-362
-554
-724
-1011
-1452
-1887
-2090
-1990
-1728
-1496
-1359
-1234
-1033
-774
-551
-420
-378
-394
-446
-523
-588
-600
-559
-510
-500
-527
-559
-577
-595
-629
-668
-685
-662
-608
-551
-507
-479
-459
-443
-432
-436
-468
-528
-593
-633
-636
-622
-617
-629
-623
-558
-422
-261
-143
-98
-100
-94
-61
-36
-65
-149
-245
-313
-349
-373
-389
-393
-388
-395
-434
-496
-553
-588
-606
-615
-619
-612
-586
-539
-477
-422
-396
-406
-434
-453
-458
-466
-489
-513
-522
-514
-503
-499
-496
-491
-484
-489
-512
-552
-598
-640
-662
-662
-658
-669
-691
-690
-642
-566
-512
-519
-569
-613
-624
-628
-661
-734
-818
-877
-899
-893
-879
-869
-867
-862
-838
-781
-703
-631
-585
-565
-551
-534
-517
-502
-491
-484
-489
-505
-513
-492
-444
-391
-347
-303
-252
-209
-193
-202
-208
-194
-178
-190
-219
-223
-178
-110
-62
-38
-10
41
88
99
79
68
91
123
126
97
63
41
8
-63
-171
-288
-390
-489
-608
-759
-919
-1034
-1047
-944
-787
-689
-709
-780
-761
-576
-285
-25
110
123
68
-7
-66
-101
-163
-348
-691
-1076
-1285
-1186
-861
-512
-274
-118
64
310
559
726
772
707
575
427
318
278
295
334
378
420
450
450
412
359
324
313
306
285
262
256
271
289
291
278
260
247
244
250
251
237
206
175
161
156
132
67
-18
-76
-81
-58
-57
-94
-141
-164
-162
-161
-170
-159
-102
-17
42
44
12
-9
-9
-25
-91
-195
-291
-351
-384
-401
-389
-329
-229
-138
-99
-110
-132
-136
-131
-149
-206
-276
-313
-285
-206
-118
-59
-32
-21
-15
-16
-32
-57
-79
-96
-116
-144
-172
-188
-195
-200
-207
-219
-236
-272
-332
-403
-470
-524
-567
-601
-614
-602
-583
-583
-606
-624
-608
-556
-505
-489
-509
-537
-539
-506
-457
-410
-378
-363
-366
-390
-421
-423
-372
-283
-215
-207
-229
-203
-79
101
238
269
225
184
183
180
123
16
-76
-100
-61
-4
42
80
132
200
269
328
370
383
358
299
216
119
12
-107
-239
-395
-593
-808
-955
-956
-837
-735
-759
-848
-828
-599
-255
13
103
77
58
88
127
124
54
-96
-332
-608
-822
-878
-782
-625
-493
-388
-257
-75
130
305
414
447
416
341
265
236
276
362
443
482
477
458
443
428
402
372
364
391
434
462
483
535
633
733
774
734
644
536
418
294
205
205
286
362
347
266
230
312
445
492
392
220
103
86
95
45
-71
-178
-220
-202
-176
-182
-229
-299
-364
-387
-351
-284
-238
-236
-237
-179
-56
67
123
112
88
88
104
104
75
28
-33
-102
-163
-189
-177
-149
-128
-112
-90
-71
-90
-164
-285
-425
-562
-671
-719
-680
-574
-455
-366
-280
-148
23
148
138
3
-138
-175
-118
-82
-137
-218
-208
-81
57
83
5
-67
-64
-36
-61
-131
-164
-133
-106
-143
-185
-113
90
310
443
522
648
824
923
837
624
435
341
269
123
-70
-184
-138
28
210
345
442
525
589
616
602
572
549
542
552
571
584
574
550
534
534
525
461
331
186
90
64
55
-8
-128
-241
-272
-229
-202
-255
-355
-396
-317
-162
-35
-3
-55
-139
-204
-230
-225
-230
-308
-475
-664
-752
-672
-479
-301
-207
-163
-82
72
255
396
470
489
474
438
391
363
379
432
484
488
446
390
365
374
370
307
190
88
60
96
123
84
9
-23
28
113
149
124
99
133
204
237
214
202
263
367
430
410
353
328
322
274
152
17
-56
-68
-100
-209
-326
-323
-167
8
33
-99
-206
-105
163
368
352
202
142
277
486
591
561
513
531
571
552
480
450
519
642
724
741
760
861
1046
1229
1327
1324
1278
1241
1201
1108
959
825
771
776
750
647
534
514
601
707
743
705
651
623
611
601
596
602
600
571
526
517
574
681
785
854
902
952
1001
1013
956
834
684
544
417
291
181
126
142
191
218
212
209
230
227
143
-10
-133
-143
-76
-52
-142
-280
-324
-212
-17
128
155
105
77
124
223
308
316
220
41
-152
-288
-349
-388
-489
-662
-819
-865
-802
-731
-731
-766
-736
-626
-550
-618
-800
-946
-944
-833
-735
-726
-783
-855
-920
-989
-1059
-1125
-1222
-1386
-1601
-1772
-1796
-1662
-1442
-1215
-998
-769
-530
-333
-240
-269
-400
-597
-824
-1057
-1256
-1383
-1410
-1343
-1210
-1051
-912
-843
-868
-963
-1057
-1086
-1069
-1092
-1207
-1359
-1425
-1349
-1206
-1111
-1097
-1095
-1033
-928
-845
-805
-760
-678
-590
-547
-552
-556
-517
-450
-398
-368
-313
-206
-69
46
126
208
315
408
404
263
54
-97
-108
-24
42
33
2
38
178
362
525
633
689
699
678
650
639
644
653
675
739
846
973
1100
1259
1468
1670
1769
1754
1708
1680
1606
1395
1090
857
790
806
766
679
662
759
865
879
858
918
1041
1072
935
763
745
885
987
922
766
679
712
760
726
652
635
689
719
665
575
550
599
624
545
390
263
234
268
303
316
348
408
468
486
468
471
528
605
627
558
439
353
356
428
493
487
412
336
327
403
515
593
591
531
482
495
556
597
555
428
271
144
59
-2
-67
-153
-252
-329
-320
-206
-33
110
172
193
264
421
603
698
647
488
325
240
218
183
64
-112
-240
-221
-71
86
142
128
171
335
526
557
360
81
-43
86
307
380
234
48
65
307
558
581
375
165
147
282
383
345
260
280
425
550
525
382
247
206
215
195
125
57
34
47
87
169
310
445
485
402
266
181
166
161
99
-14
-109
-170
-218
-273
-284
-198
-57
-9
-140
-341
-390
-194
61
109
-100
-339
-359
-161
6
-50
-263
-402
-355
-219
-154
-210
-281
-266
-159
-42
8
-39
-151
-244
-247
-168
-74
-46
-71
-72
-9
73
109
84
40
10
-20
-65
-109
-103
-32
74
167
230
300
425
603
749
765
641
475
387
392
388
291
148
84
150
266
337
368
428
523
549
430
243
142
192
275
234
75
-30
70
329
540
551
414
320
381
516
559
454
321
305
415
528
551
510
488
503
496
448
418
474
574
605
506
338
202
113
7
-155
-320
-410
-427
-430
-444
-431
-357
-260
-214
-241
-294
-328
-337
-319
-227
-21
265
509
614
587
521
490
473
384
163
-153
-439
-560
-474
-265
-64
53
118
213
365
525
634
679
686
677
642
565
451
338
248
175
97
-2
-113
-202
-232
-182
-73
40
103
107
92
103
134
132
58
-58
-140
-145
-109
-85
-69
-23
61
130
140
122
132
158
115
-61
-316
-530
-636
-675
-729
-817
-873
-830
-690
-523
-411
-374
-371
-345
-282
-227
-235
-305
-378
-396
-359
-326
-340
-388
-419
-401
-352
-312
-306
-334
-376
-399
-381
-330
-290
-304
-360
-403
-406
-397
-421
-476
-509
-488
-449
-456
-518
-585
-613
-614
-629
-673
-720
-745
-751
-755
-752
-726
-670
-599
-537
-498
-480
-469
-459
-453
-464
-491
-517
-516
-483
-445
-435
-450
-454
-419
-370
-353
-389
-443
-464
-431
-376
-334
-310
-276
-219
-153
-106
-79
-54
-19
11
12
-16
-50
-59
-43
-15
13
39
67
94
115
143
204
308
420
483
472
419
372
338
275
145
-21
-150
-208
-230
-272
-332
-352
-287
-165
-61
-29
-61
-108
-123
-88
-16
57
81
24
-102
-234
-325
-380
-469
-649
-893
-1086
-1105
-921
-626
-357
-180
-45
130
364
577
664
598
444
293
192
138
108
95
102
123
153
198
263
334
370
345
274
200
160
149
141
116
84
71
90
136
189
229
243
230
194
139
76
15
-39
-83
-119
-140
-139
-116
-82
-59
-65
-102
-148
-173
-166
-145
-134
-138
-133
-104
-75
-82
-133
-186
-209
-209
-222
-255
-272
-244
-185
-135
-108
-84
-49
-20
-20
-45
-67
-79
-99
-136
-166
-167
-150
-147
-177
-210
-200
-135
-52
-2
-6
-41
-69
-74
-77
-116
-206
-315
-386
-382
-314
-233
-176
-139
-100
-53
-13
-6
-44
-120
-219
-329
-444
-551
-621
-623
-548
-422
-296
-208
-153
-99
-26
47
75
33
-50
-109
-101
-41
14
24
5
5
38
77
89
84
96
135
170
180
188
243
345
431
438
370
286
225
173
110
62
73
153
246
293
296
310
361
399
352
221
85
19
3
-38
-116
-143
-39
146
252
190
50
6
122
296
377
324
202
72
-69
-233
-404
-567
-761
-1029
-1321
-1475
-1367
-1031
-647
-363
-171
30
295
568
749
792
729
628
537
471
440
447
494
567
637
677
675
646
618
610
611
602
587
584
600
606
571
495
421
382
369
347
302
263
259
283
306
309
301
303
316
330
333
314
260
170
71
5
-16
-19
-36
-58
-49
11
88
137
142
119
85
39
-15
-60
-84
-97
-123
-152
-158
-127
-87
-68
-72
-77
-78
-104
-171
-254
-308
-320
-321
-330
-325
-268
-162
-57
5
39
81
129
130
42
-108
-243
-311
-329
-337
-342
-314
-232
-122
-33
11
22
14
-24
-108
-228
-345
-430
-492
-548
-599
-620
-608
-587
-582
-573
-523
-426
-331
-291
-301
-309
-276
-233
-241
-323
-434
-514
-536
-507
-438
-322
-162
11
160
271
363
442
475
417
267
89
-37
-85
-93
-98
-94
-38
91
253
382
449
475
482
464
392
261
100
-48
-162
-241
-291
-318
-337
-366
-406
-431
-396
-289
-164
-117
-204
-385
-546
-593
-521
-396
-283
-210
-184
-213
-276
-321
-326
-354
-523
-857
-1207
-1351
-1195
-848
-499
-244
-41
188
451
693
858
916
868
734
564
427
374
408
488
560
597
611
625
641
633
584
541
604
833
1169
1468
1628
1662
1644
1595
1457
1169
756
304
-108
-442
-677
-781
-741
-596
-422
-280
-170
-63
45
113
97
-1
-121
-199
-210
-181
-153
-144
-132
-101
-64
-54
-87
-136
-154
-112
-29
48
87
91
86
89
97
102
111
133
166
186
172
125
75
51
53
54
23
-30
-58
-19
68
125
88
-28
-139
-178
-157
-148
-182
-221
-201
-109
7
104
171
217
232
206
148
82
13
-77
-199
-319
-385
-392
-396
-457
-568
-671
-712
-698
-666
-621
-525
-351
-144
5
39
-13
-71
-97
-129
-214
-332
-388
-309
-113
106
267
364
440
521
575
549
435
283
168
130
135
127
103
117
202
310
348
298
237
249
313
352
346
356
401
378
153
-256
-657
-869
-906
-920
-1006
-1080
-979
-651
-212
161
379
469
518
595
728
902
1069
1162
1128
980
797
671
620
558
366
35
-298
-451
-360
-123
100
243
358
525
743
937
1039
1045
993
919
831
747
716
773
889
980
988
937
906
937
991
1003
952
863
763
661
571
519
517
528
506
451
394
345
257
90
-117
-268
-313
-297
-294
-308
-272
-136
56
206
257
225
157
81
9
-46
-74
-93
-139
-227
-324
-387
-414
-445
-515
-619
-717
-784
-826
-863
-898
-909
-880
-819
-757
-726
-724
-715
-658
-544
-401
-280
-205
-163
-124
-69
-11
29
51
74
117
170
208
218
222
249
297
318
264
133
-32
-182
-290
-359
-405
-443
-489
-549
-613
-668
-723
-807
-951
-1152
-1359
-1507
-1551
-1510
-1438
-1381
-1339
-1278
-1187
-1107
-1092
-1141
-1201
-1226
-1217
-1200
-1178
-1123
-1022
-906
-809
-740
-698
-686
-704
-722
-702
-642
-587
-572
-573
-539
-467
-424
-472
-576
-644
-629
-565
-512
-465
-380
-248
-127
-73
-56
-3
105
207
244
248
308
462
631
701
614
403
142
-119
-365
-601
-834
-1056
-1226
-1279
-1159
-870
-493
-151
54
102
64
31
42
35
-85
-323
-547
-579
-359
7
353
594
775
975
1210
1421
1544
1562
1505
1411
1311
1230
1189
1189
1209
1228
1233
1229
1213
1172
1105
1033
974
929
883
845
840
882
943
987
994
977
951
912
872
868
935
1053
1156
1197
1187
1161
1114
993
755
425
91
-171
-341
-446
-510
-525
-471
-344
-175
-14
102
154
139
74
-6
-64
-87
-97
-117
-139
-121
-37
91
200
249
245
231
228
232
218
172
103
31
-24
-46
-13
93
281
514
720
825
803
693
557
417
246
14
-249
-465
-562
-523
-385
-209
-43
80
145
154
117
41
-80
-243
-425
-581
-687
-742
-759
-735
-652
-518
-380
-296
-277
-271
-213
-89
50
130
115
36
-48
-101
-136
-186
-262
-336
-365
-336
-263
-165
-53
62
162
231
277
321
371
407
405
371
343
350
383
409
409
392
375
362
345
316
287
272
270
258
210
123
20
-68
-140
-220
-331
-470
-592
-645
-602
-490
-374
-315
-308
-280
-145
113
411
633
708
653
539
425
322
188
-29
-344
-685
-920
-939
-745
-451
-189
-9
140
328
556
759
863
848
749
626
526
474
476
520
579
621
623
582
515
453
421
428
460
485
475
434
391
383
414
445
419
321
200
137
171
254
289
223
107
38
59
107
86
-19
-114
-92
52
216
299
298
289
322
369
371
312
235
186
164
141
109
99
135
194
222
184
102
32
3
-3
-11
-23
-15
15
29
-13
-100
-181
-219
-233
-260
-301
-316
-280
-212
-143
-77
10
108
166
152
96
66
92
135
141
96
31
-21
-46
-47
-26
6
23
3
-51
-107
-139
-139
-125
-113
-116
-137
-168
-180
-141
-48
55
108
87
22
-39
-73
-101
-156
-242
-321
-350
-313
-242
-186
-161
-141
-87
-3
70
105
117
151
216
272
281
255
236
246
256
236
206
211
268
336
371
372
382
432
501
549
561
549
527
493
432
354
289
249
212
141
32
-64
-80
0
107
141
69
-29
-33
107
325
512
602
599
527
402
247
90
-82
-337
-717
-1126
-1366
-1308
-1031
-738
-549
-398
-155
192
504
652
630
527
418
306
171
37
-56
-92
-100
-115
-151
-201
-250
-290
-314
-328
-337
-345
-343
-330
-317
-321
-347
-376
-385
-374
-356
-344
-333
-321
-316
-329
-361
-395
-413
-415
-412
-420
-435
-449
-448
-435
-418
-407
-399
-390
-376
-367
-368
-370
-353
-310
-256
-219
-209
-213
-207
-184
-154
-128
-110
-100
-91
-77
-49
-7
29
39
28
24
43
66
64
29
-7
-14
1
6
-19
-53
-66
-48
-15
9
15
13
12
21
29
20
-14
-67
-118
-152
-178
-212
-255
-296
-330
-363
-400
-429
-437
-436
-447
-474
-487
-448
-366
-297
-284
-313
-337
-324
-288
-266
-277
-298
-301
-273
-227
-179
-141
-118
-99
-61
5
71
94
69
44
80
172
256
277
257
266
333
408
429
394
350
340
352
351
329
309
313
330
332
301
241
167
95
35
-20
-82
-161
-242
-271
-203
-45
131
228
203
109
50
84
181
261
277
240
175
85
-22
-124
-213
-338
-568
-882
-1132
-1157
-943
-641
-408
-251
-65
210
500
689
746
737
727
714
664
599
582
650
763
844
858
823
774
723
671
622
591
578
565
533
485
448
445
464
473
438
369
314
309
348
385
383
352
325
318
320
317
310
300
268
197
107
46
34
37
13
-30
-34
25
97
103
33
-39
-42
5
15
-55
-155
-195
-149
-79
-55
-74
-80
-38
24
54
38
12
11
27
34
26
26
50
87
115
130
145
166
185
192
183
155
113
71
48
47
44
9
-57
-115
-127
-108
-115
-186
-302
-404
-461
-491
-532
-589
-631
-630
-593
-548
-507
-460
-402
-347
-320
-320
-323
-308
-282
-268
-270
-266
-229
-161
-92
-47
-23
5
54
114
169
212
245
272
292
305
320
346
376
389
374
349
349
389
437
455
435
412
417
445
457
435
395
358
320
259
169
79
22
-7
-42
-116
-218
-295
-301
-243
-188
-219
-357
-524
-616
-590
-490
-395
-340
-319
-328
-370
-423
-450
-457
-531
-736
-1003
-1145
-1029
-717
-398
-192
-51
147
431
708
876
911
867
804
746
699
673
670
678
682
669
640
599
548
491
433
382
346
334
343
352
341
310
279
266
271
276
274
268
259
243
218
187
156
132
112
88
58
25
4
11
50
106
145
148
131
129
159
204
232
227
201
177
164
158
143
117
86
62
55
60
66
62
52
54
69
75
47
-12
-68
-91
-87
-91
-118
-149
-157
-144
-128
-122
-119
-112
-108
-112
-114
-96
-58
-25
-28
-73
-147
-234
-319
-386
-429
-446
-452
-461
-468
-452
-402
-331
-273
-256
-281
-324
-345
-324
-271
-209
-147
-88
-37
-10
-13
-29
-31
-27
-42
-89
-134
-129
-62
25
86
115
139
179
220
242
240
243
276
341
417
480
517
538
562
595
622
618
575
516
477
472
480
473
455
452
477
501
487
421
330
243
169
85
-33
-190
-360
-490
-525
-450
-324
-252
-291
-383
-396
-252
-9
197
278
249
184
141
138
162
166
72
-162
-465
-659
-602
-325
-4
209
320
451
687
982
1216
1303
1253
1143
1045
980
933
895
881
914
977
1008
957
845
761
773
854
918
903
841
814
854
913
906
794
625
488
430
427
416
365
302
281
330
418
484
492
458
424
415
422
419
399
379
372
375
372
361
356
361
359
333
288
250
243
258
266
243
193
141
106
87
67
48
52
89
125
121
86
77
114
129
32
-167
-344
-396
-355
-330
-355
-335
-170
105
351
473
507
538
590
608
548
433
318
230
163
108
74
70
81
82
55
-1
-77
-157
-225
-270
-299
-319
-320
-277
-189
-94
-51
-84
-149
-181
-149
-86
-39
-21
4
73
184
309
417
496
540
545
518
495
516
584
638
607
500
425
492
698
907
984
931
875
920
1032
1078
977
786
631
570
557
530
494
513
625
793
942
1035
1080
1089
1038
891
675
484
410
458
536
547
484
436
501
701
958
1160
1231
1154
985
813
702
622
463
136
-309
-687
-824
-699
-449
-230
-85
63
296
598
875
1037
1061
994
895
780
641
489
375
350
402
444
405
299
211
201
240
253
202
119
54
13
-26
-71
-99
-95
-77
-78
-98
-102
-70
-26
-11
-33
-66
-83
-100
-140
-185
-182
-110
-20
11
-28
-66
-41
18
22
-60
-148
-136
-18
103
118
17
-123
-227
-282
-323
-379
-459
-555
-649
-717
-744
-748
-773
-845
-955
-1071
-1169
-1246
-1300
-1322
-1313
-1302
-1313
-1339
-1348
-1320
-1278
-1267
-1303
-1360
-1394
-1390
-1363
-1335
-1306
-1263
-1210
-1175
-1191
-1249
-1292
-1262
-1156
-1025
-919
-835
-744
-650
-600
-625
-693
-735
-723
-687
-656
-613
-513
-358
-211
-130
-110
-99
-57
-3
18
-13
-71
-109
-91
-10
108
225
323
412
511
616
696
733
753
793
861
921
951
973
1039
1174
1340
1478
1557
1583
1582
1566
1532
1472
1374
1240
1088
947
830
725
609
481
367
278
197
89
-53
-175
-196
-81
107
248
268
204
178
283
497
700
781
715
568
436
380
391
384
259
-9
-310
-463
-358
-48
304
573
757
937
1165
1410
1599
1680
1645
1532
1385
1252
1169
1146
1159
1178
1185
1181
1171
1156
1125
1077
1030
1014
1035
1066
1069
1031
976
941
936
940
929
901
869
842
811
762
695
624
559
500
443
394
364
359
370
388
404
411
394
344
271
203
163
152
151
152
159
184
227
282
352
443
546
631
670
655
604
533
446
334
203
69
-51
-146
-211
-237
-221
-176
-124
-86
-63
-46
-27
-14
-21
-51
-89
-108
-99
-70
-46
-39
-48
-61
-77
-98
-124
-144
-145
-127
-111
-120
-160
-212
-251
-265
-264
-265
-277
-292
-295
-280
-252
-225
-211
-220
-248
-278
-285
-257
-209
-169
-144
-118
-68
-1
52
72
75
90
124
156
172
186
220
274
317
333
338
364
417
468
490
484
475
474
470
452
427
408
395
376
353
338
338
341
324
280
221
164
106
42
-35
-103
-119
-44
116
290
384
367
317
364
559
819
996
997
852
664
519
439
378
258
26
-293
-576
-680
-553
-280
-9
168
269
367
506
671
806
862
825
731
641
609
638
685
704
679
621
544
446
326
206
117
80
93
140
200
259
305
339
372
419
488
555
586
564
512
474
471
482
468
417
353
304
273
255
255
287
343
384
383
357
352
380
406
374
277
155
59
2
-29
-45
-40
-8
35
67
72
66
69
74
53
-13
-108
-193
-252
-300
-348
-381
-392
-400
-442
-502
-521
-458
-350
-257
-205
-163
-100
-42
-29
-68
-126
-183
-247
-316
-354
-315
-194
-42
87
173
231
280
313
293
194
27
-150
-267
-303
-303
-308
-304
-242
-116
6
51
27
16
69
152
177
123
48
25
61
109
129
131
148
187
227
258
294
345
398
416
386
341
326
355
401
428
436
444
458
460
436
399
375
374
362
307
228
179
179
174
92
-75
-252
-353
-378
-402
-487
-606
-669
-619
-492
-379
-348
-391
-436
-418
-315
-157
-8
73
52
-54
-181
-279
-357
-485
-717
-1014
-1238
-1259
-1057
-731
-400
-126
110
345
573
754
850
855
792
706
645
638
679
735
779
805
819
821
802
760
714
690
705
756
824
877
891
874
854
848
826
738
586
446
401
448
498
484
446
474
573
650
610
488
407
435
497
470
344
229
227
307
351
299
211
185
237
290
276
220
189
204
212
168
97
60
63
56
9
-39
-35
10
47
55
69
115
147
108
6
-78
-84
-53
-64
-132
-198
-211
-181
-152
-141
-145
-163
-189
-195
-157
-89
-49
-66
-92
-61
10
35
-37
-138
-163
-109
-80
-153
-269
-320
-292
-280
-351
-447
-449
-339
-220
-189
-218
-202
-97
21
63
29
-8
6
50
89
117
158
216
267
271
235
201
207
241
255
222
171
171
253
365
424
405
364
374
430
459
415
333
279
282
318
359
387
398
385
348
298
254
213
163
81
-34
-157
-244
-249
-172
-73
-37
-91
-163
-150
-11
205
397
488
452
316
131
-46
-193
-352
-580
-861
-1088
-1121
-911
-553
-205
28
169
307
495
687
779
718
561
438
423
482
542
581
639
747
870
927
883
769
650
576
565
613
699
784
829
842
853
876
884
832
704
551
434
378
363
354
338
321
331
385
474
546
545
472
385
344
339
295
176
60
63
200
371
431
340
191
101
96
115
80
-25
-136
-173
-101
40
158
197
176
163
207
271
278
206
116
97
161
239
267
271
318
423
500
445
273
115
65
69
-5
-184
-338
-305
-92
128
209
172
147
206
298
313
221
77
-58
-159
-223
-247
-227
-175
-114
-69
-48
-44
-38
-9
46
97
101
46
-22
-34
46
171
252
230
129
41
33
93
144
131
91
102
182
266
277
230
225
322
451
500
430
297
182
101
38
11
58
159
237
254
275
381
536
598
494
310
192
170
153
67
-39
-78
-52
-31
-46
-59
-61
-109
-222
-297
-207
27
249
350
394
501
641
644
420
86
-179
-329
-448
-587
-644
-492
-130
295
618
777
821
827
855
906
914
817
634
476
442
515
577
574
565
630
738
758
620
433
361
444
561
578
496
432
473
575
630
617
608
647
686
624
447
275
228
299
368
353
312
361
521
697
777
737
624
494
370
274
217
177
135
107
146
277
431
515
510
496
534
600
625
590
541
522
527
545
596
684
750
733
628
514
471
490
491
416
282
169
146
213
305
344
296
201
130
121
143
139
82
-9
-98
-164
-196
-197
-195
-209
-235
-231
-161
-29
130
279
402
486
511
472
394
314
229
99
-92
-302
-450
-483
-415
-307
-228
-214
-249
-275
-237
-145
-64
-49
-86
-105
-49
74
209
311
369
386
370
343
339
370
409
427
429
446
494
551
589
599
599
602
609
602
567
499
406
314
246
200
143
43
-93
-211
-258
-240
-218
-269
-411
-610
-820
-1020
-1194
-1288
-1223
-989
-686
-445
-284
-104
172
459
569
405
68
-236
-375
-361
-268
-141
23
222
445
669
866
998
1026
936
757
544
349
218
177
211
266
276
215
113
31
14
64
147
223
288
373
507
668
789
825
792
749
738
753
768
773
773
763
745
739
764
819
864
856
797
720
664
643
660
707
763
797
791
754
723
718
725
711
645
532
414
337
318
337
361
389
435
496
537
541
544
595
688
753
733
657
605
615
648
655
647
669
727
779
792
788
803
844
872
842
735
562
369
230
210
304
433
514
554
630
787
967
1061
1025
913
802
698
548
334
110
-42
-91
-74
-48
-37
-34
-25
4
68
161
235
226
123
3
-31
43
140
154
73
-8
7
118
244
312
321
313
319
328
320
297
280
279
280
265
229
173
108
57
39
63
107
140
147
146
163
198
217
184
90
-35
-144
-215
-266
-329
-407
-445
-375
-193
10
127
135
107
130
225
340
412
403
298
104
-130
-335
-489
-650
-903
-1236
-1511
-1576
-1401
-1103
-822
-608
-421
-218
-10
151
226
221
168
103
44
-9
-67
-129
-186
-230
-273
-333
-413
-488
-521
-494
-420
-331
-263
-246
-291
-388
-517
-659
-811
-970
-1105
-1171
-1147
-1066
-983
-936
-918
-917
-941
-1002
-1088
-1163
-1192
-1176
-1135
-1087
-1021
-919
-778
-632
-527
-471
-425
-355
-281
-247
-231
-118
204
708
1223
1593
1804
1952
2091
2161
2051
1730
1270
791
394
136
18
-5
6
25
79
188
314
379
344
243
141
75
47
63
137
267
415
537
622
682
729
743
689
571
434
344
335
383
436
450
421
375
345
357
429
552
679
753
749
694
640
596
513
324
19
-342
-670
-902
-1030
-1077
-1069
-1011
-896
-719
-493
-259
-65
61
119
138
145
165
212
274
340
416
514
627
712
734
716
732
816
916
961
972
1070
1334
1686
1929
1928
1713
1420
1142
860
520
120
-280
-607
-807
-844
-702
-409
-65
209
347
386
422
513
643
751
793
771
720
678
692
806
995
1134
1057
716
268
-43
-101
-18
8
-92
-200
-166
34
283
457
533
557
564
543
475
380
305
271
258
231
175
118
99
131
185
221
219
190
155
130
117
126
168
241
317
361
355
312
258
212
188
192
219
249
254
225
190
184
217
257
261
209
120
26
-50
-100
-126
-131
-122
-107
-92
-74
-53
-41
-56
-108
-184
-256
-300
-309
-291
-262
-230
-194
-158
-127
-111
-108
-105
-91
-75
-66
-63
-54
-31
-7
-2
-21
-55
-98
-154
-232
-317
-377
-383
-344
-292
-269
-301
-365
-410
-396
-336
-277
-257
-263
-252
-196
-114
-49
-35
-77
-137
-173
-173
-153
-135
-115
-84
-58
-94
-224
-406
-563
-665
-753
-874
-1001
-1050
-966
-764
-499
-207
81
330
510
626
706
757
756
679
548
429
377
397
450
490
492
467
439
417
386
320
218
102
-26
-189
-396
-613
-782
-863
-868
-831
-771
-689
-589
-476
-355
-234
-122
-18
88
199
285
309
286
304
446
697
933
1022
941
777
634
546
473
344
120
-155
-368
-405
-245
21
250
367
409
458
539
598
581
495
395
305
191
31
-123
-176
-102
11
48
-16
-94
-96
-32
6
-37
-106
-102
-3
105
115
27
-55
-40
48
104
67
-7
-16
70
180
228
210
190
214
252
251
200
151
143
164
169
140
97
78
94
131
161
162
130
81
44
34
41
43
37
33
35
43
67
133
250
374
444
442
425
456
527
564
515
407
307
246
207
166
131
106
79
33
-16
-34
-26
-32
-86
-166
-212
-206
-190
-219
-296
-377
-411
-405
-395
-417
-475
-546
-614
-674
-733
-795
-860
-918
-961
-974
-945
-869
-753
-624
-519
-458
-429
-406
-379
-362
-380
-422
-453
-439
-385
-323
-269
-216
-142
-50
38
101
146
191
247
303
345
372
396
430
471
503
511
495
476
473
489
506
511
507
511
535
569
592
590
559
504
432
353
278
211
138
45
-62
-132
-95
62
268
410
436
400
421
566
802
1026
1147
1131
1013
875
795
774
713
488
85
-332
-541
-460
-203
39
187
312
509
774
1009
1129
1126
1041
918
779
651
571
557
596
648
679
671
632
584
545
523
505
482
458
448
454
456
436
394
336
267
193
130
107
131
171
186
179
188
239
303
319
269
196
158
157
161
140
105
83
79
82
82
77
58
16
-43
-97
-126
-133
-134
-138
-143
-149
-155
-163
-160
-136
-106
-97
-116
-148
-171
-181
-191
-205
-217
-225
-239
-265
-295
-319
-344
-387
-443
-470
-429
-323
-196
-88
2
105
224
331
384
374
327
279
237
189
126
50
-24
-87
-141
-189
-227
-257
-281
-301
-317
-325
-317
-284
-227
-166
-127
-126
-149
-160
-141
-102
-64
-22
50
158
262
313
312
309
350
417
449
426
402
441
550
667
738
757
751
735
706
674
665
684
686
624
521
465
510
603
640
591
534
545
596
592
503
403
374
392
359
235
84
8
41
140
244
305
287
196
103
116
271
476
586
536
386
255
204
197
140
-46
-364
-717
-944
-937
-723
-446
-222
-52
140
392
660
867
966
953
855
720
603
545
544
568
601
645
687
692
648
589
563
577
595
589
581
600
638
652
623
580
554
542
515
466
424
416
434
445
427
389
349
315
283
249
209
162
113
70
36
3
-42
-97
-146
-175
-192
-214
-245
-271
-281
-269
-238
-195
-158
-143
-151
-160
-149
-120
-97
-98
-118
-137
-140
-124
-94
-69
-79
-133
-191
-185
-94
17
55
3
-58
-45
31
78
29
-87
-189
-227
-221
-212
-216
-227
-244
-275
-311
-329
-326
-327
-368
-452
-548
-617
-645
-639
-615
-586
-556
-520
-458
-358
-239
-144
-102
-93
-74
-25
37
78
92
97
114
150
198
252
299
332
357
389
436
486
520
536
554
590
635
673
708
751
805
848
865
859
852
854
850
816
762
707
666
638
600
535
449
364
305
278
248
157
-14
-214
-340
-317
-171
-17
38
-8
-59
-8
172
419
651
818
906
913
858
798
783
782
675
376
-37
-342
-355
-119
159
320
387
502
741
1019
1200
1231
1165
1074
984
884
788
743
772
848
907
909
866
818
788
764
723
666
615
589
581
570
548
527
519
517
510
498
494
507
528
535
512
457
384
310
254
227
222
221
213
204
212
242
280
299
277
217
144
88
61
46
16
-36
-81
-86
-51
-14
-10
-28
-23
28
89
104
61
8
-7
2
-21
-102
-182
-175
-52
118
252
333
423
575
758
872
839
667
439
241
101
-13
-136
-255
-334
-359
-358
-360
-354
-313
-266
-301
-478
-735
-924
-958
-903
-900
-1000
-1110
-1106
-969
-798
-698
-688
-713
-715
-686
-657
-653
-674
-681
-621
-473
-284
-130
-46
0
67
151
193
155
64
-18
-71
-117
-177
-237
-289
-367
-505
-677
-809
-860
-874
-911
-961
-951
-839
-685
-580
-539
-481
-334
-119
60
114
54
-28
-61
-52
-57
-119
-230
-339
-404
-408
-345
-229
-108
-64
-133
-252
-310
-254
-140
-64
-69
-133
-219
-301
-348
-345
-337
-433
-703
-1057
-1281
-1227
-948
-626
-387
-215
-28
189
372
462
460
392
282
152
51
44
154
334
509
640
728
772
744
639
502
404
365
336
261
156
101
155
286
402
448
436
409
382
335
259
176
108
57
9
-37
-59
-42
-3
14
-19
-78
-120
-122
-114
-137
-207
-296
-360
-363
-309
-237
-204
-245
-343
-441
-490
-486
-459
-425
-366
-263
-117
56
241
415
539
571
501
377
258
170
108
60
38
60
130
236
356
454
473
363
135
-137
-367
-531
-678
-854
-1041
-1162
-1171
-1099
-1028
-1021
-1067
-1119
-1154
-1187
-1240
-1308
-1370
-1408
-1421
-1412
-1377
-1315
-1242
-1186
-1163
-1167
-1178
-1190
-1207
-1232
-1256
-1261
-1228
-1158
-1074
-1006
-962
-932
-902
-883
-893
-929
-964
-972
-956
-937
-921
-891
-838
-784
-758
-767
-801
-859
-957
-1094
-1219
-1264
-1215
-1127
-1066
-1036
-985
-887
-797
-802
-933
-1129
-1293
-1386
-1449
-1547
-1683
-1790
-1789
-1668
-1498
-1378
-1357
-1400
-1431
-1395
-1290
-1142
-993
-893
-888
-985
-1126
-1236
-1304
-1411
-1635
-1947
-2196
-2238
-2059
-1767
-1481
-1233
-994
-749
-531
-380
-305
-295
-337
-416
-494
-510
-428
-266
-84
60
151
203
240
268
280
269
232
183
146
142
174
224
271
302
308
282
229
169
133
133
146
139
112
101
136
211
283
320
323
310
284
234
158
73
0
-60
-122
-194
-264
-312
-333
-341
-354
-377
-405
-426
-429
-408
-371
-340
-326
-321
-301
-252
-186
-128
-83
-40
14
73
121
145
146
125
81
23
-26
-44
-35
-18
-6
9
45
101
154
177
160
117
68
14
-58
-151
-238
-288
-294
-287
-297
-323
-338
-329
-322
-353
-429
-516
-581
-617
-632
-632
-615
-590
-575
-579
-586
-578
-551
-526
-511
-498
-478
-452
-422
-378
-309
-233
-195
-226
-297
-343
-331
-288
-265
-270
-265
-212
-120
-33
20
51
84
125
152
151
128
108
100
94
70
16
-63
-159
-273
-410
-557
-683
-771
-838
-914
-991
-1009
-919
-757
-633
-620
-682
-706
-612
-423
-222
-77
-15
-41
-140
-268
-373
-451
-574
-811
-1129
-1393
-1474
-1364
-1157
-952
-776
-605
-426
-252
-102
12
76
69
-4
-95
-144
-126
-67
-16
8
16
23
25
9
-24
-60
-86
-108
-134
-159
-168
-165
-173
-218
-284
-321
-298
-236
-203
-238
-334
-453
-561
-636
-654
-608
-527
-467
-453
-452
-402
-292
-179
-133
-174
-259
-331
-369
-378
-374
-366
-351
-324
-280
-227
-182
-159
-157
-161
-174
-218
-316
-453
-569
-606
-552
-453
-365
-310
-268
-208
-117
-13
74
120
114
69
14
-23
-30
-16
-6
-15
-38
-50
-39
-3
36
47
17
-38
-78
-79
-60
-70
-141
-257
-359
-406
-420
-463
-570
-706
-803
-825
-806
-811
-869
-946
-985
-953
-872
-782
-716
-675
-636
-581
-517
-465
-436
-417
-378
-311
-240
-183
-118
-8
149
292
355
331
278
249
237
203
139
85
78
109
139
155
189
262
341
359
289
178
99
73
49
-39
-203
-394
-541
-624
-675
-747
-860
-968
-988
-881
-692
-532
-469
-475
-450
-318
-94
137
280
283
165
-8
-161
-280
-431
-702
-1088
-1454
-1632
-1556
-1308
-1022
-767
-529
-278
-21
196
330
355
264
92
-87
-206
-248
-254
-262
-267
-251
-231
-251
-328
-426
-492
-521
-547
-595
-639
-644
-606
-567
-565
-596
-624
-625
-605
-589
-593
-618
-657
-708
-769
-830
-881
-925
-978
-1051
-1127
-1172
-1175
-1158
-1152
-1167
-1190
-1206
-1207
-1190
-1145
-1078
-1021
-1003
-1013
-1006
-955
-883
-831
-806
-773
-703
-617
-556
-526
-488
-409
-305
-227
-200
-191
-155
-99
-77
-122
-212
-294
-346
-393
-462
-535
-560
-519
-454
-427
-454
-490
-482
-425
-364
-343
-361
-383
-374
-328
-270
-231
-228
-259
-308
-353
-391
-435
-498
-566
-591
-536
-417
-289
-207
-174
-162
-141
-120
-124
-170
-243
-312
-346
-330
-276
-220
-185
-161
-114
-23
84
155
165
141
142
191
262
306
301
274
276
332
413
466
456
400
346
333
361
391
391
363
339
347
379
394
357
271
179
111
54
-29
-158
-306
-396
-366
-219
-39
69
70
36
84
273
543
767
852
798
673
559
487
415
258
-42
-439
-784
-927
-834
-604
-366
-171
22
254
509
728
865
906
855
741
609
508
462
450
447
454
484
531
562
553
520
497
504
531
557
564
539
473
381
305
284
311
339
330
300
299
348
417
465
474
449
401
344
296
272
273
282
291
299
306
300
285
283
313
356
369
341
311
330
391
445
460
445
419
375
298
213
166
172
196
201
204
248
338
431
486
514
550
602
639
638
612
597
608
629
639
630
605
570
534
508
500
500
487
452
411
385
383
388
379
345
279
188
93
19
-21
-35
-46
-60
-69
-54
-11
55
136
212
260
265
247
252
298
356
382
371
370
422
506
561
560
543
578
672
767
804
789
780
822
905
984
1031
1050
1057
1060
1064
1079
1108
1135
1133
1102
1076
1076
1084
1069
1033
1011
1010
986
892
746
629
592
602
581
485
348
246
244
349
497
573
487
276
105
143
407
736
933
925
802
709
703
709
591
271
-188
-606
-800
-712
-427
-91
213
499
816
1160
1462
1642
1657
1537
1358
1188
1069
1002
973
974
1001
1042
1069
1053
992
905
815
736
682
662
683
729
767
771
750
739
769
828
865
833
730
609
533
527
561
585
576
555
558
600
655
684
671
631
592
572
568
569
568
562
552
550
573
627
697
747
749
713
674
669
701
744
771
780
788
816
869
936
988
998
958
890
835
821
840
859
847
812
781
779
802
834
859
864
842
801
762
743
744
740
714
668
607
542
490
466
459
415
281
67
-167
-363
-518
-654
-755
-800
-817
-868
-969
-1038
-983
-808
-593
-376
-99
304
803
1289
1696
2044
2343
2526
2505
2290
1998
1734
1513
1292
1065
886
799
795
830
866
894
907
895
848
766
673
619
631
709
815
893
910
851
739
633
593
614
600
436
104
-274
-549
-701
-820
-962
-1043
-910
-522
-25
381
605
715
810
905
934
855
706
558
443
339
238
177
191
237
207
37
-188
-291
-181
67
279
373
432
588
863
1135
1282
1289
1227
1145
1009
791
564
466
555
727
811
761
697
777
1013
1270
1407
1409
1358
1315
1269
1185
1078
991
940
889
814
734
697
720
765
767
682
546
446
443
484
434
212
-102
-343
-436
-464
-532
-601
-521
-246
85
285
336
379
511
659
693
602
508
514
602
695
750
770
744
642
470
292
168
91
11
-92
-173
-188
-138
-55
25
70
42
-76
-230
-301
-192
63
310
412
379
331
358
416
395
274
162
186
359
564
681
713
758
880
1029
1075
953
745
600
587
634
629
532
416
374
420
489
510
454
324
136
-75
-245
-342
-380
-385
-325
-145
144
429
618
744
927
1213
1500
1643
1616
1535
1524
1595
1676
1698
1658
1599
1563
1570
1617
1657
1630
1531
1429
1397
1433
1461
1405
1276
1151
1077
1008
867
657
465
381
404
450
448
419
440
541
661
713
692
683
775
968
1179
1325
1372
1311
1159
955
753
571
355
49
-307
-569
-622
-494
-310
-163
-21
184
444
669
795
826
799
728
613
482
379
318
279
242
222
230
237
203
136
94
117
187
248
271
258
214
139
54
-4
-4
49
134
235
338
415
437
403
338
258
149
8
-130
-217
-238
-226
-207
-172
-114
-66
-72
-127
-181
-201
-210
-247
-299
-304
-227
-112
-34
-26
-58
-91
-129
-214
-355
-508
-611
-645
-656
-701
-784
-850
-858
-835
-845
-904
-952
-932
-872
-867
-960
-1087
-1154
-1152
-1157
-1204
-1226
-1126
-908
-698
-603
-606
-611
-579
-567
-645
-798
-947
-1043
-1101
-1148
-1177
-1162
-1111
-1066
-1043
-1020
-981
-957
-992
-1078
-1144
-1115
-988
-835
-719
-644
-555
-409
-237
-116
-90
-114
-104
-38
1
-82
-282
-485
-594
-606
-571
-499
-348
-112
143
337
472
607
760
873
890
841
818
872
970
1044
1077
1098
1129
1149
1119
1025
882
717
546
387
254
158
93
61
86
192
362
527
609
588
526
513
601
767
942
1040
1007
837
590
356
176
2
-254
-607
-944
-1107
-1029
-782
-487
-208
69
371
678
938
1116
1203
1198
1112
983
875
843
878
922
938
936
945
970
990
991
984
988
997
995
981
974
977
964
902
796
695
642
634
627
592
543
519
546
610
668
689
663
601
530
479
468
489
506
482
416
347
316
322
318
256
137
15
-55
-56
-12
43
93
137
175
201
203
174
112
23
-75
-161
-215
-230
-215
-179
-127
-68
-16
19
36
35
6
-60
-154
-240
-284
-291
-294
-309
-313
-272
-200
-152
-163
-209
-229
-208
-198
-258
-381
-492
-525
-494
-464
-478
-513
-519
-479
-428
-399
-391
-374
-338
-305
-301
-321
-326
-296
-251
-229
-248
-286
-309
-306
-300
-311
-334
-345
-328
-289
-244
-199
-146
-78
1
79
148
207
247
256
224
159
84
16
-38
-79
-98
-88
-51
-6
33
61
79
81
52
-28
-154
-306
-465
-621
-766
-872
-890
-792
-608
-418
-301
-267
-252
-173
4
223
373
367
211
18
-74
-12
111
127
-50
-340
-566
-607
-492
-334
-217
-139
-64
29
133
234
316
337
261
105
-46
-109
-59
67
217
362
478
539
534
483
418
349
266
172
96
65
63
49
21
15
60
126
146
86
-22
-110
-144
-145
-145
-156
-180
-225
-304
-406
-493
-537
-552
-579
-617
-616
-534
-396
-275
-208
-166
-116
-90
-164
-353
-572
-716
-758
-753
-748
-724
-634
-453
-214
30
228
338
331
221
77
-22
-45
-23
-18
-57
-114
-162
-180
-184
-201
-232
-268
-293
-287
-224
-66
210
581
986
1381
1788
2247
2710
3020
3032
2776
2438
2188
1997
1699
1206
621
109
-301
-721
-1224
-1724
-2068
-2216
-2262
-2261
-2149
-1849
-1411
-1023
-811
-728
-673
-630
-696
-939
-1281
-1562
-1688
-1676
-1582
-1420
-1175
-868
-569
-356
-259
-262
-322
-412
-499
-544
-515
-421
-314
-252
-258
-305
-342
-353
-357
-378
-413
-433
-424
-418
-465
-580
-728
-861
-970
-1095
-1253
-1417
-1549
-1644
-1719
-1742
-1637
-1376
-1059
-840
-753
-665
-423
-32
327
454
309
13
-266
-424
-464
-484
-609
-872
-1154
-1255
-1081
-753
-508
-483
-603
-682
-614
-453
-340
-353
-441
-506
-500
-447
-378
-275
-102
118
282
301
202
100
77
102
81
-30
-181
-293
-329
-300
-229
-143
-77
-64
-93
-117
-103
-84
-123
-226
-317
-312
-214
-107
-67
-82
-88
-56
-19
-18
-50
-82
-96
-105
-108
-68
27
113
105
0
-100
-95
-2
72
73
52
86
174
248
275
294
356
439
466
401
302
245
238
226
167
85
45
74
131
155
135
108
113
137
133
75
-10
-73
-101
-126
-175
-231
-247
-218
-194
-223
-301
-378
-421
-448
-494
-561
-606
-598
-544
-479
-424
-367
-283
-176
-78
-23
-3
15
57
112
143
129
81
32
6
10
37
78
121
149
161
177
225
313
419
505
543
537
524
541
591
636
633
585
542
551
600
622
582
507
456
446
439
398
334
286
258
210
107
-31
-142
-197
-222
-270
-353
-419
-392
-241
-9
202
311
317
305
369
535
730
834
764
543
294
145
122
108
-55
-408
-802
-1005
-906
-607
-318
-152
-46
130
416
709
876
884
813
750
699
611
472
349
332
440
586
661
626
536
477
485
528
541
489
386
292
262
311
396
457
465
435
411
417
449
477
474
437
382
343
347
392
441
449
402
332
273
219
141
24
-100
-184
-217
-222
-222
-203
-148
-75
-41
-66
-114
-127
-103
-91
-117
-155
-171
-165
-158
-159
-131
-69
-9
16
25
58
102
86
-15
-122
-138
-65
-12
-60
-155
-168
-59
79
132
90
38
36
47
2
-100
-188
-214
-211
-253
-360
-461
-485
-433
-375
-381
-447
-517
-554
-554
-528
-483
-434
-414
-440
-470
-427
-286
-122
-40
-58
-86
-52
0
-46
-221
-415
-488
-421
-327
-305
-322
-266
-81
158
336
414
460
551
689
808
850
827
805
827
871
877
808
693
589
516
442
326
168
15
-91
-157
-215
-277
-321
-335
-350
-413
-516
-589
-551
-404
-256
-226
-322
-423
-374
-131
193
420
457
338
186
96
70
21
-158
-474
-805
-963
-853
-550
-227
10
198
430
717
958
1058
1017
908
789
668
545
462
465
552
665
753
820
892
961
977
910
794
702
670
666
640
586
541
527
521
493
452
437
464
495
479
411
338
298
291
291
272
216
120
2
-89
-117
-81
-21
37
98
180
282
373
419
409
344
229
84
-59
-184
-295
-394
-447
-418
-311
-182
-74
27
157
291
342
258
95
-30
-61
-40
-43
-75
-77
-4
120
237
318
367
382
344
247
131
42
-13
-80
-207
-365
-476
-492
-447
-407
-417
-470
-538
-608
-668
-700
-697
-678
-687
-755
-889
-1065
-1236
-1334
-1301
-1152
-975
-858
-800
-709
-522
-279
-86
-20
-66
-170
-268
-283
-137
170
512
741
828
909
1135
1488
1786
1886
1812
1684
1563
1397
1137
846
629
504
373
160
-85
-230
-203
-55
111
236
322
377
392
353
262
135
-3
-132
-232
-298
-349
-387
-368
-247
-49
119
165
88
-28
-103
-124
-124
-136
-189
-309
-490
-657
-705
-617
-487
-436
-474
-481
-341
-64
229
440
568
684
829
978
1074
1088
1024
910
773
642
543
487
457
429
397
373
358
339
301
238
171
134
143
187
232
245
220
180
160
164
163
142
115
114
144
184
219
268
355
450
487
447
379
346
330
265
128
-4
-40
19
86
92
72
110
222
343
407
413
402
392
363
297
220
178
181
198
190
146
93
67
77
96
86
33
-31
-64
-62
-64
-94
-121
-102
-52
-43
-108
-168
-109
81
289
410
449
490
571
638
635
583
551
560
575
569
564
596
664
734
787
826
845
824
762
688
643
639
654
666
663
646
617
572
517
456
389
309
218
134
85
81
85
33
-108
-291
-400
-363
-207
-10
212
523
972
1482
1879
2034
1971
1802
1606
1372
1062
691
349
130
70
135
255
364
433
462
462
426
332
182
15
-116
-187
-215
-220
-198
-127
-25
32
-25
-187
-355
-411
-316
-140
11
78
68
27
-2
3
17
-37
-241
-561
-824
-833
-564
-194
96
342
722
1293
1848
2090
1936
1566
1180
788
282
-333
-872
-1143
-1136
-993
-823
-617
-339
-37
170
203
93
-72
-230
-386
-562
-749
-881
-894
-787
-641
-557
-558
-579
-544
-449
-353
-306
-294
-265
-199
-125
-79
-58
-19
51
128
179
187
160
107
27
-78
-196
-325
-475
-651
-843
-1018
-1151
-1251
-1338
-1420
-1472
-1459
-1371
-1241
-1111
-985
-843
-673
-505
-381
-304
-231
-130
-31
11
-17
-73
-104
-93
-61
-32
-12
10
59
161
330
523
656
669
584
481
415
365
269
94
-130
-335
-457
-472
-398
-279
-158
-60
2
17
-22
-95
-170
-239
-333
-480
-655
-780
-787
-664
-460
-242
-75
20
104
272
565
899
1128
1188
1152
1130
1137
1096
966
826
796
907
1071
1175
1167
1057
878
659
421
158
-162
-534
-866
-1009
-887
-565
-191
135
397
601
693
612
373
75
-202
-457
-707
-879
-828
-482
41
498
731
783
815
924
1063
1139
1112
1003
823
565
262
6
-128
-163
-195
-277
-350
-318
-162
33
164
196
163
110
70
72
140
269
415
536
623
710
820
940
1016
1005
906
764
635
548
487
427
366
336
356
405
423
376
296
259
317
448
574
621
560
416
239
64
-97
-250
-394
-505
-553
-530
-460
-382
-321
-280
-258
-257
-276
-303
-326
-350
-380
-405
-393
-320
-208
-104
-39
0
41
85
102
81
55
61
102
133
124
108
142
240
359
432
434
383
312
238
162
92
39
12
8
31
83
150
195
185
111
0
-118
-231
-336
-414
-439
-407
-343
-286
-243
-197
-137
-97
-121
-228
-369
-475
-514
-504
-474
-426
-335
-194
-44
63
109
114
101
71
24
-23
-56
-81
-119
-153
-121
20
225
387
451
475
538
624
633
501
304
172
153
171
147
109
154
320
532
665
662
568
472
427
417
388
304
184
87
58
92
129
113
24
-125
-303
-482
-633
-722
-727
-650
-516
-355
-192
-36
133
343
597
839
971
916
693
416
217
139
100
-23
-272
-544
-668
-556
-279
-4
162
243
339
500
678
796
821
774
693
590
479
400
393
452
525
563
568
563
550
509
451
422
447
493
498
464
458
540
684
810
873
903
951
1014
1031
967
853
751
691
650
583
477
356
269
251
293
343
345
291
231
235
308
391
421
403
389
408
432
427
404
403
442
490
510
513
539
608
700
776
811
806
777
749
738
731
690
593
481
429
459
504
463
327
190
140
147
94
-81
-292
-404
-394
-380
-477
-664
-826
-906
-964
-1074
-1219
-1335
-1400
-1469
-1574
-1673
-1715
-1721
-1759
-1852
-1943
-1971
-1937
-1873
-1782
-1649
-1498
-1381
-1322
-1284
-1222
-1155
-1141
-1196
-1271
-1304
-1278
-1218
-1148
-1073
-992
-916
-852
-796
-740
-688
-651
-634
-615
-580
-527
-470
-413
-350
-273
-195
-133
-95
-65
-22
29
67
82
93
127
176
196
155
69
-7
-46
-70
-128
-242
-388
-507
-536
-446
-264
-80
4
-22
-63
9
223
478
632
625
512
391
320
293
250
115
-149
-481
-717
-696
-415
-36
252
407
548
790
1103
1342
1399
1302
1157
1040
955
886
837
828
853
880
881
861
833
800
757
707
667
655
666
684
698
701
668
584
459
332
236
173
116
55
2
-26
-29
-19
-1
20
28
2
-52
-99
-111
-100
-110
-158
-215
-236
-214
-186
-191
-227
-252
-242
-207
-183
-180
-172
-134
-80
-50
-59
-66
-30
25
13
-118
-300
-396
-340
-213
-157
-221
-310
-289
-136
44
134
124
104
155
264
349
347
275
199
157
128
71
-19
-100
-138
-158
-207
-304
-414
-491
-523
-533
-548
-578
-622
-650
-616
-494
-330
-233
-285
-446
-592
-643
-643
-688
-782
-820
-690
-395
-32
302
574
785
925
967
919
832
753
697
651
620
635
715
831
924
966
976
984
968
880
715
550
481
534
646
745
819
903
1010
1105
1150
1148
1126
1087
1012
892
763
672
618
552
424
246
97
67
177
359
493
499
414
356
429
633
875
1048
1103
1061
973
900
873
857
754
487
108
-196
-256
-78
165
316
381
488
716
995
1189
1245
1211
1164
1117
1036
924
835
819
862
897
871
792
709
655
623
586
544
518
525
546
551
528
491
451
406
347
287
249
238
234
216
190
176
183
192
183
151
112
79
52
26
4
-12
-24
-39
-62
-91
-121
-145
-164
-184
-213
-250
-290
-320
-331
-324
-310
-300
-301
-309
-315
-312
-296
-268
-243
-238
-262
-295
-309
-289
-256
-237
-239
-237
-205
-147
-88
-51
-29
-11
0
-12
-47
-84
-107
-123
-158
-218
-279
-312
-314
-317
-346
-400
-460
-508
-546
-584
-621
-653
-675
-687
-682
-650
-588
-510
-445
-408
-390
-372
-351
-344
-366
-408
-431
-410
-353
-290
-244
-195
-117
-13
78
124
140
174
253
352
429
470
506
570
655
720
728
685
626
588
582
590
587
571
558
573
624
687
716
683
586
455
331
234
145
24
-143
-306
-383
-336
-228
-191
-302
-490
-585
-474
-204
70
231
280
289
306
323
311
247
100
-163
-504
-789
-853
-659
-332
-63
70
147
298
545
782
881
803
626
473
419
461
545
620
670
698
721
743
752
731
680
624
602
628
674
682
629
545
480
454
445
435
418
396
367
333
313
310
293
216
87
-20
-42
-1
19
-24
-78
-62
32
126
143
79
-9
-74
-108
-126
-138
-157
-191
-233
-263
-267
-255
-257
-284
-321
-350
-371
-387
-386
-354
-292
-224
-182
-186
-239
-324
-396
-414
-369
-309
-295
-326
-342
-289
-184
-110
-122
-202
-288
-339
-350
-339
-317
-297
-288
-286
-267
-221
-172
-168
-233
-336
-422
-477
-530
-610
-690
-709
-645
-535
-444
-398
-381
-367
-355
-355
-355
-334
-292
-258
-252
-251
-205
-89
62
189
251
248
212
180
169
169
155
107
38
-15
-10
58
155
226
240
205
151
104
54
-24
-137
-243
-301
-309
-306
-327
-350
-331
-260
-183
-164
-219
-317
-433
-560
-688
-770
-752
-650
-554
-539
-582
-587
-515
-432
-445
-580
-786
-1018
-1287
-1585
-1811
-1844
-1675
-1438
-1265
-1133
-899
-489
-3
375
552
596
631
708
791
822
808
790
796
823
840
843
856
892
920
892
788
654
559
538
569
607
629
647
676
725
783
829
837
787
687
567
466
406
375
347
300
249
238
306
440
571
639
646
644
676
724
749
749
749
760
764
738
694
651
591
474
301
134
31
-11
-36
-67
-84
-73
-50
-41
-44
-43
-49
-85
-147
-188
-163
-85
-22
-34
-123
-242
-342
-403
-444
-502
-601
-702
-738
-670
-544
-446
-415
-420
-416
-412
-453
-543
-628
-668
-696
-763
-849
-876
-818
-754
-787
-911
-1029
-1066
-1048
-1033
-1012
-934
-798
-683
-647
-654
-633
-585
-588
-681
-797
-839
-801
-756
-750
-742
-677
-569
-474
-416
-353
-245
-132
-83
-102
-125
-93
-31
-2
-35
-88
-104
-82
-66
-83
-112
-117
-104
-118
-197
-317
-418
-473
-510
-578
-694
-818
-896
-924
-946
-1010
-1114
-1208
-1242
-1212
-1163
-1150
-1189
-1238
-1231
-1130
-963
-794
-681
-656
-730
-881
-1056
-1202
-1312
-1446
-1663
-1922
-2071
-1973
-1646
-1251
-948
-757
-592
-379
-153
-8
8
-77
-192
-286
-348
-382
-382
-337
-256
-176
-132
-129
-148
-167
-180
-201
-224
-226
-190
-128
-76
-38
31
194
452
719
886
913
864
834
849
843
746
584
442
378
359
312
213
100
13
-61
-170
-323
-473
-557
-558
-512
-468
-443
-413
-361
-301
-262
-270
-323
-403
-490
-569
-617
-616
-569
-508
-460
-428
-405
-392
-392
-393
-353
-263
-149
-69
-37
-16
41
136
228
283
302
303
298
284
259
230
207
194
189
187
186
179
162
143
126
110
84
38
-21
-78
-126
-167
-201
-216
-201
-161
-117
-88
-69
-45
-10
19
29
27
21
14
-1
-22
-31
-21
-3
7
7
13
31
48
54
60
88
145
205
240
243
229
212
200
188
174
153
120
77
40
31
56
96
124
128
109
75
24
-54
-156
-265
-363
-447
-528
-609
-663
-652
-568
-458
-385
-374
-388
-365
-278
-144
-8
84
95
6
-155
-323
-449
-560
-734
-1000
-1275
-1418
-1351
-1126
-859
-627
-428
-227
-14
178
310
361
336
261
167
87
41
36
67
121
170
192
182
160
156
185
241
298
331
332
312
289
266
229
167
94
38
13
11
15
28
58
99
122
119
108
112
125
120
81
28
-13
-30
-26
-10
11
20
5
-20
-19
29
97
137
136
122
122
124
102
70
71
115
160
146
78
17
14
62
117
160
206
266
326
366
400
452
519
553
507
396
284
234
245
265
245
196
165
184
234
276
289
282
266
238
192
142
115
108
88
30
-37
-66
-45
-26
-51
-101
-103
-24
94
181
216
230
260
305
341
360
362
346
309
269
259
293
341
359
343
331
357
413
459
472
464
454
449
448
471
544
658
751
764
694
600
540
530
550
579
610
638
657
676
714
770
795
729
576
403
271
180
96
23
18
105
228
300
299
287
332
447
596
735
827
843
774
663
581
551
508
364
114
-132
-222
-91
196
513
765
948
1117
1324
1560
1756
1847
1818
1729
1648
1603
1572
1524
1451
1362
1264
1153
1030
897
765
638
520
415
311
184
24
-150
-302
-422
-538
-678
-828
-944
-1003
-1035
-1092
-1196
-1314
-1401
-1437
-1435
-1421
-1414
-1418
-1419
-1400
-1355
-1307
-1292
-1317
-1350
-1347
-1308
-1270
-1262
-1266
-1240
-1176
-1112
-1077
-1060
-1023
-957
-891
-852
-831
-795
-734
-671
-629
-606
-580
-542
-505
-481
-466
-445
-410
-364
-314
-268
-227
-192
-154
-107
-58
-30
-35
-59
-73
-73
-80
-112
-160
-191
-188
-164
-150
-157
-178
-206
-238
-268
-292
-310
-333
-371
-403
-398
-342
-253
-167
-99
-40
22
86
139
178
206
226
233
225
204
182
172
181
207
230
237
232
240
275
327
364
374
363
351
342
334
329
337
356
367
367
369
391
420
428
412
401
413
424
388
297
191
101
12
-109
-267
-416
-524
-584
-593
-525
-373
-194
-82
-73
-94
-31
152
366
485
453
315
155
27
-76
-202
-401
-686
-1001
-1233
-1280
-1128
-859
-580
-347
-144
70
302
512
648
679
622
524
438
400
411
442
462
457
431
390
338
288
250
235
244
270
300
326
346
355
341
294
219
139
76
43
26
5
-22
-41
-37
-14
14
34
40
27
-9
-61
-107
-131
-141
-166
-216
-274
-308
-306
-277
-245
-230
-230
-229
-207
-163
-130
-144
-202
-246
-228
-159
-100
-90
-29
-82
-24
33
56
57
75
116
150
153
133
119
126
145
159
155
136
113
104
126
163
176
138
59
-17
-51
-21
81
239
402
483
424
255
74
-48
-142
-278
-461
-590
-547
-327
-47
166
285
357
412
414
316
130
-61
-171
-153
-1
254
541
767
857
812
681
495
249
-53
-346
-530
-550
-421
-190
115
465
790
1003
1067
1036
1003
1003
988
887
701
512
409
399
412
381
306
241
231
250
237
152
12
-137
-275
-419
-574
-690
-688
-547
-351
-232
-235
-253
-131
177
529
720
657
426
199
98
124
174
109
-137
-489
-752
-761
-531
-239
-52
38
157
390
684
925
1062
1110
1058
868
570
301
203
269
351
338
284
344
563
800
884
805
717
742
820
790
584
314
153
163
259
329
337
321
318
329
340
341
325
282
215
147
105
89
81
70
56
33
-6
-41
-21
81
215
272
199
51
-59
-84
-81
-132
-245
-342
-352
-275
-172
-90
-30
29
94
148
176
181
179
170
152
122
96
94
112
127
133
147
187
239
266
257
251
288
348
381
360
317
298
300
279
213
131
74
41
-1
-61
-117
-147
-162
-188
-221
-225
-186
-139
-131
-159
-171
-128
-50
3
11
5
30
92
157
191
188
169
153
156
189
251
335
422
499
562
612
651
689
734
782
811
804
774
755
763
790
813
832
855
877
876
848
815
803
806
793
748
686
630
577
505
411
312
226
136
1
-179
-327
-344
-214
-50
-1
-99
-207
-148
119
461
691
734
651
553
509
514
501
370
59
-366
-708
-768
-527
-156
139
304
446
693
1057
1432
1687
1739
1602
1385
1230
1222
1317
1387
1346
1229
1129
1085
1056
992
898
817
767
728
684
651
647
657
641
574
465
352
268
219
187
155
133
154
240
357
424
383
261
142
78
32
-69
-243
-424
-525
-520
-455
-390
-354
-341
-336
-325
-304
-270
-234
-218
-243
-302
-371
-412
-409
-376
-346
-348
-374
-386
-364
-326
-304
-303
-299
-280
-265
-277
-304
-307
-272
-228
-210
-211
-194
-148
-116
-141
-214
-277
-282
-238
-196
-177
-162
-121
-44
40
90
81
21
-65
-145
-207
-259
-316
-377
-411
-377
-269
-124
5
91
159
245
348
426
443
411
369
337
306
267
249
286
374
467
526
558
608
692
774
803
766
701
661
664
687
704
713
736
786
851
910
954
995
1034
1056
1050
1037
1047
1069
1051
964
841
758
744
750
709
607
490
428
456
564
695
758
699
562
482
577
821
1063
1156
1086
955
869
842
802
658
377
4
-349
-551
-533
-344
-107
77
208
363
596
872
1104
1227
1251
1242
1263
1325
1401
1461
1492
1495
1460
1368
1225
1068
942
854
775
684
602
572
597
626
595
485
340
217
136
78
12
-73
-150
-171
-103
47
238
434
643
883
1126
1281
1264
1087
855
653
467
219
-121
-473
-708
-770
-707
-623
-585
-598
-631
-660
-684
-706
-729
-752
-777
-807
-832
-832
-789
-710
-623
-561
-528
-506
-470
-416
-351
-282
-204
-117
-32
32
64
71
60
38
5
-33
-67
-97
-138
-203
-292
-381
-451
-494
-523
-559
-612
-676
-737
-787
-818
-837
-851
-873
-903
-927
-925
-889
-835
-789
-766
-758
-744
-714
-674
-640
-623
-622
-622
-607
-563
-496
-426
-377
-349
-318
-258
-162
-59
17
56
82
122
189
268
339
391
427
460
503
555
602
628
629
624
632
645
647
633
614
593
556
481
386
325
324
343
309
212
133
174
340
524
610
574
505
508
619
800
991
1138
1198
1151
1022
872
745
612
399
85
-238
-416
-364
-128
180
486
790
1107
1407
1626
1725
1725
1662
1558
1416
1255
1125
1076
1109
1181
1243
1276
1286
1284
1268
1243
1226
1231
1250
1263
1255
1232
1215
1211
1210
1194
1162
1125
1093
1072
1055
1034
1007
977
949
924
899
872
846
827
810
789
759
727
707
703
711
723
733
734
719
688
646
603
568
540
516
494
478
467
458
456
468
490
504
494
463
428
398
366
328
298
298
332
377
399
383
350
327
319
297
228
125
43
37
104
183
223
230
250
306
372
397
365
304
244
191
137
85
52
47
58
68
78
107
158
207
227
219
211
222
237
231
203
175
166
174
190
210
237
268
301
343
400
455
476
450
405
381
393
409
406
398
409
440
470
478
466
440
407
377
368
384
407
407
382
364
373
383
349
258
150
69
11
-59
-152
-227
-226
-141
-31
24
-18
-133
-241
-269
-191
-55
40
7
-148
-331
-435
-450
-482
-646
-948
-1249
-1375
-1259
-988
-704
-487
-312
-121
105
325
476
530
507
458
428
434
466
508
547
568
563
535
497
462
432
408
412
479
626
809
954
1019
1033
1051
1086
1096
1042
939
836
765
718
672
620
568
516
459
402
371
378
400
393
337
261
220
239
285
296
251
187
156
168
180
158
116
99
128
175
198
186
171
184
224
257
259
233
208
203
210
207
184
146
105
72
49
42
51
64
58
30
4
10
48
84
84
46
2
-18
-15
-6
-2
4
24
56
86
104
103
79
28
-52
-153
-261
-354
-414
-431
-406
-361
-318
-289
-268
-243
-211
-186
-187
-217
-257
-282
-279
-249
-198
-137
-75
-17
35
86
142
198
240
255
245
229
228
246
266
266
246
223
212
202
171
120
77
65
72
58
7
-53
-93
-121
-173
-268
-385
-486
-565
-640
-732
-840
-938
-990
-981
-933
-905
-942
-1028
-1096
-1087
-1003
-892
-811
-791
-841
-944
-1048
-1108
-1144
-1249
-1489
-1799
-2010
-1997
-1795
-1537
-1323
-1145
-951
-735
-545
-415
-345
-326
-358
-433
-515
-551
-520
-447
-371
-311
-271
-251
-247
-252
-252
-243
-235
-231
-225
-206
-176
-155
-157
-176
-189
-184
-175
-185
-215
-237
-226
-186
-148
-142
-165
-189
-195
-189
-193
-219
-256
-279
-275
-256
-244
-249
-263
-268
-252
-229
-223
-247
-283
-304
-298
-284
-287
-308
-319
-299
-255
-216
-204
-209
-211
-197
-171
-144
-126
-127
-144
-161
-158
-129
-95
-86
-109
-141
-152
-131
-100
-97
-144
-229
-307
-344
-341
-336
-365
-422
-471
-489
-496
-524
-586
-666
-745
-821
-897
-960
-994
-994
-968
-923
-860
-788
-723
-678
-648
-625
-614
-631
-669
-705
-715
-703
-693
-689
-673
-630
-569
-515
-471
-424
-369
-323
-309
-328
-351
-353
-331
-302
-281
-268
-253
-232
-201
-159
-112
-76
-72
-104
-148
-172
-180
-210
-297
-421
-527
-580
-607
-677
-817
-983
-1091
-1089
-1002
-905
-865
-882
-895
-843
-713
-546
-394
-293
-274
-357
-532
-727
-859
-940
-1078
-1353
-1682
-1856
-1742
-1422
-1095
-870
-684
-432
-123
133
263
296
299
284
223
115
20
-5
40
106
150
156
137
112
99
104
107
79
25
-15
-4
38
57
22
-29
-39
2
33
2
-71
-120
-120
-115
-165
-254
-308
-291
-254
-272
-349
-412
-403
-354
-345
-396
-450
-445
-398
-372
-388
-407
-387
-342
-319
-331
-344
-323
-283
-262
-267
-272
-251
-215
-196
-194
-179
-132
-77
-53
-62
-67
-35
17
42
17
-35
-72
-79
-79
-95
-128
-162
-187
-210
-240
-270
-290
-294
-295
-309
-341
-372
-383
-368
-345
-345
-386
-453
-513
-538
-533
-533
-577
-655
-709
-680
-574
-466
-425
-442
-449
-400
-328
-299
-326
-358
-347
-306
-286
-298
-300
-254
-175
-114
-99
-112
-110
-69
4
80
140
182
232
310
405
474
485
450
411
393
379
347
301
271
279
306
315
286
239
199
159
86
-40
-185
-296
-378
-476
-615
-735
-741
-627
-503
-485
-551
-551
-366
-47
230
323
235
81
-24
-49
-63
-170
-421
-738
-940
-883
-592
-236
31
194
343
538
734
846
849
770
650
509
370
283
281
355
460
555
628
683
716
721
704
684
662
618
540
449
384
372
403
446
477
496
514
531
534
511
473
433
396
346
263
163
93
91
145
201
212
186
180
230
306
350
333
287
262
263
257
222
184
186
230
277
298
305
327
359
376
365
344
326
285
197
88
24
43
107
139
101
26
-38
-73
-97
-134
-194
-271
-352
-408
-414
-378
-346
-358
-400
-416
-369
-284
-219
-201
-206
-201
-182
-172
-187
-223
-279
-355
-440
-507
-534
-533
-528
-519
-477
-378
-249
-141
-84
-71
-73
-74
-78
-85
-93
-102
-107
-96
-53
16
88
150
208
273
331
363
375
401
459
520
533
508
509
575
658
657
543
400
327
333
345
310
254
236
258
259
184
35
-162
-377
-578
-698
-687
-573
-468
-458
-494
-428
-176
170
403
384
184
28
89
340
585
643
494
272
119
71
55
-24
-200
-424
-601
-625
-440
-87
311
615
773
833
869
888
828
638
343
59
-94
-73
76
286
531
824
1147
1426
1580
1582
1471
1298
1092
867
658
508
414
326
209
84
-7
-60
-118
-206
-288
-298
-222
-119
-51
-20
18
84
135
93
-76
-318
-529
-636
-635
-589
-549
-514
-448
-337
-225
-175
-200
-268
-337
-385
-404
-382
-337
-320
-376
-486
-565
-552
-489
-475
-545
-614
-563
-376
-166
-61
-74
-97
-14
173
357
438
419
393
437
529
580
535
431
339
292
262
205
105
-17
-126
-204
-251
-293
-358
-446
-519
-534
-500
-471
-474
-469
-388
-225
-40
103
205
314
444
561
624
640
640
626
566
448
326
276
321
414
494
555
635
754
879
960
981
977
983
986
954
887
837
857
931
975
934
832
754
745
767
743
645
523
448
446
486
524
526
491
426
350
289
246
187
73
-94
-241
-281
-193
-48
43
39
-4
10
123
290
430
490
456
337
158
-28
-166
-268
-423
111
397
560
561
454
313
176
54
-33
-57
-4
111
239
337
378
380
378
387
379
320
217
116
48
7
-35
-76
-93
-82
-68
-75
-89
-88
-81
-112
-197
-295
-350
-357
-363
-404
-461
-497
-510
-524
-547
-557
-542
-527
-550
-595
-612
-572
-508
-472
-478
-494
-489
-466
-446
-442
-442
-433
-417
-396
-372
-341
-305
-273
-254
-257
-281
-309
-320
-308
-290
-281
-275
-249
-195
-130
-82
-61
-45
-24
-4
3
4
18
48
70
56
13
-21
-18
8
15
-27
-106
-173
-182
-129
-43
36
95
152
228
335
456
564
638
673
676
662
662
680
707
731
746
779
839
917
997
1061
1091
1093
1075
1062
1061
1054
1031
1049
1191
1465
1764
1953
1993
1954
1913
1861
1729
1485
1166
845
600
490
535
671
789
827
830
863
919
910
790
625
492
387
253
95
25
132
340
489
483
386
331
381
506
660
809
900
861
684
472
353
327
261
47
-237
-379
-253
54
350
524
630
768
948
1099
1157
1137
1091
1057
1036
1009
969
933
927
958
995
980
885
744
620
544
498
460
446
476
525
536
488
431
424
471
515
508
473
467
512
569
597
599
603
617
612
568
509
471
469
472
449
404
364
343
341
341
345
355
351
303
218
155
168
242
300
282
211
170
203
274
305
263
188
153
194
291
409
532
673
858
1095
1357
1591
1726
1702
1501
1173
815
499
212
-115
-511
-886
-1103
-1095
-929
-752
-669
-644
-552
-311
7
207
142
-131
-360
-315
10
393
606
612
540
508
494
411
211
-86
-436
-790
-1059
-1126
-932
-561
-200
6
58
66
133
248
307
218
-9
-255
-380
-328
-162
10
137
221
280
306
291
267
284
356
440
506
571
668
766
784
675
485
310
194
117
55
17
-2
-50
-179
-380
-582
-726
-792
-766
-600
-262
193
629
951
1176
1389
1626
1823
1875
1720
1397
1022
719
545
444
312
92
-152
-293
-253
-80
113
241
297
332
398
519
673
807
863
828
747
674
633
617
619
652
720
798
843
838
811
810
849
900
920
889
822
749
692
647
595
525
458
433
470
536
576
563
529
515
521
511
466
424
435
505
587
639
668
703
748
777
777
767
765
757
719
662
626
630
642
607
522
441
412
419
411
369
329
335
383
423
418
377
343
343
361
363
338
311
316
356
393
386
341
300
297
310
283
189
64
-33
-66
-44
2
50
95
136
172
194
183
122
6
-143
-290
-413
-516
-602
-655
-651
-594
-516
-457
-431
-430
-446
-489
-567
-679
-798
-896
-959
-991
-988
-936
-831
-703
-614
-592
-603
-589
-542
-520
-575
-676
-723
-653
-497
-335
-205
-88
36
141
190
190
185
204
230
228
202
196
239
311
352
320
215
84
-26
-100
-159
-249
-378
-488
-491
-354
-160
-53
-102
-222
-243
-75
204
420
451
317
128
-25
-128
-237
-414
-680
-969
-1150
-1112
-854
-494
-169
77
290
509
706
819
843
825
808
788
745
695
680
711
754
767
739
691
635
563
477
409
394
438
500
530
518
487
456
416
355
282
233
224
231
214
161
102
68
60
55
34
3
-23
-38
-45
-46
-44
-48
-69
-109
-155
-187
-198
-196
-194
-198
-203
-194
-162
-116
-74
-53
-57
-78
-99
-106
-93
-71
-68
-96
-136
-159
-155
-152
-174
-212
-229
-201
-145
-91
-46
4
63
112
131
113
72
10
-67
-152
-225
-276
-315
-357
-400
-423
-411
-369
-318
-276
-251
-255
-287
-330
-353
-346
-347
-391
-458
-483
-425
-324
-254
-236
-221
-163
-93
-82
-145
-221
-251
-247
-267
-321
-350
-295
-171
-52
17
50
91
155
215
233
200
149
138
187
252
267
224
195
248
342
363
257
118
84
181
296
323
288
300
403
517
534
448
339
267
214
119
-28
-158
-184
-90
47
119
97
52
84
228
425
581
633
569
403
182
-24
-181
-347
-619
-999
-1332
-1414
-1199
-833
-503
-247
26
375
720
927
948
860
765
699
630
536
450
431
506
632
721
719
644
571
551
562
548
493
441
438
470
488
475
457
454
446
402
334
282
265
254
218
165
131
130
146
167
186
188
151
79
26
43
101
112
35
-62
-66
49
195
273
279
282
336
420
474
467
413
341
275
231
217
219
216
205
215
267
351
423
458
465
460
439
386
307
236
203
201
197
166
124
108
134
170
170
111
11
-93
-177
-228
-260
-312
-438
-653
-895
-1052
-1064
-983
-925
-953
-1012
-1006
-902
-748
-613
-513
-424
-327
-225
-129
-32
72
164
204
175
103
39
9
3
-4
-11
11
86
197
303
385
464
565
670
719
684
606
567
595
650
672
651
629
643
679
693
670
638
633
664
701
710
678
618
547
479
413
343
262
154
17
-118
-192
-165
-76
-31
-93
-204
-214
-29
277
527
595
504
382
333
348
327
171
-126
-455
-648
-608
-383
-122
65
195
368
634
928
1133
1193
1148
1081
1027
962
862
747
677
689
753
800
787
738
713
736
772
773
731
671
616
559
495
437
405
397
392
371
336
307
297
309
330
341
325
289
267
297
377
457
483
447
387
338
299
249
187
142
131
141
140
127
136
196
282
337
330
283
242
221
205
182
170
182
196
172
105
48
51
108
159
161
130
119
154
200
210
164
88
20
-26
-58
-92
-129
-160
-178
-187
-189
-180
-158
-134
-132
-166
-210
-223
-197
-176
-214
-300
-362
-336
-252
-206
-251
-335
-357
-284
-187
-146
-170
-193
-169
-121
-98
-106
-109
-78
-28
11
37
77
141
212
271
317
348
351
315
267
262
329
427
483
476
458
502
613
725
774
757
723
713
726
738
736
729
730
733
721
686
633
575
516
451
367
266
157
42
-70
-154
-174
-131
-85
-110
-205
-281
-231
-33
227
432
509
464
362
286
272
265
156
-107
-425
-613
-559
-326
-65
141
320
530
763
963
1102
1199
1266
1282
1230
1142
1089
1111
1190
1273
1323
1335
1311
1247
1148
1047
990
1003
1055
1083
1044
965
914
931
984
1003
950
855
780
759
762
742
682
611
572
579
612
639
637
606
579
585
610
604
538
443
377
355
347
334
343
403
503
613
742
909
1059
1042
766
339
9
-80
-25
-26
-147
-247
-160
114
424
621
661
582
429
239
55
-82
-165
-233
-322
-424
-490
-470
-353
-185
-50
4
-9
-25
0
53
105
145
173
157
38
-199
-481
-693
-775
-778
-793
-848
-878
-813
-661
-496
-382
-317
-255
-169
-78
-19
-2
-3
16
66
136
199
242
276
323
388
452
478
442
353
249
166
118
88
61
38
37
74
139
209
266
310
343
359
352
328
304
294
295
298
295
281
244
172
77
1
-23
-17
-37
-112
-192
-186
-61
106
194
150
42
-18
22
122
218
290
348
385
363
271
137
-17
-220
-517
-873
-1152
-1222
-1081
-851
-647
-482
-291
-49
181
317
339
285
201
96
-30
-146
-203
-174
-88
-4
37
39
26
15
12
14
12
-1
-22
-42
-56
-62
-58
-39
-9
13
7
-21
-36
-20
-6
-42
-121
-181
-175
-135
-132
-185
-232
-217
-162
-152
-221
-323
-391
-407
-406
-420
-437
-417
-349
-267
-229
-262
-329
-357
-305
-204
-136
-140
-172
-159
-81
20
94
134
160
178
181
174
184
229
293
342
361
361
363
380
413
447
468
467
460
473
517
570
601
612
634
675
704
680
610
553
545
562
555
525
516
540
534
434
257
114
87
149
217
262
340
504
731
936
1059
1086
1041
956
867
806
772
735
675
631
667
797
947
1031
1038
1018
1007
994
963
932
948
1014
1093
1159
1221
1303
1390
1444
1443
1406
1368
1349
1347
1341
1302
1205
1049
865
706
591
490
362
208
90
88
217
409
556
594
553
524
579
720
890
1018
1055
989
836
646
476
336
179
-54
-340
-560
-593
-423
-153
97
284
448
628
808
931
963
924
872
847
842
839
841
876
949
1015
1010
922
802
710
651
583
485
392
350
354
355
310
231
159
115
82
42
5
-1
28
60
60
19
-39
-85
-111
-124
-133
-143
-150
-144
-124
-105
-102
-119
-140
-150
-158
-183
-221
-222
-130
50
233
318
275
164
64
-2
-86
-248
-482
-705
-822
-804
-698
-580
-485
-402
-312
-232
-193
-205
-239
-265
-287
-330
-399
-459
-475
-451
-418
-405
-413
-439
-479
-530
-564
-554
-510
-484
-517
-580
-603
-565
-533
-589
-739
-906
-1029
-1127
-1258
-1428
-1570
-1619
-1568
-1454
-1286
-1044
-732
-408
-147
29
160
276
350
326
192
19
-103
-145
-151
-172
-189
-137
4
170
271
293
298
339
382
346
215
57
-42
-87
-134
-194
-203
-113
29
113
93
38
40
103
147
115
46
6
7
6
-20
-40
-30
-8
-9
-14
16
46
-8
-170
-332
-339
-159
76
212
219
169
128
89
1
-169
-420
-704
-915
-923
-672
-235
229
594
842
1026
1188
1313
1341
1215
951
672
547
637
816
884
778
632
593
625
544
264
-64
-228
-187
-78
-3
93
308
588
740
643
378
134
4
-69
-174
-302
-363
-290
-112
65
163
179
172
196
241
238
139
-30
-180
-240
-216
-169
-134
-100
-28
96
247
379
445
413
287
112
-50
-163
-235
-279
-283
-216
-74
93
218
274
285
293
308
291
217
100
-4
-46
-19
36
85
119
141
150
132
86
29
-13
-24
-6
23
40
36
24
30
61
82
51
-32
-111
-131
-102
-81
-107
-155
-180
-172
-160
-152
-122
-51
25
43
-13
-92
-143
-170
-217
-304
-398
-449
-436
-367
-266
-159
-70
-12
25
59
92
107
90
47
-10
-76
-136
-160
-124
-46
15
26
21
54
136
211
225
183
130
103
95
81
40
-35
-135
-231
-292
-322
-373
-496
-673
-807
-811
-683
-505
-359
-263
-168
-14
227
531
823
1009
1017
857
624
425
293
150
-115
-515
-918
-1127
-1047
-758
-456
-273
-179
-53
174
447
642
685
611
507
443
433
465
519
575
612
624
626
634
636
603
514
396
302
272
296
327
315
246
155
98
109
169
222
226
186
138
113
109
105
84
48
5
-33
-52
-52
-46
-48
-52
-48
-31
-22
-48
-110
-187
-263
-340
-427
-509
-567
-598
-623
-649
-650
-592
-479
-365
-302
-293
-295
-272
-227
-200
-225
-292
-361
-405
-423
-436
-456
-476
-481
-459
-424
-397
-396
-403
-398
-374
-352
-363
-413
-480
-532
-560
-578
-604
-640
-661
-658
-649
-670
-734
-809
-844
-825
-792
-798
-847
-881
-832
-697
-542
-444
-432
-460
-469
-438
-411
-444
-537
-625
-638
-573
-488
-433
-408
-366
-295
-241
-254
-317
-355
-313
-232
-195
-223
-254
-223
-152
-124
-174
-231
-199
-74
51
111
130
179
262
316
299
229
146
52
-80
-237
-353
-394
-402
-459
-593
-735
-773
-666
-495
-400
-457
-592
-632
-460
-113
246
472
525
467
378
300
219
80
-172
-535
-911
-1158
-1179
-995
-719
-460
-257
-84
115
355
588
724
688
507
306
199
209
255
253
196
156
184
260
300
254
152
80
95
171
238
249
229
227
250
262
234
183
137
106
70
17
-44
-101
-154
-199
-225
-229
-208
-178
-156
-147
-147
-144
-131
-122
-145
-210
-279
-301
-274
-251
-281
-334
-339
-279
-218
-221
-271
-289
-237
-169
-150
-182
-204
-180
-139
-131
-163
-201
-221
-228
-236
-240
-226
-198
-169
-140
-101
-57
-40
-87
-188
-295
-350
-353
-350
-374
-411
-412
-357
-273
-206
-188
-215
-271
-345
-423
-484
-514
-513
-501
-487
-466
-422
-346
-254
-175
-145
-169
-218
-245
-232
-213
-232
-284
-329
-336
-321
-315
-309
-262
-168
-84
-66
-99
-105
-35
74
142
142
115
124
196
316
445
545
594
601
600
622
655
655
597
519
480
495
512
480
406
343
311
263
141
-59
-285
-469
-572
-579
-504
-395
-325
-327
-351
-295
-97
194
449
558
508
388
321
370
472
471
258
-102
-388
-421
-215
55
244
362
518
775
1078
1324
1444
1427
1306
1135
978
865
771
657
535
467
487
551
578
537
480
465
490
509
501
488
506
546
568
546
490
445
450
506
582
624
602
525
444
387
336
248
113
-24
-110
-137
-127
-94
-28
70
162
197
167
115
80
51
-12
-120
-227
-276
-248
-176
-114
-88
-88
-74
-29
23
40
0
-64
-96
-59
23
112
181
231
259
249
200
158
165
201
185
83
-37
-63
36
182
300
404
556
748
885
886
767
601
405
141
-200
-552
-832
-1032
-1190
-1311
-1355
-1305
-1216
-1152
-1113
-1032
-876
-696
-561
-489
-433
-349
-250
-178
-156
-174
-210
-247
-276
-288
-265
-202
-102
22
159
304
455
597
701
741
729
704
703
724
739
727
701
693
707
711
669
602
572
616
699
752
755
751
800
893
955
928
828
733
665
582
438
233
33
-82
-72
49
218
346
379
363
432
680
1045
1321
1342
1148
947
901
966
949
717
326
-42
-235
-227
-94
59
168
238
320
468
671
844
908
853
755
685
645
609
567
542
551
588
632
670
705
729
720
687
672
710
782
824
792
707
631
613
635
650
631
587
545
506
455
389
335
321
345
374
377
360
349
359
380
387
370
334
286
229
162
100
77
110
177
232
249
259
318
434
552
611
610
611
650
697
701
661
631
646
681
690
667
652
681
736
766
749
709
688
696
711
700
668
653
688
758
815
825
796
756
699
592
427
269
203
251
348
421
472
574
776
1029
1221
1280
1242
1202
1218
1251
1221
1116
1016
1014
1108
1192
1171
1067
983
973
986
934
809
699
681
739
805
850
901
974
1022
981
867
783
813
926
1000
960
850
777
782
799
740
595
431
311
228
142
35
-71
-168
-273
-401
-523
-591
-605
-623
-707
-842
-939
-916
-781
-636
-590
-669
-802
-890
-883
-798
-692
-618
-617
-716
-893
-1086
-1233
-1352
-1527
-1795
-2060
-2143
-1951
-1566
-1162
-836
-553
-251
57
290
406
449
478
503
495
442
378
338
322
296
238
150
45
-75
-206
-326
-399
-402
-355
-308
-306
-362
-466
-590
-706
-789
-826
-831
-845
-889
-945
-970
-951
-926
-945
-1007
-1055
-1047
-992
-937
-905
-885
-867
-874
-940
-1062
-1195
-1299
-1376
-1452
-1521
-1533
-1429
-1204
-925
-687
-546
-495
-489
-489
-491
-519
-585
-676
-749
-754
-661
-483
-281
-136
-86
-101
-112
-78
-24
2
-18
-46
-29
54
171
276
337
355
358
374
410
439
434
402
390
444
558
679
750
761
744
734
746
769
791
817
860
924
992
1045
1081
1123
1191
1274
1320
1288
1186
1081
1034
1051
1088
1107
1122
1176
1283
1416
1539
1645
1751
1849
1900
1877
1801
1729
1685
1639
1552
1422
1294
1207
1173
1174
1192
1218
1240
1255
1257
1239
1193
1109
997
876
767
670
591
548
540
530
469
356
258
237
282
304
231
86
-23
3
175
417
622
726
726
661
571
467
335
140
-124
-408
-611
-637
-457
-146
167
390
533
669
844
1022
1121
1098
984
864
798
788
797
794
770
736
695
638
554
457
388
394
482
613
734
815
871
926
975
987
943
858
779
744
755
782
798
803
800
784
752
717
696
680
631
528
413
365
421
521
573
561
545
578
628
627
569
524
537
556
495
349
219
197
255
283
212
89
12
18
69
113
136
161
190
205
196
180
185
214
245
254
235
195
144
93
68
85
124
139
105
47
20
43
73
52
-33
-136
-217
-272
-323
-365
-371
-333
-287
-265
-263
-254
-217
-176
-158
-161
-167
-165
-167
-170
-150
-97
-40
-17
-33
-55
-54
-40
-31
-30
-16
12
35
47
72
128
187
194
137
82
110
234
385
482
512
531
578
633
622
499
308
159
128
194
272
302
306
333
396
457
468
417
314
171
34
-16
82
272
425
465
451
513
694
898
1003
993
938
881
789
599
325
48
-170
-340
-502
-642
-683
-561
-291
40
339
576
771
935
1032
1004
843
625
455
383
382
404
441
509
592
628
541
306
-48
-458
-853
-1158
-1316
-1297
-1119
-826
-451
-17
431
830
1128
1305
1369
1328
1192
986
762
578
471
451
505
595
667
682
655
649
690
726
677
535
405
407
541
685
711
609
472
383
340
288
195
65
-100
-304
-518
-661
-670
-574
-483
-480
-537
-538
-407
-176
32
109
39
-93
-176
-167
-123
-144
-267
-435
-558
-611
-638
-667
-672
-622
-553
-548
-636
-733
-718
-581
-436
-416
-541
-715
-827
-849
-835
-848
-899
-938
-898
-751
-533
-317
-163
-80
-40
-15
-15
-71
-196
-366
-524
-618
-632
-600
-566
-531
-457
-320
-163
-65
-61
-111
-138
-109
-47
27
113
202
256
244
196
177
201
208
129
-12
-125
-157
-151
-175
-218
-208
-117
-12
33
28
54
151
251
247
111
-78
-209
-241
-217
-208
-244
-291
-281
-164
55
320
543
649
612
470
298
160
52
-94
-330
-604
-773
-725
-488
-210
-9
123
279
499
712
820
817
795
825
887
901
823
700
615
605
624
595
489
350
265
281
367
444
453
402
346
314
280
217
151
132
169
192
134
39
38
195
403
486
402
304
353
529
647
575
390
261
248
251
133
-124
-405
-567
-550
-432
-370
-476
-706
-890
-892
-738
-546
-373
-169
85
295
370
389
523
788
993
960
759
638
714
852
858
735
637
634
634
547
447
509
809
1212
1514
1648
1722
1872
2057
2051
1659
953
249
-169
-303
-383
-556
-712
-664
-441
-319
-526
-1007
-1500
-1814
-1969
-2069
-2131
-2095
-1938
-1714
-1465
-1197
-912
-665
-536
-534
-586
-600
-551
-453
-334
-212
-96
12
130
265
386
437
405
357
373
468
582
642
628
563
455
289
80
-110
-205
-182
-96
-21
11
31
84
181
283
320
234
34
-200
-375
-444
-435
-418
-427
-429
-377
-279
-211
-230
-301
-322
-220
-6
256
503
688
773
747
648
528
402
228
-10
-243
-353
-294
-139
3
97
177
253
273
178
-14
-227
-388
-468
-472
-412
-303
-173
-43
89
221
321
343
290
230
237
319
415
465
458
418
357
266
154
66
42
80
136
171
193
233
297
341
326
252
158
79
16
-58
-147
-227
-267
-266
-252
-255
-273
-278
-248
-197
-151
-121
-87
-22
66
142
178
189
202
212
185
109
27
-1
17
13
-54
-136
-150
-68
50
136
175
195
201
176
129
93
91
98
72
19
-14
5
49
65
39
-9
-51
-80
-113
-163
-221
-258
-248
-185
-100
-31
15
63
123
165
151
88
29
21
49
67
59
53
79
126
159
159
137
115
110
129
162
186
184
162
157
191
245
280
276
257
265
306
349
370
383
425
506
595
660
702
761
862
979
1063
1090
1095
1127
1190
1241
1237
1179
1092
993
891
797
713
616
468
288
171
202
351
484
504
464
511
727
1031
1264
1321
1213
1034
872
760
661
493
211
-134
-404
-467
-310
-30
254
493
708
926
1138
1308
1408
1425
1355
1213
1038
884
799
787
814
830
802
735
663
620
615
624
621
606
604
640
709
779
811
790
727
643
553
460
366
280
219
188
184
195
217
251
285
300
275
217
162
148
178
220
242
250
271
316
354
348
303
264
260
264
224
140
70
65
114
162
177
170
171
190
227
276
326
350
335
304
305
349
386
367
310
272
279
292
273
247
266
335
391
386
339
288
228
116
-54
-222
-324
-368
-413
-470
-487
-418
-288
-169
-106
-77
-51
-25
-15
-13
3
36
55
42
22
34
82
117
102
47
3
4
41
92
156
241
345
434
471
453
411
384
388
406
418
428
459
527
616
691
731
743
747
747
728
679
610
542
483
426
359
288
227
172
99
-11
-143
-247
-290
-289
-306
-363
-404
-355
-217
-94
-107
-263
-439
-490
-383
-209
-93
-88
-150
-182
-119
19
133
121
-32
-227
-325
-267
-108
54
169
259
373
528
706
880
1020
1102
1122
1094
1042
992
956
946
960
968
926
827
731
711
784
888
941
920
876
865
891
916
907
869
833
821
833
858
875
867
830
776
728
698
683
672
657
637
613
584
553
534
531
527
499
444
388
358
359
360
330
274
223
202
208
207
184
159
167
214
255
228
108
-67
-231
-344
-407
-429
-378
-194
167
675
1227
1710
2053
2251
2324
2273
2081
1739
1281
787
354
51
-111
-176
-200
-208
-193
-144
-96
-112
-212
-338
-407
-405
-394
-421
-452
-417
-317
-239
-243
-271
-207
-20
193
316
342
354
399
421
341
165
-15
-119
-142
-125
-90
-33
39
85
70
-3
-90
-163
-239
-346
-477
-584
-611
-553
-450
-360
-302
-266
-248
-261
-320
-410
-494
-551
-579
-589
-584
-574
-577
-618
-697
-776
-805
-774
-723
-703
-714
-689
-567
-367
-182
-84
-40
50
238
476
658
720
660
501
261
-31
-329
-619
-941
-1326
-1706
-1927
-1892
-1663
-1400
-1209
-1053
-841
-554
-274
-99
-63
-136
-245
-321
-318
-245
-165
-140
-165
-179
-141
-78
-62
-117
-212
-309
-417
-555
-706
-821
-890
-965
-1097
-1250
-1323
-1260
-1114
-992
-943
-931
-898
-838
-786
-759
-729
-671
-598
-545
-523
-514
-491
-456
-434
-445
-484
-536
-579
-592
-557
-470
-345
-198
-38
119
241
277
208
66
-82
-201
-306
-417
-523
-565
-503
-348
-163
-16
58
78
84
103
106
33
-117
-235
-163
145
552
841
914
857
812
801
724
487
121
-257
-538
-661
-603
-377
-51
263
490
628
707
719
617
409
171
-7
-115
-198
-255
-213
-15
270
488
548
499
450
437
406
315
216
196
271
373
448
524
655
829
971
1029
1031
1034
1049
1036
984
936
937
975
1002
1003
1002
1013
1008
954
875
836
859
895
878
805
733
700
682
624
504
359
244
173
117
40
-57
-120
-83
65
242
324
257
125
78
189
389
550
596
554
485
428
391
350
252
34
-296
-609
-728
-599
-350
-149
-32
111
369
682
906
979
963
945
933
887
803
744
757
820
868
865
831
797
762
708
644
602
603
630
651
654
656
674
696
689
641
574
522
491
464
426
389
371
373
374
359
335
315
287
228
140
50
-24
-96
-188
-280
-317
-263
-150
-43
36
125
249
368
408
343
236
171
161
147
84
7
-7
69
175
233
230
217
231
250
217
125
24
-36
-59
-76
-95
-101
-85
-71
-77
-83
-53
13
71
91
87
86
80
33
-74
-208
-333
-453
-584
-703
-745
-674
-541
-438
-404
-376
-273
-104
22
15
-99
-201
-201
-125
-78
-126
-236
-322
-324
-253
-149
-44
51
132
201
278
384
515
633
696
706
704
721
751
775
792
819
862
893
876
815
755
721
693
623
503
384
312
290
273
232
180
139
99
40
-33
-96
-138
-177
-228
-261
-234
-152
-86
-94
-153
-184
-139
-43
47
104
147
182
183
125
34
-51
-124
-227
-381
-537
-585
-470
-236
19
231
411
586
725
769
714
624
563
515
429
325
328
535
890
1207
1347
1324
1243
1171
1089
954
775
595
429
277
165
127
174
256
307
306
288
302
363
454
542
598
614
598
558
490
386
270
191
190
248
309
337
357
414
512
609
662
647
565
433
300
241
299
413
467
386
227
127
164
285
364
332
231
157
169
242
319
357
340
278
193
116
72
61
55
29
-17
-67
-105
-134
-174
-246
-344
-439
-500
-533
-582
-678
-796
-880
-916
-970
-1110
-1302
-1421
-1385
-1247
-1137
-1122
-1150
-1136
-1075
-1037
-1062
-1113
-1126
-1081
-1008
-927
-830
-711
-588
-480
-396
-333
-303
-312
-341
-344
-292
-194
-74
47
163
275
378
452
468
393
247
99
26
40
76
78
68
109
217
325
350
285
197
151
146
140
109
73
65
93
149
225
296
316
248
128
61
148
364
557
599
513
460
548
715
803
742
591
468
430
447
466
442
337
140
-104
-318
-465
-570
-654
-667
-528
-236
107
369
482
465
372
252
138
15
-160
-390
-574
-564
-317
32
265
292
197
117
95
74
-6
-119
-207
-240
-212
-121
4
115
170
170
148
118
61
-27
-104
-123
-103
-111
-157
-171
-86
57
134
84
-17
-53
-14
-9
-124
-320
-478
-533
-524
-516
-503
-424
-267
-103
-21
-31
-51
-21
25
16
-62
-138
-143
-105
-110
-188
-269
-280
-257
-299
-429
-537
-496
-317
-149
-102
-129
-106
-1
79
34
-94
-165
-110
-15
2
-59
-89
-25
68
61
-72
-228
-295
-265
-212
-182
-147
-71
32
128
212
302
384
406
350
272
252
273
237
89
-97
-190
-160
-101
-107
-149
-109
68
295
438
455
420
423
475
510
461
337
201
134
185
336
504
593
575
537
585
722
826
773
582
404
359
404
395
259
64
-86
-161
-198
-204
-145
-20
99
138
122
152
274
401
421
335
261
310
488
713
892
967
918
772
584
401
206
-59
-392
-682
-791
-691
-490
-304
-153
36
293
540
664
633
522
436
403
383
339
280
248
261
291
301
282
257
252
260
269
285
335
427
530
593
598
573
556
550
530
474
383
277
188
146
159
197
209
183
155
168
212
235
202
142
95
58
-5
-99
-175
-181
-137
-108
-125
-153
-128
-45
39
69
40
-11
-51
-78
-105
-132
-145
-143
-141
-151
-164
-156
-108
-39
13
31
30
47
101
157
160
98
23
7
56
99
67
-16
-52
24
165
257
244
181
153
176
192
152
68
-10
-45
-38
-9
26
52
60
53
57
85
126
156
172
185
202
211
211
223
273
342
376
341
262
202
199
236
266
269
261
278
333
410
479
525
544
541
521
488
448
419
410
411
389
334
285
302
405
534
610
608
573
566
594
606
552
450
344
264
188
82
-39
-119
-119
-72
-55
-101
-159
-146
-31
134
269
324
300
226
131
52
24
35
20
-95
-292
-441
-401
-146
201
474
615
693
794
922
1010
1008
917
766
576
376
235
219
332
512
671
761
778
754
737
761
798
754
555
260
30
-20
61
122
91
50
111
275
437
514
519
504
493
476
453
444
444
400
277
120
26
51
139
186
145
74
67
147
254
315
310
269
225
190
164
152
136
84
-12
-99
-100
-3
118
177
174
184
256
359
424
427
401
381
370
359
370
420
483
495
431
340
300
321
333
275
178
129
174
262
312
307
304
357
439
480
447
380
336
331
337
329
317
324
360
414
460
483
481
470
465
460
436
379
320
303
344
399
414
382
355
380
443
480
459
409
385
407
454
493
519
546
569
566
526
460
390
323
241
139
50
19
65
155
228
255
261
290
344
363
283
107
-77
-182
-205
-232
-335
-475
-531
-438
-277
-207
-298
-452
-495
-348
-80
179
362
495
619
729
784
752
632
438
196
-41
-194
-206
-89
95
287
473
677
910
1137
1285
1303
1197
1035
892
801
753
731
744
798
876
939
970
978
977
965
938
900
841
733
581
446
403
442
473
441
405
476
655
804
796
659
534
497
482
407
308
304
435
599
670
643
626
700
821
873
800
662
570
582
662
731
747
728
716
725
737
728
692
648
609
568
525
505
550
653
729
690
548
429
442
536
530
316
11
-142
-20
255
471
550
605
781
1073
1343
1467
1435
1318
1168
983
750
498
286
160
107
70
12
-51
-66
-15
53
73
26
-32
-43
-18
0
-12
-36
-48
-67
-128
-235
-349
-421
-432
-403
-358
-307
-248
-173
-94
-36
-18
-39
-81
-137
-215
-315
-397
-428
-419
-419
-460
-499
-479
-405
-361
-416
-536
-616
-597
-533
-512
-549
-575
-538
-470
-463
-571
-769
-986
-1177
-1343
-1503
-1661
-1781
-1814
-1734
-1563
-1361
-1182
-1041
-905
-727
-493
-249
-84
-80
-244
-479
-672
-794
-935
-1195
-1546
-1829
-1888
-1719
-1444
-1181
-949
-711
-463
-251
-115
-43
-1
14
-15
-74
-107
-58
61
187
261
279
275
283
308
350
418
531
689
863
1013
1123
1190
1224
1224
1195
1153
1111
1061
983
886
813
815
888
968
993
961
930
950
1011
1058
1058
1030
1005
985
944
870
778
690
602
504
416
368
369
386
383
378
421
535
686
806
847
803
698
573
474
427
411
377
302
224
198
232
281
291
252
188
123
66
13
-23
-29
6
75
149
195
210
242
353
562
803
976
1030
990
902
790
635
419
146
-153
-429
-622
-689
-628
-472
-258
-9
255
499
686
809
880
907
880
793
667
531
386
224
54
-91
-179
-228
-275
-314
-300
-189
-5
179
293
323
312
302
309
323
338
357
396
461
548
642
715
744
721
645
520
353
161
-31
-202
-341
-456
-557
-645
-708
-718
-650
-502
-329
-210
-199
-277
-342
-298
-140
37
118
59
-72
-166
-164
-111
-118
-269
-542
-810
-926
-825
-585
-348
-208
-134
-25
162
362
467
433
309
171
43
-83
-200
-265
-255
-199
-158
-159
-180
-186
-170
-149
-133
-117
-98
-77
-65
-69
-84
-98
-103
-95
-80
-74
-87
-114
-132
-121
-95
-88
-124
-184
-220
-214
-201
-229
-300
-359
-362
-332
-335
-393
-457
-461
-400
-330
-296
-280
-237
-161
-89
-55
-56
-57
-34
11
58
92
111
129
163
217
270
297
289
260
225
187
142
91
54
33
12
-34
-98
-167
-225
-280
-341
-399
-433
-432
-406
-389
-416
-504
-630
-736
-771
-729
-662
-614
-560
-427
-183
107
325
407
383
330
291
256
209
159
128
126
146
169
181
160
96
-12
-152
-311
-480
-631
-714
-695
-587
-451
-339
-261
-202
-156
-137
-154
-192
-219
-216
-181
-124
-65
-32
-39
-67
-72
-17
81
173
224
250
296
380
458
466
374
209
28
-135
-281
-430
-591
-742
-828
-790
-614
-365
-168
-108
-133
-94
125
480
806
962
937
843
790
805
820
724
457
76
-265
-411
-341
-166
-7
120
298
578
904
1169
1329
1412
1446
1424
1327
1188
1069
1001
960
911
855
823
819
814
783
748
753
810
874
884
834
768
737
736
718
650
542
434
343
257
154
34
-88
-195
-277
-326
-344
-343
-348
-375
-428
-496
-565
-634
-710
-801
-899
-973
-992
-941
-847
-753
-681
-613
-520
-402
-299
-256
-263
-267
-248
-247
-316
-430
-490
-427
-287
-187
-174
-170
-68
132
314
373
311
220
167
145
109
41
-32
-83
-109
-115
-106
-86
-77
-92
-125
-144
-139
-139
-186
-271
-333
-321
-257
-213
-223
-239
-201
-112
-39
-18
-11
39
120
164
134
77
66
110
154
152
117
102
129
183
235
274
301
329
373
440
515
566
578
575
590
622
625
561
463
399
395
411
401
372
367
392
411
399
388
417
466
461
367
232
143
114
72
-53
-238
-379
-388
-266
-97
23
45
-8
-60
-42
53
175
248
219
84
-111
-292
-405
-467
-567
-789
-1104
-1356
-1380
-1155
-820
-529
-315
-94
192
492
702
783
778
733
652
523
388
328
379
496
592
620
589
538
493
456
419
375
334
328
372
434
461
439
406
407
431
421
345
231
130
64
28
24
54
93
95
56
36
93
208
295
297
241
196
200
235
268
277
258
221
182
167
175
184
180
168
158
130
49
-75
-178
-214
-212
-240
-314
-362
-295
-114
84
201
222
212
232
273
283
213
74
-68
-139
-111
-23
55
86
88
106
144
162
121
30
-62
-116
-127
-115
-102
-95
-97
-115
-140
-162
-175
-185
-202
-209
-189
-137
-73
-17
28
56
44
-24
-124
-186
-168
-115
-126
-235
-348
-332
-163
33
102
25
-81
-95
-24
27
-8
-87
-120
-72
10
63
80
102
160
235
292
319
322
317
315
319
323
305
238
124
3
-76
-97
-95
-115
-169
-222
-222
-138
9
154
219
174
59
-44
-65
5
114
182
155
43
-85
-157
-177
-244
-449
-755
-999
-1036
-877
-656
-470
-282
-11
327
607
729
736
746
810
868
836
721
611
583
625
677
685
636
545
436
348
318
354
423
476
496
498
490
452
364
252
172
162
196
214
191
167
195
282
380
433
424
380
343
342
377
420
433
409
382
389
419
411
323
193
109
110
153
161
122
101
154
257
332
330
275
224
206
204
192
171
167
203
277
360
416
422
374
289
197
126
85
68
66
82
124
202
300
384
412
364
255
118
0
-69
-79
-52
-20
-7
-1
24
86
164
198
135
-18
-188
-294
-315
-305
-335
-418
-490
-472
-354
-209
-131
-146
-193
-187
-101
13
80
70
22
-6
10
49
88
134
203
292
384
469
547
620
661
652
598
532
473
420
365
323
308
312
316
319
347
405
448
421
321
200
105
28
-72
-209
-351
-451
-484
-455
-387
-320
-296
-337
-413
-461
-438
-355
-262
-215
-247
-342
-440
