1312
1174
1026
883
762
651
535
435
393
414
444
430
372
323
314
320
295
239
179
128
71
6
-29
0
74
134
147
134
132
143
143
119
84
55
35
14
-8
-20
-11
22
70
119
156
174
182
195
215
225
201
145
88
59
59
65
63
60
60
51
24
-5
-3
41
89
88
26
-46
-73
-53
-38
-76
-159
-240
-280
-280
-267
-267
-285
-314
-340
-349
-337
-324
-330
-359
-395
-419
-431
-443
-461
-478
-491
-501
-507
-502
-471
-422
-380
-363
-369
-367
-335
-278
-232
-223
-246
-263
-233
-162
-100
-99
-146
-163
-92
38
136
147
108
105
165
241
272
261
254
276
303
303
290
313
393
489
534
515
483
507
584
648
643
576
508
478
475
481
497
533
567
554
501
468
501
566
584
521
432
388
390
392
366
339
337
349
349
349
380
439
478
465
430
428
464
490
469
425
403
409
397
336
258
228
263
312
316
274
244
266
320
355
347
328
342
392
436
436
393
348
339
365
393
389
354
321
327
372
420
433
414
397
410
438
451
436
412
405
420
437
442
426
396
362
345
357
382
390
367
343
360
416
461
450
401
364
359
344
287
220
204
249
285
251
173
132
153
170
105
-28
-135
-153
-121
-118
-168
-222
-218
-153
-66
6
49
70
81
103
154
228
287
303
289
294
347
423
477
497
513
556
615
651
646
623
617
635
648
633
608
603
635
684
723
739
739
727
711
702
703
701
674
628
599
620
674
710
703
682
679
692
683
640
587
539
479
386
268
174
143
155
140
50
-84
-172
-160
-85
-24
1
72
296
683
1138
1543
1851
2083
2276
2445
2605
2745
2800
2684
2391
2037
1766
1597
1405
1060
587
153
-92
-150
-140
-164
-227
-258
-210
-102
14
98
122
68
-49
-158
-175
-91
-13
-56
-190
-243
-67
309
736
1121
1484
1844
2120
2191
2028
1710
1313
838
278
-286
-719
-947
-1005
-964
-863
-731
-640
-650
-759
-891
-977
-1025
-1084
-1163
-1204
-1144
-966
-718
-477
-311
-219
-146
-55
23
8
-105
-170
-17
341
664
707
478
222
122
91
-98
-502
-898
-1033
-907
-746
-708
-724
-642
-474
-407
-571
-900
-1221
-1447
-1629
-1896
-1938
-1917
-1739
-1481
-1219
-979
-769
-620
-574
-619
-687
-723
-718
-680
-600
-469
-309
-181
-139
-175
-235
-270
-270
-262
-255
-223
-138
-10
101
139
104
58
70
144
224
253
236
224
245
276
282
272
290
347
394
393
377
415
513
585
555
453
388
407
451
438
374
340
382
443
446
391
355
384
445
464
425
396
452
606
789
926
997
1017
974
835
604
360
186
73
-63
-234
-312
-138
284
752
1053
1142
1123
1079
991
797
507
198
-67
-263
-371
-357
-210
10
219
368
458
498
487
435
381
360
365
359
331
319
363
450
527
549
516
466
435
432
439
434
412
389
390
419
450
443
387
319
289
317
364
369
314
238
191
188
203
210
207
205
212
226
242
255
253
222
161
92
41
19
16
15
12
15
30
56
93
134
170
185
177
161
162
190
230
253
243
214
196
206
243
289
332
365
386
401
431
497
584
645
640
588
556
589
659
700
684
646
639
668
693
683
647
615
600
593
585
584
595
611
614
602
590
586
572
506
364
163
-40
-174
-215
-207
-222
-272
-282
-178
-8
73
-44
-286
-473
-524
-548
-679
-849
-807
-396
258
853
1216
1443
1743
2180
2596
2767
2610
2232
1828
1536
1364
1224
1023
753
474
261
131
56
11
-9
-21
-61
-143
-209
-184
-63
62
94
27
-44
-38
26
53
-17
-139
-240
-290
-324
-380
-445
-466
-402
-269
-140
-84
-109
-149
-121
-17
68
23
-159
-344
-381
-262
-126
-93
-142
-154
-65
68
157
180
172
143
81
16
19
107
179
100
-150
-451
-705
-943
-1264
-1673
-2026
-2148
-1982
-1615
-1185
-777
-406
-51
298
611
816
849
721
525
379
343
381
422
433
421
401
357
269
145
20
-82
-169
-253
-322
-359
-357
-337
-332
-366
-435
-517
-590
-627
-605
-523
-405
-285
-191
-138
-122
-119
-101
-59
-13
4
-5
-4
22
45
36
17
36
98
150
154
151
213
341
443
445
378
340
370
409
399
354
326
323
314
283
265
296
340
327
245
165
157
219
287
314
311
319
353
388
399
380
338
289
238
187
134
85
53
48
58
64
63
76
114
158
178
165
143
139
152
157
140
115
100
98
99
95
86
77
74
80
91
99
94
75
52
36
24
10
2
23
74
116
104
48
9
32
86
97
31
-58
-87
-39
28
54
36
13
7
-3
-37
-81
-103
-106
-121
-165
-211
-218
-182
-144
-153
-214
-287
-325
-330
-340
-387
-455
-486
-448
-372
-326
-346
-392
-404
-366
-317
-304
-325
-342
-329
-299
-274
-247
-198
-135
-108
-150
-231
-279
-247
-172
-128
-150
-201
-219
-181
-106
-45
-30
-64
-125
-175
-188
-162
-124
-104
-106
-114
-109
-94
-75
-54
-31
-18
-33
-76
-119
-132
-116
-101
-114
-159
-216
-273
-330
-385
-436
-482
-524
-556
-573
-583
-613
-675
-739
-760
-722
-660
-600
-505
-296
50
438
729
866
923
1015
1167
1300
1325
1224
1043
842
651
480
329
177
-11
-252
-512
-716
-823
-849
-842
-829
-814
-797
-784
-764
-717
-644
-600
-657
-806
-928
-903
-757
-643
-672
-779
-816
-741
-675
-732
-857
-900
-819
-735
-770
-869
-874
-735
-595
-605
-738
-831
-791
-707
-720
-856
-1012
-1093
-1103
-1102
-1106
-1086
-1028
-980
-989
-1035
-1055
-1019
-977
-1001
-1090
-1171
-1177
-1136
-1133
-1210
-1307
-1346
-1325
-1309
-1345
-1393
-1390
-1360
-1384
-1476
-1540
-1493
-1394
-1409
-1602
-1815
-1810
-1542
-1239
-1180
-1411
-1694
-1760
-1595
-1420
-1445
-1655
-1854
-1895
-1803
-1694
-1633
-1588
-1528
-1479
-1479
-1506
-1502
-1447
-1388
-1367
-1357
-1311
-1226
-1146
-1090
-1034
-961
-895
-871
-891
-924
-940
-929
-878
-794
-733
-761
-851
-870
-716
-472
-337
-398
-520
-509
-350
-214
-249
-410
-528
-511
-412
-339
-334
-372
-411
-422
-398
-341
-285
-268
-291
-316
-305
-273
-271
-325
-399
-449
-465
-483
-532
-594
-610
-543
-430
-352
-369
-459
-544
-578
-592
-653
-767
-858
-854
-785
-765
-865
-1024
-1107
-1052
-935
-869
-872
-863
-761
-577
-396
-279
-239
-257
-317
-406
-516
-647
-789
-891
-904
-830
-758
-775
-854
-872
-766
-630
-627
-802
-1021
-1123
-1089
-1038
-1075
-1178
-1254
-1257
-1225
-1211
-1200
-1137
-998
-835
-723
-690
-697
-675
-606
-524
-478
-489
-533
-561
-542
-489
-449
-461
-516
-559
-543
-484
-443
-455
-481
-457
-374
-299
-296
-346
-371
-329
-262
-231
-243
-245
-207
-159
-145
-172
-204
-220
-231
-250
-263
-246
-198
-146
-105
-65
-20
8
-4
-46
-80
-87
-89
-114
-159
-188
-192
-196
-232
-298
-356
-380
-392
-450
-580
-739
-852
-872
-845
-860
-944
-1001
-902
-631
-344
-212
-235
-235
-57
257
526
626
608
608
692
805
848
779
617
409
200
26
-107
-227
-355
-455
-471
-410
-360
-377
-408
-353
-223
-164
-281
-502
-649
-660
-667
-822
-1099
-1301
-1281
-1082
-875
-770
-717
-577
-261
140
356
117
-606
-1508
-2157
-2347
-2245
-2163
-2200
-2142
-1728
-955
-112
482
709
656
468
239
0
-240
-459
-621
-689
-661
-595
-571
-626
-717
-789
-842
-933
-1083
-1221
-1239
-1098
-872
-672
-561
-535
-573
-663
-786
-893
-946
-952
-942
-921
-859
-752
-652
-629
-686
-753
-760
-721
-710
-756
-796
-758
-665
-633
-714
-819
-819
-721
-687
-867
-1246
-1662
-1950
-2019
-1851
-1508
-1134
-852
-602
-163
578
1382
1809
1669
1226
888
765
642
364
99
121
428
750
904
1009
1282
1691
1951
1859
1521
1221
1109
1111
1101
1059
1050
1088
1113
1072
996
965
1010
1064
1025
879
735
720
828
903
807
591
464
556
758
832
700
537
555
728
813
639
307
66
16
37
-25
-159
-242
-212
-125
-62
-25
13
35
-5
-83
-111
-63
-17
-40
-91
-77
-1
29
-46
-145
-167
-152
-236
-427
-537
-397
-111
31
-112
-344
-372
-164
14
-76
-382
-635
-648
-483
-338
-333
-429
-499
-465
-366
-319
-394
-536
-597
-492
-306
-215
-273
-341
-232
60
337
412
305
207
269
447
580
579
507
479
524
569
550
498
487
538
603
628
623
636
679
718
726
727
754
784
753
651
562
571
671
755
735
656
634
712
825
889
892
879
868
829
763
743
812
892
846
666
513
531
651
662
469
213
109
186
269
205
23
-131
-181
-175
-181
-196
-170
-77
87
323
628
962
1235
1399
1498
1616
1770
1896
1898
1748
1516
1312
1193
1122
1016
831
615
448
353
283
193
112
116
219
328
331
232
156
209
355
450
400
273
219
302
437
487
414
291
211
191
189
181
197
273
393
495
518
478
442
447
451
356
113
-189
-407
-467
-432
-391
-336
-182
74
285
294
113
-108
-287
-538
-1009
-1627
-2095
-2151
-1816
-1335
-908
-521
-46
568
1213
1709
1934
1868
1584
1204
857
611
447
309
169
58
23
49
77
58
1
-54
-88
-125
-188
-261
-304
-295
-256
-236
-256
-298
-333
-345
-338
-314
-275
-229
-196
-176
-149
-93
-21
26
17
-27
-49
-18
46
105
146
197
276
357
390
363
312
287
308
336
327
282
249
288
403
534
615
630
627
657
719
766
767
738
719
733
758
771
767
753
734
704
659
609
563
532
519
522
525
512
487
462
454
464
489
511
512
487
447
427
452
496
496
413
286
205
221
299
356
347
299
279
328
420
488
482
415
347
320
322
308
275
272
326
395
401
329
257
264
331
356
283
178
151
227
324
351
312
283
310
351
339
263
189
177
212
233
206
161
152
200
282
362
421
464
493
513
536
564
576
544
472
406
391
429
478
507
535
595
685
759
774
731
670
628
616
614
594
545
487
463
498
570
617
603
551
522
547
601
638
644
640
645
656
658
639
601
551
499
452
419
394
366
333
301
272
232
157
49
-52
-121
-177
-260
-377
-469
-473
-403
-344
-338
-304
-121
210
535
703
730
772
932
1136
1210
1057
745
432
251
227
294
353
360
374
493
718
911
928
785
630
533
373
-4
-535
-954
-1083
-1040
-1093
-1323
-1510
-1382
-928
-405
-54
126
301
575
874
1056
1055
914
714
511
328
179
71
-2
-41
-15
107
302
484
564
519
395
262
155
77
14
-51
-117
-157
-138
-47
82
183
204
123
-31
-184
-272
-315
-417
-686
-1109
-1530
-1772
-1779
-1624
-1409
-1202
-1069
-1089
-1278
-1522
-1665
-1669
-1659
-1751
-1869
-1785
-1357
-680
-1
488
750
847
826
699
481
200
-114
-429
-694
-851
-867
-768
-610
-452
-347
-334
-422
-574
-725
-805
-788
-692
-565
-448
-371
-352
-388
-455
-521
-555
-543
-493
-425
-367
-330
-304
-265
-201
-136
-94
-71
-33
41
130
188
200
198
221
268
304
311
310
331
372
400
392
362
340
341
352
357
361
371
382
377
351
320
300
282
244
182
129
120
153
190
203
203
223
261
271
224
147
97
92
85
33
-43
-88
-80
-56
-70
-120
-164
-182
-205
-269
-367
-450
-483
-481
-487
-517
-549
-553
-529
-510
-521
-555
-584
-591
-590
-605
-642
-674
-666
-620
-576
-576
-620
-662
-662
-635
-625
-653
-680
-657
-585
-521
-505
-512
-481
-402
-340
-358
-442
-515
-520
-476
-431
-401
-357
-284
-201
-139
-106
-100
-122
-175
-236
-269
-268
-268
-296
-322
-288
-181
-61
-4
-18
-46
-37
4
33
23
-7
-27
-29
-16
4
23
23
-13
-89
-182
-266
-337
-408
-495
-593
-687
-748
-762
-756
-789
-898
-1056
-1183
-1231
-1226
-1220
-1207
-1106
-863
-523
-195
46
214
357
487
580
621
603
525
397
266
194
193
194
128
15
-58
-65
-79
-164
-269
-285
-205
-158
-235
-344
-314
-130
27
-23
-241
-417
-410
-292
-240
-320
-434
-467
-407
-341
-340
-389
-432
-438
-418
-403
-416
-457
-504
-532
-532
-520
-518
-526
-522
-501
-485
-493
-509
-499
-463
-444
-469
-503
-489
-438
-425
-496
-603
-655
-631
-604
-634
-682
-663
-578
-521
-565
-666
-719
-697
-679
-733
-822
-855
-811
-763
-780
-840
-864
-831
-803
-841
-929
-997
-1020
-1041
-1087
-1122
-1090
-1017
-990
-1038
-1074
-997
-843
-773
-884
-1078
-1162
-1072
-931
-880
-914
-905
-785
-621
-515
-478
-446
-387
-345
-367
-431
-470
-463
-444
-438
-419
-360
-281
-225
-200
-173
-127
-85
-73
-65
-19
62
131
158
175
216
258
242
165
103
119
185
212
163
104
116
194
261
254
185
113
84
93
112
117
96
49
5
5
65
147
186
154
95
72
98
127
107
45
-16
-48
-65
-96
-140
-173
-188
-207
-249
-303
-344
-363
-373
-392
-420
-449
-479
-509
-537
-555
-556
-546
-539
-543
-546
-532
-502
-475
-470
-482
-505
-535
-575
-621
-658
-669
-649
-610
-566
-534
-514
-493
-456
-396
-333
-297
-298
-305
-279
-226
-183
-174
-174
-150
-103
-68
-62
-59
-23
41
97
124
140
170
217
260
285
294
298
290
269
236
197
157
129
125
147
177
193
201
224
279
348
390
375
316
244
179
127
83
47
8
-50
-116
-161
-162
-148
-175
-271
-408
-537
-634
-716
-805
-910
-1025
-1138
-1233
-1286
-1286
-1234
-1134
-967
-720
-423
-153
33
155
289
476
673
783
753
625
489
399
333
232
73
-100
-231
-320
-413
-530
-616
-602
-498
-415
-443
-540
-578
-484
-335
-272
-351
-492
-578
-573
-531
-522
-552
-577
-571
-553
-562
-599
-625
-606
-557
-530
-555
-607
-641
-652
-668
-708
-743
-728
-664
-610
-623
-701
-781
-809
-783
-747
-742
-780
-838
-876
-865
-813
-765
-768
-828
-904
-947
-949
-940
-952
-990
-1025
-1039
-1038
-1041
-1061
-1097
-1152
-1226
-1307
-1372
-1411
-1435
-1461
-1473
-1441
-1362
-1283
-1257
-1281
-1328
-1422
-1667
-2132
-2720
-3187
-3355
-3261
-3076
-2890
-2606
-2084
-1359
-649
-169
44
91
67
-23
-191
-396
-569
-692
-790
-858
-828
-663
-447
-329
-373
-487
-545
-532
-547
-648
-751
-739
-607
-478
-465
-560
-671
-735
-745
-724
-687
-647
-620
-592
-527
-421
-332
-318
-347
-340
-273
-219
-261
-376
-462
-466
-434
-433
-458
-439
-350
-240
-174
-161
-159
-138
-114
-111
-126
-135
-121
-95
-89
-131
-224
-330
-395
-396
-363
-358
-401
-443
-416
-315
-204
-146
-122
-76
-4
32
-15
-93
-98
-1
101
105
31
2
86
211
260
219
193
273
417
505
469
367
308
331
393
433
436
445
505
630
789
931
1012
1027
1016
1028
1071
1098
1055
950
859
852
929
1028
1094
1131
1173
1235
1311
1399
1491
1557
1564
1513
1458
1449
1469
1454
1370
1255
1171
1137
1130
1136
1171
1246
1313
1300
1188
1057
1021
1098
1170
1085
847
668
748
1035
1227
1068
636
261
166
233
177
-108
-440
-573
-479
-345
-343
-466
-593
-643
-634
-619
-602
-522
-312
43
478
869
1117
1234
1321
1458
1594
1592
1379
1048
783
693
716
710
615
491
420
405
380
302
203
142
139
168
198
223
240
243
233
242
297
376
417
387
329
317
370
421
391
279
167
139
187
246
281
320
392
470
494
446
394
402
445
452
395
325
297
301
300
296
330
389
404
350
307
376
521
584
472
282
194
260
350
315
172
63
85
183
239
214
164
147
147
120
69
33
26
10
-43
-100
-107
-73
-65
-108
-146
-114
-47
-55
-181
-328
-370
-307
-253
-295
-386
-431
-404
-349
-302
-250
-198
-191
-248
-309
-293
-204
-135
-142
-179
-162
-83
-4
26
27
45
77
94
88
83
110
163
213
240
241
229
211
192
168
141
112
93
86
89
100
126
166
203
211
192
179
195
214
176
69
-41
-81
-50
-15
-28
-63
-64
-25
7
0
-17
-3
27
8
-83
-192
-243
-230
-216
-241
-275
-286
-287
-303
-325
-313
-273
-269
-332
-419
-466
-463
-438
-387
-279
-152
-125
-263
-446
-466
-283
-96
-130
-360
-535
-463
-221
-51
-66
-161
-176
-101
-50
-91
-163
-168
-120
-122
-201
-269
-236
-127
-66
-123
-227
-268
-228
-190
-214
-258
-242
-161
-100
-102
-118
-84
-21
-16
-91
-157
-121
-11
46
-13
-97
-63
101
258
277
191
141
205
309
334
265
192
196
255
291
271
230
207
198
178
151
132
126
111
73
37
32
53
63
20
-89
-240
-383
-479
-543
-621
-745
-897
-1028
-1110
-1163
-1219
-1278
-1316
-1315
-1272
-1167
-952
-611
-210
132
346
482
647
886
1122
1231
1166
998
847
769
727
665
570
478
408
341
255
179
163
206
235
178
49
-67
-123
-165
-268
-435
-575
-618
-593
-585
-615
-613
-510
-338
-198
-143
-120
-61
21
48
-1
-76
-146
-289
-590
-995
-1302
-1361
-1226
-1071
-982
-893
-738
-586
-570
-717
-906
-1016
-1051
-1090
-1147
-1132
-950
-618
-252
31
187
228
183
72
-82
-249
-391
-489
-550
-593
-622
-622
-581
-531
-539
-645
-823
-995
-1101
-1141
-1151
-1152
-1150
-1150
-1172
-1236
-1333
-1425
-1471
-1465
-1440
-1445
-1500
-1592
-1723
-1952
-2349
-2888
-3413
-3723
-3730
-3508
-3177
-2771
-2229
-1527
-768
-135
255
409
399
273
46
-241
-498
-652
-701
-702
-686
-628
-513
-394
-351
-408
-501
-558
-578
-611
-663
-664
-565
-431
-389
-499
-674
-778
-779
-759
-797
-859
-848
-729
-571
-472
-456
-471
-467
-454
-466
-516
-574
-615
-638
-659
-673
-674
-668
-667
-674
-675
-664
-654
-666
-704
-742
-756
-752
-753
-780
-832
-884
-909
-902
-883
-882
-907
-938
-951
-939
-916
-895
-880
-868
-855
-831
-795
-764
-772
-832
-913
-952
-928
-881
-875
-926
-983
-987
-932
-865
-841
-867
-916
-959
-993
-1035
-1103
-1197
-1283
-1319
-1285
-1195
-1097
-1035
-1000
-934
-785
-584
-456
-510
-725
-930
-958
-807
-640
-605
-663
-636
-419
-102
133
210
210
228
242
152
-49
-228
-251
-130
-11
4
-41
-23
105
274
378
374
297
206
145
141
187
252
288
278
252
256
297
344
371
392
429
465
456
385
288
222
190
129
-26
-259
-482
-628
-723
-842
-1008
-1154
-1206
-1166
-1102
-1045
-946
-736
-432
-135
63
162
239
365
545
735
874
924
898
858
873
961
1068
1108
1033
860
648
464
350
307
288
223
88
-57
-116
-53
65
140
133
74
3
-72
-153
-214
-228
-215
-227
-286
-340
-318
-208
-68
33
72
67
42
15
9
30
39
-11
-109
-181
-165
-101
-89
-171
-272
-292
-228
-175
-204
-282
-325
-312
-302
-344
-415
-452
-443
-434
-461
-502
-506
-462
-406
-387
-412
-453
-486
-510
-538
-578
-621
-659
-691
-728
-773
-818
-847
-858
-869
-893
-919
-928
-914
-899
-900
-907
-894
-862
-849
-882
-937
-960
-929
-882
-874
-907
-930
-902
-831
-752
-676
-584
-468
-357
-288
-256
-221
-157
-86
-54
-73
-104
-104
-53
24
90
128
152
192
257
321
344
327
317
355
422
451
401
321
289
333
399
420
387
352
360
408
456
474
458
427
401
386
374
361
358
393
459
519
530
489
442
432
450
456
424
368
316
295
304
330
361
385
396
382
334
269
229
249
310
332
243
69
-68
-81
-13
-4
-136
-332
-434
-374
-244
-180
-211
-249
-228
-197
-256
-417
-588
-695
-763
-842
-907
-877
-741
-599
-549
-554
-492
-340
-224
-268
-426
-518
-438
-283
-213
-254
-272
-164
16
106
35
-88
-112
-25
45
0
-90
-72
100
300
375
320
267
313
410
444
373
275
246
301
379
427
438
432
434
459
500
531
515
448
373
336
338
341
322
300
296
295
262
199
165
195
234
164
-79
-417
-687
-777
-717
-618
-555
-511
-409
-194
102
365
469
362
105
-171
-363
-448
-458
-405
-273
-59
204
467
713
951
1176
1353
1436
1398
1250
1048
885
832
873
900
818
650
510
471
481
448
365
325
389
496
529
465
396
414
498
553
520
441
391
401
439
463
462
449
431
407
380
367
375
392
405
413
415
394
319
199
97
93
193
324
394
390
394
488
648
763
745
631
532
500
483
411
309
283
387
533
581
500
392
353
347
269
102
-36
-22
128
284
354
374
432
532
594
542
395
236
131
78
46
23
30
77
141
180
170
127
84
44
-10
-74
-109
-76
6
91
160
242
352
436
419
297
166
128
174
196
124
6
-53
-25
20
20
3
32
81
35
-180
-484
-696
-709
-577
-417
-265
-58
276
710
1142
1464
1628
1640
1551
1426
1310
1205
1085
942
817
756
766
806
836
845
836
810
757
681
601
536
500
501
529
555
543
482
402
343
315
303
291
294
331
383
402
361
282
203
150
119
83
17
-75
-153
-150
-46
85
109
-67
-403
-751
-953
-959
-851
-793
-928
-1247
-1567
-1650
-1422
-1062
-839
-834
-864
-691
-280
171
448
515
460
352
201
16
-142
-224
-253
-275
-297
-293
-246
-151
-17
83
-34
-554
-1449
-2398
-3001
-3112
-2900
-2589
-2213
-1642
-821
109
932
1504
1790
1791
1554
1210
917
729
557
315
58
-49
71
296
447
454
386
331
293
228
123
24
-8
54
180
303
360
327
239
151
103
93
110
154
214
239
168
2
-178
-286
-325
-367
-452
-544
-595
-623
-681
-768
-821
-798
-745
-734
-740
-647
-390
-45
242
409
519
673
902
1152
1346
1426
1382
1262
1152
1101
1068
963
764
577
511
537
520
391
244
231
370
512
528
446
411
505
663
750
696
555
453
457
526
561
511
423
373
372
358
289
217
239
361
459
404
214
56
64
197
276
183
-12
-123
-53
90
118
-33
-242
-344
-320
-292
-371
-532
-665
-703
-672
-633
-612
-606
-617
-649
-701
-766
-850
-956
-1055
-1105
-1115
-1150
-1239
-1331
-1351
-1300
-1266
-1317
-1412
-1470
-1464
-1433
-1397
-1327
-1219
-1145
-1183
-1305
-1382
-1329
-1216
-1185
-1281
-1398
-1407
-1296
-1162
-1095
-1092
-1093
-1066
-1022
-980
-934
-868
-788
-716
-669
-639
-604
-545
-470
-408
-380
-377
-367
-318
-238
-165
-130
-123
-102
-43
37
93
110
111
137
200
265
287
270
256
272
298
289
238
189
190
235
273
270
242
229
240
251
235
198
168
159
159
156
143
126
110
97
86
71
53
36
19
-3
-27
-42
-33
-16
-26
-75
-125
-126
-85
-72
-139
-254
-325
-313
-273
-289
-379
-481
-528
-517
-495
-509
-565
-636
-685
-692
-668
-649
-661
-699
-737
-760
-774
-780
-770
-741
-725
-757
-830
-889
-896
-883
-910
-995
-1087
-1129
-1122
-1117
-1134
-1150
-1136
-1091
-1042
-1002
-968
-936
-910
-880
-824
-733
-630
-565
-564
-598
-600
-506
-280
75
517
957
1268
1355
1255
1143
1197
1421
1614
1564
1279
999
956
1130
1260
1110
673
128
-357
-758
-1142
-1530
-1868
-2094
-2205
-2234
-2197
-2082
-1878
-1626
-1405
-1280
-1251
-1234
-1150
-999
-833
-705
-618
-569
-583
-677
-779
-753
-535
-231
-19
15
-43
-73
-61
-100
-242
-393
-388
-162
190
507
705
831
983
1184
1349
1354
1164
868
614
483
437
398
347
342
431
564
644
632
580
552
545
500
395
293
274
334
398
400
350
313
315
332
333
336
377
449
488
443
339
252
240
284
313
286
223
179
184
211
214
182
157
180
246
303
306
266
232
234
245
222
162
104
82
80
74
67
88
141
186
183
142
117
136
170
170
126
68
25
0
-17
-24
-27
-41
-85
-147
-201
-233
-252
-270
-287
-302
-324
-358
-394
-419
-434
-463
-516
-574
-604
-607
-613
-633
-649
-641
-627
-641
-685
-716
-696
-642
-606
-618
-647
-650
-621
-603
-622
-659
-664
-622
-564
-527
-515
-501
-459
-395
-334
-298
-288
-292
-292
-277
-252
-235
-240
-269
-305
-333
-348
-351
-337
-303
-257
-219
-200
-187
-170
-168
-209
-290
-357
-361
-320
-296
-298
-255
-102
94
155
-37
-394
-694
-789
-734
-690
-720
-727
-577
-255
117
405
558
601
563
463
321
186
102
75
77
79
86
118
178
238
252
196
85
-38
-139
-211
-257
-273
-253
-218
-216
-300
-464
-643
-772
-841
-890
-949
-1001
-1019
-1001
-970
-933
-872
-789
-724
-709
-727
-745
-781
-904
-1136
-1388
-1547
-1600
-1641
-1736
-1810
-1720
-1443
-1124
-918
-826
-726
-554
-397
-372
-475
-593
-671
-788
-1051
-1428
-1741
-1838
-1736
-1568
-1437
-1313
-1115
-812
-460
-154
37
102
74
6
-73
-160
-265
-357
-376
-297
-162
-37
54
136
221
272
253
173
78
-8
-86
-132
-104
-22
-10
-195
-554
-911
-1110
-1165
-1207
-1297
-1345
-1228
-948
-634
-395
-242
-152
-136
-227
-394
-560
-680
-779
-865
-863
-663
-261
200
557
762
891
1022
1165
1264
1271
1181
1025
866
777
773
796
752
610
433
305
240
194
148
133
178
249
285
277
293
396
558
682
694
612
521
495
546
619
648
613
556
535
570
626
661
669
675
690
701
706
721
761
808
822
797
778
797
829
814
736
649
609
611
614
602
611
657
701
686
618
565
568
589
551
444
334
296
332
386
414
416
418
429
437
424
388
332
258
174
92
22
-34
-78
-107
-114
-102
-91
-98
-115
-128
-137
-169
-241
-340
-422
-463
-481
-515
-567
-606
-605
-585
-578
-586
-582
-553
-526
-529
-553
-562
-548
-547
-581
-627
-637
-601
-560
-546
-542
-516
-464
-413
-383
-352
-297
-231
-191
-195
-214
-211
-178
-127
-82
-57
-54
-69
-73
-32
52
135
172
175
191
252
331
371
359
333
339
382
414
397
333
275
266
296
309
264
192
168
223
285
262
142
30
29
117
166
89
-59
-142
-90
31
103
77
-5
-72
-93
-87
-78
-85
-121
-182
-244
-273
-264
-242
-240
-251
-250
-225
-196
-183
-180
-165
-138
-118
-121
-133
-136
-142
-169
-204
-210
-169
-117
-104
-134
-153
-122
-66
-47
-91
-152
-170
-132
-72
-11
75
202
326
374
335
283
301
378
419
363
262
229
314
452
549
576
578
605
661
707
732
750
769
769
721
638
575
580
653
749
813
818
777
735
756
870
1015
1060
927
707
591
674
830
837
640
426
413
587
722
647
432
280
273
302
223
41
-113
-165
-195
-310
-497
-636
-644
-574
-532
-521
-432
-161
258
678
991
1203
1383
1562
1720
1831
1891
1886
1787
1598
1378
1201
1094
1013
906
770
638
527
424
332
284
303
353
360
295
220
225
334
471
529
471
362
315
381
517
632
674
654
619
607
623
643
645
612
558
514
500
503
484
427
367
361
406
442
420
361
338
390
473
516
503
491
525
578
586
520
431
382
391
412
400
358
332
348
380
383
342
292
268
264
253
227
214
231
252
247
219
205
221
222
154
32
-65
-71
-12
22
-36
-148
-203
-126
37
149
115
-23
-127
-100
20
107
78
-28
-100
-61
65
205
301
338
336
325
332
365
404
424
415
396
402
439
491
533
560
584
621
672
717
741
750
764
794
828
848
848
843
848
864
881
896
914
939
965
977
971
957
947
942
931
913
900
898
896
875
843
832
852
875
857
793
726
704
730
760
756
719
678
662
680
720
754
753
709
644
595
587
618
659
680
669
642
632
658
704
727
689
602
521
490
496
491
447
386
350
355
386
416
435
437
422
407
419
459
489
457
370
292
283
324
335
268
166
107
121
165
187
182
183
205
230
238
236
246
279
322
369
423
480
531
569
604
651
707
748
751
726
709
723
759
785
787
781
793
824
852
863
872
892
921
934
922
914
944
1005
1056
1060
1031
1019
1053
1100
1105
1053
990
973
1000
1016
969
880
823
838
897
931
907
846
785
728
660
572
471
355
219
74
-54
-149
-216
-276
-326
-348
-343
-311
-221
-25
279
603
832
928
965
1062
1260
1490
1614
1572
1429
1320
1308
1337
1322
1265
1233
1211
1059
677
176
-233
-511
-877
-1539
-2365
-2933
-2920
-2399
-1704
-1059
-421
344
1232
2072
2663
2884
2722
2256
1644
1067
634
351
195
186
371
717
1092
1370
1513
1555
1529
1416
1192
888
595
383
258
195
182
199
204
163
115
150
281
391
346
191
126
267
467
464
209
-40
-33
170
299
221
85
94
246
387
437
444
435
367
251
215
359
576
639
485
297
267
374
469
500
533
576
529
359
216
259
421
462
268
-1
-103
14
200
294
292
273
267
266
306
436
625
745
688
496
350
413
661
895
924
766
636
703
891
978
867
725
777
1023
1230
1206
1037
964
1081
1232
1222
1052
905
915
1029
1093
1047
972
964
1022
1055
1010
930
900
931
944
891
825
822
878
896
832
784
874
1051
1109
949
731
708
906
1075
977
667
418
393
480
474
322
162
130
200
252
229
182
185
246
297
287
234
192
171
125
31
-70
-108
-93
-125
-257
-385
-358
-177
-22
-49
-195
-257
-144
12
31
-102
-239
-260
-187
-111
-76
-62
-51
-53
-74
-96
-104
-109
-127
-150
-150
-124
-82
-14
81
171
214
214
232
300
385
427
432
481
614
747
771
701
674
772
908
915
765
620
642
799
921
914
865
905
1031
1125
1115
1063
1062
1117
1150
1117
1064
1050
1069
1082
1078
1075
1086
1100
1103
1105
1127
1168
1199
1191
1150
1104
1071
1055
1040
996
910
801
709
652
604
522
395
263
166
87
-22
-165
-280
-304
-246
-177
-132
-51
154
480
815
1025
1084
1079
1121
1246
1407
1522
1543
1493
1438
1433
1479
1529
1528
1461
1343
1203
1063
952
897
893
904
886
817
719
647
648
713
761
702
549
440
513
730
884
824
623
494
533
613
567
396
260
275
392
495
545
589
648
681
658
611
590
585
546
454
355
304
304
325
356
403
462
500
495
468
459
483
508
497
448
401
388
408
429
429
413
403
408
408
373
295
201
133
111
111
85
19
-42
-48
-2
30
-3
-71
-98
-45
33
47
-15
-78
-68
2
46
15
-48
-60
-8
44
35
-16
-35
19
105
161
177
193
241
300
336
350
378
441
515
560
569
577
620
697
769
807
823
850
904
963
990
982
974
998
1041
1062
1045
1026
1049
1111
1160
1153
1105
1060
1036
1011
953
862
759
660
575
523
529
595
681
746
790
840
910
971
985
952
907
873
839
790
740
715
708
697
672
651
644
634
605
583
591
608
587
536
526
557
471
73
-618
-1305
-1651
-1608
-1429
-1350
-1317
-1062
-432
409
1134
1536
1655
1645
1585
1448
1213
933
697
542
443
377
360
419
538
643
659
568
400
217
76
17
38
97
132
110
54
3
-25
-41
-52
-46
-13
32
58
44
12
-1
29
82
107
77
33
40
94
65
-215
-767
-1384
-1781
-1838
-1688
-1534
-1410
-1153
-618
129
842
1316
1531
1589
1556
1416
1151
820
528
339
241
197
191
233
308
362
344
253
128
3
-118
-238
-342
-393
-384
-365
-409
-554
-756
-927
-1021
-1086
-1219
-1454
-1709
-1858
-1862
-1793
-1738
-1671
-1464
-1030
-439
117
489
676
799
962
1147
1238
1128
838
508
290
211
175
76
-81
-201
-233
-226
-270
-371
-455
-481
-507
-612
-769
-870
-851
-786
-807
-958
-1157
-1296
-1343
-1346
-1370
-1446
-1560
-1678
-1764
-1785
-1741
-1668
-1585
-1473
-1292
-1052
-825
-692
-667
-707
-774
-867
-991
-1116
-1207
-1262
-1311
-1363
-1379
-1322
-1226
-1173
-1201
-1264
-1288
-1259
-1228
-1226
-1216
-1144
-1001
-847
-743
-697
-674
-650
-638
-664
-726
-785
-798
-756
-694
-660
-678
-732
-784
-827
-889
-989
-1098
-1156
-1137
-1079
-1048
-1073
-1121
-1143
-1125
-1094
-1094
-1140
-1216
-1290
-1332
-1337
-1319
-1309
-1327
-1362
-1379
-1358
-1313
-1278
-1280
-1297
-1292
-1250
-1198
-1185
-1215
-1231
-1171
-1049
-951
-939
-976
-968
-873
-760
-714
-748
-781
-742
-644
-547
-480
-419
-347
-294
-305
-378
-455
-486
-483
-508
-590
-685
-704
-608
-458
-358
-363
-431
-479
-475
-458
-485
-569
-673
-756
-801
-806
-777
-739
-728
-759
-802
-817
-805
-813
-875
-964
-1019
-1012
-975
-973
-1037
-1143
-1238
-1294
-1323
-1363
-1444
-1549
-1639
-1691
-1727
-1772
-1823
-1851
-1855
-1872
-1926
-1960
-1896
-1757
-1675
-1751
-1925
-2022
-1964
-1866
-1896
-2059
-2196
-2176
-2055
-1984
-2024
-2090
-2086
-2021
-1985
-2019
-2068
-2069
-2026
-2002
-2026
-2061
-2054
-1993
-1913
-1859
-1847
-1860
-1869
-1862
-1846
-1822
-1784
-1726
-1671
-1657
-1683
-1697
-1657
-1584
-1543
-1557
-1564
-1496
-1370
-1284
-1299
-1376
-1424
-1412
-1399
-1449
-1546
-1611
-1589
-1510
-1452
-1460
-1507
-1527
-1484
-1411
-1371
-1395
-1461
-1518
-1537
-1527
-1506
-1476
-1437
-1409
-1416
-1470
-1543
-1605
-1661
-1745
-1863
-1976
-2039
-2055
-2071
-2117
-2165
-2169
-2129
-2088
-2047
-1933
-1657
-1239
-824
-557
-447
-368
-201
43
230
233
38
-248
-488
-612
-661
-736
-897
-1106
-1282
-1401
-1506
-1622
-1713
-1718
-1646
-1587
-1615
-1686
-1689
-1575
-1416
-1347
-1439
-1633
-1785
-1782
-1631
-1462
-1419
-1538
-1711
-1796
-1761
-1704
-1741
-1865
-1969
-1971
-1908
-1878
-1906
-1920
-1850
-1735
-1674
-1709
-1762
-1734
-1643
-1602
-1682
-1819
-1881
-1831
-1779
-1846
-2003
-2097
-2030
-1879
-1803
-1862
-1952
-1947
-1854
-1800
-1872
-2025
-2148
-2195
-2210
-2239
-2269
-2255
-2204
-2166
-2158
-2148
-2112
-2096
-2161
-2293
-2397
-2400
-2332
-2290
-2333
-2425
-2481
-2445
-2329
-2192
-2098
-2072
-2085
-2071
-1988
-1854
-1731
-1684
-1722
-1799
-1852
-1838
-1776
-1725
-1744
-1827
-1907
-1914
-1844
-1756
-1705
-1696
-1687
-1643
-1564
-1481
-1417
-1367
-1293
-1163
-995
-855
-816
-866
-915
-878
-773
-693
-701
-749
-737
-630
-489
-395
-356
-318
-253
-203
-224
-302
-357
-330
-258
-228
-270
-328
-331
-279
-235
-236
-261
-274
-274
-292
-320
-312
-235
-127
-60
-61
-94
-116
-128
-160
-227
-298
-337
-344
-351
-377
-396
-367
-287
-207
-185
-226
-270
-264
-216
-184
-210
-278
-342
-382
-407
-431
-455
-471
-481
-491
-493
-474
-442
-429
-459
-522
-581
-610
-611
-612
-634
-674
-705
-697
-648
-575
-503
-446
-409
-398
-420
-460
-486
-488
-495
-533
-569
-542
-433
-305
-233
-207
-144
0
141
162
51
-68
-73
24
93
51
-55
-110
-55
56
125
103
25
-48
-78
-72
-61
-71
-92
-95
-66
-27
-16
-49
-103
-140
-153
-162
-184
-219
-263
-316
-377
-430
-465
-487
-516
-569
-647
-734
-812
-860
-866
-840
-806
-774
-712
-556
-281
62
377
595
727
837
980
1137
1238
1218
1087
917
782
697
629
556
494
457
429
382
324
306
351
414
423
359
289
282
338
405
443
458
466
460
426
381
359
369
377
336
242
148
115
153
227
288
311
302
283
267
262
266
270
259
231
200
178
167
154
125
88
59
45
34
9
-32
-80
-119
-140
-149
-165
-207
-265
-306
-309
-289
-289
-333
-397
-429
-401
-335
-284
-280
-311
-341
-351
-353
-377
-440
-528
-622
-707
-774
-809
-794
-743
-705
-727
-798
-848
-818
-732
-674
-698
-774
-822
-805
-758
-733
-745
-782
-837
-916
-1001
-1041
-1007
-936
-884
-856
-790
-630
-412
-237
-175
-209
-266
-308
-355
-456
-605
-723
-717
-559
-310
-50
191
437
681
857
920
901
867
766
429
-224
-1010
-1586
-1772
-1700
-1611
-1555
-1358
-864
-146
567
1110
1471
1685
1738
1610
1356
1090
887
733
592
468
402
421
523
677
827
892
797
556
290
139
141
200
187
83
-36
-103
-125
-140
-143
-85
49
214
368
505
629
679
549
202
-268
-688
-932
-976
-864
-667
-437
-189
117
522
958
1245
1220
905
516
258
139
14
-199
-410
-453
-284
-51
50
-75
-371
-707
-977
-1133
-1162
-1074
-885
-603
-211
301
869
1319
1452
1192
652
49
-468
-871
-1178
-1355
-1311
-1005
-489
131
768
1351
1785
1962
1850
1532
1141
762
412
107
-100
-173
-144
-102
-99
-114
-106
-90
-127
-250
-422
-566
-656
-729
-835
-964
-1075
-1171
-1291
-1459
-1637
-1754
-1778
-1735
-1679
-1643
-1628
-1608
-1515
-1288
-962
-681
-585
-658
-733
-657
-455
-284
-241
-279
-306
-326
-427
-667
-995
-1316
-1583
-1795
-1939
-1965
-1821
-1514
-1114
-702
-343
-83
50
61
-13
-127
-254
-387
-518
-622
-650
-577
-420
-243
-116
-79
-133
-234
-323
-355
-325
-274
-244
-236
-223
-188
-156
-158
-199
-249
-280
-280
-249
-195
-136
-113
-157
-250
-333
-354
-315
-266
-253
-290
-359
-418
-427
-390
-355
-371
-427
-465
-448
-399
-371
-372
-377
-404
-534
-820
-1195
-1510
-1682
-1753
-1794
-1782
-1619
-1265
-787
-301
132
495
751
839
747
543
323
126
-62
-249
-390
-432
-375
-272
-189
-154
-162
-202
-260
-325
-382
-416
-419
-393
-344
-285
-234
-213
-231
-278
-325
-344
-333
-322
-331
-344
-291
-95
249
644
947
1073
1052
975
887
732
438
35
-343
-582
-694
-738
-679
-371
244
976
1513
1721
1780
1961
2294
2509
2330
1755
1044
454
49
-255
-542
-820
-1053
-1208
-1257
-1177
-990
-777
-619
-539
-506
-502
-543
-623
-672
-604
-421
-224
-119
-108
-97
0
165
286
282
196
141
176
246
271
258
280
343
321
129
-64
98
794
1749
2421
2520
2266
2086
2105
2012
1447
434
-619
-1318
-1594
-1624
-1555
-1370
-1013
-548
-135
122
257
374
502
559
457
246
106
176
407
628
734
762
791
816
773
682
670
825
1054
1176
1120
996
951
987
993
917
843
884
1039
1193
1254
1240
1227
1249
1258
1203
1109
1049
1062
1100
1096
1060
1072
1198
1389
1516
1501
1376
1229
1089
913
683
462
328
298
319
345
373
405
405
332
187
9
-160
-288
-335
-252
-26
300
674
1073
1492
1885
2166
2284
2263
2143
1922
1579
1162
793
572
482
428
364
323
333
352
315
238
216
290
371
337
190
72
94
205
251
162
29
-20
32
92
104
120
213
354
439
426
385
396
441
427
317
180
114
132
167
163
140
145
174
181
129
38
-40
-79
-89
-94
-102
-106
-96
-72
-46
-31
-44
-87
-143
-178
-166
-117
-75
-89
-173
-293
-394
-433
-416
-391
-401
-442
-451
-367
-191
-11
70
22
-86
-152
-144
-118
-142
-215
-269
-250
-186
-153
-185
-242
-265
-246
-242
-308
-426
-523
-538
-480
-411
-395
-466
-614
-794
-944
-1021
-1035
-1038
-1060
-1063
-970
-750
-463
-203
-16
120
236
315
323
257
174
127
115
82
-6
-118
-190
-186
-140
-130
-203
-320
-390
-354
-246
-171
-203
-300
-357
-327
-272
-281
-366
-456
-486
-459
-413
-362
-296
-230
-205
-246
-342
-478
-654
-851
-997
-1017
-918
-796
-721
-662
-542
-367
-246
-271
-407
-535
-580
-550
-482
-388
-268
-142
-47
9
39
35
-40
-193
-372
-504
-575
-616
-648
-641
-557
-418
-304
-277
-339
-440
-544
-643
-727
-778
-786
-773
-771
-786
-790
-759
-697
-620
-537
-446
-361
-315
-325
-361
-374
-345
-311
-322
-374
-408
-359
-226
-70
46
109
161
239
338
406
402
333
255
221
241
283
308
316
343
410
495
555
568
547
515
482
447
416
397
385
353
287
216
183
194
201
144
23
-109
-211
-289
-387
-521
-659
-753
-796
-835
-915
-1024
-1089
-1069
-1018
-1026
-1078
-1015
-689
-173
258
416
413
535
887
1242
1291
985
571
300
175
40
-181
-395
-487
-479
-481
-550
-638
-677
-669
-668
-715
-804
-900
-965
-974
-923
-838
-769
-757
-795
-843
-866
-853
-823
-812
-838
-899
-959
-981
-959
-912
-875
-863
-863
-853
-819
-765
-714
-690
-709
-763
-812
-823
-805
-797
-826
-858
-836
-748
-661
-649
-694
-697
-585
-416
-323
-377
-514
-610
-621
-615
-670
-797
-940
-1044
-1079
-1030
-924
-844
-879
-1018
-1141
-1136
-1034
-971
-1039
-1181
-1268
-1245
-1158
-1070
-1012
-989
-1014
-1084
-1149
-1163
-1151
-1185
-1282
-1355
-1308
-1165
-1053
-1049
-1085
-1036
-884
-744
-737
-842
-917
-862
-723
-635
-672
-770
-809
-729
-572
-430
-365
-377
-414
-419
-360
-255
-158
-115
-126
-138
-99
3
119
180
134
-23
-245
-454
-603
-720
-805
-793
-654
-430
-150
207
638
987
1044
793
504
428
450
119
-900
-2425
-3876
-4728
-4867
-4608
-4374
-4352
-4313
-3741
-2295
-234
1674
2797
3177
3370
3823
4422
4709
4417
3647
2664
1742
1116
933
1129
1352
1265
933
697
605
212
-936
-2669
-4213
-4948
-4888
-4409
-3721
-2741
-1413
110
1677
3231
4520
4875
3666
1109
-1635
-3382
-3894
-3784
-3573
-3148
-2114
-441
1425
3027
4150
4659
4368
3273
1782
526
-140
-325
-358
-418
-478
-439
-254
16
284
447
432
285
130
43
17
22
65
164
298
402
411
286
50
-177
-192
90
462
583
352
77
115
416
572
363
109
301
958
1548
1590
1205
926
1016
1186
981
340
-347
-665
-573
-358
-304
-446
-608
-632
-511
-364
-289
-257
-157
78
438
850
1229
1509
1658
1688
1664
1639
1591
1450
1220
1007
916
967
1100
1234
1325
1359
1323
1245
1153
1017
803
542
366
392
548
651
632
597
642
688
606
444
369
368
146
-521
-1383
-1873
-1727
-1258
-940
-839
-601
23
838
1444
1692
1739
1703
1486
994
370
-106
-300
-351
-474
-672
-775
-628
-255
174
492
612
548
386
222
102
-6
-156
-357
-564
-719
-793
-807
-806
-812
-812
-788
-756
-744
-791
-910
-1071
-1212
-1261
-1171
-965
-740
-590
-523
-470
-391
-320
-329
-426
-542
-599
-569
-460
-288
-97
34
45
-43
-160
-289
-502
-869
-1323
-1703
-1910
-1983
-2010
-2001
-1905
-1720
-1524
-1388
-1306
-1240
-1196
-1197
-1211
-1180
-1113
-1112
-1235
-1377
-1368
-1176
-978
-969
-1127
-1233
-1105
-782
-463
-290
-258
-279
-298
-306
-319
-357
-429
-519
-563
-495
-328
-174
-147
-244
-355
-413
-476
-642
-907
-1120
-1123
-941
-755
-723
-813
-836
-651
-321
-84
-105
-284
-346
-114
298
614
698
665
699
787
752
490
128
-132
-262
-404
-645
-869
-908
-757
-602
-617
-787
-954
-1012
-1003
-1018
-1074
-1113
-1079
-980
-862
-747
-623
-483
-362
-294
-281
-301
-338
-393
-456
-496
-486
-439
-390
-336
-236
-82
66
141
163
219
356
508
577
549
498
480
494
523
566
612
608
513
394
385
527
688
712
601
512
559
670
695
622
578
620
623
424
71
-185
-161
60
231
254
273
453
744
956
1008
998
1021
1005
822
516
269
153
20
-305
-753
-1070
-1149
-1197
-1480
-1976
-2369
-2383
-2070
-1700
-1432
-1153
-644
141
980
1542
1722
1694
1689
1745
1720
1561
1387
1290
1159
879
622
716
1035
797
-728
-3243
-5448
-6252
-5819
-5213
-5052
-4817
-3572
-1154
1591
3638
4613
4784
4504
3908
3043
2080
1269
755
532
517
664
916
1222
1527
1732
1715
1410
905
390
22
-145
-115
96
417
660
579
81
-644
-1249
-1484
-1343
-1007
-652
-331
2
388
798
1111
1212
1101
893
717
587
409
107
-301
-768
-1293
-1858
-2341
-2526
-2295
-1760
-1160
-618
-55
654
1460
2148
2532
2576
2345
1910
1339
773
393
272
297
316
294
308
394
447
349
141
-12
-36
-28
-111
-252
-295
-201
-147
-335
-727
-1046
-1061
-826
-574
-404
-171
276
834
1210
1253
1152
1206
1453
1580
1255
530
-136
-297
46
469
570
406
414
898
1620
1983
1656
889
175
-364
-1072
-2172
-3281
-3681
-3096
-2002
-1038
-291
667
2062
3468
4197
4024
3343
2638
2034
1412
787
354
210
200
153
106
152
152
-205
-1006
-1856
-2229
-2036
-1718
-1673
-1754
-1487
-724
35
141
-486
-1299
-1703
-1637
-1484
-1525
-1619
-1427
-868
-243
35
-202
-801
-1476
-2021
-2374
-2548
-2554
-2387
-2024
-1446
-680
137
733
830
387
-302
-845
-1081
-1156
-1272
-1372
-1196
-627
83
525
504
165
-223
-524
-760
-927
-936
-718
-339
60
398
698
992
1208
1211
960
586
301
214
245
238
141
57
88
211
314
333
324
384
521
643
684
675
681
706
687
592
466
362
264
106
-106
-286
-350
-315
-271
-274
-299
-295
-268
-272
-343
-457
-556
-625
-714
-879
-1105
-1314
-1430
-1470
-1522
-1625
-1694
-1588
-1263
-842
-502
-311
-193
-36
186
416
578
632
554
339
53
-170
-226
-120
55
218
369
531
684
771
750
600
328
-20
-324
-432
-280
32
321
459
446
348
212
59
-67
-142
-223
-411
-734
-1066
-1244
-1240
-1208
-1315
-1574
-1847
-1995
-2008
-1966
-1915
-1841
-1721
-1553
-1368
-1194
-1058
-989
-1023
-1156
-1334
-1469
-1495
-1403
-1246
-1101
-1030
-1045
-1105
-1157
-1178
-1177
-1167
-1138
-1062
-964
-911
-953
-1067
-1178
-1230
-1242
-1257
-1284
-1287
-1241
-1168
-1114
-1090
-1062
-1008
-951
-932
-959
-1011
-1063
-1113
-1165
-1205
-1215
-1209
-1221
-1261
-1284
-1239
-1137
-1054
-1057
-1131
-1184
-1151
-1059
-997
-1025
-1114
-1169
-1130
-1040
-993
-1029
-1101
-1140
-1137
-1142
-1156
-1096
-908
-710
-727
-1053
-1515
-1821
-1854
-1751
-1700
-1692
-1567
-1237
-812
-474
-316
-309
-386
-496
-595
-643
-627
-547
-386
-125
196
458
540
441
274
133
0
-192
-446
-676
-781
-733
-586
-432
-348
-386
-551
-798
-1054
-1239
-1290
-1184
-957
-711
-555
-540
-635
-773
-914
-1063
-1223
-1363
-1422
-1366
-1213
-1024
-869
-784
-761
-786
-865
-1002
-1171
-1309
-1368
-1362
-1358
-1407
-1495
-1559
-1568
-1569
-1651
-1858
-2126
-2321
-2356
-2246
-2080
-1927
-1801
-1691
-1590
-1502
-1417
-1334
-1280
-1280
-1318
-1332
-1272
-1158
-1062
-1005
-943
-845
-755
-752
-864
-1016
-1122
-1176
-1247
-1365
-1473
-1471
-1318
-1075
-866
-799
-900
-1096
-1253
-1256
-1096
-864
-665
-507
-306
4
386
724
916
940
833
642
418
211
48
-89
-231
-367
-441
-441
-449
-577
-846
-1159
-1412
-1582
-1710
-1809
-1835
-1742
-1559
-1359
-1186
-1038
-903
-808
-798
-884
-1025
-1157
-1226
-1206
-1073
-818
-464
-63
333
693
993
1186
1198
992
636
275
13
-158
-308
-449
-508
-424
-269
-207
-332
-554
-690
-646
-514
-452
-503
-553
-444
-156
163
333
297
137
-22
-131
-214
-298
-361
-365
-309
-231
-165
-117
-87
-84
-112
-162
-228
-300
-358
-361
-293
-210
-199
-261
-302
-252
-166
-147
-211
-277
-327
-481
-839
-1277
-1511
-1395
-1085
-829
-655
-372
153
784
1261
1475
1513
1464
1299
977
604
364
303
254
49
-259
-447
-371
-136
9
-71
-293
-489
-569
-573
-583
-639
-717
-786
-839
-891
-976
-1129
-1350
-1566
-1659
-1578
-1396
-1247
-1195
-1184
-1131
-1041
-994
-1016
-1013
-856
-545
-227
-53
-12
50
237
472
564
409
110
-139
-235
-232
-241
-302
-366
-363
-277
-146
-28
26
-5
-102
-225
-357
-509
-677
-810
-833
-740
-610
-524
-477
-390
-193
80
328
470
503
469
395
270
77
-172
-410
-562
-596
-543
-464
-395
-335
-269
-203
-165
-166
-192
-230
-286
-372
-474
-546
-553
-511
-471
-476
-527
-579
-583
-524
-430
-348
-316
-333
-368
-385
-369
-335
-322
-345
-374
-358
-289
-227
-225
-256
-233
-112
38
85
-11
-147
-184
-94
17
46
2
-17
52
178
273
297
308
362
447
498
486
465
502
599
692
741
768
821
894
929
899
849
847
897
933
898
816
768
807
897
971
998
1005
1028
1048
1008
892
776
752
806
812
687
507
431
525
674
689
507
249
83
37
-13
-185
-461
-699
-776
-695
-565
-468
-368
-160
203
629
960
1103
1101
1083
1147
1282
1391
1376
1238
1081
1026
1090
1169
1146
1008
844
735
658
536
352
180
111
140
191
215
235
305
433
569
650
655
601
518
429
351
306
297
289
224
98
-22
-47
50
200
317
363
371
389
418
433
436
440
439
388
258
92
-18
-20
52
123
162
199
274
376
454
474
440
371
276
164
58
-12
-42
-58
-89
-133
-164
-159
-132
-114
-120
-131
-127
-119
-140
-198
-251
-256
-222
-207
-268
-410
-581
-728
-830
-879
-866
-782
-643
-499
-386
-303
-227
-138
-57
-25
-72
-182
-293
-343
-313
-242
-191
-188
-210
-219
-204
-183
-178
-185
-188
-190
-192
-180
-131
-41
57
129
165
169
147
111
89
125
231
354
431
440
425
440
486
511
481
418
364
341
332
315
296
298
333
384
418
416
389
362
357
370
377
358
325
307
325
373
420
438
423
385
337
289
237
180
120
67
30
16
24
49
67
55
0
-72
-114
-111
-94
-108
-144
-143
-60
71
163
165
108
56
33
9
-42
-112
-172
-212
-240
-245
-209
-152
-127
-162
-209
-187
-83
20
37
-27
-85
-73
-21
9
-9
-46
-66
-66
-45
13
111
215
275
289
309
369
442
471
439
389
363
358
342
315
307
335
378
399
383
350
322
313
324
344
356
338
288
236
221
249
279
258
172
61
-26
-76
-129
-216
-328
-435
-516
-566
-594
-628
-710
-860
-1029
-1129
-1118
-1052
-1007
-965
-808
-459
1
397
629
760
910
1112
1287
1340
1248
1065
867
713
630
602
585
539
463
389
336
309
301
310
317
288
210
126
106
162
232
246
203
159
157
185
218
250
290
324
322
281
234
220
241
270
280
262
219
162
121
130
191
252
259
214
179
205
272
311
281
212
160
149
149
124
70
26
25
64
112
144
160
172
188
204
216
215
181
91
-51
-195
-278
-292
-288
-326
-398
-445
-425
-361
-301
-276
-281
-307
-361
-436
-494
-506
-485
-470
-470
-458
-411
-355
-331
-328
-300
-240
-212
-277
-402
-471
-404
-238
-96
-56
-90
-116
-85
-10
73
128
127
49
-75
-148
-72
139
348
424
381
370
496
696
800
717
531
400
393
457
504
520
547
610
689
742
749
720
688
691
735
785
788
735
689
700
736
718
616
489
411
390
383
365
349
346
344
345
390
500
609
610
487
351
333
431
522
493
355
205
121
106
124
144
147
117
59
26
81
214
335
340
227
106
85
160
237
254
260
328
443
498
430
316
285
355
423
389
289
240
313
461
592
670
714
740
748
760
812
916
1010
1014
941
912
1026
1227
1345
1291
1175
1190
1376
1558
1540
1349
1211
1279
1454
1513
1381
1215
1192
1291
1345
1278
1203
1263
1425
1507
1388
1155
986
959
998
988
920
888
964
1121
1279
1406
1527
1644
1674
1529
1245
989
900
922
859
614
332
257
454
717
798
702
681
942
1401
1771
1874
1822
1866
2098
2354
2420
2271
2077
1976
1928
1823
1665
1562
1538
1437
1098
572
95
-163
-236
-262
-303
-338
-395
-534
-723
-810
-714
-582
-640
-904
-1119
-1030
-659
-263
-56
-25
-15
59
145
144
23
-154
-284
-301
-220
-121
-61
-15
74
199
262
174
-36
-246
-347
-321
-213
-60
132
354
565
723
803
818
793
746
694
640
590
542
499
466
449
454
472
479
460
432
413
386
297
119
-92
-237
-274
-249
-221
-182
-96
18
90
100
107
161
189
36
-350
-818
-1148
-1235
-1147
-1008
-863
-669
-380
-7
369
642
732
637
431
218
52
-67
-151
-181
-137
-45
44
107
156
196
202
153
78
39
54
83
88
87
123
200
267
279
242
208
199
192
166
135
147
209
273
276
208
128
97
114
119
73
5
-19
16
52
33
-28
-63
-40
1
1
-44
-85
-96
-105
-142
-195
-223
-231
-268
-360
-454
-484
-459
-462
-547
-667
-733
-734
-752
-858
-1003
-1066
-1000
-886
-824
-809
-757
-638
-533
-542
-644
-722
-722
-719
-814
-983
-1087
-1046
-933
-878
-901
-900
-794
-634
-542
-566
-651
-729
-787
-850
-927
-1008
-1076
-1102
-1047
-891
-685
-526
-461
-442
-390
-294
-216
-207
-248
-297
-322
-294
-163
95
417
689
854
950
1029
1046
911
638
369
227
159
23
-205
-358
-266
17
249
275
221
344
731
1201
1497
1542
1478
1456
1467
1376
1109
741
415
203
53
-122
-313
-409
-319
-106
58
58
-69
-210
-315
-433
-595
-726
-724
-589
-407
-217
50
446
869
1120
1119
1013
1026
1219
1443
1520
1426
1284
1204
1187
1161
1081
960
832
707
577
471
434
472
532
552
520
492
511
552
550
484
407
372
368
356
330
330
382
451
469
411
321
254
231
239
256
272
273
240
174
106
75
86
106
91
29
-46
-83
-46
46
128
150
135
158
259
377
403
296
120
-33
-152
-287
-467
-647
-759
-790
-770
-717
-611
-430
-204
7
160
260
328
373
381
340
247
108
-51
-191
-289
-352
-415
-500
-583
-620
-602
-555
-521
-525
-563
-623
-689
-743
-773
-780
-781
-788
-789
-756
-681
-593
-541
-550
-591
-625
-650
-707
-822
-950
-1013
-978
-889
-793
-673
-484
-270
-182
-340
-677
-969
-1058
-995
-946
-977
-960
-724
-253
288
712
939
1012
1003
959
887
781
637
477
353
319
375
461
521
540
528
469
330
113
-110
-254
-295
-284
-273
-258
-213
-155
-154
-256
-416
-530
-534
-453
-367
-324
-308
-277
-208
-119
-53
-68
-202
-442
-695
-859
-916
-939
-1002
-1074
-1053
-893
-666
-493
-417
-389
-374
-432
-670
-1118
-1678
-2190
-2541
-2712
-2722
-2577
-2262
-1763
-1116
-408
243
725
983
1023
901
658
311
-112
-520
-789
-834
-682
-454
-255
-103
45
209
334
339
210
36
-76
-97
-77
-73
-75
-28
79
185
220
199
210
312
471
588
607
561
524
526
541
536
514
505
527
565
590
590
589
613
668
724
735
678
599
566
598
640
618
539
479
483
488
393
198
34
6
30
-110
-527
-1066
-1441
-1499
-1347
-1188
-1092
-927
-531
108
822
1413
1790
1976
2039
2025
1955
1855
1745
1620
1448
1231
1024
899
865
848
760
580
360
168
32
-52
-80
-46
29
92
99
62
27
32
47
14
-90
-217
-278
-232
-127
-52
-57
-112
-138
-96
-16
38
44
28
17
-4
-78
-206
-314
-310
-187
-49
-8
-75
-141
-99
36
141
121
9
-82
-88
-46
-30
-63
-103
-113
-107
-119
-155
-191
-208
-219
-233
-233
-210
-190
-207
-255
-275
-231
-172
-186
-291
-405
-437
-384
-325
-312
-321
-298
-240
-197
-201
-234
-260
-278
-308
-364
-430
-472
-464
-410
-334
-263
-205
-155
-109
-86
-102
-139
-150
-106
-41
-16
-33
-27
61
203
301
307
273
283
350
404
381
311
284
338
429
493
519
546
602
666
698
689
657
619
587
578
620
709
787
783
690
576
530
566
616
611
541
457
422
446
499
556
603
643
676
693
696
695
697
697
694
688
668
612
512
407
351
360
379
330
213
114
111
186
242
199
76
-46
-112
-144
-200
-289
-360
-364
-303
-237
-205
-186
-126
-12
91
115
74
47
78
115
78
-34
-130
-141
-105
-105
-161
-201
-166
-90
-52
-71
-83
-21
103
207
244
237
250
315
403
462
473
467
483
520
539
525
512
548
618
650
604
536
545
642
731
714
605
517
524
595
640
612
544
499
519
595
678
716
700
670
671
692
674
585
458
355
288
221
131
47
-4
-48
-114
-172
-165
-102
-67
-119
-199
-194
-79
67
188
335
583
904
1178
1337
1437
1569
1732
1842
1834
1728
1577
1411
1238
1077
946
833
707
576
474
421
401
397
418
475
531
522
451
411
482
622
708
677
595
573
634
700
696
639
599
598
586
516
415
359
384
447
473
442
396
384
407
422
410
390
392
420
449
453
428
389
355
335
329
319
285
231
195
199
212
179
97
31
40
95
111
59
4
15
72
83
14
-64
-82
-67
-97
-179
-236
-213
-168
-197
-299
-369
-340
-285
-324
-464
-580
-566
-472
-430
-492
-574
-570
-481
-397
-382
-407
-410
-373
-329
-305
-284
-244
-199
-182
-204
-232
-238
-238
-266
-326
-378
-385
-349
-307
-280
-246
-172
-66
36
98
126
153
205
277
333
341
310
289
323
408
485
502
465
418
400
400
393
384
393
421
435
415
391
407
471
538
555
512
443
393
386
422
478
519
530
517
512
536
573
582
531
429
323
259
249
268
276
257
217
180
171
203
256
290
270
209
166
178
210
194
111
20
-7
25
51
23
-28
-41
5
63
77
33
-19
-14
57
127
108
-5
-101
-62
95
220
201
119
148
328
491
463
310
271
453
681
710
538
415
532
784
911
821
693
742
961
1160
1200
1124
1060
1049
1040
992
925
871
826
780
757
785
837
847
796
746
768
847
899
864
756
623
491
385
339
356
369
290
128
9
49
197
244
15
-469
-1047
-1601
-2132
-2634
-2993
-3056
-2806
-2382
-1881
-1227
-289
845
1829
2333
2347
2159
2040
2017
1944
1720
1413
1165
1066
1084
1115
1078
975
857
757
624
388
88
-103
-41
208
389
320
83
-67
12
207
294
181
-17
-105
-10
161
245
193
107
106
182
205
101
-21
20
238
415
340
58
-151
-97
106
181
25
-194
-231
-47
170
227
125
13
1
58
84
37
-41
-96
-114
-99
-50
9
51
70
90
128
153
123
58
41
103
162
114
8
7
177
359
339
123
-58
-24
131
163
-16
-232
-279
-164
-71
-114
-225
-268
-211
-131
-103
-128
-165
-197
-219
-205
-143
-67
-32
-45
-58
-23
35
51
1
-71
-108
-109
-100
-81
-21
83
179
239
291
392
545
684
749
747
716
674
613
553
529
533
499
381
221
106
68
54
-4
-108
-204
-258
-302
-372
-464
-546
-607
-671
-781
-936
-1085
-1167
-1168
-1144
-1165
-1246
-1342
-1387
-1364
-1312
-1285
-1309
-1377
-1467
-1538
-1556
-1534
-1527
-1574
-1629
-1592
-1434
-1253
-1173
-1193
-1175
-1011
-772
-651
-751
-975
-1126
-1117
-1036
-1030
-1129
-1233
-1238
-1134
-997
-895
-841
-818
-810
-803
-764
-671
-567
-524
-571
-643
-663
-628
-607
-648
-725
-786
-822
-850
-853
-777
-621
-470
-413
-432
-422
-320
-192
-152
-223
-317
-338
-284
-223
-199
-179
-108
9
103
121
83
60
93
145
154
100
33
5
18
39
54
83
127
145
98
10
-52
-61
-60
-93
-145
-151
-91
-27
-35
-109
-168
-151
-91
-79
-171
-335
-494
-598
-651
-693
-763
-849
-906
-913
-904
-939
-1022
-1089
-1081
-1031
-1017
-1036
-964
-687
-251
162
411
528
639
804
963
1021
937
751
531
352
262
260
285
269
195
110
58
38
24
-11
-72
-159
-262
-340
-350
-288
-209
-179
-211
-280
-349
-377
-320
-165
34
169
162
51
-56
-98
-117
-217
-431
-692
-894
-980
-974
-933
-890
-849
-809
-775
-752
-730
-690
-623
-540
-463
-405
-357
-301
-232
-168
-138
-166
-255
-385
-522
-639
-718
-757
-764
-748
-721
-692
-660
-614
-560
-526
-539
-600
-665
-686
-662
-637
-649
-688
-708
-679
-612
-537
-473
-422
-387
-372
-367
-356
-335
-322
-326
-332
-312
-269
-228
-202
-172
-117
-50
-13
-21
-42
-29
20
71
91
82
74
90
130
182
234
275
295
305
327
376
442
491
513
529
572
636
684
690
674
675
702
721
702
664
646
664
681
659
596
532
495
473
441
406
389
402
427
442
446
456
471
470
432
360
287
240
221
206
172
126
92
88
101
96
51
-27
-126
-252
-418
-603
-742
-772
-706
-621
-587
-593
-575
-494
-378
-283
-236
-227
-248
-309
-396
-453
-442
-410
-469
-674
-934
-1084
-1040
-878
-749
-714
-704
-625
-475
-345
-315
-377
-464
-546
-641
-766
-883
-929
-891
-816
-754
-694
-588
-426
-271
-197
-198
-193
-122
-26
-10
-119
-283
-385
-375
-303
-246
-222
-188
-102
32
161
237
230
143
1
-153
-267
-310
-286
-216
-119
-5
116
224
299
329
320
291
246
176
81
-2
-25
21
79
86
46
26
62
97
42
-112
-264
-331
-351
-438
-634
-850
-969
-990
-1000
-1051
-1100
-1079
-982
-857
-709
-476
-128
245
487
521
433
398
530
787
1021
1105
1042
958
984
1136
1306
1359
1242
1015
771
572
437
360
328
309
260
162
47
-42
-80
-90
-104
-138
-193
-263
-327
-348
-298
-194
-102
-85
-151
-248
-307
-296
-233
-161
-120
-123
-151
-166
-145
-109
-101
-145
-218
-266
-264
-233
-216
-233
-270
-296
-298
-279
-248
-217
-202
-209
-225
-226
-212
-214
-277
-399
-521
-568
-512
-393
-281
-206
-148
-72
21
97
127
112
71
20
-32
-78
-113
-136
-153
-157
-131
-81
-43
-48
-81
-96
-68
-31
-29
-59
-70
-34
27
72
91
110
141
171
183
191
217
255
270
239
179
126
102
111
149
212
287
357
413
463
518
573
605
601
576
561
562
560
529
479
450
465
497
496
441
372
335
336
340
327
310
302
282
222
140
94
111
143
124
51
0
32
126
206
227
209
191
175
152
139
163
211
222
152
46
-3
44
121
127
32
-93
-152
-123
-58
-32
-70
-149
-220
-252
-237
-194
-160
-168
-220
-276
-289
-253
-217
-230
-286
-327
-313
-257
-211
-202
-207
-197
-162
-123
-95
-86
-106
-160
-222
-240
-193
-128
-100
-107
-85
1
100
139
118
112
163
217
197
118
78
144
258
314
285
254
297
395
464
460
424
421
450
466
453
443
476
538
590
619
640
669
692
691
670
659
667
679
663
616
561
533
543
569
576
550
507
481
470
430
319
148
-15
-109
-136
-153
-211
-308
-392
-402
-326
-212
-128
-88
-16
180
490
790
970
1048
1152
1348
1564
1687
1692
1644
1585
1486
1319
1124
978
890
796
646
465
320
254
256
303
371
435
465
469
485
542
612
632
575
476
399
380
406
434
447
455
465
456
396
291
206
202
255
268
172
29
-28
43
138
131
18
-81
-78
-15
10
-34
-79
-66
-15
16
13
11
28
27
-25
-99
-135
-112
-76
-72
-86
-70
-14
36
29
-25
-72
-75
-57
-69
-129
-204
-250
-248
-213
-178
-185
-251
-350
-422
-419
-361
-318
-337
-381
-373
-282
-176
-143
-191
-252
-268
-258
-277
-341
-404
-419
-384
-336
-300
-267
-217
-150
-93
-75
-100
-142
-157
-120
-57
-13
-9
-19
8
94
211
308
344
325
301
329
423
536
599
597
582
612
685
742
751
740
755
788
787
734
679
675
718
748
723
666
630
641
684
723
733
708
661
614
591
594
606
605
590
585
605
637
656
654
644
643
644
634
616
602
596
574
517
441
390
375
358
304
229
191
213
259
280
275
297
360
419
416
356
305
306
328
306
222
134
103
129
166
168
140
124
146
186
206
192
171
175
204
220
192
137
111
152
238
306
319
299
303
362
452
512
509
467
447
480
534
552
512
450
418
432
463
478
477
475
488
517
556
604
651
673
656
621
603
614
640
650
634
604
581
581
601
612
581
496
379
276
210
160
94
9
-78
-161
-257
-370
-462
-497
-491
-493
-502
-436
-206
170
559
836
992
1122
1311
1550
1745
1800
1688
1471
1264
1157
1143
1130
1037
870
716
638
619
607
584
574
584
586
562
548
591
678
741
730
667
608
579
567
557
557
567
570
552
525
515
525
532
519
500
489
474
429
358
294
256
226
187
154
161
208
252
254
238
257
328
407
440
422
379
330
276
223
197
197
188
140
76
54
88
110
42
-115
-276
-378
-416
-423
-409
-367
-304
-241
-185
-135
-151
-328
-660
-976
-1110
-1153
-1449
-2235
-3284
-4023
-4053
-3517
-2895
-2462
-2025
-1210
49
1398
2393
2859
2904
2708
2352
1878
1377
952
635
394
258
320
617
1023
1320
1406
1350
1271
1185
1014
742
491
427
588
836
989
980
885
819
830
875
897
890
894
928
966
964
910
835
783
768
768
762
743
715
688
674
683
714
750
758
726
676
649
674
736
796
822
810
777
749
745
766
777
710
503
170
-172
-370
-364
-240
-143
-113
-39
222
653
1061
1258
1250
1209
1254
1314
1224
953
671
577
685
827
851
768
703
732
806
834
783
691
600
518
450
419
453
539
621
653
643
649
713
824
926
970
968
968
996
1028
1021
975
946
983
1068
1141
1160
1159
1199
1289
1362
1357
1302
1256
1233
1191
1108
1046
1081
1188
1258
1242
1222
1298
1450
1537
1461
1246
956
593
152
-267
-482
-430
-266
-193
-208
-88
347
992
1531
1739
1673
1565
1562
1620
1616
1478
1233
958
725
575
502
472
440
392
385
497
734
1005
1204
1313
1440
1699
2047
2287
2234
1910
1543
1348
1322
1271
1031
642
289
103
30
-56
-208
-363
-446
-483
-556
-684
-770
-724
-609
-584
-719
-885
-884
-699
-542
-642
-989
-1329
-1446
-1360
-1243
-1190
-1115
-873
-450
20
393
626
755
806
763
619
411
210
61
-30
-86
-135
-200
-290
-379
-429
-434
-453
-551
-706
-801
-731
-528
-329
-231
-194
-121
-2
63
-19
-232
-501
-775
-1033
-1222
-1255
-1109
-886
-716
-606
-441
-148
180
354
286
62
-163
-322
-447
-559
-610
-548
-411
-303
-270
-246
-141
25
103
-17
-264
-457
-497
-455
-434
-418
-306
-104
47
53
20
105
227
45
-663
-1659
-2389
-2511
-2195
-1870
-1718
-1510
-916
82
1162
1955
2328
2374
2231
1965
1603
1207
883
694
614
582
566
591
695
847
940
882
681
443
279
235
291
408
541
651
698
668
572
443
323
248
226
237
239
209
158
114
90
77
65
64
94
158
223
256
244
208
175
156
137
104
64
40
48
89
148
195
209
185
149
133
138
125
55
-60
-164
-219
-239
-252
-264
-249
-201
-145
-104
-64
10
110
193
225
236
286
381
467
489
467
476
545
626
649
614
593
636
704
722
685
674
732
797
798
811
1034
1554
2187
2606
2667
2526
2411
2330
2072
1496
725
32
-417
-653
-762
-749
-571
-254
81
320
449
521
570
583
531
413
273
171
144
183
239
246
168
28
-124
-256
-386
-534
-667
-721
-677
-605
-601
-661
-661
-476
-131
214
422
526
675
953
1281
1507
1551
1470
1372
1318
1289
1237
1144
1026
905
787
662
540
463
457
495
516
480
421
411
479
568
603
564
495
443
421
416
426
455
484
476
413
323
258
252
283
302
278
225
186
193
237
282
300
290
270
261
271
292
304
289
242
180
134
127
150
169
162
133
117
138
183
201
165
97
44
30
32
15
-23
-55
-69
-75
-91
-119
-149
-187
-239
-295
-327
-321
-290
-254
-228
-226
-264
-337
-409
-447
-468
-523
-614
-656
-575
-406
-267
-222
-207
-134
-17
38
-32
-167
-274
-337
-402
-481
-515
-464
-364
-282
-225
-147
-16
132
230
254
238
217
200
181
160
141
133
145
181
234
283
310
319
337
373
411
428
416
393
382
388
403
412
406
379
342
323
344
408
477
512
502
477
460
428
347
217
93
35
51
99
133
151
170
197
224
242
249
241
207
143
76
48
78
150
212
189
13
-319
-707
-980
-1032
-929
-876
-1015
-1269
-1392
-1214
-817
-463
-341
-392
-394
-188
179
532
737
791
775
748
695
582
415
252
157
136
135
107
52
14
13
6
-64
-216
-425
-665
-916
-1121
-1183
-1043
-750
-418
-108
219
612
1022
1326
1451
1448
1419
1398
1340
1206
1040
931
920
969
1012
1010
968
919
873
806
696
550
420
362
377
419
454
501
594
693
706
583
387
236
184
172
118
23
-22
45
170
239
202
123
91
117
144
148
194
361
644
946
1177
1337
1491
1689
1912
2089
2144
2042
1826
1607
1486
1465
1448
1339
1149
974
873
824
776
718
662
589
458
295
206
268
428
554
584
584
642
748
811
781
694
604
504
360
184
47
3
25
50
57
88
172
264
281
195
72
-2
-16
-39
-130
-264
-349
-329
-237
-156
-137
-163
-178
-158
-127
-128
-180
-265
-343
-382
-377
-345
-312
-295
-291
-288
-277
-264
-261
-284
-335
-399
-450
-468
-466
-473
-494
-501
-474
-442
-464
-547
-623
-629
-582
-560
-594
-620
-572
-485
-456
-519
-590
-571
-485
-452
-540
-667
-697
-590
-444
-370
-380
-398
-358
-275
-208
-188
-196
-201
-196
-197
-207
-212
-190
-142
-93
-71
-67
-53
-20
11
19
14
26
61
90
88
70
79
130
185
200
175
155
174
217
243
234
210
208
243
304
367
410
424
422
417
417
409
379
325
262
205
158
109
59
28
27
47
63
53
19
-23
-58
-76
-82
-94
-130
-191
-254
-284
-266
-224
-191
-180
-172
-138
-80
-30
-20
-47
-80
-87
-69
-60
-88
-140
-175
-167
-129
-97
-92
-92
-62
9
88
132
128
101
88
105
139
163
169
175
205
257
310
346
374
407
435
434
404
380
387
403
382
321
280
315
411
487
484
426
392
420
478
509
491
454
431
429
441
476
547
623
640
572
464
395
383
371
294
156
16
-82
-130
-124
-64
0
-38
-229
-470
-572
-481
-359
-383
-497
-443
-74
434
769
825
801
921
1172
1349
1317
1146
982
874
779
676
608
592
572
478
314
164
98
109
135
132
101
73
72
104
154
198
219
215
194
168
153
163
197
232
243
222
186
152
129
119
133
172
213
224
205
188
198
218
216
194
190
231
289
313
289
253
242
247
229
174
112
77
64
50
28
22
46
80
90
70
42
19
-6
-47
-95
-126
-128
-121
-125
-136
-131
-104
-81
-98
-153
-211
-246
-267
-303
-361
-407
-408
-378
-357
-363
-378
-376
-361
-359
-375
-394
-404
-419
-448
-480
-496
-500
-513
-535
-534
-488
-415
-362
-340
-319
-280
-243
-235
-252
-263
-249
-220
-192
-156
-104
-56
-31
-21
9
72
137
167
168
174
199
220
216
207
225
264
276
238
189
184
227
267
259
223
218
262
314
323
295
279
303
344
357
326
277
236
200
151
89
28
-21
-62
-91
-92
-52
-5
1
-50
-122
-161
-160
-159
-187
-224
-233
-207
-177
-164
-153
-120
-78
-70
-108
-142
-114
-34
26
3
-75
-127
-113
-86
-114
-200
-265
-247
-170
-117
-119
-128
-78
33
139
180
162
138
147
186
228
258
281
307
343
389
451
531
614
674
691
676
667
694
735
746
715
684
701
760
796
771
723
717
759
779
724
639
609
651
694
685
666
713
830
936
960
925
897
893
871
801
686
500
154
-407
-1047
-1480
-1533
-1347
-1232
-1304
-1321
-970
-272
363
541
270
-79
-215
-196
-266
-490
-648
-478
48
705
1254
1615
1860
2060
2179
2127
1891
1574
1317
1169
1077
1005
1001
1098
1130
791
-55
-1143
-1959
-2184
-1949
-1613
-1347
-993
-323
664
1710
2511
2900
2884
2561
2083
1615
1259
1007
797
629
573
669
837
952
968
936
893
801
639
503
530
724
931
1020
1049
1158
1341
1403
1204
870
683
768
965
1029
904
743
695
760
841
873
873
874
872
848
802
759
748
777
817
824
782
734
746
817
870
847
792
791
850
873
793
668
607
624
624
545
434
383
404
438
469
553
697
809
804
722
699
789
894
896
798
707
717
824
969
1096
1160
1133
1041
965
964
1008
1019
968
922
951
1042
1119
1146
1151
1170
1189
1172
1122
1092
1110
1154
1178
1172
1182
1238
1312
1342
1304
1244
1219
1225
1216
1187
1190
1264
1364
1383
1277
1131
1069
1118
1170
1113
949
799
791
946
1170
1323
1308
1142
945
857
909
991
950
738
463
280
248
295
298
192
2
-207
-385
-510
-576
-621
-695
-812
-929
-986
-970
-926
-906
-917
-939
-958
-978
-976
-925
-845
-813
-880
-996
-1059
-1029
-963
-937
-954
-962
-924
-835
-707
-560
-445
-418
-458
-456
-330
-136
-26
-57
-112
-36
175
360
396
340
349
485
660
757
765
770
836
931
995
1005
988
969
939
890
836
792
773
775
790
813
840
867
893
923
948
950
917
865
812
748
645
493
321
159
14
-123
-248
-341
-392
-412
-407
-360
-254
-98
88
303
571
885
1190
1418
1562
1671
1801
1940
2031
2022
1917
1757
1596
1454
1314
1159
1002
874
790
710
582
423
335
389
520
577
491
381
410
582
725
699
550
440
433
440
360
231
188
297
488
660
792
927
1087
1246
1353
1352
1192
864
453
112
-56
-91
-115
-201
-296
-282
-114
123
284
292
202
150
210
308
314
210
127
197
370
461
384
252
218
283
312
232
132
126
193
232
218
229
302
364
366
424
705
1172
1561
1654
1538
1490
1602
1636
1306
635
-29
-385
-470
-543
-737
-909
-846
-541
-211
-51
-55
-83
-58
-36
-101
-236
-332
-306
-181
-39
59
114
168
241
314
351
347
336
359
420
481
508
516
556
648
754
813
806
771
756
777
822
869
895
886
843
806
825
893
946
924
836
759
752
798
835
825
792
775
787
811
824
821
812
805
800
781
738
673
619
606
634
658
631
558
493
483
523
562
555
502
441
407
395
383
349
292
229
177
141
122
116
113
101
86
89
129
189
218
189
129
92
84
45
-81
-267
-416
-455
-416
-384
-385
-346
-184
73
293
375
346
323
366
417
382
260
154
149
226
300
328
351
404
453
444
389
367
405
414
281
19
-222
-312
-269
-212
-204
-188
-83
114
330
516
664
750
720
566
386
297
305
302
214
113
130
279
436
490
451
394
332
205
-13
-243
-379
-404
-406
-477
-622
-774
-883
-956
-1018
-1047
-961
-688
-252
234
656
998
1320
1648
1908
1979
1822
1511
1168
865
612
398
224
109
66
88
136
151
91
-28
-150
-240
-313
-392
-448
-403
-225
17
202
259
215
145
99
69
33
-9
-52
-98
-163
-247
-315
-330
-294
-251
-233
-241
-266
-281
-237
-105
53
91
-71
-318
-444
-396
-367
-544
-849
-1030
-1022
-1089
-1495
-2098
-2436
-2242
-1752
-1405
-1310
-1142
-581
281
1029
1368
1356
1226
1090
892
578
223
-50
-202
-300
-399
-496
-556
-577
-605
-680
-794
-902
-976
-1013
-1008
-934
-783
-614
-522
-559
-685
-799
-847
-858
-890
-961
-1030
-1048
-1016
-981
-989
-1052
-1156
-1269
-1359
-1396
-1364
-1289
-1215
-1163
-1089
-930
-683
-437
-308
-330
-424
-489
-492
-475
-501
-604
-793
-1038
-1262
-1370
-1328
-1206
-1116
-1084
-1012
-811
-513
-247
-96
-30
13
16
-81
-283
-509
-694
-868
-1105
-1403
-1671
-1823
-1858
-1826
-1760
-1663
-1538
-1398
-1221
-987
-751
-639
-723
-949
-1190
-1395
-1618
-1905
-2197
-2383
-2447
-2507
-2688
-2950
-3089
-2905
-2426
-1976
-1966
-2528
-3339
-3860
-3821
-3454
-3198
-3184
-3086
-2502
-1418
-229
659
1149
1376
1424
1242
792
194
-342
-704
-933
-1098
-1202
-1182
-1001
-716
-450
-323
-386
-598
-855
-1043
-1088
-991
-815
-637
-502
-414
-375
-397
-475
-550
-536
-401
-211
-77
-52
-90
-115
-107
-113
-149
-164
-105
-8
39
15
4
75
175
196
144
160
294
347
48
-585
-1164
-1302
-1021
-716
-689
-806
-692
-198
417
766
708
406
89
-155
-375
-621
-861
-1023
-1057
-965
-796
-617
-464
-305
-87
177
398
484
442
395
479
717
1001
1173
1157
1005
835
724
666
606
505
363
192
12
-142
-218
-193
-109
-46
-37
-34
33
167
296
343
287
163
21
-97
-161
-164
-133
-98
-70
-43
-20
-26
-72
-120
-128
-109
-112
-162
-225
-254
-241
-209
-181
-166
-177
-225
-276
-277
-214
-153
-172
-258
-312
-271
-185
-158
-225
-324
-382
-392
-394
-411
-446
-498
-569
-644
-681
-659
-602
-548
-507
-473
-466
-524
-637
-721
-689
-570
-489
-535
-652
-694
-577
-385
-269
-299
-414
-504
-520
-506
-521
-577
-632
-643
-607
-553
-508
-459
-376
-250
-137
-114
-195
-300
-325
-250
-151
-118
-162
-215
-207
-134
-36
36
64
70
95
158
239
293
306
311
348
419
494
555
620
706
781
796
747
702
720
785
829
820
796
812
878
946
972
971
982
1014
1036
1015
955
892
855
842
822
778
725
705
749
838
914
936
906
876
880
907
931
944
960
966
933
866
825
861
938
956
873
771
769
889
1038
1128
1162
1187
1204
1162
1036
867
706
567
425
282
183
161
188
239
318
427
537
621
706
855
1077
1295
1433
1506
1588
1704
1813
1905
2062
2366
2783
3183
3470
3631
3667
3534
3217
2806
2434
2108
1696
1112
485
63
-57
-24
-59
-225
-394
-418
-297
-144
-30
63
189
360
536
664
726
750
772
799
792
724
627
595
695
898
1088
1153
1080
942
816
719
634
561
521
507
471
374
250
187
211
257
284
398
786
1477
2238
2747
2885
2822
2778
2766
2614
2222
1716
1329
1179
1215
1356
1597
1930
2239
2337
2141
1768
1414
1157
916
597
246
34
100
412
798
1087
1220
1242
1219
1186
1136
1061
967
884
845
861
914
969
994
987
967
954
951
959
976
989
978
935
886
869
882
862
745
563
440
471
612
706
650
502
403
412
442
379
249
187
274
440
540
537
515
552
593
466
45
-637
-1388
-1965
-2194
-2055
-1667
-1179
-632
35
851
1680
2286
2506
2374
2033
1562
937
172
-568
-1029
-1105
-936
-762
-668
-527
-215
134
197
-201
-859
-1347
-1409
-1149
-823
-518
-79
627
1475
2174
2532
2602
2547
2454
2288
2008
1666
1378
1213
1157
1162
1208
1299
1421
1521
1525
1379
1105
808
621
627
775
920
948
899
927
1112
1332
1373
1174
923
868
1041
1236
1246
1079
919
899
995
1110
1207
1312
1425
1490
1476
1427
1414
1448
1475
1454
1399
1350
1322
1313
1304
1281
1243
1194
1151
1135
1152
1196
1249
1307
1349
1344
1284
1204
1148
1117
1075
1012
970
978
1006
998
974
1024
1174
1314
1300
1138
1003
1043
1198
1269
1159
978
901
996
1182
1331
1376
1323
1238
1209
1277
1378
1400
1317
1245
1313
1484
1580
1497
1352
1335
1468
1582
1534
1367
1253
1293
1427
1529
1531
1454
1367
1332
1362
1409
1424
1411
1422
1504
1641
1755
1784
1733
1659
1607
1573
1505
1344
1115
956
995
1177
1259
1058
671
388
369
462
394
94
-252
-413
-343
-171
-30
35
62
134
336
689
1092
1384
1496
1528
1631
1827
2003
2057
1983
1846
1702
1581
1495
1434
1356
1227
1048
846
630
390
143
-49
-150
-199
-254
-295
-243
-77
113
216
224
218
234
224
132
-6
-102
-118
-117
-173
-282
-382
-416
-395
-364
-355
-379
-432
-497
-554
-587
-594
-573
-546
-543
-574
-614
-614
-559
-482
-414
-339
-238
-144
-125
-187
-223
-132
35
113
17
-144
-189
-86
24
5
-123
-241
-264
-212
-138
-70
-21
-19
-71
-131
-143
-107
-80
-108
-177
-237
-267
-265
-229
-169
-112
-95
-117
-138
-124
-90
-69
-76
-91
-83
-50
-7
33
75
122
173
210
228
239
256
281
295
279
243
225
241
275
297
309
337
397
474
538
570
567
525
456
393
378
416
479
534
590
680
807
932
1005
1014
982
941
895
832
765
725
736
782
821
826
808
813
856
886
835
684
486
320
229
199
205
243
309
376
409
413
429
481
525
495
398
322
345
439
491
439
339
296
326
339
271
159
96
105
103
13
-137
-239
-233
-163
-114
-128
-164
-153
-68
59
170
236
277
347
463
587
665
690
701
735
795
871
963
1058
1110
1080
982
885
842
838
824
793
797
872
985
1080
1144
1203
1258
1273
1233
1186
1180
1203
1191
1151
1182
1387
1752
2155
2465
2631
2666
2581
2369
2021
1558
1048
575
208
-36
-190
-291
-335
-297
-190
-85
-58
-126
-242
-327
-334
-265
-162
-68
18
165
458
899
1355
1641
1699
1658
1722
1967
2269
2425
2354
2161
2010
1966
1929
1763
1453
1125
907
800
698
547
426
438
561
662
653
603
659
848
1043
1094
997
873
841
910
1002
1055
1071
1062
1007
897
777
730
761
777
689
533
466
594
829
971
913
749
653
686
741
687
516
332
226
192
184
189
234
322
412
452
439
424
455
525
564
504
350
190
136
208
301
285
150
14
-3
83
135
53
-117
-224
-191
-93
-80
-196
-328
-321
-167
-42
-134
-434
-724
-785
-615
-414
-348
-366
-284
-16
321
536
562
489
421
365
270
120
-24
-93
-73
-10
46
74
81
87
108
141
151
113
32
-56
-110
-108
-59
8
63
98
131
172
190
142
28
-88
-143
-153
-201
-340
-523
-632
-586
-395
-155
3
-22
-236
-531
-762
-855
-810
-661
-444
-196
64
396
879
1419
1752
1699
1400
1169
1040
639
-356
-1719
-2805
-3183
-2994
-2672
-2454
-2312
-2214
-2213
-2258
-2195
-2048
-2151
-2787
-3719
-4267
-3929
-2821
-1470
-282
688
1555
2340
2973
3373
3441
3059
2205
1077
51
-583
-775
-651
-380
-97
109
186
157
97
66
65
73
81
87
85
66
42
49
94
135
116
38
-38
-60
-47
-56
-98
-118
-59
66
181
233
253
300
396
500
542
478
305
80
-97
-157
-141
-152
-207
-173
85
478
692
491
-10
-421
-465
-245
-72
-101
-186
-73
316
843
1296
1536
1534
1344
1091
899
806
759
711
721
897
1254
1663
1975
2159
2289
2416
2495
2448
2271
2046
1868
1765
1685
1555
1361
1159
1016
933
842
711
609
636
791
943
970
900
875
985
1154
1240
1193
1085
996
924
826
713
647
658
695
683
606
538
550
626
674
627
506
397
369
405
433
397
309
232
222
269
301
255
139
33
11
56
78
13
-109
-208
-252
-290
-379
-495
-559
-547
-509
-502
-520
-517
-489
-474
-498
-545
-589
-646
-740
-842
-875
-820
-761
-796
-912
-983
-921
-798
-765
-872
-1013
-1046
-953
-848
-830
-888
-941
-942
-922
-915
-901
-845
-768
-745
-808
-899
-920
-841
-746
-734
-813
-891
-881
-788
-696
-683
-745
-803
-782
-687
-607
-620
-693
-690
-519
-247
-49
-29
-117
-165
-107
-15
10
-51
-139
-196
-200
-149
-47
60
105
67
1
-19
28
85
100
83
85
131
199
255
279
274
262
265
272
238
133
11
-38
7
58
15
-101
-175
-149
-81
-69
-119
-155
-139
-117
-151
-235
-308
-339
-352
-381
-415
-425
-399
-344
-259
-153
-60
-9
2
5
12
2
-38
-74
-68
-40
-46
-90
-79
67
292
438
409
284
227
306
433
482
419
327
299
357
456
543
593
613
628
654
695
739
768
773
759
728
672
588
508
474
490
512
474
350
182
40
-18
11
95
188
268
348
479
692
950
1154
1220
1144
994
838
697
559
419
296
220
197
199
179
98
-37
-190
-341
-507
-714
-904
-937
-699
-237
254
609
845
1112
1496
1899
2123
2065
1815
1554
1399
1321
1220
1047
836
647
506
400
334
331
386
421
350
185
49
66
228
396
438
347
228
190
260
372
438
421
362
323
319
304
237
152
131
201
287
284
168
33
-7
67
160
171
86
-27
-88
-66
6
64
58
-7
-66
-55
19
80
69
3
-31
17
94
108
43
-35
-61
-51
-70
-136
-200
-206
-167
-139
-152
-169
-146
-82
-25
-22
-71
-128
-164
-178
-196
-236
-292
-332
-333
-305
-287
-305
-349
-380
-372
-337
-305
-297
-304
-294
-247
-175
-107
-75
-86
-122
-146
-133
-83
-11
62
128
179
216
255
311
388
448
452
406
363
373
429
483
502
506
535
590
640
663
676
702
735
749
741
736
747
756
732
679
632
618
628
633
624
617
629
654
668
645
574
472
386
350
356
360
332
295
293
329
357
347
314
288
265
200
84
-22
-52
-9
29
5
-57
-83
-40
30
59
34
-4
-23
-25
-30
-38
-35
-30
-45
-88
-132
-153
-166
-207
-268
-291
-238
-145
-90
-91
-76
29
199
327
331
250
184
187
226
246
234
230
265
330
392
433
468
513
572
627
642
615
578
585
656
743
768
705
618
592
645
697
659
546
459
478
569
625
590
518
499
553
615
618
568
524
523
541
526
455
352
257
180
90
-27
-152
-254
-341
-462
-640
-826
-946
-981
-987
-1010
-1009
-885
-607
-283
-67
-7
15
154
445
757
929
928
889
970
1196
1434
1521
1423
1234
1066
931
780
592
412
283
194
106
32
32
129
259
343
366
376
400
416
401
386
414
459
437
310
150
67
91
150
158
118
92
107
120
94
51
37
55
51
-13
-97
-134
-113
-92
-127
-209
-269
-264
-221
-201
-240
-310
-348
-322
-264
-242
-297
-397
-469
-461
-409
-392
-449
-541
-619
-675
-747
-847
-936
-976
-982
-1005
-1055
-1085
-1054
-984
-937
-940
-959
-968
-998
-1115
-1328
-1561
-1711
-1736
-1677
-1610
-1561
-1506
-1397
-1219
-1015
-858
-797
-820
-863
-863
-807
-744
-721
-729
-726
-681
-635
-670
-828
-1056
-1244
-1325
-1336
-1330
-1286
-1119
-792
-377
11
314
540
681
702
619
533
530
560
486
270
58
28
192
375
423
357
308
348
438
517
557
543
457
323
240
285
392
402
248
66
53
223
389
386
264
214
327
483
498
333
123
28
72
149
156
89
19
7
58
129
184
214
221
197
141
76
41
69
149
222
238
202
167
169
184
152
42
-113
-227
-243
-179
-103
-61
-50
-39
-7
46
112
167
177
115
18
-23
48
174
228
163
74
83
190
269
212
72
10
111
275
330
223
81
63
191
322
319
213
170
300
526
660
596
408
257
210
180
58
-146
-306
-343
-317
-361
-517
-669
-694
-628
-653
-880
-1228
-1500
-1584
-1548
-1557
-1708
-1943
-2118
-2133
-2029
-1931
-1912
-1919
-1853
-1746
-1769
-2030
-2375
-2504
-2286
-1895
-1573
-1332
-958
-324
411
975
1267
1375
1376
1234
923
539
228
48
-44
-84
-60
14
71
102
206
432
634
586
269
-52
-93
123
316
287
127
52
123
197
157
75
110
290
482
547
489
422
430
479
488
422
327
276
300
365
401
367
281
186
113
69
54
71
106
117
88
55
81
163
218
172
48
-46
-41
9
5
-75
-149
-147
-94
-77
-140
-240
-305
-315
-311
-330
-362
-365
-319
-234
-140
-60
-4
16
-4
-51
-106
-166
-252
-373
-489
-538
-505
-446
-429
-460
-475
-427
-350
-315
-346
-399
-435
-467
-522
-595
-650
-666
-655
-632
-570
-440
-266
-104
17
126
245
337
355
305
261
279
338
369
354
337
355
405
473
577
724
872
950
933
882
887
959
1032
1028
940
836
794
870
1066
1313
1516
1647
1764
1919
2060
2031
1747
1298
860
524
243
-18
-184
-150
60
279
371
363
363
390
343
150
-113
-288
-304
-217
-115
-22
111
307
511
629
611
508
414
372
337
249
146
191
498
966
1320
1394
1311
1324
1493
1580
1334
817
363
208
253
211
-49
-362
-490
-378
-176
-40
2
22
70
137
197
260
356
474
575
638
684
736
773
744
649
553
514
516
483
421
440
617
851
935
795
601
570
702
778
631
355
194
233
316
259
72
-78
-94
-43
-52
-166
-329
-463
-534
-525
-444
-322
-186
-5
292
713
1147
1444
1574
1648
1793
1999
2144
2136
2006
1849
1714
1585
1423
1223
1011
820
657
507
352
202
103
93
149
195
180
133
139
239
373
440
394
279
168
97
48
-27
-151
-295
-405
-433
-366
-238
-102
4
78
144
208
245
212
96
-46
-142
-161
-146
-160
-209
-240
-225
-228
-341
-589
-897
-1159
-1332
-1437
-1485
-1443
-1282
-1022
-731
-466
-249
-83
10
-11
-169
-435
-737
-989
-1151
-1240
-1295
-1337
-1342
-1279
-1155
-1011
-887
-798
-751
-754
-796
-833
-826
-791
-786
-855
-973
-1088
-1185
-1288
-1391
-1431
-1367
-1245
-1158
-1139
-1127
-1064
-996
-1032
-1200
-1401
-1515
-1532
-1536
-1592
-1644
-1595
-1415
-1177
-977
-833
-696
-526
-344
-194
-89
-22
1
-61
-221
-425
-588
-690
-802
-982
-1167
-1209
-1027
-693
-360
-118
64
259
462
595
597
493
350
192
-1
-222
-388
-417
-319
-208
-195
-270
-313
-227
-44
114
140
24
-172
-375
-538
-640
-694
-739
-816
-911
-968
-946
-858
-752
-666
-613
-599
-627
-675
-679
-608
-520
-516
-621
-743
-775
-717
-660
-673
-729
-762
-757
-759
-796
-825
-775
-628
-443
-297
-218
-165
-80
36
105
27
-207
-480
-643
-634
-521
-391
-254
-43
290
702
1084
1326
1373
1238
993
744
578
505
475
454
475
596
813
1052
1222
1279
1231
1104
932
768
667
647
663
655
613
580
599
658
687
621
459
277
163
134
123
47
-103
-259
-350
-380
-416
-500
-598
-635
-572
-414
-183
110
445
774
1051
1272
1472
1668
1819
1857
1755
1555
1333
1149
1020
926
836
725
594
472
403
406
445
455
394
288
209
210
283
361
385
354
320
320
340
342
304
254
232
236
228
182
124
93
102
128
142
139
129
118
116
135
167
174
135
93
119
210
266
210
90
33
84
150
126
28
-27
17
91
100
51
30
77
138
154
142
157
206
234
201
137
98
90
70
15
-48
-87
-112
-165
-237
-260
-192
-88
-45
-94
-165
-181
-154
-149
-181
-189
-126
-46
-34
-92
-127
-67
44
99
48
-48
-99
-65
36
158
259
298
260
186
158
223
338
410
403
365
381
461
546
595
630
676
695
630
508
450
539
706
796
777
789
968
1241
1384
1275
1049
940
1015
1123
1097
954
853
906
1063
1190
1213
1162
1106
1074
1050
1013
973
948
936
919
878
823
790
803
842
852
803
729
695
728
790
821
794
749
731
748
768
749
687
612
564
552
558
557
542
522
516
530
546
541
513
478
457
452
448
429
414
437
509
596
645
650
656
708
790
845
832
782
752
765
795
825
868
940
1022
1074
1091
1106
1145
1169
1121
1001
889
857
895
925
911
892
935
1044
1143
1157
1095
1028
1015
1050
1080
1067
1020
974
957
965
967
935
858
764
695
654
598
492
377
333
357
342
193
-38
-190
-170
-53
34
82
213
510
910
1265
1495
1628
1727
1822
1901
1937
1895
1755
1561
1417
1396
1450
1451
1333
1157
1026
969
932
867
791
737
697
643
584
575
638
727
771
743
683
645
652
693
730
728
664
549
433
371
387
443
470
440
386
362
383
416
421
393
356
326
310
310
319
319
288
238
202
200
204
173
106
58
69
123
169
173
146
115
97
94
102
91
28
-85
-184
-207
-164
-131
-155
-205
-221
-208
-221
-278
-328
-320
-287
-302
-379
-449
-449
-402
-380
-415
-473
-510
-525
-535
-543
-534
-511
-495
-500
-519
-541
-566
-585
-583
-544
-484
-439
-423
-401
-330
-224
-150
-154
-209
-251
-243
-207
-171
-128
-51
50
130
165
189
255
351
409
381
304
255
268
306
323
317
311
312
306
281
253
238
227
205
172
140
112
72
23
-10
-15
-11
-32
-78
-114
-112
-87
-77
-94
-116
-129
-148
-195
-259
-304
-309
-295
-296
-326
-375
-426
-464
-478
-465
-447
-455
-491
-526
-518
-463
-395
-345
-316
-290
-263
-241
-231
-228
-236
-260
-304
-359
-414
-466
-506
-520
-496
-444
-401
-396
-415
-416
-367
-285
-215
-185
-180
-147
-49
109
269
368
388
371
383
449
532
576
554
505
497
565
673
743
737
697
696
763
848
864
786
674
609
615
638
616
541
463
427
426
405
320
183
44
-66
-163
-286
-448
-601
-692
-730
-787
-919
-1090
-1202
-1191
-1111
-1071
-1103
-1109
-948
-603
-217
40
127
171
326
607
868
944
832
692
687
815
921
869
677
485
389
341
243
77
-80
-176
-261
-429
-667
-841
-843
-738
-695
-795
-941
-981
-880
-727
-588
-428
-200
15
59
-105
-310
-349
-199
-37
-20
-99
-80
156
543
913
1146
1226
1197
1119
1038
970
887
751
563
379
256
187
129
57
-24
-111
-232
-399
-569
-654
-588
-384
-118
130
322
453
523
518
433
294
154
59
9
-33
-94
-168
-224
-240
-227
-210
-214
-255
-326
-390
-406
-375
-334
-300
-250
-176
-131
-171
-253
-243
-85
84
65
-153
-350
-319
-114
10
-93
-301
-388
-286
-127
-47
-41
-17
58
131
150
125
99
99
113
125
133
146
174
218
256
268
281
367
546
718
718
509
263
194
336
502
497
340
220
271
440
581
628
640
672
703
690
648
649
720
797
806
763
742
771
802
769
674
591
563
548
473
323
167
82
79
89
40
-82
-221
-299
-283
-211
-141
-101
-65
-19
12
-18
-96
-155
-155
-151
-240
-429
-619
-711
-708
-711
-793
-919
-1013
-1051
-1069
-1092
-1101
-1065
-1004
-972
-989
-1010
-984
-940
-976
-1140
-1356
-1466
-1388
-1198
-1035
-948
-845
-636
-355
-142
-80
-122
-163
-178
-212
-287
-347
-319
-212
-103
-43
-18
-7
-17
-55
-81
-52
11
33
-15
-52
30
223
387
389
237
65
-28
-57
-100
-186
-277
-324
-337
-360
-405
-444
-455
-461
-506
-578
-596
-471
-191
154
452
670
861
1070
1278
1430
1510
1541
1530
1448
1287
1111
1000
952
881
733
559
452
421
388
306
229
250
354
427
395
319
321
417
488
427
266
146
164
288
413
472
481
480
486
486
460
406
340
295
290
307
300
263
250
318
439
504
437
302
232
280
353
330
196
56
-1
6
-3
-66
-146
-194
-212
-224
-223
-163
-25
151
302
397
449
458
396
260
116
72
152
249
250
211
332
739
1286
1641
1598
1262
902
673
490
191
-238
-642
-867
-890
-799
-666
-511
-337
-187
-102
-84
-94
-103
-116
-129
-119
-53
72
204
295
360
477
692
958
1166
1248
1231
1194
1184
1181
1158
1128
1111
1079
986
877
885
1072
1324
1433
1321
1125
1033
1077
1120
1041
867
734
717
781
846
885
962
1175
1551
1994
2338
2504
2561
2622
2697
2646
2312
1715
1063
585
365
301
232
111
57
217
569
873
881
581
224
58
72
60
-99
-287
-314
-133
118
303
396
435
435
390
332
309
318
309
250
191
215
312
396
414
394
407
479
562
601
608
645
749
882
964
970
954
971
1005
1001
943
888
893
941
961
917
873
924
1072
1211
1250
1201
1139
1111
1103
1097
1106
1127
1115
1051
1018
1132
1381
1581
1566
1388
1271
1344
1491
1499
1327
1147
1114
1178
1179
1058
911
846
839
776
604
397
262
209
158
50
-82
-169
-192
-193
-204
-173
-1
336
737
1062
1268
1431
1644
1896
2071
2055
1843
1539
1277
1124
1054
993
896
776
667
581
493
401
341
343
374
343
202
26
-48
29
141
135
-14
-176
-216
-136
-62
-86
-174
-224
-188
-113
-58
-24
29
119
217
288
331
365
394
395
344
240
125
56
56
92
86
7
-83
-85
26
156
189
107
-9
-67
-51
2
67
138
193
199
152
98
85
101
92
25
-75
-154
-188
-200
-226
-267
-304
-314
-297
-288
-306
-328
-306
-228
-157
-166
-246
-296
-245
-164
-198
-395
-644
-790
-809
-797
-811
-792
-668
-476
-340
-312
-305
-203
-10
157
211
205
262
444
698
922
1045
1075
1043
991
947
900
807
645
456
330
320
389
467
550
692
880
968
798
395
-5
-167
-71
103
207
275
456
816
1249
1586
1750
1783
1751
1648
1418
1050
632
302
143
121
152
202
305
498
738
929
1005
975
874
727
560
429
371
353
294
161
22
-29
18
92
125
129
151
200
239
230
168
68
-32
-89
-75
-20
2
-52
-150
-238
-314
-422
-563
-673
-709
-734
-845
-1019
-1084
-897
-502
-96
182
376
606
898
1142
1232
1183
1087
996
883
727
583
534
583
625
567
442
364
397
467
443
287
101
14
48
124
168
198
280
434
597
693
710
705
721
741
714
630
530
459
412
363
298
232
172
75
-125
-440
-776
-993
-1028
-948
-877
-845
-725
-367
212
800
1165
1259
1234
1269
1401
1536
1576
1512
1399
1302
1255
1252
1259
1228
1136
997
837
672
512
391
346
373
405
384
334
331
402
484
505
475
466
510
558
556
531
552
620
646
552
377
240
215
258
273
231
175
152
163
179
185
186
181
156
117
90
101
146
194
221
225
226
244
275
294
268
197
126
104
134
164
144
79
27
31
65
71
29
-33
-81
-109
-129
-146
-152
-147
-150
-169
-199
-224
-237
-237
-221
-194
-176
-192
-241
-290
-309
-309
-330
-387
-449
-464
-416
-330
-243
-171
-121
-104
-121
-149
-150
-120
-92
-101
-127
-118
-54
30
85
108
134
188
241
260
251
258
306
370
408
416
424
452
473
446
368
282
242
259
286
268
200
146
167
245
300
277
213
189
233
292
312
308
334
387
407
365
314
321
369
365
267
145
102
138
160
105
18
-11
25
46
-15
-119
-183
-181
-164
-179
-212
-220
-197
-178
-179
-180
-156
-121
-109
-128
-156
-170
-175
-188
-204
-195
-164
-145
-144
-121
-38
84
165
152
98
106
209
337
397
389
392
446
499
487
439
453
563
679
702
644
617
692
815
878
851
797
778
798
827
849
875
910
927
922
931
985
1065
1121
1115
1062
1017
1008
1011
986
932
898
928
1009
1069
1042
944
857
840
867
861
772
615
444
298
171
30
-132
-282
-373
-401
-413
-470
-556
-556
-362
-13
315
471
491
559
834
1273
1669
1846
1803
1680
1618
1647
1708
1726
1674
1560
1395
1202
1036
966
1000
1057
1038
924
803
787
886
1006
1057
1035
991
954
919
890
882
899
915
905
876
861
866
861
830
800
808
842
831
726
574
479
499
577
605
549
480
487
569
638
629
577
566
633
716
733
669
584
539
530
504
432
342
284
267
252
203
141
127
190
283
324
289
233
217
234
218
135
23
-58
-98
-132
-167
-170
-115
-27
36
46
29
27
43
56
49
19
-26
-73
-112
-120
-91
-43
-6
2
-5
-2
26
67
90
82
56
44
63
100
127
132
136
165
223
286
331
364
414
497
600
685
725
728
722
720
709
669
601
529
476
445
434
447
483
525
553
564
579
606
625
608
559
509
486
486
484
477
475
480
478
459
426
394
367
328
267
187
119
96
117
143
134
90
62
97
175
226
221
202
213
213
94
-193
-550
-801
-854
-769
-669
-596
-476
-230
122
464
699
817
848
788
603
290
-105
-508
-852
-1088
-1181
-1142
-1035
-907
-690
-274
300
733
680
114
-578
-941
-897
-797
-1015
-1526
-1924
-1830
-1234
-445
231
719
1138
1590
2051
2418
2626
2690
2640
2471
2175
1797
1448
1223
1117
1044
949
870
895
1059
1307
1534
1669
1712
1678
1537
1259
893
566
387
337
295
190
89
101
206
250
121
-116
-328
-518
-838
-1351
-1839
-1953
-1558
-881
-268
175
640
1339
2213
2946
3244
3090
2725
2403
2190
1980
1679
1348
1134
1101
1131
1045
818
610
568
610
477
28
-533
-803
-589
-111
237
310
314
494
808
991
907
715
672
830
1025
1138
1273
1606
2114
2555
2700
2564
2359
2231
2104
1806
1324
877
667
649
593
368
113
50
193
321
264
118
113
303
494
481
262
-6
-205
-319
-376
-386
-344
-217
79
584
1165
1556
1613
1469
1318
1074
398
-849
-2270
-3216
-3392
-3094
-2790
-2579
-2195
-1424
-402
511
1059
1215
1064
699
229
-227
-621
-1020
-1518
-2096
-2613
-2939
-3065
-3058
-2948
-2711
-2343
-1897
-1436
-973
-502
-53
286
430
371
187
-47
-322
-675
-1090
-1447
-1597
-1509
-1272
-1026
-843
-699
-510
-204
217
664
982
1084
1037
991
975
788
211
-689
-1519
-1878
-1709
-1284
-874
-504
-31
614
1305
1810
1963
1760
1335
867
488
249
142
126
131
32
-263
-707
-1092
-1233
-1166
-1115
-1228
-1398
-1396
-1098
-572
37
607
1024
1173
1013
660
305
46
-157
-357
-499
-468
-241
73
357
583
765
872
837
653
402
168
-34
-244
-486
-714
-835
-779
-566
-300
-84
86
304
589
743
466
-320
-1294
-1948
-2031
-1725
-1383
-1127
-776
-139
710
1486
1948
2059
1909
1589
1160
709
338
112
32
64
179
353
532
657
694
639
502
309
113
-22
-64
-33
29
99
162
181
106
-67
-276
-454
-592
-727
-867
-959
-969
-947
-966
-1013
-988
-837
-636
-500
-430
-306
-55
237
410
417
381
464
695
954
1104
1098
991
868
778
702
583
379
113
-142
-328
-447
-545
-633
-682
-668
-617
-577
-563
-531
-423
-242
-64
23
2
-54
-54
21
90
70
-36
-125
-117
-47
-23
-94
-178
-165
-48
66
75
3
-45
-8
55
52
-27
-106
-126
-117
-149
-229
-283
-245
-151
-88
-95
-121
-103
-56
-61
-157
-283
-355
-352
-334
-355
-398
-415
-388
-343
-312
-301
-310
-349
-417
-490
-538
-572
-630
-720
-797
-819
-799
-790
-813
-828
-796
-742
-724
-753
-782
-780
-780
-827
-904
-937
-891
-823
-817
-876
-922
-898
-830
-797
-835
-903
-937
-918
-871
-820
-768
-700
-615
-530
-467
-430
-407
-380
-342
-314
-328
-389
-468
-518
-508
-455
-399
-362
-338
-299
-224
-122
-28
15
-16
-104
-205
-266
-276
-265
-273
-299
-293
-221
-121
-94
-214
-462
-746
-980
-1132
-1210
-1216
-1133
-944
-663
-340
-51
138
211
194
101
-92
-381
-674
-848
-872
-850
-871
-876
-736
-498
-450
-855
-1638
-2439
-2969
-3242
-3407
-3443
-3152
-2460
-1593
-886
-443
-102
277
588
607
277
-183
-484
-523
-409
-301
-256
-232
-189
-142
-133
-191
-312
-472
-643
-789
-858
-811
-654
-443
-261
-181
-226
-353
-486
-574
-600
-548
-396
-168
-2
-93
-513
-1085
-1497
-1580
-1444
-1321
-1291
-1210
-912
-428
43
350
500
580
618
573
440
284
178
126
76
-20
-148
-262
-333
-372
-432
-561
-761
-974
-1129
-1227
-1346
-1519
-1681
-1719
-1621
-1513
-1510
-1548
-1406
-909
-105
755
1393
1646
1510
1096
587
156
-121
-298
-460
-597
-570
-251
328
964
1424
1586
1469
1179
827
498
234
33
-128
-255
-322
-292
-171
0
159
243
201
14
-268
-521
-621
-543
-375
-230
-152
-102
-43
14
41
41
49
75
62
-55
-263
-459
-535
-470
-352
-274
-237
-153
56
342
548
538
339
117
8
1
-15
-93
-161
-124
-10
41
-72
-292
-467
-505
-446
-373
-298
-163
68
349
599
775
877
902
823
637
404
212
101
44
1
-24
10
100
195
242
254
268
262
154
-112
-456
-697
-714
-550
-357
-231
-137
27
299
611
857
976
978
901
784
646
496
351
242
197
213
257
298
339
392
438
431
345
215
117
96
141
201
239
249
251
261
275
271
231
167
119
119
153
172
146
94
55
44
42
28
-3
-35
-57
-75
-103
-142
-178
-190
-172
-136
-114
-127
-162
-189
-196
-201
-219
-248
-273
-283
-283
-276
-263
-251
-253
-268
-271
-244
-207
-199
-236
-281
-296
-281
-285
-342
-425
-469
-443
-385
-358
-379
-395
-351
-251
-157
-115
-97
-44
45
104
86
22
-1
68
186
269
275
235
215
250
327
398
426
399
342
300
303
340
371
366
332
305
316
362
407
423
405
377
366
376
389
388
375
365
365
366
353
322
280
235
181
125
84
64
39
-41
-184
-323
-385
-389
-428
-561
-734
-836
-831
-779
-721
-593
-309
103
493
749
911
1090
1312
1494
1547
1486
1386
1285
1173
1056
984
990
1024
978
792
528
325
262
295
298
199
57
7
118
321
476
507
446
358
270
175
90
57
89
146
172
159
148
184
258
316
306
225
126
63
47
46
30
16
52
144
227
222
120
3
-51
-58
-94
-201
-339
-423
-413
-353
-318
-331
-355
-343
-287
-230
-212
-230
-253
-263
-264
-274
-283
-273
-264
-296
-374
-447
-467
-461
-508
-622
-712
-688
-579
-520
-605
-767
-862
-825
-726
-679
-714
-763
-748
-655
-518
-394
-327
-332
-375
-409
-414
-415
-442
-488
-504
-481
-446
-428
-402
-317
-172
-45
-9
-56
-94
-39
107
263
352
363
351
381
469
572
625
615
577
553
557
570
579
583
582
567
539
517
517
525
513
482
474
509
560
578
553
537
571
631
650
598
518
476
487
495
447
359
297
296
327
331
291
253
247
251
223
152
78
39
21
-12
-58
-76
-35
32
67
53
29
37
70
80
41
-21
-64
-77
-81
-104
-141
-157
-128
-70
-22
-3
19
92
223
358
429
427
408
428
487
532
528
505
514
580
674
759
825
882
931
960
968
979
1008
1042
1056
1048
1045
1070
1109
1123
1097
1051
1015
1001
1000
1000
1000
1003
1004
989
949
892
837
797
769
727
650
548
464
440
468
478
407
280
187
170
172
89
-95
-292
-423
-526
-686
-880
-957
-810
-525
-321
-300
-326
-167
241
720
1017
1057
979
973
1100
1273
1368
1335
1206
1043
897
795
744
718
670
580
486
454
513
626
722
764
763
745
720
690
661
638
613
578
537
497
454
401
343
309
317
348
366
367
384
437
497
517
483
433
415
430
425
362
272
220
245
305
318
257
181
170
237
313
326
269
183
69
-126
-437
-800
-1077
-1175
-1121
-1003
-865
-678
-397
-34
329
597
696
612
391
125
-101
-272
-430
-631
-868
-1093
-1281
-1429
-1508
-1454
-1277
-1106
-1058
-1052
-872
-486
-236
-571
-1547
-2693
-3461
-3746
-3880
-4111
-4221
-3750
-2529
-893
639
1779
2564
3126
3479
3548
3311
2861
2348
1885
1537
1317
1213
1195
1231
1301
1383
1443
1438
1364
1245
1129
1047
990
914
788
628
491
420
414
451
532
686
929
1227
1512
1722
1837
1875
1866
1820
1743
1646
1537
1420
1292
1161
1059
1007
995
998
1002
1019
1065
1106
1084
988
881
832
825
793
709
634
644
732
824
860
849
824
791
733
651
575
541
570
670
810
905
869
719
587
589
718
854
909
922
975
1083
1213
1370
1577
1771
1805
1602
1294
1117
1168
1297
1306
1182
1083
1131
1269
1359
1351
1305
1275
1234
1128
976
874
886
977
1061
1100
1111
1090
997
843
721
733
864
983
991
953
1004
1140
1170
919
444
3
-197
-189
-161
-224
-319
-311
-138
187
647
1293
2171
3192
4130
4771
5046
5021
4770
4251
3371
2171
911
-95
-748
-1235
-1798
-2451
-2956
-3099
-2936
-2724
-2642
-2615
-2423
-1941
-1254
-535
111
687
1198
1588
1778
1746
1549
1259
908
533
215
66
177
512
882
1062
968
711
496
430
461
480
459
395
176
-380
-1252
-2075
-2383
-2060
-1475
-1069
-869
-488
374
1521
2428
2752
2606
2338
2160
2038
1889
1726
1607
1512
1382
1238
1187
1270
1387
1401
1293
1137
991
860
788
876
1100
1159
663
-430
-1636
-2314
-2231
-1747
-1333
-1061
-589
369
1636
2700
3160
2990
2435
1759
1112
582
235
103
149
302
535
865
1283
1699
1967
1973
1718
1303
877
561
408
413
520
657
764
825
851
849
805
717
644
660
779
902
857
543
35
-438
-665
-604
-369
-92
219
652
1244
1881
2368
2571
2496
2238
1887
1502
1142
880
767
784
855
923
975
1021
1049
1025
918
740
534
351
223
174
211
312
427
496
485
403
278
148
43
-16
-16
48
152
251
304
304
296
336
418
466
415
299
235
286
364
327
143
-53
-104
-4
118
164
160
194
297
414
488
515
522
514
470
379
251
123
39
47
160
338
520
681
848
1052
1273
1443
1512
1485
1398
1285
1177
1103
1080
1088
1086
1055
1022
1036
1102
1170
1184
1136
1073
1049
1069
1095
1086
1052
1035
1056
1078
1040
927
785
665
575
479
355
231
151
107
43
-77
-214
-287
-266
-201
-147
-80
84
381
739
1042
1227
1326
1415
1541
1687
1780
1743
1550
1260
999
852
788
699
518
289
114
45
57
95
132
169
205
234
261
307
373
434
461
447
405
350
308
310
363
430
449
393
297
225
213
242
267
255
213
172
160
174
176
136
70
19
-11
-80
-256
-523
-765
-867
-816
-692
-562
-418
-213
55
319
510
607
631
600
509
354
172
28
-34
-32
-32
-78
-149
-189
-172
-145
-171
-271
-416
-590
-810
-1081
-1348
-1535
-1626
-1682
-1757
-1809
-1742
-1502
-1142
-764
-436
-170
36
166
215
203
156
76
-51
-210
-345
-403
-387
-354
-362
-411
-454
-455
-428
-415
-432
-457
-473
-499
-564
-652
-698
-655
-598
-395
-328
-203
-35
91
106
24
-88
-181
-271
-399
-554
-673
-688
-591
-445
-316
-207
-81
73
202
245
201
141
115
77
-81
-408
-807
-1095
-1170
-1106
-1076
-1162
-1263
-1186
-853
-402
-67
32
-17
-35
64
212
279
209
44
-129
-259
-338
-388
-428
-467
-507
-552
-607
-668
-718
-738
-724
-706
-713
-738
-726
-639
-498
-384
-348
-339
-280
-171
-119
-216
-404
-536
-542
-502
-511
-518
-391
-149
-42
-316
-911
-1463
-1655
-1503
-1261
-1082
-851
-357
420
1258
1887
2198
2239
2090
1800
1412
1015
694
477
336
259
287
443
665
824
834
726
595
482
349
158
-35
-125
-80
2
-18
-190
-428
-621
-731
-801
-864
-896
-859
-773
-696
-642
-538
-301
59
431
710
896
1082
1340
1646
1888
1962
1861
1675
1519
1449
1429
1380
1263
1102
946
827
759
751
783
780
652
386
90
-62
-2
180
336
403
451
587
832
1098
1268
1293
1209
1080
926
715
423
94
-179
-335
-393
-416
-431
-413
-330
-199
-56
64
143
165
111
-1
-120
-196
-232
-288
-415
-585
-726
-789
-807
-872
-1036
-1249
-1403
-1433
-1369
-1290
-1230
-1153
-1011
-814
-625
-514
-512
-611
-767
-915
-1005
-1048
-1101
-1212
-1348
-1426
-1415
-1375
-1397
-1495
-1597
-1636
-1624
-1622
-1660
-1704
-1705
-1651
-1583
-1550
-1572
-1622
-1649
-1622
-1549
-1473
-1432
-1430
-1430
-1393
-1316
-1229
-1170
-1140
-1098
-1008
-878
-767
-725
-738
-741
-688
-607
-560
-570
-598
-588
-543
-500
-481
-468
-441
-415
-420
-446
-443
-394
-343
-345
-396
-427
-403
-361
-359
-404
-439
-423
-373
-343
-360
-405
-450
-483
-509
-539
-575
-616
-649
-653
-626
-593
-595
-638
-694
-724
-722
-721
-752
-817
-889
-929
-923
-896
-896
-950
-1036
-1099
-1093
-1034
-986
-996
-1046
-1077
-1053
-1005
-999
-1054
-1113
-1098
-1009
-923
-915
-959
-942
-788
-546
-357
-311
-370
-413
-365
-261
-196
-217
-276
-290
-219
-106
-15
18
13
9
15
22
33
56
84
96
92
114
197
295
317
244
173
217
349
412
310
133
59
151
282
298
191
94
101
177
222
199
148
100
55
18
0
-36
-145
-327
-508
-620
-709
-888
-1145
-1309
-1243
-1043
-942
-1015
-1072
-888
-499
-174
-100
-165
-103
187
552
775
804
778
835
987
1135
1192
1147
1042
924
811
711
632
575
535
503
474
454
457
467
461
446
458
497
513
456
362
339
435
562
575
433
262
222
332
471
513
460
398
374
362
317
254
225
242
266
256
232
233
261
282
284
293
328
354
325
251
205
243
329
384
378
353
359
388
402
389
368
345
292
200
111
85
132
186
187
144
107
107
138
170
186
176
139
88
60
77
116
131
111
91
103
133
138
107
69
56
65
77
86
106
139
171
199
229
265
298
318
332
351
366
359
341
346
390
438
445
415
414
483
585
634
598
530
514
567
632
648
614
574
565
579
602
632
665
671
617
528
480
520
584
567
444
316
300
385
438
361
212
119
137
202
229
212
202
222
243
244
247
275
299
266
175
94
80
122
160
158
133
111
94
68
42
35
48
48
6
-63
-113
-112
-71
-25
4
25
60
116
182
236
268
283
290
294
295
295
306
343
403
464
496
501
514
565
643
695
688
645
629
673
741
774
747
698
668
655
620
553
495
493
543
597
619
635
687
775
849
864
825
772
736
710
679
641
613
588
535
435
300
163
65
11
-40
-142
-309
-479
-565
-547
-497
-500
-539
-496
-282
55
375
588
735
925
1210
1541
1815
1951
1934
1818
1690
1613
1574
1493
1315
1068
842
697
622
575
532
510
526
567
609
649
696
745
777
769
717
649
600
587
597
587
527
429
334
276
254
241
221
204
223
293
391
465
477
430
377
366
398
416
364
255
167
160
210
239
207
162
157
178
160
80
-18
-76
-112
-181
-282
-348
-339
-298
-290
-302
-266
-178
-133
-195
-303
-339
-278
-227
-281
-388
-411
-312
-188
-152
-197
-235
-238
-272
-379
-509
-571
-555
-536
-560
-571
-486
-320
-189
-199
-321
-422
-416
-356
-366
-494
-645
-658
-493
-272
-151
-165
-196
-117
59
215
277
278
294
337
373
399
458
565
658
677
651
671
773
895
955
956
969
1045
1153
1221
1202
1108
1008
985
1071
1189
1202
1047
829
728
804
927
926
783
639
620
698
764
776
785
826
848
791
683
629
673
728
690
564
461
467
571
696
788
841
863
864
862
871
881
863
814
766
756
777
794
815
883
1000
1096
1102
1051
1028
1061
1058
930
728
612
665
787
825
752
688
732
849
927
918
866
813
773
760
807
913
1013
1025
957
908
949
1040
1090
1062
997
934
884
861
910
1049
1199
1242
1167
1079
1078
1123
1063
810
462
199
88
23
-134
-376
-539
-498
-324
-223
-313
-499
-593
-535
-447
-458
-525
-477
-222
148
462
643
744
845
966
1068
1095
1007
792
502
257
153
168
169
47
-163
-324
-358
-313
-299
-347
-385
-339
-235
-155
-126
-74
85
322
484
454
284
163
225
400
489
374
140
-30
-52
2
8
-65
-139
-135
-62
26
91
131
147
143
138
164
216
230
155
36
-11
66
183
203
95
-22
-24
69
115
15
-183
-345
-390
-338
-253
-175
-104
-30
51
137
219
277
294
263
192
93
-29
-150
-229
-235
-176
-99
-37
10
66
144
228
286
299
274
232
194
169
152
142
146
175
225
270
279
247
208
197
219
235
210
152
101
91
116
142
154
173
235
346
473
573
628
662
710
776
828
825
759
675
631
659
741
821
847
811
746
694
673
665
645
602
546
490
447
433
459
507
524
471
366
278
260
291
295
237
160
136
177
229
235
193
136
84
27
-38
-80
-73
-29
7
14
20
65
141
199
201
166
145
160
180
161
104
54
51
82
96
69
33
54
155
292
393
427
432
461
530
604
640
633
607
590
591
610
644
696
759
816
851
862
867
884
903
899
869
847
871
930
970
960
940
971
1050
1091
1021
883
801
852
978
1051
1020
950
941
1011
1092
1111
1054
953
843
735
632
543
481
446
416
368
306
269
297
378
454
494
559
764
1143
1584
1927
2114
2239
2420
2653
2811
2779
2557
2249
1955
1721
1543
1414
1311
1201
1062
915
819
815
880
931
895
778
662
645
745
881
955
935
878
858
893
943
962
949
938
954
982
982
930
842
771
759
798
836
827
775
728
729
776
837
881
891
867
817
765
746
767
796
787
736
686
679
701
708
680
646
631
626
602
556
522
520
530
518
477
439
422
411
380
331
292
282
286
278
248
213
191
181
172
158
146
145
134
85
-6
-90
-112
-68
-20
-26
-75
-94
-38
45
66
-3
-95
-126
-89
-47
-48
-65
-42
40
143
218
252
260
254
237
220
223
251
291
326
363
422
512
609
673
673
611
522
447
395
349
292
240
226
236
219
143
55
37
91
116
18
-149
-225
-121
46
65
-140
-423
-573
-532
-438
-452
-569
-640
-526
-244
65
290
426
525
612
670
680
652
597
511
401
316
312
339
248
-100
-692
-1339
-1817
-2009
-1948
-1741
-1482
-1202
-860
-387
232
878
1329
1415
1172
822
591
534
552
522
422
324
310
409
585
747
805
736
584
424
293
195
136
136
185
229
221
184
175
219
281
326
347
340
254
45
-232
-438
-485
-433
-389
-352
-211
110
506
775
800
629
397
187
-21
-285
-616
-955
-1192
-1222
-1028
-724
-481
-376
-327
-193
37
230
265
216
289
582
976
1261
1355
1360
1414
1536
1637
1642
1553
1419
1292
1227
1253
1353
1436
1413
1258
1027
806
644
530
406
219
-32
-278
-414
-397
-285
-178
-122
-76
20
155
274
338
375
425
481
487
407
282
208
250
387
522
571
544
505
501
507
461
349
225
152
147
170
186
209
273
379
479
513
466
383
333
338
352
282
65
-262
-576
-760
-788
-721
-629
-523
-355
-96
215
485
631
638
546
384
156
-132
-419
-598
-611
-526
-476
-517
-563
-495
-326
-211
-278
-482
-664
-726
-712
-716
-754
-760
-691
-587
-518
-502
-508
-504
-489
-467
-431
-385
-360
-382
-427
-438
-371
-253
-158
-146
-203
-263
-269
-219
-164
-158
-210
-281
-311
-275
-204
-144
-125
-133
-146
-152
-166
-202
-252
-283
-264
-196
-117
-72
-73
-92
-94
-84
-97
-153
-221
-251
-244
-252
-310
-383
-405
-370
-340
-362
-413
-416
-346
-265
-246
-292
-338
-337
-318
-330
-369
-392
-382
-375
-397
-401
-313
-140
-14
-52
-222
-357
-343
-246
-229
-352
-494
-488
-297
-41
151
259
348
452
532
549
523
524
579
637
624
540
464
480
598
735
796
756
676
645
709
832
930
943
897
883
950
1040
1051
960
864
855
903
901
821
765
842
1011
1103
1029
874
796
834
880
813
624
415
311
349
462
531
476
335
211
155
113
2
-171
-309
-345
-286
-154
80
444
868
1212
1405
1517
1656
1826
1949
1985
1954
1878
1736
1542
1380
1326
1333
1259
1039
768
589
529
498
431
371
381
435
442
372
288
271
319
370
368
320
274
293
414
606
763
774
648
516
496
570
603
528
432
426
486
490
410
363
446
583
615
523
466
560
691
655
438
261
304
471
510
330
105
56
188
322
323
230
158
154
178
187
171
129
55
-35
-105
-127
-120
-117
-121
-116
-97
-72
-37
21
76
80
31
4
60
161
197
118
26
52
204
343
344
224
114
112
187
243
242
209
185
177
173
189
250
349
423
425
367
312
300
322
349
370
383
384
374
390
470
604
732
802
823
843
880
899
861
787
736
742
783
803
772
728
730
785
832
790
653
506
446
477
518
507
459
439
467
498
481
418
356
319
279
209
124
71
72
94
78
16
-50
-66
-34
-7
-21
-52
-39
33
112
147
131
97
73
62
62
66
49
-3
-53
-25
119
317
443
437
369
352
422
488
451
309
154
68
44
14
-54
-114
-101
-13
89
151
189
258
372
483
533
518
477
448
435
430
438
472
523
574
611
643
688
745
791
799
756
664
543
420
310
219
143
81
36
0
-33
-59
-70
-70
-74
-94
-143
-229
-343
-454
-522
-533
-520
-517
-496
-373
-95
278
610
793
838
864
983
1202
1405
1435
1240
936
724
697
745
675
421
99
-140
-263
-334
-405
-442
-426
-413
-473
-578
-600
-462
-263
-233
-544
-1134
-1738
-2082
-2097
-1943
-1825
-1769
-1607
-1160
-441
338
934
1251
1348
1329
1252
1101
846
509
184
-40
-160
-243
-328
-392
-408
-426
-539
-741
-905
-954
-1021
-1346
-1983
-2683
-3125
-3235
-3212
-3231
-3195
-2846
-2046
-951
125
950
1471
1740
1812
1714
1469
1109
673
222
-157
-383
-434
-371
-288
-247
-269
-350
-476
-616
-729
-795
-820
-821
-791
-717
-606
-515
-505
-579
-684
-751
-747
-684
-598
-545
-576
-697
-855
-942
-884
-713
-531
-394
-248
0
329
603
715
723
768
865
861
625
248
-15
-7
169
282
225
106
99
265
508
683
710
614
485
414
427
466
446
340
212
144
150
164
136
103
161
332
512
562
447
272
183
216
268
214
47
-109
-116
39
234
334
323
309
396
567
698
701
611
529
497
479
448
424
441
476
466
403
361
408
523
622
659
649
626
606
600
636
706
742
688
577
501
470
345
-6
-508
-895
-971
-808
-641
-565
-431
-61
481
915
1046
971
929
1019
1114
1081
964
934
1068
1272
1417
1483
1513
1480
1287
872
308
-249
-697
-1019
-1213
-1232
-1023
-617
-150
230
485
676
845
905
702
213
-375
-809
-1008
-1114
-1277
-1447
-1423
-1090
-545
4
402
612
647
549
416
370
436
529
557
541
586
743
930
1004
890
607
244
-69
-208
-147
-1
55
-25
-84
79
462
821
871
544
33
-384
-548
-487
-333
-186
-66
71
272
526
768
909
892
734
525
362
291
292
320
357
403
450
467
441
405
402
441
475
450
373
300
292
354
434
458
384
243
112
60
94
152
163
109
36
-5
-11
-19
-51
-100
-143
-175
-194
-190
-158
-119
-113
-160
-234
-294
-331
-365
-412
-455
-471
-449
-403
-365
-347
-340
-315
-256
-189
-167
-221
-312
-364
-342
-297
-303
-369
-432
-433
-378
-317
-273
-228
-163
-94
-56
-56
-72
-85
-93
-91
-76
-45
-10
29
82
158
240
285
267
203
136
81
21
-66
-162
-221
-198
-80
91
245
330
345
336
337
329
281
207
148
114
71
25
83
357
805
1213
1388
1335
1225
1167
1120
1009
873
822
876
931
916
899
971
1063
952
518
-86
-557
-737
-738
-743
-784
-732
-490
-125
198
386
462
495
513
504
466
437
468
586
773
975
1120
1155
1076
939
810
717
654
616
635
753
957
1158
1262
1254
1209
1208
1256
1292
1275
1233
1223
1268
1327
1351
1349
1368
1421
1465
1463
1449
1477
1539
1552
1461
1335
1283
1279
1131
675
8
-534
-687
-520
-320
-254
-201
70
593
1127
1380
1255
895
502
179
-92
-369
-660
-880
-890
-613
-140
291
505
551
645
924
1270
1426
1275
977
811
897
1110
1234
1171
996
834
751
751
835
998
1202
1390
1534
1641
1732
1797
1800
1718
1571
1399
1237
1107
1018
965
927
885
835
785
743
726
737
737
667
507
341
284
343
374
251
40
-81
-47
18
-10
-63
1
147
149
-107
-418
-511
-440
-575
-1158
-1975
-2615
-2966
-3277
-3709
-3986
-3678
-2750
-1678
-952
-564
-116
631
1418
1789
1609
1175
864
778
770
750
776
866
867
586
70
-404
-651
-818
-1219
-1907
-2547
-2764
-2538
-2178
-1938
-1717
-1259
-553
56
218
-29
-285
-181
261
707
882
831
816
1016
1363
1643
1707
1569
1345
1101
846
581
360
250
263
341
432
538
685
847
935
879
705
511
371
280
223
228
336
515
658
677
594
504
477
500
531
569
654
803
986
1146
1233
1233
1161
1041
908
795
721
682
665
655
657
700
803
934
1024
1025
966
922
928
941
908
850
841
899
938
858
693
580
600
671
652
529
439
497
655
759
737
664
645
693
742
751
738
738
758
799
881
1019
1173
1272
1297
1310
1387
1525
1634
1630
1526
1418
1384
1398
1338
1127
832
629
645
828
1024
1145
1252
1457
1759
2032
2160
2145
2081
2037
1997
1913
1777
1641
1562
1548
1539
1457
1272
1053
882
738
497
77
-413
-746
-790
-647
-534
-535
-519
-334
-26
198
218
145
193
415
673
852
1032
1381
1915
2429
2721
2801
2840
2926
2947
2746
2328
1847
1429
1070
702
351
128
88
161
201
126
-22
-132
-119
4
165
292
371
446
580
776
975
1101
1113
1025
883
730
580
431
288
169
86
25
-30
-75
-67
9
101
132
69
-41
-129
-178
-214
-239
-235
-196
-150
-121
-88
-44
-17
-53
-140
-212
-238
-286
-454
-744
-1057
-1293
-1422
-1467
-1437
-1313
-1099
-834
-557
-276
3
241
378
387
292
154
21
-90
-197
-317
-427
-476
-439
-360
-323
-364
-432
-474
-506
-595
-740
-838
-801
-671
-570
-553
-543
-443
-266
-140
-156
-269
-344
-292
-137
19
105
126
144
200
288
363
389
360
300
242
198
166
150
156
185
220
236
225
209
220
257
283
256
188
143
169
245
289
246
146
70
73
124
148
105
32
-4
13
36
7
-70
-147
-190
-219
-273
-339
-356
-282
-164
-99
-119
-147
-108
-20
20
-36
-136
-216
-304
-473
-695
-812
-711
-478
-313
-296
-288
-111
217
489
540
412
262
182
155
137
143
179
212
203
181
226
346
450
445
349
269
271
316
346
369
440
565
667
661
546
412
344
341
342
309
265
269
338
428
481
481
456
433
393
304
190
128
155
208
181
54
-91
-159
-147
-135
-199
-352
-555
-740
-836
-814
-736
-714
-789
-847
-715
-347
103
427
576
675
857
1115
1324
1380
1274
1065
817
582
410
337
335
322
236
98
-2
7
101
186
190
118
44
30
72
125
157
159
138
104
77
73
91
109
107
87
64
41
13
-18
-33
-22
-2
14
27
43
58
63
65
85
122
131
69
-47
-140
-144
-74
-11
-14
-72
-122
-120
-73
-20
3
-13
-58
-106
-135
-137
-129
-146
-207
-288
-345
-346
-313
-298
-331
-377
-380
-335
-308
-362
-473
-546
-525
-471
-496
-628
-762
-778
-672
-549
-505
-535
-565
-543
-485
-437
-422
-431
-450
-462
-458
-431
-391
-356
-330
-308
-289
-277
-274
-265
-240
-207
-178
-147
-92
-10
68
121
163
220
271
269
209
153
162
214
234
193
156
200
306
379
364
307
296
348
389
357
265
183
162
182
188
140
44
-56
-122
-149
-174
-226
-291
-321
-291
-233
-214
-262
-338
-384
-384
-380
-412
-479
-532
-528
-462
-375
-310
-286
-295
-324
-361
-393
-406
-397
-388
-396
-406
-382
-308
-222
-184
-198
-214
-190
-142
-121
-137
-135
-73
24
92
108
121
182
281
369
422
465
524
587
623
625
616
600
558
488
432
440
495
528
496
446
457
537
606
595
531
491
498
488
409
301
257
293
315
236
96
32
106
233
288
248
206
241
315
321
199
-8
-212
-377
-520
-665
-794
-845
-761
-531
-215
89
302
432
567
788
1082
1324
1391
1283
1131
1072
1117
1164
1120
993
850
723
598
477
409
409
410
321
147
17
42
184
298
287
201
144
154
193
240
316
418
488
461
363
301
330
364
225
-169
-704
-1158
-1375
-1383
-1302
-1199
-1017
-647
-63
630
1246
1632
1728
1553
1171
666
148
-265
-497
-572
-575
-549
-434
-134
332
782
985
861
545
263
140
132
107
-14
-192
-316
-321
-240
-163
-155
-186
-186
-135
-83
-75
-94
-76
-8
49
31
-41
-97
-100
-72
-46
-20
1
-53
-276
-650
-966
-976
-641
-197
73
149
285
691
1247
1610
1607
1402
1265
1240
1152
909
673
653
825
970
947
847
836
928
1013
1015
952
856
747
691
767
936
1016
900
709
667
814
954
930
819
795
873
898
815
747
788
811
629
301
127
293
621
754
559
257
138
249
408
442
343
222
160
148
157
179
221
261
265
236
217
246
305
317
234
105
37
84
173
178
67
-64
-84
52
250
357
298
144
43
87
242
387
419
352
287
316
445
605
719
762
755
732
714
729
795
883
920
858
751
711
793
928
992
936
825
751
745
754
713
600
433
265
157
138
162
143
39
-99
-183
-194
-207
-296
-447
-587
-678
-742
-803
-835
-806
-748
-730
-773
-831
-889
-996
-1210
-1480
-1680
-1757
-1806
-1917
-1963
-1699
-1101
-504
-288
-437
-535
-248
272
586
513
328
374
630
794
731
640
734
903
832
431
-2
-127
51
210
123
-93
-160
19
281
424
422
380
363
331
257
200
222
302
363
365
330
290
244
194
179
221
272
257
185
153
208
291
311
263
224
234
247
203
108
15
-48
-80
-72
-14
56
59
-16
-91
-78
-9
-1
-114
-276
-368
-353
-291
-250
-248
-270
-302
-324
-326
-319
-339
-401
-474
-535
-589
-652
-696
-663
-559
-487
-538
-678
-783
-781
-721
-696
-717
-728
-694
-645
-609
-560
-471
-376
-350
-410
-488
-498
-445
-403
-428
-492
-519
-472
-390
-327
-302
-295
-273
-237
-215
-231
-268
-262
-180
-67
-14
-50
-99
-61
74
189
179
62
-35
-25
57
107
74
-11
-99
-168
-208
-196
-127
-54
-49
-124
-209
-227
-178
-137
-168
-265
-369
-428
-445
-455
-490
-538
-554
-514
-444
-400
-406
-433
-435
-416
-412
-430
-444
-440
-435
-439
-417
-311
-140
-10
-2
-85
-143
-108
-28
-2
-61
-145
-181
-158
-124
-116
-124
-104
-38
45
92
87
66
86
168
272
350
391
425
483
561
636
689
722
748
769
788
803
809
805
801
805
808
791
746
696
674
690
708
694
646
599
579
576
565
538
516
519
539
547
516
445
360
283
207
106
-31
-180
-311
-407
-484
-570
-683
-813
-928
-1000
-1039
-1081
-1134
-1130
-971
-630
-208
143
359
522
752
1078
1405
1614
1662
1595
1491
1412
1378
1364
1311
1167
928
659
452
359
366
410
441
451
453
472
535
640
739
762
670
513
389
351
358
338
282
256
298
348
312
193
101
131
246
322
288
189
114
101
119
124
100
54
-6
-64
-96
-89
-56
-26
-17
-19
-25
-41
-73
-119
-168
-211
-248
-282
-313
-337
-356
-364
-367
-372
-387
-416
-458
-502
-541
-567
-581
-595
-627
-680
-727
-729
-692
-664
-684
-727
-735
-690
-652
-676
-744
-781
-763
-755
-818
-904
-903
-788
-669
-664
-748
-777
-685
-571
-590
-757
-920
-941
-842
-746
-717
-700
-613
-464
-335
-281
-276
-263
-240
-250
-318
-411
-469
-466
-440
-449
-510
-584
-610
-568
-502
-479
-517
-564
-558
-492
-419
-381
-364
-323
-246
-188
-221
-364
-565
-754
-913
-1070
-1251
-1421
-1501
-1438
-1257
-1028
-800
-583
-379
-207
-95
-51
-82
-202
-412
-657
-831
-884
-887
-953
-1092
-1197
-1160
-1011
-879
-839
-860
-913
-1077
-1471
-2062
-2613
-2879
-2827
-2640
-2467
-2248
-1797
-1054
-205
461
784
805
644
395
101
-212
-520
-799
-1006
-1066
-962
-782
-669
-664
-660
-567
-496
-660
-1093
-1527
-1638
-1366
-975
-745
-675
-539
-192
236
479
423
202
34
0
7
-67
-220
-339
-321
-161
72
286
401
362
169
-91
-300
-426
-549
-743
-962
-1073
-1019
-900
-845
-880
-935
-958
-966
-968
-878
-593
-137
326
639
810
973
1216
1473
1587
1467
1187
909
738
649
545
379
187
27
-95
-208
-312
-368
-359
-319
-306
-330
-347
-326
-281
-245
-242
-295
-433
-633
-787
-783
-647
-547
-606
-763
-843
-772
-655
-636
-722
-803
-814
-802
-833
-889
-899
-856
-827
-852
-893
-896
-858
-824
-822
-833
-835
-833
-837
-836
-820
-808
-832
-887
-936
-958
-966
-978
-985
-969
-946
-961
-1019
-1080
-1111
-1125
-1153
-1195
-1208
-1177
-1145
-1173
-1260
-1340
-1369
-1375
-1437
-1570
-1705
-1750
-1692
-1605
-1578
-1617
-1644
-1586
-1460
-1365
-1373
-1460
-1520
-1476
-1356
-1257
-1240
-1278
-1300
-1273
-1217
-1172
-1147
-1123
-1091
-1053
-1002
-925
-827
-737
-686
-677
-689
-702
-718
-740
-749
-718
-644
-567
-512
-462
-382
-279
-211
-225
-294
-341
-311
-235
-180
-165
-151
-100
-29
12
1
-31
-46
-47
-60
-92
-123
-135
-129
-112
-85
-52
-43
-77
-133
-159
-130
-87
-89
-149
-216
-228
-183
-131
-122
-163
-213
-227
-198
-153
-118
-94
-67
-34
-11
-4
3
29
62
66
39
19
46
112
160
157
121
96
98
125
170
231
287
309
305
320
379
440
427
333
242
235
303
361
360
348
400
508
584
570
505
476
502
517
468
395
382
444
510
519
489
490
531
543
476
365
288
260
218
114
-7
-60
-52
-76
-187
-308
-322
-214
-88
-19
65
292
672
1060
1306
1415
1504
1651
1818
1925
1933
1852
1682
1438
1189
1039
1001
966
802
529
300
231
285
345
357
353
350
321
277
323
528
789
903
796
626
608
766
924
934
831
754
771
823
846
855
888
927
926
883
857
885
936
941
874
776
714
732
813
889
891
803
692
646
699
781
788
686
543
462
481
545
573
532
466
427
425
438
442
436
426
410
379
330
275
247
269
329
374
359
306
284
331
392
383
292
203
181
193
162
88
47
93
180
222
222
263
395
558
659
686
708
785
895
977
1002
993
986
1002
1039
1077
1100
1111
1131
1180
1252
1309
1322
1309
1317
1359
1397
1379
1306
1235
1214
1224
1208
1152
1103
1122
1202
1277
1286
1249
1220
1222
1228
1199
1145
1099
1081
1071
1047
1023
1028
1075
1128
1136
1089
1030
1015
1050
1079
1048
956
855
805
812
834
813
740
663
642
690
762
803
805
804
824
846
829
785
764
783
795
747
665
651
755
904
972
917
817
770
792
820
799
741
683
661
694
793
942
1087
1179
1223
1275
1355
1416
1393
1291
1188
1148
1163
1189
1223
1299
1421
1540
1618
1677
1748
1804
1770
1635
1498
1472
1539
1576
1514
1435
1464
1596
1682
1598
1399
1240
1183
1136
972
689
414
276
278
314
274
148
23
-9
68
196
315
440
648
981
1383
1742
1993
2158
2300
2447
2567
2604
2523
2347
2148
1991
1896
1830
1747
1636
1515
1392
1267
1148
1072
1055
1057
1011
904
826
864
998
1116
1137
1074
977
872
773
723
756
824
819
725
694
865
1159
1300
1131
816
671
775
874
709
356
130
207
438
554
499
443
515
629
619
465
306
252
255
210
108
55
148
352
516
515
366
195
107
88
57
-31
-130
-162
-115
-42
18
76
138
162
112
26
-10
33
67
-6
-150
-217
-121
53
134
50
-106
-188
-167
-134
-192
-334
-447
-437
-321
-194
-122
-83
-15
89
169
184
184
263
430
594
658
628
605
671
796
882
871
797
736
723
745
776
825
919
1052
1163
1197
1164
1139
1179
1242
1223
1089
932
874
933
1008
1004
952
957
1052
1151
1160
1091
1045
1075
1115
1068
935
814
780
801
794
724
645
622
654
676
644
576
513
472
437
395
362
357
386
429
472
511
542
544
506
449
416
422
425
372
275
213
260
387
483
465
370
316
375
491
555
537
510
557
648
679
610
519
510
569
590
544
549
729
1026
1233
1231
1132
1122
1202
1194
973
637
388
295
246
137
4
-55
-47
-86
-223
-366
-402
-342
-316
-400
-513
-521
-389
-228
-179
-287
-492
-684
-805
-890
-1009
-1193
-1375
-1454
-1393
-1270
-1197
-1220
-1290
-1326
-1285
-1155
-937
-669
-431
-274
-158
11
261
512
663
706
706
694
648
584
588
706
825
760
462
102
-105
-130
-123
-213
-364
-446
-406
-297
-184
-70
53
140
128
22
-79
-81
5
87
118
143
220
318
341
256
155
155
241
274
164
-11
-89
-12
115
152
79
-6
-28
-10
-21
-74
-116
-103
-61
-51
-93
-161
-205
-206
-196
-221
-294
-372
-399
-368
-336
-361
-430
-475
-456
-413
-421
-502
-596
-634
-608
-581
-605
-673
-730
-732
-694
-676
-711
-771
-796
-759
-703
-693
-731
-752
-701
-601
-523
-497
-489
-458
-427
-440
-496
-536
-521
-485
-490
-551
-613
-612
-541
-447
-375
-343
-333
-319
-286
-224
-132
-32
40
60
46
25
12
-5
-38
-78
-93
-78
-51
-18
54
208
420
589
617
507
364
281
258
210
78
-95
-203
-169
-18
149
233
208
140
115
152
182
118
-44
-195
-224
-139
-49
-44
-96
-118
-82
-46
-70
-121
-124
-56
24
66
94
157
242
285
254
200
169
154
115
49
-1
-26
-59
-124
-177
-163
-91
-16
53
165
318
394
265
-41
-324
-404
-298
-167
-105
-23
241
724
1275
1694
1899
1951
1949
1915
1798
1563
1260
1002
863
835
845
838
816
803
805
798
749
653
530
425
388
433
529
620
656
623
549
460
371
286
215
152
76
-19
-117
-208
-319
-486
-690
-852
-916
-924
-956
-1005
-953
-706
-322
32
261
442
718
1110
1483
1676
1648
1490
1324
1208
1120
1004
828
616
425
292
212
161
130
125
133
113
48
-16
-7
81
165
161
51
-125
-322
-505
-642
-713
-742
-760
-750
-656
-482
-347
-389
-626
-937
-1182
-1305
-1327
-1279
-1193
-1111
-1048
-937
-686
-330
-71
-74
-264
-391
-291
-37
188
307
358
377
365
335
319
225
-183
-1044
-2129
-2951
-3181
-2930
-2562
-2275
-1947
-1383
-592
189
712
886
774
514
228
-17
-222
-427
-629
-770
-784
-676
-508
-341
-190
-80
-74
-224
-498
-784
-968
-1012
-946
-831
-721
-635
-552
-450
-340
-273
-271
-273
-185
-5
135
91
-124
-332
-363
-240
-170
-353
-794
-1293
-1605
-1640
-1487
-1302
-1142
-940
-589
-80
486
953
1189
1133
822
380
-39
-336
-499
-562
-550
-465
-318
-126
74
196
77
-446
-1376
-2452
-3293
-3675
-3652
-3406
-3017
-2414
-1534
-473
536
1274
1646
1672
1438
1070
686
351
63
-192
-365
-374
-230
-60
15
3
-35
-137
-425
-901
-1330
-1483
-1484
-1787
-2668
-3797
-4452
-4216
-3398
-2662
-2295
-1964
-1170
147
1509
2336
2395
1859
1081
357
-177
-522
-766
-965
-1058
-944
-630
-306
-185
-305
-524
-719
-904
-1160
-1461
-1647
-1568
-1241
-825
-469
-206
3
176
292
341
368
431
536
628
648
586
489
407
341
262
162
58
-36
-147
-292
-426
-491
-495
-524
-634
-769
-830
-795
-732
-685
-583
-331
57
438
678
784
882
1105
1482
1886
2097
1957
1526
1069
814
729
580
210
-274
-628
-732
-687
-656
-675
-669
-594
-512
-516
-602
-667
-611
-445
-305
-339
-570
-828
-894
-718
-491
-457
-664
-927
-1019
-897
-709
-613
-633
-685
-697
-672
-657
-675
-708
-718
-694
-655
-636
-651
-668
-641
-570
-513
-528
-617
-727
-818
-892
-964
-1020
-1025
-974
-910
-882
-892
-895
-853
-772
-691
-641
-630
-638
-640
-617
-582
-573
-624
-720
-807
-851
-880
-952
-1072
-1178
-1201
-1142
-1075
-1065
-1103
-1129
-1103
-1052
-1046
-1116
-1219
-1272
-1233
-1132
-1037
-982
-940
-874
-785
-711
-679
-673
-662
-646
-645
-664
-671
-641
-593
-563
-559
-544
-474
-353
-240
-183
-175
-170
-133
-81
-53
-61
-67
-25
55
120
119
64
22
46
116
161
129
46
-6
31
130
198
167
53
-58
-100
-99
-128
-219
-317
-349
-315
-296
-357
-458
-499
-443
-377
-411
-531
-596
-492
-282
-170
-296
-572
-766
-736
-554
-406
-388
-411
-330
-102
163
336
372
324
255
181
83
-41
-153
-203
-172
-89
-13
17
22
58
143
230
254
211
177
229
358
487
563
608
662
722
740
686
599
546
560
613
644
612
532
452
418
433
453
444
410
394
421
466
502
536
573
590
547
442
333
274
239
153
8
-107
-93
15
72
-17
-175
-233
-131
14
58
7
37
299
751
1198
1481
1600
1674
1806
1997
2168
2206
2042
1723
1425
1320
1404
1482
1375
1106
861
767
768
724
597
475
433
455
489
543
654
786
841
767
635
565
593
642
620
524
439
436
496
546
538
496
481
519
572
585
558
538
555
580
567
528
528
586
631
584
465
391
424
495
484
363
234
205
267
307
251
141
76
96
153
173
140
89
59
46
18
-36
-89
-97
-52
-8
-21
-89
-148
-133
-52
20
17
-52
-120
-130
-86
-29
-10
-41
-91
-123
-118
-93
-86
-103
-116
-95
-42
16
63
108
167
239
300
336
356
381
425
485
545
594
627
650
688
757
830
855
803
716
673
706
751
713
571
410
338
376
443
451
388
320
310
359
416
431
397
348
328
349
377
356
266
154
95
116
170
198
186
178
208
255
277
254
208
159
110
44
-43
-126
-179
-187
-162
-132
-125
-138
-144
-114
-56
-19
-45
-118
-181
-189
-156
-129
-132
-147
-144
-123
-105
-104
-99
-61
15
106
181
225
247
274
325
393
452
474
470
481
543
638
712
728
704
694
723
771
802
813
823
843
865
885
910
942
952
915
849
797
773
753
715
685
707
788
877
929
955
990
1032
1037
974
868
767
695
625
522
392
285
238
216
139
-37
-257
-413
-464
-481
-555
-661
-656
-439
-79
235
391
464
617
922
1277
1514
1560
1492
1455
1529
1668
1774
1775
1670
1499
1307
1123
971
871
825
809
797
798
852
970
1095
1152
1114
1034
984
984
983
917
792
696
714
833
931
857
569
171
-170
-358
-431
-507
-632
-711
-577
-171
378
846
1114
1235
1327
1407
1375
1168
873
657
594
602
560
445
338
324
399
487
512
451
331
214
162
201
289
342
329
303
335
405
414
309
177
155
265
389
419
390
427
568
708
730
653
610
677
787
824
768
705
715
783
840
854
863
911
994
1066
1101
1115
1148
1204
1243
1219
1138
1071
1081
1159
1227
1235
1224
1256
1347
1443
1497
1514
1528
1568
1624
1657
1637
1576
1545
1612
1746
1824
1779
1717
1817
2096
2339
2322
2094
1949
2085
2368
2513
2417
2259
2261
2437
2628
2725
2767
2828
2889
2883
2795
2689
2622
2585
2531
2428
2299
2179
2108
2089
2082
2037
1966
1929
1950
1958
1847
1630
1476
1530
1718
1793
1600
1266
1066
1126
1300
1356
1230
1041
910
846
794
739
705
689
634
525
424
397
435
464
427
331
227
142
73
-1
-78
-137
-153
-112
-41
7
9
-3
27
96
123
31
-162
-350
-436
-421
-379
-387
-465
-570
-626
-574
-444
-367
-459
-699
-913
-937
-782
-623
-608
-715
-806
-797
-729
-686
-698
-739
-776
-794
-793
-776
-762
-765
-770
-744
-691
-645
-606
-490
-217
172
521
726
831
950
1113
1232
1222
1101
948
790
609
424
308
303
334
277
105
-83
-184
-194
-189
-212
-225
-175
-68
46
137
221
308
362
339
248
157
127
157
206
244
274
294
284
240
204
223
285
319
273
186
148
193
260
274
243
234
276
316
285
185
99
86
120
133
94
35
-10
-38
-52
-46
-18
9
-3
-58
-110
-121
-104
-104
-155
-234
-287
-286
-247
-210
-198
-211
-228
-245
-271
-320
-378
-412
-401
-373
-380
-438
-490
-467
-361
-247
-204
-241
-294
-296
-247
-201
-206
-256
-321
-372
-401
-408
-394
-358
-314
-270
-224
-161
-76
19
95
132
144
162
209
272
319
333
339
378
453
533
582
601
620
644
650
621
579
548
521
477
425
395
393
385
349
326
365
445
471
397
285
244
288
317
245
98
-12
-12
56
105
88
50
73
191
345
433
405
322
295
356
418
375
225
80
47
113
193
232
249
283
337
390
428
456
468
449
396
332
285
266
275
314
372
419
420
379
340
348
392
419
400
359
337
347
367
379
396
432
466
465
423
370
337
317
290
255
226
202
165
117
97
134
203
235
203
154
164
244
330
356
324
291
307
364
415
424
386
317
234
141
32
-91
-202
-280
-334
-404
-497
-561
-524
-385
-220
-95
28
259
640
1076
1410
1579
1653
1748
1889
1993
1956
1746
1422
1085
817
642
529
425
295
146
8
-88
-124
-108
-75
-77
-141
-238
-292
-246
-124
-3
52
34
-27
-100
-158
-178
-154
-122
-141
-234
-348
-398
-349
-250
-181
-182
-232
-292
-340
-372
-385
-369
-336
-312
-308
-302
-273
-223
-190
-208
-278
-373
-467
-552
-635
-716
-784
-822
-835
-846
-875
-911
-919
-880
-829
-836
-924
-1036
-1078
-1031
-974
-998
-1100
-1185
-1180
-1116
-1087
-1137
-1219
-1269
-1290
-1332
-1411
-1460
-1407
-1264
-1119
-1049
-1036
-997
-892
-765
-696
-718
-788
-840
-849
-833
-816
-793
-752
-691
-631
-593
-576
-564
-546
-529
-528
-552
-590
-626
-647
-649
-644
-663
-733
-846
-946
-974
-929
-874
-860
-857
-779
-596
-396
-286
-279
-301
-287
-256
-248
-268
-295
-333
-381
-373
-235
-37
-18
-373
-1000
-1564
-1841
-1958
-2223
-2746
-3271
-3429
-3095
-2460
-1803
-1250
-759
-266
215
618
885
989
922
704
389
65
-196
-363
-429
-418
-374
-364
-419
-495
-496
-386
-252
-235
-385
-599
-726
-720
-661
-631
-625
-601
-574
-606
-696
-746
-679
-549
-497
-576
-680
-667
-513
-340
-266
-294
-342
-358
-358
-371
-379
-350
-297
-272
-293
-317
-287
-202
-115
-72
-75
-102
-132
-148
-124
-49
38
68
12
-81
-119
-66
33
94
86
39
3
6
35
49
13
-89
-240
-405
-541
-611
-608
-567
-545
-535
-448
-190
225
679
1046
1289
1443
1541
1594
1635
1707
1778
1721
1459
1092
839
800
845
760
482
146
-94
-204
-251
-290
-338
-401
-496
-597
-630
-549
-409
-325
-365
-482
-576
-580
-519
-476
-510
-602
-671
-663
-624
-665
-818
-976
-1005
-906
-825
-888
-1045
-1131
-1069
-968
-979
-1115
-1242
-1250
-1181
-1159
-1236
-1340
-1384
-1371
-1367
-1400
-1432
-1416
-1376
-1370
-1406
-1416
-1346
-1224
-1145
-1169
-1253
-1299
-1274
-1245
-1298
-1431
-1552
-1573
-1504
-1440
-1457
-1538
-1602
-1597
-1554
-1540
-1580
-1641
-1684
-1705
-1722
-1724
-1681
-1596
-1519
-1497
-1518
-1517
-1454
-1354
-1276
-1257
-1285
-1316
-1308
-1245
-1152
-1082
-1071
-1090
-1078
-1011
-933
-895
-890
-859
-776
-683
-640
-650
-660
-623
-545
-463
-401
-367
-360
-370
-372
-346
-295
-251
-237
-242
-244
-233
-215
-190
-162
-154
-192
-269
-341
-364
-348
-343
-381
-439
-474
-467
-432
-392
-366
-364
-399
-474
-561
-613
-621
-620
-658
-736
-787
-750
-640
-534
-473
-422
-333
-231
-209
-308
-452
-531
-541
-575
-689
-810
-827
-728
-615
-577
-588
-566
-494
-420
-375
-334
-263
-183
-143
-147
-141
-78
16
83
92
70
66
99
139
148
126
118
163
243
284
238
144
84
97
136
141
122
152
265
392
442
412
390
427
468
429
328
278
339
427
429
359
348
455
575
561
423
317
331
364
292
149
89
158
218
127
-49
-128
-49
66
100
117
264
559
859
1034
1112
1203
1342
1470
1533
1528
1468
1351
1212
1133
1166
1241
1218
1029
770
597
569
616
619
543
442
391
427
528
627
659
603
488
374
302
279
292
327
378
431
466
477
481
500
538
578
602
616
630
653
671
673
668
681
722
771
781
719
600
475
404
402
417
391
316
248
245
298
338
317
253
206
201
205
183
138
106
99
85
35
-34
-85
-101
-108
-135
-171
-181
-141
-71
-13
22
56
107
153
158
118
74
74
120
173
196
191
201
252
329
389
398
359
308
286
310
356
387
388
387
426
506
576
588
550
515
519
536
524
484
461
488
546
595
618
626
615
572
502
437
397
360
295
212
163
174
220
254
271
298
343
370
359
339
355
407
442
424
384
379
421
455
426
346
277
257
265
255
220
192
199
225
231
212
196
199
212
210
198
199
219
235
229
217
229
259
263
213
143
111
136
176
193
193
218
283
361
416
444
472
509
545
571
602
657
732
802
851
887
923
954
968
968
972
988
995
969
921
898
925
983
1027
1033
1024
1040
1097
1161
1187
1158
1107
1081
1098
1122
1105
1040
969
939
954
973
959
912
856
814
774
717
644
586
572
590
582
502
386
320
354
437
481
491
586
873
1296
1678
1902
2008
2133
2334
2543
2650
2603
2430
2200
1992
1853
1763
1641
1424
1149
923
801
738
658
564
530
585
669
720
759
857
1020
1160
1199
1153
1090
1036
973
909
894
936
963
899
772
686
699
750
760
726
693
628
415
0
-493
-844
-944
-890
-870
-970
-1102
-1095
-841
-396
54
333
437
546
839
1276
1587
1524
1104
584
203
0
-120
-210
-216
-69
222
597
998
1374
1656
1771
1694
1471
1173
847
527
255
70
-16
-28
9
92
214
325
359
297
173
54
-20
-44
-25
18
52
44
-17
-103
-167
-154
-26
196
428
568
593
580
626
731
816
827
792
764
727
606
394
190
107
144
218
278
370
578
911
1282
1582
1763
1836
1813
1707
1552
1407
1310
1235
1100
862
587
432
476
611
625
434
221
244
531
856
1004
1029
1162
1431
1551
1221
480
-303
-807
-1038
-1223
-1498
