-957
-1046
-1031
-977
-942
-899
-780
-575
-366
-244
-222
-248
-282
-336
-433
-556
-658
-717
-751
-758
-688
-483
-167
152
370
474
515
521
470
360
261
247
302
316
222
76
-2
35
125
193
238
307
411
492
505
471
452
473
509
532
540
530
484
395
306
285
346
422
431
366
292
259
250
228
203
222
304
395
428
398
363
366
387
368
298
222
182
172
155
134
164
277
421
483
417
297
246
299
368
355
264
197
224
301
320
238
120
60
76
122
150
151
141
116
77
58
118
260
384
349
121
-160
-291
-213
-72
-46
-141
-200
-113
38
87
9
-41
69
266
357
267
133
129
264
393
411
373
398
508
611
626
569
520
515
535
542
520
466
375
271
212
246
336
380
310
164
37
-17
-29
-54
-100
-123
-93
-37
-14
-57
-165
-319
-511
-714
-859
-848
-627
-226
248
701
1129
1598
2147
2707
3139
3360
3414
3413
3415
3400
3328
3190
2978
2654
2175
1576
990
553
297
137
-23
-195
-302
-277
-155
-69
-123
-289
-438
-489
-518
-678
-996
-1291
-1351
-1163
-923
-833
-906
-994
-986
-901
-808
-721
-618
-511
-467
-519
-605
-631
-572
-486
-431
-404
-368
-324
-331
-437
-606
-735
-745
-660
-587
-616
-734
-836
-847
-797
-776
-841
-959
-1069
-1163
-1277
-1409
-1473
-1376
-1151
-968
-976
-1139
-1265
-1215
-1059
-983
-1068
-1192
-1183
-1035
-913
-951
-1093
-1171
-1106
-987
-941
-985
-1025
-985
-890
-810
-765
-729
-674
-612
-580
-595
-643
-706
-758
-775
-731
-634
-528
-460
-440
-437
-412
-349
-277
-239
-251
-268
-221
-91
60
146
163
211
374
608
755
705
525
397
429
553
620
575
485
426
373
253
63
-100
-151
-136
-168
-283
-381
-331
-129
93
211
207
142
64
-28
-131
-216
-264
-297
-337
-350
-273
-109
52
117
93
72
114
187
216
174
105
67
79
127
187
245
291
304
256
140
-6
-112
-138
-120
-137
-230
-341
-365
-267
-121
-19
33
101
221
328
324
194
40
-19
54
192
297
327
313
314
372
490
636
757
805
757
647
546
507
525
552
553
545
574
647
714
705
608
487
423
442
486
459
325
145
3
-71
-113
-141
-102
65
322
558
729
946
1354
1939
2511
2904
3163
3460
3861
4223
4365
4268
4057
3805
3449
2918
2280
1697
1261
908
551
217
18
-4
48
24
-119
-305
-446
-537
-625
-742
-868
-961
-989
-931
-783
-573
-367
-227
-172
-181
-232
-311
-389
-419
-385
-352
-401
-526
-614
-564
-413
-299
-300
-342
-320
-254
-287
-503
-795
-953
-892
-737
-671
-742
-847
-878
-835
-790
-792
-827
-850
-837
-795
-749
-733
-768
-825
-851
-835
-855
-1003
-1248
-1438
-1447
-1309
-1170
-1107
-1062
-943
-766
-646
-649
-724
-795
-856
-946
-1070
-1160
-1171
-1140
-1128
-1126
-1069
-944
-823
-786
-820
-845
-810
-736
-646
-517
-336
-166
-101
-153
-218
-198
-115
-67
-94
-134
-113
-41
10
4
-13
24
113
198
233
223
209
226
279
347
413
470
510
509
450
348
252
212
230
262
276
281
304
346
372
362
341
347
389
419
380
264
128
53
68
132
166
125
40
-31
-69
-85
-82
-34
60
140
131
29
-98
-172
-174
-142
-125
-145
-200
-260
-287
-272
-250
-254
-254
-167
23
207
247
131
-2
-30
7
-17
-140
-250
-235
-126
-49
-53
-43
83
275
375
293
115
-8
-24
-22
-103
-250
-342
-288
-141
-42
-58
-112
-67
104
267
271
112
-59
-95
8
142
231
304
421
576
703
752
735
689
625
549
480
437
402
346
288
308
460
691
859
869
751
605
484
360
196
9
-145
-241
-308
-393
-480
-490
-356
-76
296
715
1173
1652
2088
2417
2651
2882
3174
3470
3636
3605
3439
3237
3017
2720
2325
1890
1488
1119
741
371
102
-18
-36
-39
-56
-55
-38
-69
-193
-363
-482
-519
-529
-566
-618
-658
-702
-775
-847
-848
-774
-713
-736
-783
-724
-519
-284
-160
-169
-222
-249
-267
-322
-410
-481
-514
-542
-594
-642
-633
-562
-488
-483
-567
-688
-776
-798
-777
-776
-839
-961
-1072
-1094
-986
-781
-571
-450
-443
-491
-501
-432
-333
-301
-378
-520
-648
-731
-809
-919
-1024
-1052
-980
-871
-795
-756
-693
-582
-475
-438
-451
-435
-361
-309
-380
-550
-673
-617
-397
-164
-67
-134
-263
-328
-293
-233
-241
-306
-311
-170
67
261
348
410
532
664
673
523
345
279
293
254
146
126
320
636
842
824
711
681
750
782
686
539
476
519
572
550
492
496
597
729
784
721
580
440
357
342
375
423
459
466
446
417
397
379
330
234
116
28
-15
-57
-157
-309
-418
-397
-248
-67
52
102
141
215
309
378
411
428
422
337
132
-143
-369
-450
-395
-287
-189
-109
-23
84
209
344
463
522
483
360
208
76
-14
-57
-43
31
132
212
262
301
342
360
333
299
326
427
537
585
581
590
641
681
640
523
389
277
164
32
-78
-89
9
141
236
316
478
775
1149
1497
1783
2058
2392
2775
3125
3375
3528
3630
3710
3734
3644
3414
3065
2647
2202
1747
1304
907
594
377
221
87
-27
-90
-97
-81
-85
-109
-133
-181
-307
-521
-721
-780
-673
-520
-456
-503
-573
-609
-641
-718
-812
-826
-709
-528
-395
-352
-341
-278
-142
10
104
92
-23
-195
-364
-478
-522
-518
-490
-449
-396
-338
-305
-333
-414
-491
-496
-428
-378
-451
-652
-864
-958
-912
-810
-751
-755
-779
-784
-760
-713
-649
-588
-564
-595
-661
-712
-706
-651
-591
-566
-570
-565
-530
-496
-528
-647
-785
-841
-774
-637
-510
-413
-308
-181
-61
26
95
159
173
78
-100
-241
-249
-144
-31
42
125
271
437
529
507
436
404
432
481
512
523
521
506
475
439
412
396
377
355
331
299
253
215
222
288
366
405
397
386
395
394
348
270
226
264
368
475
518
479
400
356
398
495
557
522
423
345
327
328
305
265
236
201
109
-27
-119
-95
4
76
83
78
103
112
17
-184
-382
-454
-379
-238
-129
-97
-104
-67
86
347
602
710
625
440
290
229
196
115
-9
-102
-124
-101
-81
-72
-47
-5
21
22
41
119
212
214
76
-110
-190
-103
52
138
128
123
232
440
641
744
742
688
630
574
504
422
353
337
399
532
688
798
819
778
738
728
699
569
322
37
-179
-295
-357
-413
-444
-400
-261
-62
162
411
706
1056
1438
1816
2152
2429
2664
2896
3133
3322
3396
3359
3284
3223
3133
2920
2559
2119
1681
1271
887
560
330
165
-19
-252
-452
-509
-402
-221
-73
-15
-54
-181
-347
-462
-462
-376
-305
-309
-350
-343
-260
-161
-116
-136
-181
-218
-256
-330
-444
-554
-583
-496
-334
-182
-106
-118
-187
-280
-376
-451
-501
-543
-596
-640
-623
-538
-466
-509
-664
-819
-862
-797
-721
-707
-732
-708
-576
-356
-128
12
-14
-203
-462
-679
-796
-842
-876
-923
-971
-1006
-1022
-1009
-951
-878
-858
-910
-967
-934
-813
-707
-691
-703
-623
-434
-276
-298
-490
-696
-787
-761
-695
-625
-532
-408
-280
-177
-92
8
113
176
166
98
15
-43
-61
-43
5
73
170
300
450
576
618
558
436
319
257
258
289
286
198
45
-58
13
266
551
681
601
441
364
408
464
417
277
141
77
63
30
-50
-132
-154
-96
2
58
25
-71
-143
-119
-20
55
26
-88
-207
-274
-303
-317
-303
-224
-93
32
102
121
118
98
45
-39
-121
-172
-194
-212
-239
-265
-267
-230
-151
-54
18
42
48
81
149
207
227
256
365
535
643
591
433
338
399
530
578
511
451
510
644
702
617
484
441
517
610
616
531
424
362
369
428
492
490
382
208
76
68
166
302
456
681
1030
1468
1902
2286
2669
3125
3654
4155
4495
4603
4496
4259
3973
3655
3264
2758
2186
1657
1247
922
602
287
86
76
165
152
-49
-320
-468
-446
-378
-389
-450
-454
-380
-325
-366
-468
-538
-553
-563
-594
-601
-536
-418
-302
-200
-76
68
160
131
-8
-174
-305
-414
-541
-687
-806
-853
-824
-767
-739
-760
-787
-755
-636
-483
-397
-424
-513
-573
-562
-532
-561
-665
-783
-853
-868
-867
-878
-887
-865
-819
-795
-839
-955
-1099
-1208
-1236
-1181
-1086
-1019
-1010
-1021
-983
-874
-765
-739
-795
-849
-836
-785
-770
-808
-830
-774
-651
-508
-365
-219
-98
-61
-115
-189
-212
-200
-222
-276
-276
-162
4
106
117
141
268
453
558
501
335
174
87
65
86
161
308
504
676
755
738
693
691
729
730
620
423
234
126
80
35
-15
-1
114
253
294
222
168
263
460
567
446
168
-66
-148
-157
-226
-359
-421
-320
-123
23
61
53
68
87
56
-12
-52
-59
-113
-253
-385
-355
-129
143
278
238
132
67
40
-14
-114
-191
-163
-27
134
226
229
216
273
416
554
570
417
175
-14
-61
20
138
208
209
174
155
185
248
296
299
274
278
349
462
549
568
546
541
568
577
510
376
260
240
306
366
364
350
438
657
890
968
838
630
530
607
755
806
694
507
377
362
396
377
260
84
-73
-184
-274
-351
-359
-198
164
643
1108
1482
1785
2068
2344
2591
2806
3015
3232
3410
3479
3407
3230
3009
2768
2476
2072
1542
961
467
163
19
-94
-271
-479
-593
-543
-404
-337
-436
-639
-789
-775
-633
-517
-562
-760
-969
-1050
-980
-856
-781
-757
-716
-615
-491
-417
-420
-462
-496
-529
-619
-795
-997
-1118
-1093
-958
-814
-725
-683
-639
-586
-555
-564
-594
-614
-640
-709
-822
-938
-1017
-1062
-1099
-1136
-1158
-1148
-1126
-1112
-1104
-1098
-1099
-1112
-1120
-1102
-1068
-1058
-1092
-1145
-1177
-1180
-1178
-1175
-1139
-1062
-987
-969
-1000
-1016
-970
-904
-888
-941
-1011
-1061
-1110
-1177
-1211
-1134
-950
-773
-707
-734
-743
-688
-642
-698
-820
-854
-695
-403
-130
40
161
324
543
762
921
998
974
824
595
413
395
520
639
637
550
505
566
668
721
725
742
794
832
819
780
772
816
871
887
851
775
671
562
470
403
346
289
251
256
281
265
188
113
104
160
227
281
350
444
508
492
444
468
597
744
788
698
546
412
328
294
311
370
426
421
341
228
158
183
277
336
236
-43
-354
-485
-359
-127
3
-1
23
213
495
666
645
552
538
604
630
553
446
420
480
535
533
528
605
759
884
882
763
632
585
631
699
722
689
630
566
494
418
363
358
393
422
416
387
365
343
276
144
2
-77
-84
-74
-70
7
271
723
1231
1651
1964
2249
2567
2876
3108
3265
3414
3587
3732
3761
3643
3415
3114
2734
2257
1701
1139
667
335
111
-83
-286
-455
-497
-385
-214
-125
-183
-335
-474
-557
-605
-648
-675
-668
-648
-652
-684
-704
-667
-567
-432
-284
-137
-23
11
-49
-154
-230
-253
-270
-340
-468
-585
-628
-596
-546
-529
-538
-533
-510
-513
-581
-685
-745
-723
-686
-746
-939
-1164
-1283
-1247
-1118
-981
-859
-719
-546
-368
-225
-143
-128
-180
-291
-418
-509
-543
-553
-592
-676
-757
-775
-714
-614
-541
-522
-540
-565
-596
-664
-786
-917
-970
-897
-745
-628
-603
-594
-449
-101
332
629
664
517
378
354
398
407
351
289
282
322
379
457
594
789
964
1036
996
916
853
784
652
458
283
199
202
233
265
317
410
529
664
829
1005
1095
980
672
340
158
136
151
133
155
315
585
817
908
906
931
1025
1097
1019
761
425
169
79
112
148
116
54
58
163
304
404
448
468
478
444
334
160
-15
-123
-124
-32
85
143
110
44
25
62
82
17
-109
-204
-215
-180
-168
-182
-155
-35
147
301
373
389
406
445
467
441
379
335
342
379
398
362
278
185
144
211
396
631
793
804
708
635
661
717
683
541
412
415
520
590
564
527
598
764
878
829
661
494
386
308
221
138
85
62
77
191
462
859
1284
1680
2089
2562
3040
3408
3640
3829
4046
4219
4208
3976
3622
3238
2801
2259
1666
1164
819
550
249
-75
-294
153
92
178
411
662
802
832
865
987
1161
1291
1341
1355
1371
1357
1262
1102
967
917
922
890
776
620
507
481
532
629
727
791
803
773
723
667
620
600
611
620
565
425
260
179
227
344
435
475
523
634
784
891
900
842
796
826
928
1038
1082
1049
1000
1004
1076
1166
1222
1234
1199
1103
929
713
547
496
535
584
601
604
617
639
658
682
720
755
761
733
699
688
714
793
945
1169
1395
1528
1516
1401
1266
1156
1067
993
958
974
1008
1023
1046
1153
1365
1579
1636
1475
1204
993
902
851
757
662
686
864
1073
1144
1031
838
699
638
555
356
63
-216
-398
-487
-526
-497
-318
71
609
1163
1637
2023
2341
2586
2775
2974
3230
3460
3495
3265
2903
2598
2386
2126
1699
1174
705
339
-3
-355
-610
-638
-468
-283
-236
-301
-372
-432
-554
-779
-1024
-1166
-1184
-1173
-1215
-1270
-1234
-1078
-899
-813
-845
-933
-1017
-1090
-1166
-1223
-1215
-1132
-1018
-924
-864
-820
-774
-719
-647
-567
-532
-594
-743
-898
-984
-996
-989
-982
-928
-792
-627
-553
-653
-883
-1122
-1275
-1332
-1349
-1391
-1495
-1637
-1753
-1772
-1668
-1480
-1277
-1117
-1018
-976
-973
-991
-1005
-1002
-994
-994
-1006
-1024
-1037
-1030
-986
-895
-774
-664
-597
-578
-593
-636
-689
-716
-675
-582
-510
-521
-590
-625
-573
-480
-420
-398
-361
-280
-201
-180
-211
-226
-192
-140
-102
-65
-2
64
73
16
-28
26
169
301
349
330
317
346
391
432
494
606
741
808
736
552
367
279
292
326
305
216
121
93
133
173
140
40
-44
-27
74
143
71
-120
-283
-279
-106
115
245
248
194
193
303
489
641
665
552
385
258
198
155
93
40
50
122
187
180
108
37
5
-5
-26
-58
-85
-110
-155
-233
-324
-397
-440
-449
-418
-359
-317
-356
-473
-567
-527
-346
-144
-59
-100
-146
-70
143
396
574
642
639
613
574
507
401
298
275
363
514
639
682
662
637
616
564
460
340
245
158
19
-179
-342
-355
-209
-36
16
-86
-250
-369
-422
-462
-521
-538
-400
-56
424
912
1332
1720
2158
2656
3138
3520
3782
3948
4007
3916
3690
3429
3222
3041
2746
2252
1637
1083
711
501
351
196
47
-69
-152
-226
-299
-366
-433
-523
-639
-763
-875
-971
-1036
-1024
-886
-639
-389
-270
-312
-415
-454
-405
-333
-293
-259
-192
-134
-183
-358
-539
-581
-467
-325
-291
-385
-531
-652
-726
-755
-743
-715
-726
-798
-891
-941
-971
-1063
-1246
-1415
-1426
-1261
-1063
-977
-979
-918
-707
-423
-225
-184
-252
-361
-509
-716
-945
-1096
-1120
-1055
-976
-913
-834
-719
-605
-540
-527
-518
-481
-450
-483
-583
-680
-698
-624
-520
-457
-452
-477
-509
-544
-568
-546
-461
-339
-225
-128
-28
65
94
36
-31
6
146
237
145
-75
-210
-118
128
345
435
461
518
611
688
719
712
670
591
509
487
535
555
431
169
-99
-234
-227
-180
-191
-268
-343
-348
-234
4
314
598
745
714
562
388
269
228
256
328
402
411
335
231
207
321
505
617
577
435
319
299
336
344
299
249
235
221
127
-69
-286
-399
-349
-179
28
216
373
499
586
625
625
602
549
439
257
43
-126
-196
-173
-108
-38
46
175
335
445
427
303
192
207
329
437
438
373
352
424
530
598
633
684
750
760
669
529
442
461
554
659
751
835
907
950
963
975
1009
1061
1095
1077
989
834
636
440
299
232
212
177
59
-174
-487
-785
-955
-940
-783
-579
-385
-158
199
739
1405
2076
2662
3163
3613
3988
4197
4183
3991
3732
3457
3121
2670
2143
1647
1249
915
614
389
303
339
362
252
35
-143
-177
-95
-28
-60
-166
-272
-342
-408
-498
-591
-648
-668
-695
-756
-810
-793
-696
-568
-444
-287
-56
193
310
205
-37
-216
-223
-139
-136
-290
-510
-642
-635
-568
-528
-516
-457
-324
-201
-191
-302
-447
-552
-649
-811
-1030
-1208
-1261
-1213
-1151
-1107
-1020
-836
-594
-407
-355
-421
-532
-641
-748
-864
-964
-992
-925
-814
-750
-779
-855
-873
-774
-607
-486
-484
-591
-753
-907
-991
-950
-783
-592
-516
-598
-723
-718
-519
-217
43
202
304
407
511
565
529
412
275
206
258
402
540
578
530
512
631
871
1108
1197
1091
853
612
482
498
605
706
750
764
804
871
909
875
800
750
756
771
727
618
511
492
582
716
791
764
672
583
511
400
217
27
-43
43
170
184
76
5
118
372
577
605
508
407
333
214
29
-114
-83
112
317
411
420
461
581
713
768
729
642
534
400
243
103
27
25
60
96
107
70
-26
-165
-311
-412
-433
-373
-265
-161
-99
-59
17
164
334
430
397
284
184
135
95
31
-3
89
338
654
893
982
956
899
854
815
764
706
654
588
487
385
365
467
620
710
691
610
519
397
202
-35
-220
-306
-371
-514
-737
-953
-1100
-1175
-1160
-975
-578
-60
406
742
1046
1465
2026
2615
3109
3488
3788
4027
4165
4159
4014
3751
3382
2915
2371
1784
1207
707
346
141
42
-24
-85
-118
-110
-113
-210
-408
-589
-617
-499
-397
-470
-701
-912
-958
-867
-785
-795
-843
-832
-732
-587
-423
-228
-4
186
262
205
65
-105
-286
-461
-593
-639
-606
-548
-519
-521
-528
-532
-546
-582
-571
-522
-468
-495
-632
-800
-859
-745
-534
-371
-344
-435
-560
-647
-676
-673
-685
-740
-814
-848
-807
-725
-670
-656
-626
-527
-394
-322
-365
-485
-609
-700
-753
-763
-718
-654
-650
-742
-868
-917
-831
-657
-476
-329
-212
-110
-24
51
124
192
227
208
140
47
-46
-114
-127
-72
25
114
166
199
240
293
350
422
528
662
786
865
890
859
754
585
430
388
468
557
534
410
306
320
420
498
499
464
436
388
265
87
-38
-26
76
143
108
30
2
25
17
-58
-112
-35
160
327
345
246
158
161
223
280
316
346
339
230
9
-231
-364
-347
-250
-189
-218
-290
-315
-224
-26
197
352
393
337
237
124
9
-87
-122
-67
50
153
177
125
56
26
43
74
83
55
-10
-98
-182
-221
-188
-81
73
228
342
386
365
317
297
327
363
349
282
218
215
250
257
215
193
272
437
570
572
465
360
334
373
423
468
519
562
551
479
412
427
506
537
437
238
51
-68
-168
-328
-543
-710
-737
-658
-596
-639
-720
-652
-302
267
849
1271
1546
1827
2227
2706
3146
3481
3726
3896
3924
3730
3338
2879
2461
2073
1642
1174
770
518
387
278
152
72
92
156
149
12
-202
-396
-513
-543
-488
-348
-163
-7
69
81
84
100
92
35
-33
-61
-64
-108
-232
-385
-477
-485
-473
-502
-561
-591
-577
-562
-575
-581
-542
-488
-500
-604
-736
-829
-880
-916
-906
-797
-619
-521
-622
-860
-1042
-1038
-900
-771
-719
-693
-624
-510
-403
-347
-346
-384
-431
-471
-526
-651
-875
-1138
-1328
-1368
-1285
-1155
-1017
-870
-730
-650
-647
-638
-516
-290
-114
-155
-417
-724
-874
-818
-660
-521
-426
-328
-206
-110
-87
-112
-120
-76
-7
43
60
50
17
-11
30
174
356
432
311
77
-69
2
226
418
455
383
337
388
483
517
460
384
390
496
619
661
613
561
581
647
677
634
569
535
506
402
215
39
-22
31
108
138
132
126
115
78
43
85
226
382
422
311
152
81
137
247
313
306
261
214
162
91
14
-29
-12
49
117
173
239
342
480
623
729
772
745
653
513
350
189
53
-35
-55
-6
79
147
161
117
42
-33
-80
-88
-74
-92
-176
-299
-364
-303
-142
13
93
115
140
183
204
189
203
333
581
838
982
995
960
950
958
943
897
863
870
871
803
678
595
626
730
786
722
580
466
432
434
409
371
388
487
586
571
429
266
201
223
203
52
-186
-407
-569
-705
-801
-739
-403
179
825
1373
1815
2249
2721
3176
3529
3765
3911
3959
3863
3606
3258
2916
2609
2293
1918
1493
1052
630
267
18
-81
-55
24
111
203
292
315
203
-14
-215
-315
-357
-438
-576
-685
-687
-600
-500
-414
-322
-222
-162
-185
-275
-367
-415
-410
-363
-294
-239
-232
-269
-307
-302
-255
-211
-205
-242
-314
-415
-532
-624
-643
-565
-406
-213
-43
49
41
-32
-97
-106
-83
-110
-254
-498
-747
-899
-921
-857
-782
-746
-749
-762
-748
-696
-636
-611
-644
-708
-738
-700
-633
-618
-688
-782
-803
-719
-592
-501
-462
-446
-445
-477
-516
-477
-304
-70
62
2
-164
-257
-189
-33
79
105
108
142
185
187
144
129
209
366
490
475
319
143
85
168
281
289
204
163
254
398
434
316
179
180
311
424
408
306
239
259
321
376
433
512
579
564
460
352
337
428
553
648
703
731
732
693
622
553
500
437
341
228
129
46
-45
-126
-128
-10
175
323
388
432
523
633
681
647
620
679
772
758
575
324
181
227
385
515
530
438
295
144
8
-77
-72
30
154
189
104
0
24
209
417
483
383
234
139
86
13
-61
-51
65
198
246
225
237
332
455
535
580
655
782
900
935
865
734
602
523
518
545
520
406
277
258
382
540
591
527
461
471
501
439
272
125
134
320
583
782
837
750
606
507
498
516
429
178
-163
-463
-665
-790
-845
-759
-459
24
548
982
1317
1631
1988
2400
2827
3192
3380
3312
3037
2736
2567
2493
2319
1922
1398
965
741
658
589
499
444
455
493
489
410
261
47
-213
-453
-594
-618
-583
-564
-579
-590
-552
-473
-422
-466
-604
-772
-896
-949
-952
-921
-827
-636
-378
-153
-53
-80
-158
-208
-210
-193
-194
-229
-285
-324
-324
-296
-274
-263
-238
-178
-130
-166
-291
-422
-483
-487
-506
-572
-648
-708
-788
-930
-1104
-1208
-1183
-1067
-940
-858
-838
-894
-1014
-1126
-1127
-992
-826
-756
-791
-818
-736
-567
-402
-289
-200
-112
-71
-126
-245
-329
-310
-206
-82
19
81
98
75
46
52
98
157
215
283
348
350
249
101
27
80
184
223
170
107
112
187
276
346
398
443
486
531
572
595
593
599
665
797
939
1009
976
856
683
510
413
450
590
699
662
513
406
461
628
749
719
569
411
310
242
144
-7
-168
-269
-268
-194
-115
-75
-59
-3
135
328
506
606
606
518
383
261
218
276
382
439
388
271
179
159
180
194
202
237
286
263
102
-141
-307
-290
-153
-66
-122
-244
-274
-151
28
127
127
119
169
223
162
-54
-327
-515
-548
-454
-288
-95
89
218
266
270
308
433
608
721
679
490
270
152
175
271
348
376
394
432
470
469
432
402
402
417
419
391
313
172
17
-38
90
338
540
593
567
599
711
796
773
683
601
504
289
-54
-405
-660
-838
-1004
-1113
-1012
-637
-109
395
841
1321
1879
2415
2806
3052
3244
3403
3440
3291
3034
2814
2669
2494
2165
1686
1174
743
437
249
158
133
121
80
6
-51
-41
52
180
253
173
-85
-419
-654
-677
-538
-385
-312
-275
-185
-44
49
29
-43
-43
58
150
109
-70
-277
-403
-438
-426
-393
-327
-246
-215
-289
-440
-573
-624
-613
-586
-531
-396
-191
-27
-20
-158
-300
-318
-241
-214
-330
-520
-630
-582
-430
-281
-186
-140
-144
-222
-375
-551
-677
-726
-721
-679
-597
-487
-386
-321
-277
-229
-188
-201
-284
-404
-517
-599
-638
-593
-445
-252
-126
-122
-187
-224
-207
-189
-192
-155
-9
218
405
463
408
322
266
245
251
279
315
330
318
323
409
584
785
932
980
941
853
745
643
563
506
465
445
445
436
353
163
-59
-161
-61
161
327
326
210
107
80
88
74
39
23
36
60
92
170
331
554
763
888
899
800
628
432
270
192
206
273
323
299
195
65
-17
-20
8
-12
-95
-188
-230
-224
-218
-216
-158
-12
139
156
-1
-210
-302
-234
-124
-102
-162
-189
-102
44
121
73
-20
-23
115
310
405
330
162
44
49
126
178
168
132
98
60
7
-32
-35
-40
-103
-211
-294
-311
-304
-325
-342
-258
-52
192
378
485
546
553
467
310
184
168
213
198
78
-71
-139
-72
125
418
739
970
1014
910
813
840
932
934
790
598
476
410
307
156
75
147
289
323
170
-73
-265
-396
-555
-761
-891
-791
-446
16
468
902
1370
1858
2293
2640
2949
3267
3542
3649
3526
3266
3030
2883
2743
2478
2030
1476
962
611
468
478
528
528
474
430
436
448
375
189
-40
-217
-317
-390
-467
-514
-463
-282
-26
199
297
233
56
-132
-241
-251
-206
-158
-127
-111
-125
-189
-293
-380
-398
-365
-348
-410
-549
-712
-843
-913
-914
-851
-751
-669
-661
-752
-902
-1014
-1007
-872
-671
-484
-356
-286
-255
-247
-234
-194
-137
-119
-190
-336
-490
-587
-625
-642
-650
-629
-574
-519
-504
-539
-596
-641
-652
-614
-542
-487
-510
-625
-772
-873
-893
-847
-745
-573
-343
-139
-49
-68
-76
43
288
542
680
690
674
744
934
1191
1418
1538
1547
1478
1366
1236
1104
1001
946
940
963
978
967
929
898
903
938
958
915
821
755
794
930
1080
1172
1210
1251
1324
1404
1449
1449
1422
1396
1404
1476
1601
1693
1643
1439
1203
1077
1078
1073
952
750
610
590
597
515
357
267
353
563
721
703
536
351
262
298
420
556
655
689
669
633
633
705
837
966
1003
892
665
427
270
195
147
95
91
179
314
377
293
137
65
140
265
286
132
-119
-332
-425
-404
-321
-226
-157
-129
-128
-116
-66
15
112
216
319
390
401
369
352
387
449
469
423
355
311
291
260
220
216
269
337
359
322
273
238
197
131
72
73
131
170
118
-12
-138
-189
-169
-111
-30
86
221
324
347
296
234
216
228
196
36
-262
-616
-923
-1143
-1293
-1388
-1375
-1191
-850
-464
-139
139
491
1013
1672
2335
2854
3124
3108
2853
2491
2172
1936
1683
1309
851
465
259
181
105
1
-61
-67
-136
-386
-758
-1035
-1085
-1010
-1010
-1139
-1271
-1273
-1188
-1176
-1300
-1456
-1517
-1488
-1489
-1595
-1727
-1756
-1647
-1498
-1431
-1472
-1537
-1543
-1496
-1474
-1536
-1635
-1653
-1500
-1211
-932
-799
-832
-924
-962
-926
-888
-921
-1013
-1094
-1137
-1180
-1257
-1347
-1377
-1307
-1187
-1110
-1127
-1228
-1365
-1477
-1501
-1404
-1234
-1118
-1161
-1338
-1506
-1555
-1519
-1524
-1633
-1771
-1819
-1755
-1668
-1629
-1595
-1459
-1194
-904
-718
-666
-661
-627
-576
-564
-590
-591
-514
-393
-307
-296
-318
-315
-261
-165
-54
33
62
28
-18
-6
78
181
247
281
313
331
280
147
19
15
161
362
492
510
468
446
485
570
655
688
655
585
524
497
491
492
521
606
737
862
925
925
901
891
902
925
955
986
981
896
727
536
408
383
416
437
409
356
311
273
233
211
246
334
411
406
333
275
299
388
480
561
668
806
908
907
830
785
835
911
897
766
600
497
459
440
435
492
631
782
845
788
667
552
459
380
322
300
274
179
6
-151
-162
-15
169
256
237
210
252
331
366
332
290
314
418
551
660
729
779
846
945
1060
1148
1163
1086
942
779
638
546
521
563
649
722
729
667
589
550
552
554
513
433
340
255
187
157
191
277
371
421
402
314
156
-63
-283
-418
-432
-413
-488
-665
-777
-628
-181
416
978
1447
1882
2333
2764
3109
3354
3531
3653
3691
3613
3428
3174
2870
2505
2089
1676
1328
1057
817
555
273
26
-135
-219
-266
-287
-266
-211
-180
-219
-300
-331
-265
-153
-93
-129
-226
-332
-440
-547
-610
-568
-423
-253
-134
-82
-52
-6
60
137
209
242
198
72
-84
-213
-321
-454
-619
-740
-734
-625
-543
-588
-695
-671
-397
12
273
196
-128
-415
-467
-346
-255
-299
-383
-358
-208
-61
-36
-117
-190
-190
-161
-203
-364
-596
-791
-873
-833
-733
-655
-644
-686
-733
-747
-739
-742
-751
-715
-584
-396
-264
-264
-336
-331
-180
24
131
103
44
74
196
324
402
454
532
645
751
801
772
677
559
482
488
554
602
570
474
386
350
344
327
294
277
282
255
145
-26
-156
-151
-19
143
236
244
222
230
277
336
394
473
588
700
734
656
525
460
522
647
716
676
585
537
547
557
532
515
558
635
646
524
303
93
-8
16
99
151
130
77
65
122
203
256
277
288
275
167
-76
-391
-647
-751
-692
-518
-282
-38
152
260
327
434
599
742
764
639
441
270
181
166
198
257
312
315
222
46
-136
-236
-217
-126
-39
14
72
196
394
597
698
637
444
218
59
-1
-3
-4
-8
36
181
412
655
822
860
769
607
464
408
431
459
415
301
192
150
172
226
296
385
476
527
519
478
438
386
285
140
4
-121
-301
-572
-820
-835
-510
46
620
1106
1553
2032
2514
2919
3236
3536
3840
4055
4060
3841
3507
3169
2851
2506
2107
1694
1327
1034
807
617
465
386
390
428
415
305
141
-10
-132
-259
-407
-520
-530
-459
-423
-498
-626
-680
-607
-483
-406
-379
-329
-212
-78
5
42
104
229
359
396
304
152
38
2
12
24
27
36
48
24
-61
-183
-281
-304
-260
-207
-214
-311
-462
-577
-573
-469
-402
-500
-746
-990
-1108
-1146
-1246
-1429
-1519
-1322
-874
-440
-244
-248
-233
-67
144
201
46
-199
-378
-464
-540
-657
-756
-740
-589
-398
-291
-306
-372
-372
-249
-61
76
92
20
-44
-64
-97
-219
-408
-538
-499
-319
-149
-102
-137
-104
103
453
810
1046
1118
1067
968
893
877
907
935
906
799
647
509
424
387
372
358
348
342
323
279
219
182
201
277
380
477
525
498
412
329
314
353
348
230
44
-99
-146
-140
-142
-134
-37
182
468
730
906
972
927
801
665
586
547
450
237
-30
-223
-269
-212
-131
-39
91
244
347
339
260
220
291
442
568
565
396
127
-108
-192
-109
35
114
101
67
93
176
247
276
300
356
404
373
256
132
88
133
204
259
309
375
435
443
400
381
467
652
840
933
905
819
738
673
602
521
458
446
467
483
489
530
652
841
1027
1140
1165
1119
1016
858
667
508
444
476
544
567
531
483
474
493
477
364
145
-131
-411
-656
-827
-862
-696
-313
237
862
1480
2036
2493
2828
3052
3211
3333
3398
3354
3171
2892
2604
2375
2215
2077
1900
1641
1304
948
640
414
266
177
142
136
98
-30
-232
-429
-535
-536
-484
-426
-374
-330
-294
-264
-236
-228
-299
-470
-667
-773
-757
-705
-711
-724
-593
-273
93
294
269
146
54
-6
-126
-327
-500
-539
-490
-497
-651
-872
-993
-927
-759
-638
-643
-714
-753
-729
-676
-627
-576
-515
-490
-556
-699
-826
-842
-731
-560
-415
-353
-403
-541
-706
-816
-832
-788
-742
-709
-667
-586
-476
-372
-285
-228
-226
-298
-434
-596
-747
-874
-953
-934
-768
-469
-128
145
290
316
288
274
305
353
351
245
38
-200
-380
-436
-358
-186
9
168
302
464
677
868
918
797
628
575
654
719
631
439
329
409
597
735
760
721
658
521
274
8
-116
-46
103
181
155
120
162
276
406
509
567
561
474
347
272
313
433
533
557
547
562
593
566
438
276
191
233
329
363
284
154
85
134
266
388
415
327
176
45
-16
-28
-32
-30
29
177
359
455
394
229
96
88
183
280
306
260
195
160
160
175
189
200
193
133
-10
-206
-370
-427
-376
-295
-256
-272
-292
-269
-204
-130
-57
36
182
372
537
606
577
523
527
599
658
629
527
445
451
510
526
469
410
451
588
692
643
458
286
251
330
398
360
237
88
-75
-288
-543
-756
-848
-823
-763
-738
-742
-720
-601
-328
116
669
1208
1628
1937
2227
2560
2922
3272
3592
3856
3966
3819
3435
2982
2628
2371
2063
1602
1063
618
357
237
153
39
-109
-269
-412
-507
-533
-509
-480
-450
-370
-200
21
192
226
126
-30
-155
-208
-196
-146
-87
-42
-20
-9
8
33
38
-18
-142
-304
-468
-615
-733
-795
-758
-625
-474
-429
-552
-774
-944
-959
-833
-662
-533
-449
-369
-266
-161
-114
-160
-279
-402
-451
-407
-336
-342
-468
-653
-770
-749
-644
-581
-653
-829
-994
-1052
-1003
-925
-868
-812
-729
-675
-743
-933
-1096
-1077
-883
-685
-628
-667
-625
-402
-90
143
230
248
307
426
519
493
341
150
49
106
277
443
515
515
531
616
740
846
927
1001
1042
977
793
597
529
613
723
718
587
443
394
432
474
461
406
370
392
471
585
691
735
706
667
713
862
1006
986
753
423
167
63
47
28
-20
-53
-39
11
81
190
358
544
668
662
534
345
160
27
-30
-10
49
93
81
14
-82
-175
-223
-192
-98
-28
-76
-235
-382
-393
-258
-91
-5
-6
-20
7
55
69
31
-22
-45
-27
-6
-26
-118
-267
-413
-481
-432
-304
-180
-142
-202
-303
-375
-381
-309
-163
33
208
263
182
81
115
310
505
516
337
148
103
175
232
218
210
284
407
470
421
312
205
108
12
-59
-54
18
75
55
0
20
149
291
311
193
40
-48
-74
-120
-232
-350
-390
-347
-309
-374
-563
-809
-1003
-1053
-914
-603
-181
284
746
1192
1625
2046
2458
2855
3193
3381
3337
3070
2705
2402
2218
2069
1962
905
467
159
-40
-189
-308
-377
-370
-308
-237
-173
-102
-19
47
44
-48
-188
-315
-409
-511
-665
-838
-929
-866
-691
-525
-443
-405
-326
-179
-31
47
47
5
-57
-141
-243
-341
-397
-392
-334
-257
-229
-315
-491
-640
-637
-482
-304
-222
-247
-306
-334
-322
-276
-202
-140
-139
-203
-252
-226
-176
-212
-349
-455
-406
-270
-246
-433
-702
-837
-778
-656
-606
-610
-554
-397
-219
-130
-139
-155
-113
-29
28
6
-79
-185
-271
-301
-249
-110
77
223
263
215
162
173
239
294
291
237
165
89
14
-49
-80
-69
-29
33
108
160
143
47
-68
-101
-8
154
271
280
231
234
357
570
771
881
901
876
831
739
590
437
367
402
465
463
400
361
396
458
477
451
440
465
453
324
103
-91
-153
-88
15
102
186
307
453
548
536
454
415
499
641
679
518
251
73
96
246
356
354
302
295
337
358
317
265
280
359
418
371
216
44
-21
74
269
437
477
400
298
253
263
275
252
213
201
229
278
336
404
482
556
614
676
777
910
1015
1040
997
972
1021
1116
1172
1119
969
807
733
795
971
1183
1356
1483
1594
1688
1698
1553
1293
1056
944
909
822
650
533
661
1078
1644
2168
2578
2929
3305
3729
4149
4504
4758
4888
4888
4750
4486
4122
3688
3217
2759
2372
2090
1889
1720
1558
1414
1319
1298
1350
1472
1639
1778
1800
1679
1476
1273
1106
964
853
819
872
931
897
769
671
723
907
1070
1052
816
463
158
10
7
39
-1
-129
-284
-408
-512
-646
-810
-928
-929
-832
-716
-656
-657
-671
-660
-637
-646
-721
-854
-997
-1103
-1168
-1212
-1236
-1198
-1072
-930
-911
-1102
-1414
-1656
-1705
-1618
-1543
-1548
-1575
-1549
-1484
-1452
-1471
-1480
-1432
-1354
-1313
-1331
-1362
-1350
-1292
-1210
-1112
-1001
-904
-870
-908
-951
-909
-764
-582
-441
-341
-226
-86
15
18
-39
-35
87
247
323
307
311
416
543
557
449
359
407
524
534
380
201
176
317
486
573
598
612
585
437
191
-7
-45
19
29
-74
-183
-177
-80
-33
-95
-161
-99
73
181
111
-53
-127
-19
167
272
243
146
63
8
-50
-117
-164
-178
-178
-198
-250
-327
-424
-532
-622
-660
-626
-543
-454
-399
-374
-352
-301
-212
-108
-15
43
48
-15
-137
-265
-312
-249
-132
-82
-158
-296
-369
-309
-162
-22
71
138
207
260
252
170
54
-41
-92
-116
-147
-204
-275
-329
-341
-310
-269
-246
-248
-262
-278
-304
-345
-359
-278
-77
185
389
453
386
279
220
242
320
408
472
500
505
519
556
619
693
766
818
810
701
497
285
183
234
359
435
413
354
335
354
337
245
132
75
66
-14
-256
-619
-958
-1164
-1234
-1229
-1160
-992
-703
-317
125
604
1114
1631
2109
2507
2812
3009
3075
2996
2807
2562
2269
1896
1415
863
321
-151
-540
-834
-985
-957
-822
-746
-849
-1079
-1249
-1237
-1129
-1117
-1293
-1565
-1750
-1766
-1663
-1522
-1366
-1171
-944
-747
-644
-642
-699
-767
-810
-812
-782
-757
-773
-828
-876
-852
-711
-479
-247
-105
-86
-157
-273
-425
-615
-811
-951
-1013
-1054
-1138
-1234
-1252
-1153
-1008
-909
-864
-806
-719
-679
-758
-922
-1077
-1191
-1299
-1411
-1462
-1396
-1269
-1195
-1192
-1140
-942
-671
-524
-609
-834
-1025
-1106
-1120
-1104
-1021
-823
-565
-374
-322
-352
-359
-316
-289
-348
-489
-651
-782
-867
-892
-819
-628
-358
-101
55
82
32
2
53
182
322
397
382
321
289
340
473
628
733
763
763
806
907
1003
1011
916
798
743
761
795
795
778
787
831
885
940
1023
1148
1261
1263
1111
876
699
684
825
1029
1187
1248
1240
1240
1310
1445
1568
1586
1472
1265
1033
824
666
591
614
710
802
808
715
587
507
505
542
548
481
341
161
-13
-144
-212
-224
-209
-191
-168
-138
-121
-164
-277
-379
-345
-147
84
167
66
-61
-35
149
322
346
268
242
348
500
565
526
482
523
627
695
660
558
467
422
408
426
513
696
924
1078
1073
924
736
600
542
530
522
480
403
336
359
518
760
949
993
926
865
908
1072
1327
1647
2011
2387
2737
3046
3329
3607
3866
4063
4146
4089
3906
3635
3312
2933
2471
1938
1405
971
689
540
467
411
338
247
177
180
267
351
297
50
-297
-572
-669
-624
-539
-474
-422
-368
-319
-293
-279
-256
-246
-294
-409
-535
-604
-608
-612
-662
-704
-633
-429
-228
-197
-356
-551
-622
-570
-531
-580
-633
-575
-436
-364
-429
-513
-446
-218
-15
-32
-276
-589
-809
-887
-885
-893
-974
-1132
-1311
-1407
-1341
-1125
-851
-638
-530
-492
-492
-529
-632
-800
-963
-1027
-944
-758
-570
-459
-437
-467
-511
-544
-549
-506
-416
-315
-223
-114
52
277
510
692
807
872
901
893
859
840
888
1010
1158
1244
1211
1066
885
769
784
918
1110
1294
1436
1551
1669
1785
1861
1859
1774
1641
1489
1322
1160
1058
1088
1239
1409
1495
1497
1498
1561
1636
1620
1497
1358
1303
1331
1347
1262
1078
877
746
736
836
975
1045
973
787
601
529
591
720
847
953
1044
1115
1143
1119
1076
1034
983
914
849
823
829
817
766
736
804
944
995
814
426
21
-227
-297
-295
-320
-381
-445
-515
-609
-711
-771
-780
-815
-959
-1190
-1385
-1448
-1408
-1370
-1385
-1408
-1369
-1274
-1185
-1143
-1143
-1170
-1215
-1246
-1208
-1085
-961
-956
-1084
-1220
-1217
-1055
-846
-696
-614
-555
-512
-518
-576
-626
-596
-488
-355
-244
-170
-132
-129
-139
-97
40
209
281
186
-1
-114
-62
80
156
118
58
75
135
90
-136
-439
-633
-654
-624
-700
-872
-951
-760
-308
245
772
1276
1843
2468
3038
3445
3694
3894
4111
4275
4274
4058
3683
3252
2816
2370
1917
1492
1142
862
616
387
216
159
179
168
44
-150
-314
-428
-577
-799
-966
-874
-473
39
389
471
410
354
298
110
-272
-736
-1104
-1304
-1414
-1538
-1684
-1757
-1681
-1486
-1302
-1233
-1280
-1354
-1370
-1323
-1262
-1226
-1204
-1164
-1105
-1081
-1158
-1332
-1506
-1549
-1404
-1151
-943
-861
-854
-790
-593
-299
-20
146
168
73
-81
-237
-364
-451
-518
-578
-631
-666
-670
-637
-581
-517
-435
-314
-161
-55
-95
-289
-510
-587
-459
-233
-57
24
92
225
401
548
651
768
907
982
905
710
546
536
659
806
903
959
1001
1015
948
772
497
161
-172
-420
-520
-478
-370
-255
-120
74
336
622
873
1040
1089
1002
820
667
656
794
989
1141
1216
1233
1219
1207
1239
1319
1366
1297
1134
1028
1112
1344
1519
1505
1371
1305
1396
1523
1474
1153
666
234
11
-43
-85
-258
-543
-764
-767
-561
-308
-171
-192
-296
-396
-469
-525
-547
-483
-302
-50
189
351
438
498
573
663
730
731
666
559
443
343
274
242
261
324
404
486
583
711
840
904
883
844
890
1031
1142
1087
862
598
444
463
620
842
1038
1120
1072
983
979
1098
1251
1322
1278
1170
1029
856
682
591
620
669
598
385
158
45
48
90
163
348
682
1084
1424
1694
2011
2479
3063
3615
4021
4270
4385
4353
4147
3789
3360
2932
2506
2059
1617
1257
1023
866
704
532
412
386
395
326
134
-116
-323
-438
-484
-506
-520
-524
-531
-571
-661
-771
-853
-879
-853
-815
-809
-850
-911
-948
-944
-938
-984
-1089
-1198
-1255
-1271
-1307
-1378
-1419
-1354
-1212
-1108
-1113
-1182
-1225
-1219
-1219
-1264
-1314
-1311
-1269
-1258
-1312
-1381
-1373
-1248
-1050
-875
-802
-836
-922
-1000
-1074
-1192
-1365
-1525
-1617
-1683
-1806
-1970
-2025
-1848
-1503
-1188
-1035
-1018
-1065
-1190
-1449
-1803
-2105
-2248
-2250
-2193
-2099
-1930
-1686
-1416
-1159
-898
-630
-441
-446
-652
-923
-1087
-1072
-926
-734
-544
-368
-219
-119
-77
-83
-109
-136
-158
-179
-199
-213
-215
-197
-150
-74
7
44
1
-109
-235
-345
-452
-577
-696
-750
-720
-673
-691
-760
-768
-607
-301
2
168
169
66
-84
-274
-486
-658
-733
-714
-659
-595
-469
-211
150
493
701
765
753
693
539
259
-71
-285
-284
-127
39
118
128
132
147
153
127
63
-44
-210
-417
-585
-638
-583
-509
-496
-518
-480
-352
-209
-145
-147
-101
68
292
422
380
236
115
68
56
35
356
384
336
245
181
202
312
449
527
505
437
412
459
515
487
361
229
190
246
297
233
28
-245
-470
-552
-472
-303
-163
-128
-163
-178
-134
-103
-191
-433
-772
-1108
-1366
-1505
-1526
-1464
-1385
-1328
-1260
-1110
-872
-655
-595
-711
-880
-943
-852
-698
-617
-645
-686
-627
-479
-384
-480
-723
-899
-816
-490
-117
145
323
538
792
927
816
539
309
220
152
-50
-340
-509
-426
-201
-55
-74
-153
-163
-109
-65
-38
15
101
172
226
338
551
761
783
569
300
200
295
409
404
348
396
555
667
609
449
346
360
408
417
428
536
743
942
1034
994
844
604
319
71
-68
-112
-135
-157
-103
112
462
807
1004
1002
855
658
482
351
223
50
-152
-276
-214
0
208
276
231
210
303
468
601
644
624
606
633
694
749
761
734
703
685
645
552
479
567
871
1240
1453
1454
1416
1549
1826
1986
1815
1388
987
798
741
616
351
99
59
266
544
685
629
504
466
542
620
590
484
476
695
1115
1602
2055
2471
2885
3283
3614
3861
4042
4139
4065
3766
3339
2959
2694
2445
2093
1692
1416
1326
1273
1103
901
930
1294
1755
1967
1834
1561
1377
1261
1010
507
-136
-688
-1001
-1067
-969
-804
-625
-446
-252
-39
160
302
347
284
130
-67
-219
-239
-138
-37
-55
-173
-255
-217
-146
-217
-472
-749
-821
-603
-232
55
132
56
-23
-22
-9
-114
-379
-679
-850
-836
-730
-650
-620
-578
-467
-303
-156
-87
-119
-228
-348
-421
-455
-524
-680
-865
-947
-873
-742
-715
-833
-985
-1045
-1009
-990
-1074
-1223
-1323
-1305
-1211
-1126
-1086
-1057
-981
-835
-655
-509
-443
-433
-383
-213
63
343
556
723
918
1149
1316
1327
1225
1157
1208
1313
1350
1308
1308
1435
1629
1726
1632
1405
1182
1038
944
836
697
568
498
481
479
476
489
515
488
328
69
-119
-96
64
143
41
-81
-5
258
462
422
205
-3
-161
-404
-809
-1266
-1627
-1902
-2206
-2550
-2772
-2742
-2534
-2350
-2297
-2317
-2305
-2244
-2198
-2209
-2263
-2345
-2446
-2537
-2564
-2494
-2371
-2281
-2292
-2393
-2511
-2582
-2584
-2537
-2485
-2467
-2493
-2528
-2508
-2402
-2274
-2252
-2398
-2608
-2677
-2499
-2175
-1906
-1778
-1711
-1611
-1516
-1546
-1747
-2039
-2318
-2564
-2796
-2973
-3014
-2879
-2649
-2447
-2311
-2191
-2028
-1843
-1716
-1675
-1619
-1391
-915
-292
273
660
930
1239
1667
2144
2536
2767
2864
2909
2977
3105
3253
3304
3155
2815
2427
2147
2019
1980
1986
2064
2245
2483
2679
2809
2955
3169
3372
3407
3229
2977
2858
2933
3078
3139
3096
3052
3058
3047
2924
2701
2505
2411
2353
2221
2015
1866
1864
1944
1952
1836
1707
1696
1794
1864
1796
1614
1416
1228
970
559
30
-486
-876
-1146
-1379
-1630
-1840
-1885
-1707
-1389
-1114
-1019
-1107
-1252
-1330
-1353
-1453
-1726
-2095
-2355
-2387
-2303
-2334
-2567
-2854
-3000
-3000
-3026
-3167
-3288
-3178
-2796
-2321
-1943
-1699
-1520
-1387
-1378
-1547
-1840
-2136
-2359
-2508
-2604
-2647
-2606
-2460
-2223
-1952
-1721
-1566
-1458
-1337
-1175
-1008
-854
-674
-426
-157
22
66
61
122
243
318
291
249
311
468
606
661
690
765
807
662
320
-4
-84
64
210
203
167
338
737
1084
1080
713
258
-37
-184
-369
-673
-936
-885
-391
425
1299
1998
2439
2677
2802
2830
2657
2157
1337
406
-346
-751
-848
-778
-619
-350
38
473
865
1190
1473
1707
1826
1783
1647
1571
1627
1740
1790
1782
1858
2114
2452
2696
2820
2995
3341
3683
3672
3166
2446
1971
1925
2094
2180
2176
2346
2871
3613
4268
4669
4872
4968
4923
4644
4162
3664
3331
3167
3033
2828
2622
2590
2842
3296
3731
3962
3994
4012
4189
4514
4797
4862
4702
4441
4172
3861
3451
2975
2567
2314
2179
2064
1921
1779
1655
1506
1275
964
630
311
-10
-364
-726
-1002
-1108
-1060
-965
-929
-946
-907
-737
-518
-429
-579
-894
-1181
-1306
-1307
-1316
-1397
-1493
-1518
-1457
-1383
-1358
-1353
-1318
-1262
-1271
-1395
-1573
-1684
-1699
-1709
-1792
-1917
-1992
-1988
-1971
-1992
-2015
-2008
-2029
-2164
-2383
-2546
-2564
-2516
-2546
-2673
-2782
-2791
-2750
-2742
-2753
-2726
-2711
-2846
-3140
-3399
-3416
-3250
-3198
-3440
-3823
-4033
-3961
-3842
-3966
-4342
-4702
-4807
-4670
-4484
-4392
-4362
-4295
-4154
-3978
-3804
-3645
-3511
-3431
-3403
-3352
-3190
-2924
-2671
-2549
-2556
-2572
-2491
-2307
-2090
-1893
-1713
-1543
-1409
-1336
-1296
-1221
-1091
-989
-1019
-1181
-1334
-1316
-1097
-816
-662
-702
-837
-912
-860
-760
-744
-865
-1059
-1222
-1285
-1230
-1070
-807
-465
-109
169
308
342
371
457
537
471
214
-112
-319
-337
-268
-233
-226
-151
-8
86
49
-18
44
232
363
298
145
148
398
735
964
1082
1259
1610
2048
2397
2587
2691
2814
2977
3111
3170
3152
3111
3118
3199
3353
3537
3702
3841
3949
4014
3994
3877
3720
3649
3743
3951
4120
4151
4112
4182
4440
4746
4834
4579
4145
3833
3793
3909
3968
3906
3855
3962
4209
4442
4535
4520
4511
4570
4652
4686
4703
4776
4900
4986
4949
4840
4758
4697
4526
4090
3431
2807
2428
2234
2006
1696
1554
1848
2430
2765
2502
1953
1819
2376
3042
2942
1892
646
70
185
209
-515
-1806
-2940
-3460
-3519
-3473
-3414
-3223
-2894
-2618
-2478
-2314
-1960
-1540
-1390
-1607
-1928
-2044
-1912
-1735
-1631
-1481
-1142
-701
-389
-293
-259
-159
-78
-147
-285
-237
99
471
584
504
581
1000
1484
1569
1142
560
205
52
-234
-820
-1470
-1838
-1854
-1754
-1751
-1788
-1670
-1331
-920
-628
-484
-392
-245
-19
241
480
685
870
1069
1304
1574
1873
2226
2655
3147
3643
4077
4473
4911
5401
5867
6218
6458
6676
6933
7221
7535
7898
8311
8690
8950
9126
9339
9653
9981
10224
10411
10661
11004
11320
11500
11626
11892
12354
12831
13081
13067
12957
12918
12961
12971
12851
12595
12278
11999
11828
11744
11616
11317
10865
10403
10047
9778
9479
9086
8612
8104
7618
7237
7020
6855
6499
5834
5040
4442
4154
3933
3497
2857
2281
1936
1707
1383
941
526
206
-146
-676
-1325
-1878
-2177
-2294
-2454
-2805
-3278
-3665
-3841
-3905
-4079
-4465
-4916
-5216
-5367
-5613
-6150
-6875
-7472
-7765
-7890
-8105
-8483
-8855
-9044
-9051
-9018
-9065
-9195
-9362
-9555
-9771
-9995
-10180
-10288
-10294
-10201
-10021
-9769
-9481
-9180
-8872
-8561
-8269
-8004
-7730
-7394
-6985
-6567
-6209
-5907
-5600
-5288
-5088
-5123
-5365
-5622
-5732
-5723
-5729
-5784
-5740
-5452
-4970
-4504
-4181
-3913
-3522
-3001
-2510
-2187
-1999
-1789
-1448
-963
-382
245
846
1350
1775
2249
2870
3553
4102
4429
4677
5059
5602
6116
6435
6609
6808
7099
7356
7447
7422
7420
7481
7501
7405
7283
7287
7426
7540
7489
7337
7249
7261
7235
7022
6637
6236
5918
5653
5364
5032
4701
4411
4157
3930
3725
3520
3267
2957
2656
2437
2265
2022
1653
1247
951
833
796
709
548
389
292
237
172
100
67
70
42
-59
-157
-118
77
277
302
141
-21
-5
194
425
558
609
678
830
1054
1305
1536
1686
1709
1636
1587
1691
1955
2233
2358
2314
2253
2331
2548
2737
2723
2503
2244
2129
2204
2388
2597
2798
2972
3090
3148
3187
3240
3259
3156
2949
2790
2813
2959
3040
2947
2778
2710
2781
2854
2795
2617
2444
2351
2319
2301
2290
2291
2285
2243
2165
2082
2000
1876
1673
1422
1204
1065
961
832
674
539
454
369
204
-46
-300
-480
-592
-705
-869
-1082
-1306
-1512
-1678
-1797
-1882
-1965
-2066
-2182
-2297
-2422
-2579
-2759
-2929
-3075
-3237
-3462
-3735
-3988
-4172
-4319
-4507
-4785
-5112
-5390
-5556
-5652
-5776
-5976
-6186
-6265
-6148
-5905
-5658
-5440
-5189
-4866
-4544
-4324
-4191
-4022
-3757
-3507
-3434
-3548
-3708
-3799
-3866
-4026
-4296
-4578
-4793
-4960
-5121
-5241
-5235
-5104
-4962
-4912
-4924
-4875
-4699
-4474
-4341
-4351
-4437
-4472
-4394
-4240
-4087
-3966
-3843
-3661
-3421
-3187
-3009
-2858
-2649
-2351
-2049
-1848
-1754
-1654
-1451
-1177
-949
-805
-665
-439
-165
33
102
145
290
509
652
666
677
831
1084
1242
1208
1130
1194
1352
1351
1065
700
574
733
876
713
295
-96
-321
-549
-996
-1635
-2228
-2640
-2988
-3431
-3895
-4122
-3992
-3700
-3553
-3615
-3681
-3557
-3304
-3137
-3142
-3218
-3236
-3199
-3182
-3164
-3040
-2798
-2590
-2569
-2675
-2670
-2398
-1931
-1476
-1153
-901
-568
-60
581
1252
1883
2480
3065
3611
4055
4404
4781
5274
5781
6078
6092
6036
6193
6549
6771
6598
6136
5697
5400
5058
4511
3910
3529
3376
3149
2627
1971
1528
1388
1275
887
273
-260
-543
-743
-1130
-1764
-2444
-2980
-3412
-3932
-4637
-5424
-6107
-6582
-6880
-7073
-7214
-7348
-7515
-7721
-7902
-8002
-8032
-8075
-8179
-8273
-8232
-8006
-7672
-7340
-7039
-6736
-6455
-6313
-6397
-6630
-6798
-6758
-6577
-6431
-6386
-6316
-6060
-5638
-5246
-5055
-5048
-5088
-5105
-5160
-5320
-5522
-5614
-5515
-5286
-5039
-4804
-4512
-4109
-3660
-3296
-3070
-2919
-2725
-2451
-2176
-2012
-1973
-1941
-1781
-1496
-1216
-1061
-995
-874
-618
-308
-94
-11
34
137
286
423
538
668
791
803
643
395
187
9
-308
-881
-1604
-2221
-2576
-2744
-2897
-3115
-3329
-3461
-3522
-3584
-3680
-3795
-3924
-4081
-4265
-4440
-4557
-4616
-4655
-4686
-4677
-4597
-4465
-4346
-4286
-4283
-4314
-4351
-4370
-4364
-4351
-4385
-4516
-4736
-4971
-5155
-5305
-5507
-5811
-6178
-6506
-6727
-6844
-6899
-6902
-6831
-6696
-6566
-6498
-6453
-6327
-6106
-5902
-5838
-5927
-6031
-5996
-5781
-5469
-5202
-5063
-4993
-4804
-4350
-3710
-3157
-2842
-2566
-1978
-1041
-173
161
-40
-336
-395
-350
-536
-987
-1357
-1337
-982
-551
-142
380
1130
1992
2754
3345
3882
4471
5072
5597
6029
6418
6826
7262
7699
8122
8528
8903
9225
9492
9728
9973
10254
10570
10903
11216
11476
11677
11845
12023
12235
12462
12654
12792
12900
13021
13167
13303
13389
13427
13465
13555
13687
13800
13840
13838
13892
14054
14254
14359
14307
14179
14101
14091
14065
13951
13790
13669
13606
13523
13367
13171
13009
12890
12742
12489
12143
11789
11504
11294
11091
10819
10467
10102
9815
9659
9620
9654
9716
9770
9775
9684
9463
9094
8563
7865
7042
6194
5437
4824
4335
3948
3685
3592
3675
3847
3991
4042
4008
3928
3813
3659
3473
3285
3108
2930
2739
2548
2374
2203
1977
1654
1253
848
485
155
-181
-536
-902
-1289
-1722
-2196
-2665
-3078
-3443
-3829
-4297
-4823
-5324
-5730
-6059
-6402
-6814
-7255
-7647
-7962
-8261
-8637
-9110
-9619
-10083
-10478
-10833
-11163
-11397
-11425
-11207
-10818
-10387
-9986
-9576
-9102
-8593
-8134
-7732
-7264
-6621
-5879
-5263
-4891
-4634
-4287
-3854
-3597
-3735
-4150
-4467
-4413
-4044
-3617
-3266
-2870
-2238
-1341
-351
522
1194
1703
2127
2507
2854
3187
3534
3891
4222
4495
4730
4964
5188
5352
5413
5393
5370
5417
5549
5722
5865
5927
5906
5839
5779
5744
5698
5597
5440
5277
5151
5052
4929
4751
4541
4339
4162
4003
3861
3745
3641
3518
3355
3187
3082
3070
3108
3140
3152
3179
3252
3358
3463
3550
3623
3673
3678
3625
3540
3461
3398
3314
3175
3003
2865
2799
2764
2673
2486
2255
2056
1902
1728
1484
1206
965
771
541
210
-174
-503
-744
-992
-1348
-1801
-2237
-2576
-2861
-3189
-3584
-3982
-4319
-4599
-4870
-5145
-5395
-5598
-5773
-5952
-6132
-6277
-6369
-6429
-6494
-6585
-6698
-6822
-6952
-7089
-7235
-7384
-7528
-7649
-7735
-7787
-7815
-7816
-7769
-7660
-7520
-7414
-7375
-7372
-7346
-7279
-7207
-7160
-7128
-7074
-6984
-6880
-6774
-6641
-6466
-6277
-6145
-6088
-6026
-5845
-5531
-5219
-5074
-5131
-5251
-5259
-5106
-4878
-4678
-4503
-4283
-3960
-3545
-3090
-2649
-2257
-1944
-1742
-1656
-1663
-1714
-1743
-1709
-1621
-1539
-1498
-1451
-1294
-979
-605
-336
-228
-173
-30
197
367
379
321
365
508
539
274
-181
-475
-372
8
326
420
462
730
1274
1848
2168
2183
2054
1930
1832
1691
1461
1154
798
408
13
-315
-512
-565
-528
-485
-464
-426
-298
-62
220
471
652
775
869
939
952
867
646
279
-193
-672
-1063
-1346
-1579
-1840
-2130
-2376
-2523
-2579
-2574
-2534
-2486
-2499
-2650
-2933
-3212
-3338
-3316
-3324
-3523
-3869
-4132
-4139
-3953
-3797
-3815
-3953
-4055
-4038
-3926
-3771
-3606
-3462
-3381
-3360
-3338
-3249
-3105
-2977
-2890
-2765
-2511
-2162
-1838
-1613
-1438
-1230
-959
-668
-404
-153
127
439
731
959
1153
1385
1680
1968
2142
2178
2168
2216
2335
2442
2482
2495
2556
2668
2785
2887
2988
3054
2979
2712
2370
2143
2064
1973
1734
1430
1271
1331
1469
1490
1359
1188
1070
996
918
805
642
417
182
70
179
431
608
548
335
204
294
513
644
568
377
282
416
720
1011
1158
1188
1221
1293
1336
1300
1269
1363
1575
1734
1692
1505
1376
1440
1613
1675
1470
1058
680
576
773
1046
1111
936
789
946
1348
1621
1511
1172
979
1101
1321
1328
1107
951
1104
1499
1870
2053
2105
2164
2288
2429
2536
2601
2648
2682
2718
2799
2967
3233
3558
3891
4214
4536
4852
5156
5450
5750
6061
6354
6614
6859
7118
7404
7726
8119
8567
8964
9176
9202
9231
9495
10013
10551
10860
10950
11056
11374
11885
12400
12753
12912
12995
13143
13399
13681
13850
13861
13811
13813
13869
13892
13821
13696
13562
13377
13088
12745
12461
12293
12182
12070
11995
12018
12085
12049
11859
11636
11543
11577
11553
11320
10907
10464
10063
9593
8923
8107
7341
6719
6087
5232
4194
3283
2720
2350
1810
952
17
-651
-980
-1202
-1577
-2168
-2852
-3458
-3841
-3979
-4014
-4189
-4651
-5319
-5975
-6496
-6936
-7358
-7732
-8004
-8198
-8379
-8526
-8592
-8577
-8571
-8646
-8777
-8917
-9068
-9244
-9418
-9539
-9615
-9696
-9788
-9824
-9780
-9737
-9776
-9887
-10003
-10135
-10371
-10695
-10920
-10872
-10615
-10405
-10405
-10490
-10402
-10066
-9692
-9570
-9754
-10001
-10049
-9888
-9753
-9830
-10029
-10054
-9735
-9231
-8871
-8819
-8941
-9005
-8937
-8833
-8783
-8768
-8712
-8582
-8370
-8053
-7626
-7183
-6874
-6740
-6638
-6386
-5973
-5567
-5314
-5152
-4892
-4451
-3949
-3548
-3278
-3016
-2670
-2282
-1934
-1630
-1274
-811
-290
208
696
1255
1923
2618
3220
3720
4222
4801
5407
5932
6364
6814
7367
7967
8471
8828
9150
9585
10125
10594
10829
10861
10886
11040
11256
11368
11313
11207
11184
11201
11104
10808
10433
10137
9923
9629
9172
8660
8271
8024
7771
7416
7051
6812
6645
6322
5743
5105
4704
4564
4400
3956
3321
2826
2651
2647
2564
2366
2213
2186
2181
2081
1952
1970
2163
2342
2329
2196
2184
2440
2872
3289
3612
3878
4130
4355
4541
4744
5027
5339
5566
5679
5804
6072
6462
6807
7011
7171
7407
7668
7785
7722
7681
7856
8154
8290
8127
7795
7507
7303
7075
6764
6417
6087
5765
5476
5324
5373
5508
5519
5335
5075
4863
4688
4466
4178
3906
3675
3393
2987
2516
2070
1636
1122
478
-190
-710
-1050
-1327
-1665
-2060
-2415
-2669
-2899
-3227
-3672
-4132
-4484
-4736
-5002
-5344
-5695
-5945
-6089
-6236
-6482
-6824
-7186
-7497
-7729
-7902
-8071
-8270
-8481
-8625
-8657
-8658
-8773
-9022
-9238
-9267
-9148
-9082
-9182
-9306
-9214
-8882
-8566
-8529
-8768
-9004
-8989
-8747
-8527
-8533
-8716
-8842
-8740
-8463
-8217
-8132
-8142
-8080
-7873
-7604
-7400
-7282
-7151
-6934
-6680
-6510
-6464
-6465
-6394
-6236
-6090
-6064
-6158
-6251
-6207
-6000
-5720
-5487
-5349
-5265
-5171
-5045
-4913
-4795
-4695
-4600
-4499
-4390
-4257
-4079
-3845
-3593
-3395
-3280
-3211
-3099
-2885
-2589
-2291
-2063
-1887
-1677
-1358
-957
-579
-307
-119
98
416
789
1116
1367
1625
1968
2366
2720
3003
3283
3616
3941
4141
4219
4326
4603
5024
5425
5690
5858
6073
6426
6869
7282
7583
7776
7918
8067
8234
8387
8490
8539
8579
8677
8850
9050
9200
9264
9301
9395
9557
9697
9715
9608
9484
9427
9405
9309
9073
8746
8423
8150
7889
7581
7203
6779
6356
5974
5664
5428
5238
5046
4825
4595
4406
4278
4177
4029
3804
3560
3397
3356
3368
3321
3192
3083
3105
3223
3308
3290
3274
3405
3670
3893
3943
3901
3965
4206
4491
4665
4722
4755
4805
4818
4753
4642
4485
4164
3573
2798
2071
1515
1017
408
-280
-823
-1096
-1227
-1436
-1789
-2163
-2453
-2707
-3018
-3368
-3663
-3882
-4125
-4486
-4940
-5398
-5852
-6382
-7038
-7752
-8394
-8891
-9281
-9625
-9922
-10128
-10218
-10217
-10170
-10084
-9943
-9746
-9513
-9261
-8969
-8588
-8082
-7495
-6952
-6568
-6345
-6169
-5929
-5651
-5470
-5459
-5511
-5444
-5202
-4901
-4676
-4533
-4389
-4220
-4105
-4099
-4137
-4121
-4051
-4015
-4062
-4139
-4180
-4191
-4237
-4349
-4502
-4694
-4973
-5375
-5829
-6219
-6507
-6777
-7114
-7483
-7752
-7875
-7957
-8140
-8425
-8655
-8708
-8635
-8581
-8594
-8575
-8415
-8149
-7919
-7795
-7701
-7537
-7312
-7101
-6929
-6722
-6422
-6079
-5775
-5516
-5223
-4855
-4495
-4259
-4139
-4001
-3746
-3434
-3199
-3070
-2925
-2640
-2246
-1900
-1721
-1662
-1573
-1367
-1106
-916
-846
-807
-676
-445
-253
-230
-333
-368
-201
68
196
76
-137
-203
-83
28
-61
-317
-552
-659
-708
-824
-1029
-1250
-1440
-1625
-1829
-2025
-2172
-2287
-2441
-2675
-2951
-3195
-3370
-3501
-3637
-3783
-3899
-3947
-3946
-3965
-4054
-4169
-4205
-4102
-3920
-3775
-3707
-3637
-3463
-3175
-2853
-2564
-2299
-2019
-1724
-1449
-1198
-932
-624
-308
-31
220
517
906
1350
1778
2177
2590
3049
3515
3930
4293
4672
5127
5636
6114
6512
6866
7241
7661
8083
8445
8736
8997
9261
9520
9733
9874
9975
10095
10259
10428
10535
10558
10542
10544
10556
10510
10366
10159
9956
9775
9559
9263
8918
8602
8337
8068
7748
7425
7214
7185
7284
7402
7481
7558
7694
7879
8047
8157
8231
8279
8249
8075
7779
7450
7118
6709
6152
5521
4979
4580
4226
3874
3680
3820
4182
4364
4067
3414
2779
2319
1800
923
-257
-1357
-2038
-2277
-2268
-2158
-1961
-1669
-1342
-1072
-891
-789
-771
-863
-1019
-1131
-1129
-1047
-971
-926
-843
-664
-438
-287
-251
-214
-31
313
696
1027
1381
1897
2586
3276
3794
4158
4539
5049
5629
6134
6488
6742
6992
7292
7633
7966
8223
8354
8363
8326
8336
8411
8481
8462
8354
8232
8158
8097
7939
7611
7150
6659
6167
5597
4866
4013
3188
2495
1864
1141
272
-628
-1422
-2105
-2788
-3537
-4286
-4932
-5468
-5962
-6440
-6842
-7118
-7319
-7543
-7792
-7965
-7972
-7847
-7681
-7507
-7266
-6894
-6418
-5930
-5469
-4999
-4472
-3892
-3313
-2777
-2281
-1790
-1270
-711
-141
387
838
1231
1629
2081
2569
3040
3459
3829
4172
4506
4853
5223
5579
5856
6040
6210
6479
6870
7289
7629
7865
8054
8237
8403
8526
8598
8606
8520
8334
8121
7986
7961
7970
7923
7814
7717
7675
7649
7571
7420
7230
7041
6853
6647
6424
6205
6018
5874
5758
5654
5562
5493
5456
5440
5420
5370
5274
5115
4881
4580
4242
3893
3519
3083
2576
2045
1537
1056
564
36
-513
-1062
-1621
-2207
-2810
-3395
-3952
-4510
-5112
-5745
-6359
-6919
-7433
-7923
-8402
-8867
-9318
-9749
-10139
-10450
-10672
-10838
-11007
-11233
-11546
-11933
-12328
-12618
-12713
-12614
-12385
-12055
-11562
-10825
-9883
-8906
-8069
-7422
-6908
-6474
-6131
-5898
-5752
-5652
-5584
-5550
-5535
-5497
-5424
-5364
-5374
-5452
-5541
-5591
-5581
-5514
-5404
-5277
-5151
-5016
-4858
-4687
-4550
-4467
-4386
-4245
-4060
-3915
-3845
-3771
-3604
-3383
-3246
-3237
-3215
-2970
-2452
-1807
-1204
-671
-122
479
1045
1445
1628
1659
1640
1630
1619
1576
1510
1466
1482
1548
1607
1616
1582
1534
1493
1442
1355
1229
1104
1021
985
946
840
678
558
558
621
584
358
74
-21
181
537
824
981
1149
1470
1907
2280
2453
2424
2267
2029
1716
1341
960
635
399
252
162
91
10
-80
-167
-270
-433
-666
-943
-1239
-1567
-1954
-2370
-2713
-2920
-3057
-3267
-3598
-3926
-3952
-3761
-3701
-3838
-4057
-4209
-4269
-4324
-4453
-4632
-4776
-4832
-4822
-4796
-4779
-4761
-4733
-4693
-4639
-4577
-4532
-4523
-4520
-4442
-4236
-3931
-3611
-3330
-3047
-2699
-2299
-1936
-1676
-1481
-1250
-918
-512
-114
214
485
759
1067
1375
1603
1716
1784
1936
2206
2475
2586
2532
2466
2530
2661
2649
2367
1930
1575
1421
1371
1253
1000
708
508
442
431
361
179
-96
-392
-650
-856
-1007
-1095
-1095
-1005
-869
-747
-647
-531
-382
-247
-205
-257
-277
-118
222
595
851
991
1149
1422
1764
2049
2236
2399
2627
2894
3097
3179
3213
3316
3506
3668
3688
3573
3440
3359
3288
3153
2980
2895
2958
3082
3134
3086
3049
3101
3202
3255
3240
3212
3218
3247
3270
3291
3304
3273
3176
3065
3006
2987
2938
2843
2790
2880
3105
3365
3603
3865
4206
4609
5029
5469
5964
6504
7008
7415
7759
8142
8617
9123
9524
9693
9622
9439
9317
9348
9466
9543
9549
9593
9789
10088
10324
10402
10405
10471
10595
10621
10449
10193
10079
10184
10353
10381
10238
10082
10019
9975
9837
9626
9430
9243
8963
8615
8423
8556
8818
8792
8328
7729
7396
7324
7127
6556
5835
5364
5213
5062
4650
4104
3770
3766
3821
3569
2929
2173
1649
1463
1402
1126
478
-366
-1058
-1402
-1534
-1751
-2205
-2787
-3298
-3678
-4005
-4332
-4635
-4878
-5119
-5450
-5866
-6260
-6503
-6569
-6538
-6545
-6658
-6837
-6968
-6981
-6926
-6947
-7120
-7347
-7460
-7423
-7373
-7434
-7549
-7535
-7316
-7060
-6993
-7166
-7426
-7589
-7616
-7585
-7576
-7617
-7686
-7729
-7671
-7469
-7168
-6905
-6809
-6895
-7072
-7217
-7228
-7082
-6866
-6748
-6828
-7010
-7051
-6799
-6368
-6049
-6028
-6211
-6336
-6241
-5996
-5784
-5706
-5702
-5658
-5543
-5402
-5278
-5173
-5083
-5035
-5024
-4954
-4702
-4281
-3878
-3676
-3671
-3695
-3613
-3460
-3327
-3236
-3140
-3020
-2895
-2726
-2419
-1964
-1527
-1312
-1312
-1300
-1087
-748
-519
-507
-564
-468
-176
153
374
511
703
1025
1408
1724
1954
2208
2597
3096
3576
3932
4178
4408
4690
5015
5343
5648
5913
6119
6286
6466
6702
6969
7183
7299
7357
7451
7625
7839
8011
8093
8089
8033
7960
7894
7827
7712
7507
7225
6945
6734
6580
6394
6093
5679
5253
4936
4785
4756
4751
4721
4726
4867
5161
5483
5685
5734
5754
5857
6013
6101
6050
5907
5755
5640
5541
5425
5247
4977
4662
4429
4399
4544
4694
4748
4795
5002
5372
5719
5875
5872
5878
5973
6061
6030
5918
5876
5995
6195
6337
6367
6359
6417
6543
6634
6610
6513
6472
6542
6628
6592
6440
6348
6449
6633
6629
6310
5856
5543
5413
5264
4912
4435
4063
3884
3748
3495
3149
2854
2619
2292
1771
1175
743
537
383
88
-345
-761
-1072
-1338
-1646
-1990
-2333
-2722
-3235
-3829
-4321
-4577
-4676
-4827
-5132
-5486
-5732
-5836
-5914
-6065
-6290
-6519
-6726
-6930
-7140
-7300
-7354
-7317
-7285
-7334
-7429
-7471
-7411
-7329
-7357
-7534
-7740
-7821
-7765
-7710
-7772
-7895
-7924
-7798
-7624
-7545
-7589
-7684
-7783
-7918
-8110
-8291
-8374
-8367
-8370
-8443
-8528
-8528
-8442
-8361
-8366
-8445
-8527
-8555
-8519
-8450
-8380
-8335
-8303
-8235
-8091
-7883
-7652
-7421
-7162
-6855
-6539
-6279
-6073
-5844
-5534
-5183
-4891
-4693
-4513
-4254
-3900
-3533
-3228
-2974
-2696
-2351
-1980
-1669
-1458
-1296
-1103
-863
-631
-457
-312
-120
149
406
554
614
711
929
1209
1412
1494
1563
1767
2118
2473
2699
2817
2967
3249
3622
3961
4207
4426
4710
5070
5421
5687
5878
6075
6320
6567
6755
6873
6985
7136
7306
7455
7565
7659
7754
7848
7934
8034
8158
8272
8330
8342
8355
8378
8369
8279
8120
7960
7831
7690
7489
7281
7205
7341
7588
7713
7603
7435
7552
8102
8782
9051
8660
7942
7530
7713
8136
8164
7524
6562
5857
5652
5692
5561
5072
4366
3708
3272
3079
3029
2988
2841
2580
2305
2103
1972
1837
1649
1408
1123
758
290
-207
-608
-870
-1101
-1447
-1945
-2496
-3009
-3491
-3999
-4548
-5069
-5498
-5831
-6114
-6367
-6548
-6588
-6474
-6302
-6205
-6219
-6228
-6067
-5723
-5376
-5247
-5367
-5575
-5715
-5819
-6043
-6477
-7055
-7645
-8179
-8657
-9074
-9381
-9533
-9522
-9367
-9073
-8657
-8157
-7640
-7145
-6670
-6199
-5728
-5272
-4845
-4441
-4058
-3698
-3363
-3015
-2626
-2229
-1916
-1755
-1701
-1618
-1417
-1163
-999
-974
-968
-824
-548
-315
-274
-377
-427
-302
-112
-95
-380
-845
-1245
-1468
-1652
-2002
-2563
-3146
-3551
-3781
-4030
-4439
-4936
-5320
-5497
-5545
-5603
-5697
-5758
-5718
-5561
-5302
-4993
-4745
-4669
-4771
-4915
-4933
-4821
-4729
-4783
-4929
-4977
-4812
-4478
-4105
-3783
-3551
-3433
-3436
-3497
-3513
-3442
-3334
-3247
-3148
-2941
-2616
-2312
-2180
-2221
-2296
-2312
-2320
-2429
-2652
-2901
-3093
-3200
-3230
-3190
-3150
-3230
-3461
-3697
-3716
-3473
-3201
-3135
-3239
-3249
-3024
-2747
-2708
-2953
-3260
-3436
-3536
-3719
-3990
-4175
-4150
-3996
-3903
-3934
-3989
-3961
-3876
-3843
-3919
-4058
-4164
-4184
-4130
-4041
-3963
-3911
-3878
-3844
-3797
-3743
-3696
-3669
-3643
-3566
-3380
-3087
-2754
-2461
-2223
-1984
-1706
-1419
-1178
-975
-739
-424
-75
247
549
902
1333
1765
2096
2315
2498
2720
2998
3330
3744
4270
4891
5548
6192
6815
7438
8057
8635
9123
9516
9853
10198
10572
10925
11172
11264
11237
11171
11119
11062
10954
10807
10720
10819
11143
11592
11990
12212
12282
12318
12381
12404
12275
11981
11646
11412
11310
11277
11251
11228
11219
11186
11061
10821
10528
10262
10046
9846
9636
9437
9293
9190
9051
8800
8462
8157
7989
7924
7809
7537
7158
6832
6648
6537
6354
6020
5581
5154
4831
4623
4473
4293
4035
3726
3453
3256
3081
2846
2549
2301
2199
2207
2203
2118
1999
1924
1899
1830
1630
1291
891
520
242
79
11
-13
-41
-74
-69
-2
90
128
71
-41
-120
-94
45
248
450
632
832
1082
1366
1625
1822
2002
2249
2591
2971
3301
3567
3850
4235
4703
5146
5457
5620
5709
5805
5922
5995
5949
5753
5450
5120
4798
4436
3942
3269
2475
1672
933
238
-473
-1221
-1973
-2674
-3293
-3835
-4336
-4855
-5428
-6022
-6561
-6996
-7374
-7785
-8252
-8689
-9003
-9199
-9361
-9533
-9655
-9654
-9546
-9415
-9303
-9169
-8959
-8685
-8405
-8140
-7845
-7481
-7073
-6675
-6304
-5925
-5505
-5064
-4652
-4299
-3984
-3662
-3310
-2934
-2543
-2130
-1680
-1194
-701
-226
239
718
1214
1697
2141
2561
3003
3490
3994
4464
4883
5275
5663
6028
6334
6568
6754
6932
7117
7305
7485
7644
7765
7847
7917
8001
8089
8123
8062
7934
7817
7757
7719
7636
7487
7309
7150
7017
6884
6732
6559
6371
6180
5995
5826
5648
5410
5084
4705
4349
4060
3818
3590
3412
3361
3470
3664
3824
3891
3896
3882
3839
3735
3567
3366
3131
2808
2355
1813
1265
733
142
-586
-1420
-2221
-2870
-3377
-3837
-4317
-4797
-5206
-5525
-5804
-6118
-6510
-6967
-7442
-7891
-8300
-8666
-8985
-9256
-9488
-9705
-9924
-10137
-10315
-10447
-10550
-10637
-10682
-10645
-10523
-10376
-10269
-10199
-10102
-9929
-9707
-9496
-9320
-9140
-8913
-8643
-8380
-8162
-7978
-7791
-7575
-7335
-7078
-6816
-6556
-6295
-6030
-5764
-5508
-5274
-5058
-4853
-4663
-4486
-4305
-4100
-3886
-3725
-3677
-3723
-3765
-3721
-3609
-3512
-3465
-3393
-3188
-2818
-2358
-1916
-1541
-1218
-922
-669
-499
-420
-389
-346
-271
-205
-177
-148
-34
197
465
635
649
583
558
609
671
682
655
654
704
773
830
881
945
990
951
790
557
340
189
81
-36
-172
-277
-295
-211
-67
78
195
292
383
456
491
480
444
421
434
476
518
539
545
568
637
752
872
942
941
898
867
869
865
806
686
546
432
335
210
31
-168
-323
-404
-451
-540
-722
-984
-1255
-1477
-1663
-1885
-2197
-2562
-2874
-3053
-3136
-3223
-3363
-3492
-3522
-3444
-3335
-3257
-3182
-3038
-2806
-2534
-2256
-1941
-1528
-1028
-542
-156
135
440
846
1325
1753
2044
2257
2533
2948
3417
3802
4066
4307
4622
4970
5225
5337
5391
5489
5632
5731
5716
5606
5438
5196
4847
4400
3906
3393
2832
2215
1607
1098
710
362
-40
-510
-992
-1426
-1806
-2156
-2480
-2751
-2943
-3033
-3020
-2917
-2752
-2567
-2388
-2206
-1988
-1727
-1466
-1272
-1162
-1099
-1036
-981
-983
-1064
-1188
-1304
-1385
-1438
-1460
-1420
-1285
-1050
-745
-437
-211
-117
-119
-116
-34
97
179
174
171
293
557
844
1023
1086
1132
1241
1392
1508
1566
1637
1787
1993
2175
2304
2458
2741
3148
3541
3770
3830
3858
4001
4279
4576
4767
4825
4822
4874
5037
5257
5439
5526
5548
5592
5717
5887
6026
6097
6122
6152
6203
6254
6271
6247
6234
6310
6494
6711
6841
6846
6828
6927
7156
7372
7425
7311
7172
7158
7297
7507
7702
7849
7973
8101
8234
8355
8462
8563
8655
8709
8699
8637
8586
8583
8572
8481
8327
8193
8101
7963
7684
7331
7092
7034
6996
6764
6321
5872
5600
5465
5280
4959
4589
4266
3962
3587
3145
2769
2558
2433
2204
1791
1328
1045
1013
1059
944
616
248
25
-73
-228
-524
-837
-998
-1024
-1107
-1353
-1628
-1755
-1745
-1783
-1974
-2204
-2322
-2363
-2495
-2778
-3064
-3182
-3160
-3173
-3318
-3525
-3701
-3844
-3984
-4082
-4085
-4058
-4155
-4421
-4694
-4785
-4712
-4691
-4859
-5111
-5215
-5122
-5037
-5160
-5444
-5652
-5629
-5493
-5497
-5741
-6071
-6259
-6239
-6150
-6170
-6337
-6532
-6626
-6589
-6499
-6457
-6515
-6649
-6784
-6863
-6888
-6941
-7101
-7348
-7553
-7605
-7537
-7520
-7703
-8029
-8287
-8306
-8110
-7883
-7791
-7864
-8011
-8112
-8102
-7990
-7862
-7836
-7973
-8196
-8341
-8293
-8058
-7718
-7317
-6834
-6302
-5826
-5480
-5180
-4757
-4152
-3518
-3044
-2733
-2411
-1957
-1445
-1048
-839
-737
-635
-557
-554
-546
-339
158
811
1380
1779
2150
2674
3322
3899
4263
4471
4699
5047
5461
5831
6109
6332
6551
6818
7159
7535
7857
8059
8181
8343
8605
8891
9077
9140
9181
9288
9431
9535
9579
9625
9723
9847
9949
10022
10046
9958
9699
9317
8939
8646
8376
8006
7512
6995
6598
6368
6216
6001
5638
5166
4709
4360
4066
3671
3127
2590
2247
2110
2000
1783
1550
1494
1652
1843
1879
1764
1669
1719
1874
2010
2086
2172
2360
2669
3030
3339
3565
3778
4054
4381
4649
4784
4864
5046
5381
5723
5881
5836
5786
5962
6387
6855
7139
7204
7193
7273
7470
7669
7740
7667
7524
7370
7227
7116
7076
7125
7201
7172
6966
6663
6426
6341
6329
6189
5798
5236
4690
4266
3891
3433
2882
2382
2047
1830
1568
1182
776
529
467
419
179
-283
-803
-1177
-1361
-1484
-1714
-2086
-2471
-2727
-2832
-2889
-3016
-3241
-3486
-3677
-3814
-3949
-4131
-4329
-4483
-4567
-4622
-4711
-4842
-4957
-4987
-4947
-4957
-5115
-5388
-5646
-5819
-5962
-6166
-6426
-6622
-6657
-6576
-6527
-6589
-6698
-6738
-6688
-6643
-6715
-6905
-7126
-7307
-7459
-7630
-7826
-8003
-8138
-8266
-8416
-8573
-8688
-8749
-8798
-8865
-8936
-8979
-8994
-9000
-8990
-8941
-8863
-8803
-8772
-8708
-8548
-8318
-8149
-8146
-8275
-8400
-8429
-8386
-8322
-8233
-8046
-7685
-7133
-6433
-5676
-4973
-4405
-3969
-3578
-3150
-2703
-2344
-2139
-2037
-1924
-1740
-1528
-1354
-1233
-1151
-1120
-1170
-1276
-1329
-1227
-985
-709
-468
-243
37
390
773
1128
1430
1678
1880
2067
2288
2575
2912
3246
3522
3717
3854
3974
4126
4333
4566
4767
4916
5053
5234
5462
5686
5841
5909
5925
5946
6015
6134
6249
6295
6260
6223
6283
6431
6526
6439
6212
6032
6004
6034
5926
5633
5317
5162
5164
5150
5009
4829
4760
4815
4852
4757
4575
4433
4355
4231
3959
3590
3264
3047
2881
2690
2483
2319
2211
2132
2078
2079
2118
2088
1918
1720
1699
1900
2114
2115
1946
1899
2157
2572
2850
2913
3000
3360
3962
4549
4950
5228
5522
5834
6045
6073
5971
5832
5661
5404
5066
4735
4484
4296
4079
3761
3342
2862
2357
1847
1349
869
382
-137
-671
-1181
-1674
-2184
-2715
-3195
-3551
-3820
-4112
-4453
-4676
-4580
-4194
-3821
-3752
-3957
-4127
-4055
-3884
-3953
-4406
-5018
-5435
-5547
-5569
-5762
-6155
-6553
-6792
-6928
-7137
-7514
-8003
-8483
-8886
-9223
-9539
-9879
-10276
-10721
-11145
-11449
-11597
-11652
-11695
-11710
-11582
-11227
-10685
-10086
-9517
-8956
-8337
-7656
-6984
-6396
-5893
-5407
-4878
-4310
-3764
-3296
-2896
-2500
-2066
-1632
-1278
-1021
-770
-436
-37
312
531
662
802
971
1106
1155
1141
1102
1030
927
884
1008
1256
1412
1305
1013
765
639
439
-72
-834
-1513
-1849
-1906
-1932
-2034
-2063
-1839
-1414
-1044
-919
-998
-1099
-1111
-1085
-1124
-1257
-1402
-1468
-1451
-1426
-1471
-1611
-1830
-2114
-2458
-2831
-3173
-3423
-3581
-3688
-3774
-3827
-3837
-3846
-3934
-4128
-4362
-4545
-4648
-4740
-4895
-5089
-5216
-5194
-5050
-4937
-4996
-5227
-5475
-5574
-5502
-5405
-5430
-5546
-5571
-5384
-5080
-4896
-4947
-5108
-5155
-5016
-4846
-4833
-4994
-5161
-5175
-5045
-4921
-4931
-5068
-5225
-5329
-5394
-5476
-5604
-5760
-5915
-6049
-6161
-6259
-6356
-6444
-6502
-6510
-6464
-6390
-6317
-6243
-6137
-5982
-5799
-5620
-5445
-5261
-5086
-4963
-4889
-4766
-4484
-4052
-3614
-3313
-3139
-2949
-2628
-2210
-1822
-1533
-1292
-996
-600
-141
319
760
1195
1647
2110
2553
2950
3310
3674
4072
4488
4890
5264
5641
6061
6531
7016
7463
7857
8222
8592
8980
9364
9717
10048
10390
10761
11132
11458
11744
12045
12384
12716
12973
13155
13332
13542
13743
13877
13961
14062
14200
14309
14329
14291
14256
14217
14117
13943
13776
13683
13618
13488
13289
13125
13060
13028
12924
12743
12569
12442
12308
12124
11934
11798
11667
11419
11012
10539
10090
9601
8919
7999
7001
6137
5456
4844
4179
3463
2796
2243
1766
1272
684
2
-696
-1328
-1866
-2349
-2805
-3189
-3418
-3482
-3480
-3499
-3492
-3336
-3000
-2609
-2298
-2073
-1817
-1464
-1063
-696
-360
8
432
868
1285
1706
2162
2625
3033
3373
3703
4055
4372
4556
4608
4659
4838
5113
5330
5370
5268
5148
5073
4980
4763
4414
4045
3802
3757
3870
4013
4045
3926
3727
3550
3396
3135
2631
1902
1102
371
-297
-992
-1751
-2532
-3299
-4071
-4867
-5615
-6207
-6618
-6922
-7185
-7382
-7430
-7299
-7041
-6725
-6386
-6036
-5693
-5362
-5017
-4616
-4143
-3610
-3043
-2451
-1839
-1229
-635
-46
549
1129
1659
2143
2633
3177
3747
4265
4690
5070
5488
5963
6435
6818
7084
7283
7477
7682
7856
7948
7962
7968
8023
8105
8125
8015
7789
7502
7172
6750
6195
5544
4885
4275
3713
3177
2674
2245
1906
1618
1318
971
588
216
-121
-429
-736
-1053
-1359
-1619
-1813
-1950
-2056
-2151
-2239
-2320
-2406
-2509
-2635
-2774
-2904
-3023
-3151
-3302
-3457
-3573
-3621
-3629
-3659
-3740
-3835
-3893
-3908
-3930
-4008
-4149
-4321
-4483
-4609
-4695
-4765
-4859
-4998
-5161
-5302
-5401
-5476
-5551
-5615
-5639
-5613
-5564
-5522
-5485
-5453
-5459
-5532
-5665
-5803
-5900
-5970
-6050
-6136
-6176
-6125
-6006
-5893
-5838
-5835
-5831
-5781
-5686
-5580
-5497
-5438
-5368
-5242
-5036
-4781
-4545
-4381
-4277
-4155
-3939
-3625
-3285
-2994
-2758
-2504
-2167
-1757
-1368
-1097
-970
-921
-850
-708
-536
-412
-374
-383
-366
-290
-188
-127
-138
-201
-268
-292
-289
-335
-495
-729
-897
-909
-846
-905
-1171
-1476
-1557
-1344
-1045
-909
-955
-989
-869
-676
-599
-726
-969
-1219
-1477
-1811
-2221
-2608
-2875
-3027
-3145
-3287
-3434
-3531
-3543
-3496
-3455
-3485
-3603
-3758
-3857
-3861
-3843
-3930
-4170
-4472
-4700
-4815
-4891
-4983
-5037
-4962
-4757
-4513
-4283
-4008
-3615
-3148
-2737
-2445
-2208
-1936
-1660
-1511
-1550
-1689
-1787
-1808
-1847
-2001
-2229
-2394
-2409
-2337
-2328
-2457
-2634
-2702
-2614
-2487
-2479
-2607
-2726
-2698
-2538
-2364
-2233
-2077
-1808
-1438
-1088
-852
-688
-469
-124
285
605
753
801
909
1167
1524
1878
2203
2557
2971
3411
3837
4280
4792
5309
5679
5827
5871
6010
6314
6664
6908
7023
7091
7178
7268
7318
7308
7234
7077
6813
6468
6104
5764
5452
5156
4846
4465
3956
3335
2701
2145
1647
1117
543
44
-253
-376
-494
-732
-1030
-1248
-1347
-1448
-1681
-2007
-2243
-2262
-2100
-1895
-1733
-1583
-1368
-1083
-803
-605
-509
-471
-446
-423
-391
-313
-137
145
465
747
980
1215
1484
1734
1897
1986
2068
2164
2200
2100
1920
1814
1867
2001
2055
1986
1913
1947
2075
2195
2256
2292
2332
2342
2322
2367
2569
2873
3102
3163
3199
3413
3793
4087
4108
3985
4001
4237
4497
4582
4550
4625
4893
5219
5453
5611
5788
5983
6107
6148
6207
6344
6486
6518
6449
6400
6447
6552
6661
6797
7000
7235
7415
7510
7586
7713
7883
8041
8167
8271
8352
8408
8489
8673
8951
9184
9228
9110
9007
9029
9126
9154
9049
8878
8734
8631
8535
8441
8365
8286
8140
7893
7581
7278
7047
6888
6767
6639
6458
6173
5776
5327
4937
4662
4444
4146
3695
3150
2635
2245
1965
1681
1280
770
296
40
64
209
232
55
-167
-242
-200
-274
-578
-915
-1022
-947
-1024
-1445
-1990
-2304
-2374
-2578
-3215
-4125
-4886
-5302
-5556
-5880
-6270
-6581
-6755
-6877
-7000
-7081
-7129
-7268
-7572
-7940
-8186
-8245
-8232
-8280
-8384
-8453
-8457
-8448
-8505
-8658
-8882
-9109
-9248
-9247
-9154
-9077
-9052
-9024
-8938
-8834
-8769
-8721
-8635
-8563
-8642
-8878
-9065
-9009
-8769
-8618
-8692
-8809
-8741
-8527
-8411
-8496
-8614
-8576
-8453
-8450
-8591
-8649
-8468
-8192
-8118
-8311
-8515
-8455
-8164
-7925
-7924
-8047
-8039
-7795
-7432
-7117
-6868
-6606
-6294
-5976
-5678
-5332
-4872
-4353
-3903
-3588
-3322
-2969
-2501
-2023
-1624
-1250
-765
-124
556
1112
1517
1921
2451
3037
3488
3731
3930
4307
4861
5377
5716
6018
6529
7261
7927
8267
8359
8514
8924
9475
9912
10139
10254
10408
10652
10935
11174
11313
11334
11257
11121
10952
10744
10516
10321
10176
9997
9693
9282
8921
8744
8682
8517
8110
7553
7089
6870
6832
6785
6594
6264
5889
5576
5383
5289
5191
4964
4567
4101
3745
3608
3620
3620
3497
3283
3085
2962
2911
2887
2852
2771
2625
2468
2422
2552
2779
2949
3014
3100
3332
3661
3924
4035
4094
4247
4516
4817
5102
5401
5743
6085
6395
6718
7111
7537
7876
8060
8150
8257
8401
8543
8665
8795
8948
9087
9179
9237
9270
9244
9136
8994
8878
8775
8574
8231
7863
7634
7541
7398
7039
6475
5852
5282
4766
4248
3688
3062
2372
1699
1190
929
807
587
154
-355
-716
-878
-1029
-1367
-1851
-2272
-2515
-2702
-3044
-3616
-4292
-4913
-5458
-6017
-6685
-7434
-8134
-8654
-8966
-9158
-9348
-9591
-9832
-9995
-10083
-10185
-10374
-10620
-10830
-10943
-10978
-10999
-11048
-11103
-11095
-10968
-10746
-10540
-10475
-10560
-10655
-10597
-10346
-10008
-9693
-9412
-9119
-8813
-8530
-8262
-7945
-7556
-7188
-6955
-6842
-6711
-6451
-6106
-5796
-5577
-5418
-5267
-5115
-4972
-4819
-4637
-4458
-4340
-4291
-4242
-4101
-3863
-3606
-3409
-3290
-3213
-3144
-3071
-2981
-2849
-2666
-2471
-2316
-2209
-2085
-1885
-1630
-1400
-1251
-1143
-978
-723
-449
-241
-91
98
392
734
1011
1176
1296
1465
1683
1878
1998
2077
2209
2429
2698
2959
3200
3435
3660
3838
3950
4021
4086
4146
4177
4180
4208
4293
4399
4452
4432
4403
4440
4528
4587
4556
4470
4424
4471
4574
4661
4690
4686
4705
4781
4901
5017
5099
5172
5308
5555
5869
6138
6285
6331
6360
6424
6493
6516
6469
6383
6306
6288
6340
6431
6493
6472
6361
6189
5977
5732
5462
5185
4897
4565
4185
3829
3587
3469
3380
3237
3055
2930
2908
2930
2915
2867
2866
2962
3105
3226
3320
3453
3671
3934
4162
4351
4581
4910
5216
5284
5053
4741
4655
4858
5090
5087
4913
4882
5176
5612
5880
5884
5772
5656
5436
4975
4334
3710
3178
2615
1902
1142
531
127
-214
-633
-1099
-1492
-1802
-2170
-2694
-3293
-3816
-4212
-4575
-4986
-5405
-5725
-5896
-5942
-5924
-5871
-5808
-5805
-5943
-6254
-6685
-7158
-7645
-8171
-8791
-9534
-10387
-11314
-12275
-13248
-14206
-15098
-15870
-16503
-17024
-17442
-17702
-17728
-17533
-17236
-16957
-16712
-16420
-15989
-15400
-14694
-13944
-13231
-12594
-11987
-11289
-10422
-9462
-8591
-7927
-7411
-6874
-6184
-5335
-4424
-3587
-2917
-2384
-1810
-1029
-72
823
1445
1858
2320
2967
3630
4014
4033
3878
3784
3786
3727
3501
3183
2927
2789
2671
2449
2104
1738
1462
1273
1063
763
421
144
-36
-203
-457
-801
-1123
-1342
-1499
-1712
-2020
-2334
-2495
-2439
-2289
-2246
-2404
-2651
-2785
-2740
-2662
-2740
-2979
-3181
-3167
-2973
-2799
-2769
-2790
-2672
-2361
-2008
-1815
-1827
-1900
-1864
-1715
-1614
-1704
-1934
-2088
-2006
-1751
-1552
-1544
-1644
-1689
-1652
-1643
-1737
-1854
-1874
-1820
-1831
-1959
-2079
-2041
-1895
-1838
-1980
-2218
-2364
-2386
-2416
-2543
-2684
-2703
-2617
-2618
-2869
-3302
-3679
-3852
-3926
-4137
-4557
-4987
-5148
-4972
-4698
-4640
-4875
-5192
-5337
-5295
-5272
-5418
-5623
-5644
-5390
-5030
-4771
-4614
-4403
-4062
-3720
-3538
-3494
-3418
-3211
-2941
-2681
-2364
-1872
-1263
-768
-522
-389
-114
367
863
1168
1306
1492
1887
2473
3138
3807
4439
4978
5387
5724
6104
6583
7076
7454
7681
7865
8139
8545
9007
9422
9769
10087
10401
10664
10818
10895
11005
11214
11445
11568
11587
11652
11865
12127
12256
12228
12233
12411
12652
12725
12569
12377
12352
12461
12505
12379
12163
11977
11834
11698
11587
11573
11684
11853
11990
12057
12079
12107
12200
12356
12458
12316
11886
11391
11143
11196
11245
10933
10244
9496
8958
8534
7890
6857
5610
4478
3620
2946
2311
1700
1206
895
710
540
319
38
-287
-643
-1017
-1408
-1828
-2278
-2718
-3052
-3195
-3156
-3039
-2942
-2870
-2748
-2508
-2139
-1704
-1303
-1012
-818
-598
-205
384
1030
1551
1921
2282
2768
3343
3841
4150
4322
4473
4658
4849
4991
5075
5124
5153
5152
5098
4977
4792
4562
4307
4026
3712
3379
3064
2800
2571
2320
1999
1605
1181
758
327
-151
-711
-1329
-1934
-2446
-2850
-3207
-3580
-3962
-4285
-4506
-4651
-4763
-4826
-4793
-4662
-4508
-4396
-4288
-4089
-3769
-3415
-3138
-2952
-2787
-2575
-2323
-2075
-1843
-1601
-1331
-1039
-746
-466
-204
30
244
454
673
878
1035
1139
1245
1411
1628
1834
1982
2093
2226
2404
2599
2774
2926
3078
3235
3378
3493
3599
3718
3846
3949
4002
4019
4037
4074
4104
4091
4034
3969
3932
3907
3839
3691
3493
3299
3126
2933
2684
2406
2164
1987
1839
1662
1452
1268
1145
1043
894
696
526
454
445
403
285
162
122
147
102
-115
-454
-761
-938
-1034
-1150
-1298
-1385
-1324
-1142
-937
-786
-692
-631
-604
-643
-766
-971
-1234
-1522
-1798
-2036
-2249
-2476
-2730
-2967
-3142
-3282
-3471
-3750
-4063
-4322
-4520
-4737
-5032
-5357
-5607
-5754
-5881
-6069
-6309
-6523
-6677
-6820
-7011
-7250
-7489
-7703
-7904
-8082
-8186
-8148
-7961
-7672
-7339
-6991
-6637
-6298
-6001
-5760
-5563
-5400
-5277
-5216
-5224
-5288
-5385
-5493
-5615
-5774
-5994
-6270
-6538
-6711
-6734
-6639
-6521
-6449
-6400
-6295
-6085
-5828
-5633
-5566
-5588
-5606
-5564
-5474
-5367
-5250
-5112
-4965
-4854
-4814
-4827
-4844
-4837
-4820
-4808
-4779
-4667
-4451
-4190
-3985
-3871
-3792
-3677
-3531
-3426
-3419
-3463
-3452
-3322
-3096
-2848
-2622
-2402
-2152
-1862
-1563
-1300
-1109
-1005
-967
-943
-895
-815
-734
-695
-719
-783
-842
-864
-853
-848
-884
-934
-933
-857
-768
-752
-830
-923
-957
-962
-1029
-1158
-1216
-1085
-830
-660
-689
-782
-715
-431
-116
19
-28
-89
-28
129
276
373
454
534
575
565
567
659
835
1002
1091
1141
1258
1513
1872
2228
2480
2604
2655
2705
2807
2970
3180
3396
3567
3661
3707
3806
4029
4330
4537
4512
4291
4053
3963
3995
3995
3837
3547
3253
3047
2917
2775
2552
2242
1884
1526
1198
916
682
477
261
2
-296
-593
-844
-1034
-1168
-1246
-1273
-1277
-1318
-1407
-1452
-1335
-1066
-818
-748
-791
-703
-337
190
628
878
1083
1401
1802
2134
2345
2551
2838
3118
3246
3256
3358
3669
4035
4192
4096
3951
3934
3985
3935
3789
3737
3875
4040
3994
3753
3571
3610
3728
3663
3368
3048
2902
2903
2897
2820
2753
2786
2904
3045
3175
3282
3345
3370
3418
3531
3647
3671
3616
3637
3861
4215
4471
4502
4405
4366
4463
4640
4826
5036
5329
5722
6152
6559
6958
7412
7934
8453
8875
9182
9451
9752
10049
10246
10330
10393
10506
10618
10617
10507
10457
10630
10998
11357
11531
11540
11553
11700
11970
12235
12348
12248
12017
11825
11806
11933
12046
11993
11773
11538
11437
11459
11423
11168
10712
10246
9942
9779
9582
9207
8714
8294
8064
7951
7781
7455
7009
6539
6106
5683
5212
4659
4041
3411
2825
2331
1962
1683
1360
844
149
-510
-913
-1131
-1486
-2201
-3089
-3732
-3954
-4005
-4310
-4998
-5778
-6277
-6418
-6427
-6579
-6980
-7496
-7888
-8025
-8003
-8067
-8372
-8808
-9128
-9207
-9180
-9267
-9503
-9735
-9829
-9823
-9856
-9987
-10148
-10248
-10261
-10211
-10131
-10069
-10080
-10170
-10266
-10271
-10190
-10136
-10176
-10227
-10174
-10049
-9987
-10069
-10181
-10135
-9939
-9806
-9891
-10107
-10215
-10082
-9812
-9593
-9518
-9566
-9655
-9704
-9634
-9407
-9095
-8848
-8743
-8698
-8535
-8162
-7680
-7289
-7121
-7140
-7175
-7061
-6781
-6467
-6285
-6235
-6126
-5780
-5222
-4656
-4238
-3934
-3619
-3244
-2854
-2480
-2095
-1687
-1346
-1157
-1037
-773
-218
517
1128
1420
1493
1629
2015
2543
2951
3093
3102
3236
3601
4062
4421
4658
4912
5275
5653
5905
6041
6214
6509
6839
7046
7147
7300
7584
7881
8042
8095
8197
8382
8500
8438
8276
8215
8313
8418
8383
8226
8073
7959
7820
7647
7512
7447
7363
7169
6903
6714
6673
6698
6668
6568
6481
6504
6626
6731
6701
6523
6324
6243
6264
6211
5984
5737
5746
6077
6493
6734
6816
6982
7357
7789
8075
8217
8375
8650
8987
9285
9488
9590
9612
9577
9500
9333
8983
8452
7930
7621
7509
7379
7118
6913
7019
7393
7666
7536
7094
6679
6492
6404
6168
5702
5156
4715
4414
4159
3840
3441
3025
2640
2268
1876
1458
1076
784
545
254
-174
-689
-1168
-1546
-1871
-2218
-2605
-2981
-3319
-3637
-3946
-4208
-4406
-4632
-5009
-5530
-6040
-6409
-6672
-6969
-7360
-7743
-7989
-8087
-8103
-8102
-8112
-8181
-8337
-8510
-8570
-8492
-8406
-8472
-8676
-8828
-8797
-8667
-8632
-8742
-8838
-8755
-8531
-8343
-8307
-8342
-8268
-8017
-7700
-7490
-7450
-7476
-7428
-7288
-7160
-7133
-7171
-7157
-7058
-6938
-6854
-6765
-6587
-6351
-6172
-6126
-6147
-6112
-5979
-5830
-5745
-5701
-5649
-5606
-5616
-5660
-5625
-5412
-5087
-4830
-4749
-4749
-4597
-4192
-3694
-3356
-3267
-3250
-3054
-2647
-2220
-1949
-1788
-1553
-1158
-710
-353
-78
211
531
813
1004
1151
1305
1451
1555
1673
1889
2160
2353
2427
2501
2699
2976
3159
3179
3164
3250
3408
3503
3500
3503
3596
3742
3872
3984
4131
4293
4369
4325
4255
4283
4429
4602
4686
4665
4606
4590
4660
4779
4854
4804
4659
4543
4585
4803
5085
5289
5361
5376
5462
5685
5996
6248
6323
6257
6213
6329
6592
6836
6915
6834
6736
6746
6861
6977
6998
6916
6804
6745
6764
6824
6843
6760
6573
6341
6149
6046
5999
5926
5781
5609
5508
5505
5520
5473
5398
5421
5614
5886
6098
6239
6439
6773
7116
7259
7152
6945
6796
6665
6391
5927
5438
5087
4806
4364
3680
2958
2458
2167
1799
1169
457
15
-70
-117
-497
-1208
-1874
-2184
-2239
-2420
-2941
-3614
-4092
-4283
-4418
-4770
-5356
-5976
-6487
-6981
-7654
-8529
-9383
-9974
-10303
-10578
-10951
-11336
-11529
-11475
-11347
-11373
-11601
-11894
-12111
-12237
-12355
-12514
-12676
-12748
-12659
-12416
-12100
-11794
-11505
-11160
-10680
-10080
-9461
-8922
-8485
-8110
-7731
-7285
-6751
-6206
-5801
-5636
-5643
-5616
-5422
-5111
-4845
-4686
-4530
-4234
-3784
-3319
-3009
-2941
-3085
-3324
-3559
-3779
-4047
-4419
-4842
-5184
-5354
-5373
-5314
-5224
-5134
-5121
-5252
-5464
-5564
-5438
-5216
-5146
-5301
-5464
-5357
-4946
-4494
-4277
-4320
-4415
-4376
-4223
-4109
-4103
-4122
-4052
-3912
-3836
-3895
-3988
-3949
-3745
-3536
-3513
-3685
-3887
-3954
-3869
-3755
-3739
-3841
-3979
-4033
-3960
-3833
-3792
-3892
-4032
-4059
-3939
-3806
-3794
-3875
-3880
-3731
-3556
-3531
-3669
-3826
-3891
-3913
-4008
-4165
-4263
-4217
-4081
-3982
-3970
-3986
-3953
-3870
-3818
-3876
-4043
-4233
-4309
-4188
-3939
-3739
-3728
-3848
-3890
-3721
-3420
-3192
-3148
-3213
-3229
-3106
-2854
-2535
-2213
-1957
-1834
-1835
-1854
-1784
-1633
-1495
-1439
-1420
-1332
-1124
-825
-502
-206
54
301
562
841
1112
1353
1587
1877
2255
2680
3078
3432
3802
4250
4749
5216
5600
5928
6246
6558
6835
7064
7271
7493
7743
8014
8305
8611
8903
9133
9267
9334
9416
9562
9725
9795
9704
9507
9352
9341
9424
9448
9328
9165
9154
9381
9728
9992
10104
10186
10385
10688
10934
11003
10943
10882
10863
10796
10582
10222
9819
9467
9176
8883
8529
8097
7622
7186
6858
6641
6461
6234
5948
5685
5545
5541
5593
5597
5505
5351
5204
5103
5031
4929
4766
4545
4230
3810
3378
3102
3042
3032
2836
2456
2165
2124
2089
1704
1091
898
1539
2527
2863
2152
1076
580
729
625
-497
-2357
-3965
-4715
-4857
-4962
-5178
-5199
-4817
-4217
-3712
-3371
-3023
-2582
-2182
-1949
-1816
-1596
-1188
-654
-121
377
886
1394
1799
2031
2154
2335
2683
3153
3611
3968
4235
4468
4689
4888
5062
5225
5363
5432
5394
5254
5028
4722
4332
3883
3425
2978
2507
1971
1413
943
627
403
140
-216
-606
-928
-1144
-1300
-1453
-1619
-1779
-1899
-1956
-1958
-1953
-2002
-2121
-2233
-2236
-2109
-1929
-1787
-1674
-1495
-1178
-756
-331
35
365
719
1129
1582
2040
2472
2854
3177
3460
3728
3999
4269
4519
4751
4978
5216
5469
5732
5975
6154
6245
6276
6310
6376
6441
6445
6375
6286
6248
6265
6274
6217
6092
5941
5789
5618
5406
5165
4930
4718
4515
4299
4082
3896
3745
3603
3434
3237
3056
2932
2865
2808
2724
2623
2563
2590
2697
2824
2925
2992
3044
3073
3052
2970
2859
2752
2639
2484
2290
2113
1989
1884
1738
1548
1384
1279
1166
952
647
364
174
29
-183
-489
-809
-1086
-1369
-1742
-2189
-2599
-2903
-3189
-3610
-4190
-4749
-5056
-5045
-4879
-4771
-4779
-4756
-4504
-3979
-3339
-2834
-2628
-2717
-2965
-3239
-3508
-3845
-4346
-5006
-5690
-6213
-6483
-6556
-6555
-6564
-6578
-6559
-6502
-6428
-6349
-6260
-6187
-6190
-6313
-6506
-6663
-6730
-6760
-6857
-7057
-7295
-7483
-7593
-7664
-7734
-7792
-7812
-7788
-7747
-7708
-7657
-7564
-7422
-7265
-7148
-7087
-7056
-7015
-6938
-6843
-6754
-6678
-6611
-6549
-6472
-6334
-6108
-5837
-5616
-5495
-5407
-5246
-5013
-4830
-4798
-4847
-4812
-4637
-4434
-4320
-4253
-4110
-3882
-3717
-3730
-3835
-3839
-3670
-3449
-3317
-3254
-3119
-2846
-2514
-2253
-2100
-2003
-1919
-1859
-1869
-1946
-2050
-2139
-2181
-2163
-2085
-1968
-1841
-1717
-1587
-1452
-1339
-1296
-1312
-1297
-1173
-975
-807
-722
-655
-505
-272
-63
32
52
99
195
262
258
248
321
462
534
443
249
93
56
98
117
60
-64
-188
-217
-98
95
212
152
-24
-176
-226
-240
-312
-414
-422
-281
-67
117
251
400
607
843
1040
1174
1277
1394
1548
1753
2000
2241
2420
2531
2620
2741
2900
3055
3181
3285
3388
3498
3601
3680
3726
3695
3541
3287
3019
2807
2641
2449
2185
1881
1604
1394
1234
1107
1026
997
981
936
876
863
939
1052
1104
1056
968
928
963
1022
1066
1103
1152
1203
1227
1221
1220
1251
1296
1296
1226
1135
1101
1159
1283
1391
1383
1226
981
774
677
614
427
44
-404
-701
-783
-806
-948
-1181
-1291
-1134
-805
-515
-345
-187
94
475
817
1058
1264
1527
1824
2035
2085
2053
2075
2177
2220
2055
1729
1477
1495
1731
1931
1935
1872
1999
2399
2867
3154
3249
3347
3583
3872
4041
4061
4094
4280
4574
4834
5002
5155
5400
5754
6167
6586
6984
7348
7686
8023
8383
8731
8994
9158
9326
9622
10038
10426
10676
10838
11067
11408
11727
11885
11919
11980
12119
12217
12171
12042
11982
12025
12060
11974
11793
11621
11487
11329
11114
10878
10631
10314
9870
9348
8881
8528
8211
7805
7294
6800
6453
6268
6112
5803
5254
4562
3938
3499
3145
2679
2054
1436
1017
791
576
233
-200
-602
-938
-1287
-1727
-2244
-2748
-3138
-3364
-3476
-3652
-4011
-4470
-4786
-4816
-4748
-4921
-5425
-5980
-6251
-6205
-6093
-6141
-6315
-6476
-6611
-6819
-7085
-7241
-7176
-7019
-7014
-7224
-7450
-7468
-7283
-7115
-7151
-7360
-7562
-7609
-7525
-7437
-7414
-7410
-7331
-7142
-6906
-6739
-6710
-6771
-6807
-6737
-6599
-6516
-6559
-6651
-6633
-6431
-6135
-5914
-5827
-5769
-5618
-5402
-5265
-5275
-5320
-5258
-5112
-5026
-5047
-5045
-4877
-4614
-4487
-4580
-4701
-4609
-4338
-4172
-4312
-4592
-4679
-4415
-3953
-3572
-3390
-3335
-3274
-3121
-2865
-2552
-2277
-2129
-2063
-1931
-1647
-1302
-1058
-934
-802
-593
-403
-335
-295
-96
265
574
694
785
1124
1714
2236
2433
2438
2608
3074
3643
4064
4310
4517
4753
4994
5225
5484
5747
5886
5872
5865
6034
6324
6507
6548
6711
7232
7966
8494
8631
8670
9046
9797
10498
10737
10552
10372
10565
11054
11378
11177
10549
9959
9760
9803
9579
8782
7723
7033
6988
7217
7126
6548
5865
5519
5541
5611
5446
5047
4587
4221
4012
3965
4020
4043
3933
3708
3469
3271
3108
2984
2944
2975
2988
2933
2937
3179
3586
3825
3668
3313
3179
3407
3664
3552
3131
2871
3087
3570
3860
3784
3594
3592
3750
3809
3640
3384
3221
3157
3054
2852
2646
2531
2454
2273
1967
1674
1536
1489
1312
877
347
19
10
109
-1
-376
-770
-916
-848
-829
-1041
-1417
-1770
-2014
-2193
-2356
-2494
-2608
-2750
-2967
-3213
-3380
-3458
-3563
-3798
-4112
-4380
-4558
-4744
-5014
-5304
-5484
-5533
-5583
-5754
-6002
-6162
-6152
-6080
-6109
-6260
-6402
-6433
-6389
-6392
-6495
-6643
-6784
-6920
-7054
-7136
-7108
-6988
-6876
-6834
-6823
-6760
-6631
-6510
-6450
-6437
-6437
-6444
-6464
-6475
-6422
-6292
-6143
-6056
-6034
-6002
-5907
-5781
-5717
-5749
-5809
-5805
-5735
-5687
-5723
-5818
-5882
-5874
-5846
-5862
-5927
-5975
-5937
-5816
-5654
-5491
-5331
-5164
-4974
-4742
-4465
-4189
-3984
-3877
-3806
-3670
-3424
-3124
-2852
-2627
-2395
-2103
-1764
-1422
-1102
-802
-520
-284
-109
45
240
489
755
982
1179
1402
1690
2031
2375
2662
2870
3023
3172
3357
3548
3666
3665
3604
3613
3759
3967
4098
4107
4074
4118
4265
4423
4480
4410
4283
4202
4205
4243
4218
4083
3904
3783
3748
3720
3610
3452
3395
3536
3797
4015
4121
4218
4452
4826
5214
5508
5736
5998
6303
6555
6661
6651
6634
6658
6652
6538
6356
6252
6340
6580
6829
6994
7118
7320
7663
8080
8448
8694
8828
8920
9030
9186
9388
9592
9724
9716
9578
9408
9298
9238
9119
8879
8605
8455
8480
8548
8485
8270
8048
7943
7906
7770
7432
6959
6499
6124
5772
5326
4732
4057
3444
2991
2662
2307
1780
1070
314
-344
-912
-1543
-2371
-3342
-4227
-4842
-5244
-5664
-6248
-6870
-7285
-7417
-7454
-7622
-7926
-8194
-8355
-8562
-8972
-9516
-9980
-10312
-10701
-11287
-11888
-12136
-11880
-11355
-10896
-10593
-10272
-9794
-9248
-8833
-8646
-8648
-8798
-9088
-9476
-9831
-10020
-10064
-10139
-10379
-10682
-10813
-10668
-10436
-10400
-10574
-10638
-10291
-9650
-9175
-9148
-9344
-9294
-8823
-8210
-7829
-7725
-7624
-7281
-6698
-6032
-5415
-4926
-4609
-4456
-4364
-4225
-4061
-3987
-4025
-4056
-3991
-3909
-3938
-4028
-3965
-3651
-3282
-3133
-3235
-3347
-3254
-3006
-2779
-2624
-2440
-2163
-1882
-1721
-1658
-1581
-1461
-1402
-1480
-1626
-1698
-1646
-1538
-1445
-1353
-1242
-1181
-1274
-1533
-1836
-2052
-2167
-2261
-2384
-2477
-2440
-2259
-2028
-1873
-1846
-1918
-2043
-2224
-2507
-2895
-3316
-3679
-3956
-4181
-4382
-4533
-4605
-4645
-4741
-4900
-5042
-5092
-5079
-5102
-5195
-5285
-5277
-5154
-4961
-4745
-4525
-4304
-4094
-3875
-3605
-3271
-2938
-2695
-2558
-2455
-2308
-2119
-1956
-1877
-1867
-1883
-1920
-2010
-2174
-2370
-2533
-2655
-2771
-2876
-2885
-2712
-2391
-2067
-1851
-1700
-1487
-1169
-838
-583
-336
62
647
1227
1551
1587
1548
1647
1864
1982
1863
1625
1534
1749
2189
2655
3039
3374
3743
4163
4567
4886
5108
5258
5385
5545
5755
5987
6208
6417
6659
6945
7193
7294
7261
7243
7376
7616
7798
7864
7972
8325
8921
9519
9906
10118
10365
10761
11181
11419
11408
11282
11216
11245
11289
11273
11225
11224
11318
11458
11520
11409
11154
10893
10738
10632
10403
9946
9364
8864
8537
8263
7874
7348
6805
6338
5914
5452
4967
4553
4268
4060
3831
3533
3189
2832
2465
2074
1645
1177
695
261
-56
-245
-371
-493
-609
-675
-683
-685
-717
-749
-732
-668
-593
-501
-324
-19
365
734
1067
1432
1869
2306
2622
2790
2917
3119
3386
3600
3679
3647
3593
3548
3466
3292
3031
2757
2524
2314
2066
1744
1367
979
590
161
-351
-935
-1555
-2196
-2880
-3625
-4407
-5180
-5930
-6688
-7472
-8238
-8896
-9398
-9782
-10126
-10453
-10709
-10816
-10773
-10669
-10607
-10598
-10541
-10311
-9901
-9434
-9040
-8701
-8262
-7595
-6755
-5915
-5181
-4498
-3747
-2922
-2131
-1460
-871
-274
351
941
1467
1990
2579
3220
3820
4334
4826
5383
5993
6544
6943
7217
7474
7805
8195
8559
8832
9038
9260
9565
9936
10275
10488
10568
10583
10593
10587
10490
10261
9932
9583
9265
8962
8632
8269
7931
7692
7582
7562
7556
7514
7445
7399
7392
7383
7310
7150
6943
6738
6540
6317
6055
5788
5556
5357
5145
4886
4591
4299
4024
3756
3512
3346
3301
3344
3393
3399
3402
3474
3610
3726
3762
3760
3820
3970
4111
4115
3951
3692
3416
3108
2699
2173
1596
1055
590
207
-68
-261
-457
-722
-1022
-1272
-1477
-1771
-2242
-2771
-3162
-3421
-3742
-4141
-4251
-3674
-2548
-1588
-1408
-1880
-2348
-2453
-2591
-3436
-5112
-6988
-8318
-8932
-9195
-9450
-9648
-9536
-9065
-8488
-8079
-7894
-7822
-7815
-7928
-8226
-8678
-9166
-9564
-9797
-9832
-9688
-9445
-9177
-8876
-8444
-7829
-7112
-6440
-5876
-5389
-4978
-4669
-4457
-4283
-4072
-3766
-3311
-2685
-2000
-1472
-1179
-832
-66
977
1554
1109
73
-354
578
2344
3748
4279
4633
5812
7956
10215
11686
12222
12289
12287
12226
11935
11383
10703
10020
9372
8782
8343
8074
7885
7650
7292
6809
6214
5497
4651
3762
2983
2403
1965
1506
921
230
-474
-1157
-1848
-2562
-3273
-3968
-4678
-5407
-6093
-6643
-7049
-7399
-7760
-8107
-8399
-8681
-9037
-9455
-9793
-9922
-9894
-9900
-10067
-10318
-10484
-10547
-10691
-11119
-11825
-12550
-13014
-13147
-13111
-13092
-13074
-12862
-12301
-11490
-10723
-10230
-9978
-9709
-9222
-8553
-7951
-7582
-7354
-7005
-6366
-5557
-4873
-4486
-4272
-3978
-3530
-3099
-2858
-2736
-2518
-2135
-1760
-1579
-1507
-1281
-794
-230
168
420
803
1543
2546
3504
4213
4733
5273
5950
6674
7281
7699
8014
8353
8772
9193
9498
9635
9642
9601
9535
9401
9109
8607
7933
7192
6486
5845
5213
4525
3796
3116
2548
2069
1617
1208
924
813
817
816
768
741
808
949
1084
1140
1127
1085
1002
814
497
140
-108
-188
-213
-387
-780
-1201
-1386
-1281
-1112
-1153
-1407
-1609
-1536
-1246
-993
-925
-947
-883
-707
-542
-498
-550
-596
-578
-524
-501
-555
-681
-801
-813
-683
-482
-339
-312
-341
-328
-249
-130
1
144
303
470
646
846
1057
1235
1359
1489
1688
1925
2099
2178
2265
2481
2792
3030
3100
3094
3214
3534
3914
4133
4105
3975
3976
4211
4550
4787
4861
4929
5188
5637
6030
6131
5949
5736
5719
5891
6066
6100
6027
5996
6132
6472
6956
7434
7715
7718
7592
7611
7892
8260
8460
8474
8546
8869
9348
9727
9898
9990
10141
10315
10392
10367
10347
10397
10463
10489
10496
10514
10470
10251
9909
9640
9528
9407
9059
8528
8099
7932
7841
7514
6894
6245
5809
5532
5176
4646
4074
3602
3224
2871
2561
2358
2207
1932
1472
994
703
560
296
-256
-948
-1455
-1646
-1688
-1812
-2079
-2378
-2663
-2975
-3300
-3532
-3644
-3829
-4296
-4938
-5334
-5199
-4778
-4654
-5114
-5826
-6213
-6124
-5957
-6171
-6799
-7450
-7725
-7567
-7227
-7026
-7106
-7345
-7472
-7341
-7102
-7056
-7305
-7619
-7702
-7543
-7431
-7521
-7628
-7505
-7247
-7189
-7482
-7867
-7997
-7877
-7813
-8010
-8304
-8389
-8210
-8014
-8018
-8166
-8234
-8162
-8136
-8320
-8597
-8701
-8549
-8366
-8399
-8608
-8714
-8552
-8272
-8179
-8364
-8603
-8629
-8378
-7985
-7573
-7140
-6643
-6073
-5463
-4861
-4276
-3723
-3206
-2697
-2173
-1593
-929
-152
717
1569
2233
2613
2795
2948
3155
3368
3538
3740
4125
4738
5476
6220
6956
7727
8509
9194
9674
9945
10121
10354
10729
11239
11784
12200
12365
12348
12377
12615
12959
13078
12800
12344
12073
12079
12036
11588
10771
9964
9448
9079
8503
7616
6678
6026
5725
5581
5374
5051
4673
4305
3996
3755
3540
3225
2735
2125
1558
1162
929
742
504
241
32
-58
-33
33
79
134
299
615
949
1108
1038
912
932
1095
1215
1166
1008
874
802
757
762
919
1230
1513
1573
1445
1381
1525
1733
1723
1441
1154
1141
1391
1666
1814
1927
2175
2601
3069
3409
3569
3611
3659
3815
4083
4320
4369
4242
4192
4484
5075
5593
5697
5416
5099
5035
5187
5281
5106
4689
4227
3912
3810
3865
3948
3935
3792
3568
3347
3177
3035
2863
2624
2338
2050
1798
1618
1503
1392
1221
974
694
409
57
-473
-1169
-1846
-2293
-2504
-2723
-3172
-3799
-4322
-4545
-4561
-4616
-4860
-5269
-5734
-6155
-6450
-6566
-6546
-6536
-6632
-6759
-6749
-6552
-6329
-6279
-6419
-6583
-6622
-6550
-6480
-6459
-6430
-6308
-6071
-5784
-5519
-5275
-5006
-4694
-4388
-4112
-3818
-3428
-2972
-2606
-2441
-2384
-2229
-1899
-1539
-1343
-1320
-1288
-1090
-753
-415
-169
1
132
234
302
366
470
605
708
710
614
518
534
677
849
953
998
1068
1196
1291
1256
1126
1045
1070
1071
923
726
743
1110
1678
2183
2540
2875
3320
3843
4302
4614
4809
4931
4988
4968
4922
4915
4940
4894
4684
4346
4037
3850
3705
3459
3116
2852
2826
2972
3065
2995
2897
2959
3165
3320
3300
3193
3155
3202
3223
3166
3122
3196
3351
3459
3478
3515
3705
4042
4404
4671
4833
4951
5093
5267
5435
5571
5689
5820
5982
6138
6249
6303
6326
6325
6274
6153
5988
5842
5762
5719
5664
5591
5533
5497
5424
5238
4942
4612
4295
3975
3624
3287
3045
2880
2665
2307
1870
1491
1174
747
65
-802
-1642
-2325
-2899
-3480
-4099
-4730
-5355
-5984
-6579
-7073
-7475
-7890
-8377
-8843
-9144
-9286
-9425
-9657
-9908
-10100
-10328
-10773
-11398
-11881
-11953
-11724
-11567
-11648
-11718
-11421
-10752
-10086
-9721
-9567
-9324
-8867
-8347
-7932
-7598
-7231
-6836
-6539
-6373
-6207
-5925
-5603
-5397
-5302
-5106
-4637
-3996
-3446
-3136
-2964
-2746
-2443
-2171
-2051
-2070
-2104
-2053
-1893
-1640
-1315
-970
-696
-589
-674
-852
-982
-982
-894
-860
-968
-1156
-1259
-1171
-975
-854
-927
-1159
-1430
-1657
-1829
-1924
-1878
-1678
-1428
-1307
-1401
-1631
-1862
-2076
-2409
-2992
-3786
-4593
-5195
-5521
-5665
-5745
-5785
-5736
-5603
-5498
-5544
-5741
-5974
-6166
-6380
-6744
-7251
-7713
-7922
-7857
-7687
-7578
-7543
-7518
-7483
-7491
-7583
-7725
-7839
-7895
-7918
-7930
-7889
-7715
-7393
-7022
-6730
-6558
-6438
-6293
-6141
-6054
-6036
-5990
-5845
-5660
-5536
-5435
-5164
-4614
-3947
-3448
-3198
-2980
-2552
-1951
-1442
-1202
-1129
-1025
-865
-812
-971
-1223
-1371
-1384
-1426
-1638
-1951
-2148
-2111
-1961
-1931
-2132
-2463
-2735
-2868
-2932
-3034
-3205
-3388
-3504
-3518
-3446
-3339
-3249
-3204
-3190
-3161
-3081
-2967
-2857
-2769
-2667
-2493
-2247
-1983
-1743
-1493
-1156
-704
-211
200
500
787
1189
1717
2256
2684
2999
3300
3665
4078
4476
4836
5190
5561
5931
6263
6559
6854
7174
7513
7848
8153
8412
8632
8849
9116
9443
9764
9987
10085
10123
10195
10310
10389
10365
10275
10219
10241
10274
10228
10114
10044
10096
10212
10255
10188
10129
10217
10438
10616
10618
10501
10444
10552
10749
10883
10900
10888
10971
11155
11329
11391
11366
11377
11519
11748
11924
11947
11850
11742
11666
11555
11303
10870
10285
9605
8900
8246
7689
7213
6756
6305
5911
5615
5356
5038
4653
4274
3929
3512
2911
2190
1548
1097
733
274
-296
-816
-1149
-1339
-1528
-1766
-1982
-2112
-2197
-2328
-2495
-2582
-2514
-2347
-2205
-2130
-2024
-1771
-1347
-842
-383
-31
238
506
861
1326
1826
2244
2532
2750
2978
3200
3293
3173
2893
2586
2335
2109
1840
1532
1279
1164
1161
1147
989
654
244
-102
-346
-590
-954
-1432
-1881
-2190
-2389
-2605
-2909
-3247
-3530
-3735
-3889
-4015
-4101
-4137
-4140
-4122
-4079
-4020
-3997
-4075
-4253
-4446
-4567
-4588
-4542
-4461
-4339
-4162
-3951
-3732
-3520
-3276
-2961
-2586
-2223
-1940
-1733
-1532
-1285
-1005
-751
-558
-387
-179
80
344
569
785
1075
1481
1950
2374
2706
2999
3349
3783
4234
4616
4912
5199
5538
5895
6155
6224
6117
5942
5782
5624
5393
5056
4683
4381
4196
4071
3915
3709
3509
3374
3287
3173
2975
2716
2467
2274
2118
1954
1776
1630
1562
1560
1558
1498
1390
1301
1286
1328
1363
1355
1335
1350
1407
1458
1456
1399
1309
1203
1076
932
790
671
576
486
399
328
285
255
193
87
-41
-157
-267
-409
-609
-829
-987
-1056
-1098
-1213
-1429
-1678
-1876
-2019
-2178
-2403
-2654
-2858
-2991
-3107
-3260
-3431
-3555
-3601
-3618
-3679
-3796
-3910
-3950
-3908
-3841
-3805
-3802
-3785
-3726
-3657
-3632
-3666
-3712
-3720
-3693
-3674
-3693
-3730
-3735
-3682
-3593
-3514
-3474
-3455
-3419
-3342
-3259
-3243
-3343
-3523
-3694
-3808
-3901
-4041
-4210
-4307
-4256
-4113
-4020
-4048
-4121
-4114
-4023
-3967
-4046
-4203
-4279
-4178
-3963
-3764
-3645
-3577
-3528
-3494
-3468
-3423
-3365
-3354
-3435
-3559
-3634
-3649
-3716
-3934
-4269
-4601
-4888
-5194
-5534
-5768
-5712
-5353
-4871
-4449
-4102
-3728
-3307
-2970
-2880
-3066
-3406
-3761
-4083
-4396
-4708
-4960
-5087
-5088
-5052
-5062
-5108
-5093
-4950
-4751
-4655
-4731
-4860
-4841
-4623
-4363
-4267
-4352
-4443
-4385
-4217
-4112
-4165
-4296
-4344
-4254
-4108
-4005
-3961
-3931
-3881
-3800
-3662
-3444
-3180
-2954
-2808
-2668
-2447
-2169
-1964
-1886
-1815
-1592
-1235
-948
-871
-887
-763
-442
-121
14
37
191
559
925
1039
924
867
1069
1413
1628
1638
1660
1947
2487
3033
3374
3518
3607
3733
3904
4107
4351
4581
4674
4564
4379
4349
4536
4724
4645
4295
3957
3891
4060
4213
4210
4179
4344
4737
5146
5347
5327
5246
5197
5095
4808
4363
3952
3716
3572
3291
2775
2164
1684
1377
1045
472
-324
-1103
-1641
-1963
-2314
-2923
-3780
-4645
-5274
-5649
-5967
-6407
-6935
-7338
-7465
-7395
-7327
-7361
-7420
-7381
-7251
-7130
-7057
-6942
-6682
-6282
-5842
-5436
-5019
-4508
-3889
-3243
-2674
-2229
-1891
-1629
-1432
-1281
-1131
-953
-753
-563
-395
-233
-73
60
147
230
361
508
555
428
227
160
329
611
787
786
752
872
1175
1516
1737
1810
1820
1849
1922
2053
2247
2490
2718
2867
2940
3028
3207
3455
3673
3780
3802
3835
3954
4137
4296
4383
4433
4542
4759
5011
5167
5181
5173
5314
5618
5911
6019
5992
6058
6367
6811
7157
7318
7445
7730
8196
8669
8974
9085
9129
9250
9487
9739
9870
9860
9854
10029
10372
10676
10759
10673
10646
10811
11051
11160
11084
10941
10845
10784
10686
10547
10399
10219
9961
9662
9470
9440
9400
9104
8516
7878
7469
7291
7088
6645
6024
5472
5134
4931
4691
4377
4097
3928
3777
3465
2927
2323
1871
1603
1347
944
452
65
-135
-279
-529
-856
-1106
-1246
-1429
-1796
-2232
-2484
-2470
-2396
-2535
-2912
-3298
-3477
-3456
-3399
-3443
-3610
-3854
-4079
-4182
-4094
-3880
-3692
-3613
-3563
-3412
-3164
-2993
-3025
-3136
-3089
-2810
-2513
-2464
-2667
-2888
-2949
-2934
-3075
-3450
-3914
-4272
-4499
-4697
-4906
-5053
-5060
-4984
-4938
-4960
-4955
-4828
-4620
-4486
-4534
-4730
-4936
-5058
-5102
-5139
-5202
-5277
-5350
-5450
-5602
-5732
-5719
-5550
-5383
-5399
-5582
-5723
-5651
-5441
-5329
-5374
-5363
-5065
-4538
-4082
-3897
-3875
-3770
-3499
-3217
-3098
-3112
-3084
-2893
-2580
-2266
-2037
-1909
-1846
-1784
-1675
-1502
-1318
-1171
-1048
-902
-716
-527
-369
-216
-32
165
347
565
928
1463
2044
2512
2857
3243
3792
4413
4869
5022
4961
4902
4985
5202
5449
5630
5705
5725
5820
6099
6516
6857
6902
6689
6492
6549
6777
6837
6518
5956
5481
5266
5195
5037
4712
4328
4014
3777
3508
3105
2577
2036
1615
1339
1107
811
497
324
346
396
237
-139
-474
-525
-349
-196
-201
-247
-185
-10
205
486
893
1328
1547
1469
1356
1555
2042
2416
2389
2186
2294
2874
3561
3884
3806
3718
3973
4497
4933
5077
5085
5214
5527
5854
6055
6205
6454
6802
7090
7215
7286
7500
7839
8066
8016
7822
7768
7937
8086
7964
7637
7411
7404
7390
7097
6592
6216
6167
6255
6144
5749
5308
5046
4908
4660
4196
3631
3108
2641
2141
1580
1017
495
-13
-534
-1037
-1475
-1881
-2352
-2921
-3510
-4011
-4399
-4759
-5161
-5583
-5934
-6144
-6248
-6353
-6553
-6847
-7149
-7390
-7596
-7833
-8103
-8302
-8339
-8271
-8259
-8391
-8572
-8619
-8468
-8229
-8043
-7933
-7787
-7515
-7131
-6709
-6305
-5924
-5550
-5166
-4760
-4314
-3847
-3425
-3099
-2867
-2691
-2549
-2457
-2426
-2428
-2416
-2374
-2306
-2201
-2016
-1740
-1416
-1088
-767
-451
-184
-27
26
61
154
296
446
634
922
1284
1567
1647
1594
1585
1704
1856
1920
1938
2074
2411
2843
3211
3493
3784
4143
4494
4708
4743
4680
4622
4600
4573
4498
4393
4306
4255
4204
4104
3947
3769
3579
3330
2988
2618
2341
2198
2079
1854
1562
1395
1480
1710
1841
1786
1723
1891
2310
2744
2946
2899
2808
2880
3123
3378
3492
3437
3320
3268
3333
3465
3584
3647
3666
3670
3678
3707
3784
3924
4080
4169
4147
4057
3987
3979
3988
3951
3870
3810
3816
3846
3836
3815
3909
4188
4515
4638
4438
4096
3926
4044
4255
4265
4021
3759
3743
3972
4207
4215
3974
3628
3314
3046
2775
2486
2244
2122
2124
2185
2232
2226
2163
2047
1883
1686
1472
1223
891
464
41
-217
-259
-227
-355
-723
-1189
-1565
-1834
-2153
-2637
-3222
-3743
-4145
-4520
-4963
-5426
-5762
-5911
-5971
-6091
-6313
-6547
-6693
-6735
-6746
-6801
-6929
-7118
-7321
-7482
-7550
-7518
-7456
-7455
-7566
-7776
-8043
-8325
-8594
-8851
-9132
-9484
-9910
-10335
-10670
-10902
-11118
-11397
-11718
-11986
-12137
-12192
-12182
-12077
-11850
-11567
-11330
-11143
-10897
-10518
-10103
-9832
-9734
-9619
-9273
-8707
-8127
-7679
-7286
-6767
-6078
-5364
-4795
-4399
-4094
-3814
-3561
-3340
-3123
-2884
-2646
-2460
-2348
-2287
-2240
-2175
-2068
-1926
-1830
-1902
-2161
-2444
-2550
-2498
-2555
-2959
-3643
-4291
-4686
-4952
-5345
-5914
-6434
-6690
-6716
-6685
-6635
-6424
-5980
-5476
-5172
-5121
-5118
-4963
-4690
-4489
-4446
-4438
-4295
-3986
-3621
-3296
-2998
-2671
-2326
-2043
-1877
-1808
-1766
-1712
-1648
-1595
-1553
-1489
-1376
-1233
-1101
-1028
-1011
-1006
-982
-938
-886
-840
-819
-853
-946
-1057
-1138
-1201
-1310
-1502
-1720
-1859
-1861
-1778
-1713
-1707
-1719
-1687
-1585
-1437
-1272
-1109
-946
-769
-546
-256
95
482
861
1205
1500
1741
1943
2120
2271
2372
2386
2309
2189
2095
2061
2045
1975
1831
1668
1561
1511
1447
1335
1229
1207
1239
1203
1047
864
769
742
663
484
297
219
236
266
295
393
582
768
861
914
1040
1244
1415
1491
1584
1845
2262
2678
2975
3187
3404
3630
3794
3869
3920
4004
4104
4192
4304
4506
4812
5154
5474
5781
6104
6413
6644
6792
6929
7116
7317
7441
7480
7558
7816
8239
8647
8895
9031
9242
9620
10039
10281
10260
10124
10110
10323
10660
10921
11036
11127
11350
11715
12060
12232
12257
12297
12447
12658
12846
13027
13282
13598
13841
13895
13771
13512
13057
12311
11326
10351
9614
9109
8656
8148
7689
7464
7518
7694
7757
7589
7240
6847
6529
6287
6022
5660
5243
4879
4611
4368
4073
3730
3379
2987
2474
1871
1342
998
744
385
-121
-592
-843
-939
-1124
-1527
-2019
-2394
-2596
-2706
-2759
-2677
-2401
-2015
-1662
-1359
-1004
-557
-141
98
198
364
731
1189
1508
1575
1485
1396
1322
1129
689
32
-661
-1198
-1504
-1656
-1791
-1963
-2098
-2094
-1957
-1835
-1890
-2133
-2438
-2685
-2872
-3049
-3220
-3330
-3368
-3391
-3451
-3530
-3587
-3639
-3738
-3872
-3935
-3856
-3707
-3619
-3623
-3590
-3416
-3176
-3051
-3107
-3210
-3176
-2996
-2835
-2829
-2927
-2969
-2880
-2739
-2667
-2681
-2692
-2629
-2509
-2401
-2339
-2293
-2213
-2095
-1977
-1887
-1806
-1694
-1535
-1360
-1236
-1197
-1206
-1191
-1120
-1037
-1017
-1074
-1138
-1118
-1002
-851
-738
-698
-746
-895
-1138
-1426
-1686
-1886
-2060
-2240
-2382
-2394
-2225
-1938
-1659
-1471
-1374
-1317
-1270
-1243
-1255
-1302
-1361
-1408
-1419
-1374
-1265
-1126
-1017
-983
-1014
-1051
-1035
-963
-885
-847
-850
-841
-779
-685
-640
-699
-827
-924
-927
-862
-796
-750
-663
-478
-221
27
224
415
658
945
1218
1451
1684
1969
2294
2585
2792
2929
3048
3167
3244
3237
3156
3048
2953
2888
2855
2861
2916
3014
3125
3208
3224
3158
3027
2869
2716
2574
2411
2183
1906
1661
1521
1467
1378
1158
846
577
427
295
-10
-560
-1225
-1810
-2261
-2697
-3245
-3873
-4430
-4820
-5096
-5380
-5737
-6138
-6505
-6803
-7057
-7305
-7540
-7708
-7766
-7747
-7742
-7769
-7724
-7530
-7346
-7538
-8300
-9351
-10104
-10214
-9899
-9629
-9549
-9328
-8591
-7388
-6151
-5266
-4794
-4612
-4655
-4926
-5348
-5733
-5960
-6097
-6284
-6528
-6677
-6604
-6335
-6004
-5713
-5460
-5188
-4850
-4431
-3902
-3234
-2446
-1634
-904
-296
226
687
1044
1234
1292
1333
1429
1512
1464
1291
1144
1159
1301
1420
1448
1471
1600
1808
1970
2029
2046
2088
2134
2123
2066
2049
2109
2184
2189
2131
2089
2086
2057
1938
1754
1598
1520
1475
1392
1263
1134
1037
970
924
896
876
838
778
729
708
691
641
570
529
522
486
394
319
370
551
740
839
871
934
1066
1222
1352
1459
1547
1600
1626
1708
1938
2288
2619
2830
2960
3121
3334
3500
3545
3532
3595
3785
4016
4195
4344
4562
4896
5283
5616
5847
5994
6070
6038
5868
5580
5244
4891
4484
3996
3477
3005
2607
2218
1776
1312
921
643
402
88
-301
-652
-877
-1011
-1169
-1400
-1632
-1769
-1797
-1787
-1809
-1862
-1910
-1927
-1919
-1902
-1890
-1882
-1858
-1805
-1747
-1727
-1753
-1763
-1698
-1601
-1589
-1698
-1787
-1696
-1457
-1284
-1328
-1499
-1576
-1461
-1279
-1217
-1313
-1435
-1428
-1267
-1049
-905
-884
-912
-855
-660
-429
-315
-349
-415
-396
-309
-239
-192
-82
94
198
136
40
151
512
864
942
807
775
1027
1374
1476
1248
952
862
962
1030
959
882
994
1316
1681
1953
2164
2425
2752
3055
3262
3398
3549
3782
4109
4514
4960
5371
5690
5961
6319
6856
7495
8043
8382
8603
8915
9407
9969
10425
10717
10933
11175
11430
11617
11734
11853
12002
12107
12059
11860
11646
11517
11421
11230
10929
10675
10644
10821
11029
11125
11138
11189
11298
11342
11196
10898
10595
10362
10120
9758
9285
8826
8444
8053
7516
6815
6078
5425
4839
4241
3635
3116
2727
2391
1998
1559
1186
936
712
368
-132
-689
-1186
-1587
-1912
-2196
-2486
-2849
-3322
-3842
-4271
-4521
-4664
-4850
-5126
-5373
-5455
-5406
-5422
-5646
-6026
-6394
-6673
-6931
-7244
-7563
-7782
-7859
-7879
-7923
-7983
-8001
-7984
-8025
-8181
-8415
-8654
-8876
-9119
-9404
-9694
-9898
-9950
-9871
-9766
-9761
-9896
-10074
-10155
-10106
-10037
-10100
-10306
-10502
-10527
-10382
-10219
-10166
-10195
-10151
-9924
-9559
-9203
-8936
-8723
-8478
-8190
-7946
-7799
-7682
-7490
-7212
-6948
-6761
-6565
-6225
-5769
-5376
-5172
-5035
-4726
-4202
-3700
-3442
-3357
-3170
-2747
-2267
-1977
-1898
-1803
-1530
-1167
-895
-722
-493
-115
304
593
758
969
1339
1779
2115
2305
2488
2781
3148
3462
3681
3902
4192
4475
4626
4643
4706
4976
5385
5701
5795
5782
5870
6090
6256
6203
5993
5841
5844
5894
5840
5672
5512
5450
5454
5434
5392
5401
5475
5532
5481
5347
5266
5322
5428
5403
5158
4799
4517
4400
4372
4310
4207
4163
4240
4344
4327
4179
4063
4120
4260
4237
3936
3518
3293
3393
3649
3776
3637
3365
3223
3363
3704
3996
4033
3834
3614
3583
3750
3935
3979
3913
3903
4054
4320
4571
4749
4887
5028
5159
5244
5293
5383
5562
5763
5866
5828
5753
5772
5859
5857
5645
5305
5055
5002
5038
5009
4938
5005
5295
5654
5839
5781
5629
5542
5517
5429
5190
4836
4432
4007
3572
3165
2780
2316
1651
828
84
-374
-599
-861
-1339
-1912
-2305
-2396
-2346
-2411
-2704
-3124
-3509
-3793
-4017
-4238
-4465
-4680
-4866
-5016
-5140
-5273
-5460
-5723
-6031
-6311
-6482
-6517
-6472
-6435
-6451
-6482
-6438
-6255
-5986
-5775
-5729
-5807
-5859
-5791
-5679
-5687
-5864
-6064
-6091
-5926
-5752
-5748
-5879
-5936
-5773
-5464
-5226
-5194
-5285
-5307
-5179
-5011
-4985
-5135
-5297
-5284
-5108
-4967
-5000
-5105
-5070
-4859
-4666
-4680
-4855
-4973
-4896
-4701
-4556
-4526
-4555
-4577
-4554
-4462
-4283
-4068
-3917
-3876
-3857
-3707
-3399
-3074
-2874
-2763
-2556
-2120
-1519
-963
-586
-318
4
421
795
972
988
1045
1274
1560
1682
1600
1538
1735
2158
2538
2665
2615
2619
2778
2975
3056
3023
3000
3066
3161
3208
3228
3299
3432
3545
3563
3534
3580
3739
3912
3983
3944
3892
3902
3966
4035
4110
4233
4411
4603
4773
4930
5084
5201
5244
5247
5292
5402
5521
5608
5724
5960
6298
6611
6818
6974
7173
7388
7516
7560
7625
7771
7915
7974
8031
8232
8544
8721
8631
8467
8496
8653
8547
7968
7252
6971
7300
7842
8128
8166
8366
9010
9923
10685
11063
11128
11056
10930
10743
10484
10166
9796
9400
9034
8751
8530
8291
8003
7718
7478
7226
6839
6266
5556
4804
4045
3242
2358
1394
372
-679
-1683
-2552
-3256
-3846
-4409
-4966
-5450
-5826
-6191
-6640
-7132
-7515
-7745
-8026
-8632
-9563
-10480
-11016
-11127
-11068
-11027
-10876
-10309
-9208
-7793
-6436
-5404
-4765
-4506
-4609
-5061
-5798
-6723
-7740
-8781
-9768
-10572
-11094
-11328
-11403
-11509
-11727
-11981
-12129
-12126
-12050
-12000
-11973
-11865
-11612
-11287
-11004
-10805
-10646
-10499
-10395
-10356
-10314
-10142
-9799
-9391
-9069
-8895
-8782
-8606
-8327
-8014
-7776
-7663
-7614
-7497
-7225
-6840
-6489
-6291
-6230
-6178
-6034
-5826
-5683
-5687
-5779
-5835
-5802
-5730
-5666
-5579
-5412
-5214
-5106
-5125
-5111
-4859
-4362
-3877
-3688
-3832
-4087
-4231
-4243
-4268
-4435
-4737
-5075
-5331
-5396
-5199
-4791
-4368
-4137
-4127
-4131
-3894
-3364
-2742
-2285
-2048
-1865
-1518
-935
-243
338
670
804
907
1106
1373
1591
1731
1898
2221
2698
3190
3585
3917
4280
4656
4913
4960
4865
4768
4703
4578
4316
3973
3678
3467
3248
2927
2512
2097
1750
1434
1060
588
68
-408
-784
-1084
-1362
-1649
-1916
-2119
-2257
-2359
-2462
-2582
-2737
-2932
-3130
-3251
-3263
-3217
-3202
-3238
-3242
-3128
-2933
-2763
-2657
-2542
-2331
-2074
-1882
-1746
-1484
-927
-158
515
884
1067
1366
1886
2372
2461
2099
1619
1407
1538
1769
1872
1895
2081
2575
3277
3960
4518
5015
5552
6115
6609
6991
7359
7819
8353
8806
9041
9102
9168
9370
9645
9823
9839
9807
9907
10178
10496
10719
10830
10928
11067
11187
11196
11097
10988
10939
10919
10870
10793
10737
10707
10626
10447
10221
10024
9833
9543
9142
8789
8646
8673
8659
8457
8153
7958
7955
8003
7940
7797
7769
7984
8340
8631
8789
8926
9148
9367
9403
9232
9074
9137
9330
9306
8826
8016
7220
6583
5891
4852
3458
2022
872
85
-515
-1102
-1672
-2113
-2396
-2636
-2983
-3475
-4019
-4530
-5024
-5572
-6132
-6522
-6599
-6462
-6378
-6500
-6689
-6682
-6408
-6066
-5872
-5809
-5666
-5291
-4778
-4335
-4056
-3854
-3580
-3198
-2805
-2512
-2338
-2198
-2034
-1872
-1810
-1909
-2110
-2284
-2367
-2407
-2461
-2500
-2442
-2268
-2072
-1969
-1979
-2022
-2030
-2006
-1993
-2020
-2092
-2201
-2304
-2318
-2179
-1897
-1573
-1296
-1065
-804
-449
-19
409
772
1052
1276
1493
1747
2033
2298
2485
2595
2685
2821
3011
3208
3353
3430
3464
3504
3577
3663
3703
3663
3579
3525
3533
3549
3486
3316
3099
2921
2797
2673
2494
2254
1983
1707
1429
1148
860
558
227
-135
-505
-860
-1211
-1593
-2021
-2474
-2923
-3365
-3816
-4264
-4658
-4969
-5219
-5461
-5704
-5904
-6021
-6075
-6125
-6191
-6234
-6209
-6131
-6051
-6002
-5953
-5850
-5684
-5497
-5331
-5180
-5000
-4747
-4430
-4100
-3803
-3530
-3231
-2848
-2399
-1972
-1641
-1355
-988
-511
-95
38
-111
-251
-100
276
501
322
-50
-117
390
1238
1963
2361
2631
3073
3726
4350
4699
4738
4601
4411
4201
3970
3746
3568
3446
3349
3248
3167
3139
3180
3255
3317
3347
3357
3375
3400
3417
3425
3444
3487
3523
3504
3397
3217
3008
2785
2528
2195
1788
1345
882
354
-298
-1068
-1860
-2581
-3243
-3914
-4597
-5189
-5585
-5826
-6051
-6321
-6534
-6557
-6418
-6300
-6343
-6504
-6644
-6713
-6760
-6808
-6786
-6634
-6413
-6251
-6180
-6090
-5878
-5603
-5443
-5514
-5746
-5967
-6068
-6083
-6115
-6224
-6372
-6474
-6491
-6446
-6385
-6321
-6236
-6125
-6019
-5939
-5844
-5665
-5393
-5111
-4921
-4843
-4809
-4737
-4610
-4470
-4352
-4258
-4168
-4047
-3853
-3560
-3186
-2810
-2509
-2296
-2106
-1877
-1613
-1386
-1271
-1278
-1342
-1399
-1448
-1529
-1652
-1775
-1871
-1974
-2153
-2400
-2608
-2679
-2648
-2644
-2738
-2858
-2879
-2767
-2606
-2493
-2435
-2372
-2268
-2127
-1954
-1730
-1448
-1154
-902
-687
-449
-137
221
540
768
954
1202
1561
1995
2438
2876
3346
3863
4360
4748
5025
5287
5602
5920
6152
6298
6451
6679
6945
7161
7310
7446
7585
7650
7554
7334
7136
7079
7139
7187
7125
6973
6837
6805
6878
6976
7014
6957
6823
6641
6415
6128
5760
5299
4735
4088
3409
2756
2170
1645
1160
714
316
-37
-367
-686
-968
-1182
-1367
-1604
-1928
-2276
-2529
-2627
-2625
-2638
-2742
-2909
-3062
-3148
-3188
-3251
-3354
-3441
-3439
-3351
-3270
-3294
-3407
-3481
-3417
-3264
-3172
-3220
-3314
-3291
-3094
-2818
-2616
-2560
-2600
-2639
-2598
-2473
-2334
-2275
-2322
-2377
-2293
-2036
-1744
-1606
-1665
-1777
-1768
-1621
-1476
-1454
-1534
-1606
-1610
-1569
-1510
-1415
-1264
-1116
-1073
-1150
-1208
-1111
-890
-727
-749
-871
-907
-792
-632
-551
-524
-421
-197
34
146
176
263
469
713
880
970
1068
1209
1340
1415
1486
1629
1828
1992
2096
2255
2592
3083
3578
3997
4439
5022
5685
6234
6595
6935
7467
8152
8701
8885
8790
8720
8871
9138
9262
9107
8787
8548
8552
8756
8993
9144
9222
9336
9550
9811
10014
10107
10126
10121
10090
10001
9871
9784
9797
9859
9845
9676
9414
9192
9089
9054
8968
8759
8472
8223
8082
8016
7892
7615
7222
6861
6652
6566
6443
6154
5739
5350
5086
4920
4750
4511
4207
3846
3436
3011
2640
2332
1989
1513
955
511
303
204
-29
-486
-990
-1320
-1475
-1663
-2033
-2488
-2822
-2983
-3127
-3401
-3762
-4054
-4238
-4431
-4746
-5136
-5452
-5642
-5807
-6059
-6392
-6704
-6917
-7051
-7175
-7333
-7511
-7678
-7814
-7917
-8001
-8091
-8196
-8315
-8418
-8483
-8487
-8421
-8307
-8220
-8236
-8337
-8381
-8223
-7876
-7546
-7439
-7551
-7682
-7652
-7489
-7349
-7295
-7261
-7183
-7095
-7035
-6933
-6663
-6257
-5947
-5924
-6101
-6192
-6009
-5650
-5356
-5258
-5276
-5249
-5056
-4704
-4288
-3948
-3754
-3638
-3458
-3179
-2916
-2766
-2638
-2343
-1848
-1358
-1106
-1076
-1038
-814
-426
-41
229
403
576
848
1287
1876
2481
2917
3104
3148
3249
3529
3912
4187
4228
4138
4177
4488
4938
5216
5173
4995
5008
5291
5567
5512
5146
4831
4866
5151
5332
5234
5046
5067
5321
5518
5425
5149
4990
5067
5188
5112
4847
4631
4630
4760
4850
4873
4905
4953
4908
4740
4592
4632
4817
4933
4861
4715
4665
4714
4708
4542
4273
4010
3791
3609
3485
3466
3569
3786
4102
4472
4781
4911
4874
4838
4958
5188
5343
5342
5280
5289
5366
5410
5359
5229
5021
4719
4349
4046
3929
3969
4048
4118
4241
4455
4696
4854
4896
4869
4819
4756
4685
4632
4616
4634
4693
4809
4959
5063
5053
4955
4847
4774
4720
4660
4587
4472
4267
3976
3719
3622
3645
3598
3352
2992
2711
2562
2396
2055
1567
1102
774
538
273
-65
-434
-781
-1074
-1318
-1538
-1772
-2034
-2293
-2495
-2652
-2852
-3151
-3486
-3742
-3901
-4081
-4380
-4723
-4931
-4931
-4852
-4881
-5057
-5260
-5365
-5385
-5430
-5583
-5834
-6114
-6344
-6477
-6504
-6462
-6427
-6448
-6502
-6533
-6506
-6450
-6426
-6483
-6609
-6729
-6752
-6654
-6510
-6427
-6436
-6464
-6415
-6282
-6148
-6079
-6058
-6029
-5982
-5960
-5990
-6033
-6034
-5982
-5915
-5869
-5829
-5766
-5679
-5588
-5496
-5391
-5282
-5206
-5177
-5137
-5002
-4765
-4527
-4383
-4301
-4143
-3830
-3448
-3161
-3035
-2973
-2819
-2526
-2202
-1979
-1864
-1742
-1517
-1222
-972
-818
-693
-513
-298
-144
-75
25
278
649
965
1109
1161
1313
1640
2016
2273
2373
2439
2598
2860
3139
3360
3524
3667
3817
3975
4140
4319
4516
4714
4872
4975
5057
5176
5349
5520
5622
5649
5650
5665
5683
5692
5724
5831
5997
6151
6259
6364
6494
6602
6610
6521
6385
6211
5947
5613
5371
5334
5386
5318
5187
5413
6315
7609
8539
8629
8192
7936
8121
8295
7825
6608
5175
4162
3790
3804
3780
3473
3014
2794
3031
3391
3157
1966
357
-644
-589
-67
43
-295
-187
1147
3413
5501
6584
6768
6679
6696
6681
6320
5514
4409
3245
2223
1466
973
595
204
-217
-633
-1073
-1641
-2362
-3109
-3711
-4135
-4483
-4843
-5179
-5411
-5523
-5570
-5591
-5567
-5461
-5269
-5024
-4755
-4496
-4310
-4277
-4429
-4717
-5060
-5421
-5815
-6214
-6523
-6650
-6603
-6453
-6216
-5848
-5381
-5028
-4996
-5242
-5477
-5507
-5516
-5860
-6600
-7332
-7571
-7264
-6820
-6638
-6731
-6816
-6689
-6414
-6189
-6125
-6213
-6394
-6603
-6755
-6771
-6657
-6501
-6364
-6228
-6010
-5675
-5269
-4874
-4542
-4289
-4113
-3998
-3932
-3909
-3954
-4073
-4220
-4308
-4284
-4207
-4179
-4233
-4292
-4254
-4122
-4037
-4112
-4309
-4492
-4575
-4593
-4610
-4606
-4521
-4371
-4270
-4281
-4300
-4167
-3871
-3614
-3604
-3826
-4045
-4059
-3898
-3770
-3819
-3998
-4137
-4130
-4033
-3976
-4022
-4121
-4200
-4231
-4251
-4328
-4471
-4636
-4764
-4819
-4806
-4780
-4771
-4751
-4654
-4442
-4162
-3914
-3746
-3607
-3399
-3088
-2718
-2351
-2010
-1687
-1388
-1142
-973
-879
-851
-898
-1029
-1210
-1373
-1459
-1463
-1436
-1437
-1468
-1475
-1401
-1257
-1148
-1174
-1328
-1500
-1604
-1634
-1637
-1613
-1497
-1271
-1032
-905
-903
-921
-875
-816
-840
-935
-968
-855
-662
-511
-409
-236
67
386
532
449
289
234
308
376
323
184
95
154
333
531
676
765
816
839
843
868
968
1154
1381
1587
1748
1895
2076
2310
2569
2777
2869
2854
2818
2847
2960
3106
3239
3391
3663
4118
4709
5307
5806
6199
6568
6989
7448
7861
8150
8317
8441
8583
8738
8856
8914
8915
8851
8711
8517
8344
8261
8247
8231
8206
8230
8316
8380
8364
8382
8665
9299
10061
10610
10816
10836
10879
10951
10863
10457
9782
9053
8454
8037
7775
7646
7664
7842
8106
8313
8349
8230
8081
8003
7966
7839
7559
7206
6911
6715
6562
6378
6133
5810
5380
4861
4368
4032
3861
3725
3495
3183
2899
2685
2451
2091
1607
1115
724
442
195
-80
-378
-658
-910
-1146
-1402
-1690
-1984
-2251
-2490
-2758
-3121
-3565
-3978
-4234
-4325
-4367
-4470
-4615
-4671
-4537
-4230
-3842
-3434
-3012
-2564
-2113
-1690
-1310
-967
-682
-508
-460
-491
-528
-528
-496
-469
-470
-509
-583
-695
-829
-970
-1138
-1361
-1646
-1948
-2199
-2363
-2462
-2541
-2608
-2634
-2597
-2538
-2534
-2633
-2817
-3036
-3272
-3552
-3888
-4229
-4498
-4652
-4710
-4692
-4595
-4421
-4217
-4052
-3936
-3815
-3625
-3393
-3212
-3139
-3107
-2996
-2752
-2430
-2134
-1905
-1708
-1499
-1293
-1142
-1064
-1011
-925
-812
-735
-737
-787
-800
-731
-626
-574
-617
-714
-780
-772
-722
-689
-698
-718
-701
-627
-506
-368
-232
-113
-10
101
246
421
601
781
1004
1315
1677
1975
2151
2289
2547
2964
3378
3575
3516
3364
3301
3337
3328
3158
2868
2594
2419
2324
2261
2230
2259
2358
2497
2655
2848
3079
3296
3427
3473
3514
3619
3758
3836
3807
3735
3725
3803
3910
4001
4107
4306
4640
5097
5653
6292
6983
7666
8303
8910
9521
10095
10522
10707
10659
10459
10164
9767
9247
8630
7978
7337
6723
6158
5668
5227
4750
4161
3470
2763
2094
1422
665
-184
-1038
-1804
-2476
-3097
-3670
-4150
-4517
-4837
-5206
-5645
-6083
-6469
-6866
-7383
-8010
-8583
-8944
-9127
-9325
-9654
-10012
-10179
-10061
-9784
-9550
-9445
-9402
-9326
-9195
-9058
-8968
-8945
-8992
-9088
-9183
-9215
-9166
-9077
-8999
-8936
-8849
-8710
-8543
-8399
-8306
-8252
-8222
-8234
-8318
-8467
-8612
-8663
-8590
-8437
-8276
-8134
-7993
-7832
-7675
-7547
-7433
-7270
-7022
-6723
-6447
-6223
-6002
-5718
-5375
-5050
-4829
-4715
-4635
-4511
-4331
-4135
-3963
-3812
-3659
-3488
-3307
-3123
-2939
-2762
-2623
-2554
-2554
-2565
-2521
-2394
-2215
-2051
-1938
-1871
-1814
-1732
-1606
-1437
-1238
-1020
-781
-531
-290
-85
83
236
395
560
724
901
1110
1342
1574
1787
1985
2191
2410
2623
2802
2923
2986
3013
3052
3154
3320
3513
3686
3846
4044
4288
4538
4736
4893
5069
5301
5556
5754
5852
5898
5993
6190
6423
6536
6450
6295
6312
6597
6956
7091
6922
6691
6697
6948
7189
7205
7052
6955
7021
7156
7215
7147
7005
6824
6604
6343
6060
5759
5407
4998
4595
4275
4023
3748
3407
3050
2742
2455
2097
1635
1150
735
377
10
-380
-731
-1014
-1298
-1666
-2087
-2435
-2647
-2778
-2916
-3057
-3126
-3108
-3101
-3183
-3306
-3345
-3266
-3189
-3269
-3518
-3779
-3855
-3667
-3296
-2899
-2583
-2338
-2058
-1657
-1163
-710
-428
-327
-282
-147
115
408
597
627
544
425
312
196
45
-166
-433
-707
-918
-1000
-962
-883
-856
-897
-936
-929
-926
-1027
-1239
-1443
-1515
-1470
-1443
-1529
-1677
-1746
-1679
-1568
-1530
-1585
-1646
-1639
-1584
-1513
-1384
-1161
-911
-779
-803
-823
-632
-223
191
426
538
734
1097
1523
1883
2178
2487
2816
3100
3314
3520
3783
4091
4379
4636
4903
5196
5491
5766
6044
6356
6660
6896
7062
7218
7430
7691
7939
8105
8152
8108
8085
8200
8432
8610
8600
8490
8533
8852
9255
9439
9358
9272
9422
9712
9819
9608
9306
9240
9448
9629
9504
9153
8928
9058
9404
9615
9478
9110
8799
8721
8787
8758
8487
8028
7576
7268
7089
6920
6655
6298
5913
5549
5214
4877
4485
4001
3422
2788
2176
1645
1200
798
377
-70
-497
-867
-1198
-1559
-2000
-2486
-2939
-3326
-3675
-3993
-4233
-4377
-4532
-4863
-5389
-5912
-6196
-6253
-6335
-6670
-7190
-7598
-7700
-7597
-7538
-7651
-7854
-8009
-8112
-8274
-8553
-8839
-8963
-8900
-8823
-8900
-9105
-9248
-9196
-9014
-8880
-8882
-8972
-9063
-9120
-9108
-8971
-8700
-8418
-8292
-8349
-8429
-8332
-8023
-7650
-7370
-7208
-7083
-6926
-6716
-6452
-6165
-5924
-5789
-5723
-5596
-5326
-4985
-4729
-4598
-4455
-4162
-3784
-3500
-3337
-3120
-2709
-2238
-1988
-2023
-2091
-1904
-1500
-1179
-1128
-1204
-1151
-942
-782
-788
-823
-689
-373
-31
235
483
828
1273
1742
2178
2567
2904
3181
3440
3769
4184
4596
4886
5030
5113
5187
5193
5062
4809
4532
4287
4047
3788
3567
3491
3585
3760
3924
4075
4266
4486
4622
4603
4516
4520
4666
4848
4940
4924
4893
4925
5009
5083
5105
5062
4939
4778
4696
4766
4907
4967
4919
4907
5048
5231
5265
5170
5176
5381
5544
5389
5019
4879
5224
5757
5949
5675
5357
5422
5813
6102
6023
5751
5640
5787
5997
6048
5947
5856
5872
5943
5952
5889
5844
5883
5964
5978
5882
5762
5738
5807
5838
5705
5452
5248
5212
5298
5345
5251
5074
4956
4946
4955
4839
4551
4196
3926
3782
3699
3578
3399
3210
3038
2867
2671
2465
2262
2036
1735
1379
1057
849
705
505
184
-197
-504
-685
-835
-1080
-1456
-1857
-2150
-2327
-2517
-2865
-3340
-3778
-4033
-4147
-4303
-4627
-5022
-5298
-5398
-5474
-5693
-6034
-6297
-6346
-6274
-6284
-6443
-6596
-6561
-6354
-6167
-6160
-6307
-6429
-6407
-6280
-6173
-6179
-6286
-6399
-6437
-6373
-6255
-6162
-6158
-6232
-6313
-6332
-6269
-6172
-6123
-6154
-6205
-6168
-6007
-5794
-5663
-5674
-5740
-5726
-5587
-5393
-5229
-5088
-4908
-4677
-4455
-4269
-4041
-3658
-3160
-2723
-2500
-2447
-2359
-2103
-1765
-1548
-1545
-1657
-1711
-1610
-1396
-1165
-1011
-994
-1107
-1258
-1321
-1249
-1140
-1132
-1268
-1442
-1506
-1424
-1283
-1167
-1070
-943
-805
-742
-801
-884
-843
-651
-455
-416
-528
-619
-552
-371
-203
-76
102
402
763
1088
1373
1715
2144
2567
2862
3026
3178
3417
3721
3974
4091
4092
4063
4054
4029
3893
3599
3241
3009
3023
3194
3314
3283
3217
3326
3662
4048
4249
4219
4131
4172
4347
4525
4631
4722
4895
5137
5323
5356
5273
5179
5123
5072
4985
4885
4841
4894
5036
5209
5335
5354
5266
5169
5188
5328
5444
5412
5310
5385
5781
6343
6753
6875
6899
7086
7451
7748
7782
7648
7613
7789
8018
8086
7996
7949
8069
8243
8245
7992
7617
7297
7082
6886
6615
6251
5831
5384
4928
4476
4020
3499
2833
2013
1149
397
-170
-621
-1084
-1608
-2104
-2433
-2542
-2525
-2515
-2567
-2614
-2558
-2394
-2227
-2195
-2329
-2526
-2668
-2759
-2913
-3192
-3516
-3747
-3893
-4135
-4630
-5323
-5997
-6524
-6996
-7586
-8324
-9041
-9518
-9675
-9621
-9525
-9496
-9521
-9504
-9363
-9138
-8975
-9006
-9218
-9451
-9544
-9480
-9373
-9314
-9281
-9204
-9083
-8987
-8965
-8967
-8919
-8831
-8809
-8924
-9113
-9236
-9215
-9105
-9013
-8959
-8854
-8590
-8175
-7686
-7174
-6649
-6149
-5754
-5452
-5108
-4621
-4107
-3812
-3776
-3736
-3460
-3150
-3296
-4064
-4959
-5309
-4998
-4557
-4481
-4600
-4304
-3329
-2100
-1258
-997
-1004
-952
-864
-974
-1370
-1893
-2350
-2681
-2929
-3104
-3216
-3337
-3549
-3842
-4128
-4360
-4587
-4882
-5235
-5498
-5544
-5426
-5350
-5461
-5687
-5810
-5733
-5595
-5599
-5741
-5772
-5484
-4968
-4536
-4379
-4371
-4232
-3859
-3422
-3136
-3057
-3088
-3140
-3182
-3170
-3058
-2882
-2751
-2694
-2551
-2116
-1418
-741
-342
-171
47
466
951
1278
1381
1378
1401
1470
1542
1584
1568
1448
1210
937
746
653
547
327
37
-167
-193
-108
-48
-62
-93
-63
47
200
367
543
725
897
1030
1123
1194
1259
1320
1407
1571
1831
2117
2335
2482
2675
3006
3383
3602
3593
3527
3645
3964
4255
4313
4200
4177
4399
4754
4998
5024
4951
4974
5150
5390
5587
5725
5876
6087
6327
6545
6749
6992
7288
7573
7791
7984
8227
8532
8812
8988
9072
9115
9122
9068
8976
8901
8843
8727
8554
8484
8676
9065
9374
9423
9382
9578
10085
10596
10710
10358
9845
9519
9445
9382
9076
8532
8004
7750
7794
7924
7915
7729
7501
7374
7337
7256
7031
6677
6279
5904
5562
5232
4886
4504
4080
3621
3138
2643
2151
1685
1262
883
540
256
53
-87
-220
-387
-558
-668
-712
-734
-707
-497
12
733
1393
1771
1905
2014
2220
2405
2368
2076
1714
1496
1480
1561
1641
1726
1852
1976
1990
1841
1595
1347
1099
768
304
-209
-628
-909
-1132
-1403
-1714
-1973
-2134
-2269
-2466
-2709
-2882
-2906
-2849
-2850
-2989
-3231
-3482
-3676
-3805
-3905
-4023
-4180
-4332
-4402
-4344
-4216
-4126
-4101
-4048
-3865
-3572
-3288
-3096
-2930
-2666
-2278
-1855
-1491
-1181
-856
-489
-119
206
494
778
1057
1295
1471
1588
1659
1696
1724
1773
1835
1844
1743
1553
1341
1132
857
441
-99
-658
-1161
-1611
-2018
-2325
-2443
-2363
-2167
-1937
-1675
-1352
-1006
-749
-637
-591
-478
-249
10
189
262
296
345
392
370
249
55
-161
-357
-503
-567
-515
-359
-163
-1
105
205
359
561
742
837
862
908
1064
1348
1696
2021
2275
2460
2606
2744
2908
3112
3343
3565
3760
3955
4198
4496
4807
5070
5264
5404
5509
5583
5637
5684
5720
5720
5671
5617
5609
5649
5687
5677
5613
5506
5365
5216
5095
4992
4813
4463
3972
3469
3003
2447
1665
757
39
-264
-259
-224
-268
-237
32
433
667
542
115
-441
-1036
-1692
-2421
-3152
-3790
-4285
-4651
-4912
-5092
-5232
-5397
-5629
-5938
-6288
-6628
-6913
-7144
-7351
-7557
-7750
-7898
-7989
-8065
-8193
-8427
-8772
-9154
-9438
-9495
-9310
-8997
-8692
-8401
-7990
-7358
-6596
-5951
-5609
-5548
-5604
-5646
-5673
-5734
-5834
-5923
-5950
-5902
-5792
-5644
-5501
-5416
-5400
-5420
-5442
-5488
-5606
-5774
-5884
-5845
-5709
-5632
-5688
-5765
-5692
-5458
-5227
-5139
-5115
-4972
-4661
-4343
-4170
-4101
-4029
-4023
-4305
-4921
-5554
-5790
-5557
-5179
-4946
-4745
-4210
-3210
-2056
-1192
-775
