-83
-121
-166
-191
-181
-143
-104
-76
-57
-43
-38
-37
-28
-10
-12
-61
-133
-163
-128
-83
-98
-176
-236
-212
-134
-80
-84
-102
-84
-39
-4
9
21
35
25
-17
-58
-62
-47
-56
-92
-105
-63
-4
5
-33
-51
-11
43
53
41
89
216
340
372
337
341
427
511
489
372
271
257
285
267
197
139
135
146
115
46
-9
-29
-43
-75
-108
-110
-81
-48
-24
-1
14
-14
-109
-234
-331
-378
-403
-439
-467
-448
-370
-266
-170
-82
12
100
141
121
69
37
39
54
56
46
56
101
156
184
176
157
153
156
139
94
41
-22
-147
-390
-734
-1097
-1427
-1762
-2175
-2652
-3053
-3224
-3115
-2803
-2401
-1978
-1545
-1094
-622
-155
241
477
504
372
207
117
116
140
138
126
146
208
289
355
401
442
475
471
397
255
114
64
138
280
386
403
381
421
566
762
901
923
849
747
671
626
590
548
504
473
474
515
585
654
685
666
618
577
555
530
482
426
410
459
544
611
643
674
752
874
992
1054
1053
1028
1028
1065
1119
1166
1206
1270
1370
1468
1496
1431
1318
1226
1159
1051
852
605
419
358
384
415
413
413
456
532
592
605
575
520
447
361
271
192
128
69
6
-50
-80
-81
-71
-82
-119
-152
-151
-122
-107
-139
-206
-261
-276
-259
-237
-223
-211
-210
-240
-306
-388
-447
-457
-426
-380
-341
-303
-236
-116
41
183
265
299
340
416
483
482
414
353
354
384
361
249
104
7
-23
-35
-83
-174
-268
-319
-309
-256
-200
-177
-188
-200
-177
-119
-59
-25
-6
21
58
86
89
79
75
83
97
113
132
148
145
113
75
67
104
161
202
216
222
242
281
310
294
210
66
-90
-203
-244
-231
-208
-191
-162
-98
-23
5
-43
-132
-197
-217
-225
-253
-276
-234
-103
69
199
252
248
221
175
101
5
-85
-148
-179
-181
-140
-41
112
277
393
434
422
404
394
372
320
258
219
181
74
-154
-463
-765
-1036
-1346
-1759
-2223
-2582
-2729
-2693
-2583
-2459
-2284
-1995
-1586
-1118
-663
-268
44
279
466
638
793
886
876
785
687
638
639
663
706
786
912
1044
1131
1149
1115
1048
935
756
526
309
170
129
161
224
294
363
426
481
524
541
503
387
219
72
14
54
155
272
386
497
604
704
797
882
939
947
916
892
910
953
978
967
961
996
1059
1095
1071
1013
970
966
979
984
987
1004
1035
1050
1016
930
829
753
714
690
662
638
663
765
905
1005
1011
943
857
781
700
585
449
343
293
277
253
213
192
223
284
310
264
170
101
92
106
74
-18
-103
-113
-63
-32
-73
-149
-183
-153
-115
-123
-166
-188
-151
-72
15
89
142
168
165
143
111
57
-35
-154
-262
-330
-354
-350
-318
-245
-138
-27
56
105
135
155
164
158
133
83
14
-45
-59
-25
18
20
-21
-67
-77
-47
9
69
108
106
77
70
121
211
272
265
213
160
110
44
-31
-81
-84
-71
-72
-69
-8
116
238
286
254
206
197
219
231
207
157
114
108
144
201
238
228
171
101
57
37
5
-72
-181
-260
-254
-178
-104
-104
-167
-229
-247
-253
-303
-396
-469
-465
-394
-309
-237
-162
-65
45
145
225
293
357
405
420
410
402
401
384
322
238
184
169
125
-34
-315
-626
-901
-1198
-1626
-2178
-2674
-2912
-2871
-2703
-2539
-2347
-1996
-1439
-796
-246
113
311
426
509
556
544
469
371
303
295
327
352
358
365
380
381
345
299
291
327
359
341
285
250
264
297
305
289
287
327
387
425
432
440
470
504
502
472
467
523
614
666
644
586
555
563
571
543
483
431
415
431
461
494
533
578
630
693
763
829
875
919
992
1098
1200
1244
1223
1179
1158
1144
1081
946
783
655
574
503
421
361
373
439
485
458
383
325
310
306
276
227
199
208
236
266
301
344
375
368
315
233
145
64
-4
-61
-102
-129
-142
-131
-80
11
106
148
107
10
-84
-142
-185
-264
-379
-468
-472
-404
-337
-320
-320
-276
-184
-113
-121
-185
-224
-192
-123
-78
-67
-55
-5
69
126
143
134
114
88
61
41
43
67
97
111
99
61
21
9
49
126
176
139
31
-70
-98
-70
-68
-142
-245
-283
-208
-59
93
218
336
451
530
537
475
381
289
200
110
30
-19
-27
-4
38
89
134
152
133
90
46
17
-1
-18
-43
-86
-138
-172
-166
-140
-153
-235
-332
-353
-276
-182
-160
-189
-154
2
191
274
215
115
84
120
124
33
-118
-243
-293
-286
2660
2479
2468
2625
2796
2820
2689
2525
2436
2405
2357
2267
2198
2231
2385
2601
2789
2893
2949
3065
3301
3573
3704
3624
3489
3535
3820
4154
4299
4227
4123
4149
4266
4299
4137
3816
3462
3159
2924
2712
2476
2212
1993
1925
2035
2232
2409
2561
2767
3054
3314
3420
3370
3267
3204
3204
3294
3543
3932
4303
4503
4630
5002
5776
6661
7128
6945
6424
6059
5942
5666
4805
3427
2061
1205
934
991
1135
1350
1744
2372
3161
3959
4591
4916
4892
4607
4233
3894
3603
3326
3067
2875
2776
2729
2692
2678
2727
2820
2859
2774
2610
2472
2400
2305
2069
1689
1300
1058
1012
1084
1177
1305
1580
2090
2747
3315
3586
3552
3386
3243
3107
2866
2521
2258
2264
2505
2732
2759
2663
2667
2826
2954
2855
2556
2257
2068
1930
1775
1678
1714
1745
1490
864
163
-207
-174
-49
-108
-243
-88
501
1252
1779
2012
2214
2606
3092
3391
3383
3226
3152
3230
3357
3438
3470
3470
3421
3310
3181
3072
2976
2877
2796
2776
2801
2799
2772
2825
2985
3059
2832
2385
2078
2075
2044
1506
509
-250
-113
808
1755
2160
2210
2516
3372
4464
5254
5493
5318
4979
4628
4334
4140
4038
3947
3780
3538
3339
3274
3338
3442
3488
3445
3334
3190
3050
2949
2910
2903
2822
2535
1997
1362
927
913
1254
1646
1837
1889
2108
2696
3492
4086
4215
4009
3836
3915
4134
4227
4081
3824
3623
3501
3390
3264
3205
3272
3388
3407
3291
3161
3153
3256
3335
3303
3196
3099
3009
2852
2631
2469
2493
2672
2827
2801
2606
2392
2304
2355
2445
2451
2344
2242
2316
2605
2906
2934
2635
2312
2348
2797
3323
3568
3538
3549
3821
4227
4471
4424
4210
3999
3812
3596
3366
3216
3205
3272
3324
3335
3343
3364
3368
3317
3209
3076
2930
2746
2539
2391
2370
2440
2463
2340
2099
1832
1568
1290
1092
1212
1802
2696
3520
4100
4672
5585
6803
7828
8167
7823
7229
6764
6409
5910
5158
4325
3656
3243
3022
2916
2894
2929
2941
2864
2714
2568
2495
2498
2525
2521
2473
2402
2336
2287
2250
2232
2231
2221
2143
1943
1646
1356
1177
1125
1135
1165
1256
1482
1838
2216
2501
2680
2815
2950
3043
3027
2896
2725
2604
2571
2590
2595
2543
2444
2349
2310
2321
2326
2279
2191
2111
2077
2075
2075
2068
2053
2011
1900
1713
1516
1404
1414
1479
1495
1416
1298
1242
1298
1409
1475
1449
1369
1294
1190
939
480
-46
-348
-229
233
782
1252
1714
2326
3087
3772
4131
4103
3827
3490
3184
2923
2717
2589
2553
2591
2685
2830
3009
3166
3236
3199
3097
2989
2912
2877
2896
2982
3109
3211
3224
3146
3031
2937
2880
2831
2759
2668
2591
2570
2621
2715
2796
2821
2785
2715
2628
2530
2442
2418
2484
2587
2635
2619
2651
2850
3175
3433
3457
3272
3062
2967
2975
2979
2912
2805
2721
2696
2727
2786
2848
2882
2863
2781
2660
2557
2528
2582
2665
2704
2659
2556
2439
2305
2126
1905
1699
1583
1575
1639
1752
1935
2217
2580
2945
3233
3422
3543
3633
3681
3640
3479
3235
2995
2831
2752
2716
2683
2658
2666
2709
2759
2790
2807
2819
2816
2792
2766
2760
2769
2767
2750
2751
2804
2884
2920
2876
2797
2755
2755
2719
2585
2415
2347
2457
2655
2775
2749
2677
2723
2933
3187
3324
3300
3204
3156
3176
3190
3140
3049
2964
2885
2778
2651
2575
2595
2653
2657
2628
2705
2988
3402
3782
4081
4420
4916
5478
5866
5945
5820
5686
5588
5389
4967
4386
3839
3447
3154
2827
2421
2027
1777
1714
1775
1873
1969
2088
2271
2521
2792
3014
3131
3118
2993
2805
2613
2461
2358
2292
2249
2216
2183
2161
2187
2279
2388
2417
2314
2142
2023
2020
2086
2142
2168
2189
2188
2087
1865
1634
1556
1664
1815
1853
1790
1783
1937
2176
2330
2310
2184
2076
2036
2028
2000
1931
1839
1744
1661
1598
1551
1514
1486
1470
1449
1399
1320
1256
1256
1306
1342
1317
1268
1272
1356
1459
1512
1511
1517
1580
1690
1791
1824
1755
1581
1360
1202
1205
1380
1632
1853
2019
2209
2488
2825
3096
3196
3126
2979
2854
2787
2751
2716
2679
2671
2714
2800
2895
2962
2989
2985
2965
2924
2846
2735
2629
2582
2612
2694
2772
2804
2791
2760
2737
2738
2753
2767
2769
2754
2715
2656
2598
2569
2585
2625
2647
2633
2604
2598
2621
2634
2599
2519
2434
2375
2344
2328
2323
2331
2349
2359
2363
2379
2416
2447
2424
2337
2240
2193
2185
2131
1976
1780
1683
1771
1991
2212
2356
2453
2582
2773
2983
3137
3192
3144
3020
2863
2726
2634
2575
2516
2444
2380
2358
2388
2443
2484
2490
2469
2453
2472
2522
2579
2619
2651
2707
2788
2852
2843
2761
2670
2638
2670
2709
2703
2661
2642
2685
2769
2838
2845
2786
2698
2628
2597
2583
2554
2511
2497
2554
2659
2734
2719
2634
2551
2513
2471
2351
2167
2031
2044
2174
2286
2302
2309
2468
2820
3227
3537
3775
4109
4621
5162
5484
5498
5348
5216
5113
4889
4436
3828
3255
2862
2645
2508
2368
2225
2148
2187
2306
2393
2358
2230
2132
2139
2186
2138
1944
1701
1547
1517
1518
1448
1322
1267
1390
1649
1863
1842
1541
1091
709
540
582
729
894
1091
1404
1891
2490
3036
3361
3386
3171
2851
2556
2347
2201
2073
1946
1860
1865
1954
2060
2100
2029
1871
1672
1464
1241
993
748
567
482
423
235
-202
-827
-1396
-1636
-1445
-933
-296
351
1012
1719
2441
3070
3484
3610
3464
3133
2743
2388
2122
1950
1866
1873
1952
2065
2167
2247
2316
2371
2374
2287
2129
1985
1940
2009
2134
2236
2287
2309
2332
2350
2326
2238
2098
1944
1814
1733
1701
1702
1715
1748
1844
2051
2361
2690
2933
3031
3015
2957
2897
2828
2727
2598
2481
2415
2403
2416
2420
2415
2421
2449
2484
2491
2453
2387
2331
2314
2330
2352
2343
2271
2125
1924
1718
1573
1525
1563
1642
1736
1867
2073
2360
2675
2943
3115
3189
3191
3148
3084
3016
2950
2877
2784
2683
2616
2615
2663
2696
2665
2593
2537
2527
2537
2531
2516
2527
2557
2550
2469
2349
2258
2213
2164
2076
1996
1998
2104
2251
2376
2477
2587
2703
2784
2804
2800
2827
2904
3008
3112
3218
3330
3435
3513
3554
3559
3513
3384
3173
2923
2697
2524
2400
2306
2239
2207
2211
2247
2304
2354
2346
2254
2129
2060
2082
2129
2114
2038
1997
2058
2185
2300
2407
2588
2889
3253
3597
3929
4328
4803
5229
5449
5424
5251
5039
4804
4491
4067
3577
3102
2713
2439
2278
2201
2165
2138
2115
2113
2134
2152
2145
2115
2080
2044
2001
1945
1901
1893
1920
1946
1942
1916
1906
1936
1990
2027
2030
2005
1974
1948
1924
1894
1859
1828
1813
1821
1851
1886
1915
1943
1982
2034
2077
2088
2069
2052
2054
2042
1954
1771
1556
1409
1378
1421
1455
1456
1467
1536
1648
1729
1709
1571
1362
1159
1028
992
1016
1048
1083
1170
1353
1598
1804
1892
1872
1807
1743
1678
1605
1544
1529
1565
1627
1696
1785
1894
1999
2063
2073
2051
2034
2049
2098
2157
2194
2187
2151
2124
2130
2164
2211
2277
2387
2543
2709
2843
2928
2973
2988
2967
2902
2788
2634
2470
2346
2304
2338
2397
2427
2430
2449
2508
2568
2568
2494
2399
2353
2376
2433
2480
2511
2557
2638
2730
2783
2774
2742
2738
2759
2741
2647
2532
2494
2557
2626
2590
2457
2343
2331
2381
2388
2314
2225
2194
2214
2227
2209
2191
2194
2194
2162
2121
2122
2176
2225
2214
2163
2141
2183
2255
2303
2321
2346
2406
2487
2553
2592
2605
2583
2503
2372
2250
2211
2269
2347
2355
2280
2209
2243
2379
2495
2480
2352
2237
2217
2237
2181
2027
1892
1901
2051
2222
2313
2331
2360
2443
2550
2623
2632
2585
2510
2437
2399
2409
2451
2485
2491
2477
2469
2476
2483
2457
2380
2265
2158
2093
2073
2084
2120
2188
2273
2325
2319
2311
2408
2647
2947
3221
3495
3868
4356
4820
5093
5134
5030
4860
4608
4227
3748
3274
2882
2574
2321
2121
2005
1982
2003
2011
1991
1966
1960
1960
1925
1837
1725
1635
1572
1507
1426
1367
1373
1415
1406
1321
1244
1294
1487
1701
1805
1789
1758
1806
1930
2045
2091
2073
2032
2000
1975
1950
1938
1950
1965
1937
1851
1771
1792
1925
2058
2059
1922
1780
1753
1819
1850
1762
1609
1489
1431
1381
1286
1155
1043
984
980
1011
1058
1103
1148
1203
1258
1247
1094
808
516
357
342
359
316
267
364
682
1143
1592
1942
2203
2417
2585
2687
2726
2724
2687
2602
2480
2370
2319
2322
2333
2314
2266
2221
2196
2198
2229
2282
2338
2371
2373
2368
2378
2403
2424
2425
2420
2427
2455
2483
2491
2475
2449
2429
2415
2392
2354
2321
2327
2374
2422
2432
2410
2398
2420
2442
2413
2339
2286
2300
2343
2338
2253
2143
2095
2144
2241
2294
2241
2101
1966
1929
1984
2006
1866
1571
1289
1201
1334
1551
1706
1799
1949
2235
2591
2868
2970
2919
2799
2667
2541
2422
2328
2263
2216
2186
2203
2297
2436
2526
2502
2381
2250
2173
2137
2085
1995
1899
1837
1817
1816
1821
1832
1847
1840
1788
1707
1649
1667
1755
1857
1921
1956
2009
2115
2248
2354
2412
2449
2485
2503
2472
2397
2335
2329
2358
2359
2302
2227
2207
2255
2316
2325
2268
2200
2190
2250
2321
2323
2235
2121
2064
2079
2094
2035
1882
1670
1444
1243
1123
1140
1279
1437
1534
1635
1923
2502
3260
3961
4482
4893
5312
5718
5959
5929
5678
5334
4951
4487
3917
3333
2885
2629
2493
2364
2211
2093
2064
2091
2097
2048
1971
1913
1881
1845
1794
1748
1729
1729
1710
1637
1495
1299
1098
971
975
1097
1258
1391
1501
1640
1822
1986
2052
1997
1876
1761
1684
1630
1588
1563
1564
1567
1539
1482
1440
1458
1531
1605
1633
1618
1595
1585
1580
1561
1513
1403
1192
892
599
441
465
593
705
762
831
986
1205
1389
1460
1427
1352
1284
1235
1200
1184
1186
1198
1203
1203
1214
1237
1267
1300
1344
1406
1471
1508
1518
1547
1641
1787
1907
1936
1890
1843
1846
1884
1912
1914
1899
1864
1788
1666
1538
1459
1447
1482
1539
1616
1720
1860
2037
2245
2449
2591
2622
2558
2472
2430
2432
2432
2392
2320
2253
2219
2224
2256
2290
2298
2271
2218
2166
2134
2119
2103
2074
2030
1984
1947
1924
1904
1868
1819
1781
1793
1871
2004
2156
2285
2365
2394
2403
2419
2438
2433
2374
2268
2152
2060
2009
1998
2022
2065
2099
2099
2072
2051
2057
2082
2092
2065
2011
1960
1938
1957
2000
2035
2023
1956
1871
1833
1858
1899
1890
1828
1780
1812
1897
1940
1890
1811
1810
1900
1984
1971
1895
1877
1963
2061
2052
1945
1859
1876
1938
1941
1881
1871
2004
2233
2420
2490
2488
2499
2531
2521
2420
2257
2103
1998
1924
1859
1817
1832
1907
1998
2051
2044
2008
1986
2003
2047
2083
2080
2043
2006
2009
2045
2065
2020
1911
1786
1682
1592
1520
1522
1660
1915
2177
2352
2447
2515
2546
2475
2301
2144
2139
2298
2535
2816
3225
3840
4567
5171
5471
5473
5300
5025
4624
4058
3382
2723
2196
1833
1609
1487
1445
1472
1532
1579
1577
1528
1462
1423
1426
1451
1471
1478
1493
1540
1617
1701
1758
1767
1737
1687
1633
1581
1525
1454
1369
1284
1215
1177
1174
1195
1225
1254
1283
1305
1308
1285
1244
1209
1204
1233
1281
1325
1343
1332
1312
1309
1327
1333
1286
1179
1056
976
957
970
974
961
951
951
944
915
877
847
805
711
558
405
324
327
353
337
293
302
420
611
788
899
975
1094
1296
1540
1742
1844
1846
1788
1707
1614
1506
1382
1251
1132
1064
1082
1189
1346
1497
1608
1688
1770
1856
1915
1916
1873
1834
1844
1901
1966
2005
2019
2035
2067
2084
2033
1901
1754
1690
1755
1900
2027
2090
2141
2258
2445
2620
2689
2629
2495
2353
2237
2137
2041
1952
1896
1913
2016
2169
2300
2356
2343
2307
2272
2208
2082
1914
1771
1699
1675
1655
1626
1615
1638
1680
1718
1753
1796
1848
1886
1898
1899
1908
1921
1914
1874
1826
1810
1835
1876
1904
1919
1947
2004
2075
2123
2121
2078
2018
1960
1906
1855
1819
1815
1842
1879
1905
1921
1935
1946
1941
1915
1888
1883
1889
1875
1827
1781
1783
1836
1888
1894
1862
1839
1850
1868
1846
1775
1689
1630
1613
1633
1675
1727
1777
1820
1867
1925
1979
1999
1962
1889
1819
1779
1762
1746
1730
1734
1769
1820
1851
1847
1816
1783
1760
1753
1775
1826
1902
1986
2068
2142
2193
2196
2123
1974
1799
1657
1562
1483
1383
1284
1247
1288
1359
1406
1459
1616
1920
2296
2638
2960
3385
3970
4576
4969
5040
4896
4707
4515
4215
3720
3085
2463
1977
1648
1440
1329
1301
1334
1392
1457
1534
1622
1703
1754
1763
1737
1693
1642
1584
1520
1451
1386
1336
1311
1316
1343
1368
1369
1342
1311
1299
1300
1274
1188
1062
973
983
1082
1187
1225
1196
1158
1163
1205
1238
1232
1195
1154
1128
1129
1156
1199
1239
1258
1258
1248
1217
1151
1061
997
982
975
917
817
766
825
946
1014
975
892
848
849
828
756
683
669
694
693
647
614
663
790
921
988
997
1007
1059
1142
1211
1237
1239
1261
1314
1371
1399
1418
1481
1615
1768
1851
1843
1812
1848
1956
2063
2089
2031
1957
1937
1983
2051
2079
2036
1942
1858
1839
1892
1963
1994
1981
1973
2016
2109
2206
2267
2284
2271
2245
2219
2208
2208
2198
2157
2098
2068
2088
2122
2112
2049
1987
1982
2019
2031
1981
1911
1885
1915
1946
1924
1861
1813
1809
1827
1837
1834
1834
1838
1831
1809
1794
1806
1827
1818
1771
1722
1717
1760
1812
1835
1826
1809
1801
1796
1787
1774
1768
1770
1769
1750
1717
1699
1716
1761
1784
1736
1624
1512
1467
1500
1561
1594
1595
1609
1663
1733
1771
1761
1729
1707
1689
1650
1589
1557
1603
1717
1831
1883
1887
1901
1952
1992
1955
1843
1729
1671
1655
1626
1578
1561
1617
1712
1778
1799
1827
1896
1967
1974
1914
1851
1834
1837
1808
1749
1718
1760
1843
1904
1913
1896
1879
1852
1799
1732
1673
1615
1543
1473
1451
1481
1507
1475
1424
1473
1686
1984
2243
2462
2784
3316
3964
4476
4671
4585
4387
4188
3965
3637
3189
2691
2241
1910
1730
1686
1704
1699
1626
1521
1449
1427
1416
1381
1332
1295
1277
1270
1281
1325
1384
1409
1358
1264
1205
1217
1257
1257
1212
1175
1187
1226
1241
1218
1186
1180
1205
1239
1267
1289
1306
1304
1275
1229
1188
1166
1151
1126
1087
1057
1054
1067
1061
1021
976
966
992
1013
991
938
896
885
884
864
817
763
725
706
699
690
674
659
651
648
638
621
615
635
667
674
657
648
686
754
805
825
837
861
873
849
820
858
983
1130
1225
1269
1326
1437
1570
1664
1696
1692
1679
1669
1668
1682
1708
1724
1718
1715
1747
1813
1864
1858
1813
1785
1800
1826
1820
1787
1769
1788
1816
1823
1818
1823
1829
1797
1722
1656
1644
1660
1636
1548
1444
1384
1354
1298
1212
1168
1234
1382
1534
1647
1762
1917
2079
2172
2171
2129
2100
2063
1966
1819
1700
1673
1708
1726
1702
1684
1719
1775
1784
1721
1633
1575
1551
1527
1491
1466
1476
1512
1543
1558
1555
1536
1506
1482
1482
1498
1502
1475
1443
1439
1468
1498
1503
1495
1504
1527
1528
1484
1418
1373
1362
1346
1294
1217
1165
1173
1231
1298
1347
1388
1436
1501
1576
1649
1702
1720
1701
1675
1667
1683
1699
1687
1653
1630
1639
1669
1687
1678
1648
1618
1601
1593
1586
1574
1557
1551
1565
1598
1633
1652
1655
1657
1655
1628
1548
1429
1323
1275
1266
1251
1222
1220
1266
1317
1317
1295
1360
1573
1860
2098
2285
2560
3028
3598
4031
4180
4113
4004
3928
3802
3526
3116
2690
2343
2092
1905
1770
1685
1633
1572
1482
1385
1326
1315
1322
1312
1282
1266
1290
1334
1340
1270
1154
1060
1024
1022
1007
972
963
1024
1138
1239
1279
1261
1228
1210
1194
1157
1100
1062
1076
1127
1162
1148
1104
1085
1120
1177
1198
1158
1079
1001
946
910
881
842
786
724
691
702
732
736
704
687
727
788
785
684
559
508
547
590
563
489
450
491
573
629
634
620
626
664
715
750
752
735
737
786
863
916
921
913
938
996
1046
1069
1102
1181
1288
1367
1400
1426
1489
1572
1627
1641
1645
1662
1673
1658
1635
1643
1683
1715
1707
1686
1700
1759
1809
1791
1707
1624
1612
1669
1733
1733
1669
1613
1626
1692
1733
1699
1623
1579
1590
1611
1604
1585
1605
1673
1740
1765
1753
1739
1733
1720
1682
1628
1572
1525
1492
1483
1499
1518
1520
1508
1514
1554
1591
1572
1499
1433
1428
1465
1475
1427
1361
1335
1354
1368
1345
1311
1307
1333
1350
1324
1260
1188
1136
1121
1148
1196
1224
1216
1210
1267
1395
1520
1563
1525
1476
1463
1458
1408
1322
1260
1257
1272
1246
1194
1187
1268
1394
1491
1522
1524
1553
1625
1704
1750
1756
1732
1696
1664
1647
1651
1660
1656
1633
1612
1621
1662
1703
1704
1661
1602
1561
1546
1542
1531
1518
1510
1508
1506
1481
1427
1362
1310
1291
1305
1335
1369
1391
1391
1380
1406
1523
1724
1950
2166
2426
2817
3327
3811
4115
4220
4220
4165
3998
3648
3160
2667
2255
1897
1552
1260
1101
1079
1106
1097
1053
1033
1053
1064
1033
983
958
970
985
976
954
947
957
951
903
826
769
761
784
797
785
770
783
830
882
914
920
914
907
909
923
946
963
957
926
886
866
875
893
897
869
811
739
673
634
632
651
663
646
605
559
528
521
534
554
558
526
464
420
437
500
550
531
451
371
346
373
407
409
382
369
399
470
547
597
618
633
667
721
776
824
870
926
988
1046
1099
1154
1211
1260
1288
1295
1290
1284
1289
1314
1357
1401
1442
1491
1570
1667
1730
1724
1672
1634
1641
1660
1644
1593
1559
1579
1642
1701
1722
1715
1709
1723
1743
1744
1717
1686
1687
1728
1773
1779
1741
1708
1714
1733
1708
1633
1568
1561
1583
1559
1476
1410
1438
1531
1584
1532
1437
1405
1462
1531
1537
1493
1463
1470
1466
1417
1355
1353
1422
1497
1509
1469
1449
1484
1534
1545
1508
1462
1438
1428
1412
1390
1383
1396
1417
1437
1459
1478
1479
1455
1430
1426
1439
1432
1394
1352
1347
1369
1374
1335
1280
1248
1243
1231
1205
1198
1236
1294
1321
1308
1304
1353
1433
1478
1466
1440
1455
1516
1570
1580
1564
1567
1599
1630
1626
1597
1575
1577
1585
1577
1555
1542
1546
1552
1544
1520
1494
1481
1486
1507
1534
1546
1534
1499
1445
1375
1294
1210
1126
1038
946
872
849
881
935
996
1114
1364
1752
2196
2620
3036
3517
4051
4492
4676
4579
4337
4084
3821
3455
2951
2400
1943
1641
1447
1289
1157
1094
1114
1154
1140
1060
980
965
1004
1037
1026
996
978
969
951
929
923
932
922
880
841
859
927
983
979
937
910
921
941
939
922
919
938
950
923
872
834
827
834
830
807
784
777
779
785
792
800
792
750
675
597
542
506
467
413
364
340
342
354
357
350
332
305
283
278
284
279
254
237
266
340
416
449
443
446
490
569
650
712
763
815
864
896
903
902
908
934
960
956
927
914
969
1099
1252
1359
1393
1385
1382
1407
1437
1436
1398
1357
1345
1374
1426
1479
1526
1570
1615
1653
1685
1721
1759
1771
1741
1686
1650
1660
1694
1710
1692
1668
1665
1684
1711
1725
1716
1680
1625
1577
1558
1567
1574
1558
1529
1525
1552
1577
1557
1495
1429
1398
1400
1404
1385
1352
1342
1375
1432
1466
1453
1410
1378
1377
1382
1357
1296
1243
1240
1283
1331
1339
1315
1305
1338
1387
1397
1350
1284
1255
1273
1295
1275
1215
1157
1139
1166
1207
1237
1246
1246
1257
1287
1318
1322
1290
1247
1222
1221
1220
1205
1186
1184
1200
1213
1204
1178
1149
1127
1114
1112
1125
1160
1205
1245
1269
1280
1288
1303
1325
1349
1361
1353
1330
1319
1337
1380
1419
1421
1375
1308
1257
1236
1229
1213
1181
1147
1126
1122
1145
1201
1277
1335
1350
1337
1344
1387
1427
1404
1294
1153
1050
997
949
864
768
723
751
792
788
774
884
1209
1695
2187
2605
3025
3557
4174
4673
4856
4710
4383
4025
3650
3185
2605
1999
1504
1197
1053
993
959
934
919
915
913
911
911
919
919
901
882
894
946
995
993
941
884
858
845
806
746
709
720
752
759
730
696
685
694
706
723
753
780
773
725
675
662
683
696
672
632
622
660
715
744
727
689
666
668
663
617
525
420
342
297
271
249
233
230
232
225
202
170
131
76
2
-72
-117
-121
-101
-71
-24
52
151
246
314
367
423
484
524
533
536
565
624
680
707
715
735
780
838
890
933
976
1024
1077
1129
1175
1205
1209
1192
1176
1176
1184
1180
1162
1159
1201
1280
1367
1436
1484
1521
1555
1584
1608
1622
1619
1594
1549
1502
1468
1453
1451
1449
1435
1399
1345
1294
1265
1258
1253
1233
1206
1197
1222
1272
1329
1368
1377
1356
1328
1317
1325
1316
1251
1138
1042
1024
1076
1129
1140
1124
1132
1184
1247
1284
1285
1268
1240
1195
1134
1074
1037
1030
1049
1083
1121
1150
1172
1203
1255
1316
1354
1344
1294
1239
1207
1204
1219
1237
1241
1223
1188
1160
1154
1163
1165
1144
1109
1075
1049
1027
1010
999
988
962
911
852
817
825
853
865
846
821
826
868
918
949
971
1011
1083
1164
1227
1269
1310
1368
1429
1470
1480
1463
1426
1374
1321
1288
1289
1318
1352
1370
1375
1380
1396
1417
1421
1394
1343
1294
1265
1257
1254
1244
1230
1221
1201
1136
1020
897
815
770
715
633
574
596
683
769
831
950
1226
1655
2143
2622
3123
3691
4265
4678
4811
4688
4429
4103
3682
3126
2478
1860
1379
1054
840
690
599
580
614
653
658
633
616
642
697
736
737
722
727
757
785
783
744
683
619
574
560
576
606
623
616
590
561
540
525
513
501
482
449
398
336
281
253
256
274
298
331
385
449
488
471
402
328
292
301
324
330
314
299
302
323
339
322
257
156
54
-15
-48
-71
-110
-160
-192
-186
-156
-132
-139
-173
-209
-222
-193
-125
-52
-19
-49
-108
-133
-89
-8
46
49
49
124
302
523
701
796
841
896
979
1061
1107
1111
1097
1095
1112
1149
1195
1236
1260
1271
1278
1282
1273
1250
1237
1257
1296
1307
1265
1198
1157
1157
1170
1161
1133
1115
1122
1151
1189
1227
1254
1261
1251
1241
1239
1231
1201
1159
1132
1127
1121
1086
1033
999
1003
1026
1038
1034
1032
1047
1071
1094
1113
1126
1125
1106
1080
1065
1062
1057
1039
1018
1006
998
984
977
996
1037
1059
1033
989
990
1059
1141
1165
1117
1052
1026
1047
1081
1104
1109
1100
1085
1083
1110
1154
1182
1172
1137
1109
1099
1090
1064
1030
1006
998
1000
1002
1004
1000
980
946
913
894
875
840
796
777
801
841
856
843
848
909
1004
1076
1091
1078
1090
1138
1188
1208
1205
1215
1244
1272
1271
1240
1210
1201
1201
1186
1145
1094
1065
1068
1084
1085
1063
1043
1045
1067
1080
1067
1044
1031
1017
952
806
624
494
456
466
461
446
483
603
751
859
955
1142
1466
1852
2198
2514
2907
3423
3946
4285
4352
4219
4006
3753
3410
2939
2388
1853
1423
1128
949
835
747
677
640
636
628
565
452
367
371
439
482
452
391
378
433
496
503
467
446
470
510
524
516
516
530
529
491
432
390
383
399
418
434
445
445
425
398
385
392
404
399
376
361
377
417
448
440
392
332
284
249
207
148
90
50
24
-15
-69
-107
-101
-61
-38
-57
-95
-107
-77
-30
-2
-8
-40
-80
-108
-108
-76
-30
5
19
35
80
161
251
323
369
398
431
471
516
562
606
643
670
690
723
784
862
929
964
969
968
981
1014
1058
1100
1136
1164
1193
1240
1312
1390
1447
1464
1446
1415
1384
1349
1312
1274
1236
1198
1166
1156
1174
1212
1249
1266
1258
1237
1221
1226
1247
1256
1227
1164
1109
1097
1118
1136
1125
1101
1093
1110
1138
1160
1170
1171
1163
1148
1127
1099
1060
1018
991
987
990
986
978
992
1034
1071
1061
1007
954
942
959
965
941
917
926
972
1026
1066
1091
1108
1107
1078
1029
986
959
936
901
859
836
847
882
916
934
942
945
936
907
860
814
787
777
765
741
712
696
703
729
761
798
848
908
962
988
986
976
978
991
996
988
979
985
1012
1053
1098
1141
1173
1188
1182
1161
1134
1110
1089
1068
1050
1038
1034
1033
1029
1021
1018
1030
1045
1044
1023
1008
1022
1052
1054
989
884
811
796
792
743
663
614
622
637
620
631
791
1130
1530
1860
2138
2504
3028
3585
3954
4030
3899
3708
3503
3216
2794
2286
1810
1443
1182
982
821
712
680
711
750
741
676
599
567
580
590
561
519
507
529
539
509
457
424
415
405
383
374
397
438
473
506
559
618
641
611
574
583
624
626
553
456
422
469
538
570
566
562
570
569
548
517
487
453
404
346
308
300
304
296
272
246
234
229
210
170
123
92
78
58
10
-57
-111
-126
-106
-74
-46
-21
5
21
24
28
63
135
219
281
307
319
351
425
524
611
655
658
651
675
738
813
867
884
881
890
929
983
1023
1028
1010
1002
1021
1051
1067
1070
1084
1124
1164
1165
1122
1070
1047
1052
1054
1039
1021
1031
1071
1118
1151
1178
1214
1253
1267
1235
1166
1093
1048
1039
1048
1050
1035
1013
1011
1039
1073
1076
1035
976
937
928
920
890
852
847
891
952
981
957
915
895
913
943
950
925
892
887
919
964
990
983
956
936
935
944
943
930
919
927
949
957
932
891
870
886
910
899
843
780
751
763
792
820
845
864
869
866
874
908
946
945
893
824
780
770
770
770
788
838
901
944
957
966
997
1045
1077
1073
1043
1012
997
997
1009
1028
1053
1078
1097
1104
1099
1086
1079
1090
1123
1162
1181
1169
1135
1105
1102
1123
1144
1133
1077
990
910
879
898
923
908
865
848
879
910
892
867
947
1185
1506
1794
2052
2403
2917
3480
3873
3984
3891
3732
3542
3250
2819
2316
1852
1479
1190
975
848
799
777
734
670
628
618
597
531
450
414
445
505
540
548
565
609
645
-877
-701
-432
-173
4
95
154
228
306
336
289
194
109
69
73
107
147
168
171
171
174
166
142
152
239
378
501
600
751
1011
1312
1534
1708
2018
2558
3136
3462
3547
3776
4482
5459
6033
5683
4547
3239
2232
1468
562
-686
-2042
-3042
-3378
-3085
-2436
-1728
-1158
-779
-552
-407
-296
-234
-270
-429
-673
-901
-1000
-911
-666
-366
-141
-74
-147
-268
-349
-375
-368
-328
-218
-29
166
262
222
106
-4
-80
-147
-220
-280
-319
-356
-421
-507
-577
-599
-584
-556
-532
-511
-500
-500
-471
-387
-284
-232
-258
-295
-281
-269
-390
-653
-883
-937
-937
-1110
-1325
-909
826
3759
6761
8480
8413
7164
5683
4313
2614
29
-3325
-6576
-8684
-9140
-8184
-6492
-4707
-3169
-1960
-1076
-512
-290
-403
-834
-1568
-2526
-3502
-4170
-4237
-3627
-2587
-1538
-766
-363
-214
-76
288
955
1694
2088
1915
1434
1101
976
616
-189
-662
527
3803
7764
10110
9672
7407
5253
4127
3214
1181
-2221
-5813
-8074
-8326
-6994
-5017
-3189
-1897
-1151
-746
-436
-116
53
-137
-717
-1449
-1931
-1909
-1421
-695
43
596
766
419
-325
-1041
-1308
-1086
-696
-329
324
1777
4022
6236
7357
7009
5766
4509
3559
2496
751
-1692
-4190
-5913
-6371
-5641
-4210
-2665
-1410
-556
-6
353
526
426
-1
-718
-1589
-2412
-2947
-3020
-2628
-1975
-1355
-962
-791
-661
-354
253
1124
2080
2911
3514
3923
4204
4356
4321
4101
3803
3525
3252
2888
2369
1729
1046
373
-256
-785
-1146
-1325
-1362
-1312
-1226
-1160
-1171
-1267
-1395
-1497
-1550
-1573
-1585
-1587
-1579
-1577
-1592
-1618
-1654
-1691
-1697
-1643
-1588
-1698
-2118
-2776
-3370
-3619
-3514
-3288
-3117
-2928
-2523
-1847
-1079
-454
-67
123
152
5
-288
-605
-814
-914
-1016
-1182
-1329
-1340
-1204
-1048
-1004
-1072
-1155
-1194
-1221
-1270
-1308
-1264
-1136
-1018
-1004
-1080
-1152
-1154
-1101
-1046
-1001
-933
-818
-656
-453
-194
127
475
780
988
1102
1159
1187
1176
1082
870
558
239
31
-21
30
84
98
121
206
336
425
424
363
298
245
162
8
-193
-371
-478
-541
-635
-801
-1003
-1165
-1255
-1323
-1428
-1569
-1693
-1772
-1831
-1896
-1926
-1836
-1599
-1283
-1013
-889
-947
-1165
-1470
-1777
-2046
-2323
-2657
-2996
-3162
-3024
-2651
-2278
-2090
-2060
-2036
-1951
-1849
-1786
-1756
-1736
-1738
-1757
-1722
-1588
-1431
-1365
-1340
-1145
-717
-375
-579
-1401
-2352
-2816
-2630
-2162
-1832
-1672
-1375
-688
349
1487
2470
3125
3360
3163
2645
1999
1404
949
609
315
41
-129
-43
362
905
1264
1247
961
673
548
538
549
624
868
1268
1642
1833
1924
2181
2724
3389
3899
4186
4465
4981
5734
6524
7207
7805
8340
8702
8783
8737
8943
9596
10400
10770
10386
9485
8573
7911
7308
6404
5080
3595
2379
1729
1698
2160
2898
3715
4479
5143
5703
6185
6578
6841
6910
6760
6430
5965
5333
4435
3244
1922
763
-56
-623
-1145
-1609
-1709
-1150
-42
1088
1738
1788
1443
912
252
-498
-1186
-1669
-1985
-2272
-2570
-2795
-2917
-3041
-3181
-3058
-2315
-990
346
1069
1059
706
393
72
-618
-1893
-3558
-5137
-6187
-6485
-6048
-5084
-3915
-2852
-2068
-1577
-1303
-1202
-1272
-1503
-1862
-2264
-2582
-2694
-2536
-2127
-1611
-1214
-1102
-1260
-1484
-1559
-1437
-1229
-1054
-930
-827
-793
-909
-1149
-1293
-1090
-477
375
1217
1887
2320
2470
2267
1667
718
-442
-1658
-2809
-3821
-4623
-5107
-5173
-4844
-4319
-3852
-3560
-3372
-3171
-2956
-2859
-2957
-3166
-3337
-3397
-3328
-3119
-2773
-2375
-2075
-1940
-1871
-1717
-1464
-1218
-1062
-946
-787
-578
-344
-10
584
1480
2452
3137
3319
3078
2660
2223
1737
1082
234
-648
-1290
-1467
-1152
-547
54
449
613
642
622
544
362
80
-248
-553
-787
-915
-911
-762
-508
-237
-65
-56
-184
-345
-418
-348
-178
-13
63
29
-84
-248
-446
-648
-772
-717
-464
-108
230
546
980
1661
2504
3212
3531
3481
3307
3207
3129
2888
2409
1824
1317
953
687
469
305
204
135
50
-66
-215
-406
-617
-782
-850
-882
-1010
-1278
-1505
-1381
-778
108
922
1430
1640
1666
1569
1338
962
441
-268
-1174
-2050
-2392
-1722
-74
1894
3338
3856
3684
3304
2908
2311
1275
-182
-1761
-3083
-3839
-3854
-3161
-2052
-986
-283
73
311
533
527
-9
-1100
-2377
-3323
-3645
-3396
-2822
-2111
-1299
-368
659
1667
2471
2886
2814
2351
1754
1268
956
694
338
-65
-319
-285
7
374
637
730
672
493
217
-95
-327
-371
-214
21
156
111
-25
-70
80
354
597
735
828
950
1086
1159
1137
1077
1055
1092
1159
1244
1357
1486
1592
1649
1674
1692
1702
1679
1621
1559
1528
1527
1535
1547
1577
1636
1715
1766
1724
1541
1254
997
906
988
1092
1047
821
536
319
162
-48
-382
-798
-1205
-1540
-1793
-1972
-2092
-2184
-2279
-2372
-2421
-2407
-2374
-2378
-2423
-2452
-2423
-2345
-2262
-2199
-2145
-2082
-2019
-1968
-1940
-1954
-2019
-2117
-2194
-2196
-2116
-2000
-1907
-1869
-1846
-1715
-1335
-667
126
738
950
787
446
64
-405
-1099
-2029
-2998
-3717
-3990
-3822
-3369
-2799
-2181
-1500
-727
56
730
1247
1670
2070
2415
2624
2701
2750
2840
2930
2949
2876
2654
2104
1001
-597
-2197
-3153
-3164
-2481
-1585
-696
384
1963
4021
6092
7552
8011
7513
6407
5074
3756
2551
1496
627
-38
-439
-510
-237
247
654
702
325
-283
-864
-1266
-1470
-1493
-1337
-1054
-800
-683
-582
-143
881
2257
3276
3216
1886
-229
-2364
-4009
-5114
-5864
-6305
-6190
-5174
-3131
-345
2558
4908
6281
6616
6102
5020
3634
2170
806
-353
-1246
-1814
-2003
-1830
-1465
-1177
-1193
-1583
-2248
-2994
-3610
-3953
-3985
-3768
-3401
-3012
-2787
-2961
-3649
-4650
-5505
-5854
-5791
-5768
-6101
-6597
-6730
-6160
-5072
-3965
-3151
-2522
-1771
-780
242
972
1265
1243
1136
1114
1199
1328
1442
1524
1575
1593
1565
1461
1270
1026
798
613
449
272
104
25
81
237
410
560
701
827
878
833
770
820
1022
1263
1394
1379
1319
1308
1320
1235
974
584
199
-45
-74
117
475
918
1365
1771
2138
2464
2691
2717
2472
2014
1517
1152
964
864
745
608
556
657
837
922
788
462
79
-241
-465
-628
-757
-842
-869
-849
-809
-764
-707
-638
-579
-542
-498
-382
-149
179
517
786
973
1122
1264
1398
1504
1567
1589
1586
1590
1649
1773
1909
1992
2029
2118
2345
2691
3068
3433
3832
4306
4783
5118
5256
5293
5348
5401
5334
5102
4804
4583
4471
4373
4190
3927
3664
3490
3464
3612
3879
4107
4128
3926
3669
3528
3471
3305
2930
2473
2166
2111
2231
2466
2932
3787
4943
6004
6537
6438
5996
5561
5173
4517
3309
1724
418
76
844
2214
3471
4261
4743
5237
5806
6186
6049
5298
4111
2791
1663
981
805
977
1222
1369
1453
1546
1592
1460
1145
795
470
39
-532
-832
-176
1647
3877
5247
5105
3977
2922
2398
1889
679
-1177
-2802
-3367
-2851
-1911
-1153
-682
-326
-137
-491
-1682
-3503
-5282
-6341
-6472
-5965
-5213
-4287
-2960
-1132
858
2383
2994
2702
1844
785
-189
-821
-973
-782
-557
-359
245
1782
4117
6262
7126
6482
5097
3886
3013
1902
25
-2437
-4712
-6066
-6285
-5649
-4605
-3507
-2543
-1781
-1223
-832
-609
-593
-806
-1217
-1710
-2106
-2234
-2019
-1550
-1070
-858
-1052
-1558
-2108
-2452
-2519
-2395
-2196
-1987
-1798
-1691
-1755
-1996
-2290
-2486
-2538
-2512
-2500
-2515
-2501
-2424
-2299
-2144
-1955
-1755
-1672
-1917
-2624
-3692
-4779
-5476
-5555
-5106
-4445
-3812
-3152
-2185
-774
790
1895
2064
1350
260
-679
-1294
-1740
-2210
-2706
-3066
-3145
-2929
-2517
-2070
-1763
-1716
-1917
-2216
-2422
-2447
-2307
-2034
-1621
-1114
-650
-359
-224
-93
148
461
745
1029
1452
2073
2756
3310
3673
3865
3777
3139
1823
159
-1170
-1643
-1303
-627
-11
591
1543
3034
4759
6047
6377
5775
4745
3810
3130
2558
1998
1596
1503
1575
1560
1622
2445
4527
7347
9476
9734
8281
6393
5147
4397
3115
642
-2547
-5277
-6666
-6645
-5691
-4318
-2851
-1526
-542
26
263
317
217
-121
-706
-1343
-1711
-1586
-1024
-303
269
518
431
67
-540
-1390
-2374
-3210
-3545
-3230
-2505
-1823
-1438
-1158
-532
760
2653
4776
6659
7868
8087
7269
5718
3905
2114
286
-1734
-3801
-5440
-6178
-5914
-4965
-3772
-2638
-1712
-1050
-647
-409
-220
-76
-23
-99
-273
-1683
-1580
-1634
-1739
-1694
-1437
-1141
-973
-829
-441
249
924
1195
1006
636
319
35
-266
-379
23
949
1984
2673
2951
3052
3048
2660
1578
-139
-2066
-3764
-5017
-5752
-5924
-5533
-4700
-3628
-2518
-1530
-793
-392
-251
-207
-225
-390
-721
-1040
-1153
-1124
-1162
-1193
-750
487
2085
3090
3022
2541
2842
4338
6084
6644
5484
3433
1801
1178
1126
853
20
-1100
-2045
-2570
-2696
-2554
-2271
-1947
-1672
-1470
-1253
-892
-356
233
653
753
566
273
73
55
191
378
514
521
338
-45
-546
-998
-1233
-1188
-920
-533
-102
342
782
1195
1549
1807
1944
1968
1944
1952
2013
2048
1957
1744
1524
1395
1325
1216
1024
825
731
743
772
778
852
1100
1483
1785
1762
1328
673
181
182
725
1600
2612
3813
5326
6893
7755
7188
5219
2645
232
-2006
-4552
-7441
-9806
-10531
-9303
-6870
-4297
-2113
-214
1564
3061
3921
3941
3251
2176
1057
178
-277
-291
-17
321
568
653
554
301
-10
-250
-327
-271
-213
-256
-384
-501
-547
-562
-625
-756
-886
-952
-975
-1040
-1195
-1404
-1606
-1811
-2107
-2547
-3014
-3242
-2988
-2231
-1199
-179
692
1482
2306
3114
3672
3777
3454
2918
2393
1966
1647
1492
1607
2040
2691
3356
3854
4106
4145
4099
4117
4251
4382
4300
3892
3259
2602
2005
1354
485
-628
-1826
-2879
-3607
-3924
-3838
-3465
-2995
-2602
-2367
-2257
-2188
-2125
-2090
-2103
-2172
-2273
-2352
-2326
-2127
-1745
-1275
-915
-845
-1070
-1394
-1576
-1553
-1458
-1413
-1351
-1135
-807
-607
-643
-641
-161
869
1944
2420
2155
1594
1214
990
498
-507
-1759
-2745
-3232
-3420
-3626
-3916
-4093
-3953
-3501
-2916
-2349
-1830
-1308
-733
-129
401
740
845
781
671
572
431
215
-8
-149
-189
-193
-172
-36
257
574
709
597
333
-15
-456
-840
-687
467
2437
4256
4893
4184
2946
2095
1741
1214
-74
-1934
-3562
-4282
-4039
-3236
-2288
-1394
-609
14
433
703
914
1068
1075
846
465
177
194
534
1031
1469
1710
1705
1484
1141
829
694
779
1006
1230
1336
1301
1194
1111
1128
1253
1407
1480
1411
1244
1078
959
818
551
181
-109
-72
422
1256
2130
2723
2868
2617
2158
1649
1097
404
-449
-1281
-1785
-1774
-1341
-782
-364
-154
-60
0
20
-56
-240
-444
-554
-503
-308
-37
247
515
743
897
940
846
662
477
374
358
389
440
529
678
813
779
500
151
114
695
1830
3082
3943
4175
3885
3339
2710
1974
1017
-175
-1426
-2427
-2911
-2793
-2209
-1438
-761
-322
-74
143
411
601
457
-193
-1228
-2269
-2940
-3086
-2798
-2271
-1658
-1036
-430
159
725
1213
1526
1587
1409
1083
683
244
-175
-439
-404
-61
447
1002
1658
2523
3524
4320
4549
4169
3502
2931
2555
2177
1578
777
-3
-557
-845
-947
-943
-858
-691
-478
-290
-211
-299
-561
-942
-1325
-1573
-1611
-1507
-1442
-1581
-1903
-2194
-2221
-1950
-1555
-1235
-1008
-714
-217
433
1031
1376
1410
1221
961
764
678
654
592
426
174
-78
-269
-405
-529
-666
-814
-963
-1101
-1183
-1158
-1026
-864
-767
-750
-755
-738
-734
-818
-1003
-1212
-1333
-1304
-1158
-985
-877
-869
-940
-1040
-1147
-1265
-1345
-1277
-965
-449
95
495
719
835
870
751
399
-153
-767
-1305
-1696
-1921
-1972
-1855
-1605
-1273
-910
-596
-446
-550
-874
-1254
-1511
-1575
-1486
-1287
-982
-576
-130
263
539
679
704
671
678
823
1102
1407
1648
1884
2269
2842
3400
3630
3382
2803
2175
1661
1209
692
100
-427
-721
-709
-448
-64
310
594
768
858
901
913
872
763
623
514
457
411
336
263
282
419
556
507
189
-277
-657
-787
-657
-359
19
450
922
1408
1837
2121
2182
1983
1556
989
391
-142
-546
-791
-884
-843
-689
-462
-230
-61
6
-26
-131
-292
-488
-671
-770
-753
-675
-614
-628
-759
-1058
-1530
-2031
-2304
-2175
-1740
-1283
-970
-664
-89
836
1846
2539
2722
2517
2189
1901
1644
1340
965
576
253
55
18
169
528
1052
1604
1984
2044
1813
1469
1188
985
710
205
-494
-1140
-1478
-1461
-1264
-1108
-1074
-1103
-1130
-1173
-1264
-1344
-1285
-1023
-634
-214
260
914
1791
2722
3410
3672
3555
3245
2873
2446
1926
1328
744
266
-74
-300
-458
-579
-660
-685
-654
-597
-564
-564
-551
-481
-390
-374
-491
-702
-923
-1127
-1362
-1654
-1918
-2023
-1931
-1710
-1405
-947
-253
606
1380
1838
1946
1829
1580
1177
579
-143
-829
-1360
-1723
-1936
-1965
-1771
-1399
-993
-694
-538
-474
-445
-447
-483
-538
-598
-673
-773
-871
-911
-874
-813
-801
-850
-919
-965
-969
-915
-789
-626
-516
-508
-511
-367
-59
213
205
-92
-432
-590
-601
-707
-1052
-1513
-1832
-1872
-1703
-1476
-1270
-1083
-906
-768
-686
-636
-574
-490
-421
-407
-434
-434
-339
-148
60
192
212
161
106
70
33
2
61
307
740
1208
1493
1471
1190
811
456
118
-303
-885
-1559
-2100
-2237
-1841
-1044
-174
476
840
1076
1344
1612
1681
1404
856
281
-105
-249
-230
-140
-13
135
268
338
335
295
256
224
181
122
67
46
71
121
157
151
105
39
-16
-19
80
302
596
842
942
911
869
911
989
964
751
422
120
-89
-253
-444
-648
-795
-846
-834
-799
-735
-602
-403
-211
-103
-73
-53
7
84
118
98
75
82
72
-48
-303
-596
-785
-819
-776
-760
-766
-680
-418
-27
344
587
711
784
831
810
706
595
616
871
1338
1851
2188
2198
1890
1411
897
362
-263
-965
-1574
-1866
-1754
-1316
-673
113
986
1796
2341
2536
2480
2335
2156
1872
1426
883
379
25
-149
-185
-175
-227
-393
-618
-769
-752
-595
-415
-307
-292
-339
-412
-492
-577
-661
-728
-750
-712
-626
-525
-430
-324
-190
-53
22
0
-76
-124
-115
-107
-168
-280
-349
-308
-195
-104
-83
-107
-134
-162
-206
-240
-212
-123
-60
-101
-191
-157
112
535
895
1046
1042
1022
1009
856
411
-297
-1054
-1652
-2049
-2341
-2605
-2798
-2814
-2615
-2285
-1957
-1716
-1560
-1437
-1300
-1135
-955
-787
-654
-552
-460
-356
-256
-197
-205
-269
-356
-431
-460
-426
-334
-217
-121
-64
-33
-7
13
10
-16
-28
0
51
96
137
200
284
323
256
123
40
55
72
-58
-346
-616
-677
-529
-355
-324
-411
-456
-341
-94
163
342
442
514
603
726
866
976
1001
928
799
675
584
499
403
361
491
854
1370
1834
2078
2108
2057
2018
1919
1591
963
179
-507
-947
-1198
-1412
-1679
-1959
-2154
-2201
-2093
-1862
-1561
-1265
-1022
-802
-528
-166
225
532
689
719
698
674
656
623
550
446
366
376
478
589
607
528
444
421
426
408
439
672
1132
1581
1694
1401
996
862
1096
1423
1479
1143
598
125
-144
-290
-486
-826
-1258
-1638
-1836
-1800
-1568
-1235
-926
-732
-639
-523
-259
139
513
741
891
1158
1629
2155
2498
2577
2513
2448
2359
2103
1619
1024
514
191
21
-70
-120
-137
-137
-155
-219
-304
-367
-376
-349
-337
-375
-439
-481
-490
-538
-706
-991
-1293
-1510
-1622
-1661
4417
3933
3352
2832
2489
2356
2387
2536
2795
3182
3668
4134
4447
4597
4754
5139
5775
6369
6506
5998
5073
4204
3713
3537
3371
3027
2622
2447
2673
3218
3830
4280
4477
4460
4329
4175
4046
3960
3911
3869
3821
3772
3737
3733
3750
3752
3701
3583
3415
3226
3065
3001
3078
3276
3477
3550
3461
3304
3199
3196
3253
3312
3354
3403
3459
3481
3427
3311
3192
3118
3084
3049
3008
3012
3111
3284
3455
3564
3622
3680
3733
3699
3518
3250
3031
2966
3039
3146
3183
3102
2917
2694
2521
2431
2345
2121
1689
1161
760
655
830
1131
1403
1586
1695
1785
1912
2108
2367
2643
2885
3094
3323
3627
4019
4471
4936
5371
5742
6011
6137
6121
5996
5791
5493
5053
4449
3753
3114
2655
2413
2340
2376
2483
2629
2774
2892
3004
3135
3270
3358
3378
3370
3392
3453
3530
3607
3702
3801
3827
3703
3450
3196
3073
3089
3147
3170
3180
3244
3366
3466
3476
3410
3357
3367
3406
3411
3380
3377
3442
3524
3530
3436
3342
3366
3521
3681
3712
3608
3493
3478
3551
3597
3535
3394
3278
3243
3258
3254
3212
3190
3253
3398
3536
3567
3479
3384
3428
3672
4029
4343
4534
4660
4822
4988
5002
4762
4399
4196
4318
4618
4785
4651
4345
4114
4047
3982
3701
3165
2530
2014
1756
1772
1980
2249
2490
2705
2943
3206
3394
3415
3316
3244
3271
3295
3187
3025
3089
3576
4362
5082
5463
5548
5585
5753
6004
6162
6101
5821
5405
4963
4592
4353
4235
4158
4033
3854
3688
3582
3507
3386
3185
2955
2778
2697
2695
2736
2807
2910
3030
3128
3162
3132
3086
3081
3129
3189
3217
3222
3247
3290
3289
3194
3033
2868
2715
2569
2519
2751
3362
4161
4756
4884
4632
4295
4040
3756
3250
2498
1690
1065
749
751
1010
1417
1825
2104
2237
2305
2384
2448
2408
2233
1996
1830
1812
1925
2094
2266
2419
2543
2610
2595
2514
2427
2399
2448
2535
2615
2680
2758
2880
3043
3199
3291
3302
3268
3250
3267
3273
3190
2999
2784
2677
2757
2977
3206
3331
3339
3303
3300
3345
3392
3390
3332
3257
3216
3233
3290
3354
3401
3426
3436
3431
3422
3416
3421
3440
3452
3430
3359
3246
3122
3019
2957
2930
2929
2976
3116
3386
3763
4148
4415
4500
4427
4270
4080
3854
3567
3231
2921
2727
2687
2757
2856
2940
3023
3137
3260
3331
3315
3249
3206
3217
3244
3245
3231
3235
3255
3256
3223
3188
3194
3225
3239
3243
3318
3513
3770
3972
4061
4081
4101
4119
4081
3965
3813
3663
3517
3383
3347
3533
3966
4496
4884
4983
4831
4577
4321
4037
3631
3074
2455
1944
1690
1734
1993
2335
2657
2912
3086
3172
3190
3205
3298
3484
3700
3893
4117
4500
5086
5752
6276
6517
6496
6312
6033
5671
5247
4815
4425
4094
3827
3639
3537
3480
3417
3347
3314
3338
3360
3290
3124
2960
2889
2906
2939
2946
2950
2981
3021
3017
2954
2871
2807
2751
2672
2582
2530
2547
2608
2654
2661
2646
2633
2625
2610
2595
2593
2603
2611
2606
2599
2609
2646
2701
2757
2798
2814
2805
2786
2773
2772
2780
2802
2845
2891
2883
2783
2620
2480
2411
2366
2256
2066
1891
1833
1891
1964
1967
1923
1918
1988
2085
2145
2164
2196
2270
2361
2437
2506
2596
2700
2780
2829
2905
3067
3304
3530
3668
3721
3737
3743
3719
3655
3578
3520
3464
3364
3220
3107
3100
3180
3234
3165
2994
2833
2768
2787
2819
2818
2806
2829
2898
2976
3023
3037
3047
3068
3083
3064
3012
2972
2998
3094
3207
3274
3276
3251
3245
3265
3275
3256
3224
3207
3209
3212
3223
3279
3401
3547
3635
3618
3532
3462
3456
3485
3484
3419
3321
3257
3258
3295
3303
3239
3108
2945
2787
2655
2567
2533
2554
2614
2690
2787
2919
3083
3248
3362
3401
3388
3372
3386
3423
3451
3443
3413
3411
3468
3565
3657
3724
3805
3929
4060
4123
4095
4040
4022
4012
3911
3682
3414
3223
3128
3060
2969
2867
2765
2624
2423
2229
2139
2165
2209
2228
2329
2661
3217
3829
4365
4866
5434
6022
6427
6504
6317
6045
5780
5456
4995
4441
3933
3559
3298
3093
2936
2863
2873
2906
2904
2862
2819
2805
2814
2832
2864
2918
2972
2983
2933
2850
2714
2722
2660
2568
2466
2391
2373
2410
2484
2560
2603
2596
2560
2540
2562
2608
2625
2588
2528
2497
2520
2580
2642
2685
2710
2709
2670
2584
2476
2397
2375
2397
2421
2412
2374
2341
2346
2388
2425
2397
2277
2099
1939
1855
1836
1831
1811
1807
1876
2029
2218
2372
2460
2491
2491
2461
2397
2309
2223
2172
2160
2174
2203
2252
2342
2475
2637
2807
2969
3114
3227
3287
3284
3231
3151
3064
2977
2896
2835
2811
2832
2888
2959
3024
3070
3102
3139
3202
3280
3331
3319
3252
3193
3192
3240
3276
3255
3200
3169
3181
3198
3185
3169
3222
3368
3549
3669
3686
3635
3579
3535
3473
3362
3213
3066
2959
2916
2943
3025
3118
3170
3094
3144
3178
3285
3413
3500
3525
3514
3492
3463
3426
3391
3371
3357
3326
3280
3243
3240
3280
3356
3455
3533
3523
3386
3166
2965
2855
2812
2762
2676
2608
2632
2758
2930
3086
3200
3274
3309
3305
3280
3272
3303
3356
3384
3361
3314
3297
3343
3421
3469
3462
3443
3457
3498
3511
3460
3365
3302
3343
3486
3650
3733
3703
3621
3568
3540
3458
3296
3152
3167
3374
3677
4003
4396
4932
5543
6027
6227
6173
5998
5768
5439
4978
4463
4018
3695
3452
3251
3111
3062
3077
3076
3012
2921
2868
2865
2882
2886
2902
2992
3181
3409
3571
3601
3526
3412
3286
3125
2907
2653
2413
2225
2105
2063
2102
2196
2306
2397
2464
2520
2562
2578
2563
2522
2464
2398
2349
2350
2413
2509
2582
2601
2581
2559
2553
2546
2521
2483
2460
2467
2493
2507
2493
2459
2425
2400
2381
2363
2355
2364
2380
2373
2334
2286
2267
2283
2294
2260
2190
2145
2172
2246
2307
2335
2393
2569
2874
3219
3476
3582
3573
3521
3464
3369
3181
2891
2574
2343
2275
2348
2478
2594
2695
2815
2964
3099
3171
3181
3169
3160
3149
3124
3104
3121
3180
3247
3287
3299
3302
3294
3272
3255
3300
3450
3671
3869
3961
3941
3866
3778
3667
3493
3253
2999
2799
2683
2632
2624
2655
2733
2846
2953
3012
3021
3016
3030
3058
3066
3038
3002
3004
3060
3136
3184
3188
3176
3175
3177
3155
3103
3046
3008
2990
2985
3005
3066
3152
3217
3253
3330
3548
3920
4328
4607
4660
4513
4254
3955
3646
3325
2980
2617
2298
2142
2248
2588
2998
3294
3416
3439
3461
3487
3444
3289
3079
2908
2826
2810
2818
2844
2911
3023
3121
3127
3021
2877
2813
2883
3031
3161
3252
3391
3678
4108
4563
4943
5278
5669
6142
6574
6793
6741
6503
6201
5866
5445
4909
4321
3789
3380
3088
2878
2741
2683
2690
2723
2744
2741
2729
2742
2793
2854
2877
2833
2750
2692
2691
2713
2700
2651
2643
2750
2954
3144
3221
3184
3106
3037
2951
2796
2558
2284
2043
1880
1819
1858
1973
2102
2188
2230
2276
2373
2501
2586
2583
2518
2457
2440
2454
2472
2482
2491
2508
2532
2566
2609
2648
2656
2614
2536
2445
2359
2267
2153
2022
1901
1817
1784
1804
1867
1953
2046
2127
2187
2235
2286
2350
2414
2454
2464
2463
2481
2527
2591
2674
2794
2968
3171
3360
3513
3633
3721
3744
3665
3487
3266
3058
2887
2757
2688
2711
2829
2986
3115
3181
3196
3181
3137
3055
2936
2811
2719
2694
2742
2840
2948
3037
3104
3158
3203
3230
3227
3197
3155
3128
3132
3164
3206
3229
3224
3209
3213
3233
3245
3245
3272
3382
3586
3814
3963
3975
3867
3697
3504
3298
3080
2862
2663
2498
2384
2338
2371
2467
2590
2702
2780
2824
2852
2881
2923
2970
3010
3039
3064
3096
3142
3195
3244
3281
3303
3307
3298
3290
3299
3331
3374
3407
3414
3401
3391
3393
3391
3371
3354
3385
3475
3573
3608
3559
3476
3414
3374
3305
3184
3067
3041
3124
3244
3328
3373
3425
3487
3503
3432
3327
3312
3450
3686
3942
4238
4679
5304
5967
6424
6535
6370
6095
5795
5415
4892
4279
3715
3303
3028
2824
2683
2646
2705
2762
2717
2580
2451
2412
2446
2473
2457
2427
2420
2427
2428
2436
2477
2534
2559
2540
2522
2563
2653
2722
2709
2634
2584
2612
2685
2710
2641
2556
2596
2802
3032
3078
2885
2601
2396
2262
2038
1643
1213
974
998
1162
1323
1486
1755
2151
2552
2814
2897
2870
2798
2685
2526
2357
2237
2179
2148
2119
2118
2171
2255
2304
2274
2190
2106
2044
1990
1950
1964
2059
2197
2306
2348
2348
2348
2363
2383
2408
2441
2462
2434
2359
2313
2385
2575
2780
2893
2917
2951
3072
3250
3378
3392
3327
3264
3248
3263
3274
3262
3229
3185
3141
3116
3124
3143
3123
3049
2971
2948
2984
3010
2964
2872
2818
2866
2991
3114
3178
3188
3196
3246
3340
3422
3429
3333
3185
3074
3040
3048
3033
2985
2972
3073
3271
3448
3498
3443
3388
3395
3389
3254
3003
2777
2666
2561
2279
1825
1467
1483
1839
2212
2321
2213
2174
2404
2825
3200
3371
3365
3315
3335
3477
3718
3970
4126
4121
4004
3888
3862
3905
3932
3886
3777
3656
3559
3490
3449
3452
3504
3560
3552
3445
3278
3134
3078
3118
3218
3311
3333
3253
3111
3009
3021
3107
3149
3066
2910
2802
2794
2823
2809
2796
2921
3254
3712
4164
4599
5132
5823
6532
6993
7047
6781
6415
6077
5718
5217
4559
3883
3360
3050
2891
2790
2715
2686
2716
2779
2839
2869
2853
2788
2714
2740
2978
3421
3902
4204
4235
4076
3870
3658
3353
2857
2190
1512
1022
833
918
1156
1426
1680
1935
2205
2451
2611
2651
2590
2474
2332
2175
2037
1978
2027
2152
2273
2313
2253
2138
2039
2003
2035
2113
2209
2300
2340
2265
2065
1867
1909
2336
3006
3536
3631
3354
3036
2902
2831
2524
1878
1145
693
652
856
1079
1256
1451
1682
1863
1891
1789
1678
1663
1747
1856
1929
1976
2067
2252
2499
2693
2722
2519
2104
1579
1100
841
905
1245
1701
2125
2490
2842
3185
3484
3781
4234
4940
5729
6223
6160
5659
5079
4634
4196
3504
2526
1536
871
673
852
1230
1649
2006
2260
2444
2631
2845
3007
3020
2864
2616
2396
2292
2328
2474
2640
2727
2693
2592
2499
2416
2297
2157
2110
2257
2542
2790
2875
2838
2817
2893
3032
3166
3280
3386
3474
3497
3440
3344
3280
3268
3261
3198
3074
2951
2877
2819
2707
2536
2396
2390
2517
2685
2824
2962
3147
3334
3397
3252
2959
2670
2492
2413
2342
2230
2127
2180
2545
3256
4158
4969
5471
5632
5581
5426
5140
4616
3827
2898
2039
1423
1127
1126
1326
1602
1859
2082
2293
2494
2636
2692
2705
2775
2969
3290
3728
4309
5051
5862
6536
6874
6824
6493
6034
5531
4998
4437
3880
3385
2998
2725
2548
2439
2389
2406
2485
2587
2659
2699
2801
3066
3473
3849
3993
3844
3518
3189
2915
2614
2184
1641
1141
861
862
1052
1279
1450
1567
1662
1730
1738
1687
1626
1612
1651
1709
1767
1843
1957
2102
2251
2375
2436
2388
2233
2055
1950
1922
1903
1892
2030
2452
3062
3536
3628
3427
3248
3262
3289
3004
2294
1384
626
210
82
80
93
107
169
324
568
832
1023
1096
1083
1057
1069
1134
1253
1424
1628
1811
1922
1956
1958
1966
1996
2047
2117
2210
2319
2425
2499
2539
2565
2602
2661
2725
2762
2753
2714
2675
2651
2632
2620
2655
2788
3012
3227
3308
3207
3001
2819
2714
2622
2441
2166
1914
1825
1939
2166
2378
2521
2627
2740
2851
2916
2902
2831
2759
2714
2692
2682
2689
2741
2854
2985
3068
3074
3059
3109
3237
3356
3355
3222
3049
2925
2835
2697
2473
2225
2058
2021
2090
2218
2381
2557
2703
2770
2754
2712
2701
2722
2724
2674
2597
2556
2592
2683
2771
2825
2859
2899
2949
2982
2976
2946
2933
2975
3084
3259
3493
3763
4025
4229
4346
4361
4257
4004
3604
3111
2598
2120
1709
1416
1315
1429
1660
1843
1886
1841
1820
1882
1996
2095
2156
2212
2328
2560
2905
3277
3548
3665
3709
3827
4073
4373
4658
4977
5428
5994
6482
6703
6643
6438
6190
5853
5331
4641
3940
3386
3016
2769
2588
2472
2433
2424
2371
2257
2145
2103
2128
2147
2107
2045
2035
2095
2158
2160
2123
2129
2221
2347
2415
2406
2385
2419
2497
2548
2523
2438
2345
2274
2240
2256
2313
2359
2341
2281
2304
2529
2916
3269
3405
3313
3120
2923
2692
2339
1866
1384
1012
792
703
725
851
1045
1236
1369
1446
1508
1564
1582
1536
1446
1368
1341
1362
1416
1496
1594
1685
1733
1724
1685
1663
1675
1702
1720
1730
1748
1776
1798
1808
1827
1892
2018
2178
2335
2471
2592
2692
2729
2655
2470
2245
2077
2004
1990
1986
1998
2078
2260
2509
2753
2944
3085
3182
3218
3175
3078
2988
2945
2927
2884
2807
2737
2717
2731
2701
2569
2366
2188
2110
2131
2208
2317
2461
2613
2694
2624
2422
2202
2083
2096
2195
2334
2524
2796
3146
3516
3834
4037
4091
3996
3798
3562
3341
3164
3032
2955
2950
3008
3098
3174
3206
3197
3158
3097
3023
2955
2916
2918
2952
2998
3028
3014
2930
2779
2619
2548
2653
2945
3341
3709
3952
4038
3991
3846
3630
3352
3020
2660
2332
2110
2043
2133
2327
2553
2748
2886
2968
3006
3009
2982
2932
2870
2812
2776
2777
2829
2930
3050
3141
3145
3045
2895
2778
2733
2732
2728
2718
2731
2771
2798
2805
2858
3053
3399
3813
4231
4696
5286
5953
6499
6731
6634
6346
5996
5582
5037
4352
3624
2993
2549
2304
2211
2206
2242
2308
2401
2500
2553
2522
2437
2376
2379
2421
2451
2466
2504
2592
2694
2748
2721
2634
2535
2452
2391
2344
2295
2235
2162
2101
2087
2123
2167
2166
2114
2059
2053
2090
2120
2105
2057
2017
2009
2027
2060
2115
2187
2244
2244
2180
2106
2083
2115
2139
2093
1976
1851
1791
1826
1962
2195
2498
2787
2948
2913
2719
2464
2212
1935
1571
1118
675
384
329
489
768
1060
1309
1511
1689
1850
1978
2041
2036
1990
1940
1922
1955
2044
2176
2310
2396
2411
2381
2362
2398
2476
2551
2588
2592
2600
2639
2704
2755
2756
2713
2673
2685
2747
2805
2802
2743
2683
2674
2712
2746
2745
2721
2708
2719
2735
2734
2722
2714
2713
2710
2700
2684
2675
2677
2686
2688
2671
2639
2614
2620
2655
2689
2702
2721
2794
2927
3059
3120
3103
3064
3045
3024
2953
2835
2723
2659
2635
2613
2581
2552
2525
2485
2427
2382
2368
2364
2331
2274
2248
2291
2377
2444
2462
2456
2471
2519
2574
2606
2615
2624
2665
2737
2810
2846
2849
2860
2911
2977
2995
2943
2876
2876
2956
3044
3059
3002
2944
2949
2998
3026
3005
2986
3031
3131
3202
3176
3067
2951
2876
2808
2682
2499
2339
2267
2270
2297
2337
2423
2555
2664
2698
2710
2822
3078
3386
3628
3830
4143
4650
5234
5665
5809
5721
5537
5316
5015
4583
4053
3525
3092
2793
2612
2516
2479
2479
2495
2499
2475
2424
2371
2340
2333
2321
2288
2253
2244
2259
2268
2245
2196
2148
2122
2121
2138
2161
2180
2187
2187
2202
2231
2247
2212
2126
2039
2012
2055
2127
2174
2177
2155
2131
2123
2146
2209
2297
2364
2369
2312
2232
2165
2105
2022
1904
1767
1636
1528
1452
1425
1448
1491
1513
1501
1479
1481
1505
1526
1528
1519
1512
1513
1532
1583
1667
1752
1796
1793
1781
1800
1840
1874
1919
2038
2265
2533
2728
2792
2774
2758
2768
2744
2625
2420
2209
2074
2042
2086
2163
2244
2320
2383
2423
2442
2455
2481
2519
2546
2538
2504
2480
2491
2530
2570
2592
2587
2550
2481
2404
2370
2411
2511
2609
2656
2657
2656
2681
2711
2711
2682
2656
2664
2699
2730
2738
2727
2714
2695
2660
2611
2571
2554
2548
2531
2505
2501
2536
2594
2636
2639
2617
2599
2595
2597
2594
2582
2560
2532
2514
2519
2548
2572
2556
2505
2463
2463
2486
2489
2460
2444
2484
2569
2651
2713
2788
2907
3038
3119
3123
3089
3062
3037
2975
2875
2798
2808
2909
3040
3149
3226
3285
3312
3273
3147
2965
2778
2611
2456
2319
2234
2229
2280
2326
2324
2284
2258
2276
2304
2293
2234
2185
2211
2308
2404
2439
2454
2559
2814
3156
3479
3764
4113
4613
5195
5663
5861
5791
5567
5271
4897
4411
3840
3276
2816
2502
2323
2237
2203
2195
2201
2212
2216
2195
2143
2079
2028
2003
2001
2012
2027
2038
2046
2057
2068
2072
2064
2056
2063
2089
2114
2120
2107
2089
2081
2087
2105
2127
2141
2131
2102
2074
2066
2059
2016
1927
1833
1783
1779
1780
1761
1740
1748
1769
1745
1644
1500
1379
1311
1269
1232
1219
1267
1376
1500
1598
1669
1733
1787
1796
1735
1629
1532
1481
1472
1469
1453
1445
1480
1567
1676
1751
1763
1735
1714
1733
1784
1838
1877
1905
1933
1964
1999
2042
2098
2153
2187
2180
2142
2102
2089
2115
2167
2219
2258
2293
2356
2467
2603
2705
2724
2669
2596
2556
2549
2541
2511
2472
2453
2469
2509
2550
2566
2547
2503
2461
2443
2438
2424
2398
2390
2431
2514
2592
2622
2607
2587
2588
2601
2600
2571
2539
2543
2607
2711
2798
2814
2750
2652
2578
2537
2495
2413
2303
2219
2199
2224
2244
2237
2230
2252
2295
2320
2302
2260
2228
2227
2245
2255
2242
2216
2207
2248
2340
2446
2517
2535
2541
2580
2652
2712
2710
2653
2588
2550
2543
2543
2543
2555
2590
2640
2681
2691
2666
2606
2518
2413
2320
2269
2268
2291
2306
2310
2328
2380
2446
2463
2385
2245
2133
2107
2140
2162
2151
2157
2221
2314
2380
2436
2578
2861
3219
3539
3813
4151
4628
5146
5499
5570
5428
5212
4976
4661
4210
3662
3126
2692
2391
2207
2108
2063
2046
2046
2064
2095
2121
2128
2131
2145
2159
2143
2088
2033
2023
2056
2080
2053
1989
1954
1986
2053
2093
2084
2052
2034
2030
2023
2014
2028
2073
2120
2137
2137
2154
2187
2175
2059
1866
1696
1625
1631
1631
1575
1493
1445
1449
1473
1480
1462
1426
1376
1319
1278
1267
1271
1256
1205
1150
1137
1175
1217
1213
1158
1098
1080
1114
1162
1189
1189
1193
1230
1294
1363
1413
1453
1506
1578
1639
1665
1659
1663
1718
1827
1968
2125
2289
2446
2577
2661
2685
2644
2538
2381
2215
2085
2001
1946
1921
1958
2078
2243
2368
2404
2385
2381
2419
2460
2454
2404
2359
2354
2380
2406
2416
2423
2430
2430
2411
2376
2339
2321
2329
2376
2482
2639
2790
2860
2812
2686
2569
2503
2446
2335
2163
2005
1941
1989
2096
2198
2273
2336
2400
2455
2475
2456
2420
2388
2354
2296
2224
2204
2318
2576
2876
3081
3130
3073
2999
2939
2840
2647
2369
2072
1829
1671
1608
1637
1739
1873
1981
2041
2085
2162
2279
2380
2399
2329
2236
2212
2279
2383
2456
2477
2484
2493
2486
2430
2341
2283
2298
2361
2403
2387
2347
2340
2377
2421
2441
2441
2450
2479
2499
2466
2373
2267
2182
2111
2015
1893
1800
1781
1824
1875
1942
2105
2431
2881
3352
3795
4268
4815
5359
5725
5800
5622
5320
4983
4628
4248
3856
3489
3166
2887
2656
2479
2340
2196
2003
1758
1512
1326
1237
1243
1311
1403
1490
1558
1596
1602
1595
1592
1590
1565
1512
1470
1488
1575
1682
1759
1798
1816
1801
1724
1594
1484
1471
1554
1644
1659
1615
1582
1601
1635
1625
1563
1494
1461
1452
1433
1386
1329
1287
1270
1270
1273
1267
1247
1212
1175
1149
1136
1125
1106
1082
1061
1051
1054
1079
1128
1181
1207
1192
1172
1200
1284
1368
1392
1360
1346
1400
1494
1547
1522
1471
1475
1549
1635
1681
1703
1754
1855
1965
2035
2061
2078
2116
2170
2211
2217
2193
2168
2170
2203
2236
2236
2205
2188
2220
2287
2337
2334
2296
2270
2272
2277
2250
2190
2123
2077
2058
2062
2094
2157
2243
2323
2371
2332
2409
2439
2468
2465
2417
2344
2283
2260
2263
2263
2241
2203
2174
2179
2218
2255
2249
2184
2110
2098
2179
2313
2425
2480
2494
2511
2540
2541
2478
2344
2172
1997
1843
1723
1651
1641
1680
1737
1783
1818
1861
1915
1962
1983
1984
1987
2003
2021
2023
2010
2000
2004
2021
2038
2050
2063
2089
2135
2206
2300
2402
2486
2525
2516
2482
2447
2415
2375
2332
2307
2320
2359
2387
2382
2358
2340
2330
2301
2244
2179
2132
2100
2050
1978
1922
1922
1960
1981
1956
1913
1903
1932
1967
2000
2092
2309
2649
3047
3463
3925
4477
1940
1859
1836
1796
1593
1263
1127
1410
1860
1979
1740
1849
3038
5073
6759
7042
6051
4858
4261
3979
3084
1100
-1455
-3520
-4341
-3899
-2712
-1384
-307
424
910
1284
1610
1815
1776
1478
1019
563
264
236
542
1100
1631
1794
1544
1392
2042
3728
5854
7428
7879
7368
6392
5206
3702
1720
-681
-3163
-5140
-5813
-4540
-1442
2326
5199
6303
5977
5199
4564
3827
2366
-4
-2693
-4701
-5302
-4521
-3010
-1469
-165
969
1787
1708
258
-2183
-4344
-5054
-4250
-2896
-1938
-1380
-457
1397
3865
5945
6766
6204
4861
3514
2616
2176
1963
1806
1673
1582
1545
1595
1842
2300
2705
2657
2093
1596
1998
3537
5441
6518
6198
4991
3860
3210
2571
1253
-810
-2902
-4172
-4322
-3704
-2840
-1954
-945
297
1672
2966
4049
4947
5680
6121
6077
5510
4623
3721
2994
2441
1962
1484
997
548
235
151
319
645
952
1087
975
602
-9
-731
-1312
-1499
-1230
-720
-287
-98
-45
90
347
499
281
-268
-764
-837
-520
-230
-288
-513
-371
444
1634
2539
2724
2308
1728
1288
974
608
111
-421
-809
-922
-743
-354
88
432
595
580
456
317
241
267
367
448
421
276
83
-57
-81
13
178
354
495
589
671
787
947
1087
1110
983
788
677
727
868
970
991
1028
1183
1433
1657
1773
1872
2116
2539
2990
3266
3289
3160
3033
2972
2913
2753
2484
2210
2015
1847
1540
1026
478
201
356
804
1284
1714
2240
3009
3934
4746
5241
5417
5354
5077
4596
4020
3535
3241
3043
2811
2552
2420
2518
2732
2841
2739
2484
2172
1831
1468
1185
1103
1201
1308
1278
1145
1018
840
374
-532
-1729
-2855
-3635
-4030
-4144
-4035
-3662
-2963
-1928
-630
743
1887
2504
2508
2101
1597
1166
774
326
-152
-501
-597
-448
-174
74
172
70
-191
-470
-597
-483
-187
126
304
322
271
220
119
-145
-596
-1080
-1357
-1311
-1005
-580
-150
226
519
734
901
1040
1108
1024
797
563
474
547
683
821
994
1243
1494
1626
1627
1630
1765
2019
2253
2406
2613
3071
3780
4443
4683
4392
3842
3414
3199
2913
2308
1580
1315
1940
3253
4578
5314
5361
5001
4489
3824
2851
1516
-17
-1428
-2408
-2788
-2583
-1961
-1158
-387
212
589
781
853
829
681
399
77
-104
-40
201
485
735
934
1056
1061
972
873
830
837
894
1000
1106
1069
801
493
579
1374
2733
4157
5218
5864
6305
6657
6747
6218
4819
2656
209
-1913
-3332
-4101
-4532
-4820
-4852
-4418
-3552
-2565
-1793
-1340
-1113
-1044
-1165
-1467
-1781
-1874
-1662
-1304
-1021
-917
-914
-872
-737
-575
-470
-436
-419
-343
-162
119
435
671
745
698
660
718
812
804
654
477
431
545
693
739
672
594
595
668
745
786
802
818
833
846
880
932
945
837
622
447
462
633
757
694
550
580
901
1339
1615
1641
1569
1580
1691
1796
1832
1839
1873
1911
1900
1822
1721
1638
1582
1529
1456
1389
1378
1459
1578
1604
1456
1243
1170
1241
1099
281
-1268
-2958
-3952
-3858
-3031
-2173
-1649
-1192
-251
1398
3360
4909
5543
5302
4650
4057
3689
3426
3110
2734
2423
2286
2335
2502
2702
2847
2840
2628
2245
1807
1454
1283
1328
1529
1744
1841
1825
1843
1999
2134
1880
987
-382
-1730
-2612
-2917
-2768
-2256
-1321
102
1914
3866
5682
7117
7939
7973
7236
6012
4706
3608
2796
2204
1795
1605
1662
1904
2194
2406
2478
2377
2095
1675
1236
947
928
1167
1543
1899
2126
2188
2111
1971
1871
1884
1999
2121
2126
1946
1592
1151
727
404
192
37
-99
-179
-132
63
342
590
731
753
688
591
531
573
698
793
754
628
596
784
1094
1268
1153
836
542
399
341
240
56
-126
-209
-159
-8
185
306
181
-353
-1283
-2350
-3169
-3466
-3244
-2720
-2101
-1409
-534
571
1762
2764
3340
3402
3025
2378
1675
1115
791
645
538
400
295
343
567
846
1010
989
853
708
619
586
601
684
845
1013
1039
822
456
216
337
794
1304
1585
1582
1457
1367
1305
1154
866
531
296
246
370
604
883
1143
1336
1447
1495
1500
1456
1347
1186
1028
923
883
885
915
980
1086
1209
1300
1317
1267
1214
1202
1182
1012
568
-97
-741
-1098
-1086
-827
-491
-116
391
1096
1905
2608
3017
3066
2818
2421
2046
1817
1751
1760
1733
1635
1570
1663
1888
2062
2023
1802
1592
1544
1605
1621
1571
1597
1766
1807
1228
-185
-2002
-3364
-3655
-2988
-2049
-1456
-1263
-1038
-343
839
2100
2951
3174
2946
2681
2743
3208
3830
4224
4135
3649
3075
2678
2521
2476
2412
2379
2528
2935
3526
4129
4556
4647
4291
3467
2307
1055
-30
-797
-1202
-1263
-1035
-626
-231
-58
-188
-471
-620
-414
145
871
1594
2283
2974
3614
4052
4241
4344
4583
4957
5148
4830
4074
3294
2849
2674
2389
1743
883
183
-144
-176
-111
-2
211
465
456
-152
-1356
-2728
-3691
-3953
-3644
-3071
-2362
-1399
-62
1462
2678
3093
2592
1512
384
-425
-851
-994
-899
-510
182
990
1619
1885
1799
1498
1085
590
51
-429
-721
-733
-466
-19
444
738
732
429
-30
-459
-746
-872
-862
-732
-489
-162
191
485
623
549
279
-73
-331
-372
-213
7
166
277
493
938
1546
2087
2351
2322
2178
2108
2154
2206
2145
1956
1726
1553
1441
1322
1136
878
632
494
483
546
647
812
1069
1368
1586
1655
1603
1441
1012
102
-1233
-2511
-3107
-2780
-1865
-920
-194
527
1555
2867
4065
4721
4703
4196
3487
2785
2210
1824
1641
1630
1732
1912
2185
2534
2869
3056
2992
2671
2185
1704
1438
1600
2267
3242
4089
4393
4078
3435
2817
2294
1645
682
-461
-1399
-1830
-1757
-1416
-1041
-717
-418
-91
280
646
896
951
847
725
717
831
988
1148
1350
1602
1809
1853
1724
1522
1355
1288
1429
1949
2887
3966
4719
4870
4576
4214
3942
3555
2771
1597
370
-540
-1005
-1136
-1074
-872
-551
-177
155
393
539
610
604
542
531
685
1003
1373
1723
2133
2708
3349
3782
3865
3766
3736
3756
3589
3246
3212
3995
5420
6636
6907
6311
5509
4913
4266
3078
1274
-708
-2357
-3405
-3756
-3398
-2549
-1748
-1554
-2014
-2546
-2479
-1736
-861
-423
-428
-343
338
1598
2938
3820
4030
3705
3108
2452
1910
1654
1764
2097
2373
2413
2309
2298
2437
2468
2067
1227
363
-3
334
1107
1798
2034
1778
1254
683
115
-551
-1362
-2165
-2704
-2829
-2636
-2345
-2091
-1851
-1577
-1337
-1229
-1244
-1259
-1258
-1451
-2092
-3147
-4210
-4810
-4793
-4410
-4000
-3639
-3107
-2193
-998
95
758
1011
1138
1327
1437
1178
492
-306
-835
-1026
-1145
-1445
-1879
-2188
-2208
-2017
-1786
-1591
-1405
-1190
-958
-711
-431
-158
-17
-101
-332
-491
-437
-239
-56
76
267
558
748
538
-150
-1040
-1741
-2066
-2100
-1978
-1693
-1165
-433
322
946
1448
1904
2285
2438
2247
1790
1288
930
761
719
744
806
892
993
1104
1216
1296
1276
1139
942
791
747
787
892
1115
1527
2090
2620
2904
2880
2668
2424
2178
1820
1246
525
-59
-185
265
1074
1819
2181
2169
2025
1920
1771
1361
618
-252
-927
-1211
-1126
-818
-418
8
389
662
776
729
577
392
235
140
116
160
268
414
542
592
549
453
359
289
245
284
515
992
1596
2070
2214
2035
1705
1370
1038
654
244
-68
-167
-75
85
211
278
315
329
286
131
-159
-527
-854
-1026
-1018
-907
-768
-586
-291
127
582
990
1384
1865
2431
2947
3280
3446
3574
3719
3767
3563
3084
2467
1886
1431
1116
949
925
1006
1119
1191
1214
1211
1177
1088
953
809
688
591
516
470
462
470
459
427
406
410
399
340
293
359
536
673
611
367
138
116
294
517
668
783
984
1331
1732
2029
2107
1977
1752
1520
1287
1011
694
408
228
137
52
-71
-141
-27
277
606
772
744
677
727
885
985
919
761
666
683
712
656
566
578
744
974
1139
1191
1149
1025
811
549
332
206
144
111
130
249
439
589
610
504
319
81
-177
-335
-258
56
433
678
771
863
1083
1392
1621
1647
1501
1308
1177
1128
1116
1097
1066
1052
1074
1102
1081
986
846
714
625
575
552
557
575
568
493
345
162
-17
-173
-302
-395
-422
-367
-247
-80
124
362
597
754
756
592
334
92
-71
-160
-202
-183
-52
221
606
1047
1493
1899
2195
2313
2256
2123
2038
2044
2073
2026
1878
1697
1568
1529
1549
1561
1517
1423
1341
1329
1370
1377
1286
1127
999
939
879
735
528
384
391
496
576
594
634
784
1004
1168
1208
1176
1156
1150
1087
941
783
701
689
641
481
264
135
169
300
389
387
371
447
610
743
735
590
404
256
149
38
-93
-211
-301
-397
-532
-673
-746
-742
-753
-873
-1048
-1073
-790
-270
271
728
1226
1938
2823
3611
4046
4118
3993
3799
3521
3101
2563
2015
1529
1110
752
490
354
310
273
181
58
-29
-40
-2
24
-5
-64
-82
-6
134
248
264
203
137
117
126
110
48
-9
1
78
140
80
-121
-362
-513
-536
-520
-573
-676
-701
-540
-233
87
338
559
813
1062
1183
1115
950
833
806
795
715
558
391
288
266
272
215
71
-77
-126
-165
-536
-1527
-2956
-4165
-4595
-4330
-3980
-3952
-3977
-3424
-2055
-324
1075
1816
2070
2129
2100
1950
1704
1463
1266
1062
831
670
718
969
1248
1366
1261
1002
719
535
525
689
960
1222
1365
1362
1312
1387
1715
2282
2907
3369
3534
3395
3018
2492
1900
1296
656
-113
-1046
-1980
-2584
-2627
-2189
-1596
-1092
-655
-102
636
1432
2092
2500
2627
2489
2161
1796
1570
1534
1521
1419
1328
1467
2059
3028
3933
4295
4011
3406
2832
2276
1402
-19
-1745
-3187
-3860
-3710
-3058
-2273
-1541
-867
-234
317
719
926
915
675
251
-213
-500
-452
-119
265
452
386
190
-1
-168
-332
-407
-231
227
756
1034
926
580
246
18
-169
-367
-497
-472
-347
-262
-235
-115
216
645
938
1032
1157
1567
2235
2846
3116
3067
2916
2797
2692
2596
2619
2855
3208
3433
3367
3060
2684
2337
1998
1584
1025
275
-646
-1606
-2384
-2828
-2960
-2930
-2869
-2754
-2465
-1926
-1176
-349
404
956
1246
1277
1139
986
962
1115
1353
1536
1663
1884
2304
2814
3153
3152
2860
2432
1934
1409
1074
1288
2170
3318
4048
3972
3297
2504
1806
983
-282
-1944
-3563
-4625
-4901
-4552
-3931
-3324
-2811
-2327
-1822
-1345
-994
-823
-819
-928
-1090
-1218
-1201
-984
-673
-468
-458
-556
-644
-693
-714
-624
-291
257
774
1028
1061
1098
1208
1157
687
-99
-798
-1121
-1166
-1218
-1364
-1396
-1098
-501
166
709
1094
1349
1443
1330
1078
852
749
719
639
512
435
458
492
464
458
590
776
739
293
-403
-992
-1326
-1540
-1770
-2009
-2298
-2904
-4019
-5293
-5941
-5457
-4126
-2631
-1226
461
2792
5491
7797
9138
9470
9002
7839
6050
3936
1969
489
-502
-1126
-1411
-1238
-593
289
1062
1479
1522
1354
1107
746
194
-521
-1235
-1769
-2082
-2269
-2390
-2385
-2184
-1832
-1452
-1100
-689
-91
688
1443
1901
1957
1870
2142
3104
4513
5635
5825
5092
4044
3263
2793
2242
1323
207
-669
-1012
-842
-378
172
667
952
911
581
154
-190
-425
-637
-859
-981
-932
-867
-1130
-1918
-3008
-3903
-4245
-4084
-3700
-3244
-2573
-1495
-55
1441
2668
3499
3983
4179
4085
3717
3202
2711
2305
1911
1415
837
347
92
56
87
37
-121
-328
-507
-616
-632
-552
-410
-285
-248
-307
-406
-459
-398
-217
-4
105
23
-194
-396
-467
-432
-416
-493
-601
-597
-411
-124
108
206
225
276
385
459
398
227
76
39
75
78
14
-49
-38
24
45
-16
-105
-153
-163
-170
-184
-176
-118
-27
58
125
184
234
271
302
333
364
376
372
415
583
889
1226
1406
1285
869
325
-135
-442
-746
-1285
-2108
-2916
-3231
-2784
-1771
-688
85
571
1049
1704
2415
2885
2919
2561
2011
1475
1081
886
885
1010
1157
1237
1220
1171
1203
1354
1527
1552
1385
1209
1284
1662
2110
2339
2301
2186
2144
2099
1880
1485
1127
1021
1183
1468
1722
1877
1928
1873
1732
1537
1293
978
605
270
98
129
294
505
732
980
1213
1361
1397
1370
1358
1384
1385
1289
1084
832
606
424
244
57
-57
9
256
540
732
891
1221
1823
2516
2967
3024
2865
2809
2994
3273
3407
3311
3081
2872
2745
2683
2661
2674
2698
2683
2607
2519
2500
2561
2621
2570
2385
2175
2105
2273
2656
3134
3565
3845
3925
3816
3570
3234
2836
2382
1897
1426
1028
771
687
737
810
784
617
380
182
84
83
147
245
357
503
751
1186
1798
2429
2856
2962
2818
2585
2361
2131
1842
1498
1166
906
715
529
289
2
-285
-596
-1088
-1931
-3056
-4073
-4475
-4023
-2937
-1662
-493
595
1743
2923
3871
4269
3985
3155
2091
1115
438
111
51
140
294
490
723
967
1150
1194
1068
810
523
305
211
246
388
583
754
800
646
312
-73
-354
-457
-433
-403
-443
-541
-621
-641
-650
-750
-1011
-1392
-1764
-2001
-2074
-2055
-2023
-1996
-1910
-1699
-1372
-1023
-782
-720
-825
-1022
-1225
-1390
-1529
-1680
-1853
-2001
-2067
-2053
-2040
-2113
-2256
-2347
-2286
-2103
-1928
-1847
-1801
-1679
-1468
-1292
-1298
-1510
-1819
-2087
-2253
-2330
-2339
-2279
-2141
-1948
-1737
-1542
-1367
-1204
-1061
-957
-901
-877
-856
-807
-719
-594
-449
-309
-206
-155
-139
-121
-84
-40
-9
16
58
119
176
204
214
242
314
419
521
591
616
593
517
385
213
35
-94
-132
-70
63
234
443
721
1067
1399
1598
1601
1462
1309
1228
1204
1177
1126
1103
1163
1304
1466
1595
1674
1708
1694
1632
1546
1479
1453
1458
1479
1526
1615
1738
1847
1898
1896
1884
1895
1924
1941
1938
1931
1936
1956
1972
1956
1897
1815
1749
1717
1698
1644
1546
1440
1375
1351
1321
1252
1185
1181
1249
1322
1332
1253
1107
933
753
570
361
88
-239
-513
-578
-370
5
379
712
1128
1738
2447
3003
3233
3192
3053
2896
2652
2258
1772
1335
1023
809
641
518
457
440
419
377
339
325
312
276
227
192
189
210
239
263
269
252
235
264
358
474
539
534
520
550
604
608
531
422
347
319
308
308
348
445
549
582
523
436
400
426
473
498
506
527
574
636
695
737
746
705
618
527
466
427
377
308
254
242
254
235
163
71
7
-5
23
63
94
108
121
159
221
278
300
291
288
311
340
341
338
382
478
562
581
566
607
734
887
994
1050
1112
1200
1272
1290
1280
1299
1346
1369
1334
1280
1269
1312
1364
1386
1382
1369
1343
1307
1288
1325
1408
1473
1462
1382
1298
1261
1256
1224
1131
1003
896
843
826
815
787
743
683
595
473
339
222
132
56
-10
-43
-21
41
102
136
161
203
253
270
238
183
138
105
66
2
-70
-126
-156
-167
-173
-177
-184
-191
-178
-126
-39
49
104
129
145
167
193
221
274
377
514
633
697
722
759
832
912
952
937
894
865
873
908
950
978
995
1021
1057
1076
1053
1007
993
1040
1107
1125
1080
1026
1020
1047
1039
963
869
808
767
712
663
689
800
891
845
699
635
793
1112
1414
1647
1966
2540
3302
3964
4279
4245
4041
3793
3458
2943
2257
1532
914
470
194
59
22
23
5
-50
-120
-200
-307
-451
-604
-721
-769
-750
-685
-601
-528
-492
-500
-529
-563
-603
-664
-732
-762
-735
-692
-687
-711
-697
-603
-468
-389
-415
-507
-592
-635
-653
-684
-756
-863
-969
-1018
-982
-893
-830
-835
-867
-846
-761
-691
-712
-801
-860
-832
-766
-755
-814
-877
-888
-872
-896
-982
-1078
-1121
-1103
-1062
-1024
-980
-914
-831
-753
-694
-650
-626
-631
-660
-689
-675
-591
-437
-247
-80
18
49
69
142
250
300
221
67
-18
56
235
397
499
610
794
994
1079
1007
880
825
853
858
763
630
581
659
784
855
863
871
915
964
962
902
827
770
729
677
615
564
539
541
566
598
613
587
530
488
502
546
549
472
373
350
431
541
585
541
480
481
549
621
627
559
469
424
443
487
505
489
467
456
428
343
215
100
45
36
26
8
37
157
341
510
616
673
722
758
736
638
524
485
552
660
733
761
808
915
1032
1071
1010
923
898
943
995
1010
1003
1010
1024
996
897
747
589
433
253
51
-122
-215
-238
-259
-327
-405
-425
-392
-390
-448
-456
-237
257
871
1426
1920
2515
3289
4077
4591
4695
4513
4256
4004
3690
3257
2756
2289
1883
1483
1060
671
397
245
129
-32
-227
-379
-430
-393
-336
-297
-262
-208
-162
-173
-260
-364
-412
-396
-377
-420
-505
-558
-524
-428
-344
-316
-345
-403
-471
-534
-572
-578
-576
-602
-664
-736
-791
-824
-845
-847
-818
-759
-702
-682
-703
-739
-754
-732
-683
-637
-630
-675
-744
-791
-800
-803
-844
-926
-1019
-1113
-1241
-1421
-1588
-1635
-1520
-1315
-1134
-998
-817
-506
-108
226
373
346
256
196
182
178
163
159
197
289
428
596
765
897
959
938
849
722
593
503
475
498
533
548
559
603
685
757
780
771
782
830
874
870
834
817
842
883
913
944
988
1010
962
850
751
732
776
806
782
757
804
916
1008
1010
931
838
772
716
637
529
421
335
273
228
196
170
129
60
-19
-66
-58
-29
-49
-148
-269
-315
-258
-157
-105
-132
-174
-154
-72
19
98
224
469
819
1152
1330
1332
1288
1369
1654
2051
2349
2356
2027
1497
981
598
282
-131
-724
-1376
-1834
-1914
-1652
-1260
-940
-772
-711
-671
-586
-442
-275
-151
-112
-124
-91
26
160
192
86
-77
-211
-323
-473
-622
-612
-338
112
524
798
1020
1299
1605
1809
1885
1993
2337
2941
3599
4048
4176
4070
3891
3691
3314
2479
1044
-798
-2582
-3864
-4478
-4532
-4189
-3516
-2523
-1263
168
1633
2920
3772
4010
3701
3150
2659
2275
1894
1502
1228
1158
1166
1145
1309
2064
3470
4922
5587
5214
4437
4143
4555
4992
4560
3035
1029
-610
-1479
-1777
-1943
-2247
-2660
-3011
-3168
-3135
-3028
-2982
-3041
-3129
-3104
-2849
-2346
-1673
-929
-208
374
681
618
236
-264
-656
-845
-905
-952
-1030
-1095
-1092
-998
-808
-516
-175
85
144
3
-217
-379
-422
-352
-206
-48
23
-71
-303
-557
-745
-892
-1057
-1221
-1298
-1247
-1143
-1070
-1017
-888
-653
-422
-353
-475
-660
-742
-670
-532
-446
-436
-434
-359
-202
-34
63
46
-64
-213
-355
-447
-461
-397
-290
-190
-132
-111
-107
-121
-164
-244
-332
-384
-385
-366
-363
-366
-318
-187
-11
131
186
187
195
237
277
261
176
75
37
98
215
292
297
306
443
736
1053
1233
1260
1277
1411
1639
1840
1975
2105
2251
2299
2108
1693
1236
876
565
151
-421
-1045
-1583
-1971
-2204
-2260
-2122
-1837
-1503
-1158
-733
-162
496
1063
1385
1452
1365
1228
1084
942
807
689
586
492
410
375
423
536
640
667
626
609
681
805
916
1077
1474
2209
3082
3651
3577
2918
2039
1245
531
-306
-1348
-2381
-3039
-3096
-2612
-1833
-965
-50
941
1956
2816
3351
3545
3521
3399
3194
2859
2410
1961
1641
1487
1439
1418
1378
1317
1260
1241
1309
1486
1722
1909
1950
1846
1699
1626
1654
1711
1733
1775
1957
2329
2788
3137
3227
3049
2708
2338
2007
1701
1349
930
536
335
434
772
1168
1468
1633
1705
1709
1636
1482
1277
1049
810
581
418
373
435
539
617
655
663
644
603
571
593
682
792
848
809
701
588
515
469
402
285
148
58
49
93
125
106
57
27
36
58
57
8
-90
-202
-273
-281
-278
-318
-315
-26
760
1939
3042
3575
3414
2857
2286
1784
1132
147
-1045
-2079
-2638
-2649
-2246
-1635
-998
-477
-157
-25
2
0
-22
-92
-213
-342
-418
-402
-279
-80
106
161
42
-181
-413
-630
-824
-885
-614
79
985
1695
1941
1802
1570
1420
1271
917
266
-572
-1338
-1743
-1620
-1055
-370
81
179
86
27
40
-58
-445
-1079
-1712
-2089
-2117
-1900
-1610
-1346
-1103
-851
-651
-651
-946
-1442
-1891
-2090
-2040
-1873
-1691
-1464
-1135
-728
-349
-69
140
355
586
755
783
683
548
440
317
79
-330
-836
-1277
-1519
-1543
-1461
-1405
-1450
-1555
-1614
-1545
-1361
-1168
-1080
-1140
-1289
-1429
-1506
-1537
-1550
-1554
-1537
-1529
-1584
-1706
-1793
-1720
-1457
-1111
-806
-545
-217
256
794
1198
1317
1160
879
633
483
379
239
33
-205
-414
-575
-721
-888
-1063
-1176
-1156
-982
-700
-423
-290
-412
-804
-1335
-1831
-2208
-2530
-2901
-3297
-3517
-3328
-2679
-1759
-862
-190
242
537
773
937
956
795
521
261
129
151
283
450
579
612
528
351
167
63
65
124
159
135
76
22
-16
-63
-126
-173
-172
-142
-149
-218
-307
-347
-343
-390
-572
-858
-1135
-1309
-1360
-1306
-1152
-900
-589
-280
5
296
606
873
993
918
718
521
419
421
495
613
774
968
1161
1297
1338
1292
1193
1053
849
578
307
163
219
424
650
795
851
878
939
1041
1138
1171
1115
1007
927
936
1027
1133
1200
1229
1260
1328
1421
1504
1541
1511
1421
1298
1182
1096
1041
995
939
869
799
749
728
732
739
729
687
624
560
506
456
399
337
298
301
332
343
302
222
157
151
178
175
115
37
4
30
67
69
43
28
55
116
184
240
278
304
345
424
533
616
634
620
650
741
807
769
667
630
718
822
806
684
597
637
735
765
705
640
615
587
519
440
365
177
-289
-1039
-1826
-2334
-2441
-2277
-2027
-1726
-1270
-591
231
993
1523
1760
1762
1634
1474
1360
1361
1535
1888
2329
2710
2896
2863
2704
2515
2291
1942
1408
773
243
-2
58
286
504
598
536
353
130
-54
-165
-251
-383
-562
-696
-710
-657
-649
-731
-827
-841
-775
-712
-692
-656
-530
-334
-163
-96
-118
-153
-153
-128
-108
-111
-127
-138
-142
-157
-208
-297
-395
-463
-482
-468
-446
-427
-403
-361
-299
-231
-193
-240
-398
-645
-922
-1200
-1506
-1869
-2236
-2483
-2500
-2290
-1960
-1611
-1251
-822
-307
193
517
583
474
377
404
498
517
405
272
267
414
590
665
633
565
496
399
264
144
114
179
271
331
354
368
390
424
477
541
584
569
518
500
566
683
767
771
718
665
636
621
613
623
651
681
693
692
699
738
807
882
929
927
893
873
902
964
1012
1010
977
973
1037
1142
1210
1183
1095
1051
1124
1243
1232
967
528
151
16
95
221
286
351
558
962
1467
1918
2219
2364
2389
2333
2233
2120
2009
1892
1759
1623
1523
1505
1571
1676
1752
1738
1631
1480
1358
1312
1324
1328
1260
1123
976
874
802
692
512
309
162
102
81
40
-33
-95
-119
-126
-157
-215
-268
-293
-314
-385
-533
-713
-836
-847
-803
-807
-884
-936
-855
-682
-583
-643
-743
-676
-376
15
335
601
967
1505
2101
2571
2849
2994
3065
3035
2842
2473
1978
1415
832
287
-158
-481
-716
-884
-962
-910
-766
-649
-643
-680
-631
-459
-282
-236
-323
-398
-344
-187
-46
12
44
139
301
441
482
430
359
333
357
394
415
417
425
442
445
413
359
312
274
207
87
-45
-110
-77
-1
43
31
3
15
72
128
139
87
-35
-222
-424
-544
-511
-345
-166
-97
-155
-270
-371
-454
-567
-741
-965
-1213
-1471
-1711
-1863
-1842
-1614
-1227
-781
-368
-23
273
558
837
1056
1129
1017
785
561
450
467
553
630
660
659
658
687
763
858
911
886
796
692
619
586
587
616
663
697
680
593
476
388
356
347
302
224
163
144
142
113
53
10
31
116
219
295
323
329
356
418
462
395
192
-66
-238
-275
-268
-321
-391
-331
-61
303
550
593
527
482
475
418
257
37
-145
-211
-138
47
267
396
370
292
356
616
837
652
-81
-1065
-1786
-1935
-1632
-1247
-1007
-828
-478
159
979
1762
2298
2460
2234
1732
1183
813
666
589
406
113
-135
-195
-84
73
196
297
399
461
440
370
353
425
497
464
292
28
-278
-580
-795
-841
-717
-541
-418
-318
-126
179
479
698
939
1389
2071
2783
3315
3651
3891
4030
3909
3420
2671
1894
1235
658
70
-548
-1125
-1564
-1805
-1851
-1770
-1666
-1607
-1534
-1300
-841
-269
224
529
661
673
565
334
47
-182
-291
-332
-372
-382
-251
85
529
872
958
779
461
143
-115
-326
-511
-655
-710
-651
-516
-380
-295
-266
-262
-263
-276
-319
-391
-464
-503
-501
-481
-465
-458
-455
-454
-477
-545
-653
-770
-858
-891
-851
-715
-482
-198
59
244
385
550
743
861
770
446
27
-287
-394
-362
-338
-389
-450
-409
-243
-61
4
-79
-227
-347
-427
-505
-572
-568
-460
-298
-171
-101
-26
94
212
228
110
-68
-194
-232
-227
-224
-205
-106
107
392
667
878
1019
1117
1182
1202
1159
1058
926
780
626
467
320
220
187
202
204
143
28
-79
-129
-141
-177
-257
-348
-417
-470
-532
-584
-601
-601
-629
-675
-649
-517
-418
-575
-1063
-1690
-2174
-2391
-2421
-2360
-2171
-1746
-1074
-281
470
1099
1592
1917
2003
1822
1463
1099
872
794
769
720
668
701
855
1048
1148
1083
910
740
624
522
394
292
316
477
618
578
391
282
370
438
73
-887
-2111
-3046
-3402
-3323
-3109
-2861
-2436
-1687
-651
475
1469
2151
2409
2236
1772
1248
869
740
871
1179
1543
1901
2338
2997
3835
4542
4772
4488
3990
3585
3303
3000
2647
2359
2127
1676
731
-588
-1775
-2389
-2450
-2333
-2305
-2265
-1938
-1217
-274
596
1193
1482
1540
1484
1408
1339
1234
1039
773
524
364
287
241
192
125
18
-148
-361
-549
-633
-579
-419
-222
-66
-13
-90
-292
-555
-789
-917
-918
-837
-754
-718
-682
-504
-69
589
1264
1732
1912
1881
1729
1454
985
309
-476
-1217
-1795
-2156
-2282
-2183
-1930
-1638
-1403
-1263
-1191
-1167
-1199
-1301
-1455
-1609
-1706
-1704
-1594
-1409
-1219
-1083
-1012
-973
-930
-898
-915
-970
-996
-929
-770
-579
-407
-263
-154
-118
-210
-441
-737
-991
-1124
-1130
-1050
-909
-692
-368
70
568
1025
1344
1472
1425
1266
1064
858
656
469
329
277
315
401
481
537
578
605
603
564
509
470
464
490
543
617
673
656
544
420
427
651
1032
1412
1651
1717
1651
1493
1243
891
452
-13
-431
-739
-885
-840
-608
-256
96
341
450
475
482
482
442
333
176
36
-31
2
122
280
401
417
327
197
105
71
62
52
66
145
287
432
521
547
556
581
606
587
499
363
234
163
171
236
315
389
472
590
743
890
984
1000
949
863
775
723
726
759
768
737
715
749
786
708
484
264
267
555
983
1399
1833
2430
3230
4043
4601
4797
4720
4502
4197
3811
3388
2995
2649
2315
1992
1746
1637
1616
1557
1376
1116
878
712
596
509
475
517
608
682
699
675
642
613
586
553
515
474
440
441
477
507
488
432
421
516
694
880
1051
1251
1474
1613
1540
1245
861
532
291
83
-121
-266
-275
-148
28
170
252
289
281
204
50
-129
-255
-313
-351
-414
-473
-467
-395
-337
-366
-460
-547
-611
-703
-837
-936
-892
-687
-418
-207
-109
-108
-158
-214
-260
-311
-421
-626
-905
-1185
-1408
-1562
-1644
-1630
-1513
-1338
-1169
-1020
-841
-590
-309
-101
-27
-47
-74
-54
-5
32
34
13
3
14
37
61
73
80
89
93
79
46
9
-8
-4
-2
-19
-49
-69
-84
-120
-201
-308
-398
-450
-490
-563
-672
-772
-822
-832
-846
-884
-925
-934
-910
-886
-896
-944
-1018
-1101
-1174
-1217
-1217
-1186
-1159
-1159
-1183
-1200
-1190
-1165
-1154
-1172
-1217
-1267
-1309
-1341
-1365
-1368
-1346
-1327
-1379
-1567
-1879
-2217
-2457
-2542
-2506
-2413
-2274
-2047
-1696
-1252
-798
-422
-165
-30
3
-28
-85
-145
-213
-297
-376
-401
-342
-222
-94
9
86
144
182
193
171
117
59
40
58
71
38
-31
-67
-46
-42
-125
-234
-245
-170
-271
-870
-2001
-3307
-4282
-4613
-4294
-3503
-2429
-1175
260
1937
3837
5702
7057
7497
7025
6055
5075
4293
3615
2886
2126
1503
1153
1073
1168
1307
1365
1275
1028
686
363
167
152
302
532
727
801
736
579
409
291
244
249
266
265
239
198
157
124
98
86
94
118
146
161
155
130
94
58
34
24
16
-11
-64
-127
-179
-216
-244
-266
-277
-280
-293
-332
-387
-426
-430
-418
-430
-484
-560
-628
-682
-735
-793
-838
-851
-849
-881
-970
-1076
-1127
-1092
-1022
-1000
-1051
-1113
-1110
-1037
-965
-965
-1034
-1105
-1107
-1019
-868
-696
-532
-392
-287
-217
-180
-177
-206
-247
-264
-226
-140
-25
115
300
529
754
898
935
906
878
875
866
825
765
725
725
747
759
747
724
709
700
679
627
556
502
488
495
474
402
319
270
267
271
257
261
340
493
645
710
676
608
578
596
613
576
483
384
342
370
412
402
357
363
466
576
524
233
-173
-486
-615
-670
-841
-1204
-1657
-2001
-2065
-1788
-1222
-513
180
786
1344
1932
2533
3001
3165
2971
2523
2006
1573
1279
1092
952
837
783
830
959
1089
1135
1087
994
882
725
498
252
92
75
152
223
230
192
151
130
127
134
151
171
170
135
82
39
8
-33
-102
-190
-291
-414
-546
-621
-547
-311
-2
285
582
1036
1725
2515
3124
3364
3289
3092
2889
2630
2215
1650
1053
554
202
-21
-139
-177
-183
-218
-298
-375
-399
-394
-423
-508
-590
-607
-575
-584
-681
-811
-880
-878
-891
-979
-1080
-1070
-907
-680
-387
-425
-355
-250
-139
-91
-110
-139
-131
-103
-98
-115
-94
-6
110
178
175
158
206
331
462
526
524
532
611
748
861
886
835
785
787
817
820
782
748
762
817
874
913
945
977
980
936
877
859
888
902
836
696
556
470
418
338
207
60
-53
-115
-133
-115
-55
32
88
50
-83
-240
-343
-393
-458
-595
-777
-916
-947
-888
-795
-707
-624
-539
-464
-418
-397
-392
-399
-414
-421
-407
-392
-414
-461
-469
-393
-278
-231
-298
-402
-420
-313
-158
-47
14
95
227
349
361
239
46
-136
-286
-442
-626
-802
-913
-931
-873
-783
-694
-612
-535
-469
-417
-383
-363
-353
-355
-361
-358
-324
-264
-226
-259
-353
-432
-418
-305
-181
-130
-134
-97
42
235
381
428
431
485
629
836
1051
1228
1332
1346
1294
1238
1224
1219
1138
952
735
619
652
745
763
662
540
515
603
703
726
691
681
710
695
556
340
191
174
171
-7
-389
-774
-927
-816
-601
-422
-233
107
622
1177
1650
2078
2583
3156
3616
3781
3654
3424
3249
3092
2777
2213
1522
939
597
416
219
-72
-391
-655
-904
-1247
-1676
-2011
-2053
-1780
-1360
-954
-559
-64
557
1170
1581
1678
1496
1135
693
242
-156
-444
-593
-620
-575
-491
-394
-306
-264
-291
-377
-486
-575
-631
-639
-571
-419
-230
-93
-85
-212
-425
-647
-809
-853
-755
-528
-211
143
464
670
721
657
545
391
119
-315
-804
-1149
-1246
-1169
-1044
-906
-698
-432
-248
-274
-464
-644
-706
-727
-832
-1013
-1113
-991
-698
-433
-356
-446
-557
-586
-571
-613
-740
-841
-820
-696
-555
-436
-284
-58
179
313
293
165
-22
-262
-532
-713
-671
-425
-140
26
80
165
350
547
604
450
148
-138
-272
-228
-108
-61
-131
-192
-84
153
235
-46
-565
-944
-933
-669
-492
-575
-792
-912
-841
-650
-443
-281
-197
-192
-206
-130
88
343
445
286
-86
-508
-842
-1021
-1054
-986
-871
-729
-551
-321
-61
191
410
564
598
486
255
-9
-210
-325
-363
-305
-180
-114
-256
-564
-775
-659
-280
52
143
127
253
523
675
532
250
135
273
460
479
394
468
847
1411
1916
2208
2295
2244
2104
1888
1606
1249
817
353
-53
-311
-386
-324
-190
-37
98
197
253
260
198
63
-83
-127
4
270
574
917
1438
2243
3213
4038
4474
4532
4396
4196
3916
3506
2993
2446
1890
1356
991
1012
1477
2126
2551
2548
2259
1953
1722
1432
924
213
-523
-1108
-1464
-1580
-1482
-1246
-1004
-865
-829
-791
-668
-512
-474
-647
-956
-1215
-1289
-1203
-1078
-999
-937
-818
-629
-443
-349
-363
-423
-451
-411
-316
-210
-139
-126
-160
-204
-215
-177
-123
-104
-151
-252
-372
-484
-579
-658
-714
-742
-760
-804
-881
-949
-954
-899
-855
-879
-958
-1028
-1060
-1104
-1226
-1402
-1519
-1472
-1287
-1101
-1016
-983
-842
-494
-19
374
547
542
504
524
548
452
178
-188
-475
-552
-424
-202
-7
115
201
288
365
404
421
442
418
212
-277
-963
-1592
-1918
-1894
-1653
-1348
-1012
-571
38
791
1544
2114
2363
2280
1989
1652
1370
1127
868
581
322
172
157
261
429
597
692
656
476
221
35
22
158
314
389
392
380
347
240
70
-47
-65
-182
-755
-1928
-3394
-4569
-5046
-4863
-4352
-3755
-3049
-2070
-766
690
1969
2767
2945
2597
1995
1430
1058
867
759
666
594
586
666
803
919
925
773
476
118
-182
-315
-240
-7
262
454
523
483
349
93
-297
-768
-1197
-1458
-1494
-1343
-1097
-826
-535
-168
333
933
1473
1748
1657
1294
884
620
545
584
671
852
1228
1813
2465
2980
3230
3232
3071
2790
2389
1895
1395
982
677
450
276
128
-24
-196
-369
-493
-520
-464
-394
-372
-413
-481
-495
-391
-198
-77
-235
-776
-1599
-2448
-3034
-3163
-2816
-2156
-1415
-712
45
1014
2136
3057
3379
3005
2237
1499
1006
709
474
258
120
111
205
338
462
526
474
265
-99
-528
-863
-955
-773
-440
-142
-4
-15
-81
-124
-140
-161
-201
-234
-240
-236
-272
-394
-600
-845
-1068
-1215
-1259
-1204
-1077
-916
-752
-599
-464
-342
-225
-99
39
173
275
335
376
425
492
560
617
675
734
786
844
965
1201
1510
1751
1815
1727
1617
1562
1495
1304
986
682
543
602
770
937
1073
1196
1313
1394
1417
1391
1352
1325
1306
1289
1279
1285
1318
1383
1469
1547
1572
1524
1450
1455
1640
2025
2510
2948
3233
3334
3269
3055
2698
2231
1708
1197
760
450
291
253
268
277
287
340
445
557
640
727
896
1178
1514
1813
2035
2206
2359
2466
2456
2296
2040
1799
1656
1606
1599
1609
1658
1759
1867
1897
1794
1590
1372
1214
1118
1031
901
726
548
412
327
248
128
-23
-123
-89
80
296
460
538
554
511
375
126
-175
-444
-661
-871
-1081
-1210
-1156
-886
-443
119
739
1284
1603
1676
1666
1769
1964
2004
1677
1042
352
-188
-539
-742
-852
-981
-1329
-2002
-2792
-3258
-3101
-2468
-1812
-1461
-1341
-1113
-539
284
1027
1377
1229
714
97
-370
-584
-607
-586
-642
-764
-842
-769
-528
-224
4
70
-24
-207
-386
-474
-438
-309
-163
-81
-106
-239
-441
-635
-721
-606
-239
369
1141
1927
2506
2672
2371
1753
1030
277
-618
-1733
-2898
-3748
-4047
-3921
-3726
-3692
-3753
-3705
-3493
-3255
-3125
-3061
-2917
-2616
-2216
-1815
-1440
-1068
-729
-526
-550
-777
-1092
-1379
-1587
-1711
-1741
-1660
-1490
-1299
-1157
-1094
-1088
-1117
-1176
-1253
-1296
-1238
-1058
-812
-591
-448
-374
-322
-252
-150
-24
104
210
281
325
355
381
408
441
491
563
639
698
732
752
776
807
826
815
778
739
723
731
742
739
734
751
793
834
845
823
789
778
814
903
1025
1140
1212
1244
1261
1280
1273
1210
1099
988
912
861
802
743
732
801
915
999
1010
979
969
1005
1055
1071
1046
1019
1024
1059
1097
1118
1132
1147
1166
1175
1166
1141
1114
1099
1105
1128
1147
1149
1141
1141
1150
1145
1107
1056
1025
1023
1016
971
891
810
754
727
717
711
703
690
668
636
584
498
365
201
45
-87
-206
-326
-424
-463
-450
-446
-488
-516
-419
-167
140
383
585
901
1431
2072
2585
2821
2834
2773
2694
2529
2202
1740
1259
853
539
292
99
-29
-85
-89
-79
-86
-116
-154
-172
-162
-142
-130
-122
-106
-81
-65
-73
-92
-99
-101
-122
-154
-149
-65
52
84
-24
-174
-208
-92
4
-119
-448
-764
-873
-802
-733
-750
-748
-585
-272
53
299
502
719
893
908
737
496
324
244
174
52
-89
-179
-195
-180
-182
-211
-240
-257
-273
-301
-333
-336
-296
-236
-197
-199
-226
-245
-237
-210
-170
-133
-107
-93
-76
-40
-2
-19
-146
-387
-685
-958
-1133
-1154
-993
-675
-268
174
665
1245
1877
2416
2698
2685
2495
2269
2048
1788
1468
1156
950
879
897
941
986
1031
1062
1055
996
893
772
673
626
621
619
589
543
516
517
516
484
445
448
489
500
432
320
245
231
214
122
-29
-152
-190
-182
-207
-287
-376
-411
-387
-344
-309
-275
-219
-143
-72
-24
9
39
67
89
109
141
189
239
279
327
417
549
682
779
844
913
1004
1097
1169
1229
1307
1419
1542
1643
1705
1748
1797
1862
1933
1982
1999
1999
2010
2034
2037
1980
1864
1735
1635
1558
1474
1371
1286
1250
1252
1247
1212
1169
1133
1076
962
803
643
500
360
210
76
-9
-69
-141
-202
-153
71
406
732
1023
1406
1983
2661
3196
3415
3370
3246
3139
2972
2617
2059
1434
904
523
238
-34
-325
-605
-824
-945
-964
-907
-826
-751
-680
-599
-504
-426
-410
-472
-575
-669
-712
-700
-647
-568
-475
-380
-290
-220
-194
-216
-279
-376
-504
-638
-734
-755
-724
-717
-775
-841
-808
-644
-441
-324
-321
-353
-351
-339
-400
-577
-822
-1052
-1217
-1313
-1354
-1352
-1316
-1262
-1204
-1155
-1123
-1111
-1110
-1097
-1065
-1015
-955
-861
-711
-526
-378
-319
-331
-357
-359
-356
-384
-423
-416
-323
-159
46
300
618
985
1345
1639
1844
1939
1892
1672
1305
880
485
154
-112
-304
-388
-337
-155
101
360
546
618
593
526
472
429
362
263
188
214
335
450
442
304
149
87
79
-23
-282
-562
-635
-419
-73
173
260
334
544
869
1157
1305
1343
1344
1315
1213
1038
862
735
623
474
297
176
173
272
414
544
619
596
495
401
367
284
-102
-943
-2055
-2982
-3361
-3189
-2757
-2314
-1857
-1214
-297
750
1652
2188
2296
2065
1666
1272
1002
882
858
845
791
718
697
796
1006
1220
1278
1085
705
338
190
304
529
662
617
477
387
407
478
514
493
470
502
571
598
528
379
208
50
-86
-185
-219
-185
-124
-66
40
294
719
1205
1653
2115
2741
3551
4318
4743
4737
4468
4142
3770
3224
2452
1589
832
267
-151
-490
-742
-852
-814
-696
-582
-519
-492
-456
-397
-353
-375
-469
-578
-642
-653
-653
-680
-719
-723
-675
-604
-545
-495
-436
-371
-327
-320
-329
-322
-299
-293
-327
-385
-431
-455
-492
-574
-700
-824
-900
-918
-890
-826
-720
-581
-459
-429
-523
-692
-848
-949
-1031
-1155
-1322
-1465
-1515
-1469
-1385
-1335
-1350
-1406
-1449
-1443
-1381
-1280
-1174
-1082
-996
-904
-812
-753
-749
-774
-754
-629
-418
-194
2
215
522
904
1212
1280
1074
716
362
64
-218
-508
-747
-838
-740
-505
-234
-3
168
291
383
441
452
404
326
286
330
437
544
613
662
728
802
823
763
676
643
674
676
564
355
165
84
95
114
108
146
325
657
1041
1347
1509
1539
1480
1352
1153
888
589
303
81
-38
-62
-37
-16
-7
17
69
105
64
-53
-170
-220
-222
-245
-318
-389
-395
-352
-341
-412
-518
-554
-459
-280
-119
-33
-3
29
99
190
262
293
301
319
379
488
623
738
788
755
662
543
432
351
326
375
477
585
656
681
668
613
491
292
48
-176
-314
-339
-288
-212
-115
27
195
297
261
157
168
394
728
1000
1234
1684
2540
3642
4577
5033
5053
4863
4587
4161
3508
2678
1785
900
78
-563
-911
-1023
-1113
-1316
-1492
-1391
-1012
-705
-838
-1394
-2000
-2325
-2371
-2359
-2396
-2339
-1984
-1320
-528
198
782
1256
1621
1804
1749
1506
1207
936
662
322
-24
-218
-207
-160
-256
-373
-59
1033
2695
4220
4981
4911
4438
3945
3351
2262
499
-1596
-3401
-4521
-5021
-5182
-5136
-4854
-4436
-4241
-4575
-5307
-5944
-6109
-5865
-5499
-5083
-4373
-3179
-1681
-281
747
1388
1688
1596
1071
297
-373
-678
-630
-417
-189
33
253
408
425
333
254
285
386
425
325
165
70
69
91
83
68
103
170
189
138
67
2
-160
-585
-1297
-2089
-2669
-2918
-2974
-3027
-3073
-2889
-2276
-1302
-256
584
1131
1464
1662
1723
1621
1375
1051
705
371
91
-78
-114
-61
-3
-7
-84
-200
-324
-444
-551
-652
-753
-846
-910
-930
-918
-882
-813
-703
-584
-529
-561
-610
-598
-544
-584
-820
-1177
-1457
-1527
-1456
-1426
-1540
-1702
-1706
-1424
-914
-357
98
436
748
1093
1425
1629
1640
1497
1287
1069
857
658
499
394
327
274
244
259
313
359
354
302
248
222
216
207
191
185
208
244
254
214
128
19
-96
-199
-265
-284
-266
-242
-235
-241
-233
-181
-56
157
439
724
958
1177
1502
2003
2575
2996
3125
3033
2892
2771
2587
2234
1735
1215
780
454
230
115
76
-12
-298
-804
-1365
-1766
-1925
-1930
-1898
-1838
-1646
-1224
-594
109
730
1160
1363
1378
1306
1270
1333
1443
1493
1440
1363
1374
1478
1549
1451
1171
817
503
250
16
-201
-334
-330
-223
-122
-116
-195
-280
-310
-295
-290
-320
-360
-373
-348
-303
-253
-204
-161
-146
-173
-230
-286
-308
-298
-282
-302
-368
-400
-205
427
1529
2841
3935
4507
4574
4367
4035
3484
2525
1153
-357
-1615
-2372
-2615
-2475
-2098
-1601
-1089
-653
-336
-128
-1
28
-72
-275
-473
-553
-465
-228
101
440
675
717
587
423
355
363
319
139
-130
-399
-633
-790
-682
-30
1268
2937
4460
5456
5889
5924
5628
4891
3609
1907
128
-1347
-2284
-2634
-2472
-1945
-1243
-549
17
418
670
780
719
474
113
-219
-385
-330
-103
176
381
414
267
29
-195
-402
-704
-1213
-1883
-2520
-2964
-3218
-3388
-3494
-3407
-2961
-2137
-1105
-108
670
1144
1304
1187
877
475
58
-351
-750
-1100
-1327
-1379
-1295
-1182
-1130
-1154
-1217
-1293
-1386
-1482
-1540
-1538
-1515
-1525
-1567
-1594
-1601
-1649
-1747
-1746
-1425
-721
133
767
977
839
542
171
-321
-995
-1813
-2662
-3395
-3844
-3853
-3386
-2609
-1806
-1147
-564
116
916
1625
1999
1990
1766
1517
1310
1089
817
522
259
38
-173
-391
-587
-714
-748
-708
-641
-585
-559
-563
-592
-651
-739
-816
-837
-792
-718
-661
-631
-614
-603
-584
-545
-471
-370
-270
-195
-152
-132
-121
-91
-15
86
128
68
45
337
1109
2181
3100
3489
3341
2939
2523
2063
1357
299
-944
-2029
-2664
-2776
-2500
-2059
-1620
-1257
-981
-795
-709
-745
-896
-1134
-1411
-1658
-1801
-1797
-1652
-1421
-1190
-1046
-1050
-1190
-1380
-1514
-1542
-1482
-1371
-1222
-1043
-888
-845
-942
-1096
-1171
-1110
-978
-880
-844
-802
-684
-500
-331
-239
-204
-162
-74
44
144
206
247
290
344
385
384
331
243
146
62
2
-32
-36
-6
60
151
251
344
427
505
574
620
628
596
536
469
412
377
366
355
311
224
129
82
110
163
171
118
56
46
76
72
-18
-169
-306
-381
-396
-375
-320
-223
-90
56
189
289
332
306
221
114
18
-62
-118
-139
-123
-89
-46
27
150
274
326
303
291
310
215
-204
-964
-1813
-2460
-2816
-2953
-2873
-2436
-1569
-450
627
1534
2354
3128
3662
3689
3192
2469
1876
1524
1299
1078
860
725
712
777
820
766
615
426
259
108
-64
-209
-179
141
659
1129
1415
1629
1980
2501
2973
3184
3143
3017
2878
2593
2025
1232
454
-119
-486
-752
-953
-1012
-844
-472
-41
283
418
392
307
238
170
17
-265
-618
-919
-1088
-1141
-1151
-1160
-1144
-1070
-954
-866
-863
-950
-1074
-1175
-1229
-1260
-1297
-1332
-1318
-1214
-1027
-810
-639
-596
-761
-1185
-1810
-2456
-2899
-3007
-2816
-2448
-1989
-1423
-700
161
1023
1687
1988
1892
1510
1036
627
336
125
-54
-198
-266
-234
-133
-35
-11
-85
-233
-401
-542
-629
-651
-604
-493
-353
-254
-243
-306
-389
-449
-482
-483
-440
-338
-210
-118
-89
-96
-92
-60
-20
14
58
127
205
256
268
254
234
209
172
124
73
22
-31
-80
-97
-69
-21
3
-25
-91
-149
-174
-198
-277
-432
-595
-654
-546
-343
-189
-172
-245
-303
-311
-346
-501
-757
-995
-1109
-1113
-1083
-1055
-967
-746
-423
-139
-28
-83
-179
-201
-155
-157
-287
-486
-613
-570
-393
-202
-97
-72
-63
-18
63
145
192
200
178
151
139
164
230
322
398
419
385
338
329
353
369
365
393
506
671
777
744
623
533
520
513
416
227
52
-16
30
120
189
219
227
231
244
269
268
192
44
-114
-208
-249
-321
-463
-573
-462
-47
558
1154
1647
2125
2713
3391
3965
4224
4101
3693
3164
2631
2146
1712
1318
957
647
441
360
336
268
116
-50
-133
-159
-250
-435
-579
-546
-397
-381
-669
-1140
-1502
-1592
-1503
-1404
-1311
-1094
-676
-149
337
711
987
1165
1191
1039
782
544
379
269
179
112
78
52
-14
-131
-266
-379
-460
-511
-534
-533
-537
-569
-607
-609
-604
-691
-941
-1297
-1583
-1672
-1592
-1467
-1368
-1267
-1113
-929
-773
-670
-609
-595
-662
-811
-962
-1019
-974
-921
-945
-1017
-1020
-866
-578
-270
-67
-23
-86
-156
-166
-131
-135
-247
-449
-630
-641
-385
119
701
1106
1160
916
613
464
445
343
13
-438
-735
-701
-384
53
487
863
1111
1142
949
668
466
359
194
-139
-512
-631
-346
179
623
814
851
909
994
942
640
192
-185
-362
-392
-394
-408
-392
-307
-160
16
199
363
449
400
225
23
-73
-4
169
309
331
254
168
145
166
148
32
-152
-323
-416
-440
-438
-438
-429
-392
-332
-278
-255
-255
-248
-204
-138
-87
-63
-45
-11
60
181
354
542
663
648
502
299
116
-25
-131
-180
-120
87
435
920
1557
2315
3042
3510
3550
3188
2581
1845
975
-53
-1141
-2071
-2661
-2900
-2886
-2678
-2238
-1556
-767
-66
480
998
1626
2325
2871
3088
3014
2844
2691
2491
2139
1641
1119
681
334
45
-187
-321
-327
-218
-37
175
362
464
476
446
422
403
347
231
86
-35
-115
-176
-244
-320
-399
-487
-588
-698
-811
-930
-1051
-1158
-1247
-1322
-1373
-1378
-1314
-1212
-1146
-1160
-1221
-1262
-1263
-1257
-1255
-1216
-1113
-985
-898
-855
-801
-726
-717
-858
-1103
-1291
-1293
-1135
-958
-872
-870
-877
-847
-811
-816
-882
-988
-1106
-1229
-1343
-1411
-1378
-1220
-993
-802
-722
-751
-826
-887
-914
-932
-991
-1124
-1280
-1356
-1278
-1081
-877
-738
-632
-495
-327
-179
-58
79
211
155
-295
-1113
-1968
-2467
-2469
-2144
-1725
-1267
-646
232
1281
2273
2988
3309
3225
2812
2223
1646
1221
964
800
660
556
549
674
851
951
900
746
575
428
293
186
195
343
471
305
-286
-1138
-1944
-2534
-2969
-3329
-3499
-3256
-2541
-1563
-603
240
1049
1864
2545
2896
2877
2638
2363
2116
1855
1551
1257
1049
936
873
791
670
531
409
296
184
104
102
194
314
390
410
398
312
20
-573
-1370
-2108
-2569
-2722
-2671
-2486
-2144
-1645
-1080
-581
-206
87
351
577
703
694
600
518
536
667
821
856
694
389
80
-145
-333
-565
-815
-933
-786
-416
7
363
711
1169
1715
2154
2307
2187
1989
1874
1827
1730
1526
1246
917
481
-174
-1079
-2102
-2982
-3464
-3470
-3154
-2778
-2473
-2117
-1475
-517
460
1041
1041
616
82
-342
-617
-803
-951
-1079
-1144
-1105
-939
-689
-461
-353
-381
-514
-716
-938
-1108
-1147
-1036
-838
-645
-500
-412
-399
-477
-604
-672
-612
-486
-434
-526
-698
-838
-908
-954
-1011
-1041
-997
-887
-776
-716
-706
-711
-727
-760
-799
-809
-769
-710
-704
-780
-874
-904
-887
-979
-1356
-2004
-2681
-3074
-3031
-2645
-2120
-1581
-1027
-405
277
923
1399
1605
1516
1200
803
474
288
231
244
286
368
504
664
780
792
691
522
326
132
-33
-111
-59
108
307
450
503
480
412
335
298
347
475
587
592
495
398
377
412
419
367
321
363
490
602
593
461
320
279
326
326
138
-243
-670
-979
-1129
-1179
-1169
-1044
-718
-211
348
841
1253
1629
1948
2097
1996
1699
1362
1117
977
863
727
612
596
695
847
958
996
998
1010
1027
1011
957
921
966
1085
1205
1253
1214
1132
1068
1055
1093
1151
1183
1168
1125
1094
1078
1037
930
781
676
678
772
870
884
820
751
744
786
794
715
599
551
587
596
491
396
610
1312
2326
3237
3780
4064
4372
4778
5033
4839
4180
3329
2564
1960
1458
1056
854
891
1045
1125
1060
944
881
850
731
442
51
-269
-386
-315
-176
-80
-45
-20
19
23
-72
-263
-478
-667
-839
-1033
-1236
-1388
-1445
-1413
-1287
-1021
-586
-51
442
792
1022
1189
1281
1220
964
581
198
-96
-290
-407
-457
-443
-389
-331
-287
-258
-250
-271
-329
-421
-532
-649
-758
-850
-928
-1001
-1078
-1168
-1274
-1392
-1508
-1612
-1706
-1789
-1840
-1836
-1795
-1775
-1807
-1794
-1563
-1027
-324
258
526
521
414
289
71
-339
-912
-1502
-1970
-2260
-2369
-2293
-2052
-1727
-1434
-1248
-1184
-1236
-1412
-1698
-2016
-2249
-2334
-2294
-2186
-2021
-1763
-1412
-1052
-793
-693
-713
-785
-871
-966
-1052
-1094
-1080
-1047
-1052
-1101
-1138
-1104
-1002
-888
-806
-752
-699
-642
-607
-616
-659
-709
-745
-773
-811
-858
-892
-891
-858
-818
-797
-788
-765
-715
-663
-661
-752
-950
-1236
-1540
-1746
-1753
-1560
-1280
-1034
-834
-587
-232
161
445
546
512
437
372
331
344
453
645
843
970
1033
1096
1185
1256
1253
1172
1066
995
982
1019
1089
1168
1232
1257
1234
1166
1076
996
954
948
958
972
995
1035
1071
1067
1013
936
876
831
765
676
615
625
664
629
486
348
382
623
935
1167
1341
1633
2141
2735
3165
3296
3214
3083
2950
2727
2341
1837
1330
907
589
368
237
165
102
10
-100
-195
-271
-363
-483
-603
-695
-760
-797
-764
-608
-336
-54
111
115
22
-88
-202
-371
-624
-920
-1178
-1345
-1415
-1422
-1400
-1363
-1302
-1213
-1115
-1054
-1048
-1062
-1034
-954
-878
-856
-855
-793
-646
-494
-448
-528
-651
-726
-744
-757
-787
-805
-792
-765
-743
-720
-701
-741
-893
-1116
-1274
-1286
-1243
-1337
-1654
-2081
-2429
-2609
-2653
-2594
-2398
-2020
-1492
-898
-289
315
859
1238
1386
1333
1168
937
647
353
174
177
289
371
380
416
572
798
949
938
812
685
634
677
795
941
1049
1067
1011
946
913
891
847
794
785
838
905
918
872
806
746
682
581
408
151
-176
-488
-667
-640
-459
-262
-129
4
254
619
929
1012
862
637
488
420
336
197
68
42
123
237
317
349
357
344
292
193
75
-22
-74
-70
-23
27
40
15
-10
6
53
85
69
21
-1
39
127
208
230
180
102
69
135
272
389
409
318
174
45
-43
-116
-211
-335
-462
-556
-586
-544
-435
-286
-144
-61
-70
-156
-245
-273
-245
-220
-247
-308
-340
-320
-287
-259
-182
18
333
676
998
1387
1958
2677
3329
3700
3772
3691
3569
3370
3008
2500
1979
1561
1255
1007
799
659
598
588
586
579
574
562
532
498
473
459
442
420
408
411
404
366
312
282
284
273
211
130
99
133
163
114
-5
-107
-134
-121
-145
-229
-322
-360
-344
-336
-380
-455
-512
-532
-549
-618
-746
-891
-1003
-1070
-1121
-1182
-1242
-1270
-1257
-1224
-1215
-1265
-1382
-1544
-1698
-1790
-1813
-1814
-1856
-1946
-2016
-2005
-1938
-1906
-1964
-2072
-2139
-2110
-2012
-1891
-1753
-1583
-1386
-1205
-1075
-966
-812
-592
-372
-255
-272
-339
-350
-276
-197
-197
-273
-339
-323
-232
-114
4
119
207
222
157
77
45
32
-52
-226
-388
-416
-315
-207
-184
-207
-197
-145
-116
-144
-182
-188
-178
-173
-131
15
235
389
392
315
307
393
444
344
152
37
80
199
264
254
249
307
393
446
449
438
432
414
378
343
331
328
313
309
375
525
696
795
802
766
727
657
504
278
52
-118
-241
-336
-367
-269
-41
229
447
603
744
894
1005
1024
966
893
856
854
870
907
976
1056
1103
1086
1008
875
697
504
337
219
115
1
-59
9
158
177
-135
-789
-1579
-2275
-2755
-2969
-2860
-2388
-1608
-630
494
1813
3283
4645
5527
5738
5395
4774
4080
3368
2640
1918
1243
645
178
-88
-130
-45
13
-44
-191
-349
-462
-514
-481
-355
-184
-59
-45
-127
-226
-260
-200
-77
44
111
111
77
49
43
42
22
-20
-71
-116
-148
-158
-154
-174
-265
-415
-527
-487
-296
-108
-91
-247
-407
-410
-277
-191
-284
-503
-688
-743
-709
-664
-628
-591
-577
-631
-736
-796
-763
-702
-738
-908
-1118
-1249
-1271
-1238
-1215
-1226
-1244
-1218
-1109
-934
-779
-721
-741
-741
-669
-602
-673
-903
-1137
-1208
-1101
-958
-899
-896
-829
-631
-370
-182
-130
-166
-194
-159
-76
8
47
41
32
65
154
250
285
240
172
158
205
236
179
58
-25
-8
46
35
-66
-171
-208
-218
-282
-400
-476
-434
-325
-282
-353
-433
-380
-169
69
179
138
73
165
522
1111
1773
2321
2637
2706
2582
2311
1885
1277
500
-353
-1146
-1742
-2046
-2041
-1782
-1390
-985
-647
-398
-231
-142
-122
-154
-220
-300
-356
-342
-220
7
281
514
638
629
519
383
310
346
458
568
629
669
739
836
896
886
855
867
909
893
762
567
406
307
210
65
-93
-183
-177
-139
-139
-172
-198
-210
-245
-320
-396
-435
-469
-541
-598
-493
-128
414
947
1393
1860
2477
3182
3725
3904
3758
3490
3236
2952
2532
2000
1532
1275
1205
1146
946
604
236
-64
-314
-585
-899
-1199
-1391
-1429
-1327
-1143
-941
-793
-749
-809
-927
-1049
-1148
-1211
-1219
-1154
-1034
-883
-697
-454
-180
-1
-63
-387
-816
-1132
-1230
-1162
-1048
-955
-868
-748
-578
-390
-239
-184
-246
-379
-494
-524
-454
-318
-139
73
281
412
406
276
88
-104
-318
-622
-1052
-1523
-1862
-1957
-1844
-1675
-1577
-1534
-1451
-1308
-1249
-1471
-2015
-2703
-3281
-3647
-3906
-4221
-4590
-4796
-4563
-3784
-2612
-1349
-243
641
1383
2075
2698
3132
3256
3050
2632
2196
1892
1744
1666
1563
1419
1286
1215
1193
1161
1103
1038
982
928
875
857
890
921
844
565
71
-554
-1183
-1682
-1941
-1906
-1618
-1187
-722
-262
216
702
1116
1355
1372
1214
976
766
667
711
823
851
690
417
260
384
740
1097
1251
1178
993
802
609
355
-6
-483
-1044
-1628
-2139
-2462
-2536
-2379
-2082
-1749
-1460
-1252
-1115
-1014
-927
-860
-821
-763
-601
-321
-32
82
-97
-528
-1045
-1474
-1705
-1715
-1532
-1210
-803
-355
88
455
652
622
406
126
-112
-293
-452
-588
-633
-535
-347
-208
-225
-383
-569
-695
-789
-942
-1196
-1486
-1685
-1709
-1579
-1401
-1293
-1316
-1426
-1504
-1417
-1119
-686
-223
254
822
1521
2240
2779
3029
3053
2980
2864
2653
2278
1736
1086
404
-224
-719
-1040
-1207
-1267
-1228
-1061
-765
-410
-90
152
320
412
406
301
146
8
-84
-143
-188
-213
-197
-129
-11
119
196
165
48
-59
-82
-60
-110
-269
-427
-453
-363
-321
-473
-792
-1119
-1327
-1406
-1422
-1423
-1418
-1397
-1352
-1258
-1092
-864
-613
-367
-117
144
388
565
660
682
638
515
310
63
-175
-377
-551
-691
-774
-793
-773
-737
-676
-573
-452
-373
-361
-384
-391
-370
-349
-344
-338
-311
-264
-203
-114
10
143
243
298
349
449
601
759
882
971
1055
1145
1215
1236
1202
1130
1042
951
853
740
626
550
553
632
741
830
873
895
922
958
977
965
933
911
912
925
925
901
863
833
813
782
699
551
382
276
279
360
431
454
481
595
787
951
1013
1046
1217
1589
2018
2279
2286
2160
2055
1980
1793
1394
853
354
20
-157
-244
-252
-145
83
365
616
792
910
994
1043
1048
1018
981
970
999
1074
1182
1282
1314
1247
1101
939
809
711
631
569
533
524
525
519
502
468
391
265
112
-33
-167
-320
-506
-686
-771
-683
-408
25
556
1076
1425
1448
1100
521
-68
-526
-892
-1276
-1648
-1760
-1344
-408
686
1473
1741
1636
1433
1243
942
391
-338
-983
-1309
-1280
-1045
-777
-554
-382
-271
-277
-440
-730
-1041
-1257
-1330
-1283
-1170
-1035
-914
-829
-797
-817
-879
-965
-1048
-1099
-1103
-1077
-1043
-1010
-968
-905
-842
-819
-851
-918
-980
-1019
-1058
-1130
-1233
-1331
-1396
-1450
-1535
-1666
-1790
-1851
-1851
-1849
-1873
-1896
-1886
-1888
-1993
-2213
-2438
-2533
-2493
-2443
-2480
-2555
-2521
-2303
-1972
-1665
-1463
-1354
-1303
-1292
-1314
-1355
-1399
-1449
-1516
-1586
-1615
-1582
-1500
-1409
-1333
-1271
-1222
-1199
-1202
-1200
-1144
-1019
-861
-722
-616
-521
-426
-343
-287
-239
-159
-35
107
229
314
365
394
399
384
358
323
271
205
140
100
92
110
137
170
207
239
258
269
284
316
354
383
397
407
427
461
499
525
530
519
507
507
521
541
561
581
604
624
633
631
635
655
689
724
752
777
810
861
925
983
1012
1002
974
956
956
952
925
879
836
812
798
781
765
760
762
758
739
716
696
676
652
637
647
682
712
709
667
612
568
539
504
444
364
286
233
207
187
156
117
93
96
114
118
90
39
-10
-47
-86
-139
-195
-240
-273
-314
-382
-489
-634
-791
-890
-844
-633
-346
-104
98
424
1023
1814
2500
2822
2800
2660
2572
2483
2225
1747
1178
693
365
155
13
-65
-77
-55
-60
-123
-211
-265
-257
-214
-190
-204
-222
-212
-211
-306
-533
-819
-1048
-1181
-1278
-1389
-1464
-1393
-1135
-770
-424
-152
66
241
334
305
183
50
-33
-76
-126
-202
-265
-268
-201
-111
-54
-60
-118
-193
-254
-292
-310
-311
-298
-290
-308
-351
-382
-359
-300
-283
-390
-640
-974
-1304
-1573
-1766
-1880
-1905
-1813
-1586
-1240
-819
-390
-18
248
388
411
340
209
49
-102
-216
-279
-295
-270
-209
-114
-1
101
167
187
165
125
101
123
189
260
296
301
322
392
487
537
504
420
363
373
420
430
359
230
112
66
105
187
238
217
140
65
24
-3
-58
-144
-215
-227
-187
-145
-142
-175
-211
-226
-218
-203
-210
-258
-333
-390
-377
-303
-252
-320
-530
-817
-1087
-1290
-1409
-1430
-1336
-1132
-855
-528
-148
283
703
1002
1115
1076
984
918
886
853
804
769
801
916
1078
1224
1297
1282
1208
1121
1049
996
967
969
1002
1050
1086
1097
1091
1081
1109
1010
923
827
769
767
799
810
772
710
669
660
637
547
394
252
197
211
197
97
-24
-54
14
41
-91
-307
-371
-152
218
488
603
782
1252
1941
2526
2747
2645
2456
2316
2147
1814
1313
787
368
82
-108
-241
-326
-380
-450
-572
-744
-924
-1079
-1196
-1279
-1345
-1380
-1353
-1244
-1082
-927
-833
-812
-856
-943
-1033
-1072
-1029
-945
-914
-989
-1099
-1103
-946
-733
-645
-760
-970
-1091
-1030
-874
-798
-890
-1076
-1196
-1165
-1039
-939
-917
-894
-764
-522
-272
-125
-100
-142
-196
-249
-299
-326
-317
-306
-356
-484
-616
-663
-621
-595
-694
-907
-1097
-1132
-1008
-846
-761
-755
-748
-675
-556
-459
-425
-449
-496
-540
-562
-549
-505
-447
-383
-314
-239
-166
-108
-55
18
128
267
402
506
570
595
597
609
649
703
735
740
767
870
1039
1195
1263
1239
1180
1135
1095
1035
947
834
699
560
464
450
499
555
621
759
980
1145
1053
644
94
-351
-613
-810
-1046
-1264
-1296
-1066
-661
-214
199
568
860
1018
1023
923
776
593
367
131
-44
-116
-130
-162
-217
-226
-124
50
185
202
151
161
298
471
517
385
196
85
43
-38
-176
-244
-126
69
74
-245
-732
-1087
-1179
-1125
-1103
-1133
-1094
-869
-449
79
599
1011
1271
1417
1512
1554
1453
1147
726
377
200
100
-87
-359
-546
-512
-350
-284
-400
-521
-370
144
867
1551
2091
2560
3058
3570
3962
4095
3909
3464
2896
2339
1856
1410
955
527
240
168
229
256
160
14
-65
-77
-134
-312
-533
-640
-589
-496
-502
-609
-681
-612
-460
-404
-547
-806
-994
-1021
-971
-999
-1156
-1326
-1355
-1206
-977
-791
-686
-635
-609
-607
-624
-625
-588
-535
-529
-584
-637
-617
-518
-414
-373
-408
-489
-585
-672
-716
-676
-537
-339
-170
-115
-206
-401
-623
-814
-972
-1120
-1249
-1299
-1225
-1062
-903
-812
-761
-697
-624
-600
-649
-729
-792
-858
-977
-1147
-1294
-1331
-1245
-1088
-912
-721
-489
-201
122
436
689
845
905
895
842
757
649
536
455
435
479
572
681
773
826
844
847
849
839
802
746
712
735
797
848
838
765
650
534
444
395
388
399
397
366
324
312
349
399
392
294
148
46
42
92
98
13
-101
-154
-119
-57
-49
-119
-229
-334
-418
-475
-487
-438
-341
-231
-139
-75
-30
14
71
142
199
197
132
66
95
252
461
579
515
308
77
-71
-122
-130
-150
-178
-161
-49
160
413
624
734
735
664
570
468
341
172
-17
-164
-229
-225
-208
-217
-251
-294
-359
-456
-559
-625
-638
-630
-623
-589
-493
-366
-276
-219
-85
249
763
1315
1805
2275
2812
3379
3802
3928
3760
3420
3011
2556
2056
1544
1069
658
314
44
-143
-276
-393
-505
-573
-562
-510
-495
-527
-520
-391
-198
-87
-119
-205
-235
-231
-282
-388
-428
-363
-360
-620
-1124
-1661
-2140
-2754
-3711
-4874
-5745
-5890
-5282
-4216
-2961
-1598
-132
1331
2600
3512
3978
3957
3484
2709
1867
1156
647
314
122
57
85
147
208
240
196
27
-244
-529
-732
-823
-838
-811
-748
-668
-612
-617
-688
-835
-1109
-1591
-2307
-3149
-3887
-4295
-4278
-3933
-3472
-3035
-2584
-1969
-1143
-289
302
482
362
187
123
185
325
511
722
904
1008
1041
1059
1072
1016
830
533
219
1
-45
98
370
637
753
661
443
232
89
-15
-119
-190
-171
-64
48
79
5
-155
-391
-706
-1063
-1367
-1540
-1597
-1606
-1590
-1477
-1184
-732
-249
146
430
627
724
658
426
131
-87
-187
-241
-321
-407
-424
-342
-224
-151
-141
-169
-227
-315
-404
-447
-430
-388
-365
-364
-351
-318
-303
-306
-264
-144
-60
-229
-772
-1566
-2299
-2708
-2743
-2516
-2134
-1606
-893
-3
959
1841
2483
2770
2665
2236
1650
1093
688
445
307
229
213
282
438
627
750
725
533
231
-69
-271
-358
-372
-344
-278
-196
-179
-286
-456
-522
-375
-81
203
446
789
1353
2033
2555
2744
2674
2545
2459
2345
2094
1690
1215
762
402
182
114
146
184
171
129
116
145
160
115
28
-53
-96
-107
-109
-110
-102
-82
-70
-84
-121
-171
-246
-384
-595
-819
-948
-923
-799
-677
-596
-493
-279
63
453
771
933
926
809
674
572
474
315
103
-44
22
317
697
978
1086
1077
1025
935
750
442
67
-285
-556
-750
-891
-973
-957
-826
-642
-523
-538
-636
-685
-607
-456
-353
-337
-310
-141
205
629
984
1180
1212
1142
1038
949
885
824
744
651
587
618
820
1250
1909
2713
3493
4056
4286
4178
3822
3317
2706
1991
1195
429
-133
-357
-248
37
296
406
366
253
126
-5
-157
-327
-464
-499
-413
-274
-185
-196
-269
-355
-460
-639
-881
-1082
-1120
-964
-675
-319
71
434
657
656
473
260
131
78
29
-43
-99
-121
-151
-237
-365
-470
-521
-555
-623
-716
-754
-674
-495
-309
-197
-173
-198
-233
-279
-356
-453
-536
-589
-628
-672
-701
-665
-551
-408
-316
-320
-394
-492
-611
-792
-1077
-1441
-1789
-2024
-2111
-2088
-2010
-1897
-1728
-1492
-1230
-1018
-912
-915
-994
-1104
-1226
-1373
-1540
-1679
-1709
-1606
-1454
-1372
-1372
-1324
-1102
-742
-411
-186
72
569
1305
2021
2452
2574
2575
2599
2580
2352
1865
1254
710
320
58
-131
-259
-314
-303
-271
-267
-299
-348
-382
-382
-361
-334
-296
-215
-76
93
229
301
329
352
378
377
319
222
143
126
145
149
114
67
48
59
68
64
68
91
78
-62
-367
-753
-1072
-1226
-1235
-1184
-1119
-1018
-835
-567
-278
-52
51
19
-119
-310
-502
-665
-792
-891
-964
-1010
-1031
-1043
-1066
-1113
-1187
-1288
-1401
-1506
-1578
-1590
-1538
-1441
-1332
-1244
-1191
-1159
-1122
-1067
-1005
-947
-890
-818
-720
-603
-484
-376
-273
-166
-67
0
30
49
93
162
215
202
113
-32
-195
-338
-421
-412
-307
-149
11
171
381
680
1034
1331
1476
1456
1349
1244
1172
1090
946
737
527
394
364
397
440
479
533
595
603
512
373
319
408
508
361
-199
-1051
-1862
-2339
-2427
-2278
-2036
-1690
-1132
-328
609
1479
2125
2473
2496
2216
1734
1242
915
788
750
680
593
604
790
1075
1291
1325
1187
951
684
437
265
211
285
438
605
737
796
768
696
660
720
853
985
1057
1053
945
671
208
-342
-784
-986
-983
-918
-877
-801
-565
-143
333
678
797
722
547
331
112
-28
1
216
528
835
1167
1664
2376
3119
3597
3655
3394
3046
2751
2493
2189
1807
1386
991
675
448
279
129
-6
-97
-120
-91
-61
-54
-45
-14
18
13
-29
-66
-69
-58
-75
-128
-174
-171
-119
-57
-8
41
116
206
269
282
270
273
301
317
300
274
280
315
339
319
272
247
268
319
367
394
380
310
201
95
20
-38
-110
-200
-263
-266
-231
-209
-219
-235
-232
-232
-275
-363
-464
-540
-590
-632
-668
-692
-702
-717
-756
-818
-888
-947
-972
-949
-892
-837
-812
-798
-762
-689
-617
-590
-601
-600
-550
-467
-398
-370
-361
-317
-208
-51
102
203
256
306
391
507
598
611
543
445
371
349
374
425
470
486
488
532
660
835
948
912
742
547
416
342
262
142
16
-71
-99
-76
-15
72
154
184
134
19
-111
-213
-267
-287
-303
-337
-378
-376
-285
-112
72
187
211
178
140
127
138
152
149
115
76
78
133
217
290
331
351
387
465
571
647
642
583
578
701
874
894
632
181
-236
-469
-541
-525
-417
-184
154
536
958
1454
1978
2350
2397
2134
1773
1514
1356
1189
966
765
683
703
733
736
778
945
1222
1496
1693
1902
2310
2986
3752
4302
4467
4328
4068
3756
3317
2693
1963
1283
756
380
116
-52
-131
-159
-166
-153
-103
-35
-2
-18
-43
-23
55
145
182
148
88
66
97
116
28
-184
-428
-569
-568
-508
-486
-503
-480
-367
-210
-89
-32
-5
8
-15
-89
-168
-176
-94
17
74
52
4
-13
-8
-52
-207
-457
-715
-907
-1019
-1071
-1071
-1014
-908
-814
-800
-866
-944
-968
-962
-997
-1101
-1212
-1246
-1203
-1161
-1181
-1230
-1228
-1155
-1075
-1059
-1097
-1120
-1075
-966
-821
-663
-528
-467
-500
-545
-482
-273
-35
85
73
75
243
561
839
911
786
610
522
529
547
509
435
398
428
498
576
673
801
913
922
796
623
525
524
523
440
315
254
305
409
484
520
537
516
407
222
66
39
117
174
114
-33
-165
-224
-246
-289
-372
-459
-514
-533
-529
-511
-474
-415
-342
-283
-256
-263
-299
-350
-399
-422
-399
-331
-242
-151
-54
98
328
578
736
737
630
535
527
569
562
469
363
351
491
781
1220
1818
2532
3196
3583
3557
3176
2624
2042
1439
763
42
-569
-894
-878
-619
-288
-28
115
162
127
15
-161
-346
-468
-529
-584
-633
-556
-192
460
1181
1736
2119
2535
3128
3773
4198
4277
4120
3878
3543
3033
2416
1966
1918
2232
2606
2751
2590
2244
1871
1534
1190
748
144
-582
-1259
-1673
-1723
-1512
-1292
-1283
-1522
-1858
-2080
-2074
-1894
-1692
-1603
-1632
-1654
-1526
-1229
-892
-689
-703
-884
-1101
-1255
-1316
-1298
-1217
-1094
-968
-885
-871
-922
-1001
-1060
-1045
-914
-693
-466
-337
-350
-464
-600
-696
-728
-684
-555
-370
-191
-91
-101
-192
-328
-512
-774
-1113
-1464
-1739
-1895
-1957
-1982
-2028
-2155
-2428
-2864
-3376
-3796
-4013
-4077
-4121
-4173
-4052
-3514
-2524
-1335
-294
433
935
1375
1780
2058
2156
2126
2046
1953
1856
1809
1883
2035
2117
2033
1844
1683
1568
1411
1247
1383
2170
3557
4945
5615
5370
4692
4190
3889
3170
1432
-1186
-3818
-5547
-6057
-5648
-4799
-3824
-2869
-2041
-1380
-789
-154
453
764
596
127
-177
45
768
1642
2270
2458
2259
1869
1489
1217
1025
838
643
512
511
639
823
997
1120
1143
1020
755
440
190
57
7
-22
-52
-81
-122
-212
-361
-520
-604
-562
-419
-252
-145
-136
-186
-224
-206
-148
-111
-124
-153
-146
-88
-12
44
74
93
102
85
38
-32
-125
-252
-429
-647
-867
-1027
-1085
-1063
-1049
-1118
-1233
-1257
-1095
-790
-473
-180
212
828
1615
2353
2841
3067
3130
3078
2850
2379
1701
953
275
-259
-636
-876
-1007
-1058
-1039
-966
-875
-826
-871
-1002
-1152
-1266
-1329
-1360
-1368
-1345
-1298
-1257
-1233
-1208
-1153
-1064
-974
-920
-921
-979
-1089
-1234
-1373
-1460
-1468
-1407
-1290
-1119
-889
-613
-315
-30
200
332
349
287
227
221
238
205
103
-8
-52
-27
-1
-32
-114
-204
-278
-349
-416
-459
-466
-464
-489
-544
-603
-651
-711
-805
-911
-981
-993
-974
-954
-925
-855
-742
-632
-559
-499
-409
-289
-195
-175
-205
-211
-145
-34
52
69
48
67
179
351
481
473
319
112
-25
-37
36
116
172
240
373
574
791
967
1080
1126
1096
983
814
654
564
546
536
487
416
384
430
520
572
539
450
387
416
533
687
825
929
1005
1049
1033
941
794
640
516
425
358
316
320
378
476
589
690
760
792
792
786
794
812
812
781
734
698
687
705
749
815
871
889
887
944
1129
1422
1709
1887
1946
1950
1947
1913
1800
1633
1512
1526
1667
1840
1951
1984
1986
2003
2012
1938
1721
1380
1026
767
647
633
663
692
726
797
919
1055
1126
1078
950
861
910
1085
1306
1557
1916
2448
3056
3512
3648
3497
3228
2965
2684
2290
1763
1249
964
1024
1347
1703
1877
1818
1636
1439
1188
733
12
-811
-1442
-1722
-1749
-1736
-1782
-1810
-1711
-1515
-1361
-1346
-1428
-1491
-1475
-1397
-1289
-1146
-951
-728
-554
-486
-523
-622
-737
-842
-923
-970
-969
-932
-896
-893
-940
-1025
-1125
-1219
-1298
-1360
-1405
-1425
-1406
-1334
-1203
-1039
-902
-849
-882
-952
-1016
-1090
-1232
-1475
-1781
-2074
-2299
-2453
-2555
-2609
-2613
-2575
-2508
-2433
-2364
-2313
-2286
-2288
-2306
-2315
-2303
-2272
-2230
-2179
-2113
-2022
-1907
-1790
-1689
-1598
-1492
-1369
-1250
-1158
-1090
-1022
-935
-843
-764
-700
-638
-572
-511
-439
-319
-128
102
299
404
408
342
242
122
-17
-178
-368
-571
-741
-822
-796
-700
-596
-528
-502
-495
-478
-423
-324
-212
-140
-125
-116
-42
99
235
312
341
365
393
391
350
303
283
278
261
252
280
319
313
293
446
983
1919
3005
3902
4409
4511
4285
3778
3003
1992
819
-395
-1485
-2245
-2511
-2271
-1690
-1012
-414
44
387
623
745
740
609
399
184
49
49
171
359
551
706
780
722
533
299
154
168
276
345
317
231
149
75
-14
-113
-185
-221
-247
-253
-168
48
315
503
611
798
1205
1745
2148
2230
2063
1872
1774
1680
1448
1066
657
344
145
17
-70
-121
-152
-195
-276
-373
-434
-451
-462
-495
-538
-535
-454
-337
-270
-294
-359
-365
-268
-123
-12
58
189
475
891
1298
1554
1616
1512
1250
810
202
-469
-1063
-1512
-1848
-2108
-2259
-2212
-1945
-1559
-1200
-963
-841
-777
-740
-748
-814
-902
-946
-913
-835
-778
-780
-817
-836
-809
-771
-778
-852
-957
-1019
-985
-862
-719
-639
-660
-752
-851
-896
-863
-775
-673
-588
-521
-458
-393
-352
-357
-387
-387
-332
-267
-254
-288
-278
-149
64
238
288
251
228
270
348
409
436
454
477
487
475
480
558
708
847
872
770
636
584
639
721
736
674
586
490
346
117
-161
-405
-572
-687
-786
-843
-786
-594
-341
-138
-29
43
140
252
296
226
95
-1
-19
5
7
-24
-39
-4
40
14
-103
-251
-354
-396
-427
-473
-492
-413
-225
-9
140
207
255
335
434
503
518
497
466
428
382
357
386
460
535
577
596
625
669
696
674
622
588
594
611
599
563
537
545
566
550
475
386
350
374
400
360
245
84
-95
-278
-433
-490
-403
-208
21
278
659
1240
1945
2554
2882
2938
2865
2771
2621
2313
1824
1261
780
482
365
359
386
392
342
230
77
-87
-247
-413
-591
-766
-911
-995
-1002
-934
-811
-671
-578
-582
-669
-766
-815
-838
-904
-1038
-1177
-1232
-1178
-1059
-923
-775
-626
-509
-459
-478
-526
-577
-648
-753
-862
-922
-922
-890
-817
-650
-375
-87
43
-72
-337
-569
-669
-712
-836
-1064
-1267
-1301
-1149
-936
-787
-740
-747
-768
-815
-924
-1092
-1265
-1377
-1398
-1364
-1336
-1321
-1269
-1127
-916
-731
-650
-638
-576
-384
-112
97
152
89
8
-29
-44
-88
-168
-234
-230
-141
12
196
383
537
632
661
653
641
640
634
607
575
576
622
688
735
766
814
886
927
863
704
545
485
517
532
449
299
176
123
103
62
15
18
81
148
165
140
126
146
170
161
113
36
-57
-146
-195
-166
-68
43
118
164
233
352
483
547
506
405
328
323
365
375
317
235
216
306
456
563
566
495
418
374
353
321
279
251
257
301
379
480
574
611
565
470
393
363
339
262
127
-1
-61
-73
-91
-139
-202
-248
-267
-281
-307
-365
-460
-562
-606
-534
-342
-57
304
767
1357
2026
2666
3156
3421
3439
3241
2901
2490
2011
1400
631
-174
-796
-1098
-1140
-1099
-1075
-1030
-879
-603
-279
-3
175
232
179
69
-37
-127
-240
-392
-527
-566
-511
-442
-445
-527
-630
-699
-709
-657
-579
-542
-583
-661
-661
-514
-287
-127
-117
-209
-313
-394
-477
-571
-651
-709
-784
-906
-1034
-1086
-1032
-943
-910
-950
-1000
-991
-922
-857
-850
-892
-950
-1015
-1116
-1265
-1414
-1501
-1524
-1532
-1562
-1601
-1611
-1588
-1563
-1535
-1465
-1332
-1179
-1062
-993
-940
-882
-835
-823
-839
-856
-859
-842
-794
-693
-543
-369
-185
9
197
339
398
396
384
383
366
311
248
236
290
375
468
579
712
828
870
838
785
765
765
724
617
495
446
500
577
568
454
325
271
265
209
78
-28
-15
67
82
3
-5
227
646
1005
1119
1045
966
958
915
712
351
-34
-318
-469
-532
-554
-538
-458
-310
-158
-99
-158
-234
-174
56
327
477
502
538
680
849
883
732
493
285
119
-54
-233
-334
-281
-100
104
237
285
274
226
142
39
-53
-113
-155
-187
-195
-148
-32
100
158
98
-24
-114
-135
-124
-141
-196
-254
-291
-307
-281
-150
126
510
920
1338
1839
2476
3164
3695
3913
3822
3534
3128
2622
2019
1368
732
147
-366
-759
-976
-1010
-928
-847
-840
-883
-899
-836
-705
-574
-506
-500
-494
-433
-327
-243
-227
-276
-339
-372
-368
-345
-314
-283
-269
-288
-348
-432
-513
-570
-593
-583
-546
-489
-438
-430
-486
-590
-693
-752
-771
-792
-837
-877
-846
-727
-586
-512
-516
-540
-553
-594
-713
-876
-1000
-1055
-1093
-1162
-1203
-1117
-927
-840
-1116
-1838
-2817
-3697
-4181
-4220
-4014
-3817
-3680
-3387
-2667
-1515
-260
693
1195
1411
1589
1822
2055
2220
2303
2306
2218
2058
1910
1864
1884
1845
1650
1328
1007
797
738
804
961
1179
1386
1448
1246
779
184
-378
-888
-1456
-2148
-2835
-3265
-3295
-3009
-2580
-2060
-1336
-324
872
1983
2778
3214
3396
3440
3377
3181
2852
2437
2023
1679
1418
1216
1044
892
761
644
519
376
227
107
28
-21
-50
-75
-96
-126
-173
-211
-202
-145
-97
-125
-239
-398
-547
-663
-727
-712
-637
-626
-849
-1371
-2061
-2686
-3079
-3202
-3086
-2744
-2191
-1478
-677
160
984
1677
2059
2029
1663
1165
718
375
111
-86
-175
-136
-17
97
139
96
-26
-226
-518
-910
-1328
-1620
-1674
-1517
-1311
-1208
-1233
-1312
-1404
-1542
-1740
-1899
-1865
-1579
-1118
-584
14
716
1485
2161
2592
2761
2754
2614
2284
1717
998
320
-161
-458
-696
-939
-1109
-1095
-920
-752
-736
-842
-924
-881
-764
-681
-644
-606
-641
-1010
-1955
-3381
-4795
-5614
-5603
-5016
-4313
-3731
-3119
-2193
-916
371
1209
1388
1082
635
297
123
79
124
216
295
303
257
227
248
243
93
-244
-673
-1028
-1180
-1102
-870
-611
-441
-423
-564
-819
-1105
-1325
-1408
-1348
-1216
-1115
-1118
-1223
-1358
-1453
-1507
-1561
-1634
-1682
-1650
-1561
-1499
-1512
-1535
-1481
-1376
-1390
-1659
-2130
-2569
-2770
-2700
-2459
-2128
-1708
-1168
-524
157
799
1313
1591
1547
1211
758
396
216
155
105
37
29
142
348
544
644
628
530
390
235
100
25
35
109
192
230
202
124
22
-77
-151
-191
-191
-151
-81
4
82
136
172
211
278
378
487
567
590
566
528
515
528
542
537
526
544
601
670
712
714
702
708
736
770
798
829
878
944
1012
1066
1105
1145
1201
1274
1354
1423
1484
1547
1627
1715
1782
1801
1772
1723
1692
1689
1700
1705
1692
1665
1649
1666
