297
281
259
250
252
247
225
204
206
224
228
216
227
278
326
313
240
176
169
191
181
134
106
131
172
174
135
106
113
122
87
12
-56
-92
-120
-179
-280
-392
-479
-537
-602
-701
-816
-878
-846
-745
-642
-560
-451
-270
-54
120
241
392
638
923
1115
1156
1126
1130
1170
1145
986
739
516
387
329
287
242
217
239
310
398
462
474
444
412
402
399
367
299
231
211
248
314
360
364
332
288
258
262
299
345
359
319
249
200
204
245
275
264
229
209
233
285
309
261
153
49
19
61
110
107
69
57
92
117
77
-8
-55
-24
43
84
98
149
279
439
550
586
587
597
620
618
559
456
359
311
322
360
377
355
324
333
385
430
421
362
310
305
333
356
365
381
415
446
454
459
507
609
722
793
821
842
895
988
1108
1238
1356
1437
1479
1524
1611
1728
1813
1833
1831
1880
1991
2095
2141
2168
2253
2401
2531
2574
2569
2619
2767
2949
3080
3155
3235
3366
3521
3638
3699
3728
3755
3778
3789
3800
3834
3893
3964
4033
4105
4204
4323
4430
4489
4499
4492
4500
4520
4523
4489
4433
4398
4399
4402
4358
4262
4158
4092
4057
4007
3920
3818
3725
3635
3535
3444
3399
3393
3357
3229
3043
2903
2867
2865
2774
2564
2351
2263
2308
2363
2306
2147
1999
1957
2006
2046
1995
1857
1695
1578
1517
1473
1389
1244
1061
888
756
642
500
311
104
-81
-235
-382
-544
-699
-813
-895
-989
-1121
-1271
-1400
-1512
-1634
-1769
-1880
-1942
-1982
-2053
-2161
-2251
-2282
-2277
-2308
-2407
-2532
-2612
-2632
-2647
-2716
-2826
-2902
-2883
-2795
-2727
-2735
-2798
-2846
-2853
-2857
-2918
-3043
-3195
-3343
-3491
-3646
-3791
-3892
-3946
-3975
-3975
-3904
-3720
-3447
-3145
-2847
-2529
-2166
-1792
-1455
-1142
-783
-346
82
374
493
543
636
766
813
695
466
256
153
133
135
130
135
167
220
283
347
405
439
441
429
430
446
461
464
475
521
591
633
609
548
506
508
518
493
441
406
398
372
291
179
108
109
146
161
144
134
155
187
192
166
142
141
152
141
97
53
45
82
121
119
73
29
20
26
2
-58
-99
-86
-59
-99
-219
-335
-366
-336
-346
-450
-593
-678
-677
-639
-617
-612
-612
-630
-690
-776
-840
-860
-869
-913
-989
-1044
-1032
-954
-845
-741
-659
-601
-559
-514
-456
-406
-394
-425
-459
-453
-411
-380
-383
-381
-314
-173
-25
47
25
-38
-70
-38
48
157
257
330
379
433
519
623
692
670
555
389
229
101
-6
-114
-243
-391
-1108
-957
-762
-475
-100
293
641
953
1273
2736
2937
3083
3081
3003
2974
3005
2993
2862
2642
2405
2185
1966
1757
1587
1453
1294
1071
812
574
361
114
-212
-592
-969
-1318
-1653
-1978
-2264
-2483
-2651
-2810
-2986
-3169
-3334
-3466
-3559
-3617
-3649
-3661
-3624
-3486
-3228
-2919
-2659
-2478
-2293
-1998
-1610
-1262
-1041
-878
-639
-297
35
273
482
786
1181
1515
1686
1783
1971
2274
2535
2611
2551
2530
2638
2797
2893
2936
3026
3209
3414
3542
3577
3576
3584
3586
3576
3566
3545
3438
3189
2905
2832
3128
3718
4373
4914
5286
5450
5339
4981
4608
4506
4722
5028
5231
5471
6090
7205
8502
9507
10009
10154
10189
10198
10134
9979
9793
9649
9577
9603
9753
10021
10343
10645
10866
10957
10869
10606
10281
10064
10021
10071
10104
10095
10081
10046
9911
9664
9409
9263
9196
9053
8719
8225
7693
7188
6700
6218
5784
5439
5167
4914
4637
4327
3974
3570
3125
2674
2244
1817
1387
991
670
420
185
-67
-310
-491
-603
-700
-819
-938
-1017
-1052
-1088
-1169
-1307
-1499
-1741
-2006
-2218
-2317
-2339
-2405
-2582
-2788
-2875
-2821
-2779
-2897
-3137
-3310
-3306
-3215
-3203
-3302
-3379
-3327
-3203
-3154
-3252
-3421
-3552
-3623
-3695
-3818
-3957
-4048
-4057
-4000
-3920
-3851
-3814
-3826
-3887
-3976
-4059
-4112
-4146
-4176
-4188
-4151
-4051
-3927
-3855
-3874
-3960
-4054
-4122
-4169
-4215
-4253
-4272
-4290
-4334
-4390
-4404
-4342
-4246
-4206
-4267
-4379
-4445
-4418
-4328
-4243
-4197
-4182
-4176
-4171
-4184
-4243
-4349
-4467
-4550
-4563
-4527
-4488
-4455
-4383
-4235
-4032
-3854
-3749
-3693
-3632
-3561
-3516
-3493
-3434
-3305
-3174
-3141
-3190
-3166
-2951
-2625
-2390
-2346
-2396
-2384
-2281
-2175
-2103
-1984
-1742
-1453
-1269
-1233
-1206
-1042
-786
-644
-752
-1019
-1214
-1205
-1069
-967
-953
-936
-806
-572
-351
-236
-190
-126
-24
42
3
-101
-177
-178
-157
-185
-260
-324
-353
-378
-432
-494
-533
-556
-591
-647
-697
-747
-850
-1026
-1231
-1403
-1551
-1753
-2016
-2220
-2253
-2145
-2055
-2077
-2126
-2060
-1870
-1711
-1707
-1809
-1882
-1887
-1935
-2119
-2380
-2566
-2616
-2635
-2739
-2890
-2906
-2669
-2284
-1974
-1843
-1762
-1526
-1096
-636
-300
-70
199
554
861
961
854
691
581
466
233
-112
-417
-560
-576
-590
-641
-638
-490
-259
-102
-91
-122
-50
114
200
84
-118
-155
101
524
869
1028
1106
1264
1526
1789
1950
2008
2028
2055
2090
2112
2115
2108
2094
2079
2067
2058
2034
1977
1893
1791
1677
1549
1414
1300
1244
1241
1263
1290
1327
1379
1401
1338
1208
1104
1098
1144
1113
938
693
502
382
236
2
-237
-334
-252
-112
-49
-56
-19
117
265
303
209
71
-38
-127
-243
-389
-536
-655
-731
-732
-645
-531
-488
-544
-610
-595
-554
-625
-818
-942
-809
-490
-254
-266
-371
-289
30
337
385
211
77
141
315
414
394
371
448
596
725
824
960
1152
1308
1318
1194
1093
1162
1385
1612
1733
1789
1905
2123
2366
2557
2721
2921
3153
3331
3402
3441
3544
3686
3741
3631
3436
3318
3318
3333
3242
3036
2815
2652
2534
2395
2198
1956
1715
1510
1343
1168
932
636
370
223
187
162
60
-110
-279
-409
-508
-586
-637
-676
-760
-906
-1032
-1032
-899
-760
-737
-799
-807
-676
-467
-295
-200
-144
-95
-72
-81
-74
6
145
273
337
358
404
518
684
848
949
942
846
741
708
747
769
687
517
365
319
369
430
433
372
280
189
108
32
-59
-177
-313
-424
-480
-489
-496
-522
-546
-551
-550
-571
-614
-643
-651
-710
-893
-1169
-1403
-1505
-1552
-1714
-2033
-2324
-2367
-2157
-1927
-1880
-1945
-1872
-1531
-1064
-719
-573
-504
-382
-232
-176
-254
-409
-576
-778
-1073
-1446
-1795
-2032
-2161
-2260
-2377
-2462
-2426
-2259
-2069
-2006
-2129
-2365
-2595
-2779
-2966
-3195
-3443
-3655
-3795
-3843
-3780
-3631
-3490
-3475
-3602
-3753
-3812
-3807
-3870
-4077
-4355
-4577
-4699
-4793
-4934
-5115
-5295
-5477
-5711
-6018
-6347
-6610
-6774
-6891
-7048
-7273
-7509
-7672
-7774
-7943
-8293
-8772
-9178
-9349
-9323
-9289
-9366
-9474
-9438
-9210
-8923
-8748
-8741
-8830
-8943
-9082
-9273
-9480
-9626
-9670
-9653
-9647
-9664
-9625
-9440
-9099
-8678
-8260
-7863
-7441
-6956
-6439
-5960
-5535
-5115
-4661
-4223
-3905
-3717
-3521
-3157
-2603
-1999
-1486
-1075
-681
-255
176
599
1056
1575
2082
2467
2742
3073
3608
4293
4905
5293
5514
5728
6002
6250
6368
6368
6328
6272
6148
5922
5639
5353
5033
4606
4072
3566
3247
3183
3374
3815
4500
5323
6079
6599
6884
7040
7071
6821
6157
5172
4147
3318
2719
2261
1896
1643
1487
1329
1086
791
539
345
104
-265
-681
-924
-835
-475
-74
190
324
443
619
823
988
1104
1233
1432
1695
1990
2327
2772
3359
3993
4482
4705
4745
4808
4992
5156
5093
4786
4452
4300
4303
4276
4119
3921
3790
3683
3484
3189
2937
2846
2872
2891
2858
2843
2932
3108
3276
3355
3348
3315
3311
3336
3331
3230
3059
2936
2955
3089
3189
3143
2985
2858
2877
3010
3124
3116
3002
2875
2796
2738
2643
2538
2535
2688
2894
2960
2806
2563
2430
2443
2434
2229
1865
1554
1474
1571
1644
1565
1405
1322
1378
1478
1508
1470
1468
1586
1796
2035
2312
2692
3174
3634
3930
4050
4110
4197
4255
4166
3916
3643
3491
3462
3444
3373
3309
3351
3496
3653
3755
3842
3989
4189
4357
4423
4411
4407
4472
4594
4724
4832
4924
5021
5130
5240
5323
5361
5361
5361
5392
5455
5508
5503
5448
5406
5435
5518
5579
5584
5608
5732
5904
5943
5720
5318
4947
4704
4470
4083
3569
3129
2911
2872
2864
2826
2799
2817
2828
2770
2655
2537
2437
2330
2203
2092
2038
2043
2073
2101
2120
2104
2046
1989
2013
2147
2320
2436
2486
2558
2722
2915
2993
2888
2692
2557
2539
2556
2513
2424
2370
2381
2383
2297
2147
2022
1971
1949
1870
1699
1484
1287
1138
1025
919
802
690
614
590
581
545
473
399
328
197
-58
-407
-735
-949
-1070
-1194
-1373
-1560
-1669
-1687
-1677
-1724
-1860
-2052
-2241
-2396
-2546
-2712
-2866
-2963
-3012
-3109
-3348
-3669
-3871
-3812
-3574
-3393
-3403
-3510
-3515
-3347
-3129
-3016
-3038
-3108
-3139
-3109
-3033
-2919
-2786
-2679
-2624
-2598
-2562
-2510
-2470
-2467
-2469
-2438
-2369
-2299
-2245
-2172
-2052
-1904
-1782
-1721
-1703
-1682
-1639
-1586
-1532
-1464
-1367
-1251
-1157
-1120
-1141
-1181
-1179
-1098
-950
-798
-702
-658
-596
-462
-293
-192
-196
-216
-139
51
247
348
381
461
648
879
1038
1080
1046
1006
1009
1068
1159
1216
1191
1114
1113
1291
1607
1892
2004
1971
1927
1956
2011
2001
1912
1832
1850
1964
2084
2130
2115
2116
2183
2264
2231
2021
1709
1447
1275
1078
733
316
69
142
426
682
813
962
1300
1787
2212
2430
2523
2691
3039
3512
3986
4401
4756
5062
5323
5554
5750
5872
5850
5662
5380
5122
4965
4897
4858
4817
4772
4725
4648
4525
4361
4164
3904
3542
3113
2732
2508
2433
2375
2206
1921
1617
1374
1174
945
664
377
156
19
-56
-104
-149
-200
-245
-269
-263
-252
-297
-445
-680
-927
-1108
-1217
-1309
-1443
-1626
-1819
-1979
-2099
-2209
-2358
-2576
-2846
-3113
-3322
-3461
-3563
-3668
-3780
-3872
-3930
-3983
-4059
-4150
-4222
-4264
-4309
-4386
-4478
-4538
-4563
-4599
-4694
-4827
-4924
-4951
-4951
-4987
-5059
-5094
-5041
-4926
-4820
-4748
-4668
-4546
-4405
-4286
-4188
-4055
-3853
-3604
-3354
-3110
-2832
-2500
-2144
-1817
-1526
-1236
-914
-570
-241
56
320
556
760
920
1050
1170
1286
1400
1519
1658
1827
2023
2240
2481
2751
3038
4147
4177
4212
4261
4320
4369
4382
4347
4280
4211
4160
4115
4057
3983
3916
3883
3873
3854
3802
3723
3643
3571
3496
3408
3321
3253
3210
3177
3144
3122
3127
3164
3216
3266
3308
3355
3419
3497
3585
3692
3827
3980
4111
4185
4206
4215
4244
4272
4248
4143
3983
3825
3709
3639
3608
3618
3680
3771
3821
3761
3589
3380
3214
3079
2873
2519
2083
1746
1640
1709
1774
1718
1589
1520
1549
1579
1510
1371
1280
1295
1345
1328
1243
1200
1287
1474
1652
1740
1722
1604
1378
1054
693
358
46
-294
-670
-998
-1170
-1165
-1059
-924
-774
-609
-490
-494
-613
-738
-788
-821
-991
-1359
-1789
-2073
-2136
-2109
-2169
-2343
-2498
-2522
-2453
-2386
-2307
-2086
-1670
-1226
-1010
-1103
-1334
-1488
-1562
-1745
-2179
-2768
-3277
-3561
-3667
-3715
-3761
-3779
-3737
-3657
-3590
-3565
-3580
-3624
-3683
-3736
-3762
-3741
-3656
-3502
-3284
-3023
-2753
-2503
-2285
-2097
-1911
-1695
-1434
-1161
-916
-690
-425
-79
303
615
809
968
1230
1636
2062
2336
2404
2374
2399
2510
2609
2595
2474
2337
2251
2203
2153
2090
2028
1957
1844
1681
1509
1398
1383
1447
1545
1634
1706
1810
2023
2367
2750
3044
3225
3415
3753
4221
4666
4988
5259
5620
6091
6557
6905
7154
7407
7708
8010
8247
8406
8512
8582
8629
8661
8682
8664
8566
8380
8142
7887
7633
7369
7089
6787
6447
6060
5641
5230
4844
4450
3992
3460
2904
2394
1945
1519
1064
564
61
-390
-763
-1085
-1403
-1740
-2073
-2356
-2563
-2711
-2822
-2902
-2929
-2901
-2841
-2771
-2692
-2609
-2540
-2502
-2478
-2436
-2377
-2345
-2381
-2474
-2570
-2633
-2670
-2688
-2678
-2644
-2636
-2687
-2753
-2745
-2652
-2597
-2696
-2902
-3039
-2996
-2856
-2803
-2905
-3048
-3084
-3004
-2930
-2957
-3052
-3129
-3132
-3095
-3082
-3124
-3196
-3249
-3258
-3250
-3288
-3403
-3550
-3647
-3674
-3697
-3793
-3946
-4057
-4054
-3983
-3954
-4019
-4114
-4139
-4066
-3957
-3874
-3829
-3788
-3712
-3605
-3499
-3418
-3353
-3278
-3188
-3104
-3036
-2955
-2823
-2635
-2451
-2337
-2285
-2233
-2140
-2029
-1937
-1854
-1733
-1548
-1333
-1130
-934
-716
-487
-299
-186
-120
-56
15
67
91
104
131
162
164
127
64
-13
-124
-308
-565
-826
-987
-995
-906
-830
-808
-758
-566
-230
131
413
637
892
1175
1366
1374
1263
1162
1083
903
549
135
-148
-242
-273
-367
-495
-536
-458
-354
-311
-297
-227
-95
11
27
-1
34
173
346
459
487
487
523
599
663
664
618
593
648
778
907
966
960
965
1056
1224
1389
1470
1466
1442
1464
1527
1570
1554
1505
1483
1509
1542
1530
1477
1436
1437
1457
1450
1406
1366
1368
1403
1443
1469
1494
1541
1594
1618
1597
1549
1497
1433
1315
1126
895
683
517
380
237
77
-88
-247
-396
-538
-680
-848
-1071
-1343
-1615
-1833
-1996
-2155
-2340
-2519
-2640
-2697
-2750
-2852
-2994
-3133
-3239
-3331
-3449
-3610
-3780
-3908
-3952
-3920
-3883
-3902
-3966
-3990
-3913
-3778
-3691
-3705
-3758
-3757
-3691
-3622
-3606
-3632
-3649
-3636
-3616
-3615
-3626
-3640
-3658
-3673
-3665
-3609
-3521
-3440
-3375
-3291
-3156
-2995
-2870
-2805
-2760
-2687
-2572
-2434
-2294
-2155
-2016
-1878
-1726
-1531
-1289
-1059
-911
-846
-779
-623
-411
-264
-243
-269
-211
-46
117
184
207
312
530
755
870
895
958
1125
1335
1483
1556
1629
1767
1954
2130
2262
2369
2479
2592
2694
2777
2844
2900
2943
2984
3027
3064
3080
3065
3022
2962
2878
2756
2594
2401
2195
1984
1769
1563
1389
1286
1266
1307
1361
1402
1438
1488
1536
1540
1457
1292
1085
873
669
463
253
60
-93
-200
-289
-396
-540
-700
-839
-936
-999
-1066
-1163
-1271
-1345
-1362
-1346
-1355
-1422
-1518
-1589
-1610
-1615
-1644
-1687
-1711
-1730
-1804
-1947
-2059
-2014
-1813
-1599
-1476
-1361
-1068
-539
73
589
1004
1448
1979
2472
2753
2802
2741
2684
2630
2528
2365
2179
2007
1874
1822
1874
1983
2043
2000
1903
1845
1839
1812
1721
1624
1605
1660
1703
1686
1661
1701
1784
1809
1704
1516
1354
1268
1207
1106
979
881
823
789
746
681
575
405
175
-93
-416
-874
-1512
-2225
-2765
-2923
-2687
-2189
-1551
-790
117
1106
2006
2627
2888
2821
2498
1932
1090
-16
-1210
-2184
-2698
-2753
-2535
-2186
-1681
-961
-134
549
865
816
547
172
-300
-869
-1447
-1884
-2076
-2047
-1926
-1854
-1893
-1995
-2084
-2182
-2418
-2911
-3620
-4373
-5022
-5552
-6025
-6445
-6750
-6926
-7066
-7286
-7615
-7950
-8175
-8286
-8386
-8584
-8918
-9356
-9848
-10345
-10812
-11233
-11620
-11986
-12303
-12504
-12524
-12390
-12226
-12157
-12183
-12169
-11969
-11588
-11171
-10851
-10603
-10284
-9783
-9142
-8524
-8064
-7758
-7477
-7094
-6580
-6017
-5507
-5075
-4645
-4127
-3505
-2838
-2189
-1568
-965
-403
87
515
934
1376
1823
2258
2715
3233
3786
4270
4638
4969
5359
5780
6079
6168
6157
6259
6566
6974
7320
7574
7832
8165
8515
8757
8847
8848
8838
8815
8726
8564
8391
8276
8214
8132
7961
7694
7392
7110
6853
6581
6258
5887
5519
5195
4921
4663
4383
4083
3789
3527
3292
3059
2818
2595
2423
2300
2179
2004
1788
1614
1535
1496
1366
1094
800
684
841
1168
1490
1785
2187
2788
3545
4317
4992
5535
5971
6384
6898
7537
8133
8477
8662
9153
10322
11892
13026
13117
12410
11699
11404
11139
10240
8597
6781
5427
4682
4285
3995
3766
3584
3373
3108
2901
2854
2901
2868
2711
2610
2695
2889
3030
3087
3178
3344
3435
3259
2821
2348
2059
1971
1943
1863
1724
1555
1352
1104
846
629
461
310
163
46
-11
-23
-17
13
100
250
425
585
743
946
1218
1523
1807
2061
2319
2603
2890
3134
3325
3492
3670
3867
4058
4219
4341
4429
4490
4531
4570
4611
4643
4635
4584
4519
4485
4483
4468
4394
4274
4165
4122
4151
4224
4305
4388
4474
4565
4651
4715
4732
4697
4623
4523
4394
4237
4073
3945
3871
3825
3752
3632
3502
3410
3364
3319
3239
3130
3025
2939
2860
2782
2736
2756
2826
2875
2838
2738
2675
2727
2864
2970
2961
2874
2819
2843
2877
2822
2673
2513
2401
2302
2155
1987
1897
1947
2080
2192
2261
2346
2478
2592
2600
2491
2339
2200
2051
1847
1612
1415
1285
1174
1025
857
738
692
659
573
455
390
427
515
565
542
497
482
500
503
463
400
343
316
323
367
449
548
654
770
904
1042
1165
1282
1435
1667
1962
2259
2518
2755
3001
3264
3506
3693
3825
3936
4054
4183
4302
4395
4466
4540
4628
4718
4784
4810
4799
4754
4677
4597
4565
4603
4655
4644
4573
4536
4613
4750
4788
4644
4403
4232
4187
4169
4051
3823
3590
3449
3381
3301
3152
2960
2776
2630
2523
2451
2414
2399
2391
2406
2486
2647
2836
2959
2987
2982
3023
3116
3191
3195
3162
3155
3177
3167
3069
2907
2740
2586
2416
2207
1980
1775
1599
1423
1209
955
689
435
176
-136
-539
-1014
-1474
-1854
-2186
-2566
-3026
-3468
-3764
-3915
-4056
-4309
-4624
-4825
-4818
-4684
-4557
-4472
-4361
-4196
-4056
-4037
-4129
-4237
-4308
-4406
-4601
-4859
-5055
-5111
-5074
-5049
-5084
-5139
-5159
-5144
-5145
-5195
-5278
-5359
-5423
-5491
-5595
-5730
-5852
-5916
-5930
-5967
-6088
-6270
-6419
-6463
-6438
-6441
-6499
-6519
-6403
-6189
-6023
-5984
-5982
-5849
-5541
-5188
-4925
-4729
-4461
-4044
-3565
-3156
-2838
-2512
-2095
-1626
-1212
-902
-648
-377
-74
222
478
701
915
1136
1356
1570
1769
1940
2075
2182
2283
2389
2492
2575
2631
2663
2679
2684
2686
2679
2641
2544
2393
2235
2116
2031
1944
1848
1791
1815
1893
1944
1930
1901
1930
2010
2048
1975
1829
1713
1682
1703
1698
1643
1578
1548
1561
1593
1609
1591
1543
1494
1467
1456
1420
1321
1164
992
837
686
503
274
22
-212
-402
-551
-684
-823
-970
-1103
-1199
-1254
-1283
-1294
-1282
-1244
-1202
-1187
-1201
-1207
-1179
-1135
-1123
-1166
-1235
-1299
-1356
-1438
-1555
-1674
-1754
-1786
-1805
-1838
-1879
-1909
-1926
-1946
-1983
-2038
-2115
-2214
-2336
-2460
-2566
-2649
-2722
-2766
-2735
-2619
-2490
-2462
-2573
-2734
-2817
-2804
-2802
-2899
-3041
-3064
-2874
-2546
-2247
-2069
-1966
-1842
-1680
-1565
-1579
-1700
-1804
-1774
-1589
-1319
-1029
-707
-296
209
702
1051
1222
1324
1507
1828
2216
2591
2986
3528
4301
5244
6204
7053
7757
8339
8819
9181
9390
9415
9251
8948
8595
8267
7949
7575
7121
6645
6180
5652
4954
4089
3211
2450
1778
1070
318
-317
-684
-835
-981
-1258
-1625
-1968
-2276
-2649
-3187
-3876
-4607
-5237
-5638
-5712
-5434
-4859
-4042
-2921
-1341
773
3277
5873
8334
10630
12797
14756
16316
17390
18101
18627
18996
19083
18844
18451
18147
18004
17881
17620
17197
16662
16025
15266
14440
13675
13043
12495
11948
11410
10977
10725
10641
10648
10663
10597
10398
10109
9860
9746
9715
9613
9365
9050
8796
8625
8463
8262
8069
7959
7915
7828
7627
7350
7087
6877
6682
6449
6179
5904
5644
5383
5129
4929
4820
4772
4701
4554
4354
4171
4048
3952
3831
3646
3393
3105
2836
2619
2428
2184
1823
1369
929
580
303
21
-297
-627
-927
-1210
-1508
-1818
-2100
-2344
-2600
-2919
-3276
-3579
-3770
-3900
-4074
-4333
-4613
-4825
-4967
-5107
-5295
-5498
-5646
-5725
-5782
-5856
-5928
-5947
-5896
-5821
-5789
-5839
-5939
-6021
-6022
-5949
-5870
-5854
-5879
-5845
-5682
-5432
-5202
-5041
-4882
-4633
-4314
-4041
-3902
-3855
-3770
-3585
-3356
-3190
-3118
-3072
-2979
-2847
-2741
-2701
-2699
-2681
-2638
-2614
-2656
-2752
-2842
-2875
-2863
-2860
-2912
-3004
-3068
-3053
-2982
-2938
-2979
-3085
-3178
-3208
-3204
-3228
-3296
-3360
-3366
-3321
-3281
-3291
-3332
-3358
-3353
-3351
-3393
-3468
-3510
-3460
-3333
-3193
-3071
-2933
-2729
-2468
-2244
-2148
-2167
-2197
-2155
-2053
-1972
-1969
-2015
-2041
-2022
-1994
-1999
-2027
-2042
-2025
-2013
-2058
-2179
-2329
-2444
-2498
-2525
-2591
-2715
-2847
-2908
-2877
-2814
-2799
-2847
-2897
-2899
-2881
-2910
-3001
-3095
-3130
-3108
-3101
-3154
-3234
-3258
-3195
-3102
-3079
-3171
-3317
-3405
-3376
-3285
-3234
-3269
-3336
-3353
-3303
-3251
-3259
-3316
-3355
-3334
-3275
-3219
-3200
-3216
-3247
-3260
-3250
-3249
-3307
-3428
-3533
-3540
-3472
-3458
-3606
-3857
-4051
-4117
-4176
-4401
-4788
-5120
-5180
-4995
-4798
-4754
-4757
-4558
-4052
-3407
-2870
-2505
-2154
-1662
-1079
-612
-394
-367
-390
-396
-434
-565
-769
-969
-1104
-1160
-1136
-1044
-905
-762
-653
-581
-525
-461
-384
-306
-260
-266
-307
-316
-230
-59
96
141
82
10
-7
14
14
-40
-119
-187
-235
-249
-198
-60
125
299
444
611
839
1088
1263
1327
1329
1351
1415
1483
1516
1531
1575
1663
1760
1820
1838
1848
1872
1899
1904
1889
1871
1860
1845
1832
1860
1964
2125
2245
2251
2166
2091
2095
2148
2163
2092
1974
1896
1900
1962
2028
2047
2000
1907
1796
1686
1586
1481
1356
1208
1052
922
840
791
749
698
652
612
544
407
220
76
35
46
2
-128
-255
-280
-209
-143
-134
-138
-87
7
71
78
82
127
190
224
236
286
419
593
747
881
1056
1302
1555
1715
1756
1754
1812
1951
2095
2159
2148
2153
2243
2396
2546
2651
2740
2827
2884
2880
2850
2860
2927
2989
2988
2940
2922
2970
3041
3079
3077
3054
3017
2944
2853
2800
2818
2867
2884
2864
2867
2938
3033
3065
3010
2935
2912
2934
2923
2835
2712
2620
2574
2508
2372
2178
1982
1812
1641
1432
1188
949
745
571
397
213
34
-115
-229
-326
-434
-560
-686
-785
-849
-889
-916
-922
-911
-887
-856
-807
-727
-612
-465
-284
-76
123
274
377
483
643
832
968
1002
974
958
987
1034
1060
1063
1060
1054
1037
1009
973
918
833
729
640
594
574
548
506
470
468
487
468
351
125
-147
-380
-558
-766
-1093
-1498
-1808
-1890
-1810
-1762
-1843
-1932
-1836
-1519
-1131
-815
-541
-200
214
558
711
707
671
648
554
315
-15
-297
-449
-508
-555
-610
-637
-615
-583
-587
-620
-643
-650
-687
-789
-921
-996
-967
-886
-845
-879
-941
-961
-933
-896
-879
-862
-808
-708
-582
-455
-341
-249
-192
-184
-218
-263
-284
-273
-256
-259
-282
-289
-254
-183
-99
4
129
229
216
63
-126
-190
-90
24
-42
-318
-653
-898
-1066
-1287
-1634
-2041
-2407
-2721
-3032
-3338
-3540
-3568
-3513
-3594
-3915
-4339
-4593
-4584
-4518
-4680
-5117
-5568
-5777
-5770
-5821
-6100
-6523
-6904
-7213
-7566
-8030
-8492
-8816
-9030
-9285
-9642
-9988
-10201
-10318
-10500
-10821
-11151
-11287
-11188
-11009
-10923
-10924
-10851
-10591
-10229
-9939
-9788
-9675
-9474
-9201
-8978
-8879
-8809
-8636
-8324
-7987
-7749
-7632
-7560
-7435
-7212
-6920
-6588
-6233
-5843
-5395
-4898
-4402
-3934
-3464
-2944
-2397
-1894
-1461
-1027
-490
168
870
1554
2221
2885
3513
4066
4560
5054
5538
5905
6064
6076
6100
6240
6442
6623
6774
6947
7168
7384
7534
7618
7649
7602
7432
7127
6746
6340
5917
5501
5215
5257
5719
6471
7241
7815
8165
8373
8452
8257
7598
6434
4921
3307
1768
353
-917
-1955
-2622
-2832
-2626
-2137
-1497
-771
14
804
1517
2099
2539
2875
3162
3434
3691
3906
4079
4258
4501
4803
5117
5434
5813
6295
6809
7189
7340
7333
7314
7328
7256
6978
6518
6034
5664
5412
5202
4987
4789
4652
4582
4548
4523
4497
4452
4365
4230
4094
4031
4062
4130
4161
4132
4089
4064
4029
3929
3771
3628
3535
3427
3206
2873
2542
2327
2220
2129
2001
1871
1820
1901
2124
2465
2851
3145
3221
3056
2758
2460
2184
1820
1264
546
-173
-731
-1077
-1282
-1456
-1657
-1862
-2014
-2091
-2137
-2220
-2358
-2506
-2603
-2663
-2762
-2937
-3110
-3165
-3082
-2965
-2922
-2930
-2870
-2662
-2350
-2027
-1725
-1392
-980
-514
-57
353
728
1118
1546
2000
2435
2808
3104
3343
3562
3780
3997
4195
4379
4560
4753
4962
5183
5409
5625
5820
5992
6143
6268
6378
6488
6619
6767
6909
7022
7114
7206
7306
7409
7520
7641
7750
7799
7773
7688
7577
7443
7270
7056
6820
6572
6310
6057
5861
5750
5688
5606
5482
5373
5330
5334
5311
5222
5099
5005
4972
4959
4924
4853
4769
4700
4660
4638
4623
4625
4664
4742
4836
4924
5013
5130
5275
5407
5471
5458
5407
5367
5347
5299
5169
4950
4692
4468
4314
4208
4096
3949
3790
3666
3589
3546
3509
3451
3355
3214
3056
2925
2837
2759
2654
2539
2466
2452
2433
2337
2167
2001
1898
1834
1738
1597
1484
1460
1507
1544
1523
1458
1393
1355
1326
1276
1186
1069
977
959
1013
1085
1110
1087
1079
1140
1247
1329
1360
1382
1459
1592
1723
1801
1827
1837
1850
1838
1771
1653
1537
1475
1466
1437
1331
1156
999
924
906
849
689
474
310
246
212
108
-90
-316
-516
-714
-976
-1294
-1575
-1751
-1859
-2000
-2198
-2370
-2433
-2426
-2471
-2627
-2815
-2912
-2884
-2820
-2820
-2878
-2893
-2786
-2590
-2426
-2380
-2424
-2443
-2355
-2201
-2098
-2106
-2158
-2142
-2029
-1925
-1944
-2078
-2208
-2240
-2199
-2188
-2251
-2340
-2386
-2391
-2402
-2432
-2450
-2452
-2510
-2690
-2941
-3117
-3128
-3045
-3005
-3040
-3048
-2934
-2735
-2556
-2425
-2268
-2041
-1829
-1756
-1834
-1953
-2031
-2117
-2313
-2629
-2956
-3185
-3312
-3403
-3497
-3554
-3529
-3427
-3299
-3186
-3102
-3045
-3014
-2995
-2964
-2916
-2886
-2915
-3001
-3081
-3095
-3036
-2943
-2848
-2742
-2595
-2390
-2134
-1846
-1546
-1265
-1042
-894
-802
-739
-700
-686
-683
-666
-637
-639
-699
-792
-861
-885
-903
-961
-1054
-1133
-1169
-1176
-1178
-1180
-1171
-1167
-1191
-1244
-1280
-1255
-1166
-1057
-965
-902
-1682
-1563
-1442
-1340
-1278
-1266
-1296
-1346
-1399
-1450
-1510
-1585
-1664
-1719
-1735
-1727
-1731
-1766
-1827
-1899
-1987
-2101
-2237
-2373
-2500
-2633
-2785
-2925
-2996
-2980
-2935
-2948
-3045
-3161
-3218
-3218
-3231
-3317
-3453
-3569
-3615
-3601
-3574
-3568
-3572
-3530
-3375
-3081
-2692
-2278
-1876
-1463
-1013
-545
-102
306
718
1161
1621
2072
2532
3043
3602
4137
4581
4949
5313
5715
6119
6470
6775
7121
7596
8217
8920
9643
10350
11022
11644
12201
12668
12988
13060
12813
12284
11598
10810
9811
8454
6801
5184
3927
3044
2269
1406
588
127
165
516
859
1035
1112
1227
1441
1725
2032
2346
2680
3072
3561
4158
4840
5561
6312
7106
7923
8692
9357
9938
10505
11089
11634
12035
12246
12319
12354
12412
12469
12462
12356
12158
11885
11524
11064
10538
10029
9599
9222
8809
8318
7799
7346
6998
6708
6404
6077
5781
5555
5383
5234
5113
5058
5078
5139
5211
5300
5422
5550
5637
5685
5756
5875
5970
5961
5894
5919
6082
6217
6104
5757
5454
5443
5664
5850
5849
5800
5925
6249
6605
6876
7115
7395
7624
7626
7375
7042
6783
6530
6094
5429
4719
4188
3871
3615
3292
2931
2616
2363
2117
1846
1562
1274
949
570
188
-133
-398
-665
-947
-1174
-1299
-1374
-1512
-1742
-1981
-2134
-2226
-2359
-2570
-2775
-2876
-2889
-2919
-3043
-3216
-3345
-3395
-3413
-3462
-3554
-3658
-3742
-3793
-3800
-3747
-3650
-3554
-3490
-3435
-3339
-3203
-3101
-3106
-3190
-3239
-3177
-3044
-2943
-2918
-2920
-2886
-2823
-2795
-2830
-2892
-2941
-2987
-3066
-3191
-3324
-3415
-3444
-3441
-3462
-3530
-3629
-3705
-3724
-3702
-3683
-3690
-3716
-3730
-3705
-3620
-3473
-3296
-3150
-3090
-3100
-3101
-3030
-2910
-2823
-2805
-2832
-2843
-2821
-2777
-2725
-2663
-2601
-2564
-2570
-2594
-2590
-2536
-2462
-2417
-2427
-2461
-2462
-2390
-2270
-2163
-2112
-2108
-2113
-2112
-2121
-2154
-2179
-2173
-2148
-2145
-2175
-2200
-2183
-2132
-2087
-2065
-2051
-2017
-1973
-1941
-1921
-1885
-1827
-1782
-1800
-1869
-1916
-1884
-1789
-1715
-1731
-1805
-1850
-1815
-1736
-1688
-1692
-1704
-1679
-1633
-1624
-1674
-1738
-1768
-1762
-1771
-1838
-1956
-2073
-2136
-2142
-2146
-2201
-2292
-2327
-2219
-1997
-1810
-1776
-1868
-1948
-1920
-1823
-1774
-1826
-1932
-2018
-2052
-2060
-2057
-2050
-2047
-2059
-2078
-2073
-2033
-1978
-1935
-1917
-1923
-1957
-2018
-2071
-2070
-2003
-1914
-1841
-1775
-1673
-1534
-1394
-1273
-1142
-986
-849
-811
-890
-986
-975
-843
-701
-664
-729
-775
-699
-523
-381
-374
-461
-510
-439
-302
-198
-159
-135
-69
32
120
173
202
222
240
258
278
283
244
170
119
122
126
56
-79
-194
-259
-364
-592
-866
-998
-928
-801
-786
-823
-667
-194
435
962
1347
1766
2334
2904
3232
3283
3243
3259
3258
3074
2711
2374
2225
2216
2185
2071
1981
2008
2103
2143
2105
2068
2101
2156
2131
2005
1860
1802
1844
1906
1893
1785
1649
1564
1548
1536
1461
1323
1202
1155
1156
1121
1023
922
876
864
811
700
594
559
565
525
398
226
84
-5
-58
-103
-148
-222
-351
-527
-699
-834
-952
-1102
-1284
-1441
-1528
-1566
-1588
-1587
-1550
-1497
-1482
-1509
-1505
-1408
-1261
-1172
-1168
-1146
-999
-757
-562
-492
-483
-406
-231
-45
66
119
195
334
493
619
705
777
852
919
978
1051
1163
1310
1459
1585
1707
1846
1997
2133
2224
2271
2298
2327
2367
2432
2538
2681
2826
2939
3031
3145
3292
3430
3497
3487
3463
3495
3577
3637
3606
3493
3361
3254
3163
3036
2846
2626
2439
2320
2240
2147
2013
1861
1727
1621
1512
1366
1179
968
759
566
407
297
239
212
182
135
91
81
100
102
40
-73
-171
-196
-162
-133
-150
-177
-150
-64
18
41
22
27
86
146
140
63
-16
-32
-3
0
-62
-154
-215
-223
-210
-214
-238
-260
-274
-292
-317
-341
-355
-376
-431
-527
-640
-731
-792
-851
-944
-1077
-1207
-1277
-1270
-1235
-1241
-1303
-1370
-1389
-1365
-1360
-1411
-1496
-1574
-1629
-1683
-1739
-1767
-1745
-1689
-1629
-1576
-1517
-1450
-1400
-1379
-1372
-1352
-1319
-1295
-1283
-1252
-1169
-1055
-957
-884
-801
-680
-562
-514
-529
-486
-270
97
450
613
533
286
-15
-299
-574
-889
-1290
-1772
-2250
-2609
-2795
-2860
-2904
-2968
-3014
-2997
-2944
-2914
-2894
-2781
-2488
-2075
-1730
-1598
-1672
-1803
-1880
-1925
-2061
-2364
-2786
-3211
-3545
-3736
-3744
-3576
-3347
-3277
-3551
-4140
-4819
-5349
-5699
-6032
-6502
-7084
-7596
-7870
-7905
-7840
-7838
-7962
-8170
-8388
-8606
-8870
-9209
-9576
-9877
-10060
-10148
-10199
-10242
-10260
-10223
-10126
-9997
-9881
-9808
-9765
-9696
-9542
-9292
-8998
-8736
-8538
-8385
-8251
-8119
-7979
-7812
-7615
-7411
-7211
-6982
-6658
-6239
-5807
-5439
-5093
-4649
-4045
-3372
-2779
-2302
-1838
-1273
-627
-18
463
852
1240
1680
2134
2529
2832
3071
3314
3614
3961
4294
4577
4847
5188
5620
6069
6447
6759
7097
7514
7937
8243
8389
8460
8560
8698
8792
8770
8634
8437
8215
7980
7743
7518
7319
7146
7000
6901
6866
6888
6928
6939
6869
6685
6369
5929
5362
4635
3714
2612
1416
247
-833
-1829
-2757
-3582
-4207
-4529
-4493
-4108
-3468
-2715
-1967
-1255
-530
237
976
1568
1957
2197
2404
2653
2953
3279
3590
3842
3998
4072
4124
4190
4227
4147
3925
3649
3433
3301
3190
3041
2867
2722
2622
2525
2383
2199
2013
1853
1715
1601
1517
1456
1387
1286
1176
1105
1085
1069
1014
940
914
962
1032
1046
984
910
884
899
916
923
944
997
1041
1051
1054
1122
1265
1419
1518
1581
1687
1868
2058
2168
2204
2250
2354
2469
2530
2545
2586
2686
2801
2874
2928
3028
3187
3344
3443
3495
3558
3646
3722
3780
3875
4064
4314
4537
4689
4829
5031
5281
5480
5565
5579
5614
5704
5793
5821
5803
5809
5887
6007
6088
6080
6001
5925
5908
5894
5768
5484
5140
4894
4795
4720
4534
4287
4153
4229
4396
4473
4454
4512
4771
5110
5290
5205
4996
4865
4844
4785
4564
4234
3963
3853
3856
3843
3743
3606
3540
3588
3671
3659
3507
3319
3261
3395
3604
3735
3758
3778
3883
4032
4110
4085
4034
4023
4026
3997
3983
4088
4335
4603
4754
4777
4790
4898
5090
5279
5402
5456
5480
5512
5576
5667
5744
5755
5702
5632
5586
5557
5513
5453
5412
5425
5473
5503
5489
5453
5435
5443
5448
5411
5314
5179
5052
4977
4947
4905
4780
4553
4285
4056
3905
3789
3627
3375
3078
2821
2657
2542
2397
2168
1871
1555
1246
943
641
354
95
-131
-344
-567
-801
-982
-1023
-900
-727
-685
-848
-1091
-1207
-1103
-874
-672
-555
-482
-407
-324
-235
-132
-46
-53
-199
-411
-552
-570
-555
-623
-760
-862
-876
-859
-888
-945
-956
-917
-922
-1064
-1311
-1551
-1731
-1911
-2185
-2550
-2907
-3165
-3328
-3466
-3638
-3837
-4026
-4185
-4313
-4435
-4598
-4859
-5220
-5574
-5776
-5779
-5686
-5636
-5642
-5587
-5390
-5123
-4936
-4872
-4840
-4723
-4531
-4370
-4297
-4242
-4094
-3837
-3562
-3354
-3206
-3051
-2857
-2667
-2532
-2439
-2354
-2268
-2224
-2223
-2194
-2064
-1856
-1681
-1633
-1667
-1680
-1623
-1531
-1475
-1466
-1467
-1453
-1413
-1343
-1238
-1119
-1029
-990
-971
-940
-885
-822
-741
-614
-458
-338
-289
-260
-170
-5
173
296
373
455
577
744
967
1256
1567
1795
1895
1932
2032
2245
2459
2548
2517
2486
2568
2742
2908
2992
2998
2969
2927
2862
2772
2660
2536
2410
2293
2186
2060
1879
1645
1402
1183
961
672
301
-82
-385
-585
-741
-919
-1093
-1191
-1183
-1112
-1021
-910
-734
-496
-278
-157
-129
-123
-94
-71
-129
-299
-524
-721
-846
-922
-988
-1056
-1111
-1132
-1115
-1098
-1138
-1259
-1426
-1573
-1678
-1784
-1961
-2222
-2512
-2765
-2971
-3178
-3427
-3699
-3957
-4194
-4422
-4614
-4706
-4674
-4610
-4657
-4846
-5043
-5085
-4961
-4821
-4805
-4895
-4972
-4956
-4891
-4849
-4826
-4771
-4688
-4635
-4669
-4771
-4847
-4830
-4737
-4655
-4658
-4745
-4833
-4842
-4756
-4633
-4540
-4495
-4448
-4328
-4071
-3648
-3103
-2544
-2078
-1686
-1237
-642
5
501
772
966
1275
1680
1948
1903
1612
1313
1182
1206
1298
1435
1584
1681
1697
1679
1656
1492
980
126
-785
-1541
-2342
-3559
-5113
-6303
-6435
-5573
-4439
-3554
-2668
-1172
1051
3424
5289
6516
7421
8230
8839
9100
9115
9139
9270
9403
9454
9543
9892
10569
11373
12087
12676
13245
13872
14461
14851
15023
15156
15383
15610
15611
15291
14805
14388
14118
13907
13681
13470
13313
13189
13020
12799
12576
12357
12118
11864
11652
11489
11257
10815
10206
9642
9305
9149
8958
8590
8145
7850
7787
7840
7837
7734
7618
7570
7548
7513
7499
7565
7658
7628
7411
7131
6995
7010
6963
6682
6236
5876
5747
5738
5659
5439
5155
4898
4689
4509
4349
4171
3914
3552
3162
2863
2689
2533
2259
1860
1441
1096
840
621
403
194
3
-164
-335
-526
-712
-862
-969
-1117
-1381
-1702
-1897
-1844
-1640
-1547
-1690
-1934
-2060
-2048
-2073
-2252
-2485
-2596
-2586
-2610
-2747
-2878
-2853
-2712
-2635
-2738
-2959
-3155
-3278
-3391
-3549
-3734
-3892
-3983
-4011
-3992
-3945
-3886
-3800
-3642
-3384
-3071
-2803
-2666
-2661
-2717
-2719
-2626
-2502
-2482
-2618
-2799
-2833
-2642
-2347
-2166
-2184
-2297
-2360
-2318
-2226
-2158
-2155
-2216
-2322
-2426
-2466
-2430
-2388
-2415
-2523
-2651
-2745
-2792
-2788
-2721
-2612
-2542
-2576
-2675
-2738
-2698
-2605
-2563
-2606
-2705
-2832
-2954
-3016
-2959
-2822
-2765
-2903
-3134
-3232
-3113
-2964
-3031
-3308
-3526
-3482
-3301
-3271
-3495
-3756
-3771
-3541
-3322
-3333
-3521
-3674
-3691
-3644
-3642
-3686
-3704
-3701
-3731
-3785
-3752
-3566
-3313
-3173
-3214
-3322
-3321
-3154
-2924
-2798
-2828
-2949
-3006
-2876
-2602
-2365
-2339
-2525
-2700
-2619
-2291
-1964
-1859
-1948
-2027
-1968
-1813
-1666
-1539
-1376
-1198
-1109
-1157
-1253
-1231
-1028
-766
-648
-755
-981
-1108
-983
-685
-450
-462
-654
-767
-645
-398
-286
-403
-613
-715
-677
-595
-559
-552
-533
-533
-594
-676
-685
-613
-602
-753
-994
-1142
-1087
-907
-784
-797
-872
-903
-876
-840
-817
-780
-695
-588
-484
-359
-152
124
371
499
511
488
479
481
456
409
396
478
646
850
1032
1180
1321
1466
1582
1629
1626
1644
1731
1831
1858
1812
1798
1883
1988
1965
1803
1649
1639
1732
1780
1712
1614
1569
1558
1483
1323
1170
1093
1050
954
805
695
695
760
804
770
700
653
625
556
401
192
12
-101
-187
-311
-484
-615
-615
-510
-419
-449
-585
-712
-730
-664
-600
-588
-630
-698
-777
-831
-816
-731
-655
-682
-837
-1026
-1125
-1096
-1010
-975
-1011
-1046
-997
-844
-652
-487
-332
-136
125
373
505
533
569
685
814
803
598
314
104
6
-48
-118
-186
-224
-263
-357
-484
-535
-467
-355
-303
-294
-212
-2
280
525
708
882
1076
1242
1337
1403
1522
1708
1906
2076
2240
2438
2655
2831
2957
3070
3200
3327
3423
3509
3623
3764
3887
3957
3998
4042
4075
4061
3994
3915
3864
3829
3790
3749
3740
3756
3765
3735
3665
3575
3468
3314
3084
2793
2495
2232
2004
1791
1577
1386
1264
1216
1173
1060
878
719
661
662
599
416
211
127
172
226
182
90
84
187
288
283
208
197
302
424
452
389
343
379
448
467
424
380
383
395
367
314
310
387
485
514
451
368
363
453
564
603
545
449
388
397
446
481
463
393
307
245
217
210
182
112
9
-86
-137
-139
-115
-102
-140
-235
-358
-462
-514
-527
-555
-623
-701
-733
-703
-658
-648
-687
-741
-806
-907
-1044
-1150
-1143
-1029
-916
-905
-978
-1017
-934
-769
-643
-638
-736
-859
-943
-985
-1011
-1047
-1086
-1105
-1092
-1059
-1032
-1019
-989
-928
-857
-846
-935
-1077
-1172
-1159
-1085
-1041
-1075
-1128
-1111
-1006
-890
-850
-897
-973
-1020
-1050
-1109
-1204
-1275
-1250
-1136
-999
-912
-876
-837
-772
-708
-680
-686
-683
-645
-592
-550
-520
-473
-395
-295
-177
-36
109
202
205
160
151
215
295
327
331
370
404
282
-90
-603
-1054
-1382
-1735
-2251
-2828
-3210
-3265
-3122
-2992
-2911
-2766
-2522
-2340
-2418
-2759
-3151
-3416
-3601
-3893
-4382
-4939
-5330
-5453
-5432
-5499
-5777
-6193
-6574
-6819
-6969
-7120
-7296
-7441
-7493
-7492
-7548
-7709
-7880
-7906
-7722
-7461
-7338
-7428
-7576
-7544
-7274
-6979
-6914
-7094
-7271
-7229
-6998
-6804
-6761
-6736
-6544
-6173
-5812
-5624
-5565
-5490
-5341
-5208
-5181
-5211
-5168
-4982
-4700
-4398
-4082
-3736
-3380
-3084
-2877
-2707
-2496
-2245
-2019
-1860
-1721
-1523
-1238
-907
-592
-303
-1
343
723
1099
1441
1759
2083
2434
2775
3043
3217
3348
3521
3759
4002
4190
4328
4453
4555
4571
4480
4326
4181
4053
3899
3699
3498
3349
3253
3159
3019
2806
2513
2160
1807
1540
1398
1335
1290
1276
1381
1663
2054
2421
2682
2864
3047
3260
3472
3657
3836
4040
4274
4516
4758
5031
5337
5617
5791
5839
5825
5832
5865
5848
5707
5461
5206
5012
4851
4642
4355
4038
3769
3566
3383
3179
2956
2744
2542
2332
2121
1946
1847
1803
1756
1679
1604
1581
1619
1667
1664
1608
1535
1484
1449
1387
1282
1168
1090
1059
1035
977
898
839
823
821
791
722
649
602
583
589
628
710
810
881
911
919
942
976
999
1017
1060
1146
1251
1336
1391
1452
1539
1641
1735
1824
1932
2064
2190
2293
2394
2533
2720
2917
3088
3235
3391
3562
3712
3802
3864
3973
4160
4383
4561
4662
4743
4863
5036
5209
5339
5429
5506
5586
5666
5744
5815
5857
5829
5728
5601
5475
5315
5060
4729
4443
4292
4221
4093
3861
3655
3642
3830
4075
4264
4442
4722
5093
5396
5503
5447
5374
5355
5314
5154
4896
4657
4537
4533
4584
4655
4737
4816
4862
4865
4839
4801
4750
4686
4605
4529
4494
4535
4644
4753
4772
4688
4580
4532
4515
4423
4223
4048
4052
4217
4379
4435
4483
4679
5020
5322
5449
5466
5537
5707
5855
5851
5695
5501
5372
5344
5380
5417
5386
5277
5164
5154
5244
5300
5196
4953
4735
4660
4695
4720
4670
4587
4523
4470
4393
4285
4168
4034
3836
3555
3248
2999
2836
2708
2542
2320
2086
1894
1757
1646
1518
1351
1157
981
882
895
985
1066
1068
1009
970
994
1041
1031
938
817
744
726
696
601
465
366
358
411
445
423
395
452
626
849
1009
1062
1068
1109
1199
1267
1239
1114
946
774
601
417
237
90
-41
-189
-369
-555
-718
-864
-1018
-1187
-1343
-1480
-1623
-1793
-1975
-2130
-2263
-2419
-2637
-2905
-3167
-3387
-3567
-3730
-3882
-4030
-4173
-4292
-4344
-4322
-4303
-4386
-4585
-4791
-4867
-4789
-4660
-4586
-4572
-4527
-4382
-4165
-3974
-3879
-3873
-3897
-3917
-3952
-4033
-4147
-4229
-4247
-4226
-4205
-4174
-4087
-3942
-3784
-3651
-3522
-3351
-3157
-3005
-2913
-2821
-2687
-2558
-2502
-2510
-2490
-2386
-2261
-2210
-2236
-2257
-2211
-2123
-2047
-1998
-1952
-1899
-1836
-1736
-1561
-1326
-1094
-902
-694
-401
-35
312
577
800
1048
1325
1592
1843
2118
2442
2782
3091
3387
3721
4096
4446
4712
4903
5037
5083
4962
4660
4261
3861
3466
3001
2427
1815
1281
887
594
345
137
9
-14
15
30
27
78
250
500
703
767
721
681
694
695
600
408
193
20
-101
-181
-217
-202
-144
-74
-12
34
53
29
-24
-73
-103
-141
-226
-362
-507
-619
-687
-718
-730
-754
-823
-941
-1064
-1136
-1164
-1228
-1404
-1668
-1933
-2126
-2253
-2371
-2510
-2650
-2769
-2866
-2953
-3025
-3066
-3081
-3101
-3157
-3237
-3290
-3272
-3194
-3110
-3069
-3081
-3123
-3163
-3195
-3229
-3275
-3328
-3376
-3416
-3471
-3568
-3705
-3847
-3958
-4058
-4205
-4423
-4653
-4807
-4864
-4896
-4984
-5137
-5302
-5459
-5657
-5951
-6338
-6763
-7176
-7560
-7912
-8225
-8499
-8760
-9031
-9302
-9550
-9778
-10024
-10294
-10541
-10671
-10634
-10452
-10154
-9697
-9000
-8047
-6934
-5783
-4612
-3354
-2054
-960
-337
-131
79
688
1656
2559
3102
3498
4233
5523
7063
8370
9264
9938
10613
11277
11761
12003
12107
12200
12314
12440
12614
12914
13348
13848
14364
14891
15420
15892
16230
16415
16499
16525
16475
16303
16005
15606
15108
14513
13891
13381
13077
12908
12690
12335
11952
11732
11739
11846
11897
11881
11899
12004
12132
12198
12228
12321
12505
12689
12772
12773
12805
12926
13059
13094
13025
12938
12893
12853
12750
12589
12439
12342
12268
12155
11977
11748
11497
11249
11039
10891
10767
10580
10293
9969
9726
9606
9530
9382
9136
8879
8714
8648
8589
8435
8155
7792
7409
7029
6638
6224
5789
5333
4857
4364
3871
3408
2990
2605
2222
1830
1456
1130
848
581
304
30
-206
-389
-545
-724
-943
-1180
-1407
-1613
-1811
-2009
-2197
-2367
-2524
-2684
-2850
-2993
-3086
-3145
-3241
-3428
-3656
-3816
-3852
-3832
-3863
-3949
-3968
-3813
-3524
-3218
-2942
-2635
-2263
-1925
-1771
-1815
-1907
-1932
-1946
-2095
-2415
-2768
-2977
-2996
-2919
-2846
-2792
-2713
-2595
-2469
-2380
-2337
-2318
-2313
-2343
-2428
-2542
-2626
-2627
-2574
-2544
-2590
-2673
-2733
-2764
-2826
-2962
-3122
-3215
-3212
-3184
-3214
-3312
-3425
-3494
-3525
-3554
-3606
-3686
-3808
-3971
-4130
-4230
-4258
-4287
-4389
-4544
-4635
-4577
-4426
-4325
-4363
-4488
-4579
-4571
-4508
-4473
-4512
-4602
-4688
-4731
-4719
-4657
-4553
-4438
-4361
-4357
-4403
-4427
-4366
-4250
-4194
-4274
-4434
-4529
-4485
-4361
-4276
-4275
-4302
-4301
-4277
-4260
-4240
-4177
-4078
-3993
-3943
-3879
-3741
-3552
-3394
-3305
-3230
-3106
-2951
-2844
-2805
-2775
-2684
-2543
-2412
-2321
-2238
-2128
-2004
-1909
-1855
-1811
-1759
-1696
-1639
-1587
-1538
-1500
-1482
-1459
-1399
-1301
-1201
-1126
-1058
-951
-792
-608
-430
-278
-152
-50
42
144
265
380
453
487
529
624
769
925
1052
1134
1186
1243
1341
1484
1628
1724
1764
1804
1892
2014
2106
2132
2112
2085
2066
2053
2047
2056
2053
1995
1881
1773
1745
1794
1823
1749
1598
1473
1436
1437
1384
1256
1137
1113
1162
1184
1129
1067
1102
1243
1381
1427
1410
1429
1524
1636
1689
1690
1716
1816
1956
2076
2150
2205
2269
2332
2376
2391
2386
2370
2358
2370
2423
2498
2547
2536
2480
2420
2372
2300
2162
1973
1804
1707
1671
1645
1594
1542
1532
1570
1614
1614
1563
1504
1486
1518
1573
1626
1679
1740
1806
1854
1873
1864
1833
1780
1703
1617
1541
1466
1361
1215
1053
928
849
760
582
309
33
-136
-174
-168
-214
-305
-333
-217
6
243
464
725
1046
1335
1462
1411
1308
1264
1247
1126
850
535
339
314
384
466
546
643
736
780
766
758
808
898
954
943
916
947
1057
1195
1308
1383
1431
1459
1468
1492
1579
1730
1893
2017
2112
2220
2339
2403
2372
2298
2274
2314
2320
2206
2031
1974
2143
2443
2656
2644
2485
2371
2410
2522
2550
2429
2243
2111
2078
2100
2131
2163
2197
2216
2197
2155
2134
2152
2171
2130
2014
1863
1723
1578
1384
1153
985
964
1031
1007
783
476
337
475
708
741
477
109
-104
-103
-31
-12
-28
3
90
177
241
316
406
435
322
93
-147
-328
-463
-591
-693
-728
-709
-704
-741
-772
-726
-617
-548
-605
-774
-953
-1055
-1088
-1112
-1172
-1257
-1331
-1382
-1428
-1477
-1519
-1538
-1542
-1562
-1614
-1679
-1721
-1724
-1715
-1738
-1817
-1932
-2040
-2114
-2157
-2185
-2203
-2197
-2152
-2074
-1986
-1905
-1826
-1738
-1647
-1574
-1538
-1533
-1541
-1548
-1545
-1525
-1488
-1444
-1408
-1385
-1352
-1291
-1219
-1179
-1188
-1213
-1205
-1169
-1154
-1184
-1215
-1184
-1073
-929
-784
-619
-399
-152
6
-29
-251
-544
-783
-932
-1034
-1145
-1265
-1355
-1383
-1368
-1349
-1352
-1389
-1494
-1704
-2010
-2333
-2585
-2732
-2814
-2897
-3014
-3157
-3319
-3488
-3635
-3745
-3849
-4025
-4319
-4680
-5001
-5230
-5416
-5644
-5948
-6320
-6780
-7352
-7979
-8515
-8835
-8985
-9160
-9510
-9986
-10391
-10600
-10681
-10800
-11037
-11323
-11537
-11626
-11609
-11523
-11370
-11148
-10896
-10683
-10535
-10424
-10314
-10193
-10083
-10023
-10039
-10118
-10187
-10146
-9968
-9752
-9627
-9612
-9576
-9396
-9116
-8867
-8676
-8395
-7882
-7187
-6492
-5886
-5275
-4555
-3802
-3210
-2866
-2653
-2403
-2094
-1826
-1646
-1463
-1144
-657
-92
449
945
1439
1960
2480
2942
3312
3612
3895
4204
4532
4842
5124
5411
5743
6121
6482
6760
6926
7017
7100
7214
7334
7391
7325
7147
6910
6632
6255
5709
5022
4317
3675
3058
2382
1673
1090
751
582
395
97
-215
-396
-441
-486
-641
-882
-1117
-1288
-1391
-1411
-1329
-1178
-1042
-970
-890
-687
-341
40
333
526
706
954
1278
1643
2016
2375
2706
3013
3327
3680
4060
4430
4763
5056
5289
5422
5456
5474
5576
5772
5959
6024
5970
5913
5954
6067
6136
6084
5947
5821
5749
5694
5593
5456
5354
5331
5355
5346
5268
5168
5089
5010
4882
4702
4544
4484
4507
4532
4517
4513
4603
4800
5029
5200
5289
5340
5406
5497
5592
5675
5748
5816
5873
5919
5963
6013
6052
6037
5953
5851
5799
5803
5798
5733
5635
5567
5535
5484
5365
5195
5042
4942
4874
4795
4702
4624
4585
4601
4658
4720
4763
4790
4828
4881
4917
4904
4860
4842
4873
4925
4948
4937
4936
4973
5035
5079
5076
5021
4928
4826
4750
4713
4683
4611
4498
4399
4374
4413
4463
4484
4488
4508
4550
4588
4608
4644
4744
4891
5009
5032
4978
4930
4932
4936
4861
4714
4588
4550
4570
4577
4565
4604
4725
4858
4910
4882
4862
4895
4922
4863
4727
4611
4581
4601
4578
4476
4360
4322
4390
4491
4527
4453
4321
4229
4241
4318
4340
4218
3979
3745
3633
3651
3690
3638
3488
3340
3313
3421
3550
3564
3448
3317
3286
3332
3293
3055
2699
2443
2416
2517
2549
2449
2360
2451
2731
3065
3364
3653
3974
4254
4373
4321
4221
4188
4165
3993
3622
3188
2869
2715
2612
2444
2219
2038
1948
1890
1781
1623
1492
1429
1387
1299
1175
1101
1122
1176
1167
1083
1021
1060
1142
1130
970
772
680
718
750
641
405
193
121
165
187
91
-111
-335
-528
-688
-848
-1040
-1282
-1573
-1875
-2131
-2305
-2428
-2579
-2806
-3082
-3337
-3549
-3756
-3993
-4241
-4452
-4611
-4746
-4891
-5043
-5191
-5345
-5508
-5668
-5784
-5853
-5929
-6050
-6168
-6189
-6078
-5916
-5804
-5757
-5700
-5596
-5481
-5402
-5348
-5278
-5211
-5190
-5188
-5105
-4894
-4659
-4543
-4543
-4495
-4277
-3968
-3755
-3713
-3724
-3629
-3393
-3107
-2846
-2607
-2358
-2103
-1878
-1693
-1510
-1309
-1115
-965
-875
-831
-794
-707
-536
-288
-28
168
294
427
641
939
1231
1445
1586
1732
1945
2202
2434
2594
2698
2785
2859
2890
2857
2791
2737
2710
2687
2647
2608
2594
2599
2571
2474
2325
2173
2050
1960
1889
1835
1805
1802
1817
1830
1833
1815
1766
1671
1531
1377
1247
1150
1072
986
898
840
837
861
861
815
750
705
702
743
833
970
1115
1208
1229
1240
1324
1476
1601
1614
1544
1504
1551
1621
1617
1536
1485
1537
1651
1731
1749
1790
1928
2138
2323
2423
2487
2589
2749
2911
3031
3120
3209
3294
3346
3343
3293
3204
3063
2863
2638
2446
2317
2226
2124
1994
1863
1761
1684
1595
1455
1248
991
734
532
412
344
285
217
166
150
147
123
92
119
224
336
375
359
407
565
698
618
307
-41
-252
-401
-720
-1288
-1872
-2169
-2136
-2017
-2042
-2177
-2213
-2055
-1833
-1718
-1727
-1753
-1744
-1774
-1931
-2206
-2528
-2874
-3285
-3768
-4238
-4594
-4822
-4977
-5079
-5057
-4824
-4387
-3873
-3409
-3005
-2577
-2065
-1513
-1023
-654
-369
-93
231
644
1159
1744
2309
2755
3090
3437
3921
4537
5156
5680
6148
6671
7286
7912
8447
8886
9300
9725
10100
10317
10340
10236
10100
9971
9808
9565
9237
8868
8517
8216
7949
7667
7338
6977
6641
6387
6217
6111
6041
5998
5976
5957
5942
5958
6037
6166
6297
6404
6519
6688
6896
7080
7202
7316
7509
7790
8075
8254
8291
8218
8072
7857
7558
7178
6726
6214
5676
5183
4807
4556
4361
4152
3931
3767
3697
3665
3562
3338
3049
2789
2593
2423
2229
2011
1794
1600
1413
1194
912
568
206
-118
-380
-624
-910
-1257
-1600
-1859
-2026
-2179
-2393
-2663
-2904
-3059
-3154
-3283
-3510
-3802
-4061
-4217
-4306
-4429
-4638
-4877
-5036
-5066
-5036
-5036
-5074
-5068
-4968
-4819
-4691
-4584
-4443
-4262
-4123
-4088
-4107
-4072
-3964
-3871
-3873
-3938
-3975
-3956
-3935
-3955
-3983
-3975
-3954
-3984
-4070
-4144
-4151
-4126
-4140
-4210
-4276
-4296
-4290
-4293
-4297
-4272
-4224
-4196
-4202
-4199
-4145
-4082
-4092
-4205
-4339
-4387
-4333
-4264
-4269
-4336
-4380
-4336
-4225
-4113
-4051
-4040
-4050
-4044
-3991
-3876
-3727
-3599
-3522
-3465
-3369
-3219
-3076
-3025
-3076
-3147
-3157
-3102
-3051
-3051
-3065
-3023
-2908
-2784
-2716
-2704
-2696
-2647
-2559
-2468
-2406
-2393
-2420
-2448
-2433
-2365
-2295
-2276
-2318
-2372
-2406
-2424
-2440
-2430
-2374
-2319
-2359
-2511
-2665
-2708
-2701
-2841
-3227
-3683
-3943
-3940
-3882
-3970
-4144
-4168
-3943
-3624
-3398
-3234
-2965
-2563
-2218
-2129
-2249
-2361
-2353
-2331
-2450
-2707
-2962
-3112
-3173
-3193
-3190
-3154
-3103
-3053
-2995
-2913
-2844
-2838
-2881
-2894
-2848
-2819
-2881
-2968
-2917
-2674
-2388
-2246
-2263
-2270
-2131
-1902
-1749
-1735
-1759
-1696
-1536
-1370
-1255
-1164
-1031
-837
-597
-326
-39
218
394
492
581
718
887
1020
1081
1104
1139
1197
1252
1300
1363
1448
1525
1569
1608
1702
1862
2033
2158
2244
2341
2470
2591
2660
2688
2723
2779
2811
2769
2657
2551
2515
2538
2544
2477
2372
2325
2392
2517
2591
2583
2577
2677
2872
3042
3094
3069
3091
3202
3326
3366
3323
3280
3292
3338
3358
3330
3273
3199
3101
2983
2870
2789
2743
2712
2668
2604
2526
2461
2442
2472
2507
2498
2450
2431
2491
2600
2669
2639
2529
2410
2324
2271
2226
2165
2066
1921
1752
1621
1587
1656
1772
1867
1924
1955
1980
2008
2041
2073
2084
2043
1950
1864
1844
1889
1941
1960
1976
2045
2167
2276
2325
2337
2350
2358
2321
2238
2154
2094
2045
1998
1994
2078
2208
2281
2247
2180
2189
2279
2352
2320
2205
2101
2059
2055
2049
2034
2034
2062
2102
2131
2120
2050
1931
1809
1726
1680
1632
1567
1532
1579
1684
1771
1811
1867
2002
2171
2254
2206
2136
2195
2408
2639
2741
2703
2645
2664
2746
2811
2805
2746
2684
2657
2675
2728
2794
2848
2871
2866
2847
2824
2800
2773
2732
2660
2552
2422
2300
2211
2145
2087
2031
1971
1891
1775
1640
1536
1494
1467
1359
1136
881
723
680
619
395
32
-286
-406
-375
-375
-510
-706
-818
-794
-690
-551
-340
-25
321
570
672
703
748
784
707
473
155
-133
-342
-492
-604
-663
-660
-628
-626
-685
-788
-888
-953
-988
-1038
-1144
-1290
-1396
-1386
-1259
-1105
-1021
-1034
-1099
-1154
-1171
-1161
-1147
-1159
-1215
-1304
-1388
-1425
-1407
-1360
-1317
-1290
-1266
-1224
-1157
-1081
-1024
-1013
-1059
-1147
-1249
-1341
-1405
-1442
-1469
-1509
-1568
-1629
-1664
-1671
-1683
-1724
-1788
-1852
-1908
-1963
-2009
-2017
-1983
-1945
-1950
-1996
-2029
-2010
-1963
-1943
-1962
-1968
-1912
-1809
-1724
-1702
-1713
-1686
-1580
-1430
-1306
-1246
-1222
-1182
-1099
-997
-911
-859
-827
-808
-818
-875
-969
-1056
-1107
-1150
-1239
-1383
-1533
-1628
-1677
-1745
-1874
-2033
-2161
-2251
-2369
-2570
-2828
-3042
-3173
-3292
-3505
-3838
-4204
-4493
-4672
-4810
-5004
-5310
-5708
-6120
-6464
-6708
-6905
-7159
-7554
-8077
-8642
-9167
-9621
-10006
-10334
-10632
-10952
-11290
-11549
-11592
-11382
-11052
-10801
-10707
-10670
-10551
-10354
-10202
-10184
-10244
-10269
-10240
-10219
-10231
-10171
-9915
-9475
-9025
-8711
-8499
-8230
-7812
-7332
-6930
-6644
-6382
-6057
-5679
-5297
-4893
-4411
-3845
-3262
-2708
-2152
-1522
-817
-115
535
1158
1795
2435
3022
3525
3978
4425
4870
5283
5656
6031
6458
6923
7319
7549
7640
7781
8176
8833
9508
9916
9997
9974
10090
10321
10374
9963
9075
7955
6870
5886
4873
3701
2380
1052
-129
-1101
-1893
-2552
-3086
-3457
-3615
-3537
-3216
-2647
-1855
-929
-8
806
1524
2227
2948
3599
4047
4288
4487
4833
5353
5908
6365
6740
7132
7588
8079
8587
9136
9684
10076
10195
10131
10128
10328
10597
10692
10556
10388
10383
10526
10646
10644
10590
10578
10559
10380
9976
9448
8940
8463
7882
7093
6176
5344
4738
4295
3840
3276
2678
2179
1806
1472
1110
754
463
224
-21
-273
-438
-444
-358
-319
-382
-448
-396
-228
-58
25
59
150
345
594
821
995
1149
1321
1523
1750
1993
2246
2486
2696
2873
3037
3216
3410
3575
3659
3657
3623
3632
3726
3877
4017
4103
4134
4129
4110
4097
4112
4160
4225
4285
4326
4376
4487
4684
4945
5204
5404
5537
5650
5792
5958
6109
6238
6391
6608
6834
6979
7032
7118
7361
7733
8077
8300
8486
8787
9215
9629
9904
10072
10239
10436
10583
10616
10575
10555
10597
10655
10704
10770
10882
11024
11158
11271
11375
11472
11529
11528
11497
11473
11458
11422
11359
11310
11308
11329
11309
11227
11126
11044
10943
10733
10384
9974
9608
9304
8983
8579
8126
7729
7447
7225
6957
6597
6215
5911
5705
5536
5355
5184
5095
5117
5172
5164
5075
4977
4949
4975
4974
4892
4750
4611
4502
4425
4353
4263
4127
3945
3767
3659
3626
3605
3537
3442
3405
3451
3494
3437
3294
3164
3117
3109
3044
2905
2774
2735
2789
2855
2861
2802
2733
2689
2646
2542
2367
2168
2022
1974
1981
1954
1839
1683
1576
1556
1549
1445
1193
859
559
365
251
108
-143
-473
-771
-954
-1065
-1245
-1586
-2017
-2383
-2618
-2824
-3148
-3601
-4052
-4364
-4553
-4745
-5022
-5349
-5625
-5780
-5832
-5852
-5885
-5917
-5911
-5858
-5807
-5834
-5949
-6076
-6134
-6136
-6170
-6270
-6352
-6311
-6161
-6036
-6017
-6029
-5938
-5741
-5598
-5653
-5845
-5972
-5915
-5758
-5665
-5673
-5653
-5480
-5173
-4851
-4562
-4246
-3845
-3401
-3037
-2826
-2723
-2626
-2499
-2395
-2410
-2577
-2821
-3004
-3028
-2923
-2810
-2781
-2805
-2787
-2679
-2526
-2410
-2375
-2413
-2502
-2611
-2683
-2656
-2536
-2395
-2298
-2231
-2128
-1959
-1750
-1535
-1322
-1117
-947
-820
-686
-475
-202
35
168
226
293
371
380
273
121
37
41
39
-60
-221
-331
-325
-258
-237
-321
-475
-617
-701
-748
-819
-2113
-2111
-2116
-2137
-2148
-2128
-2088
-2060
-2079
-2145
-2225
-2287
-2331
-2388
-2478
-2564
-2572
-2463
-2253
-1978
-1627
-1148
-521
190
894
1549
2176
2786
3330
3739
3995
4147
4255
4340
4395
4416
4412
4398
4379
4357
4329
4280
4192
4079
3985
3935
3898
3812
3668
3526
3463
3488
3530
3513
3427
3331
3298
3352
3444
3487
3425
3281
3145
3094
3119
3135
3072
2946
2825
2742
2656
2497
2254
1986
1744
1513
1239
911
598
383
273
186
43
-141
-276
-286
-198
-107
-108
-214
-360
-464
-495
-500
-563
-737
-985
-1200
-1299
-1303
-1312
-1376
-1441
-1416
-1283
-1117
-983
-869
-735
-608
-557
-586
-606
-553
-487
-525
-677
-815
-824
-735
-659
-633
-573
-405
-174
15
141
291
543
862
1147
1347
1515
1742
2065
2426
2722
2899
3011
3160
3387
3611
3721
3723
3758
3951
4284
4620
4864
5063
5308
5629
5956
6218
6403
6543
6654
6729
6778
6826
6893
6968
7036
7092
7145
7192
7215
7205
7185
7203
7279
7393
7486
7490
7386
7225
7078
6944
6739
6410
6040
5792
5721
5713
5633
5518
5530
5747
6031
6199
6260
6395
6696
7017
7133
7006
6804
6675
6571
6353
5978
5550
5189
4921
4702
4501
4311
4133
3970
3847
3792
3773
3704
3536
3316
3131
3011
2898
2728
2495
2243
2006
1770
1504
1196
880
606
403
248
74
-180
-504
-820
-1053
-1210
-1368
-1578
-1808
-1980
-2063
-2104
-2171
-2281
-2393
-2469
-2511
-2552
-2622
-2724
-2843
-2961
-3083
-3220
-3372
-3514
-3622
-3707
-3807
-3937
-4055
-4108
-4105
-4124
-4225
-4390
-4539
-4618
-4644
-4677
-4743
-4816
-4855
-4843
-4800
-4755
-4723
-4716
-4724
-4730
-4723
-4704
-4685
-4676
-4669
-4653
-4630
-4611
-4596
-4566
-4490
-4366
-4218
-4094
-4015
-3969
-3915
-3834
-3751
-3708
-3720
-3752
-3759
-3720
-3652
-3573
-3485
-3393
-3330
-3325
-3363
-3369
-3294
-3170
-3082
-3073
-3104
-3102
-3046
-2969
-2911
-2875
-2861
-2880
-2935
-2982
-2968
-2906
-2867
-2899
-2972
-3007
-2985
-2975
-3037
-3146
-3217
-3207
-3166
-3175
-3251
-3325
-3326
-3263
-3210
-3231
-3312
-3384
-3388
-3327
-3268
-3261
-3300
-3335
-3324
-3279
-3244
-3244
-3258
-3239
-3167
-3061
-2966
-2908
-2875
-2825
-2733
-2614
-2520
-2482
-2466
-2414
-2310
-2205
-2151
-2142
-2116
-2037
-1944
-1902
-1925
-1957
-1939
-1872
-1810
-1784
-1778
-1747
-1679
-1595
-1520
-1453
-1382
-1303
-1224
-1150
-1080
-1004
-936
-885
-835
-768
-684
-605
-539
-465
-367
-264
-189
-135
-50
95
261
391
478
583
746
929
1063
1135
1187
1264
1355
1423
1464
1511
1592
1707
1822
1905
1943
1964
2009
2103
2201
2231
2161
2046
1988
2016
2045
1971
1807
1683
1716
1889
2079
2205
2322
2535
2870
3252
3599
3929
4299
4692
4992
5113
5101
5081
5105
5105
4992
4770
4544
4412
4388
4436
4510
4576
4611
4616
4628
4681
4753
4774
4708
4591
4498
4463
4462
4461
4454
4450
4448
4429
4382
4313
4238
4169
4117
4089
4072
4042
3983
3902
3825
3763
3713
3663
3611
3540
3435
3295
3144
2993
2820
2585
2296
2016
1818
1703
1601
1444
1246
1083
1008
995
970
881
747
620
528
463
403
345
292
235
169
96
36
3
-8
-12
-31
-74
-135
-199
-240
-234
-185
-131
-116
-139
-146
-85
35
147
201
226
298
435
562
599
575
617
809
1074
1251
1270
1234
1294
1471
1640
1687
1635
1612
1691
1819
1921
1998
2117
2296
2470
2567
2605
2664
2783
2915
2995
3020
3055
3147
3282
3422
3556
3702
3862
4017
4157
4291
4420
4519
4559
4550
4527
4511
4492
4445
4362
4258
4153
4056
3966
3876
3764
3611
3420
3231
3080
2968
2868
2764
2660
2573
2510
2455
2396
2320
2207
2041
1837
1655
1561
1578
1683
1844
2058
2328
2625
2881
3035
3080
3042
2947
2802
2609
2391
2183
2014
1897
1835
1822
1826
1799
1717
1602
1506
1447
1392
1297
1167
1044
968
930
899
861
820
779
737
710
733
819
924
980
967
929
909
889
820
704
592
526
485
432
383
385
442
476
413
282
182
165
181
147
40
-85
-161
-171
-147
-142
-187
-271
-345
-362
-333
-338
-437
-592
-704
-731
-758
-891
-1114
-1287
-1298
-1221
-1257
-1513
-1879
-2139
-2192
-2148
-2174
-2304
-2407
-2349
-2145
-1908
-1675
-1355
-845
-203
359
656
678
533
311
11
-384
-816
-1167
-1376
-1494
-1613
-1757
-1860
-1868
-1843
-1935
-2230
-2636
-2966
-3124
-3202
-3350
-3597
-3803
-3831
-3702
-3579
-3589
-3726
-3900
-4040
-4130
-4190
-4263
-4404
-4631
-4898
-5151
-5419
-5820
-6441
-7227
-8011
-8689
-9305
-9954
-10640
-11273
-11799
-12263
-12764
-13325
-13836
-14145
-14191
-14074
-13991
-14063
-14218
-14232
-13950
-13457
-12997
-12718
-12546
-12302
-11922
-11516
-11210
-10985
-10726
-10388
-10056
-9820
-9639
-9393
-9030
-8620
-8256
-7940
-7594
-7182
-6762
-6391
-6010
-5494
-4826
-4159
-3642
-3217
-2661
-1823
-798
211
1127
2072
3183
4430
5646
6676
7439
7925
8203
8478
8856
9268
9524
9512
9330
9143
8997
8822
8521
7926
6712
4606
1850
-690
-2133
-2362
-2048
-1811
-1455
-206
2315
5554
8478
10488
11723
12629
13407
13948
14147
14136
14157
14333
14592
14804
14946
15104
15286
15416
15342
14985
14457
13954
13603
13412
13341
13380
13505
13609
13541
13251
12869
12598
12524
12546
12488
12284
12015
11783
11571
11276
10830
10279
9736
9260
8826
8375
7882
7386
6955
6640
6443
6329
6250
6176
6096
6007
5906
5795
5681
5558
5402
5202
4989
4830
4763
4746
4688
4538
4345
4184
4065
3922
3707
3447
3222
3067
2945
2807
2665
2558
2492
2433
2373
2347
2383
2440
2458
2436
2442
2531
2665
2761
2797
2838
2949
3120
3288
3429
3579
3782
4029
4264
4440
4550
4632
4735
4879
5036
5157
5218
5269
5378
5546
5697
5771
5811
5910
6092
6270
6353
6360
6389
6500
6621
6641
6539
6394
6275
6156
5975
5745
5569
5531
5586
5619
5592
5594
5746
6078
6511
6958
7385
7781
8115
8359
8522
8649
8749
8786
8710
8542
8368
8280
8322
8447
8571
8630
8630
8634
8681
8737
8738
8666
8571
8500
8432
8321
8178
8060
7990
7918
7782
7592
7408
7266
7146
7017
6867
6699
6499
6242
5920
5542
5124
4673
4186
3662
3112
2574
2101
1709
1354
967
545
167
-103
-300
-518
-794
-1071
-1287
-1461
-1664
-1905
-2098
-2138
-2019
-1819
-1610
-1387
-1097
-720
-312
37
280
433
546
647
727
782
842
942
1076
1195
1268
1333
1441
1582
1675
1661
1576
1517
1537
1596
1625
1608
1579
1575
1593
1618
1654
1721
1824
1936
2006
2025
2038
2099
2213
2315
2325
2227
2106
2065
2118
2183
2182
2153
2207
2378
2545
2565
2444
2338
2357
2418
2341
2080
1782
1603
1515
1345
1006
610
312
119
-93
-408
-744
-968
-1060
-1113
-1222
-1362
-1445
-1443
-1409
-1409
-1454
-1527
-1619
-1723
-1819
-1895
-1979
-2120
-2309
-2477
-2553
-2566
-2599
-2683
-2747
-2727
-2665
-2688
-2836
-3007
-3088
-3099
-3175
-3377
-3599
-3694
-3641
-3563
-3551
-3550
-3437
-3200
-2971
-2892
-2950
-2986
-2844
-2531
-2207
-2030
-2014
-2023
-1910
-1665
-1418
-1317
-1379
-1506
-1558
-1479
-1331
-1224
-1222
-1321
-1456
-1592
-1750
-1960
-2223
-2496
-2736
-2931
-3091
-3227
-3349
-3487
-3667
-3880
-4102
-4347
-4663
-5072
-5519
-5910
-6189
-6369
-6492
-6586
-6677
-6805
-6984
-7163
-7269
-7299
-7322
-7397
-7476
-7447
-7248
-6930
-6592
-6290
-5996
-5668
-5286
-4859
-4418
-3993
-3599
-3229
-2842
-2395
-1887
-1371
-915
-535
-180
194
554
808
903
880
824
771
674
474
189
-98
-309
-397
-351
-178
76
322
479
546
574
588
532
337
16
-341
-629
-792
-828
-748
-565
-337
-118
94
356
701
1061
1316
1443
1559
1792
2136
2443
2605
2677
2802
3049
3337
3545
3661
3777
3991
4311
4637
4857
4934
4944
4982
5070
5109
4993
4744
4518
4424
4394
4273
4019
3759
3649
3658
3611
3425
3211
3120
3130
3051
2773
2440
2281
2339
2399
2267
2052
2061
2423
2902
3134
3053
2958
3149
3569
3868
3821
3575
3468
3628
3861
3914
3747
3520
3367
3258
3093
2862
2678
2642
2758
2948
3155
3414
3782
4242
4681
4961
5027
4947
4822
4683
4480
4179
3857
3648
3607
3643
3620
3508
3397
3371
3394
3363
3257
3185
3289
3597
4011
4432
4834
5238
5614
5880
5976
5935
5833
5697
5501
5229
4914
4635
4438
4322
4270
4276
4330
4395
4444
4505
4651
4908
5204
5423
5526
5587
5705
5885
6036
6087
6073
6098
6214
6364
6446
6420
6312
6155
5934
5643
5319
5032
4798
4575
4332
4085
3870
3682
3467
3208
2965
2815
2762
2738
2687
2620
2593
2628
2686
2710
2679
2605
2514
2420
2325
2223
2113
2002
1904
1831
1789
1782
1819
1917
2073
2264
2452
2627
2815
3053
3343
3642
3883
4016
4035
4003
3998
4053
4137
4184
4156
4058
3927
3793
3667
3549
3430
3299
3159
3008
2858
2713
2567
2394
2156
1851
1517
1195
889
546
134
-285
-597
-777
-941
-1212
-1554
-1793
-1825
-1770
-1853
-2144
-2489
-2691
-2749
-2838
-3064
-3343
-3542
-3665
-3812
-4012
-4154
-4140
-4023
-3937
-3919
-3868
-3691
-3412
-3113
-2831
-2521
-2180
-1888
-1766
-1831
-1982
-2109
-2187
-2295
-2526
-2874
-3198
-3327
-3223
-3040
-2979
-3090
-3251
-3319
-3278
-3212
-3188
-3200
-3215
-3227
-3231
-3177
-3028
-2846
-2760
-2813
-2907
-2925
-2866
-2823
-2850
-2889
-2878
-2828
-2806
-2836
-2860
-2822
-2743
-2713
-2783
-2885
-2888
-2724
-2488
-2357
-2420
-2590
-2680
-2608
-2473
-2425
-2492
-2567
-2551
-2468
-2386
-2321
-2232
-2115
-2037
-2037
-2067
-2028
-1902
-1768
-1707
-1716
-1719
-1650
-1514
-1361
-1249
-1213
-1217
-1184
-1073
-938
-863
-863
-860
-787
-691
-657
-672
-642
-537
-466
-543
-717
-795
-679
-497
-465
-610
-744
-699
-515
-381
-392
-459
-422
-266
-139
-163
-294
-373
-311
-193
-176
-312
-486
-540
-446
-317
-276
-328
-383
-403
-420
-470
-520
-500
-417
-370
-423
-518
-539
-444
-310
-246
-286
-374
-437
-453
-443
-435
-434
-440
-443
-445
-457
-486
-506
-483
-413
-352
-338
-354
-343
-276
-187
-111
-44
36
125
214
318
477
679
855
962
1053
1205
1407
1538
1534
1488
1553
1747
1930
1974
1926
1926
2026
2143
2176
2143
2121
2125
2110
2075
2086
2185
2298
2309
2228
2183
2259
2385
2426
2362
2315
2390
2545
2652
2671
2692
2801
2958
3041
3006
2957
3003
3118
3174
3106
3002
2996
3092
3172
3136
3029
2974
3001
3011
2900
2708
2563
2531
2537
2463
2307
2176
2161
2228
2258
2195
2103
2071
2092
2082
1988
1858
1783
1774
1736
1590
1382
1224
1158
1081
867
547
283
193
224
225
143
71
121
281
446
574
739
1019
1358
1596
1641
1554
1464
1414
1328
1121
814
507
286
157
79
32
41
111
201
249
229
171
132
135
135
81
-36
-158
-220
-205
-156
-128
-144
-177
-185
-142
-52
44
133
240
395
574
691
686
601
544
567
608
585
508
470
520
600
636
654
745
930
1107
1170
1134
1109
1167
1256
1279
1209
1105
1032
1006
1002
993
963
913
852
804
788
801
823
850
890
943
989
1011
1025
1067
1148
1220
1223
1149
1056
1018
1053
1119
1161
1179
1214
1298
1411
1497
1526
1509
1475
1431
1359
1252
1133
1041
989
956
926
909
929
988
1046
1069
1058
1042
1038
1023
965
869
786
754
764
772
748
710
697
717
747
760
746
716
675
615
532
432
341
285
277
312
378
453
525
585
637
683
722
737
710
642
551
466
399
344
286
227
174
120
48
-47
-146
-223
-269
-310
-372
-453
-527
-570
-590
-621
-692
-808
-946
-1070
-1161
-1225
-1283
-1358
-1443
-1523
-1584
-1627
-1663
-1704
-1762
-1842
-1921
-1959
-1933
-1876
-1845
-1854
-1858
-1801
-1691
-1597
-1578
-1618
-1665
-1698
-1726
-1741
-1695
-1550
-1340
-1162
-1089
-1100
-1115
-1087
-1051
-1084
-1221
-1413
-1557
-1584
-1491
-1338
-1187
-1067
-973
-902
-873
-908
-1024
-1200
-1387
-1543
-1656
-1752
-1858
-1972
-2051
-2065
-2057
-2120
-2311
-2588
-2841
-3017
-3159
-3357
-3642
-3966
-4291
-4642
-5067
-5568
-6068
-6509
-6908
-7318
-7715
-8013
-8181
-8309
-8500
-8733
-8901
-8984
-9126
-9444
-9837
-10058
-10005
-9879
-9955
-10262
-10559
-10641
-10600
-10693
-11050
-11551
-11994
-12310
-12555
-12799
-13038
-13230
-13340
-13345
-13252
-13114
-13006
-12940
-12824
-12553
-12142
-11734
-11430
-11167
-10785
-10223
-9594
-9042
-8578
-8079
-7440
-6694
-5956
-5275
-4578
-3771
-2858
-1922
-1041
-207
643
1546
2485
3415
4301
5131
5916
6665
7367
7967
8422
8749
9003
9195
9260
9171
9040
9091
9445
10009
10637
11329
12179
13137
13929
14315
14386
14462
14714
14998
15125
15186
15457
15994
16478
16570
16295
15950
15667
15218
14332
13106
11982
11314
11083
11036
11018
11082
11322
11698
12052
12278
12382
12443
12467
12407
12258
12125
12165
12437
12804
13032
12996
12775
12564
12488
12505
12492
12375
12180
12001
11909
11886
11845
11710
11487
11254
11055
10829
10475
9997
9517
9134
8797
8356
7759
7119
6587
6180
5782
5298
4752
4222
3743
3307
2919
2606
2350
2056
1648
1169
746
463
270
49
-245
-536
-732
-834
-926
-1064
-1209
-1278
-1265
-1250
-1299
-1354
-1269
-964
-524
-132
123
329
633
1064
1506
1840
2069
2287
2546
2800
2981
3103
3228
3372
3482
3526
3574
3748
4093
4528
4936
5269
5563
5875
6214
6544
6811
6976
7035
7029
7026
7066
7126
7150
7122
7076
7056
7063
7050
6989
6894
6795
6705
6616
6528
6462
6440
6460
6493
6511
6517
6543
6609
6695
6750
6735
6664
6583
6522
6468
6380
6239
6048
5821
5585
5373
5217
5109
4981
4771
4484
4199
3994
3856
3686
3404
3050
2756
2615
2589
2566
2502
2485
2607
2852
3100
3281
3443
3651
3862
3964
3924
3846
3823
3799
3655
3370
3068
2847
2661
2417
2144
1990
2022
2116
2108
1998
1957
2117
2405
2626
2673
2600
2534
2546
2620
2721
2829
2945
3065
3209
3402
3655
3952
4240
4465
4607
4694
4792
4946
5142
5314
5424
5519
5668
5873
6038
6080
6026
5966
5936
5887
5763
5601
5478
5421
5375
5295
5207
5168
5183
5186
5132
5047
4997
5014
5058
5065
5011
4924
4840
4778
4732
4684
4620
4533
4428
4315
4221
4163
4125
4045
3875
3643
3448
3357
3319
3213
2984
2724
2549
2460
2339
2109
1825
1595
1435
1251
983
687
457
293
93
-213
-583
-933
-1256
-1615
-2039
-2465
-2811
-3080
-3345
-3647
-3944
-4184
-4363
-4525
-4688
-4833
-4939
-5024
-5118
-5220
-5299
-5352
-5415
-5522
-5649
-5738
-5769
-5794
-5878
-6005
-6095
-6094
-6035
-5983
-5942
-5858
-5698
-5516
-5388
-5339
-5317
-5262
-5186
-5146
-5176
-5254
-5342
-5417
-5488
-5574
-5695
-5855
-6039
-6218
-6368
-6495
-6632
-6790
-6933
-7011
-7011
-6965
-6906
-6821
-6663
-6409
-6094
-5780
-5495
-5222
-4931
-4632
-4348
-4089
-3833
-3561
-3271
-2983
-2701
-2393
-2033
-1626
-1211
-816
-435
-39
378
776
1109
1370
1601
1848
2104
2318
2455
2541
2639
2780
2936
3057
3132
3191
3272
3378
3478
3548
3594
3638
3694
3749
3783
3803
3833
3881
3921
3912
3854
3795
3787
3825
3857
3846
3808
3778
3755
3710
3630
3535
3436
3298
3086
2821
2582
2409
2244
1991
1640
1292
1038
830
551
177
-167
-344
-369
-370
-417
-427
-286
-5
302
573
854
1193
1520
1698
1693
1620
1598
1605
1516
1263
924
645
516
507
541
565
580
616
693
795
882
914
882
804
705
601
497
396
295
187
78
-10
-55
-77
-130
-266
-473
-688
-863
-1047
-1331
-1729
-2111
-2293
-2227
-2068
-2017
-2093
-2121
-1959
-1683
-1534
-1652
-1952
-2265
-2553
-2931
-3487
-4146
-4734
-5138
-5357
-5422
-5338
-5092
-4684
-4110
-3378
-2556
-1776
-1123
-548
66
710
1224
1503
1687
2009
2485
2870
3003
3079
3463
4223
5000
5418
5550
5833
6550
7496
8218
8502
8539
8643
8918
9212
9355
9333
9266
9263
9337
9412
9409
9322
9208
9114
9023
8889
8722
8586
8529
8511
8445
8293
8104
7941
7813
7681
7540
7427
7373
7372
7410
7488
7611
7750
7862
7934
7992
8066
8143
8185
8185
8173
8179
8203
8220
8207
8151
8042
7825
7718
7589
7511
7447
7355
7248
7172
7145
7119
7048
6942
6864
6839
6815
6722
6559
6398
6291
6208
6074
5861
5621
5415
5251
5089
4895
4685
4498
4350
4230
4116
4002
3885
3761
3626
3476
3302
3074
2764
2391
2017
1707
1461
1227
956
663
398
190
13
-183
-416
-670
-920
-1153
-1361
-1532
-1659
-1762
-1868
-1979
-2066
-2113
-2141
-2201
-2319
-2467
-2596
-2687
-2765
-2849
-2930
-2984
-3012
-3044
-3102
-3173
-3224
-3244
-3260
-3301
-3374
-3459
-3533
-3587
-3623
-3650
-3682
-3728
-3788
-3852
-3911
-3961
-4001
-4026
-4040
-4077
-4176
-4337
-4502
-4609
-4671
-4778
-4996
-5273
-5462
-5473
-5358
-5232
-5131
-4977
-4687
-4289
-3877
-3492
-3102
-2688
-2327
-2124
-2089
-2125
-2146
-2166
-2259
-2447
-2664
-2823
-2878
-2834
-2726
-2603
-2506
-2427
-2306
-2104
-1874
-1731
-1733
-1816
-1874
-1868
-1858
-1899
-1965
-1988
-1953
-1911
-1901
-1906
-1876
-1799
-1714
-1665
-1650
-1636
-1596
-1544
-1507
-1500
-1508
-1505
-1464
-1403
-1358
-1354
-1372
-1371
-1334
-1303
-1317
-1363
-1385
-1355
-1318
-1341
-1440
-1567
-1674
-1750
-1802
-1828
-1826
-1813
-1823
-1871
-1924
-1942
-1935
-1948
-2022
-2158
-2318
-2469
-2592
-2671
-2693
-2683
-2682
-2729
-2812
-2874
-2867
-2815
-2790
-2857
-2988
-3081
-3058
-2956
-2887
-2909
-2961
-2947
-2862
-2807
-2849
-2923
-2900
-2737
-2533
-2393
-2313
-2198
-1989
-1723
-1483
-1295
-1128
-949
-760
-575
-400
-222
-14
222
452
648
803
933
1050
1158
1261
1377
1511
1633
1692
1704
1766
1954
2198
2325
2252
2106
2093
2248
2394
2352
2155
2009
2055
2208
2275
2175
2009
1935
2001
2102
2092
1933
1717
1595
1621
1723
1773
1720
1643
1644
1732
1816
1823
1772
1726
1719
1715
1677
1625
1610
1639
1687
1722
1744
1758
1754
1734
1731
1773
1833
1849
1808
1778
1849
2018
2177
2221
2182
2171
2241
2309
2256
2079
1917
1903
2003
2055
1955
1771
1658
1670
1706
1645
1492
1346
1261
1198
1125
1071
1077
1114
1097
1006
928
954
1048
1084
980
792
651
615
647
666
614
492
347
263
291
381
416
324
178
124
213
329
318
171
27
-5
16
-61
-260
-450
-489
-390
-277
-214
-132
62
357
664
947
1275
1692
2103
2354
2397
2350
2345
2381
2350
2182
1931
1711
1587
1554
1582
1646
1719
1770
1793
1823
1886
1959
1965
1872
1736
1659
1688
1778
1838
1841
1840
1911
2063
2219
2292
2267
2219
2237
2325
2417
2438
2376
2290
2255
2296
2370
2410
2384
2333
2323
2379
2454
2476
2426
2343
2280
2243
2214
2170
2112
2042
1958
1870
1800
1759
1728
1670
1580
1480
1390
1303
1202
1091
1001
947
914
865
791
722
696
715
748
757
725
672
632
618
613
592
562
555
590
644
674
666
647
638
629
587
503
402
307
210
96
-29
-134
-201
-244
-281
-314
-323
-305
-280
-267
-261
-247
-225
-214
-229
-268
-311
-332
-322
-294
-278
-301
-355
-399
-399
-363
-331
-334
-366
-405
-442
-486
-540
-587
-617
-651
-712
-803
-898
-975
-1033
-1081
-1105
-1101
-1092
-1111
-1161
-1192
-1166
-1108
-1095
-1165
-1277
-1361
-1400
-1431
-1480
-1534
-1574
-1612
-1671
-1736
-1751
-1704
-1649
-1658
-1737
-1827
-1871
-1872
-1878
-1931
-2029
-2146
-2239
-2287
-2298
-2319
-2391
-2490
-2544
-2519
-2463
-2452
-2487
-2486
-2384
-2220
-2098
-2067
-2070
-2023
-1913
-1793
-1719
-1690
-1679
-1668
-1646
-1607
-1548
-1496
-1487
-1524
-1574
-1608
-1642
-1718
-1840
-1982
-2124
-2291
-2514
-2798
-3108
-3408
-3716
-4077
-4505
-4960
-5379
-5757
-6167
-6666
-7222
-7698
-7979
-8105
-8251
-8554
-8981
-9348
-9532
-9598
-9739
-10087
-10582
-11007
-11187
-11114
-10932
-10795
-10746
-10715
-10626
-10480
-10353
-10327
-10434
-10666
-10993
-11400
-11878
-12402
-12926
-13415
-13857
-14262
-14637
-14936
-15071
-14954
-14584
-14051
-13467
-12869
-12221
-11478
-10659
-9845
-9105
-8432
-7737
-6924
-5969
-4922
-3833
-2708
-1533
-328
837
1936
3020
4154
5310
6380
7298
8110
8894
9620
10160
10408
10377
10150
9789
9336
8828
8279
7664
6986
6352
5930
5756
5677
5547
5480
5800
6688
7941
9153
10149
11135
12383
13836
15113
15875
16093
15974
15693
15269
14664
13932
13172
12427
11676
10958
10430
10223
10232
10125
9634
8858
8229
8130
8529
9034
9327
9478
9818
10516
11363
11972
12152
12021
11801
11560
11226
10771
10296
9928
9680
9461
9209
8966
8799
8681
8514
8247
7925
7648
7476
7410
7435
7548
7733
7918
8018
8000
7910
7813
7742
7714
7743
7811
7856
7815
7692
7577
7536
7523
7439
7262
7091
7012
6976
6864
6652
6447
6357
6340
6253
6025
5740
5541
5463
5410
5280
5077
4894
4790
4729
4622
4440
4251
4130
4065
3958
3740
3443
3174
2992
2853
2686
2483
2285
2120
1976
1842
1739
1675
1617
1508
1327
1122
956
833
709
557
400
290
228
157
25
-152
-292
-343
-334
-345
-412
-485
-491
-412
-301
-201
-89
91
351
647
922
1170
1421
1691
1965
2207
2417
2631
2901
3239
3617
3999
4381
4790
5245
5730
6188
6573
6879
7140
7377
7582
7729
7809
7846
7865
7865
7829
7762
7711
7722
7765
7750
7611
7385
7167
7004
6839
6583
6202
5757
5339
5020
4824
4729
4682
4647
4648
4750
4984
5297
5617
5951
6375
6902
7402
7722
7850
7931
8071
8187
8099
7762
7359
7115
7068
7059
6945
6761
6653
6687
6780
6816
6762
6662
6544
6407
6249
6111
6024
5966
5915
5886
5919
6005
6070
6056
6000
5979
5994
5950
5772
5514
5299
5173
5049
4820
4509
4249
4127
4087
4003
3828
3616
3430
3267
3093
2917
2784
2697
2598
2450
2300
2218
2197
2141
1998
1832
1745
1748
1751
1683
1592
1572
1638
1718
1765
1816
1908
2001
2001
1883
1731
1636
1580
1457
1200
864
560
358
233
113
-59
-299
-577
-833
-1024
-1151
-1270
-1427
-1615
-1798
-1946
-2062
-2158
-2226
-2270
-2332
-2448
-2597
-2715
-2768
-2800
-2877
-3003
-3103
-3129
-3112
-3122
-3181
-3239
-3248
-3224
-3230
-3301
-3396
-3448
-3446
-3446
-3500
-3593
-3658
-3651
-3602
-3573
-3588
-3619
-3640
-3655
-3683
-3715
-3711
-3664
-3615
-3602
-3609
-3586
-3509
-3404
-3297
-3186
-3064
-2958
-2905
-2891
-2844
-2717
-2562
-2481
-2521
-2621
-2692
-2713
-2726
-2772
-2838
-2890
-2918
-2928
-2915
-2862
-2763
-2636
-2490
-2320
-2126
-1931
-1754
-1578
-1360
-1099
-855
-679
-543
-369
-111
187
447
649
847
1098
1393
1661
1845
1951
2032
2118
2181
2169
2078
1965
1899
1886
1871
1805
1703
1617
1568
1519
1423
1278
1111
932
729
493
246
11
-217
-456
-715
-986
-1252
-1511
-1762
-1998
-2227
-2463
-2711
-2952
-3166
-3373
-3606
-3854
-4039
-4091
-4026
-3928
-3839
-3719
-3510
-3224
-2946
-2764
-2722
-2822
-3019
-3196
-3196
-2944
-2533
-2120
-1751
-1302
-655
102
731
1091
1289
1528
1888
2270
2559
2766
2977
3227
3478
3694
3870
3955
3842
3479
2974
2532
2254
2049
1772
1411
1099
953
944
956
899
751
543
315
117
-17
-139
-364
-762
-1259
-1697
-2028
-2376
-2881
-3500
-4043
-4397
-4667
-5034
-5510
-5905
-6046
-5983
-5879
-5714
-5216
-4153
-2638
-1063
296
1555
2990
4596
5953
6565
6312
5464
4332
2999
1397
-422
-2211
-3728
-4900
-5765
-6314
-6491
-6304
-5883
-5385
-4867
-4299
-3649
-2936
-2183
-1381
-513
385
1218
1905
2439
2873
3275
3674
4045
4342
4569
4786
5073
5469
5952
6486
7029
7525
7904
8153
8366
8666
9070
9452
9687
9797
9923
10170
10494
10776
10956
11070
11171
11266
11351
11442
11559
11672
11734
11734
11724
11771
11880
12004
12107
12201
12321
12477
12631
12733
12769
12760
12738
12706
12651
12570
12484
12417
12363
12282
12149
11996
11879
11827
11809
11777
11712
11631
11552
11476
11395
11304
11190
11015
10744
10389
10014
9691
9423
9147
8804
8405
8026
7728
7498
7257
6938
6550
6161
5829
5549
5264
4939
4591
4262
3970
3685
3369
3018
2676
2381
2125
1868
1579
1283
1036
871
756
631
479
348
288
290
284
222
127
56
19
-48
-201
-419
-624
-762
-864
-1006
-1223
-1470
-1674
-1804
-1898
-2022
-2197
-2386
-2526
-2595
-2624
-2662
-2724
-2784
-2809
-2790
-2758
-2751
-2791
-2865
-2937
-2970
-2970
-2996
-3091
-3227
-3310
-3275
-3170
-3118
-3188
-3337
-3449
-3483
-3524
-3699
-4023
-4369
-4579
-4609
-4553
-4513
-4486
-4376
-4108
-3717
-3288
-2868
-2450
-2052
-1746
-1605
-1615
-1693
-1781
-1899
-2094
-2346
-2584
-2752
-2837
-2867
-2859
-2823
-2787
-2790
-2835
-2891
-2919
-2933
-2966
-3023
-3076
-3094
-3067
-3001
-2907
-2818
-2781
-2830
-2926
-2992
-2985
-2949
-2951
-2997
-3016
-2963
-2864
-2807
-2833
-2907
-2964
-2969
-2940
-2913
-2913
-2942
-2989
-3037
-3086
-3157
-3255
-3343
-3368
-3337
-3317
-3376
-3497
-3598
-3627
-3626
-3675
-3800
-3944
-4055
-4130
-4195
-4259
-4302
-4320
-4350
-4424
-4524
-4593
-4623
-4661
-4758
-4903
-5020
-5063
-5061
-5081
-5143
-5210
-5228
-5195
-5173
-5216
-5309
-5377
-5361
-5275
-5209
-5221
-5280
-5285
-5191
-5056
-4982
-4995
-5020
-4969
-4845
-4729
-4688
-4705
-4710
-4658
-4559
-4458
-4384
-4338
-4292
-4210
-4086
-3956
-3865
-3821
-3781
-3700
-3587
-3493
-3447
-3419
-3376
-3325
-3291
-3273
-3241
-3172
-3091
-3036
-3012
-2977
-2902
-2790
-2656
-2499
-2302
-2060
-1788
-1497
-1187
-852
-505
-168
142
419
662
875
1069
1266
1467
1645
1778
1879
1988
2119
2246
2331
2375
2406
2434
2438
2406
2361
2349
2376
2415
2433
2431
2437
2450
2442
2394
2330
2285
2264
2252
2244
2262
2336
2467
2631
2815
2995
3160
3307
3447
3584
3701
3770
3801
3844
3926
4015
4054
4048
4063
4132
4206
4207
4143
4102
4146
4223
4233
4150
4056
4032
4065
4066
3979
3834
3712
3647
3615
3563
3467
3340
3223
3127
3040
2934
2811
2702
2612
2507
2363
2214
2122
2099
2067
1945
1754
1589
1483
1346
1102
820
663
691
762
719
608
640
931
1340
1638
1790
1987
2364
2801
3045
3003
2838
2750
2738
2654
2431
2193
2098
2159
2269
2344
2429
2597
2831
3026
3113
3120
3123
3158
3208
3248
3276
3308
3363
3441
3534
3619
3666
3656
3598
3522
3453
3409
3396
3404
3415
3396
3342
3269
3206
3161
3122
3079
3035
3000
2968
2918
2853
2787
2733
2685
2623
2541
2452
2369
2294
2225
2174
2159
2190
2251
2305
2320
2292
2238
2179
2114
2025
1885
1687
1454
1232
1055
925
813
700
595
522
493
500
523
548
568
576
561
519
461
409
368
318
234
117
-3
-76
-76
-19
58
132
203
276
336
359
327
241
119
-22
-168
-309
-433
-534
-617
-691
-759
-811
-840
-866
-927
-1037
-1159
-1232
-1234
-1208
-1220
-1285
-1352
-1366
-1333
-1319
-1380
-1500
-1618
-1682
-1690
-1676
-1674
-1689
-1701
-1685
-1629
-1551
-1482
-1446
-1435
-1415
-1363
-1289
-1226
-1204
-1216
-1232
-1225
-1197
-1178
-1188
-1216
-1230
-1211
-1174
-1153
-1154
-1158
-1146
-1127
-1131
-1164
-1196
-1194
-1164
-1149
-1178
-1233
-1264
-1255
-1240
-1272
-1360
-1449
-1467
-1407
-1329
-1301
-1323
-1329
-1265
-1153
-1048
-960
-852
-714
-612
-627
-744
-846
-832
-722
-634
-663
-795
-938
-1019
-1037
-1038
-1078
-1178
-1315
-1426
-1456
-1411
-1356
-1355
-1419
-1529
-1693
-1953
-2331
-2768
-3169
-3500
-3825
-4215
-4640
-4962
-5083
-5061
-5076
-5249
-5546
-5851
-6118
-6435
-6892
-7472
-8052
-8553
-9040
-9627
-10314
-10945
-11370
-11618
-11853
-12160
-12438
-12544
-12500
-12479
-12564
-12618
-12478
-12223
-12138
-12358
-12679
-12787
-12643
-12519
-12652
-12947
-13116
-13019
-12746
-12436
-12108
-11733
-11378
-11174
-11103
-10996
-10735
-10421
-10230
-10160
-9999
-9558
-8880
-8165
-7515
-6847
-6054
-5161
-4312
-3610
-3019
-2436
-1807
-1135
-436
300
1077
1884
2731
3642
4596
5502
6267
6897
7483
8034
8464
8716
8894
9199
9708
10290
10746
11022
11279
11709
12338
12980
13383
13426
13240
13055
12973
12886
12662
12418
12485
13043
13843
14404
14479
14276
14140
14115
13908
13225
12090
10810
9681
8796
8087
7473
6929
6456
6028
5588
5127
4747
4586
4624
4621
4285
3621
2999
2824
3131
3560
3752
3729
3824
4303
5108
5958
6654
7214
7748
8271
8669
8826
8756
8605
8522
8549
8608
8587
8444
8238
8058
7931
7802
7587
7236
6802
6406
6163
6083
6063
5962
5721
5393
5083
4834
4604
4332
4010
3685
3372
3024
2583
2071
1581
1187
861
521
146
-201
-454
-622
-764
-897
-962
-925
-847
-817
-844
-820
-644
-358
-117
-33
-68
-82
20
200
355
433
486
603
816
1077
1318
1509
1660
1810
1977
2145
2290
2420
2567
2767
2999
3202
3336
3430
3544
3696
3825
3862
3826
3824
3937
4128
4294
4371
4401
4464
4581
4707
4795
4850
4927
5057
5215
5350
5448
5549
5705
5911
6115
6256
6309
6299
6269
6244
6235
6240
6244
6240
6244
6302
6471
6780
7209
7664
8034
8247
8317
8315
8280
8145
7807
7254
6623
6072
5631
5206
4745
4337
4117
4084
4067
3927
3716
3600
3656
3782
3850
3895
4077
4456
4882
5147
5200
5192
5268
5393
5416
5275
5084
5002
5068
5199
5316
5433
5590
5761
5854
5825
5734
5678
5687
5702
5661
5586
5569
5664
5813
5902
5867
5763
5666
5571
5406
5166
4964
4925
5026
5088
4974
4764
4655
4725
4821
4743
4478
4207
4079
4052
3973
3790
3604
3529
3546
3543
3463
3338
3216
3086
2923
2740
2569
2387
2136
1829
1569
1447
1412
1323
1118
880
719
639
536
337
91
-106
-216
-272
-314
-333
-293
-177
-16
143
254
299
290
268
255
233
149
-26
-255
-463
-606
-711
-843
-1044
-1294
-1529
-1701
-1823
-1958
-2152
-2386
-2597
-2738
-2829
-2923
-3045
-3176
-3288
-3386
-3491
-3600
-3686
-3740
-3792
-3873
-3967
-4030
-4040
-4031
-4050
-4103
-4150
-4160
-4148
-4155
-4202
-4269
-4326
-4373
-4431
-4513
-4609
-4702
-4780
-4851
-4925
-4997
-5051
-5069
-5051
-5013
-4977
-4952
-4930
-4897
-4841
-4761
-4667
-4575
-4496
-4426
-4340
-4213
-4048
-3874
-3720
-3589
-3458
-3320
-3207
-3162
-3188
-3235
-3253
-3244
-3261
-3340
-3448
-3512
-3493
-3414
-3332
-3274
-3224
-3153
-3061
-2972
-2904
-2856
-2811
-2757
-2689
-2592
-2466
-2327
-2192
-2050
-1858
-1579
-1226
-852
-498
-165
164
489
782
1017
1191
1303
1350
1332
1270
1194
1121
1060
1023
1026
1066
1114
1144
1168
1219
1303
1380
1413
1406
1387
1359
1285
1139
947
764
613
456
250
8
-209
-360
-463
-574
-712
-847
-941
-995
-1053
-1151
-1274
-1364
-1381
-1336
-1276
-1239
-1228
-1212
-1165
-1074
-933
-729
-459
-160
101
269
357
433
557
697
754
661
477
364
447
699
972
1150
1250
1377
1594
1862
2096
2266
2394
2490
2508
2392
2157
1894
1673
1480
1240
922
583
306
120
-17
-160
-332
-521
-715
-910
-1099
-1277
-1456
-1656
-1865
-2030
-2108
-2127
-2178
-2333
-2568
-2789
-2927
-2999
-3066
-3152
-3208
-3162
-2996
-2738
-2428
-2092
-1741
-1367
-933
-404
191
737
1101
1234
1179
977
576
-113
-1083
-2200
-3326
-4438
-5594
-6791
-7919
-8872
-9617
-10222
-10775
-11282
-11633
-11693
-11434
-10941
-10337
-9663
-8907
-8171
-7710
-7696
-7947
-8005
-7560
-6790
-6135
-5753
-5264
-4092
-2018
642
3339
5709
7723
9558
11398
13306
15198
16901
18267
19297
20159
21067
22127
23227
24119
24575
24532
24110
23519
22898
22210
21353
20305
19152
18008
16939
15972
15147
14520
14098
13821
13610
13434
13333
13355
13508
13763
14094
14486
14915
15329
15680
15977
16276
16621
17002
17380
17741
18106
18491
18859
19137
19289
19319
19236
19026
18659
18127
17446
16647
15777
14892
14046
13237
12412
11532
10639
9833
9175
8618
8057
7444
6828
6306
5910
5590
5258
4868
4441
4017
3620
3238
2859
2478
2105
1747
1408
1102
854
675
550
444
330
199
67
-45
-122
-178
-250
-378
-556
-720
-809
-833
-874
-999
-1188
-1347
-1408
-1403
-1428
-1545
-1736
-1926
-2070
-2191
-2331
-2511
-2716
-2918
-3101
-3271
-3440
-3621
-3811
-3991
-4145
-4288
-4462
-4693
-4949
-5166
-5336
-5535
-5824
-6142
-6342
-6363
-6320
-6373
-6520
-6580
-6412
-6081
-5769
-5559
-5348
-5023
-4632
-4338
-4242
-4280
-4342
-4412
-4556
-4792
-5046
-5225
-5307
-5334
-5334
-5302
-5231
-5139
-5056
-4992
-4950
-4950
-4997
-5057
-5063
-4980
-4850
-4745
-4675
-4568
-4356
-4091
-3915
-3912
-3999
-4001
-3840
-3635
-3560
-3650
-3775
-3797
-3715
-3636
-3634
-3684
-3718
-3715
-3701
-3681
-3633
-3557
-3502
-3520
-3603
-3665
-3633
-3528
-3442
-3448
-3519
-3557
-3512
-3422
-3362
-3364
-3375
-3351
-3304
-3301
-3367
-3452
-3483
-3454
-3419
-3428
-3485
-3549
-3587
-3598
-3599
-3610
-3637
-3679
-3724
-3760
-3798
-3839
-3868
-3879
-3884
-3909
-3964
-4029
-4070
-4073
-4053
-4049
-4083
-4133
-4149
-4103
-4024
-3984
-4025
-4099
-4113
-4052
-3977
-3958
-3984
-3988
-3943
-3900
-3907
-3946
-3952
-3916
-3899
-3951
-4032
-4052
-3986
-3890
-3836
-3840
-3842
-3796
-3711
-3638
-3608
-3598
-3570
-3512
-3441
-3370
-3290
-3168
-2988
-2786
-2616
-2502
-2415
-2306
-2138
-1943
-1796
-1737
-1716
-1627
-1409
-1131
-925
-851
-827
-731
-537
-349
-272
-296
-312
-257
-152
-52
37
152
299
430
507
555
630
750
876
970
1040
1129
1268
1440
1609
1751
1874
1995
2137
2314
2512
2701
2852
2973
3092
3229
3371
3483
3549
3589
3637
3716
3815
3901
3950
3973
4004
4068
4148
4192
4174
4133
4134
4199
4285
4332
4322
4291
4267
4242
4196
4127
4052
3976
3884
3772
3671
3632
3667
3725
3737
3688
3632
3630
3671
3691
3644
3564
3514
3501
3460
3341
3169
3024
2931
2829
2655
2439
2283
2237
2242
2200
2116
2097
2215
2405
2548
2624
2747
3007
3327
3515
3464
3258
3056
2909
2726
2428
2054
1717
1483
1336
1231
1166
1152
1163
1150
1087
994
903
817
725
624
520
429
375
378
434
505
546
544
525
522
539
562
596
659
748
840
915
975
1043
1125
1208
1279
1346
1415
1475
1508
1517
1520
1536
1572
1612
1645
1669
1689
1705
1723
1739
1751
1757
1757
1758
1763
1775
1797
1832
1866
1877
1854
1819
1803
1811
1817
1792
1741
1711
1740
1809
1861
1861
1829
1820
1849
1876
1852
1782
1725
1709
1700
1642
1530
1420
1352
1300
1217
1107
1030
1021
1046
1048
1028
1040
1105
1172
1165
1079
972
899
853
798
724
660
631
630
635
631
623
615
606
599
593
579
552
511
471
436
399
339
247
132
16
-84
-160
-226
-299
-386
-475
-547
-600
-654
-728
-812
-883
-941
-1018
-1131
-1243
-1304
-1308
-1315
-1375
-1466
-1517
-1504
-1484
-1534
-1646
-1736
-1731
-1671
-1650
-1714
-1813
-1856
-1813
-1736
-1702
-1734
-1793
-1837
-1859
-1891
-1946
-2005
-2034
-2029
-2021
-2035
-2055
-2037
-1966
-1885
-1849
-1865
-1887
-1873
-1837
-1815
-1804
-1762
-1660
-1531
-1433
-1378
-1330
-1250
-1147
-1069
-1047
-1065
-1087
-1090
-1069
-1030
-981
-930
-901
-900
-912
-923
-919
-907
-903
-932
-1000
-1089
-1152
-1169
-1180
-1256
-1400
-1514
-1482
-1308
-1116
-1010
-933
-745
-434
-187
-193
-400
-555
-518
-417
-495
-787
-1065
-1097
-912
-749
-769
-904
-974
-918
-832
-813
-872
-984
-1172
-1502
-1989
-2577
-3217
-3935
-4796
-5805
-6872
-7862
-8696
-9381
-9996
-10631
-11337
-12083
-12774
-13336
-13805
-14291
-14864
-15444
-15864
-16016
-15941
-15755
-15502
-15152
-14680
-14130
-13564
-12980
-12348
-11696
-11117
-10672
-10307
-9923
-9491
-9073
-8733
-8489
-8342
-8282
-8268
-8171
-7856
-7296
-6596
-5844
-4988
-3870
-2411
-739
889
2273
3390
4329
5242
6217
7178
7933
8378
8664
9100
9774
10388
10585
10385
10104
9773
8899
7115
4884
3304
3058
3629
3849
3245
2640
3240
5238
7434
8368
7807
7068
7835
10606
14232
17002
18209
18646
19609
21448
23251
23812
22870
21294
20140
19728
19628
19324
18773
18315
18229
18441
18640
18618
18490
18526
18869
19416
19967
20520
21287
22375
23555
24432
24816
24845
24762
24644
24426
24124
23876
23795
23788
23627
23181
22522
21806
21140
20577
20164
19930
19793
19561
19076
18364
17575
16823
16079
15256
14350
13465
12696
12018
11326
10558
9757
9017
8357
7717
7039
6360
5785
5362
5014
4613
4115
3607
3224
2998
2831
2594
2270
1959
1757
1649
1527
1327
1080
871
737
647
567
506
481
484
488
491
521
600
711
814
887
936
977
1031
1115
1236
1376
1503
1604
1703
1836
2016
2222
2417
2563
2651
2723
2843
3032
3232
3347
3353
3344
3430
3623
3830
3975
4082
4236
4474
4766
5073
5394
5736
6077
6376
6632
6897
7207
7530
7803
8022
8254
8550
8879
9164
9387
9606
9881
10183
10406
10479
10428
10354
10322
10313
10256
10119
9948
9814
9752
9740
9752
9816
9979
10227
10467
10602
10637
10664
10734
10774
10667
10395
10067
9812
9659
9533
9370
9170
8979
8822
8706
8623
8554
8453
8286
8079
7916
7852
7838
7776
7630
7471
7386
7365
7319
7208
7094
7068
7120
7154
7108
7039
7032
7068
7040
6890
6694
6558
6478
6344
6098
5822
5652
5607
5573
5455
5286
5175
5171
5202
5162
5033
4862
4687
4479
4196
3850
3511
3226
2958
2644
2300
2018
1858
1759
1589
1302
990
760
613
459
247
29
-120
-199
-271
-363
-449
-502
-540
-588
-627
-629
-616
-627
-668
-694
-687
-696
-767
-867
-918
-898
-865
-871
-892
-859
-767
-675
-623
-576
-474
-299
-84
134
367
626
921
1248
1604
1967
2291
2543
2728
2885
3027
3122
3150
3139
3127
3112
3036
2878
2688
2527
2388
2204
1954
1704
1537
1435
1292
1047
760
547
427
301
78
-213
-469
-635
-764
-941
-1171
-1384
-1525
-1613
-1708
-1838
-1976
-2089
-2184
-2297
-2448
-2621
-2778
-2903
-3021
-3166
-3336
-3484
-3563
-3577
-3580
-3615
-3675
-3724
-3747
-3774
-3841
-3940
-4027
-4084
-4138
-4223
-4328
-4409
-4440
-4446
-4464
-4498
-4517
-4510
-4504
-4528
-4570
-4568
-4479
-4329
-4203
-4161
-4175
-4153
-4031
-3839
-3667
-3580
-3552
-3503
-3383
-3212
-3055
-2946
-2870
-2788
-2687
-2591
-2543
-2554
-2584
-2577
-2500
-2365
-2212
-2065
-1909
-1720
-1499
-1265
-1035
-814
-612
-452
-342
-248
-129
17
149
242
328
471
677
868
981
1037
1129
1320
1584
1855
2107
2364
2646
2945
3261
3630
4066
4501
4809
4892
4769
4542
4295
4029
3690
3234
2672
2072
1539
1161
964
885
818
695
528
386
318
322
349
357
338
307
292
312
361
420
479
547
627
698
725
697
643
617
637
672
669
605
506
423
384
377
362
311
227
110
-47
-266
-540
-826
-1074
-1279
-1478
-1699
-1932
-2147
-2333
-2513
-2708
-2921
-3144
-3369
-3589
-3804
-4015
-4225
-4417
-4540
-4545
-4447
-4319
-4214
-4097
-3872
-3493
-3011
-2536
-2152
-1883
-1685
-1463
-1120
-624
-75
353
559
611
667
803
916
806
355
-248
-726
-979
-1109
-1216
-1242
-1122
-1001
-1130
-1536
-2011
-2549
-3646
-5815
-8720
-11101
-11852
-11132
-10128
-9650
-9182
-7554
-4419
-783
1971
3381
4095
4929
6026
6986
7566
8010
8717
9783
11011
12255
13674
15424
17426
19394
21076
22489
23823
25172
26453
27547
28401
28976
29168
28892
28246
27473
26756
26090
25373
24569
23723
22857
21916
20846
19674
18488
17349
16263
15240
14330
13573
12946
12378
11832
11338
10940
10653
10468
10375
10380
10467
10611
10792
11015
11276
11534
11722
11810
11823
11821
11829
11808
11689
11445
11120
10783
10451
10069
9573
8977
8367
7819
7325
6828
6312
5815
5379
4986
4582
4141
3680
3225
2780
2340
1908
1485
1065
648
261
-61
-328
-602
-939
-1317
-1652
-1897
-2101
-2361
-2706
-3065
-3332
-3476
-3569
-3707
-3905
-4084
-4158
-4138
-4128
-4212
-4364
-4472
-4489
-4495
-4603
-4809
-4994
-5083
-5157
-5344
-5636
-5859
-5870
-5737
-5643
-5657
-5650
-5480
-5175
-4876
-4635
-4359
-3973
-3571
-3336
-3327
-3407
-3429
-3408
-3490
-3750
-4086
-4332
-4423
-4432
-4455
-4503
-4522
-4479
-4401
-4339
-4311
-4299
-4287
-4293
-4336
-4392
-4409
-4354
-4252
-4159
-4104
-4050
-3963
-3857
-3787
-3788
-3821
-3805
-3694
-3527
-3390
-3342
-3374
-3406
-3349
-3194
-3023
-2947
-2986
-3044
-2999
-2832
-2645
-2536
-2506
-2470
-2367
-2232
-2139
-2116
-2129
-2136
-2119
-2087
-2041
-1982
-1909
-1818
-1714
-1623
-1586
-1627
-1713
-1770
-1758
-1714
-1709
-1779
-1869
-1887
-1803
-1678
-1618
-1675
-1812
-1924
-1943
-1905
-1903
-1977
-2076
-2105
-2040
-1950
-1921
-1962
-2016
-2034
-2033
-2048
-2097
-2163
-2230
-2281
-2291
-2244
-2163
-2099
-2074
-2052
-1985
-1882
-1798
-1777
-1786
-1773
-1737
-1715
-1723
-1725
-1689
-1627
-1589
-1592
-1589
-1544
-1475
-1441
-1464
-1495
-1475
-1417
-1395
-1460
-1568
-1624
-1612
-1615
-1713
-1876
-1985
-1971
-1896
-1882
-1961
-2053
-2062
-2016
-2015
-2102
-2212
-2252
-2225
-2214
-2253
-2292
-2257
-2160
-2088
-2094
-2133
-2131
-2076
-2032
-2049
-2109
-2157
-2167
-2159
-2164
-2182
-2194
-2188
-2179
-2181
-2195
-2201
-2180
-2133
-2082
-2042
-2008
-1970
-1924
-1864
-1788
-1696
-1600
-1525
-1466
-1387
-1264
-1121
-1014
-957
-889
-744
-532
-333
-215
-142
-29
164
388
572
687
766
869
1011
1166
1303
1417
1545
1723
1940
2138
2278
2386
2516
2698
2875
2969
2962
2917
2933
3053
3226
3344
3328
3193
3047
2996
3039
3069
2988
2809
2652
2593
2596
2569
2512
2509
2605
2718
2739
2714
2816
3128
3528
3824
4004
4228
4596
4979
5144
5030
4780
4564
4388
4144
3807
3473
3260
3196
3216
3261
3303
3332
3343
3333
3305
3231
3087
2887
2700
2576
2494
2389
2249
2129
2090
2106
2085
1964
1769
1588
1480
1430
1378
1278
1143
1029
976
970
964
931
897
904
954
999
986
917
826
747
690
655
647
670
709
749
800
888
1016
1138
1197
1195
1193
1236
1303
1333
1301
1268
1305
1416
1517
1539
1517
1548
1674
1820
1884
1873
1903
2058
2276
2422
2442
2429
2500
2651
2776
2800
2765
2779
2884
3019
3092
3085
3070
3117
3224
3318
3340
3314
3318
3393
3486
3517
3470
3425
3453
3532
3573
3532
3459
3420
3417
3398
3342
3286
3268
3269
3238
3164
3083
3025
2976
2897
2768
2610
2449
2299
2156
2004
1828
1628
1432
1271
1149
1035
903
767
664
610
576
530
476
442
434
419
363
272
177
93
10
-85
-179
-246
-265
-244
-195
-114
6
150
282
376
451
548
674
782
818
800
819
947
1154
1328
1401
1418
1481
1621
1758
1801
1747
1670
1631
1624
1611
1584
1571
1568
1537
1456
1364
1327
1344
1336
1227
1039
876
804
786
733
628
549
572
674
757
767
754
794
878
910
824
666
539
495
482
430
343
272
231
169
57
-50
-73
-26
-16
-115
-252
-254
-35
309
562
549
232
-311
-972
-1697
-2487
-3337
-4180
-4883
-5326
-5475
-5379
-5102
-4691
-4208
-3743
-3368
-3059
-2765
-2528
-2473
-2660
-2952
-3142
-3187
-3282
-3642
-4243
-4852
-5280
-5573
-5925
-6450
-7099
-7743
-8289
-8730
-9126
-9572
-10152
-10851
-11549
-12121
-12555
-12941
-13338
-13684
-13889
-13985
-14124
-14404
-14734
-14933
-14955
-14940
-15034
-15199
-15259
-15116
-14847
-14561
-14238
-13761
-13112
-12445
-11929
-11531
-11050
-10370
-9599
-8953
-8508
-8128
-7630
-6997
-6379
-5903
-5532
-5127
-4633
-4146
-3767
-3425
-2885
-1989
-848
244
1108
1927
2975
4233
5361
6111
6642
7287
8069
8665
8878
8956
9223
9493
9178
8105
6969
6690
7362
8051
7767
6530
5272
4717
4540
3712
1606
-1348
-4107
-6020
-7276
-8422
-9556
-10083
-9292
-7110
-4214
-1406
934
2947
4857
6571
7757
8228
8162
8014
8203
8876
9849
10817
11631
12392
13274
14293
15265
16003
16474
16788
17063
17338
17650
18053
18551
19051
19440
19679
19795
19770
19502
18937
18183
17451
16866
16367
15820
15209
14640
14171
13711
13143
12522
12056
11875
11863
11773
11493
11118
10779
10485
10138
9692
9224
8821
8493
8184
7867
7562
7272
6958
6581
6175
5806
5487
5148
4729
4250
3796
3406
3045
2669
2295
1974
1695
1385
1012
655
420
308
201
14
-194
-287
-218
-88
-26
-51
-69
4
146
281
384
497
666
887
1124
1372
1649
1950
2231
2450
2608
2731
2835
2911
2965
3022
3113
3225
3317
3371
3402
3431
3463
3521
3645
3862
4140
4402
4590
4731
4908
5176
5517
5832
6008
5983
5811
5630
5556
5581
5591
5498
5332
5221
5257
5441
5699
5959
6163
6295
6393
6543
6798
7084
7230
7121
6813
6498
6303
6169
5929
5509
5035
4713
4636
4719
4815
4869
4939
5080
5272
5458
5621
5785
5940
6028
6019
5980
6023
6175
6326
6360
6270
6155
6085
6025
5897
5683
5450
5276
5168
5085
4998
4912
4846
4799
4776
4790
4852
4926
4943
4854
4679
4490
4341
4229
4126
4021
3934
3875
3814
3723
3619
3534
3458
3336
3119
2841
2584
2398
2262
2139
2035
1985
2008
2067
2109
2128
2162
2240
2348
2439
2484
2500
2542
2652
2806
2931
2982
2997
3069
3238
3452
3616
3704
3777
3898
4058
4202
4295
4372
4470
4588
4715
4868
5084
5354
5606
5745
5728
5604
5458
5351
5264
5110
4817
4408
4005
3728
3573
3414
3129
2725
2323
2025
1821
1620
1358
1050
747
462
183
-93
-359
-624
-938
-1329
-1763
-2152
-2451
-2687
-2931
-3211
-3492
-3729
-3930
-4132
-4362
-4595
-4795
-4946
-5068
-5176
-5265
-5326
-5364
-5391
-5408
-5395
-5343
-5267
-5196
-5140
-5077
-4987
-4876
-4770
-4666
-4532
-4356
-4177
-4053
-3988
-3902
-3727
-3495
-3320
-3267
-3271
-3209
-3054
-2910
-2883
-2957
-3014
-2972
-2881
-2856
-2944
-3086
-3184
-3198
-3168
-3167
-3227
-3307
-3327
-3233
-3045
-2842
-2690
-2585
-2469
-2303
-2108
-1940
-1807
-1667
-1481
-1260
-1045
-844
-625
-359
-58
232
479
693
909
1138
1370
1586
1786
1998
2249
2542
2839
3084
3255
3374
3484
3598
3690
3736
3736
3699
3620
3492
3337
3212
3138
3054
2866
2558
2239
2029
1932
1834
1648
1415
1242
1157
1091
991
917
960
1091
1149
1000
691
387
182
-3
-303
-746
-1215
-1565
-1751
-1830
-1881
-1940
-2003
-2051
-2076
-2077
-2064
-2056
-2075
-2123
-2186
-2235
-2252
-2227
-2163
-2082
-2019
-1991
-1982
-1962
-1913
-1850
-1804
-1791
-1796
-1779
-1711
-1591
-1456
-1349
-1282
-1223
-1115
-925
-680
-454
-320
-301
-358
-411
-402
-337
-281
-290
-344
-370
-331
-280
-300
-391
-460
-443
-415
-503
-721
-929
-996
-956
-970
-1148
-1430
-1683
-1849
-1985
-2179
-2438
-2666
-2748
-2652
-2496
-2475
-2706
-3119
-3524
-3834
-4168
-4721
-5518
-6338
-6910
-7152
-7185
-7156
-7074
-6872
-6544
-6195
-5940
-5793
-5678
-5545
-5445
-5483
-5715
-6099
-6525
-6886
-7124
-7225
-7181
-6975
-6565
-5885
-4868
-3501
-1890
-244
1237
2475
3533
4509
5421
6194
6740
7059
7257
7454
7701
7953
8134
8211
8223
8238
8301
8420
8576
8755
8983
9315
9793
10404
11073
11719
12309
12857
13386
13897
14375
14817
15227
15589
15857
16003
16059
16095
16153
16208
16218
16170
16097
16030
15967
15877
15743
15567
15356
15111
14841
14579
14372
14239
14154
14070
13970
13893
13894
14006
14196
14392
14546
14658
14757
14844
14886
14858
14771
14662
14546
14401
14203
13970
13750
13573
13422
13256
13053
12811
12527
12193
11816
11425
11032
10610
10128
9582
9005
8421
7822
7186
6511
5825
5142
4463
3795
3181
2668
2245
1847
1413
950
523
169
-146
-482
-847
-1172
-1398
-1554
-1743
-2029
-2358
-2625
-2815
-3041
-3410
-3856
-4174
-4244
-4168
-4143
-4211
-4210
-3992
-3629
-3325
-3157
-2994
-2712
-2403
-2281
-2422
-2657
-2791
-2835
-2975
-3305
-3706
-3991
-4115
-4192
-4315
-4448
-4505
-4496
-4522
-4638
-4766
-4796
-4727
-4674
-4741
-4894
-4990
-4956
-4854
-4808
-4864
-4959
-5006
-5005
-5007
-5042
-5077
-5065
-5008
-4949
-4926
-4942
-4987
-5051
-5118
-5153
-5129
-5078
-5064
-5116
-5186
-5205
-5161
-5113
-5121
-5179
-5233
-5252
-5254
-5265
-5266
-5222
-5144
-5108
-5148
-5211
-5192
-5064
-4921
-4881
-4954
-5023
-4972
-4809
-4650
-4587
-4591
-4558
-4431
-4246
-4068
-3910
-3727
-3506
-3289
-3132
-3026
-2896
-2691
-2462
-2314
-2280
-2266
-2137
-1867
-1573
-1386
-1306
-1202
-972
-666
-431
-319
-250
-120
63
202
263
315
432
577
645
620
613
724
902
997
946
866
905
1069
1202
1184
1063
993
1058
1186
1253
1216
1140
1100
1111
1123
1081
964
804
660
569
530
491
414
320
260
247
236
180
89
19
-12
-50
-136
-237
-292
-295
-312
-397
-524
-617
-644
-646
-669
-725
-775
-780
-735
-661
-585
-530
-501
-479
-442
-396
-373
-393
-436
-462
-451
-415
-379
-348
-311
-262
-206
-147
-91
-40
-9
-13
-46
-81
-93
-79
-65
-76
-111
-139
-127
-74
-13
18
13
-1
5
33
73
110
141
165
183
193
195
196
209
238
264
266
244
225
248
309
363
366
329
300
307
323
304
248
197
170
126
3
-186
-348
-419
-468
-623
-900
-1136
-1150
-943
-706
-590
-537
-371
-31
361
669
907
1187
1516
1746
1751
1595
1456
1408
1341
1110
726
365
179
164
198
196
170
169
205
245
265
277
292
303
294
261
230
241
310
422
546
640
684
689
691
722
790
882
974
1062
1150
1245
1340
1416
1463
1482
1496
1535
1584
1610
1595
1567
1573
1621
1663
1652
1599
1565
1581
1609
1602
1566
1546
1560
1567
1531
1474
1458
1501
1544
1522
1448
1393
1406
1448
1448
1391
1330
1319
1346
1357
1331
1315
1361
1452
1520
1528
1522
1570
1681
1781
1809
1785
1788
1858
1955
2016
2021
2008
2023
2074
2136
2177
2172
2107
1992
1862
1755
1680
1608
1511
1405
1345
1389
1542
1747
1918
2008
2035
2051
2081
2090
2013
1834
1596
1370
1189
1052
948
869
797
698
554
391
265
203
169
98
-32
-180
-288
-340
-379
-450
-562
-692
-825
-965
-1110
-1228
-1283
-1283
-1284
-1334
-1415
-1466
-1444
-1371
-1307
-1277
-1250
-1179
-1052
-898
-748
-603
-453
-306
-184
-99
-31
35
97
141
172
216
284
344
350
304
266
286
350
395
386
348
331
348
378
415
478
565
638
654
629
632
701
800
850
815
740
701
741
836
929
985
1016
1073
1194
1348
1465
1505
1520
1594
1751
1914
1991
1993
2018
2143
2338
2504
2580
2595
2608
2648
2711
2782
2850
2896
2893
2826
2710
2570
2410
2201
1905
1523
1116
758
477
239
2
-223
-382
-470
-544
-645
-723
-693
-575
-539
-742
-1167
-1635
-1994
-2292
-2726
-3430
-4310
-5114
-5645
-5928
-6180
-6580
-7090
-7507
-7717
-7865
-8210
-8827
-9505
-10012
-10361
-10776
-11375
-11982
-12318
-12329
-12243
-12290
-12461
-12554
-12445
-12230
-12100
-12137
-12240
-12255
-12134
-11958
-11838
-11808
-11798
-11714
-11515
-11231
-10910
-10581
-10247
-9882
-9443
-8898
-8279
-7666
-7116
-6605
-6051
-5404
-4707
-4045
-3456
-2894
-2299
-1658
-995
-345
254
776
1224
1658
2148
2696
3229
3675
4055
4459
4926
5404
5815
6130
6373
6559
6679
6730
6761
6834
6968
7141
7334
7540
7727
7841
7865
7866
7913
7956
7828
7403
6747
6065
5494
4987
4449
3929
3643
3779
4306
5024
5776
6570
7504
8579
9639
10494
11072
11455
11775
12099
12409
12663
12880
13105
13360
13616
13813
13910
13902
13795
13590
13293
12940
12587
12287
12041
11815
11582
11339
11093
10845
10582
10296
9995
9692
9399
9125
8876
8650
8431
8208
7993
7817
7705
7634
7560
7452
7311
7171
7058
6967
6888
6816
6757
6716
6686
6650
6596
6529
6445
6327
6165
5978
5810
5678
5542
5352
5121
4924
4833
4852
4930
5039
5196
5419
5678
5926
6146
6348
6528
6646
6688
6692
6705
6724
6709
6648
6595
6602
6654
6682
6652
6599
6583
6607
6616
6581
6552
6582
6653
6690
6654
6598
6589
6605
6556
6398
6194
6036
5905
5710
5427
5179
5119
5267
5510
5730
5914
6107
6328
6545
6723
6819
6760
6492
6081
5702
5492
5395
5236
4944
4656
4550
4627
4711
4665
4533
4446
4446
4464
4455
4473
4572
4694
4699
4520
4250
4010
3809
3547
3169
2763
2475
2360
2354
2370
2400
2494
2654
2805
2873
2865
2864
2920
2984
2952
2780
2539
2350
2268
2238
2173
2042
1888
1755
1642
1524
1395
1282
1209
1160
1097
997
874
767
709
707
745
808
896
1017
1159
1292
1388
1459
1532
1608
1646
1619
1564
1543
1589
1666
1725
1755
1782
1835
1925
2057
2234
2431
2610
2759
2913
3122
3377
3615
3790
3922
4059
4210
4348
4457
4559
4669
4761
4816
4868
4983
5170
5349
5445
5494
5620
5895
6238
6478
6545
6522
6537
6612
6650
6566
6384
6201
6076
5988
5912
5883
5940
6034
6048
5920
5734
5624
5620
5621
5529
5362
5226
5187
5219
5262
5284
5277
5210
5039
4773
4472
4179
3873
3499
3053
2604
2224
1926
1668
1392
1078
748
455
227
50
-129
-360
-647
-943
-1201
-1412
-1594
-1771
-1951
-2139
-2336
-2524
-2678
-2804
-2941
-3110
-3279
-3397
-3460
-3519
-3630
-3786
-3927
-4005
-4028
-4042
-4093
-4199
-4344
-4482
-4565
-4587
-4601
-4668
-4788
-4894
-4926
-4896
-4862
-4862
-4874
-4859
-4802
-4723
-4644
-4574
-4514
-4459
-4393
-4315
-4240
-4187
-4152
-4109
-4045
-3995
-4004
-4069
-4134
-4167
-4209
-4317
-4475
-4599
-4633
-4625
-4678
-4821
-4971
-5031
-5002
-4971
-4997
-5037
-4998
-4849
-4634
-4413
-4193
-3949
-3675
-3394
-3125
-2852
-2561
-2278
-2036
-1838
-1644
-1420
-1175
-946
-745
-541
-304
-59
132
258
391
626
979
1363
1680
1912
2122
2361
2622
2886
3166
3472
3743
3871
3819
3685
3608
3607
3554
3327
2954
2594
2369
2266
2191
2083
1959
1851
1757
1656
1545
1441
1350
1253
1132
1000
881
789
712
630
530
418
308
210
123
41
-35
-91
-113
-102
-94
-120
-179
-249
-315
-387
-481
-577
-634
-626
-574
-522
-486
-444
-370
-272
-184
-118
-50
51
192
335
436
485
524
605
732
840
859
796
750
820
992
1148
1182
1108
1036
1041
1084
1067
946
765
615
554
580
638
656
592
481
405
411
449
408
240
27
-97
-88
-24
-3
-24
-4
115
301
493
660
811
965
1129
1323
1574
1858
2097
2237
2314
2413
2548
2609
2497
2260
2036
1873
1662
1285
796
359
38
-291
-745
-1243
-1561
-1587
-1436
-1278
-1125
-841
-341
284
871
1339
1726
2088
2409
2634
2745
2788
2820
2841
2805
2696
2593
2653
3001
3647
4510
5524
6703
8086
9612
11099
12344
13246
13824
14129
14165
13906
13389
12750
12171
11768
11548
11461
11480
11629
11936
12370
12849
13304
13726
14130
14503
14809
15032
15194
15316
15370
15313
15139
14896
14641
14399
14170
13965
13805
13677
13539
13344
13092
12831
12601
12384
12135
11834
11510
11201
10912
10620
10314
10009
9731
9481
9236
8959
8618
8195
7700
7171
6645
6115
5544
4925
4314
3806
3440
3163
2889
2581
2301
2130
2066
2002
1831
1548
1266
1068
897
633
256
-90
-244
-225
-211
-310
-440
-429
-259
-88
-51
-102
-113
-80
-154
-447
-894
-1336
-1700
-2061
-2509
-3026
-3504
-3856
-4081
-4243
-4394
-4551
-4702
-4829
-4931
-5030
-5146
-5281
-5417
-5539
-5651
-5765
-5868
-5940
-5970
-5975
-5994
-6050
-6143
-6250
-6348
-6429
-6505
-6585
-6654
-6682
-6658
-6628
-6649
-6722
-6773
-6732
-6623
-6562
-6621
-6719
-6682
-6430
-6051
-5717
-5489
-5272
-4945
-4522
-4152
-3963
-3932
-3939
-3884
-3789
-3728
-3728
-3729
-3654
-3493
-3304
-3144
-3020
-2903
-2772
-2651
-2580
-2566
-2577
-2560
-2496
-2410
-2355
-2366
-2434
-2484
-2430
-2264
-2078
-1979
-1989
-2016
-1958
-1818
-1707
-1717
-1830
-1939
-1961
-1900
-1821
-1758
-1701
-1626
-1543
-1465
-1389
-1308
-1236
-1195
-1194
-1198
-1155
-1075
-1017
-1024
-1064
-1067
-1027
-1011
-1090
-1240
-1361
-1391
-1362
-1345
-1370
-1407
-1433
-1457
-1509
-1579
-1644
-1696
-1763
-1859
-1953
-2027
-2097
-2188
-2299
-2403
-2503
-2634
-2797
-2922
-2944
-2910
-2943
-3110
-3331
-3475
-3521
-3585
-3757
-4003
-4220
-4352
-4418
-4447
-4443
-4432
-4483
-4629
-4795
-4892
-4936
-5035
-5251
-5495
-5613
-5561
-5444
-5381
-5357
-5280
-5115
-4933
-4826
-4792
-4746
-4615
-4413
-4217
-4075
-3963
-3813
-3584
-3304
-3034
-2784
-2517
-2191
-1812
-1440
-1128
-879
-664
-466
-282
-118
15
112
180
247
371
575
823
1050
1229
1382
1549
1740
1918
2048
2115
2143
2177
2251
2363
2472
2540
2572
2606
2661
2702
2679
2588
2491
2428
2361
2230
2058
1951
1993
2131
2242
2302
2421
2716
3153
3577
3871
4094
4369
4709
4984
5075
5002
4902
4871
4878
4832
4700
4536
4429
4412
4459
4523
4564
4562
4514
4439
4365
4301
4218
4090
3932
3784
3671
3573
3455
3333
3255
3236
3223
3146
3009
2889
2853
2873
2877
2840
2804
2807
2814
2770
2674
2593
2578
2598
2578
2486
2359
2250
2176
2142
2140
2150
2129
2044
1913
1788
1701
1618
1497
1337
1176
1045
931
821
727
671
649
633
608
581
571
575
588
629
696
767
810
840
911
1044
1208
1356
1490
1654
1862
2078
2255
2394
2531
2680
2822
2936
3014
3057
3073
3080
3110
3177
3256
3316
3360
3413
3482
3545
3581
3615
3673
3726
3717
3629
3530
3522
3626
3768
3857
3864
3836
3831
3857
3876
3837
3723
3559
3386
3235
3114
3018
2946
2890
2843
2783
2693
2563
2408
2258
2149
2087
2032
1931
1787
1661
1613
1621
1588
1448
1231
1028
887
777
646
500
386
323
277
208
134
92
83
65
8
-57
-76
-35
21
50
58
84
150
236
323
410
500
578
631
677
760
886
1004
1059
1059
1079
1183
1356
1525
1632
1667
1649
1599
1534
1475
1425
1355
1226
1048
892
833
872
929
930
867
795
751
725
676
582
459
327
193
60
-60
-151
-219
-289
-379
-490
-608
-716
-792
-814
-791
-774
-830
-964
-1093
-1138
-1145
-1258
-1545
-1885
-2071
-2041
-1942
-1946
-2040
-2045
-1854
-1553
-1290
-1060
-717
-198
340
656
690
611
599
611
436
-30
-638
-1129
-1397
-1560
-1755
-1966
-2072
-2046
-2012
-2080
-2211
-2299
-2359
-2535
-2907
-3356
-3678
-3831
-3995
-4338
-4800
-5172
-5357
-5484
-5738
-6139
-6546
-6859
-7127
-7457
-7869
-8304
-8747
-9256
-9857
-10437
-10844
-11051
-11210
-11480
-11871
-12255
-12534
-12741
-12973
-13279
-13627
-13943
-14173
-14311
-14375
-14398
-14401
-14368
-14258
-14052
-13783
-13498
-13201
-12868
-12497
-12140
-11855
-11640
-11434
-11186
-10916
-10688
-10535
-10409
-10231
-9962
-9640
-9331
-9049
-8751
-8391
-7975
-7550
-7143
-6734
-6288
-5786
-5229
-4622
-3976
-3303
-2617
-1903
-1133
-321
453
1129
1758
2443
3197
3904
4465
4936
5457
6057
6586
6878
6958
7001
7097
7164
7083
6876
6680
6616
6737
7049
7602
8455
9555
10739
11891
13076
14440
15908
17075
17510
17241
16874
17033
17625
17798
16796
14857
13113
12482
12761
12895
12144
10834
9944
10071
10934
11809
12244
12310
12317
12426
12573
12630
12530
12273
11881
11446
11082
10868
10836
10969
11202
11422
11499
11381
11126
10837
10560
10233
9787
9269
8809
8465
8173
7846
7513
7272
7165
7115
7008
6815
6585
6362
6152
5939
5727
5526
5339
5164
4998
4834
4639
4373
4021
3633
3269
2955
2664
2349
2000
1655
1367
1156
987
818
654
539
497
508
542
614
752
953
1175
1405
1682
2037
2424
2752
2997
3236
3557
3946
4299
4543
4715
4903
5134
5360
5520
5608
5664
5730
5813
5904
6003
6134
6322
6561
6805
7021
7226
7496
7876
8306
8646
8805
8825
8840
8930
9033
9018
8851
8652
8587
8698
8854
8896
8805
8719
8761
8896
8966
8865
8653
8483
8443
8468
8445
8336
8214
8160
8164
8141
8039
7897
7791
7746
7726
7717
7774
7959
8226
8430
8461
8338
8164
7977
7715
7318
6836
6389
6038
5736
5415
5075
4778
4561
4391
4192
3916
3564
3177
2812
2524
2327
2195
2098
2053
2099
2248
2443
2597
2677
2710
2741
2765
2730
2622
2497
2432
2453
2513
2554
2583
2648
2777
2935
3051
3098
3123
3194
3342
3528
3678
3761
3826
3950
4165
4415
4595
4648
4615
4597
4642
4698
4688
4572
4404
4280
4228
4189
4078
3882
3678
3541
3459
3354
3178
2978
2831
2747
2653
2487
2273
2085
1951
1836
1695
1524
1335
1132
917
706
529
371
201
19
-136
-223
-264
-309
-372
-422
-428
-402
-379
-350
-270
-134
12
125
222
357
546
727
815
772
641
503
392
270
74
-204
-495
-707
-820
-904
-1042
-1239
-1424
-1560
-1688
-1878
-2118
-2315
-2417
-2479
-2604
-2810
-3024
-3171
-3271
-3395
-3566
-3734
-3857
-3959
-4093
-4249
-4351
-4346
-4272
-4221
-4243
-4303
-4334
-4312
-4270
-4252
-4258
-4249
-4187
-4069
-3924
-3788
-3679
-3585
-3478
-3336
-3164
-3000
-2888
-2841
-2830
-2786
-2655
-2442
-2211
-2044
-1961
-1898
-1778
-1599
-1447
-1410
-1473
-1541
-1549
-1543
-1613
-1773
-1937
-2023
-2077
-2215
-2478
-2767
-2946
-2991
-2999
-3060
-3156
-3210
-3191
-3138
-3086
-3020
-2917
-2815
-2790
-2873
-3021
-3171
-3312
-3483
-3709
-3955
-4158
-4278
-4305
-4242
-4087
-3855
-3581
-3306
-3046
-2789
-2522
-2243
-1974
-1738
-1539
-1352
-1135
-860
-539
-214
85
344
557
710
800
859
947
1092
1275
1436
1541
1609
1687
1800
1919
1985
1958
1858
1748
1680
1640
1570
1432
1260
1135
1102
1117
1101
1023
937
919
984
1073
1128
1146
1176
1253
1367
1480
1578
1673
1772
1851
1886
1880
1864
1859
1859
1838
1785
1710
1626
1549
1494
1474
1481
1480
1452
1419
1425
1479
1535
1548
1533
1548
1623
1728
1804
1830
1832
1846
1879
1923
1985
2078
2184
2270
2326
2389
2494
2623
2725
2778
2813
2878
2964
3019
3015
2981
2970
2980
2947
2793
2513
2159
1782
1409
1029
601
91
-482
-1041
-1517
-1936
-2401
-2962
-3529
-3961
-4268
-4642
-5243
-5965
-6486
-6598
-6408
-6191
-6068
-5881
-5391
-4551
-3530
-2543
-1677
-893
-132
643
1455
2297
3106
3786
4274
4595
4826
5005
5103
5078
4924
4685
4457
4308
4216
4107
3950
3793
3675
3520
3173
2581
1883
1231
604
-122
-882
-1316
-1076
-216
851
1778
2636
3720
5093
6429
7323
7680
7756
7849
8050
8279
8491
8750
9140
9667
10260
10847
11412
11931
12336
12547
12547
12417
12270
12161
12067
11966
11880
11821
11733
11527
11177
10769
10407
10110
9810
9437
9008
8581
8190
7809
7385
6892
6363
5876
5501
5261
5123
5031
4968
4965
5054
5248
5533
5889
6279
6634
6880
6981
6983
6977
7009
7033
6977
6823
6642
6528
6512
6543
6531
6435
6276
6103
5947
5802
5644
5466
5287
5128
4999
4897
4820
4767
4721
4646
4512
4321
4091
3842
3568
3266
2949
2637
2330
2020
1708
1417
1146
861
545
233
-14
-191
-367
-620
-939
-1246
-1510
-1767
-2063
-2375
-2652
-2890
-3137
-3392
-3569
-3580
-3463
-3345
-3296
-3261
-3161
-3017
-2946
-3008
-3149
-3284
-3420
-3620
-3888
-4120
-4230
-4264
-4348
-4526
-4701
-4749
-4688
-4659
-4762
-4942
-5058
-5053
-5004
-5000
-5038
-5040
-4967
-4869
-4820
-4827
-4831
-4777
-4676
-4575
-4502
-4454
-4406
-4336
-4246
-4146
-4047
-3961
-3881
-3802
-3728
-3670
-3610
-3515
-3374
-3229
-3142
-3126
-3126
-3072
-2967
-2874
-2853
-2897
-2945
-2953
-2927
-2881
-2826
-2765
-2718
-2700
-2693
-2668
-2626
-2606
-2650
-2741
-2817
-2833
-2813
-2806
-2825
-2842
-2828
-2811
-2835
-2907
-2986
-3037
-3058
-3096
-3180
-3284
-3340
-3305
-3214
-3155
-3197
-3297
-3357
-3331
-3270
-3268
-3374
-3539
-3686
-3771
-3805
-3826
-3863
-3918
-3971
-3989
-3964
-3926
-3913
-3937
-3968
-3975
-3965
-3979
-4023
-4065
-4060
-4007
-3957
-3965
-4017
-4042
-3992
-3897
-3837
-3846
-3858
-3774
-3580
-3376
-3267
-3255
-3234
-3118
-2944
-2824
-2812
-2849
-2840
-2756
-2648
-2573
-2535
-2496
-2423
-2337
-2286
-2292
-2322
-2317
-2251
-2175
-2159
-2234
-2342
-2405
-2410
-2432
-2534
-2668
-2711
-2594
-2380
-2172
-1971
-1674
-1220
-689
-198
250
771
1405
2009
2377
2468
2442
2471
2550
2536
2340
2057
1867
1862
1985
2120
2209
2270
2337
2418
2484
2513
2484
2394
2266
2141
2045
1971
1885
1775
1672
1613
1587
1538
1431
1302
1215
1207
1256
1330
1411
1494
1547
1555
1553
1600
1717
1844
1905
1893
1874
1919
2022
2124
2169
2157
2132
2144
2199
2253
2254
2206
2155
2141
2156
2162
2149
2151
2194
2260
2290
2268
2230
2227
2262
2294
2274
2205
2136
2123
2175
2240
2259
2213
2148
2119
2115
2083
1985
1849
1732
1653
1574
1479
1402
1395
1454
1525
1560
1564
1559
1538
1475
1362
1237
1136
1053
957
839
736
705
751
823
866
869
861
869
885
884
859
830
810
797
793
811
858
905
905
849
800
820
897
952
931
882
900
1016
1163
1246
1239
1203
1203
1256
1328
1389
1445
1519
1615
1729
1859
2007
2173
2330
2443
2493
2502
2508
2530
2559
2574
2572
2566
2568
2582
2601
2617
2619
2595
2544
2480
2432
2434
2504
2623
2735
2784
2764
2734
2761
2846
2912
2873
2715
2521
2391
2356
2381
2410
2411
2384
2347
2323
2320
2318
2284
2201
2093
2009
1980
1995
2018
2027
2030
2050
2091
2137
2159
2151
2128
2115
2115
2097
2043
1966
1901
1858
1812
1750
1678
1607
1517
1387
1247
1166
1175
1214
1192
1095
1009
994
988
880
654
439
359
388
398
332
271
326
490
675
842
1055
1360
1667
1814
1745
1570
1444
1384
1272
1014
655
333
148
82
53
1
-66
-114
-127
-124
-136
-183
-260
-345
-422
-505
-609
-728
-820
-850
-832
-825
-873
-961
-1031
-1048
-1032
-1024
-1026
-1006
-957
-935
-999
-1129
-1223
-1207
-1128
-1104
-1190
-1308
-1343
-1274
-1196
-1199
-1265
-1311
-1302
-1280
-1282
-1287
-1257
-1203
-1173
-1168
-1140
-1074
-1033
-1089
-1216
-1328
-1428
-1662
-2142
-2749
-3164
-3159
-2836
-2533
-2480
-2568
-2498
-2115
-1574
-1203
-1209
-1536
-1957
-2265
-2421
-2521
-2688
-2962
-3260
-3468
-3566
-3668
-3891
-4220
-4530
-4748
-4951
-5258
-5660
-6006
-6167
-6194
-6239
-6386
-6581
-6758
-6934
-7183
-7496
-7780
-7980
-8155
-8423
-8802
-9181
-9439
-9572
-9682
-9859
-10085
-10285
-10432
-10579
-10791
-11055
-11290
-11450
-11573
-11730
-11966
-12269
-12593
-12883
-13132
-13375
-13639
-13901
-14078
-14085
-13927
-13693
-13440
-13133
-12710
-12175
-11633
-11192
-10854
-10530
-10135
-9663
-9160
-8672
-8192
-7660
-7011
-6220
-5347
-4489
-3672
-2811
-1793
-622
538
1527
2348
3184
4197
5351
6467
7426
8277
9144
10073
10993
11809
12493
13059
13481
13692
13693
13580
13476
13415
13315
13104
12828
12607
12495
12439
12349
12200
12038
11886
11728
11542
11368
11285
11285
11228
10952
10461
9945
9577
9293
8872
8259
7754
7773
8360
9044
9228
8767
8063
7595
7375
6993
6125
4947
3966
3496
3432
3489
3549
3710
4007
4282
4386
4412
4615
5093
5656
6067
6344
6710
7290
7934
8392
8580
8607
8566
8416
8097
7690
7365
7207
7125
6974
6700
6340
5945
5554
5217
4966
4777
4573
4296
3973
3656
3347
2998
2586
2154
1764
1419
1076
724
414
197
60
-64
-220
-381
-481
-491
-428
-311
-135
103
373
606
777
917
1080
1277
1456
1591
1728
1926
2174
2387
2498
2544
2627
2795
2975
3061
3049
3049
3165
3387
3612
3761
3852
3952
4083
4204
4267
4267
4250
4252
4273
4288
4280
4259
4256
4284
4346
4426
4529
4668
4842
5014
5145
5226
5299
5413
5572
5721
5811
5849
5881
5953
6066
6182
6271
6324
6352
6369
6393
6443
6530
6633
6716
6780
6874
7056
7332
7645
7949
8252
8596
8986
9373
9708
9996
10272
10512
10607
10468
10132
9759
9482
9263
8945
8449
7878
7425
7182
7070
6948
6781
6633
6550
6492
6402
6298
6239
6229
6197
6084
5919
5785
5725
5715
5712
5699
5676
5636
5583
5550
5571
5622
5615
5492
5298
5139
5068
5033
4918
4691
4429
4232
4116
4015
3863
3671
3496
3370
3275
3194
3142
3131
3120
3053
2930
2814
2747
2688
2558
2349
2154
2061
2041
1986
1837
1679
1635
1717
1785
1712
1518
1344
1275
1247
1133
954
857
942
1113
1167
1034
871
864
1015
1135
1073
870
690
638
670
675
603
503
445
439
421
321
150
4
-37
-17
-53
-194
-333
-341
-234
-178
-264
-388
-371
-182
45
199
317
492
724
939
1130
1375
1689
1932
1943
1742
1521
1419
1371
1213
895
530
255
95
-22
-158
-315
-488
-685
-912
-1143
-1346
-1526
-1719
-1944
-2181
-2385
-2536
-2641
-2724
-2812
-2923
-3055
-3190
-3315
-3434
-3558
-3684
-3792
-3857
-3877
-3865
-3837
-3802
-3765
-3729
-3694
-3651
-3599
-3545
-3505
-3481
-3462
-3444
-3430
-3433
-3450
-3462
-3446
-3389
-3315
-3267
-3274
-3321
-3359
-3349
-3310
-3289
-3310
-3340
-3336
-3298
-3278
-3321
-3414
-3504
-3551
-3566
-3588
-3638
-3693
-3695
-3608
-3459
-3308
-3195
-3100
-2975
-2808
-2645
-2534
-2471
-2402
-2284
-2120
-1936
-1734
-1495
-1206
-889
-570
-261
52
370
669
914
1098
1242
1380
1524
1665
1788
1883
1947
1981
2001
2029
2075
2125
2157
2164
2165
2169
2167
2140
2091
2040
1996
1936
1829
1674
1495
1306
1097
864
640
471
360
251
89
-107
-263
-333
-359
-425
-554
-677
-721
-717
-780
-979
-1245
-1448
-1548
-1645
-1854
-2162
-2443
-2592
-2627
-2633
-2656
-2684
-2692
-2681
-2648
-2564
-2422
-2268
-2170
-2134
-2103
-2032
-1946
-1891
-1857
-1783
-1652
-1532
-1501
-1554
-1601
-1571
-1496
-1457
-1477
-1491
-1439
-1345
-1307
-1373
-1491
-1573
-1589
-1596
-1663
-1795
-1944
-2072
-2176
-2265
-2344
-2437
-2580
-2774
-2971
-3139
-3270
-3393
-3540
-3676
-3706
-3600
-3497
-3559
-3765
-3874
-3708
-3443
-3479
-3951
-4455
-4451
-3899
-3326
-3145
-3084
-2457
-1021
667
1859
2438
2974
3982
5341
6516
7215
7663
8240
9035
9832
10456
10980
11583
12252
12763
12949
12898
12886
13125
13598
14077
14418
14707
15156
15881
16780
17616
18188
18452
18507
18495
18478
18416
18235
17921
17556
17233
16977
16739
16472
16186
15930
15730
15557
15344
15037
14633
14180
13743
13359
13013
12664
12286
11884
11479
11080
10698
10359
10087
9888
9739
9616
9517
9464
9462
9484
9493
9475
9445
9421
9392
9332
9222
9089
8988
8951
8943
8892
8761
8597
8486
8449
8410
8262
7985
7664
7401
7217
7046
6816
6512
6175
5843
5519
5173
4784
4353
3893
3411
2912
2417
1955
1535
1128
693
235
-194
-553
-870
-1207
-1588
-1956
-2243
-2458
-2667
-2916
-3173
-3382
-3533
-3671
-3839
-4018
-4154
-4208
-4213
-4241
-4318
-4397
-4415
-4369
-4333
-4355
-4398
-4389
-4335
-4328
-4414
-4514
-4507
-4391
-4297
-4322
-4404
-4396
-4248
-4064
-3955
-3919
-3875
-3787
-3696
-3658
-3674
-3684
-3655
-3609
-3590
-3613
-3653
-3660
-3604
-3520
-3474
-3509
-3578
-3587
-3500
-3395
-3374
-3448
-3523
-3520
-3462
-3435
-3473
-3538
-3578
-3597
-3629
-3680
-3718
-3719
-3700
-3693
-3702
-3700
-3680
-3659
-3634
-3576
-3487
-3426
-3450
-3519
-3526
-3426
-3304
-3281
-3353
-3369
-3230
-3016
-2905
-2945
-3006
-2959
-2842
-2803
-2897
-3014
-3034
-2960
-2897
-2893
-2905
-2887
-2864
-2869
-2876
-2829
-2758
-2769
-2902
-3040
-3035
-2872
-2692
-2631
-2675
-2684
-2575
-2395
-2267
-2268
-2376
-2493
-2539
-2522
-2548
-2714
-2994
-3221
-3245
-3085
-2915
-2854
-2835
-2693
-2378
-1984
-1627
-1311
-990
-700
-548
-563
-633
-636
-595
-656
-909
-1264
-1547
-1659
-1648
-1637
-1696
-1799
-1887
-1924
-1935
-1963
-2023
-2089
-2122
-2132
-2184
-2307
-2449
-2517
-2489
-2438
-2460
-2573
-2721
-2835
-2907
-2964
-3018
-3066
-3115
-3180
-3260
-3329
-3357
-3338
-3291
-3222
-3126
-3008
-2892
-2795
-2702
-2584
-2444
-2316
-2236
-2189
-2118
-1979
-1786
-1619
-1526
-1486
-1433
-1344
-1265
-1248
-1283
-1297
-1240
-1144
-1062
-996
-895
-741
-591
-507
-480
-444
-361
-270
-231
-238
-232
-180
-105
-65
-79
-119
-140
-120
-80
-62
-92
-140
-122
22
238
394
429
434
552
802
1038
1121
1090
1125
1326
1600
1779
1823
1855
1992
2200
2349
2373
2334
2331
2383
2426
2393
2302
2234
2250
2338
2418
2414
2342
2301
2365
2503
2596
2565
2437
2312
2244
2206
2138
2018
1864
1706
1575
1488
1434
1386
1321
1248
1190
1140
1070
955
814
686
593
514
418
304
195
110
61
49
53
33
-33
-124
-185
-189
-176
-202
-273
-334
-342
-328
-344
-387
-398
-334
-229
-150
-112
-69
21
147
265
350
409
456
502
552
616
686
741
784
838
921
1015
1076
1099
1130
1199
1290
1362
1407
1456
1541
1656
1770
1868
1954
2041
2129
2205
2266
2311
2362
2439
2537
2626
2673
2684
2701
2758
2832
2856
2784
2648
2521
2441
2365
2208
1950
1674
1488
1413
1364
1263
1132
1057
1077
1149
1223
1327
1508
1721
1840
1801
1685
1635
1682
1696
1557
1291
1047
939
955
1002
1019
1016
1027
1067
1122
1169
1182
1146
1081
1027
1006
1004
991
964
961
1008
1084
1133
1117
1047
969
933
950
998
1039
1045
1022
997
988
987
970
922
852
776
708
650
599
551
502
449
389
322
249
174
115
90
89
79
39
-4
-3
54
113
104
20
-73
-106
-88
-90
-157
-252
-305
-288
-245
-241
-290
-348
-375
-368
-348
-338
-344
-370
-398
-400
-371
-349
-377
-447
-503
-514
-516
-565
-636
-651
-587
-536
-583
-682
-696
-581
-443
-425
-521
-592
-536
-410
-331
-325
-311
-227
-113
-64
-105
-145
-89
74
240
292
235
214
393
778
1151
1242
988
603
359
307
254
-4
-447
-864
-1091
-1154
-1182
-1234
-1268
-1273
-1326
-1511
-1798
-2072
-2269
-2475
-2830
-3354
-3909
-4346
-4657
-4973
-5424
-6018
-6677
-7332
-7971
-8612
-9269
-9954
-10678
-11426
-12139
-12773
-13327
-13807
-14129
-14163
-13871
-13379
-12857
-12338
-11738
-11077
-10572
-10434
-10626
-10881
-11025
-11160
-11472
-11926
-12244
-12204
-11877
-11510
-11227
-10945
-10563
-10130
-9782
-9562
-9368
-9083
-8713
-8336
-7972
-7545
-6984
-6314
-5607
-4882
-4068
-3122
-2081
-993
170
1472
2858
4099
4985
5535
5969
6504
7092
7495
7570
7433
7332
7426
7666
7860
7905
7853
7814
7795
7664
7321
6859
6484
6231
5848
5031
3840
2765
2306
2494
2897
3121
3241
3701
4823
6462
8123
9392
10208
10802
11416
12064
12577
12758
12588
12226
11839
11470
11060
10583
10101
9732
9523
9417
9359
9372
9512
9784
10130
10504
10902
11307
11646
11832
11894
11979
12213
12558
12845
12969
12982
13001
13055
13075
13022
12938
12880
12829
12741
12641
12617
12697
12776
12729
12557
12395
12358
12417
12453
12394
12274
12168
12112
12081
12028
11927
11794
11657
11522
11363
11138
10838
10512
10217
9964
9696
9354
8947
8565
8288
8115
7976
7808
7605
7404
7226
7049
6844
6596
6314
6003
5644
5225
4771
4334
3966
3669
3397
3090
2726
2338
1983
1686
1419
1136
832
539
288
66
-171
-432
-679
-860
-983
-1106
-1261
-1387
-1381
-1205
-926
-631
-339
-12
363
732
1035
1281
1534
1832
2140
2415
2680
3003
3407
3841
4242
4608
4970
5325
5627
5843
5993
6114
6207
6248
6242
6225
6199
6115
5934
5691
5488
5372
5284
5133
4926
4753
4687
4680
4633
4503
4349
4253
4221
4202
4160
4106
4069
4053
4040
4015
3972
3916
3866
3845
3859
3882
3886
3899
3988
4186
4431
4605
4658
4652
4682
4762
4822
4802
4731
4695
4732
4796
4820
4788
4748
4735
4715
4617
4424
4211
4069
3998
3918
3779
3630
3545
3505
3417
3243
3077
3029
3058
3002
2771
2474
2300
2291
2291
2127
1803
1494
1348
1325
1259
1040
759
603
661
829
930
916
897
990
1175
1349
1486
1673
1967
2278
2455
2463
2425
2461
2530
2500
2318
2075
1901
1852
1897
1974
2029
2037
2037
2110
2293
2510
2625
2597
2536
2572
2707
2812
2792
2693
2620
2604
2596
2550
2475
2409
2366
2352
2395
2501
2611
2633
2537
2386
2257
2156
2025
1837
1635
1464
1313
1145
946
733
519
278
-7
-321
-627
-910
-1172
-1424
-1665
-1899
-2127
-2341
-2541
-2740
-2971
-3235
-3491
-3686
-3823
-3959
-4138
-4341
-4519
-4654
-4765
-4859
-4918
-4931
-4936
-4981
-5061
-5117
-5103
-5044
-5002
-5014
-5068
-5125
-5148
-5115
-5028
-4913
-4819
-4769
-4739
-4685
-4589
-4474
-4370
-4282
-4199
-4116
-4039
-3961
-3867
-3752
-3640
-3559
-3504
-3454
-3389
-3304
-3202
-3075
-2920
-2747
-2563
-2361
-2133
-1892
-1678
-1521
-1415
-1319
-1212
-1105
-1021
-961
-889
-762
-573
-352
-139
63
286
567
892
1193
1398
1496
1549
1625
1746
1872
1966
2030
2094
2181
2292
2428
2584
2731
2823
2834
2793
2757
2746
2732
2676
2581
2493
2442
2409
2344
2219
2062
1920
1812
1703
1543
1323
1089
902
788
707
595
417
201
11
-108
-161
-196
-251
-320
-373
-398
-426
-494
-613
-758
-901
-1042
-1184
-1302
-1361
-1362
-1353
-1376
-1414
-1416
-1371
-1333
-1360
-1448
-1542
-1596
-1604
-1577
-1516
-1422
-1331
-1283
-1277
-1270
-1230
-1168
-1112
-1075
-1033
-978
-932
-914
-909
-885
-842
-824
-850
-884
-847
-701
-483
-254
-31
218
511
824
1121
1399
1668
1889
1975
1869
1626
1388
1254
1177
1020
718
363
120
63
108
105
-22
-232
-442
-614
-762
-924
-1144
-1455
-1861
-2315
-2729
-3048
-3307
-3607
-3993
-4395
-4691
-4828
-4836
-4741
-4510
-4052
-3315
-2339
-1193
98
1517
2960
4218
5137
5760
6245
6628
6715
6303
5487
4680
4265
4264
4406
4506
4674
5151
5973
6889
7588
7982
8225
8502
8829
9070
9116
9055
9098
9380
9810
10176
10387
10549
10808
11151
11406
11446
11337
11236
11191
11119
10960
10776
10669
10641
10601
10511
10435
10451
10539
10605
10595
10558
10559
10594
10586
10484
10319
10171
10085
10034
9950
9795
9591
9396
9243
9118
8981
8818
8650
8517
8422
8331
8205
8043
7871
7711
7547
7337
7065
6757
6474
6264
6119
5982
5806
5612
5472
5448
5506
5552
5517
5421
5332
5290
5264
5197
5067
4887
4678
4439
4161
3850
3527
3212
2917
2637
2334
1985
1609
1267
1011
818
600
285
-86
-396
-568
-678
-868
-1190
-1524
-1704
-1721
-1735
-1892
-2132
-2252
-2163
-2021
-2042
-2252
-2457
-2491
-2418
-2435
-2618
-2837
-2927
-2882
-2829
-2857
-2935
-2995
-3034
-3098
-3187
-3246
-3237
-3204
-3218
-3283
-3339
-3324
-3255
-3198
-3220
-3320
-3438
-3514
-3544
-3587
-3694
-3844
-3953
-3969
-3937
-3972
-4117
-4292
-4384
-4377
-4377
-4478
-4655
-4796
-4826
-4783
-4762
-4818
-4938
-5074
-5194
-5274
-5312
-5358
-5481
-5678
-5838
-5835
-5688
-5548
-5523
-5534
-5405
-5090
-4734
-4470
-4240
-3892
-3424
-3051
-2949
-3043
-3094
-3000
-2916
-3016
-3255
-3410
-3347
-3147
-2969
-2820
-2592
-2259
-1954
-1818
-1829
-1830
-1732
-1592
-1524
-1548
-1595
-1591
-1511
-1349
-1120
-888
-765
-816
-967
-1061
-1016
-910
-881
-976
-1117
-1219
-1259
-1269
-1278
-1303
-1372
-1501
-1639
-1709
-1696
-1674
-1723
-1840
-1944
-1999
-2036
-2093
-2158
-2216
-2300
-2444
-2604
-2681
-2640
-2579
-2619
-2749
-2838
-2802
-2700
-2658
-2715
-2812
-2879
-2908
-2931
-2962
-2998
-3041
-3087
-3116
-3116
-3108
-3123
-3147
-3108
-2961
-2769
-2642
-2619
-2629
-2578
-2465
-2364
-2340
-2379
-2408
-2368
-2254
-2113
-2002
-1938
-1882
-1791
-1659
-1527
-1434
-1376
-1315
-1226
-1126
-1038
-951
-847
-735
-635
-536
-398
-223
-85
-46
-67
-34
107
276
340
275
202
253
414
548
556
483
452
529
667
778
831
853
882
933
1002
1078
1142
1180
1184
1172
1174
1189
1193
1187
1194
1226
1261
1278
1293
1349
1445
1523
1532
1493
1478
1520
1577
1588
1547
1495
1462
1433
1387
1331
1289
1263
1239
1214
1210
1233
1262
1267
1239
1195
1133
1050
953
858
779
704
619
542
500
505
527
532
506
454
379
278
156
24
-102
-211
-306
-390
-461
-514
-541
-553
-557
-565
-582
-610
-658
-730
-800
-829
-800
-765
-798
-906
-999
-968
-815
-682
-710
-865
-978
-934
-812
-777
-874
-969
-909
-707
-492
-326
-131
181
573
942
1264
1637
2114
2596
2907
3006
3020
3089
3197
3203
3034
2774
2565
2469
2448
2438
2410
2375
2336
2296
2278
2296
2298
2208
2010
1800
1700
1725
1759
1687
1530
1426
1458
1560
1598
1535
1459
1466
1553
1650
1711
1769
1845
1905
1898
1824
1756
1755
1810
1860
1858
1814
1776
1772
1792
1808
1802
1766
1695
1580
1426
1265
1138
1063
1008
925
801
675
602
584
573
518
425
338
301
312
329
320
281
238
213
206
187
134
58
-2
-25
-24
-26
-37
-34
-5
30
38
15
-18
-38
-50
-73
-103
-114
-81
-11
64
120
158
198
246
289
308
304
298
309
346
403
483
591
719
837
912
939
950
981
1025
1037
981
879
791
768
810
875
924
945
941
925
912
915
934
946
927
881
851
878
960
1047
1095
1102
1110
1140
1175
1181
1164
1156
1180
1216
1225
1211
1217
1269
1343
1398
1414
1411
1401
1375
1313
1225
1139
1072
1014
961
925
921
950
993
1042
1100
1156
1170
1097
947
793
706
682
629
448
135
-192
-418
-540
-679
