4501
4471
4562
4693
4761
4739
4688
4680
4733
4819
4909
4984
5016
4973
4855
4728
4676
4738
4501
4471
4562
4693
4761
4739
4688
4680
4733
4819
4909
4984
5016
4973
4855
4728
4676
4738
4873
5019
5145
5267
5394
5513
5594
5628
5626
4873
5019
5145
5267
5394
5513
5594
5628
5626
5608
5584
5548
5484
5375
5232
5091
4998
4968
5608
5584
5548
5484
5375
5232
5091
4998
4968
4982
5004
5010
4988
4926
4825
4717
4653
4661
4982
5004
5010
4988
4926
4825
4717
4653
4661
4714
4748
4711
4607
4478
4378
4336
4354
4414
4714
4748
4711
4607
4478
4378
4336
4354
4414
4481
4522
4518
4476
4422
4389
4394
4430
4474
4481
4522
4518
4476
4422
4389
4394
4430
4474
4496
4479
4423
4347
4283
4261
4298
4379
4456
4475
4425
4346
4297
4301
4337
4367
4379
4383
4496
4479
4423
4347
4283
4261
4298
4379
4456
4379
4348
4280
4206
4180
4220
4287
4316
4280
4475
4425
4346
4297
4301
4337
4367
4379
4383
4379
4348
4280
4206
4180
4220
4287
4316
4280
4207
4140
4099
4082
4085
4114
4160
4187
4161
4079
3985
3932
3942
3988
4027
4033
4003
3949
3885
3831
3811
3842
3912
3979
4005
3979
3928
4207
4140
4099
4082
4085
4114
4160
4187
4161
4079
3985
3932
3942
3988
4027
4033
4003
3949
3885
3831
3811
3842
3912
3979
4005
3979
3928
3888
3881
3911
3970
4042
4098
4111
4081
4037
3888
3881
3911
3970
4042
4098
4111
4081
4037
4025
4067
4148
4235
4301
4336
4339
4318
4297
4025
4067
4148
4235
4301
4336
4339
4318
4297
4312
4384
4499
4617
4694
4718
4703
4683
4690
4312
4384
4499
4617
4694
4718
4703
4683
4690
4744
4835
4925
4978
4981
4958
4935
4929
4942
4744
4835
4925
4978
4981
4958
4935
4929
4942
4981
5050
5130
5178
5165
5102
5041
5026
5061
4981
5050
5130
5178
5165
5102
5041
5026
5061
5119
5173
5203
5201
5160
5098
5054
5060
5114
5119
5173
5203
5201
5160
5098
5054
5060
5114
5178
5204
5179
5122
5065
5029
5020
5038
5083
5161
5153
5096
5016
4958
4952
4994
5054
5099
5161
5153
5096
5016
4958
4952
4994
5054
5099
5113
5097
5054
4992
4941
4935
4986
5060
5104
5113
5097
5054
4992
4941
4935
4986
5060
5104
5084
5018
4945
4902
4901
4939
4999
5046
5043
4978
4880
4800
4775
4800
4848
4888
4899
4875
5084
5018
4945
4902
4901
4939
4999
5046
5043
4978
4880
4800
4775
4800
4848
4888
4899
4875
4823
4770
4738
4731
4741
4760
4781
4788
4751
4823
4770
4738
4731
4741
4760
4781
4788
4751
4665
4572
4541
4594
4682
4728
4702
4634
4567
4665
4572
4541
4594
4682
4728
4702
4634
4567
4512
4464
4443
4482
4578
4674
4704
4657
4593
4512
4464
4443
4482
4578
4674
4704
4657
4593
4578
4635
4730
4816
4864
4865
4822
4753
4695
4578
4635
4730
4816
4864
4865
4822
4753
4695
4687
4741
4829
4897
4910
4867
4799
4744
4720
4687
4741
4829
4897
4910
4867
4799
4744
4720
5075
5120
5093
5012
4935
4915
4961
5047
5158
5302
5471
5622
5703
5708
5682
5666
5653
5608
5302
5471
5622
5703
5708
5682
5666
5653
5608
5527
5436
5355
5267
5147
5020
4943
4952
5009
5527
5436
5355
5267
5147
5020
4943
4952
5009
5034
4973
4838
4685
4567
4510
4511
4548
4585
5034
4973
4838
4685
4567
4510
4511
4548
4585
4580
4515
4413
4325
4291
4318
4380
4441
4472
4459
4402
4320
4251
4233
4276
4344
4387
4373
4580
4515
4413
4325
4291
4318
4380
4441
4472
4310
4236
4187
4178
4206
4255
4301
4317
4295
4246
4195
4165
4169
4203
4243
4253
4208
4113
4459
4402
4320
4251
4233
4276
4344
4387
4373
4310
4236
4187
4178
4206
4255
4301
4317
4295
4246
4195
4165
4169
4203
4243
4253
4208
4113
4005
3929
3906
3917
3940
3959
3966
3953
3916
4005
3929
3906
3917
3940
3959
3966
3953
3916
3862
3821
3822
3867
3925
3954
3927
3852
3762
3862
3821
3822
3867
3925
3954
3927
3852
3762
3697
3684
3727
3795
3848
3850
3796
3714
3649
3697
3684
3727
3795
3848
3850
3796
3714
3649
3628
3652
3700
3743
3758
3737
3687
3638
3625
3628
3652
3700
3743
3758
3737
3687
3638
3625
3670
3764
3871
3947
3968
3939
3893
3866
3883
3670
3764
3871
3947
3968
3939
3893
3866
3883
3942
4026
4107
4166
4191
4184
4168
4180
4250
3942
4026
4107
4166
4191
4184
4168
4180
4250
4371
4494
4571
4583
4559
4541
4559
4618
4703
4798
4881
4923
4905
4843
4784
4779
4834
4914
4970
4980
4953
4909
4864
4836
4845
4898
4970
4371
4494
4571
4583
4559
4541
4559
4618
4703
5014
5002
4947
4892
4867
4879
4914
4959
4995
4798
4881
4923
4905
4843
4784
4779
4834
4914
4998
4958
4893
4834
4813
4835
4882
4933
4968
4970
4980
4953
4909
4864
4836
4845
4898
4970
5014
5002
4947
4892
4867
4879
4914
4959
4995
4998
4958
4893
4834
4813
4835
4882
4933
4968
4972
4936
4870
4807
4785
4819
4888
4943
4946
4972
4936
4870
4807
4785
4819
4888
4943
4946
4893
4817
4762
4754
4794
4860
4922
4947
4920
4893
4817
4762
4754
4794
4860
4922
4947
4920
4729
4661
4621
4640
4718
4807
4847
4816
4740
4729
4661
4621
4640
4718
4807
4847
4816
4740
4670
4641
4653
4686
4712
4713
4680
4616
4544
4491
4481
4515
4572
4620
4631
4593
4515
4433
4389
4407
4472
4538
4555
4511
4433
4375
4370
4670
4641
4653
4686
4712
4713
4680
4616
4544
4491
4481
4515
4572
4620
4631
4593
4515
4433
4389
4407
4472
4538
4555
4511
4433
4375
4370
4419
4495
4565
4613
4632
4623
4593
4571
4587
4419
4495
4565
4613
4632
4623
4593
4571
4587
4648
4731
4787
4787
4740
4679
4637
4625
4646
4648
4731
4787
4787
4740
4679
4637
4625
4646
4692
4752
4799
4807
4767
4700
4652
4661
4722
4692
4752
4799
4807
4767
4700
4652
4661
4722
4793
4817
4769
4674
4577
4518
4509
4546
4623
4108
4036
4037
4105
4193
4250
4251
4205
4137
4080
4057
4080
4136
4195
4223
4206
4158
4108
4082
4092
4128
4171
4197
4187
4134
4054
3975
4793
4817
4769
4674
4577
4518
4509
4546
4623
4108
4036
4037
4105
4193
4250
4251
4205
4137
4080
4057
4080
4136
4195
4223
4206
4158
4108
4082
4092
4128
4171
4197
4187
4134
4054
3975
3931
3938
3986
4041
4065
4041
3979
3910
3865
3859
3890
3932
3952
3918
3829
3717
3630
3602
3931
3938
3986
4041
4065
4041
3979
3910
3865
3859
3890
3932
3952
3918
3829
3717
3630
3602
3626
3674
3713
3719
3683
3614
3545
3521
3561
3626
3674
3713
3719
3683
3614
3545
3521
3561
3640
3704
3720
3703
3684
3675
3668
3673
3718
3640
3704
3720
3703
3684
3675
3668
3673
3718
3817
3930
3987
3959
3894
3873
3932
4038
4137
3817
3930
3987
3959
3894
3873
3932
4038
4137
4209
4268
4323
4358
4361
4357
4394
4495
4624
4209
4268
4323
4358
4361
4357
4394
4495
4624
4715
4731
4693
4649
4644
4692
4782
4892
4986
5033
5028
4991
4959
4950
4962
4991
5036
5080
5033
5028
4991
4959
4950
4962
4991
5036
5080
5091
5041
4950
4886
4901
4983
5069
5108
5093
5091
5041
4950
4886
4901
4983
5069
5108
5093
5052
5006
4966
4948
4972
5035
5098
5115
5072
5052
5006
4966
4948
4972
5035
5098
5115
5072
4995
4920
4869
4848
4868
4920
4968
4961
4886
4995
4920
4869
4848
4868
4920
4968
4961
4886
4794
4755
4791
4861
4910
4921
4915
4902
4865
4794
4755
4791
4861
4910
4921
4915
4902
4865
4800
4733
4714
4760
4841
4900
4899
4840
4761
4800
4733
4714
4760
4841
4900
4899
4840
4761
4712
4723
4788
4868
4916
4908
4849
4764
4697
4712
4723
4788
4868
4916
4908
4849
4764
4697
4682
4726
4801
4856
4857
4807
4739
4682
4650
4682
4726
4801
4856
4857
4807
4739
4682
4650
4647
4673
4717
4750
4742
4680
4589
4511
4483
4518
4590
4651
4660
4610
4531
4467
4441
4449
4477
4516
4555
4574
4557
4518
4503
4555
4667
4647
4673
4717
4750
4742
4680
4589
4511
4483
4792
4872
4883
4844
4790
4748
4727
4732
4769
4518
4590
4651
4660
4610
4531
4467
4441
4449
4477
4516
4555
4574
4557
4518
4503
4555
4667
4792
4872
4883
4844
4790
4748
4727
4732
4769
4825
4868
4865
4813
4748
4722
4757
4828
4890
4825
4868
4865
4813
4748
4722
4757
4828
4890
4909
4887
4845
4798
4752
4712
4698
4724
4776
4909
4887
4845
4798
4752
4712
4698
4724
4776
4809
4787
4725
4679
4706
4818
4970
5097
5147
4809
4787
4725
4679
4706
4818
4970
5097
5147
5097
4963
4800
4692
4700
4820
4982
5120
5221
5315
5432
5566
5695
5805
5884
5904
5835
5678
5097
4963
4800
4692
4700
4820
4982
5120
5221
5315
5432
5566
5695
5805
5884
5904
5835
5678
5480
5305
5186
5118
5085
5074
5073
5058
5002
5480
5305
5186
5118
5085
5074
5073
5058
5002
4903
4790
4707
4673
4673
4672
4639
4572
4490
4903
4790
4707
4673
4673
4672
4639
4572
4490
4417
4375
4378
4424
4491
4534
4523
4458
4380
4417
4375
4378
4424
4491
4534
4523
4458
4380
4334
4333
4356
4376
4385
4382
4368
4335
4287
4334
4333
4356
4376
4385
4382
4368
4335
4287
4252
4258
4304
4353
4361
4312
4230
4153
4112
4252
4258
4304
4353
4361
4312
4230
4153
4112
4118
4163
4230
4282
4278
4203
4088
4003
3992
4118
4163
4230
4282
4278
4203
4088
4003
3992
4045
4108
4133
4112
4064
4010
3962
3937
3947
4045
4108
4133
4112
4064
4010
3962
3937
3947
3986
4025
4025
3974
3886
3791
3718
3686
3699
3986
4025
4025
3974
3886
3791
3718
3686
3699
3746
3791
3792
3732
3639
3568
3559
3602
3660
3746
3791
3792
3732
3639
3568
3559
3602
3660
3695
3697
3675
3639
3597
3563
3560
3599
3668
3695
3697
3675
3639
3597
3563
3560
3599
3668
3733
3758
3735
3683
3644
3655
3730
3849
3957
3733
3758
3735
3683
3644
3655
3730
3849
3957
4006
3991
3952
3939
3977
4055
4152
4251
4331
4006
3991
3952
3939
3977
4055
4152
4251
4331
4370
4361
4328
4321
4372
4468
4562
4621
4643
4370
4361
4328
4321
4372
4468
4562
4621
4643
4642
4631
4618
4616
4641
4699
4771
4817
4808
4642
4631
4618
4616
4641
4699
4771
4817
4808
4744
4662
4614
4634
4713
4809
4870
4871
4822
4760
4719
4721
4762
4821
4861
4854
4797
4720
4659
4637
4653
4693
4739
4768
4764
4721
4658
4610
4602
4639
4701
4753
4764
4724
4646
4573
4744
4662
4614
4634
4713
4809
4870
4871
4822
4760
4719
4721
4762
4821
4861
4854
4797
4720
4545
4581
4654
4718
4737
4703
4638
4575
4544
4659
4637
4653
4693
4739
4768
4764
4721
4658
4610
4602
4639
4701
4753
4764
4724
4646
4573
4545
4581
4654
4718
4737
4703
4638
4575
4544
4561
4618
4685
4725
4718
4669
4602
4546
4526
4551
4613
4676
4698
4659
4582
4518
4506
4542
4561
4618
4685
4725
4718
4669
4602
4546
4526
4551
4613
4676
4698
4659
4582
4518
4506
4542
4597
4637
4644
4615
4555
4482
4425
4410
4441
4597
4637
4644
4615
4555
4482
4425
4410
4441
4493
4534
4542
4513
4460
4402
4368
4379
4433
4496
4524
4490
4406
4319
4281
4315
4403
4498
4493
4534
4542
4513
4460
4402
4368
4379
4433
4560
4576
4559
4533
4522
4542
4601
4686
4757
4496
4524
4490
4406
4319
4281
4315
4403
4498
4560
4576
4559
4533
4522
4542
4601
4686
4757
4774
4727
4650
4591
4582
4619
4678
4737
4773
4770
4721
4651
4604
4613
4675
4754
4805
4798
4774
4727
4650
4591
4582
4619
4678
4737
4773
4770
4721
4651
4604
4613
4675
4754
4805
4798
4734
4640
4562
4532
4551
4599
4651
4692
4717
4734
4640
4562
4532
4551
4599
4651
4692
4717
4722
4722
4745
4805
4878
4913
4882
4816
4773
4722
4722
4745
4805
4878
4913
4882
4816
4773
4784
4842
4928
5048
5216
5415
5594
5705
5734
4784
4842
4928
5048
5216
5415
5594
5705
5734
5698
5631
5569
5533
5515
5482
5398
5262
5113
5698
5631
5569
5533
5515
5482
5398
5262
5113
5002
4956
4967
5005
5036
5017
4922
4763
4601
5002
4956
4967
5005
5036
5017
4922
4763
4601
4509
4512
4568
4609
4586
4501
4395
4314
4285
4509
4512
4568
4609
4586
4501
4395
4314
4285
4310
4370
4430
4460
4444
4385
4304
4229
4192
4207
4265
4329
4356
4325
4252
4178
4140
4151
4192
4229
4235
4200
4137
4071
4030
4030
4070
4310
4370
4430
4460
4444
4385
4304
4229
4192
4207
4265
4329
4356
4325
4252
4178
4140
4151
4192
4229
4235
4200
4137
4071
4030
4030
4070
4121
4150
4132
4071
3992
3926
3897
3911
3957
4002
4011
3973
3904
3843
3816
3822
3845
3866
4121
4150
4132
4071
3992
3926
3897
3911
3957
4002
4011
3973
3904
3843
3816
3822
3845
3866
3872
3852
3798
3717
3639
3595
3604
3650
3697
3709
3669
3587
3498
3448
3462
3534
3619
3665
3872
3852
3798
3717
3639
3595
3604
3650
3697
3709
3669
3587
3498
3448
3462
3534
3619
3665
3650
3596
3546
3536
3572
3636
3705
3761
3786
3650
3596
3546
3536
3572
3636
3705
3761
3786
3770
3722
3675
3670
3726
3829
3935
4007
4030
3770
3722
3675
3670
3726
3829
3935
4007
4030
4014
3992
4008
4083
4206
4331
4414
4443
4441
4014
3992
4008
4083
4206
4331
4414
4443
4441
4434
4434
4454
4505
4588
4676
4720
4700
4642
4434
4434
4454
4505
4588
4676
4720
4700
4642
4601
4612
4663
4726
4777
4808
4816
4792
4744
4703
4697
4737
4804
4869
4899
4877
4812
4742
4601
4612
4663
4726
4777
4808
4816
4792
4744
4703
4697
4737
4804
4869
4899
4877
4812
4742
4714
4746
4810
4859
4864
4832
4782
4730
4688
4714
4746
4810
4859
4864
4832
4782
4730
4688
4677
4709
4772
4827
4832
4776
4689
4621
4604
4641
4707
4762
4779
4750
4688
4625
4593
4615
4641
4707
4762
4779
4750
4688
4625
4593
4615
4679
4747
4773
4736
4658
4585
4557
4576
4624
4679
4747
4773
4736
4658
4585
4557
4576
4624
4674
4707
4706
4666
4604
4549
4523
4530
4560
4674
4707
4706
4666
4604
4549
4523
4530
4560
4601
4637
4649
4620
4562
4516
4523
4584
4651
4601
4637
4649
4620
4562
4516
4523
4584
4651
4676
4640
4561
4469
4389
4342
4348
4405
4479
4676
4640
4561
4469
4389
4342
4348
4405
4479
4519
4494
4414
4321
4260
4258
4308
4371
4392
4519
4494
4414
4321
4260
4258
4308
4371
4392
4343
4253
4188
4194
4264
4353
4432
4497
4544
4548
4498
4428
4403
4456
4552
4620
4619
4570
4343
4253
4188
4194
4264
4353
4432
4497
4544
4515
4484
4480
4496
4529
4571
4600
4599
4566
4548
4498
4428
4403
4456
4552
4620
4619
4570
4515
4484
4480
4496
4529
4571
4600
4599
4566
4519
4484
4485
4527
4595
4655
4675
4644
4580
4519
4484
4485
4527
4595
4655
4675
4644
4580
4517
4489
4519
4609
4731
4846
4915
4930
4903
4517
4489
4519
4609
4731
4846
4915
4930
4903
4855
4803
4777
4804
4885
4979
5034
5047
5078
4855
4803
4777
4804
4885
4979
5034
5047
5078
5191
5393
5615
5775
5833
5791
5672
5497
5310
5191
5393
5615
5775
5833
5791
5672
5497
5310
5169
5110
5116
5119
5065
4957
4845
4781
4773
4787
4779
4731
4649
4550
4450
4364
4310
4298
5169
5110
5116
5119
5065
4957
4845
4781
4773
4787
4779
4731
4649
4550
4450
4364
4310
4298
4323
4363
4381
4350
4272
4183
4128
4133
4186
4250
4289
4282
4235
4171
4121
4106
4127
4170
4323
4363
4381
4350
4272
4183
4128
4133
4186
4211
4230
4209
4142
4051
3987
3996
4073
4158
4250
4289
4282
4235
4171
4121
4106
4127
4170
4211
4230
4209
4142
4051
3987
3996
4073
4158
4192
4164
4106
4042
3984
3941
3942
4001
4076
4192
4164
4106
4042
3984
3941
3942
4001
4076
4095
4026
3917
3844
3838
3868
3900
3921
3932
4095
4026
3917
3844
3838
3868
3900
3921
3932
3917
3855
3759
3681
3658
3683
3720
3737
3722
3917
3855
3759
3681
3658
3683
3720
3737
3722
3671
3585
3487
3423
3425
3476
3526
3529
3487
3671
3585
3487
3423
3425
3476
3526
3529
3487
3430
3390
3378
3397
3445
3511
3571
3597
3573
3430
3390
3378
3397
3445
3511
3571
3597
3573
3507
3446
3439
3511
3636
3750
3798
3775
3726
3707
3742
3820
3911
3990
4044
4070
4075
4069
4075
4116
4202
4314
4411
4461
4459
4429
4403
3507
3446
3439
3511
3636
3750
3798
3775
3726
3707
3742
3820
3911
3990
4044
4070
4075
4069
4075
4116
4202
4314
4411
4461
4459
4429
4403
4405
4447
4527
4624
4693
4695
4635
4563
4535
4570
4646
4721
4767
4772
4742
4693
4651
4641
4672
4729
4779
4793
4754
4674
4589
4543
4561
4405
4447
4527
4624
4693
4695
4635
4563
4535
4570
4646
4721
4767
4772
4742
4693
4651
4641
4672
4729
4779
4793
4754
4674
4589
4543
4561
4632
4713
4763
4764
4731
4688
4654
4639
4651
4687
4729
4744
4705
4626
4556
4539
4580
4643
4687
4729
4744
4705
4626
4556
4539
4580
4643
4691
4714
4710
4671
4590
4495
4446
4482
4578
4691
4714
4710
4671
4590
4495
4446
4482
4578
4663
4678
4625
4549
4507
4523
4588
4670
4731
4663
4678
4625
4549
4507
4523
4588
4670
4731
4743
4706
4646
4597
4576
4585
4619
4670
4707
4743
4706
4646
4597
4576
4585
4619
4670
4707
4690
4601
4476
4387
4386
4461
4546
4577
4538
4690
4601
4476
4387
4386
4461
4546
4577
4538
4458
4381
4335
4329
4359
4409
4452
4461
4431
4458
4381
4335
4329
4359
4409
4452
4461
4431
4383
4350
4346
4370
4415
4474
4534
4577
4589
4383
4350
4346
4370
4415
4474
4534
4577
4589
4707
4694
4767
4873
4939
4929
4867
4795
4741
4707
4694
4767
4873
4939
4929
4867
4795
4741
4710
4706
4733
4773
4790
4766
4725
4715
4761
4710
4706
4733
4773
4790
4766
4725
4715
4761
4852
4960
5057
5114
5095
4989
4847
4770
4825
4852
4960
5057
5114
5095
4989
4847
4770
4825
4991
5183
5339
5465
5601
5748
5859
5896
5877
4991
5183
5339
5465
5601
5748
5859
5896
5877
5842
5804
5727
5575
5368
5176
5062
5035
5054
5842
5804
5727
5575
5368
5176
5062
5035
5054
5070
5063
5040
5001
4932
4814
4661
4532
4481
5070
5063
5040
5001
4932
4814
4661
4532
4481
4510
4553
4530
4418
4272
4177
4175
4247
4336
4510
4553
4530
4418
4272
4177
4175
4247
4336
4391
4391
4333
4237
4143
4098
4123
4196
4262
4391
4391
4333
4237
4143
4098
4123
4196
4262
4275
4235
4172
4121
4097
4102
4135
4180
4206
4275
4235
4172
4121
4097
4102
4135
4180
4206
4175
4086
3981
3919
3928
3991
4065
4114
4113
4175
4086
3981
3919
3928
3991
4065
4114
4113
4054
3949
3845
3796
3823
3899
3957
3946
3873
4054
3949
3845
3796
3823
3899
3957
3946
3873
3790
3744
3740
3746
3737
3722
3716
3706
3657
3790
3744
3740
3746
3737
3722
3716
3706
3657
3557
3455
3423
3481
3572
3626
3615
3565
3511
3557
3455
3423
3481
3572
3626
3615
3565
3511
3462
3424
3417
3453
3518
3564
3557
3505
3443
3409
3418
3471
3553
3632
3670
3648
3592
3560
3462
3424
3417
3453
3518
3564
3557
3505
3443
3596
3700
3822
3906
3933
3929
3932
3956
3992
3409
3418
3471
3553
3632
3670
3648
3592
3560
3596
3700
3822
3906
3933
3929
3932
3956
3992
4038
4108
4205
4308
4381
4411
4413
4412
4427
4038
4108
4205
4308
4381
4411
4413
4412
4427
4474
4566
4687
4776
4773
4683
4592
4593
4690
4474
4566
4687
4776
4773
4683
4592
4593
4690
4807
4867
4862
4838
4831
4827
4806
4779
4790
4807
4867
4862
4838
4831
4827
4806
4779
4790
4856
4940
4978
4935
4837
4746
4715
4754
4833
4856
4940
4978
4935
4837
4746
4715
4754
4833
4902
4921
4883
4814
4752
4729
4749
4799
4856
4902
4921
4883
4814
4752
4729
4749
4799
4856
4896
4891
4828
4730
4661
4671
4751
4836
4866
4896
4891
4828
4730
4661
4671
4751
4836
4866
4842
4803
4777
4755
4726
4704
4720
4771
4822
4842
4803
4777
4755
4726
4704
4720
4771
4822
4829
4790
4738
4701
4686
4691
4723
4776
4816
4829
4790
4738
4701
4686
4691
4723
4776
4816
4791
4685
4550
4474
4502
4596
4666
4654
4575
4791
4685
4550
4474
4502
4596
4666
4654
4575
4489
4436
4419
4425
4447
4484
4522
4533
4502
4489
4436
4419
4425
4447
4484
4522
4533
4502
4442
4386
4366
4390
4446
4506
4536
4513
4448
4442
4386
4366
4390
4446
4506
4536
4513
4448
4374
4330
4333
4377
4441
4491
4497
4456
4404
4374
4330
4333
4377
4441
4491
4497
4456
4404
4404
4489
4626
4753
4822
4839
4837
4829
4811
4404
4489
4626
4753
4822
4839
4837
4829
4811
4792
4797
4847
4920
4970
4972
4937
4894
4871
4792
4797
4847
4920
4970
4972
4937
4894
4871
4880
4922
4985
5031
5023
4956
4869
4817
4816
4880
4922
4985
5031
5023
4956
4869
4817
4816
4838
4849
4838
4817
4789
4744
4692
4670
4721
4849
5007
5132
5184
5155
5055
4919
4812
4807
4838
4849
4838
4817
4789
4744
4692
4670
4721
4849
5007
5132
5184
5155
5055
4919
4812
4807
4923
5100
5245
5322
5381
5502
5711
5953
6143
4923
5100
5245
5322
5381
5502
5711
5953
6143
6226
6197
6074
5884
5662
5462
5332
5281
5272
6226
6197
6074
5884
5662
5462
5332
5281
5272
5255
5201
5122
5051
5004
4972
4932
4881
4832
5255
5201
5122
5051
5004
4972
4932
4881
4832
4791
4743
4670
4574
4489
4449
4467
4516
4551
4791
4743
4670
4574
4489
4449
4467
4516
4551
4531
4454
4355
4293
4304
4368
4428
4441
4410
4531
4454
4355
4293
4304
4368
4428
4441
4410
4368
4335
4306
4270
4243
4249
4291
4329
4314
4368
4335
4306
4270
4243
4249
4291
4329
4314
4233
4126
4057
4063
4128
4202
4238
4218
4156
4233
4126
4057
4063
4128
4202
4238
4218
4156
4083
4023
3992
3996
4031
4073
4082
4031
3930
4083
4023
3992
3996
4031
4073
4082
4031
3930
3828
3777
3796
3854
3902
3906
3862
3787
3700
3828
3777
3796
3854
3902
3906
3862
3787
3700
3623
3583
3593
3638
3676
3667
3606
3527
3469
3623
3583
3593
3638
3676
3667
3606
3527
3469
3452
3470
3501
3530
3544
3530
3483
3416
3366
3369
3436
3533
3602
3611
3570
3523
3511
3544
3609
3689
3771
3835
3859
3843
3818
3831
3904
4020
4139
4228
4279
4299
4298
4297
4325
4397
3452
3470
3501
3530
3544
3530
3483
3416
3366
3369
3436
3533
3602
3611
3570
3523
3511
3544
3609
3689
3771
3835
3859
3843
3818
3831
3904
4020
4139
4228
4279
4299
4298
4297
4325
4397
4500
4594
4641
4637
4602
4570
4571
4619
4705
4500
4594
4641
4637
4602
4570
4571
4619
4705
4798
4857
4856
4804
4742
4714
4741
4810
4884
4798
4857
4856
4804
4742
4714
4741
4810
4884
4931
4936
4900
4840
4782
4756
4779
4840
4903
4931
4936
4900
4840
4782
4756
4779
4840
4903
4924
4885
4807
4734
4702
4724
4782
4843
4871
4924
4885
4807
4734
4702
4724
4782
4843
4871
4852
4794
4728
4688
4692
4732
4782
4812
4809
4852
4794
4728
4688
4692
4732
4782
4812
4809
4776
4725
4674
4643
4650
4696
4758
4798
4793
4744
4678
4631
4625
4663
4725
4772
4772
4719
4640
4581
4569
4605
4665
4716
4729
4689
4610
4529
4485
4497
4548
4602
4625
4602
4538
4461
4409
4409
4462
4536
4591
4603
4572
4522
4481
4776
4725
4674
4643
4650
4696
4758
4798
4793
4744
4678
4631
4625
4663
4725
4772
4772
4719
4640
4581
4569
4605
4665
4716
4729
4689
4610
4529
4485
4497
4548
4602
4625
4602
4538
4461
4409
4409
4462
4536
4591
4603
4572
4522
4481
4468
4490
4535
4578
4599
4594
4574
4556
4557
4468
4490
4535
4578
4599
4594
4574
4556
4557
4591
4666
4773
4877
4931
4915
4854
4803
4801
4591
4666
4773
4877
4931
4915
4854
4803
4801
4846
4910
4962
4987
4980
4948
4910
4892
4914
4846
4910
4962
4987
4980
4948
4910
4892
4914
4970
5031
5064
5051
5000
4938
4898
4895
4916
4970
5031
5064
5051
5000
4938
4898
4895
4916
4937
4950
4956
4950
4917
4858
4821
4866
5001
4937
4950
4956
4950
4917
4858
4821
4866
5001
5164
5271
5278
5203
5087
4975
4911
4938
5062
5236
5385
5473
5534
5635
5812
6038
6242
6347
5164
5271
5278
5203
5087
4975
4911
4938
5062
5236
5385
5473
5534
5635
5812
6038
6242
6347
6310
6154
5947
5763
5637
5558
5503
5462
5429
6310
6154
5947
5763
5637
5558
5503
5462
5429
5387
5325
5248
5182
5141
5111
5078
5041
5004
4954
4873
4768
4683
4657
4682
4714
4716
4682
4627
4569
4524
4510
4531
4569
4589
4575
4541
4627
4569
4524
4510
4531
4569
4589
4575
4541
4507
4474
4437
4413
4429
4483
4528
4508
4416
4306
4245
4254
4305
4358
4392
4397
4360
4279
4507
4474
4437
4413
4429
4483
4528
4508
4416
4306
4245
4254
4305
4358
4392
4397
4360
4279
4183
4131
4161
4250
4321
4316
4234
4127
4046
4183
4131
4161
4250
4321
4316
4234
4127
4046
4014
4024
4060
4101
4118
4084
4004
3913
3854
4014
4024
4060
4101
4118
4084
4004
3913
3854
3844
3872
3909
3926
3905
3843
3759
3688
3663
3844
3872
3909
3926
3905
3843
3759
3688
3663
3696
3772
3855
3901
3878
3789
3685
3630
3655
3696
3772
3855
3901
3878
3789
3685
3630
3655
3728
3789
3801
3782
3764
3752
3739
3734
3771
3868
3985
4057
4051
3999
3962
3981
4057
4165
3728
3789
3801
3782
3764
3752
3739
3734
3771
3868
3985
4057
4051
3999
3962
3981
4057
4165
4274
4355
4388
4377
4354
4355
4401
4485
4581
4661
4696
4679
4630
4590
4592
4643
4723
4800
4274
4355
4388
4377
4354
4355
4401
4485
4581
4661
4696
4679
4630
4590
4592
4643
4723
4800
4851
4857
4815
4747
4700
4711
4777
4851
4887
4851
4857
4815
4747
4700
4711
4777
4851
4887
4868
4814
4754
4710
4700
4734
4799
4858
4870
4868
4814
4754
4710
4700
4734
4799
4858
4870
4822
4736
4660
4631
4655
4711
4767
4795
4786
4822
4736
4660
4631
4655
4711
4767
4795
4786
4744
4687
4635
4616
4642
4700
4751
4749
4684
4592
4530
4528
4572
4629
4676
4704
4707
4676
4744
4687
4635
4616
4642
4700
4751
4749
4684
4592
4530
4528
4572
4629
4676
4704
4707
4676
4617
4572
4583
4659
4759
4816
4795
4718
4639
4603
4614
4650
4693
4734
4763
4761
4710
4627
4617
4572
4583
4659
4759
4816
4795
4718
4639
4603
4614
4650
4693
4734
4763
4761
4710
4627
4562
4557
4613
4684
4714
4673
4576
4469
4403
4562
4557
4613
4684
4714
4673
4576
4469
4403
4408
4473
4555
4607
4604
4556
4484
4416
4377
4408
4473
4555
4607
4604
4556
4484
4416
4377
4381
4425
4482
4514
4506
4469
4435
4431
4475
4381
4425
4482
4514
4506
4469
4435
4431
4475
4567
4683
4779
4804
4750
4658
4593
4593
4652
4728
4783
4793
4758
4698
4646
4630
4662
4727
4567
4683
4779
4804
4750
4658
4593
4593
4652
4728
4783
4793
4758
4698
4646
4630
4662
4727
4794
4828
4810
4749
4680
4643
4649
4675
4694
4794
4828
4810
4749
4680
4643
4649
4675
4694
4692
4674
4640
4596
4564
4588
4690
4848
4997
5075
5057
4960
4832
4737
4732
4830
4988
5137
4692
4674
4640
4596
4564
4588
4690
4848
4997
5075
5057
4960
4832
4737
4732
4830
4988
5137
5236
5296
5355
5441
5554
5677
5773
5798
5723
5236
5296
5355
5441
5554
5677
5773
5798
5723
5567
5386
5240
5148
5097
5075
5075
5080
5055
5567
5386
5240
5148
5097
5075
5075
5080
5055
4972
4846
4730
4666
4646
4631
4589
4515
4427
4972
4846
4730
4666
4646
4631
4589
4515
4427
4344
4276
4232
4219
4239
4277
4304
4293
4234
4344
4276
4232
4219
4239
4277
4304
4293
4234
3985
3999
4044
4094
4128
4131
4095
4029
3964
3985
3999
4044
4094
4128
4131
4095
4029
3964
3936
3962
4022
4075
4088
4052
3984
3910
3854
3936
3962
4022
4075
4088
4052
3984
3910
3854
3837
3865
3924
3976
3980
3927
3841
3766
3731
3742
3782
3826
3840
3801
3712
3608
3542
3540
3837
3865
3924
3976
3980
3927
3841
3766
3731
3590
3644
3658
3619
3546
3472
3425
3413
3436
3742
3782
3826
3840
3801
3712
3608
3542
3540
3482
3533
3562
3544
3483
3414
3380
3400
3459
3590
3644
3658
3619
3546
3472
3425
3413
3436
3524
3566
3572
3544
3500
3475
3505
3595
3713
3482
3533
3562
3544
3483
3414
3380
3400
3459
3809
3851
3843
3813
3794
3814
3885
3997
4114
3524
3566
3572
3544
3500
3475
3505
3595
3713
3809
3851
3843
3813
3794
3814
3885
3997
4114
4191
4208
4186
4167
4182
4240
4329
4424
4502
4540
4532
4495
4466
4477
4535
4619
4695
4732
4540
4532
4495
4466
4477
4535
4619
4695
4732
4718
4663
4600
4570
4593
4664
4748
4798
4783
4705
4602
4533
4532
4591
4661
4693
4672
4615
4554
4515
4514
4550
4607
4657
4671
4640
4582
4718
4663
4600
4570
4593
4664
4748
4798
4783
4705
4602
4533
4532
4591
4661
4693
4672
4615
4554
4515
4514
4550
4607
4657
4671
4640
4582
4528
4508
4535
4599
4673
4725
4734
4704
4653
4528
4508
4535
4599
4673
4725
4734
4704
4653
4606
4582
4590
4629
4676
4700
4677
4612
4540
4606
4582
4590
4629
4676
4700
4677
4612
4540
4502
4520
4582
4654
4698
4687
4627
4550
4496
4490
4528
4588
4638
4648
4600
4505
4408
4359
4502
4520
4582
4654
4698
4687
4627
4550
4496
4490
4528
4588
4638
4648
4600
4505
4408
4359
4383
4450
4505
4507
4454
4374
4300
4258
4259
4301
4358
4394
4380
4316
4236
4179
4168
4200
4383
4450
4505
4507
4454
4374
4300
4258
4259
4255
4311
4349
4357
4334
4300
4290
4333
4421
4301
4358
4394
4380
4316
4236
4179
4168
4200
4255
4311
4349
4357
4334
4300
4290
4333
4421
4516
4572
4570
4522
4462
4421
4423
4475
4558
4633
4659
4622
4547
4480
4457
4484
4541
4595
4516
4572
4570
4522
4462
4421
4423
4475
4558
4633
4659
4622
4547
4480
4457
4484
4541
4595
4619
4607
4567
4513
4459
4426
4434
4482
4533
4619
4607
4567
4513
4459
4426
4434
4482
4533
4535
4475
4396
4375
4449
4595
4755
4880
4937
4535
4475
4396
4375
4449
4595
4755
4880
4937
4909
4811
4710
4695
4806
4994
5170
5285
5357
5421
5479
5510
5515
5510
5491
5418
5258
5041
4909
4811
4710
4695
4806
4994
5170
5285
5357
5421
5479
5510
5515
5510
5491
5418
5258
5041
4845
4729
4691
4689
4688
4686
4688
4680
4629
4524
4392
4288
4251
4272
4304
4295
4230
4137
4845
4729
4691
4689
4688
4686
4688
4680
4629
4524
4392
4288
4251
4272
4304
4295
4230
4137
4060
4032
4054
4107
4158
4176
4141
4068
3993
4060
4032
4054
4107
4158
4176
4141
4068
3993
3957
3972
4024
4080
4109
4094
4039
3965
3911
3957
3972
4024
4080
4109
4094
4039
3965
3911
3908
3957
4029
4077
4072
4020
3953
3910
3907
3908
3957
4029
4077
4072
4020
3953
3910
3907
3933
3963
3979
3979
3959
3912
3843
3785
3773
3933
3963
3979
3979
3959
3912
3843
3785
3773
3821
3895
3945
3940
3881
3793
3710
3663
3666
3821
3895
3945
3940
3881
3793
3710
3663
3666
3709
3752
3754
3699
3610
3527
3482
3483
3523
3709
3752
3754
3699
3610
3527
3482
3483
3523
3576
3610
3597
3533
3445
3374
3356
3399
3477
3576
3610
3597
3533
3445
3374
3356
3399
3477
3541
3549
3498
3422
3376
3390
3457
3546
3621
3661
3660
3627
3587
3570
3601
3681
3789
3886
3541
3549
3498
3422
3376
3390
3457
3546
3621
3661
3660
3627
3587
3570
3601
3681
3789
3886
657
608
606
633
658
658
628
579
530
657
608
606
633
658
658
628
579
530
503
502
513
507
470
416
378
372
389
503
502
513
507
470
416
378
372
389
408
424
449
487
521
516
458
375
317
408
424
449
487
521
516
458
375
317
310
338
354
331
283
245
229
222
213
310
338
354
331
283
245
229
222
213
219
263
328
360
323
250
217
255
314
319
261
203
200
235
251
243
276
405
219
263
328
360
323
250
217
255
314
596
743
772
689
560
437
339
275
256
319
261
203
200
235
251
243
276
405
290
359
432
512
628
809
1040
1268
1429
596
743
772
689
560
437
339
275
256
290
359
432
512
628
809
1040
1268
1429
1486
1442
1330
1202
1095
1026
977
918
828
1486
1442
1330
1202
1095
1026
977
918
828
714
605
533
505
497
477
428
361
304
714
605
533
505
497
477
428
361
304
274
264
248
202
134
78
62
81
92
274
264
248
202
134
78
62
81
92
59
-9
-65
-70
-32
7
14
-10
-43
59
-9
-65
-70
-32
7
14
-10
-43
-70
-86
-91
-80
-48
-12
0
-30
-88
-70
-86
-91
-80
-48
-12
0
-30
-88
-136
-145
-114
-65
-27
-14
-30
-70
-123
-136
-145
-114
-65
-27
-14
-30
-70
-123
-169
-186
-174
-158
-169
-219
-289
-353
-397
-169
-186
-174
-158
-169
-219
-289
-353
-397
-416
-406
-367
-314
-283
-299
-357
-420
-454
-416
-406
-367
-314
-283
-299
-357
-420
-454
-462
-467
-491
-531
-572
-608
-636
-661
-678
-462
-467
-491
-531
-572
-608
-636
-661
-678
-684
-675
-656
-640
-647
-682
-728
-747
-717
-684
-675
-656
-640
-647
-682
-728
-747
-717
-653
-594
-566
-564
-565
-559
-556
-554
-532
-477
-407
-362
-358
-370
-355
-295
-210
-128
-477
-407
-362
-358
-370
-355
-295
-210
-128
-55
13
78
130
170
213
277
366
466
-55
13
78
130
170
213
277
366
466
554
610
631
631
638
675
744
823
883
554
610
631
631
638
675
744
823
883
908
904
888
871
859
856
872
911
957
908
904
888
871
859
856
872
911
957
983
973
943
927
949
999
1049
1071
1065
983
973
943
927
949
999
1049
1071
1065
1037
997
949
906
887
900
927
940
921
1037
997
949
906
887
900
927
940
921
881
843
822
816
823
835
842
834
809
881
843
822
816
823
835
842
834
809
782
769
771
771
758
742
739
740
717
782
769
771
771
758
742
739
740
717
656
585
559
600
672
714
691
626
568
656
585
559
600
672
714
691
626
568
547
558
576
582
576
567
557
542
522
547
558
576
582
576
567
557
542
522
509
522
568
623
649
626
573
530
520
509
522
568
623
649
626
573
530
520
534
547
551
555
565
568
545
503
474
534
547
551
555
565
568
545
503
474
488
539
587
598
570
528
489
461
449
468
519
573
587
551
499
474
484
500
488
539
587
598
570
528
489
461
449
468
519
573
587
551
499
474
484
500
494
474
457
442
409
364
337
360
422
494
474
457
442
409
364
337
360
422
479
493
464
413
360
314
286
281
290
479
493
464
413
360
314
286
281
290
285
260
239
252
297
345
376
407
461
285
260
239
252
297
345
376
407
461
529
567
551
508
489
513
552
576
580
529
567
551
508
489
513
552
576
580
580
575
551
515
498
531
598
652
658
580
575
551
515
498
531
598
652
658
630
605
603
606
591
559
538
537
532
630
605
603
606
591
559
538
537
532
500
458
461
547
695
836
914
916
854
737
575
409
297
274
325
408
499
610
737
575
409
297
274
325
408
499
610
766
973
1209
1434
1597
1658
1611
1489
1350
766
973
1209
1434
1597
1658
1611
1489
1350
1236
1160
1104
1048
984
919
866
831
805
1236
1160
1104
1048
984
919
866
831
805
762
688
600
530
494
474
438
375
309
762
688
600
530
494
474
438
375
309
272
276
303
325
330
321
300
272
241
272
276
303
325
330
321
300
272
241
218
213
224
231
217
185
155
147
161
218
213
224
231
217
185
155
147
161
181
191
186
167
135
94
56
39
49
75
100
109
99
70
27
-17
-43
-39
-9
20
20
-21
-82
-130
-138
-111
-81
-9
20
20
-21
-82
-130
-138
-111
-81
-85
-128
-188
-236
-267
-293
-321
-341
-347
-85
-128
-188
-236
-267
-293
-321
-341
-347
-349
-376
-435
-503
-550
-562
-550
-526
-504
-349
-376
-435
-503
-550
-562
-550
-526
-504
-496
-512
-547
-575
-571
-537
-502
-484
-478
-496
-512
-547
-575
-571
-537
-502
-484
-478
-468
-452
-443
-445
-437
-398
-330
-258
-211
-468
-452
-443
-445
-437
-398
-330
-258
-211
-192
-191
-188
-160
-94
10
119
191
206
-192
-191
-188
-160
-94
10
119
191
206
189
189
237
319
399
454
499
560
635
189
189
237
319
399
454
499
560
635
694
716
720
753
838
939
986
946
856
694
716
720
753
838
939
986
946
856
795
811
889
964
990
969
935
923
927
795
811
889
964
990
969
935
923
927
926
912
904
920
952
960
916
842
792
926
912
904
920
952
960
916
842
792
801
844
869
851
820
818
840
841
802
801
844
869
851
820
818
840
841
802
758
762
822
880
877
814
746
723
746
758
762
822
880
877
814
746
723
746
782
809
826
832
810
752
683
653
683
782
809
826
832
810
752
683
653
683
741
770
750
709
690
696
697
680
668
741
770
750
709
690
696
697
680
668
688
728
742
705
645
613
627
664
690
688
728
742
705
645
613
627
664
690
699
698
689
668
633
601
597
629
685
699
698
689
668
633
601
597
629
685
731
735
691
633
610
641
693
719
708
731
735
691
633
610
641
693
719
708
691
684
673
640
603
603
652
710
725
691
684
673
640
603
603
652
710
725
683
617
563
538
536
551
572
581
570
683
617
563
538
536
551
572
581
570
545
527
529
549
571
583
577
553
508
545
527
529
549
571
583
577
553
508
449
384
329
302
317
372
437
479
490
490
504
535
573
607
637
657
656
633
449
384
329
302
317
372
437
479
490
490
504
535
573
607
637
657
656
633
608
614
661
728
784
809
805
783
762
608
614
661
728
784
809
805
783
762
756
769
792
810
823
837
840
805
723
636
605
644
704
732
730
752
832
946
756
769
792
810
823
837
840
805
723
636
605
644
704
732
730
752
832
946
1042
1084
1064
987
859
700
556
474
479
1042
1084
1064
987
859
700
556
474
479
572
730
917
1094
1249
1395
1551
1691
1761
572
730
917
1094
1249
1395
1551
1691
1761
1726
1615
1492
1400
1323
1228
1112
1013
973
1726
1615
1492
1400
1323
1228
1112
1013
973
993
1027
1019
947
832
719
641
600
580
993
1027
1019
947
832
719
641
600
580
563
541
508
464
416
381
378
406
451
563
541
508
464
416
381
378
406
451
490
499
462
389
317
287
307
344
359
490
499
462
389
317
287
307
344
359
352
343
342
332
302
271
280
332
381
352
343
342
332
302
271
280
332
381
377
318
250
218
233
267
292
295
279
249
215
187
178
196
232
267
274
240
377
318
250
218
233
267
292
295
279
249
215
187
178
196
232
267
274
240
173
99
45
25
25
19
-5
-46
-89
173
99
45
25
25
19
-5
-46
-89
-124
-149
-164
-167
-161
-154
-160
-187
-235
-124
-149
-164
-167
-161
-154
-160
-187
-235
-286
-318
-316
-277
-220
-184
-193
-241
-292
-286
-318
-316
-277
-220
-184
-193
-241
-292
-317
-307
-280
-250
-221
-195
-180
-182
-185
-317
-307
-280
-250
-221
-195
-180
-182
-185
-162
-100
-19
47
79
89
102
138
203
-162
-100
-19
47
79
89
102
138
203
290
384
472
548
607
646
661
662
673
290
384
472
548
607
646
661
662
673
717
795
876
923
927
917
930
977
1038
717
795
876
923
927
917
930
977
1038
1086
1114
1131
1143
1147
1134
1112
1102
1120
1086
1114
1131
1143
1147
1134
1112
1102
1120
1161
1203
1221
1209
1176
1139
1119
1126
1157
1189
1195
1163
1100
1036
999
1002
1036
1078
1189
1195
1163
1100
1036
999
1002
1036
1078
1104
1101
1072
1037
1018
1029
1058
1084
1086
1061
1027
1001
986
974
963
965
989
1021
1104
1101
1072
1037
1018
1029
1058
1084
1086
1061
1027
1001
986
974
963
965
989
1021
1030
999
948
915
925
962
992
995
976
1030
999
948
915
925
962
992
995
976
951
927
905
889
888
904
926
936
922
951
927
905
889
888
904
926
936
922
887
845
811
799
811
833
846
836
808
887
845
811
799
811
833
846
836
808
781
770
776
791
810
834
857
861
835
781
770
776
791
810
834
857
861
835
792
766
783
838
897
925
911
875
840
792
766
783
838
897
925
911
875
840
818
809
808
815
830
839
824
777
718
818
809
808
815
830
839
824
777
718
686
708
772
833
846
801
729
678
670
686
708
772
833
846
801
729
678
670
691
705
693
667
657
674
698
714
726
691
705
693
667
657
674
698
714
726
761
827
901
952
969
965
951
929
909
761
827
901
952
969
965
951
929
909
909
942
980
979
928
864
837
857
896
909
942
980
979
928
864
837
857
896
922
927
925
924
921
904
868
829
811
922
927
925
924
921
904
868
829
811
823
848
850
819
795
831
937
1073
1186
823
848
850
819
795
831
937
1073
1186
1250
1255
1180
1019
823
693
691
782
873
1250
1255
1180
1019
823
693
691
782
873
921
971
1085
1268
1464
1626
1743
1815
1817
921
971
1085
1268
1464
1626
1743
1815
1817
1727
1566
1399
1280
1210
1152
1085
1022
982
1727
1566
1399
1280
1210
1152
1085
1022
982
965
944
895
819
743
690
661
629
568
965
944
895
819
743
690
661
629
568
480
394
341
328
339
356
372
381
372
346
320
311
317
315
296
278
280
293
480
394
341
328
339
356
372
381
372
346
320
311
317
315
296
278
280
293
286
251
226
243
289
313
285
230
187
286
251
226
243
289
313
285
230
187
172
171
173
189
220
242
226
173
122
172
171
173
189
220
242
226
173
122
107
125
148
164
171
169
147
99
51
107
125
148
164
171
169
147
99
51
38
71
117
131
95
30
-32
-77
-105
-117
-116
-118
-142
-192
-245
-275
-278
-272
38
71
117
131
95
30
-32
-77
-105
-274
-282
-285
-286
-295
-317
-338
-342
-325
-298
-267
-236
-213
-212
-233
-249
-227
-157
-117
-116
-118
-142
-192
-245
-275
-278
-272
-274
-282
-285
-286
-295
-317
-338
-342
-325
-298
-267
-236
-213
-212
-233
-249
-227
-157
-68
-1
24
18
14
41
103
192
289
-68
-1
24
18
14
41
103
192
289
377
443
484
506
533
590
681
782
857
377
443
484
506
533
590
681
782
857
893
906
920
945
977
1016
1070
1129
1170
1173
1146
1120
1110
1117
1132
1161
1206
1250
1269
1253
1216
1186
1179
1193
1215
1221
1189
893
906
920
945
977
1016
1070
1129
1170
1173
1146
1120
1110
1117
1132
1161
1206
1250
1269
1253
1216
1186
1179
1193
1215
1221
1189
1117
1038
997
1012
1057
1090
1094
1077
1051
1117
1038
997
1012
1057
1090
1094
1077
1051
1022
993
982
1001
1044
1084
1098
1090
1075
1022
993
982
1001
1044
1084
1098
1090
1075
1068
1065
1060
1055
1056
1061
1059
1039
999
1068
1065
1060
1055
1056
1061
1059
1039
999
960
948
974
1022
1056
1052
1015
968
931
960
948
974
1022
1056
1052
1015
968
931
909
899
901
917
936
940
920
887
866
909
899
901
917
936
940
920
887
866
871
893
918
936
939
919
876
832
822
855
905
931
918
888
868
860
845
823
871
893
918
936
939
919
876
832
822
855
905
931
918
888
868
860
845
823
817
845
885
896
856
793
759
776
818
817
845
885
896
856
793
759
776
818
844
836
813
798
792
781
761
747
757
844
836
813
798
792
781
761
747
757
794
844
877
870
820
758
730
756
808
794
844
877
870
820
758
730
756
808
826
779
697
638
634
671
715
758
811
826
779
697
638
634
671
715
758
811
871
917
931
927
937
973
1023
1064
1081
871
917
931
927
937
973
1023
1064
1081
1072
1126
1005
976
971
984
999
1005
1008
1072
1126
1005
976
971
984
999
1005
1008
1015
1020
1012
995
994
1017
1040
1025
963
1015
1020
1012
995
994
1017
1040
1025
963
884
825
794
785
809
892
1039
1204
1316
884
825
794
785
809
892
1039
1204
1316
1338
1290
1215
1141
1063
972
878
809
794
1338
1290
1215
1141
1063
972
878
809
794
843
951
1098
1275
1483
1711
1911
2012
1974
843
951
1098
1275
1483
1711
1911
2012
1974
1839
1703
1640
1633
1610
1518
1369
1223
1124
1839
1703
1640
1633
1610
1518
1369
1223
1124
1086
1091
1107
1092
1017
894
773
706
693
1086
1091
1107
1092
1017
894
773
706
693
694
669
620
577
554
539
510
470
443
694
669
620
577
554
539
510
470
443
448
481
516
527
501
448
394
368
384
448
481
516
527
501
448
394
368
384
428
470
482
458
415
373
348
345
362
428
470
482
458
415
373
348
345
362
386
405
405
387
360
334
313
301
303
386
405
405
387
360
334
313
301
303
323
345
345
313
269
244
250
271
285
323
345
345
313
269
244
250
271
285
283
268
242
204
163
134
125
125
121
283
268
242
204
163
134
125
125
121
102
68
15
-55
-118
-141
-113
-69
-56
102
68
15
-55
-118
-141
-113
-69
-56
-91
-145
-178
-177
-157
-137
-120
-105
-93
-91
-145
-178
-177
-157
-137
-120
-105
-93
-86
-85
-91
-104
-112
-99
-58
-9
15
-86
-85
-91
-104
-112
-99
-58
-9
15
8
-8
-4
33
93
164
238
305
354
8
-8
-4
33
93
164
238
305
354
387
421
476
551
630
707
790
876
940
387
421
476
551
630
707
790
876
940
964
969
1010
1111
1235
1316
1330
1316
1317
964
969
1010
1111
1235
1316
1330
1316
1317
1340
1362
1371
1381
1407
1435
1437
1406
1370
1340
1362
1371
1381
1407
1435
1437
1406
1370
1362
1390
1431
1453
1445
1421
1400
1386
1371
1362
1390
1431
1453
1445
1421
1400
1386
1371
1353
1341
1348
1368
1379
1359
1310
1263
1242
1353
1341
1348
1368
1379
1359
1310
1263
1242
1247
1260
1268
1276
1286
1284
1253
1203
1169
1247
1260
1268
1276
1286
1284
1253
1203
1169
1178
1219
1250
1236
1186
1135
1114
1123
1139
1178
1219
1250
1236
1186
1135
1114
1123
1139
1149
1159
1176
1191
1188
1160
1125
1114
1139
1149
1159
1176
1191
1188
1160
1125
1114
1139
1185
1215
1204
1154
1091
1051
1045
1066
1096
1185
1215
1204
1154
1091
1051
1045
1066
1096
1119
1131
1125
1103
1074
1057
1065
1094
1124
1119
1131
1125
1103
1074
1057
1065
1094
1124
1136
1123
1092
1057
1033
1027
1046
1084
1118
1136
1123
1092
1057
1033
1027
1046
1084
1118
1125
1100
1060
1034
1031
1034
1027
1015
1015
1125
1100
1060
1034
1031
1034
1027
1015
1015
1027
1027
992
939
912
949
1035
1107
1105
1027
1027
992
939
912
949
1035
1107
1105
1022
912
841
832
849
840
791
738
729
769
821
852
870
907
974
1044
1076
1055
1022
912
841
832
849
840
791
738
729
769
821
852
870
907
974
1044
1076
1055
1009
983
1002
1057
1109
1126
1107
1075
1048
1009
983
1002
1057
1109
1126
1107
1075
1048
1023
992
972
990
1041
1079
1063
1013
994
1034
1084
1079
1025
986
1002
1037
1038
1020
1023
992
972
990
1041
1079
1063
1013
994
1034
1084
1079
1025
986
1002
1037
1038
1020
1058
1195
1377
1506
1522
1443
1317
1174
1033
1058
1195
1377
1506
1522
1443
1317
1174
1033
925
886
916
989
1079
1186
1327
1505
1706
925
886
916
989
1079
1186
1327
1505
1706
1903
2061
2139
2108
1985
1829
1700
1610
1530
1903
2061
2139
2108
1985
1829
1700
1610
1530
1443
1353
1281
1229
1182
1134
1088
1043
991
1443
1353
1281
1229
1182
1134
1088
1043
991
938
902
890
881
846
782
716
682
687
938
902
890
881
846
782
716
682
687
710
723
713
683
645
616
605
607
609
710
723
713
683
645
616
605
607
609
604
594
576
543
501
475
484
518
538
604
594
576
543
501
475
484
518
538
518
476
445
439
442
445
461
496
525
518
476
445
439
442
445
461
496
525
516
467
413
391
403
426
440
443
427
516
467
413
391
403
426
440
443
427
386
325
270
245
246
249
245
241
239
386
325
270
245
246
249
245
241
239
225
188
142
124
146
179
179
131
68
225
188
142
124
146
179
179
131
68
26
17
26
37
50
67
82
83
62
26
17
26
37
50
67
82
83
62
26
-6
-14
11
58
100
111
88
62
26
-6
-14
11
58
100
111
88
62
72
125
195
245
266
277
300
333
365
72
125
195
245
266
277
300
333
365
396
438
505
589
662
702
715
727
770
396
438
505
589
662
702
715
727
770
846
933
1003
1047
1079
1114
1147
1166
1176
846
933
1003
1047
1079
1114
1147
1166
1176
1203
1261
1332
1378
1380
1353
1328
1322
1336
1203
1261
1332
1378
1380
1353
1328
1322
1336
1367
1408
1439
1430
1375
1304
1265
1272
1303
1319
1308
1279
1245
1216
1199
1205
1231
1262
1290
1310
1322
1312
1274
1226
1206
1223
1247
1319
1308
1279
1245
1216
1199
1205
1231
1262
1237
1194
1153
1138
1133
1117
1102
1122
1180
1290
1310
1322
1312
1274
1226
1206
1223
1247
1229
1217
1153
1099
1099
1137
1157
1138
1108
1237
1194
1153
1138
1133
1117
1102
1122
1180
1229
1217
1153
1099
1099
1137
1157
1138
1108
1099
1104
1091
1052
1021
1030
1070
1100
1092
1056
1015
980
953
940
957
999
1031
1016
1056
1015
980
953
940
957
999
1031
1016
956
898
885
917
957
973
965
952
942
956
898
885
917
957
973
965
952
942
931
917
910
922
947
963
957
930
892
931
917
910
922
947
963
957
930
892
850
813
798
821
870
911
912
875
830
801
788
777
763
749
733
707
673
653
850
813
798
821
870
911
912
875
830
678
747
830
889
915
929
946
956
939
801
788
777
763
749
733
707
673
653
678
747
830
889
915
929
946
956
939
903
885
912
963
983
948
890
864
885
903
885
912
963
983
948
890
864
885
926
955
967
974
977
962
931
916
943
992
1011
970
894
834
812
812
818
849
926
955
967
974
977
962
931
916
943
992
1011
970
894
834
812
812
818
849
939
1090
1247
1345
1363
1324
1257
1167
1061
939
1090
1247
1345
1363
1324
1257
1167
1061
969
929
937
958
969
1009
1138
1364
1618
969
929
937
958
969
1009
1138
1364
1618
1810
1896
1893
1833
1733
1610
1500
1434
1400
1810
1896
1893
1833
1733
1610
1500
1434
1400
1348
1246
1120
1031
1012
1036
1043
1001
917
1348
1246
1120
1031
1012
1036
1043
1001
917
821
734
658
597
558
542
537
527
501
821
734
658
597
558
542
537
527
501
462
423
395
391
409
436
453
445
409
462
423
395
391
409
436
453
445
409
361
324
315
335
378
426
468
489
483
361
324
315
335
378
426
468
489
483
456
434
443
484
530
541
503
440
386
456
434
443
484
530
541
503
440
386
355
336
323
323
348
384
401
385
351
355
336
323
323
348
384
401
385
351
328
319
314
307
307
321
324
287
213
147
133
164
190
166
97
24
-20
-36
-40
-38
-29
-16
-15
-36
-68
-91
-97
328
319
314
307
307
321
324
287
213
147
133
164
190
166
97
24
-20
-36
-40
-38
-29
-16
-15
-36
-68
-91
-97
-88
-69
-40
-8
11
0
-32
-55
-47
-9
41
81
103
103
86
78
112
202
-9
41
81
103
103
86
78
112
202
322
419
467
483
504
553
618
683
742
322
419
467
483
504
553
618
683
742
800
851
883
897
912
947
1004
1068
1124
800
851
883
897
912
947
1004
1068
1124
1172
1211
1234
1230
1205
1184
1192
1236
1287
1172
1211
1234
1230
1205
1184
1192
1236
1287
1310
1295
1267
1256
1271
1290
1292
1281
1273
1310
1295
1267
1256
1271
1290
1292
1281
1273
1272
1257
1209
1144
1104
1115
1161
1194
1187
1272
1257
1209
1144
1104
1115
1161
1194
1187
1148
1104
1072
1050
1039
1048
1080
1117
1129
1148
1104
1072
1050
1039
1048
1080
1117
1129
1106
1064
1030
1019
1029
1046
1054
1036
989
1106
1064
1030
1019
1029
1046
1054
1036
989
930
893
900
941
983
1006
1011
1005
990
930
893
900
941
983
1006
1011
1005
990
960
925
907
919
948
974
982
965
924
960
925
907
919
948
974
982
965
924
876
851
871
922
956
939
886
844
838
876
851
871
922
956
939
886
844
838
854
868
885
926
981
1006
966
883
824
831
882
913
890
835
796
791
797
789
831
882
913
890
835
796
791
797
789
776
789
837
876
864
805
752
741
756
776
789
837
876
864
805
752
741
756
759
737
714
708
698
663
625
629
692
759
737
714
708
698
663
625
629
692
773
828
854
878
913
934
921
898
909
773
828
854
878
913
934
921
898
909
962
1012
1011
958
894
864
874
910
950
962
1012
1011
958
894
864
874
910
950
970
951
900
849
835
867
917
947
943
970
951
900
849
835
867
917
947
943
915
878
845
819
799
789
805
868
984
915
878
845
819
799
789
805
868
984
1119
1218
1246
1213
1155
1086
988
863
745
1119
1218
1246
1213
1155
1086
988
863
745
684
695
752
832
948
1132
1387
1658
1861
684
695
752
832
948
1132
1387
1658
1861
1931
1867
1722
1575
1475
1417
1358
1265
1145
1931
1867
1722
1575
1475
1417
1358
1265
1145
1042
991
994
1030
1069
1080
1038
933
794
1042
991
994
1030
1069
1080
1038
933
794
670
597
572
563
546
523
500
470
424
670
597
572
563
546
523
500
470
424
386
391
441
496
505
462
400
352
323
386
391
441
496
505
462
400
352
323
309
320
355
391
396
365
322
300
293
309
320
355
391
396
365
322
300
293
282
259
240
229
216
195
172
154
137
282
259
240
229
216
195
172
154
137
127
148
215
294
320
259
154
85
87
127
148
215
294
320
259
154
85
87
122
128
82
17
-27
-35
-17
9
28
122
128
82
17
-27
-35
-17
9
28
35
36
37
29
-9
-83
-169
-218
-216
35
36
37
29
-9
-83
-169
-218
-216
-192
-198
-250
-314
-349
-347
-325
-304
-287
-192
-198
-250
-314
-349
-347
-325
-304
-287
-276
-278
-298
-321
-323
-302
-273
-247
-219
-276
-278
-298
-321
-323
-302
-273
-247
-219
-183
-141
-118
-123
-135
-115
-46
43
109
142
169
213
271
320
360
426
538
657
-183
-141
-118
-123
-135
-115
-46
43
109
142
169
213
271
320
360
426
538
657
709
673
620
650
772
904
957
939
935
709
673
620
650
772
904
957
939
935
995
1079
1111
1073
1020
1009
1043
1074
1064
995
1079
1111
1073
1020
1009
1043
1074
1064
1015
954
908
895
931
1005
1074
1084
1024
1015
954
908
895
931
1005
1074
1084
1024
937
886
894
927
939
922
905
904
905
890
874
888
940
993
1001
962
912
884
890
874
888
940
993
1001
962
912
884
878
879
886
909
935
939
900
843
812
878
879
886
909
935
939
900
843
812
829
876
919
931
913
889
877
879
879
829
876
919
931
913
889
877
879
879
865
848
859
902
937
916
838
758
736
771
815
827
807
778
749
724
714
740
865
848
859
902
937
916
838
758
736
796
845
848
800
730
680
672
692
710
771
815
827
807
778
749
724
714
740
796
845
848
800
730
680
672
692
710
703
676
655
658
674
682
675
667
675
680
655
599
530
464
407
366
364
411
703
676
655
658
674
682
675
667
675
680
655
599
530
464
407
366
364
411
469
488
468
466
537
656
746
763
745
469
488
468
466
537
656
746
763
745
755
803
840
825
784
781
837
910
938
755
803
840
825
784
781
837
910
938
907
855
825
824
825
813
802
812
837
907
855
825
824
825
813
802
812
837
836
778
690
632
644
703
757
785
811
836
778
690
632
644
703
757
785
811
868
958
1055
1141
1205
1223
1153
978
748
551
450
444
499
606
770
977
1197
1406
1603
1787
1919
1953
1886
1774
1671
1581
1471
868
958
1055
1141
1205
1223
1153
978
748
551
450
444
499
606
770
977
1197
1406
1603
1787
1919
1953
1886
1774
1671
1581
1471
1336
1215
1155
1150
1148
1111
1032
930
818
706
616
569
560
552
513
442
366
317
305
322
358
394
401
361
293
242
237
1336
1215
1155
1150
1148
1111
1032
930
818
706
616
569
560
552
513
442
366
317
305
322
358
394
401
361
293
242
237
261
276
270
259
260
261
240
208
200
261
276
270
259
260
261
240
208
200
235
281
290
250
193
157
138
113
75
235
281
290
250
193
157
138
113
75
37
8
-29
-90
-169
-242
-285
-293
-268
37
8
-29
-90
-169
-242
-285
-293
-268
-227
-199
-217
-275
-328
-331
-293
-269
-303
-227
-199
-217
-275
-328
-331
-293
-269
-303
-370
-422
-459
-518
-600
-642
-592
-493
-449
-370
-422
-459
-518
-600
-642
-592
-493
-449
-501
-576
-594
-574
-601
-679
-693
-551
-327
-501
-576
-594
-574
-601
-679
-693
-551
-327
-193
-227
-321
-339
-292
-330
-547
-862
-1112
-193
-227
-321
-339
-292
-330
-547
-862
-1112
-1229
-1272
-1308
-1318
-1239
-1068
-873
-730
-652
-1229
-1272
-1308
-1318
-1239
-1068
-873
-730
-652
-604
-550
-467
-345
-186
-21
110
191
252
-604
-550
-467
-345
-186
-21
110
191
252
347
488
630
704
675
576
502
543
715
347
488
630
704
675
576
502
543
715
954
1162
1289
1356
1396
1389
1280
1053
776
954
1162
1289
1356
1396
1389
1280
1053
776
552
418
335
256
197
208
295
401
472
552
418
335
256
197
208
295
401
472
529
637
813
987
1065
1029
959
958
1056
529
637
813
987
1065
1029
959
958
1056
1196
1304
1362
1401
1449
1503
1536
1528
1474
1196
1304
1362
1401
1449
1503
1536
1528
1474
1389
1305
1254
1242
1234
1186
1104
1043
1049
1095
1118
1105
1115
1198
1306
1339
1262
1155
1122
1167
1194
1112
935
754
644
602
582
1095
1118
1105
1115
1198
1306
1339
1262
1155
1122
1167
1194
1112
935
754
644
602
582
551
519
527
608
758
927
1051
1096
1073
551
519
527
608
758
927
1051
1096
1073
1032
1007
986
931
824
698
619
635
730
1032
1007
986
931
824
698
619
635
730
832
887
896
896
909
916
902
888
893
832
887
896
896
909
916
902
888
893
901
868
801
777
853
974
1030
987
925
919
928
846
672
563
663
918
1096
1048
901
868
801
777
853
974
1030
987
925
919
928
846
672
563
663
918
1096
1048
863
751
793
849
743
496
319
400
703
863
751
793
849
743
496
319
400
703
1030
1238
1363
1523
1716
1769
1514
991
441
1030
1238
1363
1523
1716
1769
1514
991
441
85
-77
-193
-338
-404
-227
207
710
1047
85
-77
-193
-338
-404
-227
207
710
1047
1113
968
730
497
300
120
-75
-250
-258
1113
968
730
497
300
120
-75
-250
-258
57
684
1388
1875
2041
2019
1980
1941
1781
1441
1031
731
621
632
662
683
742
862
57
684
1388
1875
2041
2019
1980
1941
1781
1441
1031
731
621
632
662
683
742
862
1001
1073
1008
816
573
373
252
173
91
1001
1073
1008
816
573
373
252
173
91
14
-12
29
99
143
155
188
295
458
14
-12
29
99
143
155
188
295
458
620
745
827
864
831
701
491
252
28
620
745
827
864
831
701
491
252
28
-159
-283
-314
-247
-140
-54
31
183
415
-159
-283
-314
-247
-140
-54
31
183
415
636
712
612
435
273
128
-49
-257
-448
636
712
612
435
273
128
-49
-257
-448
-601
-733
-830
-840
-765
-710
-779
-907
-903
-601
-733
-830
-840
-765
-710
-779
-907
-903
-688
-441
-430
-709
-1042
-1166
-1078
-995
-1083
-688
-441
-430
-709
-1042
-1166
-1078
-995
-1083
-1282
-1426
-1436
-1376
-1345
-1360
-1352
-1260
-1059
-1282
-1426
-1436
-1376
-1345
-1360
-1352
-1260
-1059
-772
-483
-291
-248
-296
-313
-265
-270
-475
-772
-483
-291
-248
-296
-313
-265
-270
-475
-883
-1317
-1592
-1671
-1654
-1635
-1624
-1571
-1460
-883
-1317
-1592
-1671
-1654
-1635
-1624
-1571
-1460
-1335
-1239
-1163
-1045
-832
-550
-301
-192
-220
-1335
-1239
-1163
-1045
-832
-550
-301
-192
-220
-274
-241
-144
-134
-318
-620
-845
-891
-832
-274
-241
-144
-134
-318
-620
-845
-891
-832
-792
-787
-711
-482
-157
113
219
169
59
-792
-787
-711
-482
-157
113
219
169
59
-17
-26
-13
-63
-210
-394
-498
-454
-295
-17
-26
-13
-63
-210
-394
-498
-454
-295
-105
83
302
570
838
1001
980
768
431
-105
83
302
570
838
1001
980
768
431
62
-263
-521
-735
-929
-1083
-1121
-983
-687
62
-263
-521
-735
-929
-1083
-1121
-983
-687
-332
-31
150
199
141
36
-17
65
272
-332
-31
150
199
141
36
-17
65
272
492
605
595
561
605
715
791
755
632
492
605
595
561
605
715
791
755
632
510
443
415
389
364
397
533
740
916
510
443
415
389
364
397
533
740
916
974
926
882
937
1086
1233
1315
1371
1478
974
926
882
937
1086
1233
1315
1371
1478
1619
1661
1492
1160
835
640
534
372
90
1619
1661
1492
1160
835
640
534
372
90
-227
-425
-422
-253
-10
231
413
481
406
-227
-425
-422
-253
-10
231
413
481
406
225
22
-146
-296
-458
-605
-665
-605
-462
225
22
-146
-296
-458
-605
-665
-605
-462
-289
-80
185
460
621
590
427
270
175
-289
-80
185
460
621
590
427
270
175
78
-87
-266
-352
-311
-214
-130
-53
56
78
-87
-266
-352
-311
-214
-130
-53
56
181
270
341
483
737
1017
1189
1216
1185
181
270
341
483
737
1017
1189
1216
1185
1181
1211
1253
1324
1424
1450
1255
853
474
1181
1211
1253
1324
1424
1450
1255
853
474
351
439
440
154
-262
-431
-137
466
1048
1423
1645
1849
2071
2232
2248
2091
1786
1392
351
439
440
154
-262
-431
-137
466
1048
1423
1645
1849
2071
2232
2248
2091
1786
1392
995
690
531
499
549
650
783
909
977
995
690
531
499
549
650
783
909
977
983
984
1028
1075
1027
845
621
505
553
983
984
1028
1075
1027
845
621
505
553
693
828
937
1049
1144
1134
980
773
669
693
828
937
1049
1144
1134
980
773
669
702
718
542
184
-147
-246
-103
111
250
702
718
542
184
-147
-246
-103
111
250
303
350
428
501
531
528
530
546
532
303
350
428
501
531
528
530
546
532
461
346
231
172
234
445
742
966
981
461
346
231
172
234
445
742
966
981
824
682
719
891
992
874
599
339
190
824
682
719
891
992
874
599
339
190
93
-42
-192
-265
-237
-208
-296
-509
-756
93
-42
-192
-265
-237
-208
-296
-509
-756
-970
-1168
-1400
-1646
-1835
-1922
-1936
-1940
-1956
-970
-1168
-1400
-1646
-1835
-1922
-1936
-1940
-1956
-1954
-1917
-1862
-1815
-1777
-1742
-1715
-1723
-1788
-1954
-1917
-1862
-1815
-1777
-1742
-1715
-1723
-1788
-1901
-2018
-2085
-2061
-1955
-1843
-1813
-1899
-2035
-1901
-2018
-2085
-2061
-1955
-1843
-1813
-1899
-2035
-2092
-1991
-1769
-1565
-1475
-1434
-1291
-987
-636
-2092
-1991
-1769
-1565
-1475
-1434
-1291
-987
-636
-391
-211
134
780
1518
1946
1873
1533
1309
-391
-211
134
780
1518
1946
1873
1533
1309
1306
1292
1023
546
114
-117
-182
-156
-10
290
632
810
752
608
572
683
814
864
1306
1292
1023
546
114
-117
-182
-156
-10
290
632
810
752
608
572
683
814
864
889
1012
1287
1656
2031
2361
2624
2806
2888
889
1012
1287
1656
2031
2361
2624
2806
2888
2869
2792
2711
2663
2631
2572
2466
2349
2270
2869
2792
2711
2663
2631
2572
2466
2349
2270
2258
2294
2342
2388
2433
2461
2424
2305
2174
2258
2294
2342
2388
2433
2461
2424
2305
2174
2122
2143
2114
1918
1610
1402
1453
1684
1835
2122
2143
2114
1918
1610
1402
1453
1684
1835
1723
1398
1068
869
772
662
491
307
174
1723
1398
1068
869
772
662
491
307
174
114
129
233
441
721
988
1180
1309
1432
114
129
233
441
721
988
1180
1309
1432
1568
1654
1620
1477
1323
1230
1162
1038
843
1568
1654
1620
1477
1323
1230
1162
1038
843
667
618
717
872
989
1055
1110
1172
1208
667
618
717
872
989
1055
1110
1172
1208
1192
1139
1086
1041
1002
966
938
907
846
757
703
746
868
973
990
954
953
1018
1192
1139
1086
1041
1002
966
938
907
846
757
703
746
868
973
990
954
953
1018
1085
1088
1055
1064
1139
1189
1105
895
691
630
734
890
949
850
673
563
605
738
1085
1088
1055
1064
1139
1189
1105
895
691
630
734
890
949
850
673
563
605
738
834
844
844
936
1099
1206
1210
1225
1386
834
844
844
936
1099
1206
1210
1225
1386
1650
1818
1760
1580
1529
1732
2077
2327
2335
1650
1818
1760
1580
1529
1732
2077
2327
2335
2141
1898
1734
1661
1581
1375
1029
666
448
2141
1898
1734
1661
1581
1375
1029
666
448
434
531
606
602
561
541
553
587
649
434
531
606
602
561
541
553
587
649
736
802
785
676
551
501
546
638
713
736
802
785
676
551
501
546
638
713
743
731
677
615
599
665
781
871
888
743
731
677
615
599
665
781
871
888
865
866
898
913
897
917
1045
1254
1409
865
866
898
913
897
917
1045
1254
1409
1405
1255
1053
858
664
456
260
113
11
1405
1255
1053
858
664
456
260
113
11
-70
-122
-107
-24
69
95
42
-30
-70
-70
-122
-107
-24
69
95
42
-30
-70
-90
-124
-179
-204
-139
24
211
330
338
-90
-124
-179
-204
-139
24
211
330
338
279
230
224
223
194
166
211
363
574
279
230
224
223
194
166
211
363
574
761
888
989
1102
1208
1224
1081
796
464
761
888
989
1102
1208
1224
1081
796
464
172
-75
-338
-647
-931
-1076
-1053
-954
-886
-848
-746
-542
-308
-158
-136
-190
-249
-281
-848
-746
-542
-308
-158
-136
-190
-249
-281
-271
-200
-86
13
74
166
398
772
1136
1324
1329
1295
1320
1341
1205
872
485
246
-271
-200
-86
13
74
166
398
772
1136
1324
1329
1295
1320
1341
1205
872
485
246
233
360
486
548
576
628
721
836
951
1050
1111
1108
1049
967
893
853
881
998
233
360
486
548
576
628
721
836
951
1050
1111
1108
1049
967
893
853
881
998
1168
1280
1232
1054
890
866
952
1020
1018
1032
1173
1424
1657
1776
1781
1715
1588
1376
1168
1280
1232
1054
890
866
952
1020
1018
1032
1173
1424
1657
1776
1781
1715
1588
1376
1083
740
365
-31
-384
-575
-532
-324
-110
11
82
201
389
564
645
640
619
614
1083
740
365
-31
-384
-575
-532
-324
-110
11
82
201
389
564
645
640
619
614
609
583
564
595
668
731
737
707
698
609
583
564
595
668
731
737
707
698
725
742
719
699
767
933
1084
1072
865
725
742
719
699
767
933
1084
1072
865
616
546
736
1042
1220
1134
855
562
360
616
546
736
1042
1220
1134
855
562
360
212
16
-272
-589
-823
-894
-812
-647
-481
212
16
-272
-589
-823
-894
-812
-647
-481
-352
-244
-121
17
117
115
-12
-205
-362
-352
-244
-121
17
117
115
-12
-205
-362
-420
-377
-251
-68
119
221
160
-47
-275
-420
-377
-251
-68
119
221
160
-47
-275
-424
-532
-721
-1010
-1238
-1222
-984
-746
-692
-424
-532
-721
-1010
-1238
-1222
-984
-746
-692
-768
-762
-568
-315
-237
-428
-778
-1085
-1228
-768
-762
-568
-315
-237
-428
-778
-1085
-1228
-1221
-1149
-1086
-1058
-1035
-979
-883
-779
-697
-631
-559
-468
-369
-246
-60
204
512
804
-1221
-1149
-1086
-1058
-1035
-979
-883
-779
-697
-631
-559
-468
-369
-246
-60
204
512
804
1034
1180
1244
1236
1188
1147
1125
1096
1047
1034
1180
1244
1236
1188
1147
1125
1096
1047
1022
1092
1242
1360
1355
1258
1180
1166
1126
953
683
471
428
508
607
718
918
1206
1022
1092
1242
1360
1355
1258
1180
1166
1126
953
683
471
428
508
607
718
918
1206
1428
1424
1218
1004
935
972
969
857
685
1428
1424
1218
1004
935
972
969
857
685
519
352
165
9
-30
36
65
-59
-277
519
352
165
9
-30
36
65
-59
-277
-405
-314
-56
210
369
419
425
428
423
-405
-314
-56
210
369
419
425
428
423
399
360
322
293
274
268
276
292
310
399
360
322
293
274
268
276
292
310
324
333
336
341
362
413
482
535
553
324
333
336
341
362
413
482
535
553
556
584
639
673
634
518
371
229
98
-21
-113
-166
-213
-296
-405
-474
-457
-390
556
584
639
673
634
518
371
229
98
-21
-113
-166
-213
-296
-405
-474
-457
-390
-358
-399
-458
-462
-417
-395
-435
-488
-473
-358
-399
-458
-462
-417
-395
-435
-488
-473
-361
-209
-89
-5
93
217
313
331
315
-361
-209
-89
-5
93
217
313
331
315
374
551
729
749
607
479
536
753
974
374
551
729
749
607
479
536
753
974
1110
1228
1391
1521
1499
1362
1299
1413
1577
1110
1228
1391
1521
1499
1362
1299
1413
1577
1579
1385
1173
1092
1090
1019
851
701
648
1579
1385
1173
1092
1090
1019
851
701
648
618
490
272
117
148
315
464
505
491
618
490
272
117
148
315
464
505
491
534
666
805
854
804
728
698
721
759
796
857
957
1053
1084
1036
965
943
974
534
666
805
854
804
728
698
721
759
796
857
957
1053
1084
1036
965
943
974
1002
969
892
842
864
936
1000
1043
1129
1002
969
892
842
864
936
1000
1043
1129
1324
1600
1828
1882
1737
1480
1221
1000
776
1324
1600
1828
1882
1737
1480
1221
1000
776
491
149
-164
-320
-240
31
348
557
598
491
149
-164
-320
-240
31
348
557
598
534
482
509
589
639
602
496
389
334
534
482
509
589
639
602
496
389
334
344
410
546
757
989
1115
1037
808
612
344
410
546
757
989
1115
1037
808
612
599
741
868
856
747
669
684
732
746
755
841
1012
1146
1113
909
666
502
413
599
741
868
856
747
669
684
732
746
755
841
1012
1146
1113
909
666
502
413
312
154
-11
-91
-54
62
203
347
484
592
650
663
657
655
663
675
681
672
312
154
-11
-91
-54
62
203
347
484
592
650
663
657
655
663
675
681
672
662
697
814
966
1016
878
644
521
619
662
697
814
966
1016
878
644
521
619
811
868
724
561
602
854
1117
1205
1125
811
868
724
561
602
854
1117
1205
1125
996
883
742
537
334
252
336
520
701
996
883
742
537
334
252
336
520
701
833
935
1036
1145
1255
1335
1344
1265
1130
833
935
1036
1145
1255
1335
1344
1265
1130
1010
951
933
907
859
820
814
822
809
1010
951
933
907
859
820
814
822
809
770
724
665
574
474
434
483
559
593
770
724
665
574
474
434
483
559
593
618
747
995
1198
1179
952
708
574
463
618
747
995
1198
1179
952
708
574
463
224
-128
-400
-448
-323
-164
-18
159
343
224
-128
-400
-448
-323
-164
-18
159
343
402
245
-51
-304
-435
-531
-691
-882
-971
402
245
-51
-304
-435
-531
-691
-882
-971
-871
-636
-376
-171
-36
33
28
-57
-199
-333
-384
-327
-212
-111
-48
20
119
204
-871
-636
-376
-171
-36
33
28
-57
-199
-333
-384
-327
-212
-111
-48
20
119
204
214
151
103
137
208
205
83
-74
-137
214
151
103
137
208
205
83
-74
-137
-73
12
-25
-232
-527
-781
-931
-1017
-1105
-1199
-1237
-1165
-1017
-866
-738
-615
-498
-438
-73
12
-25
-232
-527
-781
-931
-1017
-1105
-461
-507
-474
-367
-315
-412
-568
-588
-380
-1199
-1237
-1165
-1017
-866
-738
-615
-498
-438
-461
-507
-474
-367
-315
-412
-568
-588
-380
-62
163
210
140
57
14
17
60
137
-62
163
210
140
57
14
17
60
137
218
267
280
288
327
412
533
663
760
789
740
640
531
444
389
369
386
424
789
740
640
531
444
389
369
386
424
459
488
540
641
780
912
1003
1048
1057
459
488
540
641
780
912
1003
1048
1057
1034
991
957
955
975
983
979
1002
1081
1034
991
957
955
975
983
979
1002
1081
1183
1232
1190
1103
1049
1049
1035
926
720
1183
1232
1190
1103
1049
1049
1035
926
720
507
394
406
489
586
696
857
1063
1234
507
394
406
489
586
696
857
1063
1234
1298
1264
1206
1173
1126
989
752
501
338
1298
1264
1206
1173
1126
989
752
501
338
289
310
347
391
445
483
459
378
321
289
310
347
391
445
483
459
378
321
376
534
694
758
717
649
625
651
693
376
534
694
758
717
649
625
651
693
730
752
739
674
586
552
624
746
802
730
752
739
674
586
552
624
746
802
742
635
588
624
656
602
485
404
421
520
648
792
966
1161
1331
1425
1423
1330
742
635
588
624
656
602
485
404
421
520
648
792
966
1161
1331
1425
1423
1330
1154
914
651
394
128
-177
-501
-741
-774
1154
914
651
394
128
-177
-501
-741
-774
-576
-270
-39
31
6
28
158
328
423
-576
-270
-39
31
6
28
158
328
423
409
361
387
503
640
728
770
815
877
409
361
387
503
640
728
770
815
877
912
871
759
637
563
561
603
640
617
912
871
759
637
563
561
603
640
617
514
362
232
183
217
284
327
327
312
514
362
232
183
217
284
327
327
312
325
382
469
565
673
826
1020
1186
1227
325
382
469
565
673
826
1020
1186
1227
1116
929
766
644
500
288
68
-49
-15
1116
929
766
644
500
288
68
-49
-15
120
289
475
691
924
1144
1322
1438
1451
120
289
475
691
924
1144
1322
1438
1451
1320
1091
911
908
1061
1241
1355
1433
1519
1320
1091
911
908
1061
1241
1355
1433
1519
1565
1468
1226
965
796
676
461
108
-255
1565
1468
1226
965
796
676
461
108
-255
-447
-411
-254
-119
-68
-70
-70
-45
1
-447
-411
-254
-119
-68
-70
-70
-45
1
63
134
211
290
363
407
384
288
172
63
134
211
290
363
407
384
288
172
103
100
101
13
-166
-323
-336
-201
-32
103
100
101
13
-166
-323
-336
-201
-32
57
54
31
39
59
41
-25
-94
-124
57
54
31
39
59
41
-25
-94
-124
-106
-62
-11
43
111
208
323
404
396
-106
-62
-11
43
111
208
323
404
396
300
185
106
29
-128
-378
-613
-698
-625
300
185
106
29
-128
-378
-613
-698
-625
-522
-517
-611
-704
-724
-688
-652
-639
-640
-522
-517
-611
-704
-724
-688
-652
-639
-640
-651
-678
-696
-650
-521
-356
-225
-170
-184
-651
-678
-696
-650
-521
-356
-225
-170
-184
-253
-367
-491
-553
-506
-392
-312
-313
-343
-253
-367
-491
-553
-506
-392
-312
-313
-343
-324
-244
-179
-189
-252
-299
-284
-219
-144
-324
-244
-179
-189
-252
-299
-284
-219
-144
-80
-17
53
135
237
389
619
913
1196
-80
-17
53
135
237
389
619
913
1196
1388
1462
1466
1467
1472
1429
1286
1042
745
1388
1462
1466
1467
1472
1429
1286
1042
745
464
262
184
226
333
447
572
771
1055
1317
1415
1331
1210
1199
1255
1198
926
563
1317
1415
1331
1210
1199
1255
1198
926
563
340
369
539
664
672
641
671
756
808
340
369
539
664
672
641
671
756
808
781
722
707
743
770
757
759
870
1101
781
722
707
743
770
757
759
870
1101
1355
1520
1564
1527
1425
1226
923
582
312
1355
1520
1564
1527
1425
1226
923
582
312
163
105
72
44
47
102
195
296
383
163
105
72
44
47
102
195
296
383
450
504
561
642
754
865
931
941
925
450
504
561
642
754
865
931
941
925
911
892
833
723
590
483
444
477
563
665
739
752
695
587
474
398
367
360
911
892
833
723
590
483
444
477
563
665
739
752
695
587
474
398
367
360
349
343
404
614
984
1407
1712
1776
1599
349
343
404
614
984
1407
1712
1776
1599
1275
911
558
223
-89
-346
-504
-526
-406
1275
911
558
223
-89
-346
-504
-526
-406
-175
97
326
459
498
498
504
515
495
-175
97
326
459
498
498
504
515
495
422
322
270
344
554
832
1067
1177
1148
422
322
270
344
554
832
1067
1177
1148
1016
815
570
320
132
63
101
170
201
1016
815
570
320
132
63
101
170
201
196
211
289
410
516
560
529
449
366
196
211
289
410
516
560
529
449
366
318
322
376
478
629
806
946
997
954
318
322
376
478
629
806
946
997
954
872
796
710
579
401
246
175
184
215
872
796
710
579
401
246
175
184
215
224
219
233
284
358
422
460
500
596
224
219
233
284
358
422
460
500
596
774
981
1105
1067
893
687
542
474
446
774
981
1105
1067
893
687
542
474
446
418
386
366
391
510
743
1034
1272
1375
418
386
366
391
510
743
1034
1272
1375
1370
1355
1384
1418
1389
1316
1289
1363
1493
1580
1575
1490
1328
1050
646
208
-124
-288
1370
1355
1384
1418
1389
1316
1289
1363
1493
1580
1575
1490
1328
1050
646
208
-124
-288
-337
-361
-373
-316
-153
72
295
493
662
-337
-361
-373
-316
-153
72
295
493
662
758
715
522
273
79
-36
-142
-283
-412
758
715
522
273
79
-36
-142
-283
-412
-434
-326
-174
-88
-88
-91
-22
111
231
-434
-326
-174
-88
-88
-91
-22
111
231
275
241
184
153
171
237
337
448
548
275
241
184
153
171
237
337
448
548
630
701
766
799
747
568
271
-78
-402
630
701
766
799
747
568
271
-78
-402
-645
-795
-871
-885
-834
-711
-524
-323
-178
-645
-795
-871
-885
-834
-711
-524
-323
-178
-134
-168
-211
-200
-151
-134
-201
-313
-372
-134
-168
-211
-200
-151
-134
-201
-313
-372
-319
-191
-78
-53
-116
-228
-347
-453
-528
-564
-570
-567
-549
-487
-378
-268
-219
-233
-319
-191
-78
-53
-116
-228
-347
-453
-528
-564
-570
-567
-549
-487
-378
-268
-219
-233
-256
-243
-202
-158
-92
38
223
381
453
-256
-243
-202
-158
-92
38
223
381
453
491
600
803
978
974
777
522
359
317
321
304
277
295
386
523
662
776
868
491
600
803
978
974
777
522
359
317
321
304
277
295
386
523
662
776
868
959
1068
1189
1297
1362
1378
1365
1350
1353
1364
1349
1273
1122
941
794
713
666
611
959
1068
1189
1297
1362
1378
1365
1350
1353
553
548
629
752
825
807
751
743
806
1364
1349
1273
1122
941
794
713
666
611
553
548
629
752
825
807
751
743
806
876
881
822
787
862
1048
1260
1404
1452
1425
1334
1163
925
692
538
457
380
273
876
881
822
787
862
1048
1260
1404
1452
1425
1334
1163
925
692
538
457
380
273
196
222
337
440
470
461
474
513
526
196
222
337
440
470
461
474
513
526
496
466
492
587
729
907
1102
1261
1320
496
466
492
587
729
907
1102
1261
1320
1264
1127
955
769
594
462
391
351
293
229
229
346
538
710
808
868
946
1030
229
229
346
538
710
808
868
946
1030
1060
1003
908
846
837
828
758
633
526
1060
1003
908
846
837
828
758
633
526
497
535
582
590
564
538
537
546
537
497
535
582
590
564
538
537
546
537
509
491
504
538
564
574
601
680
802
509
491
504
538
564
574
601
680
802
918
996
1040
1072
1082
1040
948
847
769
918
996
1040
1072
1082
1040
948
847
769
689
573
438
351
338
336
273
171
127
194
320
422
481
549
652
749
797
826
689
573
438
351
338
336
273
171
127
194
320
422
481
549
652
749
797
826
890
979
994
871
649
428
270
157
62
890
979
994
871
649
428
270
157
62
-3
-15
11
36
54
108
220
354
464
-3
-15
11
36
54
108
220
354
464
555
669
806
903
904
841
810
871
974
555
669
806
903
904
841
810
871
974
1022
956
802
631
510
468
495
528
490
1022
956
802
631
510
468
495
528
490
359
208
149
219
340
417
462
579
821
359
208
149
219
340
417
462
579
821
1093
1236
1191
1047
915
803
632
375
118
1093
1236
1191
1047
915
803
632
375
118
-25
-15
109
304
557
862
1183
1464
1655
-25
-15
109
304
557
862
1183
1464
1655
1730
1698
1608
1527
1492
1476
1427
1343
1283
1730
1698
1608
1527
1492
1476
1427
1343
1283
1293
1353
1398
1385
1320
1209
1047
842
635
1293
1353
1398
1385
1320
1209
1047
842
635
465
343
258
211
201
201
169
101
48
465
343
258
211
201
201
169
101
48
61
142
252
371
505
639
721
718
670
61
142
252
371
505
639
721
718
670
654
685
683
570
342
67
-183
-366
-451
654
685
683
570
342
67
-183
-366
-451
-420
-288
-128
-16
30
54
103
179
256
-420
-288
-128
-16
30
54
103
179
256
333
431
544
620
610
529
443
384
318
333
431
544
620
610
529
443
384
318
179
-36
-254
-398
-457
-472
-469
-427
-321
179
-36
-254
-398
-457
-472
-469
-427
-321
-186
-94
-83
-129
-197
-280
-377
-452
-447
-346
-214
-140
-160
-218
-234
-175
-85
-53
-186
-94
-83
-129
-197
-280
-377
-452
-447
-147
-348
-548
-629
-579
-497
-480
-510
-483
-346
-214
-140
-160
-218
-234
-175
-85
-53
-147
-348
-548
-629
-579
-497
-480
-510
-483
-352
-194
-110
-85
5
224
470
566
448
-352
-194
-110
-85
5
224
470
566
448
223
48
-20
-37
-70
-125
-168
-168
-101
223
48
-20
-37
-70
-125
-168
-168
-101
48
272
514
693
775
801
839
912
975
48
272
514
693
775
801
839
912
975
972
898
800
742
749
792
819
800
759
972
898
800
742
749
792
819
800
759
747
794
894
1007
1095
1131
1106
1037
973
747
794
894
1007
1095
1131
1106
1037
973
964
1014
1077
1098
1072
1039
1029
1028
1008
964
1014
1077
1098
1072
1039
1029
1028
1008
969
932
897
846
794
788
840
885
842
969
932
897
846
794
788
840
885
842
706
577
556
636
710
686
577
476
464
551
690
821
885
849
719
558
446
422
706
577
556
636
710
686
577
476
464
551
690
821
885
849
719
558
446
422
446
446
403
359
370
444
534
599
641
446
446
403
359
370
444
534
599
641
688
763
856
939
993
1022
1039
1032
966
688
763
856
939
993
1022
1039
1032
966
828
664
540
468
387
244
92
74
271
828
664
540
468
387
244
92
74
271
597
851
899
787
684
709
836
939
912
758
574
478
511
616
685
658
580
541
597
851
899
787
684
709
836
939
912
758
574
478
511
616
685
658
580
541
577
632
631
566
502
498
551
612
645
651
641
624
616
641
709
791
837
833
651
641
624
616
641
709
791
837
833
813
809
812
793
744
691
648
595
508
813
809
812
793
744
691
648
595
508
408
353
371
433
482
502
520
555
598
408
353
371
433
482
502
520
555
598
632
672
747
850
920
893
772
630
533
632
672
747
850
920
893
772
630
533
476
394
265
151
132
211
297
314
279
476
394
265
151
132
211
297
314
279
282
376
533
681
778
826
828
775
683
282
376
533
681
778
826
828
775
683
608
599
627
616
524
395
308
298
341
608
599
627
616
524
395
308
298
341
396
458
539
644
743
806
824
813
793
773
747
709
663
623
590
555
510
468
396
458
539
644
743
806
824
813
793
773
747
709
663
623
590
555
510
468
434
381
267
94
-58
-79
63
286
483
434
381
267
94
-58
-79
63
286
483
627
774
976
1212
1416
1556
1643
1694
1690
627
774
976
1212
1416
1556
1643
1694
1690
1605
1455
1284
1112
928
732
573
502
507
1605
1455
1284
1112
928
732
573
502
507
507
442
331
254
240
250
240
236
293
507
442
331
254
240
250
240
236
293
402
480
469
431
485
660
825
818
607
402
480
469
431
485
660
825
818
607
308
51
-135
-301
-479
-626
-670
-590
-425
308
51
-135
-301
-479
-626
-670
-590
-425
-249
-111
-15
64
143
210
237
223
216
-249
-111
-15
64
143
210
237
223
216
264
355
416
394
318
269
276
278
188
264
355
416
394
318
269
276
278
188
0
-201
-331
-379
-393
-410
-431
-442
-448
0
-201
-331
-379
-393
-410
-431
-442
-448
-450
-430
-368
-269
-174
-122
-115
-122
-108
-450
-430
-368
-269
-174
-122
-115
-122
-108
-65
-18
-15
-92
-237
-387
-477
-502
-517
-571
-649
-686
-634
-523
-432
-429
-501
-569
-65
-18
-15
-92
-237
-387
-477
-502
-517
-571
-649
-686
-634
-523
-432
-429
-501
-569
-553
-426
-242
-100
-59
-101
-139
-105
-9
-553
-426
-242
-100
-59
-101
-139
-105
-9
66
52
-46
-162
-242
-279
-285
-260
-189
66
52
-46
-162
-242
-279
-285
-260
-189
-69
77
216
340
461
581
686
763
819
-69
77
216
340
461
581
686
763
819
874
922
940
921
888
877
889
887
843
874
922
940
921
888
877
889
887
843
779
753
793
851
852
776
693
693
788
779
753
793
851
852
776
693
693
788
899
937
898
860
886
966
1045
1100
1151
899
937
898
860
886
966
1045
1100
1151
1213
1259
1255
1209
1148
1093
1042
996
966
1213
1259
1255
1209
1148
1093
1042
996
966
951
921
850
764
720
760
868
985
1046
1013
902
793
777
877
1004
1027
905
724
618
638
719
752
700
616
588
657
783
885
911
885
863
872
875
824
728
645
951
921
850
764
720
760
868
985
1046
1013
902
793
777
877
1004
1027
905
724
618
638
719
752
700
616
588
657
783
885
911
885
863
872
875
824
728
645
614
618
628
661
745
863
938
905
784
614
618
628
661
745
863
938
905
784
663
614
633
650
607
511
433
446
564
663
614
633
650
607
511
433
446
564
723
842
895
911
921
913
856
762
684
723
842
895
911
921
913
856
762
684
663
689
727
769
828
894
921
878
799
663
689
727
769
828
894
921
878
799
760
793
840
815
693
549
487
559
726
760
793
840
815
693
549
487
559
726
896
990
980
889
762
630
503
384
278
199
158
154
187
256
360
478
577
630
640
631
618
597
554
492
438
418
438
896
990
980
889
762
630
503
384
278
475
508
527
535
538
534
532
551
599
199
158
154
187
256
360
478
577
630
650
658
601
525
502
552
608
593
514
640
631
618
597
554
492
438
418
438
472
533
645
696
656
626
718
910
1058
475
508
527
535
538
534
532
551
599
650
658
601
525
502
552
608
593
514
472
533
645
696
656
626
718
910
1058
1053
927
799
743
733
699
613
497
380
1053
927
799
743
733
699
613
497
380
280
220
221
284
381
476
545
585
602
280
220
221
284
381
476
545
585
602
606
608
607
595
565
535
519
505
475
606
608
607
595
565
535
519
505
475
451
494
644
854
1015
1045
955
809
654
451
494
644
854
1015
1045
955
809
654
499
350
227
155
151
224
379
603
855
499
350
227
155
151
224
379
603
855
1109
1365
1622
1827
1896
1798
1606
1439
1356
1109
1365
1622
1827
1896
1798
1606
1439
1356
1318
1267
1199
1149
1126
1106
1080
1082
1152
1318
1267
1199
1149
1126
1106
1080
1082
1152
1266
1341
1304
1156
962
789
652
515
336
1266
1341
1304
1156
962
789
652
515
336
116
-91
-218
-227
-134
4
127
203
227
116
-91
-218
-227
-134
4
127
203
227
229
242
279
318
315
255
177
141
176
229
242
279
318
315
255
177
141
176
259
334
365
352
319
290
280
296
326
259
334
365
352
319
290
280
296
326
346
341
312
274
251
256
288
322
329
346
341
312
274
251
256
288
322
329
301
263
242
236
219
183
159
178
227
301
263
242
236
219
183
159
178
227
256
228
169
137
156
187
180
130
75
256
228
169
137
156
187
180
130
75
46
29
-3
-52
-80
-57
4
55
56
46
29
-3
-52
-80
-57
4
55
56
13
-35
-49
-22
30
80
105
97
61
13
-35
-49
-22
30
80
105
97
61
21
14
57
132
192
213
220
257
332
21
14
57
132
192
213
220
257
332
404
438
449
487
570
655
682
649
625
404
438
449
487
570
655
682
649
625
676
798
929
1013
1056
1097
1156
1212
1232
676
798
929
1013
1056
1097
1156
1212
1232
1214
1190
1204
1266
1346
1392
1383
1345
1336
1214
1190
1204
1266
1346
1392
1383
1345
1336
1389
1480
1547
1556
1516
1464
1421
1387
1369
1389
1480
1547
1556
1516
1464
1421
1387
1369
1381
1426
1473
1485
1456
1420
1414
1435
1455
1381
1426
1473
1485
1456
1420
1414
1435
1455
1449
1427
1409
1398
1369
1309
1239
1198
1209
1449
1427
1409
1398
1369
1309
1239
1198
1209
1250
1275
1259
1214
1177
1174
1198
1224
1238
1250
1275
1259
1214
1177
1174
1198
1224
1238
1246
1254
1260
1247
1209
1166
1148
1171
1217
1246
1254
1260
1247
1209
1166
1148
1171
1217
1246
1228
1174
1120
1094
1097
1107
1110
1110
1246
1228
1174
1120
1094
1097
1107
1110
1110
1111
1101
1069
1023
996
1012
1059
1097
1095
1111
1101
1069
1023
996
1012
1059
1097
1095
1055
1006
973
964
971
984
997
1016
1044
1055
1006
973
964
971
984
997
1016
1044
1074
1090
1081
1062
1064
1102
1155
1177
1147
1074
1090
1081
1062
1064
1102
1155
1177
1147
1084
1033
1019
1037
1069
1103
1129
1134
1110
1084
1033
1019
1037
1069
1103
1129
1134
1110
1071
1035
1022
1034
1059
1074
1060
1013
962
1071
1035
1022
1034
1059
1074
1060
1013
962
946
971
1000
1000
983
997
1053
1091
1047
946
971
1000
1000
983
997
1053
1091
1047
934
844
844
908
945
908
839
808
843
934
844
844
908
945
908
839
808
843
914
982
1039
1089
1121
1107
1035
924
809
914
982
1039
1089
1121
1107
1035
924
809
706
616
534
463
400
332
253
186
176
706
616
534
463
400
332
253
186
176
252
382
491
525
504
495
543
627
696
252
382
491
525
504
495
543
627
696
731
758
807
868
911
927
938
968
1015
731
758
807
868
911
927
938
968
1015
1055
1063
1027
950
850
767
730
736
739
1055
1063
1027
950
850
767
730
736
739
705
655
641
685
749
782
783
798
867
705
655
641
685
749
782
783
798
867
961
1016
1003
955
930
957
1019
1085
1149
961
1016
1003
955
930
957
1019
1085
1149
1227
1329
1438
1525
1566
1557
1505
1413
1288
1227
1329
1438
1525
1566
1557
1505
1413
1288
1144
1009
912
878
926
1064
1283
1555
1841
1144
1009
912
878
926
1064
1283
1555
1841
2113
2352
2544
2678
2756
2797
2804
2758
2641
2113
2352
2544
2678
2756
2797
2804
2758
2641
2462
2274
2127
2033
1969
1908
1835
1735
1598
2462
2274
2127
2033
1969
1908
1835
1735
1598
1433
1273
1156
1086
1033
962
857
724
595
1433
1273
1156
1086
1033
962
857
724
595
492
428
406
423
454
457
401
295
199
492
428
406
423
454
457
401
295
199
167
189
199
153
81
45
64
81
42
167
189
199
153
81
45
64
81
42
-39
-96
-85
-30
16
24
4
-27
-58
-39
-96
-85
-30
16
24
4
-27
-58
-78
-71
-28
22
24
-50
-166
-241
-217
-78
-71
-28
22
24
-50
-166
-241
-217
-132
-90
-153
-271
-337
-294
-202
-159
-181
-132
-90
-153
-271
-337
-294
-202
-159
-181
-198
-160
-98
-77
-119
-184
-233
-272
-312
-198
-160
-98
-77
-119
-184
-233
-272
-312
-344
-351
-355
-400
-488
-557
-545
-461
-380
-344
-351
-355
-400
-488
-557
-545
-461
-380
-360
-387
-411
-410
-406
-420
-434
-419
-378
-360
-387
-411
-410
-406
-420
-434
-419
-378
-350
-354
-366
-350
-303
-243
-168
-57
92
-350
-354
-366
-350
-303
-243
-168
-57
92
233
314
336
340
354
368
374
386
408
233
314
336
340
354
368
374
386
408
402
329
219
171
250
411
547
598
604
402
329
219
171
250
411
547
598
604
640
734
854
955
1013
1029
1019
1015
1036
640
734
854
955
1013
1029
1019
1015
1036
1066
1067
1019
958
929
937
935
893
834
1066
1067
1019
958
929
937
935
893
834
799
783
742
665
605
624
715
796
792
799
783
742
665
605
624
715
796
792
716
653
666
740
812
848
860
864
850
716
653
666
740
812
848
860
864
850
802
743
725
778
863
912
894
848
835
802
743
725
778
863
912
894
848
835
870
920
942
938
941
972
1000
970
873
870
920
942
938
941
972
1000
970
873
774
759
846
959
997
932
834
803
868
774
759
846
959
997
932
834
803
868
969
1025
1010
960
916
885
851
820
816
969
1025
1010
960
916
885
851
820
816
846
880
886
862
831
810
801
788
766
731
678
627
607
631
655
626
558
536
618
743
789
713
610
600
686
765
757
846
880
886
862
831
810
801
788
766
731
678
627
607
631
655
626
558
536
618
743
789
713
610
600
686
765
757
705
696
741
759
688
568
495
510
574
614
597
539
476
441
455
509
566
583
614
597
539
476
441
455
509
566
583
543
472
413
383
379
389
409
430
433
543
472
413
383
379
389
409
430
433
406
360
321
315
346
397
441
460
444
406
360
321
315
346
397
441
460
444
393
325
270
250
260
272
257
215
177
180
232
307
373
429
503
602
688
711
393
325
270
250
260
272
257
215
177
670
630
651
731
807
832
822
817
822
180
232
307
373
429
503
602
688
711
670
630
651
731
807
832
822
817
822
811
787
797
878
997
1075
1078
1046
1049
811
787
797
878
997
1075
1078
1046
1049
1106
1175
1204
1181
1129
1069
1001
928
875
1106
1175
1204
1181
1129
1069
1001
928
875
882
967
1099
1217
1277
1276
1227
1132
980
882
967
1099
1217
1277
1276
1227
1132
980
789
617
527
531
587
660
759
918
1150
1433
1719
1951
2079
2073
1956
1797
1662
1575
789
617
527
531
587
660
759
918
1150
1510
1439
1346
1235
1121
1032
998
1018
1044
1433
1719
1951
2079
2073
1956
1797
1662
1575
1510
1439
1346
1235
1121
1032
998
1018
1044
1022
938
827
729
652
593
552
531
515
1022
938
827
729
652
593
552
531
515
477
414
347
300
276
270
289
335
386
401
358
291
259
289
353
398
395
357
310
274
249
228
216
224
256
294
312
477
414
347
300
276
270
289
335
386
401
358
291
259
289
353
398
395
357
310
274
249
228
216
224
256
294
312
296
263
231
211
196
185
182
184
170
296
263
231
211
196
185
182
184
170
126
70
36
38
60
76
79
70
36
126
70
36
38
60
76
79
70
36
-39
-136
-200
-196
-154
-137
-174
-233
-264
-39
-136
-200
-196
-154
-137
-174
-233
-264
-258
-246
-250
-260
-260
-255
-266
-309
-374
-258
-246
-250
-260
-260
-255
-266
-309
-374
-434
-458
-434
-378
-328
-310
-314
-306
-270
-434
-458
-434
-378
-328
-310
-314
-306
-270
-227
-201
-180
-137
-67
-13
-10
-41
-45
-227
-201
-180
-137
-67
-13
-10
-41
-45
18
125
224
281
314
356
425
512
594
18
125
224
281
314
356
425
512
594
659
715
782
864
943
984
977
949
953
659
715
782
864
943
984
977
949
953
1020
1131
1225
1250
1210
1160
1150
1186
1223
1020
1131
1225
1250
1210
1160
1150
1186
1223
1223
1204
1207
1249
1295
1303
1280
1279
1335
1423
1486
1486
1435
1367
1317
1312
1355
1420
1223
1204
1207
1249
1295
1303
1280
1279
1335
1423
1486
1486
1435
1367
1317
1312
1355
1420
1464
1459
1418
1380
1363
1362
1370
1386
1406
1464
1459
1418
1380
1363
1362
1370
1386
1406
1404
1358
1287
1240
1249
1287
1304
1287
1267
1404
1358
1287
1240
1249
1287
1304
1287
1267
1279
1315
1331
1304
1261
1242
1264
1298
1303
1279
1315
1331
1304
1261
1242
1264
1298
1303
1261
1197
1147
1133
1148
1171
1196
1223
1250
1261
1197
1147
1133
1148
1171
1196
1223
1250
1255
1216
1145
1087
1080
1119
1162
1167
1131
1255
1216
1145
1087
1080
1119
1162
1167
1131
1076
1034
1021
1039
1078
1121
1149
1148
1119
1076
1034
1021
1039
1078
1121
1149
1148
1119
1079
1053
1051
1067
1087
1098
1099
1089
1063
1079
1053
1051
1067
1087
1098
1099
1089
1063
1020
973
950
966
1007
1041
1039
995
934
1020
973
950
966
1007
1041
1039
995
934
892
896
946
1013
1048
1022
953
888
859
892
896
946
1013
1048
1022
953
888
859
861
862
854
852
866
872
838
768
707
861
862
854
852
866
872
838
768
707
698
736
774
772
723
655
595
563
570
698
736
774
772
723
655
595
563
570
616
680
716
683
588
479
409
389
390
616
680
716
683
588
479
409
389
390
373
336
311
329
384
448
499
538
580
373
336
311
329
384
448
499
538
580
635
686
710
688
627
561
526
538
580
635
686
710
688
627
561
526
538
580
621
637
630
612
587
558
540
555
600
621
637
630
612
587
558
540
555
600
640
630
577
528
518
531
527
493
456
444
445
431
407
420
514
672
817
863
640
630
577
528
518
531
527
493
456
444
445
431
407
420
514
672
817
863
781
610
430
307
267
293
360
447
550
781
610
430
307
267
293
360
447
550
674
830
1037
1293
1558
1760
1834
1774
1634
674
830
1037
1293
1558
1760
1834
1774
1634
1487
1367
1273
1179
1076
973
888
830
800
1487
1367
1273
1179
1076
973
888
830
800
783
759
715
658
612
592
582
548
475
783
759
715
658
612
592
582
548
475
378
298
259
263
289
316
319
282
215
378
298
259
263
289
316
319
282
215
155
147
200
269
301
283
250
241
257
155
147
200
269
301
283
250
241
257
270
264
249
240
232
209
166
125
113
140
191
235
248
232
203
178
159
145
140
191
235
248
232
203
178
159
145
137
142
162
176
156
92
14
-35
-32
137
142
162
176
156
92
14
-35
-32
0
17
-9
-64
-111
-126
-123
-136
-176
0
17
-9
-64
-111
-126
-123
-136
-176
-220
-242
-244
-261
-313
-380
-415
-388
-317
-220
-242
-244
-261
-313
-380
-415
-388
-317
-245
-210
-216
-251
-290
-312
-303
-268
-225
-245
-210
-216
-251
-290
-312
-303
-268
-225
-200
-202
-221
-240
-243
-213
-153
-80
-23
-200
-202
-221
-240
-243
-213
-153
-80
-23
3
10
20
51
99
163
250
365
481
3
10
20
51
99
163
250
365
481
557
574
561
574
640
738
828
885
914
557
574
561
574
640
738
828
885
914
926
925
921
934
985
1068
1147
1183
1172
926
925
921
934
985
1068
1147
1183
1172
1143
1129
1138
1153
1164
1174
1183
1178
1145
1143
1129
1138
1153
1164
1174
1183
1178
1145
1088
1036
1024
1056
1107
1136
1117
1059
991
1088
1036
1024
1056
1107
1136
1117
1059
991
948
942
960
978
983
981
979
976
958
948
942
960
978
983
981
979
976
958
927
903
909
939
960
941
884
821
785
927
903
909
939
960
941
884
821
785
787
813
842
859
855
827
778
726
696
704
747
798
827
819
786
753
742
757
787
813
842
859
855
827
778
726
696
704
747
798
827
819
786
753
742
757
785
806
811
797
770
732
692
668
674
785
806
811
797
770
732
692
668
674
706
741
755
737
697
649
615
609
638
706
741
755
737
697
649
615
609
638
686
722
724
697
665
652
660
683
714
686
722
724
697
665
652
660
683
714
742
754
739
701
659
637
650
690
736
742
754
739
701
659
637
650
690
736
763
760
730
693
669
664
676
697
713
763
760
730
693
669
664
676
697
713
708
675
627
591
583
596
610
615
615
708
675
627
591
583
596
610
615
615
611
598
576
555
551
566
587
597
589
611
598
576
555
551
566
587
597
589
554
492
419
380
409
498
593
645
653
554
492
419
380
409
498
593
645
653
653
678
727
775
807
822
827
820
792
653
678
727
775
807
822
827
820
792
748
711
703
733
784
832
852
838
795
748
711
703
733
784
832
852
838
795
741
697
686
715
770
810
791
709
608
741
697
686
715
770
810
791
709
608
551
559
602
634
647
671
730
809
877
551
559
602
634
647
671
730
809
877
922
951
954
898
769
613
506
488
541
922
951
954
898
769
613
506
488
541
637
774
969
1210
1444
1628
1751
1821
1834
637
774
969
1210
1444
1628
1751
1821
1834
1774
1645
1495
1366
1264
1150
1003
854
775
1774
1645
1495
1366
1264
1150
1003
854
775
800
878
909
829
674
543
502
523
534
800
878
909
829
674
543
502
523
534
503
461
442
429
381
301
250
277
358
503
461
442
429
381
301
250
277
358
418
409
352
299
270
254
239
237
263
418
409
352
299
270
254
239
237
263
302
316
282
217
160
144
168
211
245
251
228
185
143
121
126
146
162
160
302
316
282
217
160
144
168
211
245
251
228
185
143
121
126
146
162
160
139
103
55
4
-30
-26
13
51
43
-17
-88
-120
-102
-71
-68
-94
-124
-147
139
103
55
4
-30
-26
13
51
43
-175
-222
-277
-313
-318
-308
-306
-327
-370
-422
-463
-476
-456
-419
-390
-383
-393
-405
-17
-88
-120
-102
-71
-68
-94
-124
-147
-175
-222
-277
-313
-318
-308
-306
-327
-370
-422
-463
-476
-456
-419
-390
-383
-393
-405
-409
-399
-369
-322
-268
-225
-206
-212
-226
-409
-399
-369
-322
-268
-225
-206
-212
-226
-229
-204
-148
-71
-1
45
69
91
135
207
296
386
470
545
606
645
666
690
-229
-204
-148
-71
-1
45
69
91
135
207
296
386
470
545
606
645
666
690
744
838
944
1022
1045
1030
1014
1023
1057
744
838
944
1022
1045
1030
1014
1023
1057
1097
1131
1154
1161
1150
1123
1095
1083
1092
1097
1131
1154
1161
1150
1123
1095
1083
1092
1116
1145
1171
1184
1175
1141
1097
1076
1093
1116
1145
1171
1184
1175
1141
1097
1076
1093
1128
1139
1102
1035
975
939
918
899
887
1128
1139
1102
1035
975
939
918
899
887
898
927
944
924
879
854
880
947
1011
898
927
944
924
879
854
880
947
1011
1034
1014
978
945
917
887
865
868
892
1034
1014
978
945
917
887
865
868
892
905
883
835
799
802
831
859
874
880
905
883
835
799
802
831
859
874
880
878
863
837
819
826
852
876
886
884
878
863
837
819
826
852
876
886
884
874
852
821
798
801
827
851
852
834
805
769
733
712
726
771
816
829
806
874
852
821
798
801
827
851
852
834
805
769
733
712
726
771
816
829
806
767
740
741
771
814
843
837
797
747
767
740
741
771
814
843
837
797
747
713
700
697
698
707
718
706
658
589
713
700
697
698
707
718
706
658
589
542
547
592
640
660
655
634
602
559
542
547
592
640
660
655
634
602
559
517
496
496
496
477
442
412
406
427
471
536
613
680
716
715
689
659
639
517
496
496
496
477
442
412
406
427
471
536
613
680
716
715
689
659
639
638
663
703
730
718
674
638
646
687
638
663
703
730
718
674
638
646
687
723
731
718
699
673
630
583
569
598
723
731
718
699
673
630
583
569
598
632
618
547
461
407
394
403
430
497
632
618
547
461
407
394
403
430
497
616
763
883
934
902
800
657
512
404
616
763
883
934
902
800
657
512
404
351
339
345
371
454
629
892
1193
1466
351
339
345
371
454
629
892
1193
1466
1655
1731
1700
1601
1489
1407
1355
1301
1214
1655
1731
1700
1601
1489
1407
1355
1301
1214
1098
981
894
847
831
817
772
681
561
1098
981
894
847
831
817
772
681
561
451
378
333
297
262
239
230
215
176
451
378
333
297
262
239
230
215
176
126
102
118
158
197
232
269
301
305
126
102
118
158
197
232
269
301
305
277
248
251
283
312
318
305
288
267
277
248
251
283
312
318
305
288
267
233
199
192
229
285
318
301
244
179
233
199
192
229
285
318
301
244
179
135
126
147
180
201
196
169
135
105
135
126
147
180
201
196
169
135
105
78
51
29
25
35
30
-14
-90
-156
78
51
29
25
35
30
-14
-90
-156
-175
-154
-133
-146
-192
-251
-309
-368
-419
-175
-154
-133
-146
-192
-251
-309
-368
-419
-443
-434
-411
-409
-445
-499
-537
-541
-522
-443
-434
-411
-409
-445
-499
-537
-541
-522
-494
-462
-432
-413
-418
-437
-447
-425
-372
-309
-251
-206
-179
-169
-169
-151
-93
3
-494
-462
-432
-413
-418
-437
-447
-425
-372
-309
-251
-206
-179
-169
-169
-151
-93
3
101
168
200
226
273
345
424
494
561
101
168
200
226
273
345
424
494
561
633
705
757
777
779
800
864
957
1037
633
705
757
777
779
800
864
957
1037
1070
1059
1036
1030
1046
1069
1085
1097
1110
1070
1059
1036
1030
1046
1069
1085
1097
1110
1129
1140
1128
1095
1064
1061
1094
1136
1142
1129
1140
1128
1095
1064
1061
1094
1136
1142
1091
1001
924
908
952
1014
1040
1011
957
1091
1001
924
908
952
1014
1040
1011
957
919
913
918
907
879
860
870
892
891
919
913
918
907
879
860
870
892
891
852
801
776
796
842
881
888
865
826
852
801
776
796
842
881
888
865
826
790
771
773
789
803
806
797
781
758
790
771
773
789
803
806
797
781
758
730
707
705
738
791
825
808
752
701
690
714
743
754
755
757
756
738
707
690
714
743
754
755
757
756
738
707
683
689
724
761
887
743
690
639
620
683
689
724
761
887
743
690
639
620
642
689
728
733
705
657
607
572
565
642
689
728
733
705
657
607
572
565
594
640
668
651
598
544
522
536
561
594
640
668
651
598
544
522
536
561
575
576
571
557
525
477
432
416
433
575
576
571
557
525
477
432
416
433
459
464
446
433
450
489
529
565
617
459
464
446
433
450
489
529
565
617
693
759
769
716
648
623
650
696
724
693
759
769
716
648
623
650
696
724
724
711
692
672
660
671
708
748
761
724
711
692
672
660
671
708
748
761
742
714
699
698
691
668
640
622
607
742
714
699
698
691
668
640
622
607
573
511
464
487
603
769
916
1004
1031
573
511
464
487
603
769
916
1004
1031
1000
904
752
598
515
533
616
706
788
1000
904
752
598
515
533
616
706
788
893
1058
1277
1519
1741
1901
1951
1871
1696
893
1058
1277
1519
1741
1901
1951
1871
1696
1505
1370
1296
1240
1164
1068
978
916
883
1505
1370
1296
1240
1164
1068
978
916
883
865
844
807
749
681
620
568
515
450
865
844
807
749
681
620
568
515
450
382
329
304
303
313
319
311
292
276
279
300
315
302
266
230
209
197
181
382
329
304
303
313
319
311
292
276
279
300
315
302
266
230
209
197
181
173
193
237
267
249
191
136
119
137
173
193
237
267
249
191
136
119
137
164
177
176
164
140
103
66
48
61
164
177
176
164
140
103
66
48
61
96
125
124
88
33
-17
-48
-61
-60
96
125
124
88
33
-17
-48
-61
-60
-55
-55
-72
-109
-159
-204
-226
-230
-232
-55
-55
-72
-109
-159
-204
-226
-230
-232
-250
-289
-342
-397
-446
-484
-502
-495
-468
-250
-289
-342
-397
-446
-484
-502
-495
-468
-437
-422
-438
-477
-513
-517
-481
-425
-384
-377
-397
-424
-439
-434
-407
-363
-313
-275
-437
-422
-438
-477
-513
-517
-481
-425
-384
-377
-397
-424
-439
-434
-407
-363
-313
-275
-257
-251
-234
-189
-114
-21
77
167
231
-257
-251
-234
-189
-114
-21
77
167
231
259
261
269
315
407
516
601
640
647
259
261
269
315
407
516
601
640
647
653
677
717
764
818
877
925
941
920
653
677
717
764
818
877
925
941
920
887
878
907
957
995
1005
990
958
916
887
878
907
957
995
1005
990
958
916
881
871
894
929
949
936
898
853
818
799
802
824
853
868
862
843
821
806
797
800
816
837
842
818
776
740
723
797
800
816
837
842
818
776
740
723
726
738
754
769
771
751
710
671
658
726
738
754
769
771
751
710
671
658
681
727
772
790
768
718
672
665
701
681
727
772
790
768
718
672
665
701
752
776
760
724
697
688
688
692
706
752
776
760
724
697
688
688
692
706
733
756
753
718
673
645
647
667
693
716
728
719
686
646
625
635
664
686
733
756
753
718
673
645
647
667
693
716
728
719
686
646
625
635
664
686
686
663
621
567
517
498
523
573
608
686
663
621
567
517
498
523
573
608
598
546
481
431
408
406
409
401
374
598
546
481
431
408
406
409
401
374
336
307
305
336
389
454
524
592
640
657
646
631
636
663
702
733
748
744
727
714
722
756
796
820
820
809
794
336
307
305
336
389
454
524
592
640
657
646
631
636
663
702
733
748
744
727
714
722
756
796
820
820
809
794
773
748
739
761
795
794
739
662
605
773
748
739
761
795
794
739
662
605
586
593
624
704
838
986
1088
1122
1105
586
593
624
704
838
986
1088
1122
1105
1051
952
816
699
652
671
697
706
751
1051
952
816
699
652
671
697
706
751
900
1151
1418
1617
1729
1771
1749
1647
1482
900
1151
1418
1617
1729
1771
1749
1647
1482
1321
1229
1204
1180
1093
954
835
796
831
1321
1229
1204
1180
1093
954
835
796
831
872
856
772
656
549
467
406
367
353
872
856
772
656
549
467
406
367
353
358
356
331
293
269
275
296
315
331
346
350
317
245
169
131
141
170
187
358
356
331
293
269
275
296
315
331
346
350
317
245
169
131
141
170
187
193
199
199
170
110
52
43
90
152
193
199
199
170
110
52
43
90
152
175
141
78
26
10
26
55
74
68
175
141
78
26
10
26
55
74
68
29
-31
-90
-131
-152
-163
-175
-191
-209
29
-31
-90
-131
-152
-163
-175
-191
-209
-230
-259
-295
-331
-352
-355
-350
-357
-389
-230
-259
-295
-331
-352
-355
-350
-357
-389
-447
-518
-580
-613
-611
-585
-558
-552
-567
-447
-518
-580
-613
-611
-585
-558
-552
-567
-597
-624
-632
-612
-569
-524
-503
-513
-540
-597
-624
-632
-612
-569
-524
-503
-513
-540
-556
-543
-503
-452
-402
-357
-317
-283
-258
-556
-543
-503
-452
-402
-357
-317
-283
-258
-240
-211
-152
-61
41
122
168
195
230
-240
-211
-152
-61
41
122
168
195
230
281
345
418
504
593
660
683
674
678
281
345
418
504
593
660
683
674
678
728
815
897
942
954
957
966
983
1007
728
815
897
942
954
957
966
983
1007
1041
1083
1120
1141
1139
1121
1094
1068
1050
1041
1083
1120
1141
1139
1121
1094
1068
1050
1052
1073
1093
1089
1055
1011
987
996
1024
1052
1073
1093
1089
1055
1011
987
996
1024
1044
1048
1044
1039
1029
1001
960
930
933
1044
1048
1044
1039
1029
1001
960
930
933
961
984
979
943
896
858
841
853
891
961
984
979
943
896
858
841
853
891
938
959
933
873
827
829
868
904
908
938
959
933
873
827
829
868
904
908
889
871
861
847
826
815
829
860
877
889
871
861
847
826
815
829
860
877
863
826
787
758
736
721
723
745
769
863
826
787
758
736
721
723
745
769
770
743
711
700
715
739
752
749
736
770
743
711
700
715
739
752
749
736
713
679
647
638
664
714
756
767
751
713
679
647
638
664
714
756
767
751
727
714
714
718
718
714
704
685
650
727
714
714
718
718
714
704
685
650
598
543
507
509
543
588
620
634
639
652
682
728
782
836
874
880
852
804
598
543
507
509
543
588
620
634
639
652
682
728
782
836
874
880
852
804
769
769
804
850
873
859
819
777
752
759
791
829
849
843
825
810
794
760
769
769
804
850
873
859
819
777
752
759
791
829
849
843
825
810
794
760
708
670
677
719
755
765
777
838
956
1086
1169
1175
1100
951
756
572
467
473
708
670
677
719
755
765
777
838
956
1086
1169
1175
1100
951
756
572
467
473
567
698
832
977
1156
1373
1603
1799
1919
567
698
832
977
1156
1373
1603
1799
1919
1937
1859
1722
1574
1444
1335
1232
1124
1024
957
934
937
921
850
737
631
580
580
1937
1859
1722
1574
1444
1335
1232
1124
1024
582
545
464
376
315
289
290
308
338
957
934
937
921
850
737
631
580
580
375
397
378
317
246
209
220
245
235
582
545
464
376
315
289
290
308
338
178
114
90
115
152
165
156
153
169
375
397
378
317
246
209
220
245
235
178
114
90
115
152
165
156
153
169
181
160
108
57
41
61
86
85
54
181
160
108
57
41
61
86
85
54
8
-32
-55
-56
-39
-15
2
-6
-44
8
-32
-55
-56
-39
-15
2
-6
-44
-98
-142
-155
-140
-123
-134
-181
-245
-305
-98
-142
-155
-140
-123
-134
-181
-245
-305
-352
-388
-415
-426
-418
-405
-407
-430
-461
-352
-388
-415
-426
-418
-405
-407
-430
-461
-485
-496
-498
-494
-482
-477
-497
-539
-573
-485
-496
-498
-494
-482
-477
-497
-539
-573
-569
-523
-462
-413
-381
-360
-352
-360
-368
-569
-523
-462
-413
-381
-360
-352
-360
-368
-341
-261
-154
-72
-36
-22
8
69
147
-341
-261
-154
-72
-36
-22
8
69
147
221
290
364
440
495
516
520
544
610
221
290
364
440
495
516
520
544
610
703
786
835
855
865
873
887
919
975
703
786
835
855
865
873
887
919
975
1039
1079
1074
1040
1013
1013
1030
1046
1056
1039
1079
1074
1040
1013
1013
1030
1046
1056
1070
1085
1088
1068
1039
1023
1030
1044
1051
1070
1085
1088
1068
1039
1023
1030
1044
1051
1046
1033
1013
982
951
933
935
949
960
1046
1033
1013
982
951
933
935
949
960
962
954
931
885
827
792
803
850
882
962
954
931
885
827
792
803
850
882
864
801
734
700
701
724
751
770
772
864
801
734
700
701
724
751
770
772
752
721
704
719
760
808
843
851
835
752
721
704
719
760
808
843
851
835
806
775
755
751
762
782
802
807
787
750
721
722
747
778
801
808
796
762
806
775
755
751
762
782
802
807
787
750
721
722
747
778
801
808
796
762
713
673
670
708
751
761
724
656
597
713
673
670
708
751
761
724
656
597
577
600
645
675
668
630
589
562
545
577
600
645
675
668
630
589
562
545
523
499
491
511
539
549
539
537
565
523
499
491
511
539
549
539
537
565
622
684
732
767
795
809
791
748
714
622
684
732
767
795
809
791
748
714
721
769
814
817
785
761
770
791
792
721
769
814
817
785
761
770
791
792
776
779
817
854
841
776
719
714
744
776
779
817
854
841
776
719
714
744
755
729
698
692
699
693
692
748
884
755
729
698
692
699
693
692
748
884
1050
1157
1153
1048
885
712
577
525
565
1050
1157
1153
1048
885
712
577
525
565
653
733
790
875
1044
1299
1574
1791
1896
1874
1751
1578
1415
1295
1207
1118
1021
938
653
733
790
875
1044
1299
1574
1791
1896
1874
1751
1578
1415
1295
1207
1118
1021
938
886
853
813
763
717
685
649
590
504
886
853
813
763
717
685
649
590
504
414
339
288
253
230
218
210
199
183
414
339
288
253
230
218
210
199
183
162
146
140
142
142
130
105
77
60
162
146
140
142
142
130
105
77
60
58
60
56
53
65
92
114
103
57
58
60
56
53
65
92
114
103
57
4
-22
-7
30
58
62
41
8
-25
4
-22
-7
30
58
62
41
8
-25
-48
-52
-41
-22
-13
-24
-56
-105
-158
-48
-52
-41
-22
-13
-24
-56
-105
-158
-192
-190
-163
-142
-156
-205
-265
-314
-346
-192
-190
-163
-142
-156
-205
-265
-314
-346
-364
-371
-370
-371
-393
-441
-505
-559
-582
-364
-371
-370
-371
-393
-441
-505
-559
-582
-574
-551
-535
-539
-558
-582
-596
-596
-582
-574
-551
-535
-539
-558
-582
-596
-596
-582
-557
-522
-484
-458
-458
-479
-502
-498
-449
-557
-522
-484
-458
-458
-479
-502
-498
-449
117
177
231
270
285
298
343
430
532
-364
-279
-229
-223
-229
-205
-134
-39
48
117
177
231
270
285
298
343
430
532
605
638
649
669
709
761
811
854
882
605
638
649
669
709
761
811
854
882
891
883
867
853
843
836
839
863
902
891
883
867
853
843
836
839
863
902
929
916
864
810
794
819
857
876
863
929
916
864
810
794
819
857
876
863
833
802
786
794
825
873
917
939
927
833
802
786
794
825
873
917
939
927
890
849
823
825
846
864
862
838
807
890
849
823
825
846
864
862
838
807
785
772
762
758
773
808
839
833
786
785
772
762
758
773
808
839
833
786
732
714
742
788
817
821
812
794
766
732
714
742
788
817
821
812
794
766
733
717
731
761
774
753
708
665
641
733
717
731
761
774
753
708
665
641
639
659
692
727
747
744
725
699
675
639
659
692
727
747
744
725
699
675
656
648
656
670
671
643
597
556
545
656
648
656
670
671
643
597
556
545
566
607
643
654
634
594
550
519
506
566
607
643
654
634
594
550
519
506
507
510
499
466
423
392
395
433
492
507
510
499
466
423
392
395
433
492
555
616
668
699
703
687
675
687
721
555
616
668
699
703
687
675
687
721
759
777
763
726
690
679
698
732
754
754
740
722
702
682
673
692
728
745
759
777
763
726
690
679
698
732
754
754
740
722
702
682
673
692
728
745
712
640
569
526
508
507
543
637
773
712
640
569
526
508
507
543
637
773
896
960
970
948
894
791
652
537
494
514
548
584
671
849
1100
1349
1539
1649
896
960
970
948
894
791
652
537
494
514
548
584
671
849
1100
1349
1539
1649
1682
1633
1512
1369
1269
1235
1216
1139
987
1682
1633
1512
1369
1269
1235
1216
1139
987
821
726
729
780
799
744
635
527
450
821
726
729
780
799
744
635
527
450
401
362
331
314
307
286
235
171
125
401
362
331
314
307
286
235
171
125
119
146
181
207
217
206
164
105
55
119
146
181
207
217
206
164
105
55
46
74
114
139
144
136
119
90
55
46
74
114
139
144
136
119
90
55
36
50
87
115
104
60
7
-29
-43
-43
-39
-33
-30
-40
-75
-124
-161
-160
-43
-39
-33
-30
-40
-75
-124
-161
-160
-128
-100
-110
-156
-205
-238
-261
-294
-335
-128
-100
-110
-156
-205
-238
-261
-294
-335
-360
-356
-348
-374
-443
-517
-550
-529
-487
-360
-356
-348
-374
-443
-517
-550
-529
-487
-465
-478
-509
-536
-552
-558
-553
-531
-494
-465
-478
-509
-536
-552
-558
-553
-531
-494
-460
-446
-451
-462
-466
-452
-417
-360
-292
-460
-446
-451
-462
-466
-452
-417
-360
-292
-241
-227
-244
-255
-226
-154
-67
5
53
-241
-227
-244
-255
-226
-154
-67
5
53
93
143
207
276
339
401
474
561
641
690
708
722
761
829
904
967
1014
1051
93
143
207
276
339
401
474
561
641
690
708
722
761
829
904
967
1014
1051
1075
1076
1061
1054
1075
1121
1164
1176
1149
1075
1076
1061
1054
1075
1121
1164
1176
1149
1103
1070
1072
1102
1138
1156
1147
1121
1094
1103
1070
1072
1102
1138
1156
1147
1121
1094
1072
1053
1037
1026
1027
1038
1041
1018
968
1072
1053
1037
1026
1027
1038
1041
1018
968
921
911
943
989
1015
1009
989
966
943
921
911
943
989
1015
1009
989
966
943
919
911
932
973
996
979
934
891
868
865
877
901
921
913
869
812
782
790
919
911
932
973
996
979
934
891
868
865
877
901
921
913
869
812
782
790
813
824
824
824
825
814
788
765
764
813
824
824
824
825
814
788
765
764
787
817
835
835
821
795
768
756
769
787
817
835
835
821
795
768
756
769
805
840
851
824
769
709
674
672
688
805
840
851
824
769
709
674
672
688
701
699
683
658
631
613
614
630
638
701
699
683
658
631
613
614
630
638
619
581
541
505
463
416
399
441
529
619
581
541
505
463
416
399
441
529
602
618
592
580
613
669
706
710
700
602
618
592
580
613
669
706
710
700
699
701
687
655
631
639
677
718
732
699
701
687
655
631
639
677
718
732
712
677
655
654
669
689
712
735
737
712
677
655
654
669
689
712
735
737
693
605
512
468
489
544
594
626
664
693
605
512
468
489
544
594
626
664
732
825
914
970
968
888
729
530
364
732
825
914
970
968
888
729
530
364
291
319
411
535
692
897
1145
1398
1606
1732
1760
1702
1590
1469
1361
1257
1133
986
291
319
411
535
692
897
1145
1398
1606
1732
1760
1702
1590
1469
1361
1257
1133
986
853
783
797
863
920
911
819
677
547
853
783
797
863
920
911
819
677
547
479
471
480
459
398
321
255
211
187
479
471
480
459
398
321
255
211
187
189
220
266
289
268
217
170
152
156
172
197
228
247
233
189
142
124
134
189
220
266
289
268
217
170
152
156
172
197
228
247
233
189
142
124
134
150
153
140
115
84
53
33
31
42
150
153
140
115
84
53
33
31
42
57
64
58
38
8
-17
-24
-16
-14
57
64
58
38
8
-17
-24
-16
-14
-31
-62
-96
-132
-179
-230
-265
-271
-264
-31
-62
-96
-132
-179
-230
-265
-271
-264
-273
-311
-366
-417
-454
-471
-468
-448
-430
-273
-311
-366
-417
-454
-471
-468
-448
-430
-437
-475
-529
-572
-586
-571
-537
-499
-470
-437
-475
-529
-572
-586
-571
-537
-499
-470
-456
-456
-455
-444
-411
-356
-286
-226
-198
-456
-456
-455
-444
-411
-356
-286
-226
-198
-207
-229
-224
-170
-83
-2
49
77
112
-207
-229
-224
-170
-83
-2
49
77
112
164
223
275
325
400
508
621
695
713
164
223
275
325
400
508
621
695
713
702
710
762
838
905
941
949
948
952
702
710
762
838
905
941
949
948
952
969
996
1023
1046
1067
1091
1110
1109
1081
1051
1055
1102
1158
1178
1149
1102
1072
1067
969
996
1023
1046
1067
1091
1110
1109
1081
1051
1055
1102
1158
1178
1149
1102
1072
1067
1070
1067
1060
1061
1064
1051
1014
971
942
1070
1067
1060
1061
1064
1051
1014
971
942
940
955
975
992
1000
987
950
909
894
940
955
975
992
1000
987
950
909
894
916
955
974
953
905
854
816
794
789
916
955
974
953
905
854
816
794
789
807
839
860
850
816
780
766
775
798
807
839
860
850
816
780
766
775
798
825
843
841
807
749
700
693
734
791
825
843
841
807
749
700
693
734
791
822
807
765
734
729
737
738
728
720
822
807
765
734
729
737
738
728
720
716
699
653
593
552
543
545
536
522
716
699
653
593
552
543
545
536
522
941
892
857
846
843
835
830
846
878
900
886
837
778
743
748
787
831
850
830
785
739
713
711
726
748
768
773
750
698
636
593
595
635
682
698
670
616
572
562
586
631
676
706
705
667
608
556
535
541
559
580
607
640
661
656
645
673
760
873
952
968
937
896
864
845
850
891
951
986
956
880
815
812
869
944
994
1000
973
935
911
906
907
896
872
854
858
872
878
884
931
1043
1198
1329
1370
1294
1128
929
766
689
700
763
843
947
1095
1286
1489
1679
1859
2026
2132
2108
1937
1693
1488
1379
1335
1283
1186
1068
981
954
965
962
913
833
769
743
728
676
574
455
360
301
272
269
287
302
280
220
164
159
204
246
237
178
108
64
54
67
86
104
120
135
142
126
83
39
36
86
149
167
125
57
11
-5
-11
-18
-15
5
21
-1
-68
-148
-196
-194
-159
-126
-122
-158
-224
-296
-346
-361
-347
-325
-326
-365
-435
-509
-555
-565
-549
-523
-496
-473
-468
-497
-551
-594
-582
-510
-421
-369
-378
-422
-456
-446
-392
-315
-240
-182
-144
-125
-118
-106
-67
11
124
241
327
368
385
410
464
544
632
710
774
819
841
837
826
835
880
947
1002
1024
1013
982
944
920
932
989
1060
1089
1048
971
922
934
977
1008
1013
1012
1018
1011
972
914
876
879
911
938
938
912
872
831
800
789
803
833
861
864
834
781
735
725
758
817
867
883
859
803
739
698
701
743
789
801
770
719
683
676
687
708
734
760
772
752
699
641
611
625
670
709
713
681
634
598
581
580
592
617
643
643
601
534
482
474
497
518
518
505
484
444
384
337
350
433
539
605
615
603
611
642
682
722
767
810
820
774
692
629
619
654
697
724
735
730
704
665
640
656
709
764
788
772
731
679
627
595
601
645
703
746
766
782
820
883
952
984
943
826
672
544
480
478
515
590
719
901
1107
1292
1433
1531
1589
1601
1567
1509
1448
1380
1282
1145
1000
901
885
932
977
955
853
712
596
542
532
532
520
492
444
368
273
201
198
264
345
375
332
253
188
160
159
171
189
210
225
217
182
133
98
95
119
150
165
151
113
70
43
46
75
110
128
111
62
-1
-53
-73
-58
-26
-3
-7
-41
-94
-146
-178
-186
-177
-171
-184
-224
-283
-349
-407
-437
-427
-389
-360
-377
-439
-512
-561
-578
-575
-556
-516
-467
-446
-477
-536
-564
-526
-444
-373
-342
-336
-329
-319
-309
-286
-227
-131
-34
24
38
36
51
97
171
269
380
476
528
533
524
536
587
658
726
778
810
824
825
823
836
869
912
947
961
955
932
898
869
867
903
963
1011
1020
991
948
910
889
890
916
953
970
943
881
825
810
835
873
898
900
880
835
772
721
713
747
792
812
804
784
765
743
713
693
702
738
772
771
723
648
588
579
628
704
754
738
667
589
557
583
635
671
676
660
638
609
569
527
509
532
583
620
609
554
496
474
493
530
559
570
557
516
451
382
340
339
366
389
397
396
399
410
429
466
535
626
708
743
722
667
614
592
601
628
653
656
630
583
535
512
531
586
650
686
675
636
611
627
674
712
720
711
710
720
722
714
731
810
948
1089
1177
1188
1133
1019
858
694
598
614
712
813
874
932
1060
1292
1578
1827
1966
1971
1862
1687
1501
1355
1260
1196
1131
1054
981
934
913
900
871
820
760
708
659
593
496
387
307
286
314
349
356
334
306
291
291
299
313
333
349
338
295
236
193
189
220
260
288
299
289
257
213
184
195
242
284
283
235
166
105
62
36
34
58
90
91
47
-22
-74
-84
-66
-48
-46
-55
-74
-110
-168
-230
-265
-255
-220
-207
-248
-334
-429
-492
-513
-505
-490
-484
-495
-521
-550
-563
-555
-532
-503
-469
-425
-387
-380
-415
-466
-484
-441
-353
-269
-219
-205
-200
-176
-119
-26
95
219
1052
1046
1017
990
995
1040
1092
1111
1089
1054
1029
1014
999
996
1023
1076
1108
1078
1003
938
932
974
1017
1028
1011
987
956
910
863
847
879
933
964
948
902
854
819
799
800
833
883
913
891
830
780
775
800
823
827
824
816
787
731
674
657
692
752
794
800
775
728
671
633
639
685
728
727
684
634
598
576
565
577
617
656
660
620
565
519
484
455
443
461
488
474
403
322
306
381
500
596
646
669
693
720
743
766
805
864
920
943
919
863
811
794
825
881
926
935
908
873
856
861
877
892
899
895
871
825
770
724
705
725
796
914
1046
1138
1154
1109
1048
988
910
792
662
575
564
612
695
819
1016
1293
1600
1854
1989
1994
1904
1778
1665
1586
1524
1447
1332
1187
1048
961
950
996
1040
1017
910
761
629
548
508
493
490
489
468
410
328
263
248
276
316
342
344
323
282
231
196
201
243
299
336
333
292
235
190
173
182
198
208
210
203
173
114
47
10
26
70
92
65
5
-55
-101
-139
-167
-170
-145
-124
-144
-214
-296
-346
-342
-303
-264
-255
-288
-360
-445
-509
-528
-507
-478
-473
-495
-528
-558
-586
-608
-604
-559
-488
-438
-444
-491
-531
-531
-495
-451
-413
-374
-336
-317
-325
-332
-290
-183
-44
72
142
185
231
286
339
390
454
540
626
679
685
675
690
751
836
909
954
981
1000
1010
1003
987
988
1024
1084
1132
1135
1091
1031
990
989
1021
1063
1093
1098
1073
1026
979
958
974
1016
1057
1072
1053
1005
946
900
890
922
973
1005
990
935
870
831
832
861
896
915
904
865
811
762
739
750
788
833
866
872
846
797
746
721
733
769
794
779
723
650
599
595
635
692
735
743
720
677
631
601
602
633
677
706
705
684
665
664
687
730
782
818
815
766
694
631
595
583
593
628
683
731
745
730
729
776
864
950
999
1005
981
937
885
849
859
915
978
999
967
915
888
909
965
1029
1078
1100
1091
1059
1017
972
929
896
885
901
928
948
963
998
1076
1187
1289
1335
1296
1169
978
781
650
634
727
883
1053
1213
1365
1525
1706
1890
2023
2050
1960
1805
1654
1533
1417
1284
1162
1097
1101
1131
1135
1095
1023
932
831
736
673
648
632
578
472
348
263
246
290
356
403
411
380
330
287
269
280
304
317
303
263
213
178
170
182
197
202
194
175
146
106
64
38
48
86
117
109
62
4
-32
-36
-17
17
51
60
18
-75
-175
-229
-217
-171
-141
-156
-204
-258
-299
-317
-319
-314
-314
-321
-339
-380
-447
-525
-575
-569
-516
-463
-448
-473
-508
-526
-521
-498
-455
-395
-335
-304
-312
-340
-349
-317
-249
-172
-113
-77
-55
-30
10
70
152
252
355
443
504
541
565
585
615
667
749
849
933
964
942
903
897
943
1017
1078
1100
1087
1056
1025
1009
1026
1080
1151
1195
1175
1100
1019
980
988
1017
1042
1056
1063
1057
1025
977
944
956
1003
1043
1039
994
938
892
858
832
822
836
856
849
801
734
694
699
736
777
808
824
822
796
753
722
725
763
811
845
857
852
832
804
781
785
822
870
892
870
816
769
759
788
829
858
858
830
784
733
688
663
667
695
732
752
740
699
658
649
679
722
743
725
674
612
555
518
518
566
645
724
770
780
774
778
806
854
905
938
939
910
866
830
814
823
854
897
935
942
909
852
807
799
829
879
921
926
877
789
712
694
739
807
862
906
967
1055
1135
1173
1166
1130
1068
966
830
699
625
628
700
825
998
1207
1425
1609
1731
1779
1758
1687
1600
1526
1465
1387
1266
1114
981
913
915
950
968
923
804
636
479
390
381
412
425
386
312
238
191
177
189
219
258
288
287
242
166
95
65
93
154
204
212
182
140
107
92
92
106
129
144
131
82
17
-30
-40
-18
17
46
51
26
-26
-82
-115
-114
-89
-62
-55
-74
-119
-176
-223
-237
-221
-200
-206
-246
-305
-364
-414
-449
-461
-441
-404
-384
-409
-474
-545
-581
-565
-512
-455
-423
-426
-454
-489
-507
-495
-448
-380
-322
-303
-319
-338
-321
-259
-179
-107
-42
27
96
143
157
168
222
338
480
582
612
597
591
625
688
749
794
841
899
951
964
935
903
919
993
1082
1134
1124
1074
1018
987
992
1028
1072
1086
1051
982
916
882
877
886
900
918
932
924
889
846
827
842
875
907
933
956
967
951
913
887
903
957
1010
1020
985
932
891
873
875
896
926
950
944
903
848
814
819
850
881
898
898
880
840
787
754
767
822
876
892
870
841
829
828
826
833
863
905
917
864
766
686
671
711
757
778
777
769
752
720
685
679
718
771
785
732
637
553
510
506
521
549
589
635
663
659
637
632
673
749
818
842
816
769
731
721
738
777
827
873
894
874
822
772
757
787
838
878
886
867
835
797
761
740
749
782
808
800
771
766
826
944
1070
1155
1178
1126
996
807
614
496
494
585
709
825
938
1076
1248
1437
1607
1719
1740
1667
1535
1396
1280
1180
1081
993
944
938
947
928
859
761
666
594
550
528
516
495
447
370
292
252
265
307
339
335
304
266
241
226
217
215
222
237
243
224
180
132
115
142
196
233
223
173
121
97
101
114
120
121
115
91
39
-28
-77
-81
-43
8
37
28
-19
-87
-142
-160
-141
-113
-109
-142
-197
-252
-295
-329
-349
-349
-327
-308
-328
-400
-494
-559
-568
-531
-485
-456
-453
-474
-510
-539
-529
-472
-391
-331
-316
-333
-353
-359
-349
-316
-251
-161
-79
-33
-19
0
52
134
221
300
372
432
467
470
465
493
572
678
771
831
858
869
876
893
937
1009
1084
1132
1143
1138
1135
1138
1140
1148
1177
1222
1253
1246
1207
1164
1140
1139
1162
1205
1246
1248
1190
1099
1036
1038
1085
1128
1136
1119
1094
1066
1031
1002
1004
1045
1092
1106
1069
1000
935
899
899
924
952
963
947
913
881
861
854
855
865
887
910
911
873
808
755
751
799
862
896
879
825
766
733
734
761
796
819
821
801
770
738
720
727
760
805
830
812
756
691
653
654
678
701
707
692
658
617
585
578
599
634
659
653
605
530
455
414
417
451
491
524
554
585
612
628
640
667
723
793
834
814
741
662
631
663
731
787
802
780
738
696
673
683
727
781
811
801
766
725
686
647
623
635
680
721
731
728
763
861
988
1089
1129
1096
978
776
536
353
303
377
504
627
752
921
1145
1392
1612
1769
1847
1839
1753
1618
1470
1336
1220
1122
1050
1013
1007
1009
993
936
839
730
645
607
604
594
539
436
322
244
225
250
286
309
309
287
245
197
166
170
204
240
248
221
173
133
118
131
162
190
200
188
162
135
112
102
114
150
189
193
143
60
-10
-33
-14
12
21
9
-19
-62
-118
-169
-188
-170
-141
-144
-197
-285
-369
-422
-442
-440
-431
-422
-421
-435
-469
-515
-557
-571
-547
-493
-443
-429
-460
-506
-522
-482
-396
-304
-244
-225
-234
-245
-245
-224
-179
-108
-20
58
101
108
110
151
246
367
472
539
580
616
652
691
741
819
922
1016
1067
1073
1061
1060
1083
1123
1171
1221
1258
1268
1247
1216
1199
1207
1231
1259
1281
1288
1270
1222
1167
1140
1165
1220
1261
1255
1207
1151
1111
1087
1074
1080
1113
1155
1164
1116
1036
981
987
1035
1078
1087
1067
1033
992
950
928
947
998
1047
1060
1034
992
956
939
943
969
1008
1035
1028
990
949
927
921
919
918
931
956
964
926
852
795
804
874
950
974
936
867
807
771
755
755
773
798
811
793
747
699
683
714
772
820
828
791
727
671
649
658
678
692
695
688
666
621
564
529
547
608
665
671
624
564
525
508
490
468
462
491
536
557
541
521
548
639
755
839
861
833
784
739
715
724
762
809
833
822
791
765
759
770
795
830
865
876
849
794
745
725
729
744
754
754
742
730
745
811
930
1068
1174
1209
1151
997
777
562
428
410
475
571
670
793
968
1196
1454
1700
1883
1955
1905
1768
1611
1472
1347
1220
1097
1013
987
998
1002
971
912
847
792
749
717
690
650
580
484
394
355
377
427
454
434
384
329
278
232
201
200
225
241
214
150
97
98
148
201
218
194
157
135
133
142
151
166
195
236
268
265
219
154
112
120
169
219
228
186
113
45
2
-10
6
36
54
32
-30
-101
-142
-138
-109
-83
-75
-93
-142
-217
-285
-314
-300
-277
-274
-290
-303
-307
-324
-362
-395
-383
-324
-259
-233
-253
-287
-298
-271
-211
-134
-54
10
52
71
80
96
137
218
331
442
512
527
514
524
587
692
800
881
924
934
921
907
919
971
1055
1133
1174
1176
1157
1144
1148
1173
1216
1264
1289
1271
1218
1164
1137
1142
1156
1161
1159
1160
1158
1135
1088
1044
1035
1069
1119
1143
1125
1079
1027
983
955
948
963
985
989
960
906
856
834
843
870
895
904
888
845
789
749
745
783
841
884
890
860
811
768
746
756
797
848
876
852
786
724
712
750
804
835
832
809
778
741
706
687
699
732
766
779
766
732
689
657
664
716
785
822
801
740
684
662
670
691
713
732
741
727
692
660
658
686
718
734
731
714
683
633
581
564
606
683
735
722
659
598
573
573
566
545
523
510
490
448
398
381
427
522
621
684
706
704
702
708
727
757
794
823
823
786
726
677
668
700
752
797
821
818
787
740
699
694
736
797
826
785
691
601
561
572
603
639
696
786
884
938
922
859
790
725
644
536
428
366
376
459
606
813
1063
1323
1552
1718
1803
1799
1717
1604
1513
1460
1410
1312
1161
1013
927
921
958
986
968
893
776
648
547
498
496
510
506
469
406
336
287
281
318
369
399
389
346
287
226
178
167
203
266
308
301
257
209
179
163
158
171
206
237
230
176
103
51
42
68
107
131
121
72
7
-37
-37
-8
18
22
6
-21
-66
-127
-183
-201
-171
-129
-123
-170
-246
-311
-346
-361
-365
-357
-334
-317
-339
-410
-493
-535
-513
-457
-417
-418
-447
-478
-493
-487
-454
-392
-319
-267
-258
-283
-315
-323
-295
-235
-158
-78
-11
38
77
119
172
236
312
401
489
550
566
550
549
602
709
822
895
915
906
892
887
895
921
971
1028
1063
1052
1007
967
962
993
1038
1071
1083
1075
1047
1004
960
938
951
985
1014
1018
996
960
925
905
912
949
1001
1032
1018
967
914
889
895
914
929
936
935
915
866
801
757
764
811
858
868
834
783
744
731
741
769
805
837
844
817
767
724
716
749
805
853
869
846
801
760
749
771
808
835
836
814
779
740
708
698
723
773
816
821
783
733
704
705
725
749
773
793
797
776
736
705
707
737
770
780
764
727
681
633
597
591
621
661
674
647
601
567
554
553
558
578
618
648
628
557
488
488
561
644
670
627
560
512
493
492
510
561
642
715
745
734
725
754
817
880
917
930
928
911
872
824
795
805
844
877
881
859
830
807
793
800
842
919
990
998
919
795
703
684
710
729
731
752
822
920
1002
1050
1078
1089
1050
923
730
548
450
453
525
646
824
1062
1328
1570
1747
1852
1894
1874
1799
1693
1582
1474
1351
1206
1068
996
1018
1098
1154
1118
990
828
699
633
614
609
589
540
463
375
305
280
306
360
410
427
404
346
270
199
168
196
265
319
311
241
162
122
125
142
154
163
173
167
128
77
55
79
123
141
117
69
18
-32
-85
-128
-143
-128
-107
-109
-138
-185
-233
-267
-277
-263
-240
-236
-270
-338
-414
-469
-485
-467
-439
-435
-477
-552
-625
-669
-679
-671
-656
-641
-633
-640
-659
-673
-661
-618
-557
-494
-436
-393
-377
-388
-398
-374
-304
-220
-157
-124
-101
-68
-27
19
83
175
285
374
411
403
393
418
484
574
667
746
800
824
831
842
874
926
984
1030
1057
1059
1033
986
943
931
960
1009
1037
1020
969
915
881
881
911
957
999
1012
988
936
882
852
856
888
924
932
891
820
766
766
807
843
844
825
809
791
739
653
577
557
592
627
622
584
553
551
568
589
616
648
667
655
609
554
518
511
529
563
606
644
658
642
611
598
624
680
732
746
716
656
597
562
566
605
659
698
699
662
611
576
572
595
625
642
631
588
531
491
491
528
575
600
596
575
552
532
518
519
544
583
612
605
560
499
453
439
459
498
533
544
525
494
477
492
533
578
600
592
555
503
455
426
425
452
506
574
637
673
682
698
759
864
969
1035
1062
1073
1078
1061
1031
1040
1133
1284
1397
1403
1341
1323
1406
1532
1594
1548
1466
1456
1544
1640
1635
1524
1412
1404
1499
1592
1603
1552
1530
1595
1720
1838
1897
1866
1725
1494
1257
1110
1067
1056
1025
1051
1261
1662
2088
2358
2458
2510
2591
2633
2532
2295
2038
1840
1667
1465
1280
1229
1343
1494
1512
1364
1198
1170
1269
1335
1233
1004
806
731
701
581
346
119
33
92
175
194
169
171
217
251
232
191
190
227
234
158
44
-6
38
94
55
-63
-135
-74
59
138
135
158
290
456
481
292
-5
-252
-387
-443
-477
-502
-506
-476
-395
-256
-109
-35
-66
-153
-230
-309
-451
-655
-816
-826
-701
-559
-496
-513
-576
-673
-808
-944
-1024
-1033
-1013
-1003
-1009
-1005
-968
-869
-671
-379
-92
45
-10
-127
-141
-45
-11
-193
-522
-756
-745
-607
-592
-792
-1022
-1024
-740
-376
-182
-199
-254
-180
12
157
142
33
5
147
400
667
924
1203
1503
1764
1900
1876
1728
1545
1429
1412
1420
1342
1161
1007
1017
1122
1089
783
357
104
112
208
197
101
88
208
309
250
95
26
96
154
48
-138
-154
130
551
813
807
710
727
818
741
374
-48
-156
111
405
349
-34
-369
-383
-189
-108
-284
-552
-672
-580
-402
-284
-266
-270
-181
53
345
528
522
445
504
745
939
827
421
14
-131
-45
12
-135
-379
-467
-280
48
276
270
106
-49
-109
-128
-189
-312
-454
-574
-665
-717
-680
-515
-287
-129
-98
-104
-27
110
176
129
121
296
540
535
125
-451
-785
-758
-669
-836
-1155
-1232
-897
-438
-257
-365
-376
-55
320
270
-296
-952
-1221
-1088
-926
-991
-1165
-1184
-1026
-892
-891
-865
-629
-253
-48
-200
-512
-594
-298
106
240
21
-250
-219
147
538
637
408
86
-114
-218
-370
-624
-887
-1052
-1111
-1078
-880
-428
159
548
493
112
-221
-286
-233
-342
-636
-876
-875
-724
-641
-701
-785
-774
-702
-676
-739
-793
-710
-435
13
549
1012
1270
1344
1389
1508
1556
1265
590
-141
-490
-319
91
361
372
286
292
375
369
145
-288
-816
-1307
-1675
-1867
-1826
-1516
-990
-439
-111
-124
-364
-584
-679
-773
-1006
-1282
-1323
-980
-433
-18
89
-38
-255
-526
-886
-1313
-1698
-1935
-1938
-1647
-1048
-245
514
964
997
696
244
-229
-708
-1233
-1766
-2140
-2141
-1707
-1033
-440
-134
-94
-196
-377
-664
-1070
-1526
-1908
-2112
-2100
-1905
-1599
-1290
-1084
-1010
-1015
-1040
-1083
-1160
-1274
-1383
-1435
-1406
-1299
-1160
-1050
-983
-888
-692
-454
-371
-555
-878
-1052
-912
-581
-350
-379
-552
-647
-564
-370
-178
1
216
463
651
688
593
482
454
476
419
202
-110
-328
-298
-39
261
404
351
255
312
552
813
882
708
452
326
409
602
746
778
780
872
1073
1295
1401
1314
1095
915
921
1102
1280
1293
1170
1104
1244
1508
1655
1521
1185
877
751
798
903
950
866
629
304
27
-80
-13
114
201
251
311
368
379
369
436
625
805
765
466
144
152
635
1389
2022
2273
2200
2056
2026
2053
1934
1539
924
273
-252
-574
-682
-614
-473
-405
-479
-601
-594
-369
-40
191
226
143
88
152
318
534
760
926
978
947
929
988
1050
1002
832
675
662
764
872
963
1096
1292
1470
1546
1514
1390
1126
726
399
428
824
1199
1134
679
301
328
551
474
-61
-672
-881
-643
-336
-275
-360
-283
41
378
464
310
190
353
772
1227
1560
1780
1950
2043
1941
1604
1188
928
906
972
902
643
375
310
446
576
473
91
-396
-756
-846
-694
-461
-290
-200
-80
194
633
1143
1629
2041
2330
2401
2177
1735
1300
1027
833
507
-39
-596
-833
-571
75
816
1383
1640
1639
1557
1571
1723
1883
1847
1541
1120
859
960
1363
1766
1860
1578
1136
825
751
809
867
911
955
903
631
224
-6
158
512
575
120
-520
-814
-608
-284
-298
-686
-1084
-1158
-927
-613
-340
-75
172
265
112
-175
-342
-238
70
392
595
659
661
719
906
1144
1204
900
318
-197
-352
-201
-54
-113
-276
-340
-307
-386
-706
-1147
-1482
-1630
-1674
-1673
-1556
-1256
-856
-535
-400
-403
-436
-470
-532
-630
-744
-844
-889
-807
-544
-165
125
132
-139
-495
-743
-852
-924
-1031
-1123
-1102
-948
-752
-622
-587
-578
-502
-330
-133
-11
0
-39
-30
72
214
316
364
421
530
658
726
703
662
715
906
1136
1237
1106
819
585
573
743
882
800
527
294
308
545
794
880
820
770
825
921
939
860
790
821
929
1011
1009
972
984
1055
1108
1088
1025
977
955
932
902
899
930
946
937
999
1234
1558
1719
1551
1197
982
1049
1198
1139
832
515
416
517
651
717
756
827
906
938
926
920
937
949
933
910
918
953
984
992
987
979
974
979
998
1025
1046
1058
1071
1092
1113
1133
1149
1155
1147
1115
1078
1064
1078
1085
1053
1008
1023
1135
1282
1357
1332
1296
1354
1488
1563
1471
1256
1064
992
1005
1013
990
987
1046
1137
1191
1175
1117
1069
1057
1075
1097
1096
1076
1068
1106
1201
1316
