333
321
289
273
299
353
389
382
359
359
392
418
405
362
333
342
370
383
373
363
374
399
409
391
360
341
348
370
388
391
384
388
413
453
484
499
511
541
588
626
637
635
655
707
765
796
800
802
819
836
825
786
750
747
768
773
731
655
587
562
581
617
650
678
715
775
862
962
1050
1103
1116
1096
1059
1014
965
911
862
826
801
784
771
760
750
735
706
661
606
552
506
472
450
436
423
403
371
327
277
230
185
142
108
97
113
137
153
160
168
175
160
114
60
34
48
70
67
37
1
-22
-25
-14
8
34
52
54
53
70
112
167
217
244
231
175
104
65
73
95
88
42
-8
-25
-2
38
76
92
70
25
23
143
389
659
827
862
855
914
1039
1119
1042
795
472
197
38
-32
-107
-265
-491
-690
-760
-697
-598
-571
-624
-676
-651
-559
-463
-402
-360
-307
-251
-231
-258
-296
-299
-236
-96
114
362
584
727
810
903
1030
1099
985
691
371
185
114
-19
-350
-812
-1202
-1371
-1354
-1295
-1285
-1282
-1182
-941
-611
-288
-12
239
489
705
826
832
786
770
803
835
817
765
744
789
865
905
876
809
762
769
817
858
845
776
693
653
669
706
709
666
613
586
589
599
612
657
761
896
1001
1059
1120
1247
1416
1511
1444
1252
1066
969
909
775
535
283
127
77
50
-17
-101
-124
-55
66
172
237
281
332
391
448
487
502
490
452
411
392
400
420
442
485
575
699
801
827
784
738
748
804
830
762
619
486
445
497
579
628
639
654
703
757
764
710
634
588
579
574
553
538
565
636
713
758
767
758
734
676
571
431
283
135
-21
-181
-317
-395
-417
-419
-438
-470
-475
-430
-362
-325
-335
-355
-347
-331
-362
-452
-539
-545
-464
-360
-290
-237
-144
1
152
262
330
372
388
354
274
186
120
71
28
6
24
61
65
14
-35
-17
66
140
150
124
132
194
256
266
246
250
282
268
157
-6
-111
-98
-17
41
43
21
24
73
179
337
507
618
629
591
603
687
751
691
521
361
301
304
279
220
236
428
760
1079
1246
1272
1284
1373
1488
1486
1295
999
742
566
362
13
-446
-849
-1078
-1181
-1296
-1456
-1545
-1441
-1157
-816
-517
-270
-34
202
422
619
794
924
959
894
804
775
827
925
1030
1098
1055
847
552
376
444
626
649
419
157
152
417
669
671
501
412
503
610
535
304
120
111
200
228
153
98
192
416
615
649
534
404
369
421
457
406
300
241
295
427
551
594
559
505
488
525
582
615
611
592
583
579
548
483
414
384
401
428
428
406
409
475
585
685
738
749
743
724
689
657
663
720
790
813
775
721
703
716
700
610
463
331
268
260
258
231
199
192
210
227
218
193
174
168
155
116
60
20
17
33
33
-6
-65
-104
-97
-54
-4
26
26
1
-25
-23
22
83
107
62
-27
-89
-95
-66
-40
-28
-9
33
96
181
285
377
397
312
168
61
36
40
-17
-144
-253
-257
-145
19
173
297
379
391
322
212
130
96
59
-55
-233
-379
-411
-348
-272
-217
-153
-60
4
-21
-100
-116
-10
123
140
32
-52
26
224
359
302
108
-48
-59
34
104
67
-63
-200
-243
-143
53
223
266
213
213
393
702
944
991
919
899
976
1010
867
602
400
332
256
-21
-498
-979
-1289
-1441
-1562
-1709
-1800
-1729
-1486
-1155
-815
-492
-195
49
209
272
260
207
142
90
68
70
85
104
142
211
283
291
200
52
-62
-78
-13
76
152
219
287
348
390
421
451
460
406
278
129
22
-16
-14
-4
13
61
141
223
267
261
237
237
277
335
370
372
372
400
459
514
540
539
527
504
478
484
555
669
751
737
654
589
585
599
575
525
512
561
630
675
720
814
945
1026
989
857
729
676
694
734
768
798
838
884
921
929
896
824
736
656
598
556
511
458
402
350
294
218
129
50
2
-19
-47
-104
-182
-250
-277
-249
-177
-107
-89
-142
-231
-304
-346
-393
-471
-548
-569
-529
-499
-539
-612
-629
-557
-461
-427
-473
-532
-544
-512
-490
-521
-593
-651
-654
-600
-532
-504
-520
-561
-604
-632
-634
-602
-561
-569
-666
-804
-871
-797
-639
-526
-528
-586
-586
-476
-310
-199
-224
-375
-561
-678
-684
-630
-603
-638
-683
-665
-576
-484
-452
-473
-486
-466
-464
-531
-627
-652
-568
-453
-420
-470
-495
-426
-325
-303
-360
-390
-349
-325
-417
-564
-607
-495
-336
-236
-156
14
261
445
501
533
663
825
814
531
126
-177
-334
-509
-853
-1311
-1696
-1884
-1906
-1874
-1840
-1761
-1573
-1274
-927
-608
-366
-215
-142
-111
-92
-84
-128
-264
-453
-591
-604
-522
-445
-417
-394
-338
-301
-351
-463
-514
-424
-262
-173
-216
-306
-323
-245
-147
-105
-142
-232
-332
-395
-376
-275
-157
-99
-121
-167
-181
-167
-187
-295
-454
-563
-533
-366
-153
-5
31
-12
-67
-96
-105
-129
-198
-319
-458
-534
-461
-223
94
360
505
558
597
666
735
748
677
542
400
310
296
338
378
391
387
391
404
404
398
416
463
479
402
235
61
-36
-61
-88
-184
-343
-492
-556
-531
-500
-563
-739
-944
-1076
-1118
-1143
-1205
-1261
-1243
-1165
-1131
-1199
-1288
-1276
-1156
-1053
-1069
-1144
-1144
-1045
-963
-1011
-1160
-1296
-1386
-1530
-1816
-2171
-2422
-2487
-2456
-2468
-2524
-2499
-2300
-2004
-1787
-1751
-1848
-1952
-1990
-1983
-1986
-2019
-2051
-2032
-1954
-1864
-1822
-1828
-1802
-1684
-1538
-1515
-1672
-1858
-1850
-1606
-1331
-1262
-1416
-1578
-1553
-1371
-1224
-1244
-1379
-1500
-1562
-1623
-1726
-1832
-1863
-1800
-1721
-1724
-1813
-1882
-1836
-1685
-1538
-1478
-1485
-1476
-1420
-1374
-1400
-1478
-1541
-1566
-1604
-1700
-1832
-1937
-1988
-1991
-1925
-1749
-1476
-1194
-995
-872
-741
-566
-423
-408
-521
-682
-848
-1072
-1422
-1875
-2319
-2674
-2953
-3205
-3419
-3522
-3457
-3240
-2941
-2621
-2305
-2015
-1783
-1636
-1558
-1504
-1456
-1438
-1483
-1582
-1673
-1693
-1624
-1511
-1430
-1430
-1507
-1613
-1682
-1677
-1614
-1546
-1505
-1481
-1446
-1398
-1363
-1355
-1356
-1337
-1305
-1304
-1349
-1397
-1393
-1340
-1301
-1328
-1389
-1399
-1334
-1271
-1300
-1397
-1441
-1355
-1205
-1134
-1191
-1271
-1247
-1130
-1043
-1068
-1147
-1173
-1130
-1106
-1160
-1241
-1254
-1186
-1110
-1084
-1085
-1055
-986
-930
-926
-945
-938
-904
-895
-945
-1021
-1053
-1012
-935
-879
-862
-858
-841
-826
-854
-938
-1037
-1102
-1118
-1123
-1159
-1220
-1257
-1234
-1171
-1130
-1147
-1198
-1233
-1241
-1255
-1302
-1355
-1365
-1332
-1314
-1361
-1454
-1531
-1556
-1561
-1599
-1682
-1767
-1801
-1763
-1674
-1567
-1475
-1415
-1386
-1374
-1367
-1377
-1427
-1522
-1620
-1652
-1576
-1416
-1248
-1139
-1101
-1084
-1051
-1022
-1054
-1164
-1295
-1362
-1347
-1312
-1319
-1358
-1370
-1331
-1288
-1301
-1359
-1404
-1405
-1397
-1405
-1389
-1281
-1089
-929
-905
-986
-1056
-1058
-1062
-1168
-1354
-1485
-1469
-1359
-1278
-1272
-1278
-1236
-1163
-1122
-1127
-1136
-1107
-1061
-1040
-1049
-1059
-1054
-1048
-1064
-1110
-1171
-1235
-1278
-1284
-1258
-1234
-1246
-1285
-1301
-1255
-1151
-1017
-873
-717
-567
-451
-377
-314
-227
-131
-77
-102
-192
-306
-442
-641
-926
-1270
-1605
-1883
-2100
-2268
-2381
-2414
-2351
-2207
-2010
-1783
-1538
-1298
-1101
-984
-948
-961
-981
-990
-988
-982
-965
-931
-899
-892
-911
-929
-921
-901
-902
-927
-929
-851
-697
-546
-464
-452
-442
-392
-335
-339
-427
-539
-598
-593
-583
-629
-721
-784
-763
-681
-612
-604
-635
-652
-636
-619
-643
-705
-766
-791
-783
-771
-771
-761
-712
-618
-509
-419
-357
-305
-253
-219
-235
-310
-416
-513
-572
-592
-575
-524
-450
-374
-311
-251
-181
-114
-83
-105
-151
-188
-208
-229
-267
-310
-332
-331
-318
-305
-287
-257
-225
-203
-193
-179
-155
-132
-139
-196
-294
-392
-444
-434
-398
-395
-448
-519
-542
-489
-403
-347
-340
-361
-394
-453
-549
-649
-700
-697
-703
-773
-889
-982
-1002
-962
-902
-849
-810
-795
-815
-844
-835
-772
-694
-644
-623
-602
-577
-582
-638
-719
-782
-830
-898
-1008
-1133
-1232
-1282
-1282
-1228
-1124
-1003
-907
-851
-812
-776
-765
-815
-920
-1035
-1128
-1206
-1288
-1358
-1378
-1335
-1255
-1180
-1131
-1104
-1096
-1113
-1153
-1200
-1234
-1247
-1241
-1218
-1176
-1121
-1075
-1051
-1042
-1031
-1023
-1056
-1154
-1283
-1356
-1316
-1186
-1037
-895
-718
-459
-152
107
275
405
560
704
730
594
380
210
91
-82
-394
-790
-1138
-1364
-1508
-1636
-1740
-1753
-1642
-1458
-1275
-1112
-932
-727
-554
-488
-540
-645
-719
-728
-705
-693
-702
-705
-666
-579
-475
-400
-373
-369
-348
-306
-281
-311
-383
-448
-481
-514
-586
-671
-705
-665
-607
-596
-618
-584
-444
-262
-158
-194
-312
-398
-379
-290
-235
-285
-405
-476
-418
-278
-178
-198
-313
-444
-544
-611
-648
-643
-615
-613
-663
-728
-746
-684
-564
-444
-389
-441
-577
-691
-666
-509
-394
-494
-784
-1038
-1069
-919
-779
-769
-833
-848
-773
-655
-545
-469
-450
-516
-639
-736
-753
-732
-757
-845
-931
-955
-944
-956
-988
-979
-907
-840
-842
-893
-924
-921
-956
-1092
-1286
-1441
-1519
-1570
-1644
-1701
-1652
-1485
-1294
-1184
-1168
-1174
-1143
-1093
-1086
-1157
-1270
-1356
-1363
-1296
-1205
-1151
-1162
-1222
-1277
-1277
-1217
-1134
-1065
-1009
-942
-848
-767
-774
-881
-1004
-1039
-987
-959
-1026
-1105
-1048
-840
-647
-631
-743
-794
-692
-574
-624
-842
-1044
-1078
-993
-932
-951
-982
-962
-918
-909
-930
-928
-886
-842
-829
-823
-786
-720
-660
-619
-579
-537
-526
-571
-650
-720
-754
-765
-769
-758
-707
-587
-387
-123
152
367
507
643
855
1109
1262
1194
953
710
563
451
251
-68
-431
-766
-1059
-1301
-1430
-1395
-1250
-1123
-1079
-1038
-885
-620
-372
-254
-241
-239
-205
-192
-244
-316
-322
-243
-152
-125
-158
-186
-169
-126
-92
-74
-59
-45
-48
-74
-111
-136
-137
-113
-72
-44
-52
-76
-53
46
150
146
17
-116
-114
20
138
132
63
85
254
459
557
520
446
431
467
485
445
376
328
323
336
340
332
329
353
407
474
523
546
565
599
649
688
703
709
716
708
656
568
501
513
601
700
757
782
822
899
974
1000
982
966
978
984
953
907
911
986
1062
1058
986
935
960
992
929
783
691
749
879
910
793
681
737
924
1026
911
683
560
613
703
680
567
498
539
601
576
478
415
435
473
449
374
334
380
478
571
637
679
694
667
601
528
477
449
427
393
335
263
210
206
251
312
357
398
465
559
635
654
626
592
567
536
487
429
375
314
244
188
182
234
302
334
314
263
215
196
206
217
191
111
13
-54
-74
-76
-79
-60
14
130
223
251
236
230
240
222
145
54
37
139
322
516
709
949
1268
1595
1784
1739
1500
1209
962
723
386
-90
-618
-1062
-1340
-1473
-1513
-1491
-1411
-1284
-1129
-956
-767
-576
-420
-339
-332
-362
-393
-417
-440
-459
-449
-384
-274
-172
-126
-130
-114
-25
108
199
198
153
152
219
293
311
283
261
266
264
215
147
113
121
126
88
34
27
84
146
138
42
-77
-135
-106
-37
15
34
49
99
188
288
369
414
430
441
463
496
517
513
497
509
567
644
689
679
649
672
773
905
990
1004
994
1029
1122
1221
1272
1271
1244
1210
1163
1121
1134
1235
1384
1472
1421
1271
1152
1162
1263
1324
1262
1134
1075
1144
1248
1252
1133
1015
1011
1072
1040
849
640
611
802
1032
1077
900
674
586
653
737
699
548
413
393
461
517
499
444
421
426
399
298
159
60
53
131
252
362
410
376
297
249
282
356
385
332
253
239
322
444
525
539
505
433
317
172
51
10
41
76
72
61
121
279
464
567
548
469
413
398
386
339
265
203
171
167
176
182
176
166
188
270
374
414
346
237
213
315
446
478
385
271
245
309
375
385
386
480
698
959
1150
1235
1291
1420
1624
1796
1823
1689
1488
1315
1172
982
691
336
15
-219
-401
-600
-821
-975
-943
-707
-382
-122
19
119
278
488
628
571
300
-79
-423
-631
-677
-583
-387
-122
201
561
905
1164
1297
1314
1246
1113
914
674
462
347
343
398
449
474
492
523
559
563
513
420
315
236
201
191
176
142
105
83
69
48
15
-11
-9
22
61
83
74
29
-35
-84
-91
-66
-48
-45
-15
78
207
289
277
224
198
201
164
55
-58
-90
-44
3
-3
-26
6
100
196
240
247
252
257
227
138
7
-134
-252
-330
-362
-367
-386
-448
-534
-593
-585
-529
-489
-514
-603
-708
-779
-802
-796
-791
-800
-822
-845
-854
-840
-799
-753
-731
-751
-787
-793
-760
-730
-742
-780
-783
-735
-695
-728
-823
-888
-862
-786
-756
-804
-863
-850
-761
-665
-629
-653
-703
-750
-790
-832
-877
-926
-979
-1028
-1049
-1016
-932
-839
-784
-768
-748
-687
-601
-558
-606
-719
-817
-849
-843
-865
-935
-1008
-1025
-984
-936
-924
-947
-978
-1004
-1036
-1083
-1128
-1143
-1118
-1072
-1034
-1006
-974
-930
-892
-888
-913
-930
-915
-887
-892
-934
-952
-873
-684
-450
-261
-154
-97
-37
52
156
247
310
338
320
246
119
-57
-285
-578
-926
-1281
-1576
-1773
-1890
-1961
-1978
-1894
-1680
-1371
-1057
-816
-670
-590
-534
-481
-444
-447
-506
-595
-655
-641
-568
-518
-555
-660
-747
-752
-695
-639
-620
-612
-583
-537
-500
-484
-468
-451
-469
-552
-672
-750
-746
-708
-719
-801
-888
-899
-822
-723
-663
-649
-646
-622
-581
-550
-550
-575
-599
-597
-574
-556
-555
-551
-513
-444
-397
-420
-503
-586
-632
-669
-744
-859
-968
-1018
-973
-804
-519
-201
23
64
-31
-113
-81
12
10
-186
-520
-824
-942
-816
-524
-239
-108
-139
-205
-169
-34
67
20
-162
-391
-586
-693
-629
-331
123
497
581
396
156
16
-90
-334
-758
-1226
-1587
-1801
-1914
-1938
-1830
-1594
-1338
-1173
-1112
-1072
-990
-912
-938
-1109
-1349
-1510
-1479
-1273
-1040
-937
-978
-993
-798
-410
-69
3
-164
-319
-258
-45
62
-85
-361
-525
-505
-431
-403
-338
-127
104
52
-364
-773
-694
-118
425
469
160
82
517
1058
1089
494
-275
-735
-853
-965
-1338
-1903
-2352
-2422
-2068
-1513
-1113
-1058
-1181
-1109
-662
-76
283
352
424
735
1127
1232
910
390
-39
-351
-742
-1303
-1835
-2032
-1824
-1432
-1105
-888
-672
-433
-299
-341
-460
-513
-520
-620
-837
-969
-830
-562
-538
-937
-1471
-1677
-1457
-1198
-1291
-1643
-1747
-1239
-286
668
1449
2309
3520
4874
5748
5668
4745
3479
2191
788
-939
-2896
-4603
-5609
-5897
-5817
-5656
-5351
-4668
-3621
-2609
-2029
-1820
-1526
-861
-96
259
97
-139
2
392
488
49
-524
-688
-369
134
682
1513
2809
4258
5220
5304
4615
3487
2114
543
-1117
-2606
-3704
-4330
-4473
-4159
-3512
-2756
-2083
-1520
-998
-552
-333
-408
-620
-773
-817
-822
-770
-541
-136
221
334
278
343
687
1128
1377
1360
1234
1124
931
421
-518
-1714
-2777
-3350
-3351
-3003
-2601
-2239
-1770
-1086
-344
141
220
16
-287
-650
-1097
-1508
-1672
-1536
-1328
-1257
-1258
-1102
-757
-484
-554
-910
-1260
-1428
-1476
-1512
-1514
-1422
-1304
-1329
-1529
-1722
-1704
-1497
-1320
-1330
-1469
-1563
-1520
-1410
-1359
-1421
-1551
-1651
-1644
-1544
-1450
-1453
-1518
-1519
-1385
-1196
-1110
-1166
-1220
-1115
-889
-729
-758
-914
-1043
-1068
-1037
-1027
-1052
-1096
-1162
-1244
-1301
-1303
-1265
-1222
-1168
-1073
-981
-1020
-1249
-1542
-1721
-1773
-1853
-2075
-2346
-2451
-2274
-1898
-1494
-1180
-958
-758
-496
-145
178
263
45
-274
-384
-176
147
327
346
365
448
466
264
-122
-501
-729
-823
-874
-936
-990
-952
-720
-290
156
318
55
-428
-757
-787
-757
-970
-1410
-1757
-1788
-1625
-1547
-1604
-1586
-1345
-1068
-1046
-1287
-1492
-1423
-1164
-1004
-1115
-1467
-2018
-2753
-3509
-3903
-3657
-2964
-2364
-2162
-2070
-1572
-586
374
732
409
-188
-653
-914
-1112
-1321
-1480
-1537
-1532
-1516
-1476
-1365
-1208
-1106
-1143
-1313
-1527
-1665
-1660
-1532
-1362
-1229
-1160
-1149
-1193
-1290
-1423
-1550
-1633
-1657
-1633
-1581
-1539
-1541
-1568
-1556
-1463
-1329
-1242
-1241
-1251
-1186
-1060
-967
-955
-971
-933
-833
-733
-669
-624
-579
-550
-545
-523
-442
-331
-275
-320
-408
-451
-438
-441
-501
-575
-602
-587
-576
-564
-482
-291
-79
6
-84
-236
-297
-242
-194
-269
-431
-535
-491
-347
-225
-176
-160
-127
-97
-131
-233
-330
-358
-326
-298
-309
-328
-308
-252
-205
-212
-280
-373
-445
-470
-468
-484
-548
-636
-692
-687
-649
-617
-579
-497
-385
-317
-335
-385
-376
-310
-294
-408
-587
-676
-591
-406
-274
-263
-290
-242
-104
25
49
-24
-108
-152
-176
-208
-222
-201
-196
-292
-472
-585
-515
-343
-279
-408
-584
-602
-437
-258
-228
-341
-466
-529
-576
-669
-763
-737
-538
-275
-127
-138
-149
48
468
878
1027
892
671
531
436
250
-53
-383
-680
-993
-1344
-1598
-1574
-1276
-933
-765
-760
-730
-551
-315
-220
-348
-569
-688
-623
-455
-323
-287
-287
-244
-148
-68
-58
-105
-159
-209
-281
-369
-419
-392
-330
-311
-355
-390
-340
-220
-129
-150
-268
-388
-419
-356
-269
-241
-298
-375
-377
-279
-165
-164
-284
-388
-339
-142
57
126
68
-7
-1
97
229
321
314
199
30
-73
-22
167
371
493
523
510
487
456
432
407
320
107
-181
-351
-251
43
273
269
132
90
211
338
309
170
98
162
258
259
166
83
60
61
22
-81
-236
-416
-560
-602
-538
-450
-429
-464
-462
-389
-325
-368
-501
-621
-663
-598
-674
-653
-614
-610
-650
-666
-599
-484
-436
-508
-607
-577
-385
-167
-84
-150
-222
-179
-56
7
-64
-202
-300
-338
-371
-424
-446
-409
-382
-454
-610
-705
-622
-403
-221
-203
-311
-395
-349
-211
-117
-161
-304
-436
-499
-528
-574
-625
-633
-603
-597
-633
-652
-593
-492
-470
-554
-628
-577
-430
-317
-290
-272
-185
-49
73
194
357
493
435
142
-176
-251
-54
149
112
-95
-185
27
440
835
1107
1269
1345
1329
1272
1290
1402
1441
1235
828
464
325
306
147
-239
-676
-947
-1040
-1105
-1226
-1326
-1287
-1118
-914
-721
-497
-229
-14
28
-92
-216
-207
-102
-66
-214
-481
-682
-690
-557
-459
-519
-671
-753
-686
-565
-536
-612
-664
-596
-472
-422
-476
-537
-534
-527
-606
-740
-786
-677
-525
-491
-588
-663
-598
-456
-399
-486
-617
-658
-596
-536
-553
-614
-640
-614
-592
-634
-724
-788
-772
-692
-608
-564
-562
-567
-534
-445
-346
-303
-335
-370
-321
-202
-134
-207
-351
-404
-310
-189
-199
-341
-454
-413
-274
-199
-256
-353
-367
-305
-286
-382
-523
-585
-519
-394
-305
-273
-248
-194
-128
-81
-73
-135
-308
-582
-855
-998
-986
-937
-975
-1083
-1130
-1042
-894
-820
-857
-934
-989
-1030
-1093
-1158
-1176
-1137
-1083
-1033
-954
-822
-679
-619
-686
-822
-923
-934
-884
-845
-856
-883
-858
-743
-570
-429
-394
-460
-560
-625
-642
-646
-675
-728
-771
-768
-711
-629
-560
-534
-549
-590
-637
-683
-727
-766
-797
-814
-817
-809
-786
-732
-632
-497
-400
-419
-549
-678
-678
-548
-445
-528
-790
-1061
-1179
-1141
-1062
-1019
-985
-903
-788
-717
-736
-803
-846
-825
-758
-680
-615
-567
-528
-472
-355
-156
95
337
514
609
642
644
630
577
430
156
-196
-511
-703
-774
-794
-794
-704
-450
-79
246
395
419
449
490
395
60
-412
-799
-1002
-1108
-1199
-1226
-1111
-915
-814
-889
-1014
-1028
-955
-946
-1058
-1189
-1224
-1186
-1172
-1200
-1203
-1144
-1076
-1061
-1072
-1056
-1039
-1104
-1245
-1341
-1282
-1099
-925
-821
-709
-503
-230
15
160
199
167
102
23
-68
-201
-382
-556
-651
-666
-675
-726
-753
-632
-383
-202
-248
-441
-542
-451
-323
-373
-596
-779
-743
-536
-348
-284
-290
-266
-172
-52
19
9
-43
-73
-33
75
187
252
304
401
543
636
577
336
-30
-411
-717
-911
-1015
-1063
-1066
-1003
-866
-697
-554
-447
-323
-158
-19
-11
-148
-295
-304
-166
-25
-23
-150
-271
-308
-310
-378
-533
-685
-738
-689
-626
-620
-664
-692
-676
-658
-707
-845
-1014
-1111
-1070
-913
-713
-519
-305
-8
384
781
1050
1125
1043
872
619
235
-275
-794
-1156
-1297
-1294
-1275
-1276
-1242
-1121
-958
-842
-795
-763
-697
-625
-621
-714
-842
-908
-872
-787
-752
-836
-1023
-1216
-1311
-1279
-1178
-1073
-958
-772
-482
-135
188
444
609
640
481
136
-295
-687
-985
-1206
-1361
-1422
-1362
-1169
-859
-440
37
436
610
539
364
223
88
-198
-698
-1250
-1608
-1683
-1601
-1515
-1416
-1199
-843
-496
-308
-269
-232
-115
-20
-107
-400
-754
-997
-1083
-1074
-1034
-984
-945
-959
-1033
-1104
-1089
-995
-918
-933
-1005
-1040
-990
-893
-807
-761
-753
-774
-804
-797
-725
-623
-565
-574
-592
-555
-495
-506
-637
-815
-909
-873
-788
-767
-818
-834
-734
-574
-512
-626
-790
-765
-445
20
366
466
421
394
412
365
156
-198
-599
-965
-1242
-1369
-1302
-1076
-814
-635
-565
-536
-482
-391
-296
-200
-84
57
187
257
249
190
121
62
-12
-146
-348
-575
-754
-824
-770
-623
-438
-275
-173
-133
-135
-161
-193
-204
-164
-79
-14
-43
-157
-256
-258
-191
-165
-230
-313
-317
-238
-169
-180
-243
-300
-357
-460
-604
-713
-725
-669
-617
-583
-508
-348
-134
79
278
469
603
591
402
131
-80
-178
-239
-371
-593
-802
-853
-681
-364
-74
63
48
-24
-83
-165
-328
-545
-722
-809
-842
-884
-917
-868
-719
-540
-409
-347
-343
-400
-520
-634
-643
-527
-375
-290
-288
-315
-333
-365
-432
-509
-556
-579
-616
-684
-744
-722
-583
-373
-206
-173
-258
-348
-339
-231
-99
16
160
398
732
1117
1522
1917
2220
2317
2167
1873
1556
1204
697
-6
-750
-1296
-1546
-1610
-1641
-1661
-1578
-1327
-975
-650
-426
-280
-159
-50
22
44
33
14
7
34
121
259
383
408
314
182
116
133
164
157
139
164
227
265
257
244
275
332
358
337
309
309
322
320
312
333
390
442
458
444
427
409
366
303
265
283
331
359
349
335
347
369
366
334
312
323
337
308
243
204
237
306
331
275
186
137
155
204
236
251
282
348
428
480
476
429
384
380
416
452
441
392
352
348
346
303
240
230
301
377
353
226
106
95
165
198
116
-33
-152
-206
-244
-305
-362
-346
-251
-151
-134
-206
-281
-278
-204
-141
-162
-259
-361
-408
-411
-413
-439
-470
-472
-436
-378
-325
-292
-276
-258
-216
-148
-85
-76
-146
-248
-305
-280
-210
-155
-132
-100
-42
-18
-98
-259
-380
-388
-361
-442
-637
-780
-722
-526
-410
-489
-634
-626
-417
-182
-128
-275
-470
-560
-521
-444
-427
-494
-600
-679
-687
-623
-508
-368
-227
-130
-126
-210
-295
-288
-194
-135
-219
-396
-484
-368
-131
31
-9
-186
-329
-352
-309
-303
-348
-353
-229
23
335
657
1000
1372
1689
1811
1668
1354
1054
847
621
192
-472
-1191
-1724
-1978
-2050
-2079
-2102
-2059
-1909
-1682
-1435
-1189
-928
-667
-484
-442
-523
-627
-633
-498
-287
-128
-83
-96
-58
57
143
91
-84
-236
-274
-252
-262
-277
-170
84
329
386
271
162
164
161
-33
-419
-785
-919
-834
-708
-672
-685
-630
-467
-274
-152
-126
-149
-173
-186
-191
-198
-211
-234
-258
-260
-229
-197
-225
-342
-498
-591
-565
-462
-382
-368
-364
-288
-124
70
229
332
387
400
375
333
302
281
246
194
167
204
274
303
267
234
276
364
400
342
275
305
407
444
340
195
174
310
455
448
289
123
74
119
145
92
8
-35
-30
-37
-98
-171
-183
-129
-80
-101
-159
-166
-93
-7
3
-59
-96
-46
31
32
-53
-132
-131
-83
-82
-155
-237
-263
-244
-228
-226
-209
-177
-177
-233
-299
-322
-308
-314
-382
-482
-558
-589
-579
-535
-472
-427
-435
-479
-511
-519
-530
-566
-600
-592
-553
-545
-590
-623
-578
-489
-449
-498
-566
-568
-498
-436
-433
-456
-447
-393
-349
-369
-449
-542
-609
-618
-558
-448
-331
-275
-308
-366
-342
-206
-70
-86
-267
-434
-400
-164
88
190
176
208
367
575
712
734
678
567
385
117
-216
-589
-1001
-1409
-1717
-1856
-1859
-1824
-1791
-1662
-1326
-828
-359
-95
-44
-48
29
180
276
207
-7
-219
-287
-186
-27
66
76
87
162
261
311
311
332
393
420
328
153
29
42
150
246
284
294
308
336
399
516
649
709
660
596
648
802
911
880
787
769
819
792
609
397
364
542
750
807
721
661
740
899
993
955
839
747
727
769
855
961
1052
1069
993
857
715
593
472
339
209
118
84
103
176
299
431
515
512
426
284
108
-72
-206
-254
-239
-242
-299
-346
-286
-119
32
42
-81
-213
-254
-207
-163
-180
-250
-319
-338
-311
-283
-292
-318
-313
-266
-235
-278
-392
-509
-574
-584
-591
-630
-690
-746
-775
-760
-681
-517
-283
-55
70
51
-40
-65
42
179
148
-122
-447
-552
-366
-116
-66
-228
-374
-337
-201
-144
-180
-155
2
152
138
25
27
215
399
364
143
-35
-14
122
190
139
63
54
109
178
253
339
387
326
168
40
51
167
247
206
95
28
59
137
189
204
213
234
252
259
286
351
413
402
308
224
262
445
700
935
1116
1265
1404
1549
1704
1854
1937
1879
1674
1404
1160
953
710
368
-48
-446
-749
-936
-1024
-1044
-1008
-908
-736
-500
-254
-75
5
30
62
101
73
-65
-239
-320
-255
-125
-49
-67
-132
-187
-223
-253
-274
-282
-299
-342
-384
-363
-260
-134
-77
-119
-205
-250
-199
-76
54
111
75
18
48
197
366
409
289
129
76
157
275
341
365
418
528
648
717
728
733
769
818
820
753
673
650
685
705
659
584
554
585
626
661
719
805
845
763
615
560
676
844
870
718
559
570
745
906
902
753
606
580
657
720
675
549
448
445
496
499
431
379
430
548
613
566
471
415
393
342
251
177
157
143
94
58
122
273
384
347
205
82
30
-19
-146
-321
-447
-473
-430
-367
-304
-253
-246
-304
-397
-466
-494
-511
-549
-582
-559
-469
-358
-269
-203
-135
-67
-35
-64
-132
-187
-202
-194
-192
-192
-168
-121
-96
-147
-263
-359
-346
-228
-99
-54
-89
-112
-54
69
177
211
180
124
61
-17
-88
-96
-8
123
197
196
211
327
470
478
293
58
-53
-60
-156
-434
-741
-844
-713
-548
-519
-587
-606
-527
-423
-366
-332
-268
-160
-14
185
427
657
856
1110
1532
2074
2480
2541
2336
2129
2028
1846
1357
600
-150
-657
-930
-1128
-1334
-1465
-1380
-1047
-590
-211
-65
-134
-277
-386
-494
-719
-1067
-1363
-1419
-1249
-1036
-906
-794
-559
-201
115
238
171
38
-48
-69
-68
-96
-174
-286
-404
-481
-486
-448
-423
-428
-448
-447
-399
-302
-205
-184
-262
-369
-397
-326
-263
-349
-587
-813
-859
-718
-563
-544
-631
-675
-585
-436
-369
-428
-519
-536
-475
-414
-396
-387
-347
-296
-290
-342
-403
-433
-446
-464
-463
-404
-281
-126
31
185
325
412
418
365
307
272
232
161
79
31
21
19
4
-8
2
16
5
-45
-110
-152
-166
-195
-293
-468
-660
-777
-794
-778
-804
-845
-779
-549
-259
-84
-89
-170
-201
-172
-154
-176
-196
-177
-140
-112
-65
43
170
205
86
-110
-246
-276
-277
-339
-460
-537
-489
-334
-178
-111
-134
-168
-140
-62
-5
-1
15
114
278
391
368
269
232
313
423
432
319
183
133
191
318
466
607
709
737
684
595
520
461
365
199
14
-95
-83
-5
46
37
14
36
91
122
89
15
-54
-101
-143
-174
-152
-45
98
177
148
82
94
216
352
382
282
145
78
112
216
354
505
648
756
842
958
1130
1295
1337
1211
997
805
649
430
66
-404
-844
-1144
-1302
-1393
-1470
-1517
-1465
-1276
-985
-679
-432
-259
-116
23
130
148
67
-47
-110
-87
-14
56
113
173
238
272
250
194
163
188
231
222
144
67
84
225
427
598
701
764
820
848
789
632
447
321
269
221
170
-140
-87
97
311
450
481
440
397
406
458
506
492
412
311
249
256
310
377
433
477
550
741
1129
1690
2278
2722
2969
3091
3144
3053
2673
1979
1139
387
-168
-566
-861
-1016
-962
-717
-403
-125
111
347
578
731
754
685
618
614
656
685
677
646
628
644
678
689
640
539
467
507
659
805
818
690
548
522
613
719
762
764
778
789
737
614
496
461
500
533
530
543
628
763
865
891
882
898
933
934
882
822
808
847
908
966
1038
1125
1188
1176
1078
946
860
875
962
1012
919
675
403
250
232
228
123
-34
-87
41
261
440
562
723
960
1174
1240
1161
1060
1029
1033
982
864
756
721
735
735
679
590
519
493
500
496
454
387
351
396
505
601
620
571
514
503
542
597
636
658
687
757
878
1030
1162
1226
1219
1197
1235
1362
1512
1568
1458
1215
945
714
482
175
-203
-557
-796
-920
-981
-991
-888
-634
-292
3
180
278
365
455
497
473
427
412
428
427
391
358
368
421
470
466
412
352
320
308
281
227
179
177
213
236
212
181
224
362
524
611
607
582
605
656
656
561
415
303
262
261
252
226
209
228
289
376
469
556
624
672
705
734
763
796
841
904
976
1030
1049
1044
1056
1116
1206
1283
1323
1342
1361
1379
1382
1372
1378
1414
1453
1460
1435
1408
1396
1377
1324
1254
1206
1185
1144
1050
933
870
890
941
947
896
848
850
859
792
623
424
308
309
356
356
295
241
260
342
419
431
386
328
294
291
301
310
315
325
347
378
402
401
372
332
292
252
202
140
75
15
-44
-104
-162
-200
-197
-132
-12
111
163
120
47
40
111
148
29
-224
-453
-517
-426
-300
-212
-115
58
282
448
485
433
390
402
417
354
205
45
-56
-115
-217
-405
-581
-580
-336
13
230
209
79
57
199
351
308
32
-332
-605
-712
-698
-630
-539
-429
-295
-128
56
200
218
65
-186
-387
-448
-420
-417
-454
-404
-137
323
778
1036
1090
1090
1147
1202
1103
795
396
66
-171
-417
-751
-1111
-1347
-1385
-1301
-1231
-1229
-1237
-1172
-1016
-838
-715
-663
-628
-552
-447
-401
-476
-633
-742
-717
-600
-515
-538
-638
-722
-731
-678
-609
-559
-539
-545
-540
-484
-370
-259
-236
-328
-460
-532
-525
-508
-554
-640
-661
-546
-354
-227
-240
-320
-330
-228
-116
-119
-232
-318
-267
-131
-53
-99
-185
-185
-89
-3
-14
-86
-113
-46
59
130
174
256
406
577
688
705
664
630
635
670
697
689
660
663
721
796
817
760
692
704
802
894
892
805
722
713
753
766
708
597
483
401
353
314
262
193
140
150
222
288
272
182
121
168
283
334
250
113
64
136
229
232
141
54
55
123
179
173
113
28
-53
-111
-148
-183
-251
-361
-476
-539
-522
-435
-333
-273
-289
-356
-402
-364
-270
-230
-327
-488
-555
-463
-332
-335
-496
-638
-592
-402
-274
-336
-511
-606
-517
-304
-103
-4
-7
-71
-137
-150
-101
-40
-60
-189
-351
-430
-380
-261
-167
-128
-86
26
188
293
251
90
-69
-124
-95
-92
-176
-278
-291
-192
-73
-17
-9
20
80
98
37
-43
-59
-12
11
-33
-86
-63
69
292
578
898
1183
1349
1418
1529
1754
1957
1913
1574
1160
898
760
524
74
-442
-802
-957
-1033
-1141
-1249
-1262
-1134
-893
-591
-293
-55
101
225
363
467
446
284
90
-12
-18
-17
-43
-23
94
238
279
202
133
172
260
255
130
22
59
196
269
194
75
68
190
318
344
281
224
231
286
354
415
448
424
357
311
343
426
482
477
447
458
527
623
718
789
804
734
626
584
664
808
881
822
709
668
745
863
921
901
871
893
951
988
977
961
981
1016
1001
913
806
748
743
753
760
783
826
848
822
796
851
980
1067
999
814
662
637
670
632
516
435
468
554
571
505
463
521
613
592
415
203
92
76
38
-79
-186
-162
-26
75
39
-85
-154
-99
-6
-5
-126
-275
-338
-284
-176
-85
-44
-36
-43
-57
-61
-39
11
62
78
50
13
-1
6
12
15
39
84
120
116
75
32
18
17
-12
-93
-204
-286
-286
-195
-61
26
-9
-150
-301
-374
-385
-439
-606
-838
-993
-983
-852
-728
-679
-651
-554
-379
-227
-189
-250
-305
-278
-200
-149
-161
-195
-192
-138
-73
-46
-66
-97
-79
10
109
114
-16
-190
-257
-166
-8
121
241
457
787
1112
1299
1369
1441
1549
1579
1411
1088
764
521
283
-62
-511
-941
-1232
-1373
-1446
-1525
-1607
-1619
-1489
-1225
-924
-706
-618
-596
-551
-468
-407
-431
-535
-661
-745
-764
-723
-660
-627
-650
-688
-668
-562
-428
-359
-383
-434
-418
-314
-203
-181
-263
-365
-390
-320
-223
-188
-223
-262
-241
-164
-84
-40
-15
24
77
113
105
63
23
5
3
-6
-43
-105
-164
-178
-124
-25
67
115
111
75
32
11
43
139
256
313
273
205
221
362
547
650
624
545
518
576
669
724
700
610
520
509
602
722
749
637
472
385
396
398
300
154
93
163
259
261
175
110
126
164
134
43
-24
-13
37
60
67
108
178
204
140
37
-10
12
2
-130
-338
-484
-486
-392
-309
-300
-352
-422
-469
-457
-371
-260
-212
-257
-297
-211
-13
130
94
-58
-142
-78
21
-12
-201
-414
-510
-488
-445
-463
-559
-726
-960
-1226
-1432
-1494
-1418
-1320
-1315
-1375
-1340
-1094
-711
-404
-327
-429
-538
-554
-519
-503
-497
-443
-334
-219
-131
-53
23
47
-47
-246
-429
-503
-511
-592
-822
-1090
-1189
-1042
-821
-783
-986
-1191
-1102
-730
-426
-510
-919
-1259
-1229
-934
-770
-980
-1393
-1612
-1390
-845
-313
-24
27
-25
-82
-119
-132
-119
-127
-261
-581
-1000
-1325
-1435
-1423
-1521
-1885
-2448
-2969
-3233
-3222
-3106
-3060
-3082
-2988
-2624
-2079
-1628
-1449
-1444
-1390
-1230
-1116
-1195
-1398
-1542
-1551
-1498
-1463
-1439
-1398
-1372
-1402
-1448
-1432
-1379
-1398
-1515
-1611
-1565
-1433
-1387
-1484
-1595
-1570
-1433
-1336
-1351
-1396
-1369
-1286
-1244
-1284
-1346
-1374
-1374
-1383
-1403
-1415
-1439
-1500
-1563
-1537
-1372
-1151
-1026
-1056
-1158
-1195
-1121
-1000
-924
-915
-923
-900
-832
-738
-628
-505
-388
-302
-270
-286
-315
-342
-376
-445
-566
-716
-845
-920
-930
-880
-791
-708
-659
-646
-639
-607
-554
-517
-512
-517
-514
-525
-576
-646
-682
-659
-613
-611
-664
-727
-760
-776
-815
-875
-924
-945
-972
-1065
-1210
-1338
-1373
-1298
-1176
-1092
-1091
-1145
-1189
-1170
-1090
-1010
-995
-1066
-1204
-1350
-1420
-1378
-1268
-1191
-1209
-1285
-1330
-1295
-1228
-1214
-1262
-1310
-1307
-1284
-1308
-1384
-1437
-1392
-1267
-1154
-1110
-1117
-1122
-1124
-1168
-1265
-1353
-1371
-1351
-1380
-1478
-1529
-1429
-1230
-1120
-1198
-1351
-1394
-1288
-1200
-1298
-1547
-1760
-1808
-1741
-1673
-1641
-1609
-1561
-1541
-1569
-1590
-1528
-1392
-1298
-1346
-1517
-1687
-1749
-1712
-1667
-1684
-1733
-1738
-1669
-1579
-1540
-1566
-1603
-1599
-1562
-1535
-1544
-1587
-1634
-1655
-1615
-1487
-1288
-1072
-898
-777
-685
-610
-580
-641
-806
-1042
-1300
-1563
-1851
-2182
-2556
-2924
-3230
-3431
-3525
-3542
-3531
-3530
-3518
-3432
-3219
-2912
-2615
-2410
-2292
-2193
-2072
-1955
-1872
-1800
-1673
-1470
-1263
-1145
-1144
-1208
-1260
-1286
-1337
-1467
-1671
-1892
-2064
-2159
-2164
-2068
-1872
-1633
-1458
-1408
-1421
-1372
-1222
-1087
-1112
-1296
-1487
-1549
-1505
-1474
-1508
-1540
-1493
-1381
-1274
-1209
-1169
-1135
-1113
-1096
-1052
-961
-844
-743
-683
-653
-631
-596
-528
-430
-359
-380
-476
-522
-396
-114
164
303
331
387
529
648
581
292
-89
-401
-584
-691
-781
-851
-868
-839
-804
-782
-743
-654
-541
-482
-533
-681
-855
-977
-1007
-963
-907
-910
-983
-1062
-1066
-986
-908
-904
-939
-920
-827
-756
-788
-875
-891
-791
-678
-667
-742
-794
-753
-672
-639
-659
-675
-668
-693
-800
-958
-1090
-1172
-1257
-1392
-1536
-1604
-1576
-1523
-1517
-1540
-1526
-1461
-1407
-1415
-1440
-1407
-1330
-1313
-1408
-1513
-1481
-1303
-1132
-1116
-1224
-1304
-1270
-1187
-1148
-1152
-1130
-1072
-1051
-1106
-1161
-1111
-949
-787
-729
-757
-770
-716
-641
-613
-651
-727
-814
-903
-983
-1026
-1021
-1000
-1009
-1051
-1084
-1068
-1022
-1002
-1043
-1131
-1213
-1244
-1217
-1166
-1137
-1157
-1211
-1254
-1257
-1227
-1190
-1154
-1102
-1025
-942
-884
-851
-812
-724
-567
-363
-165
-29
30
57
130
270
390
362
151
-134
-358
-511
-710
-1047
-1464
-1806
-1978
-2030
-2065
-2127
-2167
-2115
-1958
-1737
-1500
-1282
-1111
-1002
-958
-968
-1010
-1050
-1060
-1025
-967
-923
-894
-838
-726
-592
-513
-532
-613
-693
-757
-839
-945
-1017
-995
-899
-811
-782
-792
-789
-763
-738
-715
-658
-535
-375
-246
-186
-175
-159
-113
-72
-89
-198
-361
-489
-504
-403
-261
-146
-47
109
369
678
918
1000
939
830
770
778
796
746
626
529
568
761
1004
1178
1261
1316
1376
1384
1283
1114
984
933
882
731
514
392
468
666
807
816
799
913
1168
1402
1440
1268
1030
882
853
840
724
484
222
84
148
376
634
784
805
794
838
903
847
584
211
-73
-174
-197
-295
-473
-562
-454
-252
-153
-196
-205
-39
181
186
-87
-400
-479
-362
-338
-559
-828
-851
-599
-338
-294
-410
-473
-425
-388
-460
-585
-660
-678
-716
-774
-753
-607
-434
-376
-452
-542
-520
-391
-255
-210
-269
-371
-420
-354
-191
-30
30
3
-13
49
150
203
185
166
210
273
243
78
-128
-211
-116
52
132
77
-14
-3
125
251
258
149
40
27
96
160
168
151
182
284
402
452
405
317
261
234
180
74
-8
45
255
550
845
1113
1352
1534
1629
1688
1787
1906
1891
1621
1180
804
628
535
300
-141
-617
-923
-1036
-1104
-1242
-1391
-1385
-1140
-748
-378
-131
31
197
394
553
593
519
412
341
324
342
399
507
633
713
722
696
682
666
604
500
421
427
503
597
685
778
888
987
1047
1074
1082
1062
996
889
801
799
901
1055
1176
1212
1182
1159
1192
1263
1307
1281
1212
1165
1168
1210
1264
1317
1359
1394
1441
1516
1583
1564
1431
1294
1305
1484
1672
1706
1625
1623
1804
2050
2154
2059
1914
1883
1936
1915
1757
1574
1521
1616
1726
1746
1695
1668
1697
1748
1805
1884
1949
1899
1697
1467
1385
1462
1531
1448
1298
1265
1384
1501
1488
1420
1453
1579
1601
1400
1113
988
1100
1267
1268
1104
960
985
1158
1340
1425
1396
1301
1178
1057
977
958
982
998
972
919
878
876
913
975
1017
996
909
825
816
872
887
807
722
776
972
1151
1181
1117
1112
1197
1237
1129
953
874
945
1073
1153
1188
1246
1352
1468
1545
1571
1536
1438
1327
1276
1289
1293
1207
1048
935
958
1079
1182
1205
1173
1144
1140
1129
1078
989
899
848
835
825
788
761
816
957
1082
1087
975
866
854
897
879
763
624
545
527
519
496
483
514
599
742
934
1114
1212
1243
1326
1518
1695
1658
1372
1031
812
649
336
-165
-626
-828
-821
-846
-1013
-1175
-1147
-930
-670
-467
-310
-176
-81
0
142
358
518
469
264
153
307
593
722
580
353
281
379
447
325
72
-129
-173
-111
-36
16
60
112
169
232
302
362
392
390
380
367
332
292
302
405
548
615
562
477
471
543
584
516
409
389
492
618
664
645
646
698
739
716
679
723
854
971
1005
999
1053
1191
1326
1360
1294
1205
1162
1173
1204
1226
1217
1161
1076
1022
1044
1116
1146
1080
966
906
946
1025
1051
1005
969
1024
1154
1249
1230
1135
1074
1098
1136
1080
928
783
737
769
776
709
633
633
702
757
733
650
574
547
557
563
536
490
474
536
669
805
855
795
685
617
621
653
657
620
583
569
560
538
522
532
561
539
423
258
155
185
299
373
350
298
326
441
529
486
348
269
345
499
557
439
259
188
256
336
309
212
170
222
277
246
194
253
426
563
504
278
68
5
51
80
25
-74
-147
-164
-136
-89
-56
-69
-127
-179
-173
-127
-110
-155
-206
-179
-72
29
58
41
57
144
257
329
345
340
333
302
228
148
140
248
420
580
707
858
1079
1326
1501
1542
1478
1368
1208
940
548
115
-242
-474
-632
-781
-919
-978
-913
-747
-552
-393
-277
-180
-81
31
143
231
275
271
212
100
-29
-123
-159
-153
-161
-210
-277
-333
-383
-442
-492
-491
-443
-426
-512
-645
-655
-411
12
370
480
405
372
513
714
737
471
44
-304
-439
-436
-435
-489
-549
-547
-469
-355
-233
-109
-5
31
-18
-104
-161
-191
-252
-374
-500
-571
-613
-687
-751
-663
-356
-10
80
-159
-457
-467
-159
150
145
-157
-472
-569
-469
-348
-314
-360
-431
-451
-371
-220
-107
-152
-318
-416
-334
-209
-288
-601
-880
-857
-582
-358
-352
-420
-338
-126
-5
-99
-273
-333
-314
-423
-733
-1038
-1076
-857
-656
-698
-913
-1045
-954
-764
-697
-816
-986
-1055
-1004
-931
-897
-861
-783
-698
-681
-727
-759
-722
-659
-659
-736
-799
-758
-611
-430
-292
-233
-240
-271
-291
-310
-389
-558
-729
-751
-582
-369
-315
-449
-571
-479
-190
66
107
-31
-179
-239
-239
-247
-266
-252
-180
-72
40
140
221
284
340
393
425
407
349
303
308
325
294
232
231
338
490
568
536
458
394
331
233
142
132
211
296
295
222
184
252
380
454
421
342
310
352
404
400
348
322
379
506
650
792
949
1126
1306
1472
1631
1781
1869
1825
1644
1399
1169
956
689
304
-179
-666
-1034
-1204
-1202
-1129
-1086
-1068
-969
-715
-383
-133
-43
-38
-7
54
54
-57
-222
-362
-459
-533
-568
-524
-418
-345
-367
-413
-344
-136
66
96
-51
-230
-321
-340
-389
-506
-612
-610
-491
-339
-247
-236
-264
-284
-273
-254
-255
-286
-328
-349
-325
-261
-188
-135
-106
-78
-34
-5
-47
-161
-270
-288
-211
-139
-162
-256
-321
-309
-286
-336
-448
-525
-509
-460
-471
-553
-628
-645
-622
-585
-502
-340
-141
-8
6
-30
-22
13
-43
-270
-593
-850
-963
-1002
-1080
-1197
-1236
-1096
-844
-676
-733
-926
-1021
-874
-580
-374
-380
-500
-550
-483
-411
-454
-604
-764
-879
-970
-1055
-1100
-1061
-973
-923
-948
-1007
-1044
-1071
-1151
-1297
-1442
-1498
-1443
-1325
-1192
-1054
-915
-819
-812
-871
-903
-847
-754
-741
-854
-994
-1032
-951
-884
-956
-1139
-1280
-1253
-1081
-890
-768
-696
-608
-481
-354
-270
-252
-298
-390
-484
-511
-432
-284
-169
-155
-215
-259
-234
-182
-172
-225
-292
-330
-345
-369
-397
-380
-277
-124
-18
-27
-135
-246
-284
-268
-289
-409
-569
-629
-504
-280
-131
-143
-212
-168
19
178
111
-196
-560
-782
-832
-821
-838
-856
-804
-688
-601
-613
-667
-640
-479
-276
-151
-108
-23
212
544
830
1006
1132
1260
1312
1170
852
536
348
208
-81
-562
-1064
-1392
-1536
-1625
-1728
-1766
-1644
-1396
-1148
-974
-845
-719
-619
-616
-724
-878
-996
-1052
-1061
-1043
-990
-882
-723
-557
-439
-406
-448
-525
-602
-672
-743
-800
-822
-802
-763
-728
-701
-678
-668
-680
-706
-712
-687
-665
-692
-759
-801
-754
-624
-479
-386
-369
-410
-472
-520
-541
-545
-561
-592
-603
-553
-438
-305
-199
-126
-54
25
82
79
17
-57
-100
-96
-51
22
116
202
249
247
230
237
267
277
235
173
159
221
313
360
340
306
308
327
305
221
122
72
83
115
132
145
177
223
248
227
173
126
109
116
121
91
9
-106
-204
-239
-222
-210
-246
-298
-301
-245
-199
-226
-296
-319
-259
-185
-189
-277
-363
-370
-304
-219
-166
-163
-212
-298
-384
-423
-411
-386
-383
-384
-347
-267
-187
-151
-163
-205
-276
-381
-508
-635
-753
-868
-964
-991
-903
-719
-525
-401
-355
-340
-317
-286
-272
-286
-325
-380
-437
-474
-475
-457
-435
-384
-257
-68
70
33
-177
-410
-515
-498
-494
-599
-767
-895
-954
-960
-901
-758
-602
-593
-779
-993
-1002
-784
-574
-598
-802
-917
-793
-559
-442
-496
-583
-562
-454
-381
-400
-471
-518
-501
-427
-320
-220
-182
-228
-312
-315
-147
156
441
578
587
612
765
993
1105
959
608
243
13
-117
-303
-638
-1064
-1466
-1781
-2030
-2233
-2367
-2385
-2300
-2172
-2025
-1819
-1509
-1127
-773
-514
-348
-255
-239
-315
-434
-516
-536
-541
-577
-613
-576
-461
-355
-333
-374
-391
-347
-279
-246
-261
-298
-326
-326
-285
-216
-167
-197
-288
-364
-373
-346
-348
-380
-363
-237
-53
59
22
-107
-180
-98
91
220
155
-75
-295
-340
-216
-80
-62
-132
-152
-41
157
337
436
451
388
274
192
220
337
403
323
172
126
263
470
572
543
500
536
619
644
580
491
441
416
362
263
164
118
134
181
220
237
260
331
456
579
622
569
491
459
463
410
236
31
-52
39
167
154
0
-107
-23
181
291
206
53
0
49
55
-67
-225
-278
-216
-148
-136
-136
-86
-22
-27
-95
-144
-135
-119
-150
-190
-166
-91
-57
-112
-170
-117
19
105
69
-14
-24
53
117
117
95
101
107
53
-47
-108
-94
-67
-82
-106
-71
14
56
13
-37
10
146
244
200
60
-38
-9
73
55
-110
-274
-239
13
256
256
51
-86
34
275
349
174
-31
-44
86
144
58
1
136
368
441
253
-27
-155
-75
70
123
72
24
63
183
317
414
485
572
696
829
931
992
1042
1110
1182
1215
1181
1080
931
747
509
190
-209
-645
-1027
-1296
-1477
-1618
-1714
-1686
-1488
-1184
-881
-609
-322
-4
241
299
196
81
61
89
50
-76
-192
-193
-83
54
139
155
126
74
15
-58
-156
-258
-312
-297
-263
-271
-303
-286
-199
-115
-108
-130
-85
27
63
-75
-271
-309
-143
63
129
70
43
132
252
272
165
13
-87
-107
-68
15
134
271
398
488
539
576
638
721
769
726
591
441
365
392
471
537
561
559
558
571
597
611
586
531
479
456
447
427
409
441
531
622
653
638
638
672
692
669
625
587
524
391
234
161
204
252
162
-45
-187
-128
64
198
178
83
56
148
303
432
479
433
320
208
163
182
199
173
131
124
145
152
136
157
258
375
394
288
152
97
144
224
267
251
196
129
77
68
108
159
176
161
173
265
424
565
606
542
446
387
376
372
340
284
214
128
36
-11
53
226
395
421
286
124
91
214
375
425
322
149
19
-18
-6
8
19
29
27
1
-5
77
234
333
251
56
-54
26
170
160
-32
-203
-162
42
190
165
61
23
83
148
149
120
134
213
314
388
417
429
484
629
853
1089
1265
1372
1458
1545
1600
1582
1494
1360
1180
926
584
184
-219
-572
-829
-960
-982
-956
-924
-853
-664
-336
32
295
395
405
429
481
489
392
218
71
32
87
161
190
189
228
345
499
605
630
617
635
691
724
693
628
590
586
565
493
398
337
325
337
353
391
455
516
540
539
561
608
617
526
365
235
214
286
383
471
570
711
894
1080
1229
1294
1248
1113
966
890
908
972
1016
1023
1027
1058
1121
1192
1242
1243
1170
1038
912
873
957
1130
1311
1435
1481
1468
1431
1392
1349
1279
1165
1033
939
925
990
1092
1168
1150
1026
868
792
833
901
877
760
681
741
872
920
827
697
676
803
1033
1314
1630
1958
2231
2386
2399
2241
1816
1038
-22
-1104
-1906
-2320
-2480
-2577
-2634
-2490
-2005
-1262
-542
-92
39
-17
-103
-154
-194
-265
-375
-475
-506
-438
-321
-255
-299
-405
-484
-498
-474
-438
-376
-304
-307
-419
-529
-487
-325
-267
-448
-714
-778
-570
-324
-266
-344
-331
-146
41
34
-149
-311
-296
-108
151
382
535
602
642
718
806
766
479
-13
-521
-889
-1131
-1364
-1647
-1894
-1967
-1839
-1622
-1458
-1396
-1375
-1305
-1182
-1082
-1052
-1030
-917
-720
-572
-584
-684
-677
-464
-160
48
115
186
413
772
1102
1323
1513
1770
2033
2124
1969
1707
1519
1392
1118
547
-211
-893
-1354
-1669
-1958
-2191
-2235
-2051
-1757
-1488
-1262
-1012
-725
-490
-387
-411
-502
-611
-718
-808
-859
-868
-853
-821
-751
-633
-518
-464
-452
-384
-189
82
287
349
345
422
614
791
776
535
232
66
75
116
22
-208
-397
-378
-171
31
64
-69
-227
-291
-274
-246
-228
-185
-101
-1
100
242
471
747
956
1017
972
930
945
968
929
837
787
868
1054
1222
1261
1156
1022
1009
1174
1433
1632
1667
1549
1384
1270
1220
1170
1035
791
504
289
232
318
448
526
531
530
588
694
761
717
588
468
434
478
526
549
574
620
655
622
500
324
142
-10
-107
-133
-105
-59
16
189
507
872
1069
984
738
556
524
511
349
42
-267
-470
-594
-705
-800
-837
-834
-863
-950
-1029
-1017
-915
-807
-763
-762
-735
-633
-475
-331
-265
-291
-365
-424
-427
-378
-315
-284
-322
-441
-599
-717
-730
-631
-466
-284
-82
155
411
627
745
751
665
510
307
77
-145
-311
-381
-335
-189
-3
160
271
328
326
233
28
-247
-504
-684
-796
-885
-955
-953
-835
-622
-389
-204
-79
1
43
43
18
14
43
48
-35
-182
-267
-190
15
228
393
571
838
1157
1404
1520
1560
1583
1555
1395
1110
817
582
335
-27
-466
-806
-932
-918
-919
-973
-983
-871
-691
-532
-373
-106
288
660
845
838
777
760
727
558
238
-121
-397
-561
-641
-638
-530
-338
-132
39
180
313
411
414
318
196
126
129
166
206
242
283
327
376
446
540
612
594
468
330
315
448
597
595
421
231
198
332
489
552
559
639
837
1054
1156
1112
1002
913
867
837
811
793
788
791
804
841
908
993
1077
1139
1165
1138
1058
961
899
894
920
923
890
848
828
822
802
756
716
714
733
706
585
408
276
260
329
394
395
354
326
338
370
387
365
297
200
112
64
58
58
29
-22
-63
-71
-53
-26
3
22
15
-29
-77
-78
-31
14
3
-62
-132
-167
-162
-127
-61
22
84
82
17
-54
-69
-25
22
8
-72
-159
-180
-127
-69
-82
-155
-188
-111
22
73
-16
-140
-142
16
199
252
156
23
-39
-28
-23
-68
-132
-166
-156
-132
-124
-134
-153
-182
-226
-278
-320
-334
-328
-324
-327
-315
-271
-203
-139
-104
-101
-127
-174
-221
-246
-246
-261
-337
-462
-555
-544
-440
-328
-269
-238
-165
-32
94
142
95
-12
-154
-302
-408
-406
-308
-210
-193
-199
-80
225
583
807
860
882
983
1110
1120
965
719
448
116
-343
-894
-1405
-1777
-2003
-2105
-2076
-1910
-1660
-1404
-1175
-950
-731
-584
-554
-593
-615
-615
-666
-802
-929
-920
-773
-605
-505
-441
-338
-195
-68
25
123
223
230
73
-190
-414
-533
-618
-739
-819
-712
-403
-72
65
-39
-240
-385
-469
-603
-873
-1231
-1532
-1640
-1527
-1269
-982
-747
-604
-562
-608
-695
-751
-732
-679
-689
-804
-944
-979
-869
-720
-673
-757
-880
-947
-971
-1033
-1165
-1294
-1336
-1296
-1248
-1223
-1173
-1055
-913
-849
-899
-989
-1028
-1030
-1084
-1225
-1388
-1491
-1535
-1589
-1672
-1704
-1601
-1393
-1210
-1159
-1234
-1347
-1444
-1547
-1699
-1896
-2084
-2208
-2271
-2316
-2372
-2424
-2426
-2363
-2274
-2222
-2230
-2253
-2243
-2206
-2180
-2171
-2138
-2057
-1968
-1928
-1933
-1909
-1816
-1714
-1703
-1799
-1920
-1989
-2009
-2022
-2022
-1961
-1835
-1726
-1712
-1775
-1822
-1792
-1730
-1719
-1783
-1867
-1906
-1889
-1849
-1811
-1764
-1689
-1589
-1500
-1462
-1487
-1552
-1616
-1648
-1650
-1664
-1737
-1875
-2017
-2090
-2067
-2005
-1977
-1995
-1995
-1916
-1775
-1650
-1600
-1619
-1674
-1745
-1822
-1879
-1875
-1813
-1755
-1766
-1827
-1864
-1829
-1757
-1722
-1756
-1815
-1843
-1831
-1812
-1807
-1797
-1763
-1724
-1716
-1754
-1814
-1867
-1905
-1913
-1858
-1725
-1574
-1525
-1614
-1736
-1740
-1604
-1463
-1434
-1467
-1384
-1091
-695
-378
-206
-115
-50
-41
-134
-300
-479
-686
-1005
-1448
-1875
-2128
-2211
-2297
-2507
-2763
-2879
-2762
-2491
-2192
-1922
-1672
-1453
-1301
-1208
-1121
-1030
-993
-1076
-1247
-1403
-1464
-1446
-1401
-1342
-1256
-1161
-1094
-1061
-1030
-1003
-1044
-1188
-1350
-1384
-1255
-1095
-1088
-1273
-1488
-1517
-1309
-1033
-933
-1096
-1356
-1452
-1286
-1022
-907
-997
-1118
-1092
-956
-907
-1027
-1169
-1151
-975
-821
-810
-866
-835
-682
-520
-460
-498
-566
-626
-673
-683
-627
-521
-447
-468
-534
-531
-399
-191
-41
-48
-205
-399
-484
-395
-212
-103
-172
-352
-462
-399
-238
-146
-185
-238
-186
-80
-84
-263
-473
-521
-410
-329
-414
-583
-631
-508
-357
-321
-375
-404
-398
-467
-642
-779
-735
-583
-549
-716
-877
-784
-475
-269
-392
-700
-845
-682
-423
-378
-595
-844
-883
-717
-531
-473
-506
-505
-430
-379
-458
-626
-708
-596
-389
-300
-421
-598
-589
-340
-53
24
-143
-362
-445
-380
-304
-335
-444
-515
-476
-377
-323
-345
-379
-351
-302
-356
-538
-689
-610
-310
-36
2
-135
-203
-71
139
215
96
-114
-279
-342
-295
-150
44
190
220
180
180
270
380
385
242
63
10
149
369
458
309
50
-56
116
407
538
410
206
189
398
621
649
509
402
452
576
635
631
710
961
1290
1512
1582
1635
1800
2012
2048
1794
1386
1061
896
735
393
-129
-641
-979
-1128
-1177
-1211
-1246
-1236
-1139
-960
-753
-576
-439
-292
-126
-38
-141
-382
-538
-440
-184
-63
-222
-487
-570
-419
-259
-313
-519
-638
-551
-393
-354
-454
-546
-520
-418
-354
-373
-411
-397
-340
-289
-265
-232
-151
-36
51
61
16
-13
21
94
128
90
39
71
212
364
397
294
187
203
307
343
234
97
107
267
411
434
443
602
877
1028
898
639
555
742
975
978
759
581
642
852
974
903
755
687
711
742
741
765
845
898
829
681
599
656
752
730
559
370
303
353
430
465
454
410
336
234
139
93
84
74
57
68
136
235
326
406
501
610
675
630
485
316
195
130
75
4
-62
-105
-141
-197
-263
-286
-239
-171
-170
-260
-364
-390
-316
-208
-147
-163
-200
-188
-113
-26
-9
-89
-189
-195
-65
124
255
291
271
236
186
101
0
-56
-50
-22
-20
-38
-3
137
351
539
616
587
533
535
589
624
592
518
462
445
424
354
259
202
216
285
364
429
481
541
621
711
763
724
591
442
375
407
440
385
291
313
520
777
882
798
694
719
809
770
543
298
231
334
419
351
194
103
173
398
743
1142
1470
1617
1614
1610
1686
1710
1458
864
113
-525
-927
-1156
-1319
-1424
-1379
-1103
-621
-81
323
491
488
481
555
625
526
209
-172
-393
-367
-206
-86
-99
-182
-220
-201
-225
-362
-530
-560
-407
-236
-245
-405
-473
-300
-30
47
-129
-316
-274
-51
117
148
248
658
1355
2032
2366
2266
1864
1355
862
384
-178
-898
-1682
-2235
-2268
-1777
-1076
-532
-237
-18
282
602
747
636
384
157
18
-39
6
186
463
714
848
894
922
938
911
862
869
946
998
958
899
963
1161
1317
1283
1129
1041
1088
1165
1164
1135
1181
1295
1367
1351
1333
1412
1556
1610
1467
1187
928
780
684
535
322
161
162
292
398
367
260
226
315
426
458
453
547
792
1073
1245
1286
1294
1352
1441
1476
1414
1284
1164
1113
1140
1192
1187
1095
975
921
940
931
806
595
428
393
458
546
621
706
816
907
924
867
803
796
858
940
982
953
888
859
916
1035
1125
1117
1034
964
958
976
957
894
829
777
702
584
482
480
571
638
594
482
432
498
593
612
558
536
612
717
735
641
510
421
376
327
262
210
183
157
117
92
134
238
332
353
316
301
335
350
259
78
-48
16
233
447
567
667
865
1152
1393
1511
1582
1715
1864
1844
1566
1173
896
787
666
338
-173
-661
-965
-1105
-1210
-1327
-1380
-1285
-1054
-775
-521
-287
-49
175
317
321
209
70
-20
-42
-30
-12
33
145
318
486
572
561
505
463
443
414
348
258
186
168
223
358
547
729
841
877
887
910
916
846
695
535
452
452
464
417
307
199
157
188
247
284
297
336
448
613
772
922
1133
1437
1733
1864
1783
1612
1477
1351
1123
827
691
906
1384
1819
1984
1928
1846
1829
1765
1487
953
279
-349
-788
-996
-1015
-915
-733
-478
-181
73
206
208
142
65
-29
-176
-365
-526
-596
-569
-480
-375
-293
-252
-233
-195
-121
-44
-1
12
42
100
135
95
4
-51
-16
79
179
280
409
553
637
620
550
524
576
654
705
742
810
906
989
1048
1123
1239
1339
1321
1152
913
734
676
701
727
700
611
480
337
202
74
-65
-233
-403
-512
-508
-391
-209
-2
216
435
612
690
640
495
319
148
-20
-180
-275
-242
-95
54
84
-2
-82
-47
73
141
64
-93
-182
-140
-43
-16
-89
-173
-176
-99
-16
12
-12
-45
-49
-15
48
117
150
129
80
59
96
158
190
178
162
179
215
234
234
266
385
591
828
1017
1114
1139
1145
1172
1205
1182
1051
827
567
315
64
-202
-462
-665
-792
-874
-938
-972
-928
-773
-536
-278
-54
111
215
271
289
268
206
120
58
66
147
244
289
268
231
234
288
353
380
358
319
304
334
389
429
431
408
383
364
335
293
258
254
283
322
356
385
417
453
488
522
568
628
689
739
782
829
880
919
931
930
934
941
922
859
780
743
775
849
916
961
1011
1079
1131
1120
1050
982
961
962
924
835
763
789
915
1066
1171
1220
1241
1239
1186
1072
925
789
688
623
586
579
593
599
565
493
424
401
422
429
360
213
67
14
82
209
305
328
305
277
252
217
184
197
280
389
452
438
384
342
314
260
150
13
-103
-171
-203
-212
-202
-174
-128
-68
-7
7
-76
-250
-412
-444
-341
-232
-232
-308
-316
-179
18
135
134
92
78
95
118
153
218
271
232
87
-83
-206
-309
-462
-666
-818
-815
-653
-410
-147
122
362
495
471
345
242
224
238
194
77
-52
-125
-116
-44
41
73
1
-154
-296
-349
-349
-396
-518
-631
-637
-543
-454
-455
-523
-581
-571
-488
-360
-242
-194
-236
-310
-320
-229
-93
0
25
29
77
202
397
603
731
717
597
506
556
706
809
763
597
417
278
134
-93
-437
-862
-1290
-1645
-1859
-1898
-1771
-1526
-1236
-977
-800
-704
-635
-547
-467
-484
-648
-894
-1070
-1069
-902
-668
-461
-302
-183
-91
-17
54
116
149
127
58
-15
-55
-71
-84
-94
-77
-16
71
162
254
343
399
379
289
210
222
306
340
241
73
-4
98
303
454
472
397
319
296
335
420
508
550
532
511
550
632
660
578
451
393
420
447
417
393
469
647
828
936
983
1015
1037
1022
969
922
920
936
916
834
725
665
698
788
840
785
660
570
578
637
649
586
514
493
499
463
370
293
311
403
450
369
205
97
133
250
296
194
19
-103
-129
-107
-97
-91
-87
-135
-273
-423
-443
-303
-156
-171
-303
-338
-163
79
159
39
-100
-102
-16
1
-110
-267
-376
-438
-478
-461
-353
-199
-79
-4
86
194
242
183
113
170
326
403
300
145
141
292
407
342
199
177
329
494
521
429
355
358
372
333
269
252
273
247
126
-1
26
248
506
581
424
206
145
280
466
541
490
416
392
405
421
428
428
390
280
128
26
52
199
394
557
645
647
588
530
512
518
528
567
709
981
1302
1561
1735
1905
2106
2219
2083
1699
1277
1018
913
761
399
-110
-528
-659
-539
-414
-509
-792
-986
-847
-413
15
186
136
104
239
447
527
414
238
155
176
215
218
206
227
284
345
395
446
508
557
547
481
439
487
611
707
685
577
513
554
616
573
426
297
298
394
477
497
486
491
510
526
550
588
612
589
545
540
607
711
801
873
957
1045
1087
1053
970
904
900
951
1033
1109
1150
1166
1188
1234
1285
1305
1284
1236
1179
1111
1048
1046
1137
1262
1303
1220
1110
1088
1153
1199
1156
1062
1004
998
979
901
790
709
689
703
706
675
616
555
530
563
611
593
458
261
125
116
183
210
130
-8
-87
-27
140
286
291
141
-41
-110
-27
108
152
71
-27
-18
98
207
221
173
162
215
270
239
127
17
-27
-2
56
129
195
207
126
-5
-67
6
139
182
83
-42
-46
79
202
226
187
173
197
188
107
29
29
78
87
31
-14
32
158
271
303
261
210
205
253
304
286
175
30
-35
11
78
47
-77
-157
-90
65
150
88
-29
-60
21
114
118
42
-24
-14
48
91
74
29
11
48
96
80
-10
-91
-61
94
309
520
722
931
1127
1268
1367
1483
1623
1680
1525
1171
801
594
544
479
239
-160
-558
-820
-941
-999
-1059
-1111
-1107
-1029
-896
-729
-536
-326
-135
-27
-20
-70
-97
-86
-92
-166
-267
-293
-207
-79
-12
-39
-103
-126
-91
-32
17
51
79
110
140
161
162
128
75
56
110
201
240
171
62
42
160
330
418
378
299
296
393
520
599
614
599
594
614
654
699
740
764
771
790
862
1001
1159
1244
1213
1126
1101
1196
1335
1373
1253
1073
980
1017
1100
1122
1077
1043
1066
1119
1152
1154
1147
1136
1110
1057
986
910
829
755
718
735
788
839
837
743
563
387
342
462
638
704
625
564
689
945
1083
936
618
398
404
498
474
309
182
240
412
500
413
264
222
305
366
281
110
52
219
507
725
802
828
907
998
958
705
316
-61
-360
-626
-902
-1156
-1286
-1231
-1018
-728
-436
-166
77
278
407
463
470
457
425
349
230
71
-128
-348
-536
-649
-724
-849
-1052
-1229
-1249
-1113
-952
-848
-736
-550
-392
-469
-830
-1230
-1354
-1164
-928
-913
-1079
-1163
-1006
-721
-543
-575
-717
-831
-905
-1017
-1197
-1367
-1424
-1357
-1227
-1098
-997
-921
-859
-778
-640
-479
-452
-706
-1190
-1616
-1713
-1490
-1194
-1007
-854
-545
-49
449
803
1049
1282
1438
1333
923
434
140
55
-99
-555
-1219
-1771
-1994
-1971
-1924
-1953
-1976
-1876
-1634
-1313
-978
-678
-476
-410
-449
-523
-596
-678
-752
-722
-515
-207
13
32
-61
-89
-1
81
31
-114
-202
-140
9
109
100
52
59
124
165
101
-45
-178
-216
-169
-113
-89
-68
-2
97
165
171
161
187
237
253
204
142
127
164
212
239
258
293
337
365
365
367
411
498
583
628
651
698
792
892
928
884
818
811
869
917
884
786
702
703
781
875
921
898
838
791
784
798
778
709
639
631
680
693
593
414
280
289
406
504
497
421
376
409
464
438
296
112
-9
-29
0
19
26
50
98
147
181
210
232
212
117
-19
-111
-106
-29
36
23
-59
-148
-189
-183
-187
-231
-272
-239
-146
-108
-175
-213
-16
425
855
1038
1045
1150
1434
1630
1423
852
275
-49
-236
-561
-1072
-1521
-1672
-1551
-1364
-1247
-1169
-1062
-947
-883
-876
-873
-831
-762
-700
-649
-601
-563
-549
-553
-542
-511
-496
-522
-556
-528
-422
-319
-317
-398
-429
-318
-141
-71
-170
-302
-285
-104
82
122
20
-111
-201
-265
-324
-346
-293
-201
-156
-192
-238
-179
18
274
479
601
700
845
1004
1068
980
804
658
553
366
-6
-501
-946
-1243
-1449
-1667
-1893
-2032
-2035
-1959
-1882
-1789
-1614
-1363
-1122
-957
-846
-721
-589
-525
-567
-647
-649
-530
-367
-274
-294
-382
-464
-507
-514
-503
-485
-466
-450
-421
-340
-194
-34
69
87
60
44
42
17
-30
-35
51
173
209
99
-74
-176
-168
-146
-214
-346
-414
-338
-172
-36
11
10
28
76
109
96
54
30
48
98
164
248
361
481
559
558
510
500
587
733
846
879
865
860
860
810
686
533
404
313
245
220
274
390
482
496
474
499
580
632
589
490
420
387
325
212
134
177
288
318
180
-35
-166
-163
-119
-138
-216
-284
-316
-351
-408
-438
-387
-288
-234
-268
-332
-336
-269
-201
-203
-270
-338
-356
-318
-265
-235
-240
-255
-243
-176
-67
35
74
32
-56
-138
-180
-192
-222
-298
-402
-487
-512
-474
-409
-349
-306
-271
-236
-203
-183
-186
-207
-226
-229
-226
-243
-290
-343
-364
-343
-311
-298
-305
-312
-323
-350
-389
-409
-387
-335
-300
-300
-321
-339
-342
-322
-275
-213
-167
-168
-205
-239
-255
-289
-374
-476
-520
-471
-389
-353
-360
-343
-260
-154
-94
-92
-108
-127
-188
-312
-445
-489
-395
-189
78
375
661
879
1003
1084
1202
1344
1375
1185
828
482
265
114
-102
-414
-712
-889
-969
-1061
-1227
-1391
-1429
-1315
-1139
-1009
-940
-842
-629
-342
-132
-123
-279
-435
-465
-423
-478
-701
-945
-984
-767
-489
-375
-422
-414
-204
72
151
-48
-326
-433
-354
-280
-352
-491
-503
-303
20
309
467
488
400
234
40
-120
-228
-312
-397
-442
-375
-186
17
89
10
-74
-2
198
313
187
-73
-181
1
295
408
244
-12
-130
-97
-59
-92
-118
-50
81
202
320
499
706
768
572
244
49
93
207
174
0
-101
13
224
296
154
-57
-174
-211
-285
-405
-429
-256
3
121
11
-169
-197
-49
69
-31
-307
-530
-519
-323
-142
-123
-224
-300
-265
-167
-127
-224
-431
-624
-691
-623
-505
-428
-400
-352
-240
-119
-78
-123
-173
-152
-103
-124
-236
-332
-294
-140
-12
-17
-123
-225
-264
-286
-352
-442
-479
-426
-328
-250
-199
-134
-50
11
11
-35
-85
-117
-141
-155
-139
-98
-88
-148
-223
-213
-95
38
63
-43
-181
-246
-213
-135
-77
-77
-131
-192
-193
-114
-21
0
-61
-113
-82
-12
-12
-120
-239
-258
-181
-98
-59
-23
62
162
199
152
98
122
207
268
244
169
122
149
222
283
325
403
567
793
1008
1169
1323
1548
1829
2023
1995
1768
1492
1274
1061
736
299
-110
-382
-576
-821
-1122
-1331
-1316
-1119
-901
-751
-620
-431
-183
54
242
386
473
457
319
127
-10
-36
18
88
132
149
161
199
293
448
600
650
565
442
410
479
536
478
340
254
286
365
397
388
423
529
634
663
629
612
656
741
821
854
816
716
624
639
770
890
861
704
601
689
893
1025
1014
973
1029
1150
1208
1172
1154
1243
1376
1409
1308
1190
1197
1334
1465
1469
1368
1275
1278
1371
1478
1531
1511
1442
1358
1282
1217
1147
1054
947
862
821
805
792
797
848
915
909
778
583
446
440
525
598
599
541
490
494
546
579
513
328
93
-78
-113
-30
93
196
257
282
293
334
404
424
306
69
-132
-159
-30
106
149
152
207
316
398
408
393
408
419
360
240
145
135
186
244
302
380
459
489
459
427
444
472
430
302
196
226
353
390
230
13
-10
228
508
565
378
191
208
359
425
337
256
344
526
594
475
333
368
563
699
615
392
250
299
427
450
323
180
157
234
270
213
168
253
418
481
354
181
189
402
594
546
336
242
413
696
849
833
842
1033
1348
1611
1758
1872
2010
2087
1992
1769
1560
1422
1241
879
372
-112
-456
-704
-947
-1166
-1237
-1096
-841
-626
-494
-342
-77
253
487
529
446
383
415
479
474
389
323
365
496
578
508
326
174
144
180
150
17
-83
7
263
470
457
299
219
323
473
481
343
221
247
375
481
520
532
532
486
381
265
189
145
107
89
127
207
263
265
277
347
425
424
361
357
484
644
699
651
635
740
899
998
1013
984
911
773
628
619
791
985
1009
863
731
741
819
817
719
633
608
579
491
394
371
419
459
462
473
515
536
488
418
402
435
424
314
170
93
90
72
-16
-126
-167
-115
-27
40
81
134
227
339
437
509
552
555
504
411
330
309
342
369
338
259
187
175
233
337
429
453
397
315
280
310
339
301
207
141
167
253
335
391
444
501
523
479
403
351
324
256
112
-31
-47
92
291
436
513
603
739
839
799
634
472
430
490
555
568
561
590
653
701
712
696
650
548
383
220
142
165
221
247
249
268
293
256
137
9
-37
13
72
62
15
17
110
236
290
226
78
-80
-194
-237
-196
-46
227
608
1047
1490
1900
2233
2451
2539
2524
2466
2395
2251
1934
1440
885
395
-18
-439
-917
-1349
-1573
-1535
-1336
-1101
-837
-464
35
534
842
870
707
508
348
172
-114
-479
-750
-767
-545
-253
-46
67
170
308
450
569
648
626
410
23
-337
-418
-175
132
186
-49
-271
-155
327
832
960
622
122
-113
39
271
180
-277
-694
-648
-171
304
431
329
387
772
1209
1334
1101
786
640
627
547
317
79
18
135
277
331
350
465
687
840
755
499
318
384
600
708
591
398
358
522
724
784
698
596
575
614
638
601
511
380
242
162
186
271
316
288
265
340
481
566
532
441
381
354
297
206
152
165
169
88
-21
-21
118
253
230
82
-14
38
141
139
24
-69
-38
71
143
141
126
158
211
249
301
424
604
728
685
504
344
333
440
514
462
357
333
410
478
451
402
474
685
870
859
691
571
632
782
837
749
646
657
756
828
826
805
814
816
753
640
551
526
530
519
496
488
501
532
582
636
634
519
334
229
313
505
602
500
322
274
406
556
560
445
377
434
508
462
323
270
406
614
687
569
419
424
612
857
1048
1187
1318
1433
1494
1506
1521
1552
1531
1386
1139
889
685
471
168
-211
-560
-786
-908
-1013
-1134
-1201
-1118
-876
-569
-315
-145
-7
143
283
355
343
294
273
298
338
359
357
340
313
286
282
319
379
419
415
397
405
431
426
366
299
306
417
569
670
685
664
671
705
695
571
335
63
-169
-329
-415
-404
-250
48
391
633
693
628
560
548
536
422
191
-49
-157
-83
112
329
515
663
772
827
824
780
720
660
612
592
617
685
760
803
810
815
847
901
938
915
809
647
494
414
427
497
582
671
780
904
1014
1086
1122
1139
1126
1039
840
540
206
-69
-207
-210
-150
-119
-149
-181
-138
-26
68
66
-30
-148
-229
-263
-269
-264
-261
-265
-268
-247
-203
-169
-180
-228
-260
-237
-188
-168
-183
-177
-115
-34
0
-16
-17
57
188
291
307
248
164
100
73
73
71
42
-7
-39
-29
-1
-1
-28
-19
71
199
276
265
217
204
238
276
274
223
135
34
-50
-88
-91
-100
-133
-150
-94
25
129
155
134
147
226
314
322
236
133
99
141
185
166
98
57
88
148
145
46
-67
-70
74
266
352
270
111
38
131
314
446
475
489
604
825
1049
1186
1259
1334
1417
1440
1360
1212
1039
811
467
22
-402
-687
-846
-982
-1152
-1292
-1296
-1137
-887
-641
-450
-310
-202
-129
-110
-160
-253
-337
-368
-360
-356
-362
-321
-187
-3
110
84
-9
-40
30
102
64
-73
-191
-199
-133
-87
-103
-147
-169
-167
-163
-162
-152
-129
-114
-124
-142
-139
-98
-33
36
101
165
220
248
243
218
198
197
203
185
135
76
39
29
28
30
54
122
215
274
269
259
335
515
702
784
764
752
814
883
838
668
484
395
371
306
166
36
13
93
199
275
340
415
473
465
391
312
277
280
293
300
310
321
315
270
198
132
82
38
-21
-91
-140
-128
-33
123
273
344
327
294
313
352
291
66
-225
-401
-395
-333
-386
-570
-715
-672
-481
-305
-259
-309
-360
-373
-376
-392
-394
-358
-296
-243
-205
-140
-21
123
211
182
45
-138
-303
-429
-526
-598
-631
-614
-549
-437
-274
-73
95
131
18
-158
-264
-254
-183
-131
-109
-62
57
228
384
480
530
553
535
421
175
-152
-438
-581
-605
-625
-701
-787
-787
-666
-479
-302
-167
-81
-62
-121
-228
-341
-440
-545
-663
-736
-684
-502
-297
-220
-302
-390
-262
123
511
581
327
119
340
958
1560
1819
1803
1788
1855
1830
1568
1131
675
224
-298
-860
-1302
-1551
-1734
-1980
-2217
-2278
-2128
-1945
-1868
-1808
-1594
-1206
-824
-627
-603
-606
-530
-391
-277
-259
-364
-558
-747
-811
-690
-443
-231
-184
-291
-393
-307
-2
342
476
304
-12
-205
-173
-60
-94
-355
-701
-912
-891
-694
-452
-270
-192
-201
-216
-146
2
101
34
-134
-204
-64
162
243
135
54
210
521
684
513
156
-82
-71
42
54
-42
-86
34
255
428
487
484
477
453
352
181
34
14
148
347
479
496
454
453
518
587
591
510
370
198
45
-12
76
252
389
399
333
304
340
348
253
113
50
88
114
37
-92
-154
-111
-51
-40
-29
61
197
227
69
-148
-200
-39
139
100
-148
-354
-318
-100
78
109
72
76
82
-14
-191
-305
-284
-235
-308
-482
-598
-564
-464
-401
-365
-305
-259
-297
-371
-307
-49
215
253
97
8
128
284
236
41
-14
189
414
363
87
-70
81
340
383
161
-68
-70
102
229
221
175
203
269
256
138
23
12
70
95
20
-117
-213
-194
-66
105
239
270
192
69
1
48
140
132
-50
-309
-422
-248
103
355
319
80
-83
17
292
490
477
353
314
431
621
799
984
1211
1417
1480
1371
1191
1019
777
342
-241
-754
-1035
-1148
-1280
-1484
-1588
-1415
-1012
-625
-441
-414
-352
-160
55
150
130
118
188
250
173
-17
-124
0
279
476
469
332
203
144
141
188
288
375
324
113
-97
-111
77
279
326
248
210
298
443
535
535
472
390
325
301
315
322
286
259
322
458
562
558
499
502
590
689
723
716
731
774
823
918
1128
1416
1611
1593
1448
1398
1533
1671
1561
1185
776
560
545
582
592
629
748
884
925
872
851
934
1016
935
681
421
328
402
514
576
617
703
820
876
837
780
788
836
811
654
437
302
302
339
279
100
-93
-172
-131
-77
-100
-186
-237
-190
-85
-5
3
-36
-59
-43
-27
-60
-125
-151
-84
45
143
140
60
-20
-45
-23
4
29
59
83
84
75
99
193
324
390
329
189
83
77
122
126
65
1
4
73
149
185
176
137
83
43
44
85
124
113
59
33
77
141
144
76
14
29
88
89
-7
-124
-143
-28
121
167
92
-9
-36
22
91
103
59
21
25
53
53
12
-10
62
233
414
505
520
566
699
853
914
847
755
741
788
833
889
1038
1287
1502
1566
1544
1604
1779
1877
1718
1375
1125
1137
1264
1209
852
360
-2
-136
-172
-293
-540
-812
-960
-900
-641
-249
167
493
682
785
903
1063
1140
984
627
290
178
263
332
257
141
175
393
633
740
725
712
753
769
680
513
365
292
258
201
101
-26
-124
-122
9
199
323
323
275
311
469
655
745
698
567
432
350
331
334
293
193
120
198
446
716
840
813
782
851
959
988
929
879
902
940
924
880
887
934
920
786
612
533
576
636
590
449
362
469
737
954
925
695
536
661
968
1142
1010
754
673
795
845
593
126
-292
-561
-822
-1188
-1542
-1682
-1600
-1469
-1417
-1379
-1213
-885
-495
-165
80
275
490
774
1109
1356
1346
1043
599
213
-48
-273
-553
-850
-1050
-1091
-1007
-877
-769
-688
-595
-457
-315
-273
-410
-674
-895
-940
-839
-727
-702
-734
-738
-698
-661
-660
-673
-673
-655
-652
-702
-815
-920
-910
-740
-506
-382
-435
-521
-445
-191
23
-7
-249
-486
-575
-593
-696
-906
-1100
-1198
-1246
-1299
-1293
-1118
-792
-503
-398
-407
-340
-138
29
-54
-377
-699
-811
-735
-662
-711
-808
-805
-673
-534
-518
-610
-699
-705
-677
-710
-817
-915
-908
-758
-508
-236
-6
146
247
367
562
796
951
915
713
498
406
400
291
-76
-656
-1218
-1547
-1614
-1571
-1592
-1717
-1828
-1774
-1507
-1133
-825
-679
-650
-614
-513
-413
-423
-551
-657
-602
-414
-270
-292
-413
-467
-397
-299
-284
-348
-397
-381
-325
-260
-165
-27
103
141
71
-50
-160
-239
-293
-332
-377
-456
-543
-544
-385
-138
11
-32
-158
-178
-42
122
176
126
80
100
152
215
315
459
571
557
433
326
321
383
425
409
363
316
268
221
202
235
278
270
216
199
288
442
546
523
418
342
353
407
423
365
264
175
122
81
21
-60
-146
-229
-320
-424
-497
-488
-408
-328
-316
-362
-393
-358
-273
-182
-116
-86
-116
-220
-339
-369
-271
-145
-138
-263
-379
-367
-302
-378
-674
-1044
-1272
-1303
-1278
-1345
-1481
-1533
-1422
-1224
-1076
-1026
-1019
-991
-953
-951
-1000
-1061
-1073
-1006
-872
-709
-548
-399
-273
-194
-203
-305
-411
-372
-109
275
568
650
596
553
559
505
274
-126
-570
-939
-1180
-1286
-1256
-1112
-908
-713
-562
-453
-376
-307
-223
-139
-135
-296
-593
-869
-989
-974
-968
-1038
-1090
-982
-695
-378
-202
-210
-311
-385
-391
-392
-486
-713
-973
-1089
-955
-651
-366
-221
-176
-126
-53
-67
-244
-494
-607
-462
-161
78
162
219
435
800
1085
1087
853
637
588
588
409
3
-442
-729
-857
-960
-1070
-1067
-858
-523
-229
-31
155
379
542
499
243
-76
-332
-545
-790
-1032
-1129
-1002
-756
-574
-518
-483
-363
-194
-111
-191
-385
-590
-759
-894
-999
-1066
-1094
-1084
-1026
-893
-696
-503
-368
-268
-143
-4
44
-80
-317
-516
-588
-581
-571
-537
-394
-144
78
155
138
187
346
465
360
49
-252
-350
-254
-124
-69
-49
40
217
404
511
517
475
441
432
445
476
518
555
568
563
573
616
671
692
658
599
549
499
427
356
350
430
524
521
387
202
64
-13
-77
-155
-221
-249
-253
-261
-268
-233
-133
1
96
84
-48
-243
-405
-476
-507
-604
-778
-903
-834
-590
-353
-259
-251
-182
-6
170
235
206
157
93
-40
-216
-304
-230
-102
-103
-270
-435
-416
-225
-34
24
-25
-82
-100
-102
-104
-85
-37
-2
-26
-100
-166
-196
-205
-223
-238
-228
-185
-131
-90
-75
-94
-153
-231
-274
-238
-135
-33
10
-5
-31
-22
34
107
142
95
-28
-168
-247
-245
-214
-213
-241
-250
-210
-148
-117
-139
-189
-236
-264
-267
-259
-280
-380
-548
-696
-724
-629
-533
-564
-726
-879
-873
-687
-444
-274
-188
-78
167
536
898
1132
1233
1292
1368
1413
1332
1108
837
621
452
225
-128
-534
-849
-1019
-1148
-1381
-1727
-2003
-1995
-1663
-1181
-772
-508
-281
31
412
731
872
828
668
452
215
2
-124
-129
-42
64
149
235
353
491
587
586
491
339
174
27
-89
-176
-248
-290
-263
-139
40
184
246
304
466
717
891
853
661
509
508
562
485
233
-49
-179
-129
-9
99
195
303
398
415
353
277
237
201
105
-29
-102
-57
55
127
157
250
476
730
791
561
209
5
70
275
410
401
347
364
444
485
424
275
90
-119
-364
-629
-848
-938
-884
-752
-610
-498
-444
-474
-573
-652
-632
-556
-571
-753
-960
-962
-718
-469
-484
-756
-1002
-1013
-890
-889
-1094
-1316
-1323
-1118
-916
-880
-957
-1000
-961
-929
-973
-1031
-974
-789
-617
-600
-728
-858
-879
-833
-854
-984
-1123
-1139
-1031
-918
-894
-916
-864
-696
-504
-454
-606
-844
-965
-881
-724
-685
-787
-836
-650
-281
-2
-27
-278
-479
-468
-355
-342
-489
-659
-708
-632
-505
-330
-59
259
422
259
-153
-531
-661
-616
-648
-881
-1162
-1238
-1032
-695
-421
-266
-146
15
174
223
120
-64
-193
-216
-193
-221
-332
-451
-459
-311
-92
76
136
117
85
90
147
246
360
458
538
619
745
931
1152
1346
1448
1415
1247
989
697
395
87
-215
-502
-765
-991
-1155
-1220
-1172
-1052
-912
-757
-552
-298
-68
77
183
354
602
799
810
653
492
469
555
610
549
430
368
405
488
544
545
516
502
509
518
521
511
480
447
452
521
623
690
691
681
741
858
924
888
821
822
869
835
684
562
635
871
1062
1063
951
909
992
1087
1080
997
939
939
943
917
893
925
1010
1090
1151
1233
1359
1487
1543
1483
1325
1140
1023
1031
1142
1257
1264
1151
1043
1074
1251
1431
1467
1338
1147
1004
948
963
1026
1091
1083
960
782
686
737
838
823
667
511
482
545
567
514
489
551
570
388
53
-193
-190
-52
-34
-226
-448
-476
-303
-104
-23
-51
-119
-198
-277
-303
-214
-42
87
75
-45
-151
-157
-84
-3
27
-14
-115
-221
-238
-111
85
197
146
22
-2
113
226
196
85
76
235
409
411
275
202
284
363
252
5
-138
-79
25
-15
-139
-111
150
427
450
224
15
10
95
29
-243
-510
-538
-337
-134
-111
-223
-278
-176
-14
37
-64
-222
-316
-316
-268
-205
-122
-27
43
76
108
165
223
248
248
269
316
327
270
203
220
332
455
533
616
768
962
1096
1135
1155
1223
1274
1179
918
602
342
101
-235
-661
-1016
-1159
-1134
-1115
-1177
-1203
-1033
-688
-372
-248
-276
-273
-135
52
123
35
-110
-181
-134
-30
60
104
99
47
-36
-115
-157
-155
-136
-132
-136
-104
-2
168
338
406
314
129
-1
19
131
157
-35
-362
-580
-485
-128
207
251
44
-84
91
404
498
275
18
42
287
398
179
-170
-311
-148
164
450
632
650
459
189
153
510
1012
1210
956
575
501
791
1108
1140
917
654
496
419
360
304
265
253
283
372
467
459
318
171
172
308
376
223
-65
-236
-121
180
412
422
261
75
-71
-202
-310
-337
-259
-149
-113
-147
-115
74
299
318
66
-259
-398
-337
-299
-436
-608
-570
-328
-159
-260
-454
-390
-23
285
204
-159
-385
-234
110
309
251
81
-44
-125
-214
-272
-238
-147
-134
-257
-376
-293
-3
274
319
147
-24
-13
118
162
11
-229
-385
-419
-414
-421
-371
-190
70
267
350
405
522
651
647
464
227
86
49
-2
-125
-220
-153
56
217
176
-9
-137
-91
40
79
-22
-141
-163
-102
-50
-42
-28
12
18
-69
-208
-300
-306
-272
-269
-322
-416
-545
-677
-724
-590
-301
-26
76
41
65
291
621
825
798
702
790
1118
1470
1608
1515
1350
1184
875
303
-360
-729
-590
-140
240
438
678
1174
1789
2141
2007
1519
935
337
-338
-1067
-1652
-1913
-1858
-1673
-1520
-1422
-1316
-1194
-1107
-1110
-1208
-1365
-1526
-1653
-1734
-1790
-1830
-1803
-1637
-1316
-938
-638
-454
-301
-97
142
299
278
92
-174
-443
-682
-860
-911
-787
-547
-343
-307
-426
-561
-576
-488
-450
-580
-805
-919
-801
-560
-428
-500
-619
-540
-206
185
389
356
237
195
244
280
201
-32
-394
-797
-1089
-1150
-994
-770
-611
-519
-400
-221
-59
-7
-64
-154
-227
-294
-384
-500
-611
-658
-585
-396
-227
-285
-631
-1045
-1211
-1059
-850
-882
-1134
-1281
-1090
-692
-428
-468
-663
-790
-804
-841
-986
-1160
-1229
-1172
-1091
-1081
-1111
-1074
-925
-747
-675
-769
-971
-1163
-1283
-1349
-1394
-1383
-1266
-1066
-872
-735
-606
-400
-149
-30
-199
-605
-1011
-1195
-1140
-1014
-980
-1034
-1038
-893
-634
-375
-207
-136
-151
-252
-390
-449
-364
-232
-245
-470
-730
-789
-632
-486
-563
-806
-983
-962
-822
-711
-653
-562
-415
-312
-350
-482
-556
-486
-358
-327
-438
-573
-608
-550
-510
-559
-634
-622
-523
-434
-417
-436
-442
-468
-596
-819
-1010
-1057
-993
-955
-1010
-1093
-1099
-999
-826
-608
-348
-79
145
306
453
650
888
1058
1042
818
476
151
-84
-280
-558
-973
-1411
-1648
-1572
-1328
-1218
-1403
-1712
-1813
-1577
-1228
-1082
-1195
-1333
-1269
-1041
-862
-824
-822
-747
-652
-669
-795
-865
-770
-607
-564
-693
-877
-968
-957
-935
-935
-892
-764
-612
-551
-613
-711
-741
-700
-671
-712
-777
-791
-742
-678
-638
-594
-503
-381
-314
-357
-478
-602
-684
-719
-713
-658
-571
-505
-481
-454
-370
-259
-217
-298
-437
-516
-495
-439
-422
-435
-406
-293
-134
-2
82
152
224
252
186
37
-114
-190
-191
-208
-198
-248
-313
-389
-453
-428
-249
56
352
511
528
492
454
373
181
-132
-514
-912
-1298
-1624
-1811
-1808
-1640
-1398
-1171
-991
-845
-718
-609
-528
-505
-575
-718
-845
-851
-715
-541
-464
-520
-605
-586
-456
-350
-413
-636
-854
-897
-757
-586
-539
-621
-710
-683
-532
-344
-200
-114
-73
-80
-153
-275
-368
-370
-292
-201
-153
-130
-79
21
138
234
313
402
487
507
416
248
100
36
25
0
-52
-59
38
202
319
322
269
273
370
475
471
340
176
82
77
104
107
81
39
-20
-90
-139
-126
-63
-5
11
16
63
147
197
173
116
101
139
165
142
110
138
235
338
380
358
317
295
295
310
348
444
619
854
1089
1260
1358
1434
1521
1574
1514
1320
1063
814
550
201
-240
-669
-984
-1199
-1401
-1610
-1736
-1681
-1468
-1222
-1043
-931
-816
-653
-451
-260
-137
-131
-242
-403
-514
-510
-432
-381
-432
-561
-675
-708
-678
-638
-603
-525
-372
-195
-110
-178
-337
-453
-453
-387
-353
-395
-460
-473
-402
-277
-143
-33
31
44
19
-17
-40
-43
-26
14
66
102
98
64
56
109
199
264
268
236
222
257
323
391
444
488
534
575
594
582
551
527
520
523
530
554
617
706
767
770
753
782
875
974
1004
956
880
819
770
712
642
574
511
456
426
432
446
413
317
220
196
245
291
265
177
85
26
2
2
14
5
-64
-177
-242
-184
-38
63
26
-87
-123
-12
151
208
121
6
18
181
373
448
379
258
202
251
358
443
459
404
317
237
182
134
84
50
57
100
139
145
133
148
219
310
353
297
146
-20
-101
-45
96
208
216
157
139
203
255
169
-71
-351
-532
-582
-535
-419
-254
-92
-21
-68
-143
-167
-190
-336
-615
-848
-851
-625
-313
-15
278
552
684
559
239
-54
-161
-136
-152
-295
-493
-583
-451
-117
260
481
448
250
75
9
-23
-125
-265
-294
-137
124
357
508
614
708
762
755
692
580
417
224
51
-84
-251
-532
-911
-1268
-1504
-1642
-1779
-1959
-2122
-2170
-2070
-1865
-1609
-1339
-1082
-881
-764
-728
-738
-761
-786
-818
-853
-880
-885
-857
-777
-634
-466
-355
-356
-445
-530
-540
-494
-463
-494
-572
-649
-695
-705
-674
-597
-491
-408
-394
-437
-470
-452
-411
-404
-448
-491
-484
-435
-393
-371
-332
-258
-195
-212
-294
-341
-288
-188
-151
-207
-265
-230
-113
-14
10
-5
5
29
8
-60
-95
-32
81
131
78
10
39
170
296
323
277
255
289
304
227
89
0
30
128
185
174
173
268
442
589
614
511
333
133
-60
-241
-405
-556
-715
-883
-1019
-1057
-975
-841
-762
-789
-872
-920
-874
-762
-670
-659
-727
-828
-909
-953
-971
-965
-919
-830
-731
-678
-703
-769
-790
-698
-518
-354
-303
-378
-490
-529
-458
-349
-309
-370
-477
-569
-642
-710
-733
-639
-438
-272
-277
-433
-544
-446
-210
-82
-215
-508
-716
-710
-576
-469
-451
-472
-479
-465
-441
-395
-341
-340
-450
-621
-705
-619
-466
-425
-545
-698
-715
-571
-391
-325
-422
-622
-815
-902
-848
-704
-568
-522
-564
-630
-659
-627
-551
-485
-503
-618
-722
-654
-379
-92
-36
-248
-492
-520
-340
-152
-105
-140
-117
17
206
408
627
807
817
613
326
139
57
-116
-525
-1042
-1383
-1421
-1314
-1299
-1423
-1517
-1401
-1100
-785
-581
-463
-336
-175
-47
-15
-53
-73
-45
-21
-59
-123
-119
-20
82
78
-24
-99
-57
49
89
19
-59
-21
110
188
125
21
30
158
239
148
-6
-1
198
364
266
-36
-236
-141
103
208
92
-53
-29
143
302
383
452
561
652
666
649
705
832
910
861
748
695
739
806
822
801
811
867
932
989
1057
1127
1137
1036
879
797
846
921
881
730
636
724
931
1090
1107
1050
1014
995
925
793
671
609
556
435
254
121
114
198
262
241
163
91
57
45
29
4
-37
-100
-163
-191
-168
-111
-73
-97
-170
-237
-247
-206
-177
-208
-295
-360
-323
-170
14
103
48
-52
-30
151
327
279
-20
-349
-457
-339
-229
-320
-537
-643
-526
-297
-134
-73
-16
99
212
253
254
309
411
426
260
7
-111
18
263
367
208
-112
-369
-427
-326
-212
-188
-245
-289
-239
-86
116
305
433
496
516
500
448
368
290
230
176
111
34
-26
-37
-15
6
17
51
127
209
251
270
329
437
504
431
256
155
246
447
555
477
355
398
649
946
1128
1207
1330
1560
1812
1983
2078
2179
2304
2359
2247
1996
1737
1552
1399
1186
867
480
102
-188
-331
-305
-167
-22
81
203
433
741
976
1018
919
828
823
833
763
619
507
518
636
781
883
904
848
754
680
655
663
666
654
651
677
728
773
790
762
689
609
591
662
756
775
713
683
788
970
1053
945
760
692
794
925
925
813
741
804
933
992
949
891
891
944
1012
1117
1289
1477
1561
1491
1372
1346
1414
1434
1297
1093
1020
1166
1413
1581
1615
1592
1604
1659
1706
1690
1595
1419
1196
991
886
934
1095
1269
1353
1314
1213
1140
1139
1180
1183
1081
873
630
454
431
600
891
1154
1289
1339
1431
1600
1724
1645
1346
944
510
2
-577
-1022
-1044
-576
108
651
971
1248
1602
1858
1706
1052
119
-767
-1450
-1960
-2339
-2527
-2432
-2069
-1568
-1073
-641
-278
-7
125
107
-8
-142
-223
-218
-134
-16
54
15
-113
-226
-230
-150
-95
-141
-267
-387
-442
-438
-399
-316
-188
-59
39
138
321
618
915
1022
818
387
-26
-202
-113
80
191
190
201
315
445
399
105
-292
-601
-762
-837
-826
-616
-173
342
683
754
662
510
259
-143
-594
-920
-1074
-1189
-1371
-1489
-1295
-741
-79
365
493
488
598
925
1369
1748
1939
1965
1952
1993
2048
1998
1785
1475
1180
907
577
176
-196
-440
-594
-746
-880
-875
-665
-357
-117
27
197
458
677
677
473
297
328
493
573
493
411
510
747
905
840
644
519
557
673
735
712
670
669
693
703
706
731
768
764
697
627
629
686
680
545
399
426
658
901
944
805
711
826
1067
1204
1119
904
721
638
621
636
699
810
918
975
1000
1058
1167
1267
1276
1190
1099
1097
1205
1357
1480
1573
1690
1858
2016
2054
1944
1764
1606
1467
1286
1070
924
922
1011
1060
1019
981
1045
1174
1235
1154
1003
909
905
917
867
763
685
689
767
866
930
913
808
657
537
506
536
539
450
308
224
265
387
479
471
402
362
381
407
369
273
206
236
339
420
414
345
305
351
446
498
459
391
413
598
906
1229
1477
1625
1695
1700
1628
1448
1142
733
288
-94
-329
-393
-330
-213
-94
5
83
153
238
353
470
529
487
381
312
345
460
590
697
791
879
944
976
1014
1087
1156
1131
986
787
605
439
249
45
-88
-103
-63
-41
-3
148
410
631
682
635
693
930
1180
1221
1032
790
646
584
500
380
306
339
456
607
800
1082
1430
1727
1868
1843
1723
1576
1435
1315
1220
1112
923
629
305
65
-52
-135
-287
-502
-664
-676
-554
-387
-206
25
330
648
878
991
1047
1121
1210
1249
1193
1084
1025
1085
1240
1394
1453
1379
1230
1120
1123
1210
1267
1198
1033
902
892
969
1042
1091
1189
1385
1586
1611
1395
1080
876
863
934
920
756
540
453
617
991
1372
1561
1536
1461
1492
1597
1602
1440
1247
1187
1239
1230
1081
927
940
1119
1284
1296
1195
1113
1107
1135
1171
1232
1312
1350
1281
1117
958
907
970
1069
1122
1117
1117
1191
1322
1403
1340
1176
1059
1095
1218
1274
1195
1089
1103
1238
1335
1257
1033
822
719
673
587
443
309
246
249
279
324
379
395
304
114
-61
-104
-6
127
187
174
170
240
347
398
355
283
284
357
372
198
-106
-293
-166
186
455
448
314
374
740
1173
1341
1173
900
756
746
712
555
342
198
163
181
196
217
284
390
477
480
401
316
310
401
507
531
449
336
292
349
437
461
395
305
270
298
319
271
177
121
146
204
212
165
140
201
329
442
486
474
446
423
405
384
352
300
229
143
67
42
103
225
312
283
189
197
408
697
827
742
667
863
1289
1627
1645
1454
1333
1376
1409
1254
968
740
632
516
274
-35
-261
-351
-396
-495
-630
-705
-670
-549
-384
-186
53
321
574
769
869
848
706
486
289
211
260
357
416
435
497
670
923
1140
1218
1129
914
635
355
143
62
114
220
294
336
428
638
906
1064
980
669
272
-47
-211
-238
-195
-142
-90
7
214
536
875
1081
1079
948
832
798
783
697
562
490
534
611
605
521
491
604
785
881
845
778
809
945
1051
999
800
576
438
407
423
433
451
533
699
885
983
943
828
744
719
676
550
402
390
587
876
1041
978
782
638
613
604
475
204
-102
-327
-444
-488
-462
-331
-106
116
191
87
-64
-97
36
206
221
12
-289
-468
-413
-220
-82
-97
-198
-246
-193
-100
-39
-7
39
83
50
-89
-268
-387
-423
-449
-524
-616
-643
-579
-481
-425
-431
-443
-417
-368
-350
-392
-449
-458
-406
-341
-315
-314
-265
-137
-7
0
-157
-385
-555
-623
-642
-670
-692
-654
-543
-408
-305
-239
-178
-116
-75
-86
-140
-215
-296
-378
-432
-430
-389
-377
-437
-524
-541
-461
-367
-351
-382
-343
-190
-24
23
-38
-85
-45
-1
-68
-229
-329
-243
-5
254
457
635
843
1074
1259
1323
1242
1059
850
683
562
420
178
-162
-510
-768
-914
-992
-1046
-1075
-1059
-982
-843
-641
-393
-155
10
84
111
136
153
118
20
-85
-117
-46
74
163
183
162
151
170
205
223
198
134
54
-24
-86
-117
-108
-55
30
124
202
256
297
347
389
384
314
213
138
135
205
309
401
463
509
583
707
833
858
720
486
322
343
488
590
550
440
409
507
635
674
611
536
529
583
634
651
668
741
865
957
937
810
681
661
764
890
926
872
837
908
1067
1211
1248
1171
1048
947
890
840
747
623
534
541
603
592
434
221
140
258
434
465
324
191
236
430
587
579
443
290
174
72
-21
-69
-54
-12
-2
-27
-34
5
59
103
161
249
320
287
150
44
91
244
316
192
-10
-70
67
233
236
98
26
139
321
359
208
55
82
249
340
223
16
-67
29
143
101
-73
-200
-176
-78
-36
-59
-44
67
177
173
87
61
156
252
192
-27
-247
-335
-309
-275
-275
-265
-229
-219
-271
-313
-225
-20
128
55
-200
-415
-408
-217
-44
-35
-130
-140
28
270
389
310
141
60
124
260
380
475
593
743
871
951
1035
1169
1281
1224
953
642
513
569
551
230
-287
-645
-638
-459
-477
-784
-1097
-1106
-837
-583
-527
-554
-446
-179
76
188
191
188
199
177
116
55
14
-23
-52
-28
49
93
44
-20
45
260
451
445
266
95
53
90
95
49
12
20
34
10
-21
3
87
180
231
251
282
334
378
387
343
258
158
73
11
-17
-19
-18
-42
-84
-83
20
203
352
371
313
340
525
745
802
671
539
594
803
937
827
546
318
289
421
572
647
652
640
657
703
754
793
800
760
676
575
475
382
294
224
174
140
107
58
1
-64
-144
-206
-195
-111
-49
-99
-216
-245
-130
-6
-57
-270
-441
-432
-367
-438
-609
-658
-480
-246
-189
-284
-291
-106
86
53
-169
-331
-322
-319
-518
-806
-853
-543
-143
-29
-229
-389
-225
144
340
142
-276
-561
-553
-368
-213
-150
-101
-5
111
205
274
337
402
413
312
124
-47
-115
-110
-146
-279
-420
-437
-330
-241
-291
-400
-373
-137
132
185
-12
-244
-293
-175
-104
-211
-386
-419
-248
-41
17
-62
-94
46
258
324
169
-57
-153
-82
-12
-99
-290
-399
-322
-183
-197
-415
-643
-638
-372
-35
183
276
372
549
769
976
1165
1331
1390
1256
980
741
664
660
523
161
-315
-722
-972
-1099
-1166
-1189
-1145
-1039
-895
-716
-500
-272
-70
49
50
-53
-184
-255
-243
-220
-267
-362
-377
-229
11
176
177
70
-33
-102
-179
-268
-308
-266
-195
-181
-246
-309
-294
-229
-207
-284
-397
-417
-258
31
310
494
616
775
1001
1198
1257
1177
1062
1014
1053
1146
1246
1300
1252
1073
779
393
-78
-606
-1072
-1302
-1222
-934
-598
-244
230
881
1587
2113
2300
2158
1832
1499
1286
1216
1195
1103
907
718
671
783
930
974
868
689
567
587
718
814
742
545
424
504
650
586
258
-48
-17
330
698
905
1066
1335
1603
1589
1221
760
465
264
-110
-715
-1300
-1613
-1681
-1698
-1723
-1642
-1402
-1147
-1038
-1046
-992
-809
-622
-583
-681
-770
-756
-671
-587
-543
-543
-582
-641
-672
-640
-557
-460
-388
-358
-379
-430
-432
-314
-141
-81
-211
-388
-394
-203
-27
-54
-221
-306
-208
-53
9
-5
27
138
219
189
113
113
198
260
222
136
109
179
278
321
297
259
247
266
299
332
375
427
449
410
333
278
278
306
301
242
163
103
69
55
72
124
171
162
108
92
176
319
424
465
522
677
904
1110
1235
1316
1446
1636
1792
1822
1728
1601
1502
1394
1191
878
540
263
39
-215
-541
-856
-1027
-1004
-864
-710
-573
-416
-225
-31
146
345
600
845
949
845
628
481
487
561
552
409
231
133
162
288
444
574
631
612
574
599
706
806
785
627
428
296
263
285
326
375
399
342
216
138
224
445
620
588
372
162
132
295
519
661
675
611
565
618
762
897
910
782
628
579
648
730
735
688
666
695
723
708
674
667
692
718
732
758
808
834
771
608
396
196
43
-53
-96
-106
-101
-72
17
179
356
455
424
316
221
175
143
87
15
-40
-55
-26
41
119
158
96
-53
-203
-275
-279
-278
-287
-262
-177
-80
-50
-87
-118
-100
-89
-164
-319
-456
-507
-503
-519
-567
-593
-566
-517
-499
-506
-480
-387
-258
-149
-78
-24
25
51
38
-7
-40
-28
13
40
28
-8
-28
-14
25
66
102
137
152
123
51
-26
-63
-50
-19
-11
-53
-148
-268
-351
-335
-214
-69
-11
-74
-177
-213
-176
-150
-209
-322
-397
-404
-390
-408
-444
-457
-453
-495
-616
-766
-851
-826
-712
-565
-416
-260
-82
117
284
335
214
-47
-324
-494
-519
-444
-319
-148
72
306
511
680
837
977
1031
923
664
348
71
-164
-414
-700
-966
-1152
-1265
-1359
-1454
-1481
-1360
-1123
-910
-837
-863
-835
-676
-482
-418
-535
-692
-707
-531
-274
-88
-34
-58
-75
-47
0
11
-48
-174
-322
-433
-456
-384
-269
-183
-161
-167
-135
-48
34
40
-10
-27
20
61
-1
-170
-323
-336
-210
-64
-17
-63
-102
-51
60
127
85
-28
-133
-198
-260
-345
-400
-343
-172
21
148
213
278
359
380
273
78
-77
-103
-37
7
-27
-73
-6
217
495
684
720
675
664
717
763
732
646
587
590
619
614
564
501
438
354
240
126
61
54
54
-2
-122
-244
-292
-246
-152
-64
1
52
73
16
-121
-248
-267
-201
-195
-351
-576
-662
-535
-359
-359
-550
-710
-643
-404
-228
-242
-332
-302
-110
94
156
81
-17
-60
-68
-84
-97
-71
-16
20
14
12
61
143
195
182
132
77
12
-101
-260
-395
-431
-358
-251
-207
-262
-356
-366
-217
43
247
243
40
-193
-293
-268
-261
-351
-439
-391
-232
-134
-213
-376
-428
-315
-179
-161
-235
-257
-162
-40
-5
-60
-118
-127
-143
-222
-331
-380
-330
-240
-205
-261
-355
-420
-450
-511
-637
-764
-775
-596
-273
34
213
319
512
864
1220
1313
1027
519
88
-133
-317
-719
-1349
-1931
-2156
-1996
-1701
-1525
-1498
-1471
-1339
-1171
-1098
-1170
-1334
-1523
-1703
-1848
-1900
-1811
-1616
-1409
-1236
-1047
-805
-604
-592
-799
-1069
-1186
-1114
-1020
-1056
-1154
-1098
-807
-460
-306
-405
-590
-669
-654
-702
-902
-1153
-1293
-1258
-1120
-974
-841
-699
-550
-437
-396
-420
-491
-614
-784
-936
-972
-860
-687
-589
-617
-697
-726
-686
-645
-680
-797
-927
-985
-915
-727
-500
-340
-291
-298
-256
-135
-11
17
-68
-204
-327
-434
-541
-638
-708
-749
-785
-814
-806
-737
-629
-536
-493
-497
-522
-563
-623
-711
-815
-899
-926
-889
-829
-807
-846
-909
-949
-974
-1034
-1148
-1262
-1291
-1201
-1051
-953
-973
-1078
-1174
-1186
-1126
-1082
-1113
-1185
-1208
-1161
-1118
-1155
-1245
-1271
-1172
-1036
-1021
-1160
-1309
-1288
-1081
-854
-770
-802
-791
-648
-481
-466
-610
-733
-682
-540
-544
-777
-1054
-1110
-913
-704
-698
-850
-937
-853
-699
-635
-674
-692
-616
-531
-555
-682
-776
-730
-602
-541
-615
-726
-726
-596
-482
-508
-624
-657
-529
-350
-272
-312
-356
-348
-356
-447
-547
-519
-381
-328
-492
-760
-898
-839
-748
-784
-887
-870
-691
-512
-484
-572
-626
-588
-554
-612
-724
-761
-650
-433
-186
53
282
522
786
1068
1300
1366
1227
981
769
594
320
-152
-733
-1202
-1455
-1600
-1782
-1977
-2044
-1932
-1752
-1628
-1530
-1348
-1076
-859
-812
-873
-870
-751
-645
-677
-807
-887
-841
-763
-788
-915
-1033
-1054
-1000
-948
-906
-828
-702
-594
-602
-730
-865
-887
-794
-701
-706
-801
-906
-943
-910
-853
-807
-780
-767
-757
-736
-691
-636
-620
-657
-689
-649
-546
-466
-471
-512
-486
-363
-235
-204
-276
-356
-374
-364
-403
-519
-640
-669
-583
-445
-355
-364
-420
-405
-253
-34
89
28
-134
-209
-94
114
229
169
22
-55
0
114
166
93
-72
-245
-340
-321
-239
-195
-259
-398
-506
-504
-402
-293
-263
-325
-442
-577
-710
-829
-906
-928
-924
-929
-937
-903
-805
-683
-609
-598
-603
-592
-603
-689
-823
-909
-878
-762
-658
-611
-573
-481
-350
-262
-273
-358
-425
-413
-346
-312
-361
-448
-481
-427
-335
-289
-321
-390
-443
-460
-455
-442
-407
-329
-224
-137
-123
-172
-203
-155
-63
-33
-110
-216
-236
-169
-143
-239
-361
-350
-208
-116
-208
-409
-520
-467
-378
-402
-526
-604
-545
-424
-368
-410
-478
-483
-422
-369
-382
-442
-474
-433
-348
-281
-269
-279
-245
-141
-30
-12
-127
-295
-361
-246
-25
175
314
482
752
1065
1294
1416
1534
1708
1823
1697
1320
924
732
700
566
171
-354
-746
-894
-943
-1071
-1266
-1358
-1237
-989
-769
-629
-491
-284
-73
20
-41
-158
-218
-211
-213
-259
-282
-190
2
188
288
313
314
305
258
169
86
63
93
120
99
42
11
70
219
387
478
451
355
293
318
382
400
361
336
390
501
592
620
609
597
583
542
471
388
308
232
168
141
164
222
292
367
445
499
504
472
448
459
492
530
587
675
749
758
730
764
904
1062
1110
1035
963
1003
1128
1214
1208
1171
1180
1224
1227
1150
1036
969
998
1105
1210
1243
1196
1138
1149
1241
1335
1362
1326
1288
1266
1215
1111
999
940
925
881
770
630
523
471
454
468
513
566
587
588
635
752
851
805
619
472
508
653
692
538
370
403
602
712
578
358
321
488
619
533
342
319
552
844
963
906
840
870
924
897
798
715
674
613
504
459
633
1044
1526
1918
2208
2485
2747
2835
2606
2106
1549
1082
661
169
-352
-687
-690
-477
-330
-410
-608
-695
-618
-553
-702
-1062
-1397
-1450
-1167
-734
-391
-232
-172
-96
-21
-48
-214
-456
-692
-867
-947
-882
-661
-375
-126
112
477
1000
1479
1663
1557
1453
1595
1887
1995
1739
1276
880
630
388
23
-418
-789
-1032
-1194
-1319
-1362
-1271
-1058
-787
-524
-297
-120
-33
-48
-111
-150
-137
-102
-89
-102
-96
-34
46
67
7
-57
-24
99
187
124
-30
-68
150
515
763
744
566
456
493
536
428
196
-3
-71
-61
-74
-123
-152
-136
-93
-16
107
236
274
187
76
74
180
247
181
66
58
188
316
321
237
178
181
172
118
87
151
262
313
288
278
344
403
339
184
112
223
396
435
332
301
530
928
1213
1207
1007
854
863
938
929
810
677
617
612
608
608
657
741
772
677
500
368
374
483
583
594
527
440
374
346
350
353
287
105
-105
-172
-21
201
258
81
-137
-150
59
262
250
54
-126
-160
-97
-53
-57
-50
3
56
54
0
-50
-49
-7
43
78
92
91
87
103
160
251
345
408
422
394
335
274
263
325
417
455
399
301
253
279
305
256
160
114
171
273
328
305
253
231
244
267
286
293
275
231
195
220
315
430
509
566
673
860
1077
1235
1299
1316
1334
1324
1207
947
609
303
74
-116
-314
-482
-522
-377
-83
244
518
719
890
1076
1275
1428
1457
1327
1089
850
692
589
444
172
-234
-707
-1142
-1427
-1484
-1329
-1068
-810
-535
-109
543
1272
1796
1973
1926
1874
1855
1691
1236
603
83
-160
-195
-194
-219
-215
-153
-94
-92
-115
-100
-60
-77
-182
-300
-334
-268
-157
-39
103
286
478
626
689
668
585
495
465
530
636
687
648
601
640
757
849
838
739
625
531
451
408
473
675
943
1161
1263
1263
1208
1116
998
907
911
1040
1251
1479
1689
1898
2123
2329
2425
2301
1907
1324
728
284
39
-86
-183
-247
-195
10
275
454
489
454
453
512
574
580
541
508
498
491
462
408
334
232
116
34
34
115
214
253
204
103
9
-71
-183
-377
-641
-883
-992
-917
-694
-413
-162
20
145
251
370
485
524
413
169
-95
-247
-264
-234
-244
-286
-274
-171
-46
23
30
46
112
176
165
87
25
29
53
29
-32
-41
54
191
248
175
53
1
45
110
111
44
-35
-100
-177
-291
-399
-417
-312
-160
-67
-54
-27
104
285
354
211
-55
-261
-329
-357
-478
-673
-776
-665
-411
-202
-141
-164
-154
-95
-69
-122
-202
-244
-260
-314
-411
-467
-394
-204
18
188
286
342
388
442
505
555
554
487
388
311
269
207
55
-196
-486
-753
-981
-1199
-1420
-1628
-1805
-1932
-1959
-1832
-1547
-1198
-909
-735
-628
-533
-461
-448
-468
-461
-414
-402
-465
-529
-479
-322
-213
-271
-420
-491
-427
-327
-283
-265
-202
-136
-171
-295
-344
-221
-47
-23
-160
-246
-124
74
83
-175
-484
-604
-555
-543
-669
-790
-720
-476
-245
-139
-79
60
264
402
391
292
204
158
134
131
181
298
454
603
721
790
778
677
534
429
390
360
250
42
-180
-304
-282
-176
-92
-83
-112
-104
-35
48
99
125
150
129
-16
-283
-547
-658
-618
-575
-640
-753
-757
-586
-348
-189
-134
-137
-186
-331
-579
-823
-960
-1008
-1074
-1202
-1276
-1152
-855
-619
-646
-881
-1074
-1057
-935
-943
-1142
-1319
-1214
-841
-475
-359
-465
-577
-588
-612
-806
-1122
-1315
-1204
-871
-564
-444
-476
-496
-405
-253
-184
-314
-606
-864
-874
-591
-209
10
-17
-126
-120
-17
17
-110
-298
-395
-394
-413
-497
-525
-383
-168
-89
-230
-459
-618
-735
-928
-1155
-1192
-909
-497
-306
-457
-696
-687
-385
-70
-48
-326
-635
-722
-572
-377
-312
-375
-433
-383
-242
-117
-83
-127
-210
-310
-419
-487
-426
-202
100
341
472
604
866
1237
1499
1430
1036
562
245
84
-124
-536
-1071
-1488
-1655
-1656
-1670
-1758
-1816
-1733
-1521
-1281
-1078
-909
-749
-602
-476
-359
-247
-172
-185
-278
-376
-404
-352
-265
-190
-151
-145
-134
-72
38
105
19
-215
-442
-490
-345
-144
0
98
210
338
437
489
516
515
437
270
99
40
124
276
412
508
564
566
515
454
426
407
324
159
4
-19
116
322
492
584
626
667
728
778
772
716
676
726
878
1079
1254
1367
1417
1434
1451
1471
1463
1390
1265
1170
1152
1146
1046
869
785
933
1224
1413
1349
1125
964
979
1102
1192
1160
1008
807
671
685
814
911
861
701
585
601
669
654
533
397
339
352
369
365
350
312
255
209
207
231
208
112
17
0
41
67
77
162
356
541
563
431
319
344
421
392
243
129
163
275
319
273
258
367
543
648
613
477
329
236
226
286
378
438
442
445
498
590
654
632
530
410
327
302
312
317
283
227
215
291
413
478
446
391
408
470
466
366
284
363
578
733
678
477
354
429
601
665
532
311
179
201
289
321
285
264
348
536
755
967
1185
1418
1609
1702
1724
1770
1871
1927
1805
1490
1105
763
468
152
-230
-635
-984
-1187
-1184
-992
-712
-465
-274
-69
163
320
296
159
106
218
343
277
49
-102
-12
239
418
406
284
175
126
128
190
302
389
379
306
285
362
430
352
158
11
26
134
212
228
254
349
477
561
585
590
611
655
725
822
912
926
836
714
650
659
663
605
510
449
472
595
809
1051
1203
1168
1025
985
1139
1316
1265
986
762
816
1034
1123
1010
939
1112
1397
1470
1235
947
899
1056
1127
943
671
588
744
912
878
670
518
578
777
917
879
718
570
516
520
497
415
318
278
313
362
350
278
230
294
436
532
492
366
282
290
307
242
118
73
189
392
523
509
413
353
372
429
462
435
368
317
331
417
525
574
533
456
435
489
534
471
321
214
256
412
523
500
415
400
500
633
688
646
567
507
470
440
433
461
513
571
618
644
626
553
462
416
422
417
336
205
124
149
237
314
377
478
628
748
745
609
423
288
235
204
137
65
72
197
366
457
454
482
619
753
677
374
99
150
528
936
1121
1148
1262
1578
1950
2167
2155
1987
1742
1447
1135
864
647
413
95
-265
-534
-630
-583
-497
-438
-401
-350
-250
-84
140
370
538
609
612
600
596
602
634
716
818
871
839
774
768
832
895
895
847
776
657
473
303
302
510
759
838
735
663
816
1130
1360
1344
1145
945
861
881
924
936
905
847
801
797
825
828
748
581
398
296
347
552
841
1123
1344
1520
1689
1853
1954
1930
1789
1615
1504
1508
1604
1711
1776
1804
1837
1870
1846
1724
1535
1339
1144
922
705
623
764
1045
1261
1291
1211
1166
1192
1198
1096
875
576
252
1
-48
149
461
662
629
447
275
161
30
-187
-428
-564
-545
-444
-322
-144
156
522
746
648
269
-148
-393
-499
-646
-908
-1121
-1036
-595
-1
489
759
856
877
865
812
716
589
464
377
370
452
560
613
594
562
590
671
730
706
641
628
720
846
875
752
569
464
470
486
403
236
121
173
366
545
565
421
236
142
148
139
26
-168
-334
-386
-319
-197
-92
-42
-48
-68
-47
11
18
-94
-254
-292
-129
97
167
39
-99
-60
136
317
375
351
317
287
248
247
347
523
689
816
970
1203
1455
1627
1731
1870
2070
2206
2143
1902
1641
1468
1320
1062
669
267
-10
-157
-263
-368
-386
-215
126
492
734
829
867
943
1064
1159
1169
1101
1001
925
904
943
1010
1047
1002
882
774
766
849
920
884
753
660
731
954
1180
1264
1202
1124
1148
1266
1378
1425
1448
1526
1655
1749
1745
1678
1620
1578
1494
1336
1157
1044
1023
1033
1018
1001
1043
1161
1303
1411
1473
1518
1575
1643
1713
1783
1845
1894
1933
1978
2024
2031
1964
1834
1696
1587
1500
1409
1324
1293
1342
1441
1531
1575
1566
1506
1402
1290
1219
1209
1219
1191
1113
1037
1010
1015
1011
994
999
1026
1021
938
798
684
657
703
766
801
801
776
737
705
697
703
694
652
602
585
599
597
541
455
405
417
446
420
315
177
68
11
-11
-18
1
64
161
253
313
352
398
468
533
553
516
450
407
419
479
555
612
632
626
615
610
602
576
534
495
474
472
484
515
565
597
570
486
413
412
453
437
313
154
76
92
101
35
-36
6
158
276
252
157
165
332
510
520
349
169
140
260
400
472
523
644
839
1009
1056
983
869
776
708
656
630
635
645
628
626
730
972
1254
1426
1418
1278
1096
908
694
434
142
-154
-439
-700
-913
-1076
-1173
-1155
-959
-593
-182
111
231
295
461
756
1031
1120
998
790
625
526
436
326
243
229
246
228
188
215
363
559
675
670
632
664
760
810
732
564
404
309
271
239
181
118
106
201
410
679
936
1144
1299
1380
1346
1185
963
785
693
635
535
390
283
306
478
727
961
1110
1160
1127
1048
974
954
992
1040
1045
993
936
921
939
947
940
959
1038
1131
1156
1088
991
954
997
1063
1084
1052
1013
1000
995
957
864
732
598
499
459
461
463
426
360
327
364
416
370
177
-68
-220
-235
-214
-255
-322
-282
-81
175
333
347
299
265
242
189
107
29
-35
-100
-154
-142
-37
105
184
162
98
69
85
97
73
29
6
13
30
34
17
-19
-59
-74
-32
50
91
22
-135
-277
-314
-264
-212
-206
-195
-101
76
251
345
365
385
450
512
474
299
59
-125
-199
-210
-237
-296
-333
-302
-234
-193
-204
-234
-250
-257
-291
-350
-390
-384
-352
-341
-358
-355
-283
-167
-80
-64
-78
-61
-5
27
-11
-86
-138
-141
-111
-36
146
461
830
1122
1295
1443
1658
1888
1960
1767
1391
1009
699
371
-90
-638
-1069
-1220
-1128
-995
-970
-1018
-992
-831
-638
-553
-592
-644
-602
-477
-346
-227
-62
193
482
681
708
598
461
368
279
95
-215
-516
-616
-455
-178
3
29
12
34
15
-164
-440
-589
-488
-311
-347
-633
-871
-738
-256
216
341
120
-171
-298
-262
-223
-269
-323
-258
-65
131
216
210
230
317
355
198
-153
-512
-655
-528
-255
9
219
418
631
815
916
925
859
702
414
25
-317
-443
-302
-47
82
10
-62
131
572
918
843
423
88
122
328
290
-72
-410
-398
-150
-36
-174
-290
-158
57
37
-211
-330
-105
200
144
-325
-795
-897
-715
-629
-861
-1264
-1549
-1580
-1412
-1151
-899
-734
-670
-625
-511
-340
-220
-216
-267
-263
-210
-226
-351
-445
-324
30
402
538
368
43
-205
-253
-159
-107
-245
-536
-754
-681
-347
-48
-60
-348
-608
-590
-373
-269
-463
-793
-931
-721
-313
21
152
157
172
220
218
112
-50
-189
-272
-307
-301
-239
-140
-75
-109
-231
-360
-447
-508
-571
-615
-588
-489
-367
-258
-146
-28
37
-16
-153
-254
-242
-176
-172
-270
-402
-485
-485
-421
-303
-123
104
347
566
736
862
989
1177
1420
1572
1467
1110
717
517
492
392
31
-476
-829
-888
-823
-891
-1126
-1302
-1207
-891
-592
-487
-518
-494
-324
-99
9
-70
-241
-338
-269
-98
29
6
-130
-226
-159
23
125
5
-234
-336
-176
74
134
-41
-191
-85
181
302
146
-78
-115
15
67
-64
-204
-145
60
175
87
-57
-65
58
157
137
62
14
-17
-83
-143
-106
24
132
133
74
68
140
217
248
289
388
478
435
254
109
160
378
570
589
484
411
436
493
500
464
435
414
363
275
219
263
384
488
511
466
430
442
472
468
399
281
171
108
80
57
7
-71
-148
-181
-147
-83
-56
-105
-198
-260
-262
-247
-276
-335
-369
-346
-304
-292
-315
-342
-358
-366
-361
-331
-301
-325
-396
-424
-339
-196
-127
-162
-183
-98
21
11
-159
-316
-293
-134
-27
-76
-185
-223
-160
-69
-12
7
-2
-54
-150
-239
-279
-287
-300
-318
-311
-273
-242
-254
-286
-289
-260
-252
-292
-355
-394
-399
-387
-368
-324
-251
-178
-148
-160
-178
-185
-202
-261
-339
-349
-258
-151
-157
-288
-392
-323
-125
-4
-90
-269
-333
-233
-115
-122
-227
-278
-211
-82
50
201
405
615
745
794
869
1060
1313
1468
1421
1213
968
760
567
296
-101
-559
-935
-1150
-1249
-1332
-1397
-1324
-1036
-639
-339
-218
-164
-46
100
115
-45
-226
-266
-189
-155
-224
-290
-234
-92
1
-14
-70
-102
-120
-156
-164
-67
117
265
275
193
144
171
189
127
19
-40
-16
24
13
-27
-9
115
285
387
367
258
145
83
83
115
147
163
186
249
333
368
300
181
143
244
386
417
328
270
384
618
788
803
773
850
1013
1089
973
762
642
674
740
707
586
514
575
698
760
724
674
688
739
728
614
472
398
400
397
334
249
210
217
211
161
107
105
144
172
176
189
216
199
95
-49
-140
-159
-188
-302
-462
-559
-541
-468
-407
-337
-204
-25
92
72
-33
-107
-86
-6
54
52
1
-65
-103
-70
45
196
302
318
261
195
171
199
254
288
254
146
24
-23
40
143
181
125
44
21
67
127
149
132
103
87
86
114
180
252
259
164
27
-49
-21
45
46
-28
-103
-120
-103
-100
-96
-43
49
92
23
-86
-94
40
180
184
74
21
109
217
158
-70
-257
-222
-29
103
65
-11
63
328
671
983
1240
1442
1569
1628
1692
1819
1927
1861
1590
1281
1134
1128
1052
750
300
-82
-291
-399
-514
-651
-750
-765
-683
-486
-151
290
719
1010
1126
1113
1032
894
668
350
-2
-294
-449
-460
-387
-314
-280
-273
-259
-244
-273
-350
-400
-344
-197
-75
-27
51
294
670
951
939
695
511
643
1063
1528
1839
2000
2159
2392
2605
2619
2318
1717
922
67
-730
-1359
-1754
-1941
-2017
-2039
-1967
-1726
-1352
-998
-788
-707
-633
-485
-285
-86
103
270
376
395
394
486
675
777
605
220
-104
-148
33
195
184
68
23
106
200
184
84
48
151
283
265
79
-82
-11
251
426
297
-37
-248
-159
64
115
-97
-367
-458
-362
-241
-179
-97
67
229
275
216
185
249
309
240
46
-162
-314
-443
-577
-683
-715
-687
-639
-556
-402
-214
-112
-166
-286
-315
-210
-103
-144
-309
-407
-295
-45
118
60
-120
-201
-81
99
122
-55
-265
-308
-168
-21
-26
-166
-294
-300
-194
-53
57
110
103
55
13
48
182
350
439
378
212
72
63
181
327
401
375
313
285
307
329
300
219
135
108
139
190
226
254
286
301
260
176
112
99
69
-61
-256
-372
-301
-100
80
187
318
578
920
1185
1280
1279
1331
1485
1626
1596
1358
1034
789
664
536
241
-242
-762
-1129
-1270
-1267
-1237
-1216
-1150
-973
-683
-356
-76
115
246
366
493
593
615
547
439
352
314
321
362
419
457
434
341
229
181
229
329
392
375
307
258
280
369
474
537
533
489
451
442
445
439
435
472
559
649
681
646
592
567
554
490
354
206
123
99
56
-52
-164
-177
-69
75
169
223
316
481
650
732
719
674
647
617
535
408
307
288
340
406
464
536
632
710
707
605
448
312
249
265
339
433
518
597
710
866
1004
1014
842
552
252
-7
-260
-539
-797
-945
-942
-823
-645
-447
-267
-153
-120
-104
-41
33
1
-199
-469
-637
-631
-523
-423
-365
-323
-283
-261
-266
-281
-300
-334
-374
-370
-284
-158
-68
-28
38
180
318
303
94
-169
-288
-212
-76
-27
-47
19
259
553
704
664
583
631
790
869
740
496
333
321
344
266
106
-2
5
44
8
-87
-126
-63
27
35
-42
-113
-126
-140
-222
-335
-356
-217
12
204
299
340
394
449
441
330
143
-39
-158
-201
-175
-77
99
338
586
771
852
844
793
744
723
728
759
803
838
857
895
1001
1169
1297
1262
1051
784
581
425
187
-193
-605
-886
-1001
-1048
-1113
-1158
-1087
-900
-695
-531
-353
-82
246
489
555
501
453
456
442
351
214
119
91
76
37
-8
-13
32
101
177
269
361
395
346
265
229
247
247
184
123
156
273
354
317
229
225
325
404
337
155
9
12
142
300
410
460
467
449
429
433
459
463
413
336
288
291
310
304
291
341
476
623
685
637
565
572
666
768
808
791
776
792
811
800
777
780
813
828
775
676
593
550
506
424
344
345
443
542
533
428
344
360
414
377
206
-19
-193
-290
-343
-353
-274
-101
80
177
193
221
318
420
400
224
-1
-136
-144
-112
-133
-208
-268
-262
-193
-95
2
83
118
81
-14
-123
-212
-279
-328
-356
-367
-386
-423
-418
-280
15
359
574
577
429
253
114
-13
-165
-324
-423
-406
-291
-133
24
179
357
529
602
495
229
-72
-312
-505
-710
-908
-991
-888
-646
-379
-144
72
266
382
378
277
110
-154
-536
-907
-1037
-815
-413
-137
-91
-63
192
616
857
674
209
-153
-210
-147
-264
-591
-854
-806
-515
-240
-130
-100
-11
117
181
198
299
502
604
406
-9
-333
-421
-468
-737
-1213
-1605
-1729
-1722
-1808
-1945
-1885
-1544
-1164
-1026
-1073
-987
-613
-191
-84
-346
-671
-772
-677
-633
-781
-1024
-1168
-1116
-915
-649
-395
-232
-216
-314
-423
-446
-380
-321
-355
-482
-627
-693
-654
-557
-475
-445
-430
-363
-228
-85
-4
3
-25
-39
-41
-63
-119
-192
-239
-216
-102
72
239
334
346
321
310
292
196
-8
-259
-423
-412
-247
-24
172
313
409
474
516
543
558
539
443
274
115
81
202
394
535
570
544
538
558
545
464
350
259
204
158
113
105
183
317
414
420
370
331
301
207
11
-218
-371
-433
-496
-623
-749
-743
-594
-430
-378
-410
-387
-243
-69
-11
-109
-254
-310
-257
-175
-145
-180
-218
-194
-114
-40
-33
-86
-143
-158
-145
-184
-309
-442
-467
-357
-218
-165
-192
-177
-49
105
130
-3
-162
-211
-161
-135
-196
-271
-250
-134
-38
-48
-112
-119
-49
13
-5
-80
-138
-148
-153
-180
-197
-169
-132
-165
-282
-397
-396
-258
-82
15
-3
-81
-139
-124
-35
56
36
-143
-388
-519
-425
-186
-8
-9
-91
-72
102
288
307
135
-77
-148
-30
169
312
372
434
586
823
1047
1172
1207
1234
1289
1316
1250
1115
994
903
755
442
-25
-514
-919
-1227
-1458
-1580
-1544
-1372
-1153
-943
-695
-352
17
244
233
80
-29
-15
34
5
-89
-120
-9
173
276
252
200
225
295
276
113
-72
-108
27
171
161
36
-30
42
151
152
45
-44
-44
-21
-57
-115
-98
27
173
247
259
259
241
155
9
-87
-60
15
-4
-144
-254
-162
124
407
494
381
245
248
373
454
363
161
49
151
373
519
510
457
512
670
790
785
719
699
715
674
558
453
437
471
461
395
332
317
315
293
272
270
242
144
25
-10
41
36
-126
-328
-325
-36
332
489
389
255
286
448
531
420
219
104
108
102
-17
-184
-213
-32
202
238
-19
-382
-568
-474
-264
-169
-239
-327
-295
-181
-122
-156
-188
-148
-108
-170
-298
-353
-266
-126
-49
-34
1
55
20
-161
-388
-508
-485
-416
-385
-365
-284
-144
-16
70
148
233
274
213
92
22
51
100
64
-59
-161
-178
-181
-271
-443
-573
-561
-465
-411
-429
-416
-280
-76
18
-78
-246
-307
-243
-212
-333
-503
-510
-293
-39
39
-36
-39
173
469
567
354
21
-121
64
442
755
869
872
980
1321
1788
2123
2135
1873
1566
1367
1192
848
286
-318
-743
-941
-1036
-1146
-1255
-1273
-1146
-908
-625
-373
-212
-168
-194
-199
-153
-127
-213
-390
-502
-429
-219
-44
-14
-58
-24
142
337
417
328
150
-5
-73
-57
-4
35
46
57
113
216
318
363
350
306
243
153
54
0
27
87
103
80
134
329
562
639
496
299
257
397
540
535
433
405
525
695
785
771
725
698
667
596
514
472
483
507
495
448
434
501
614
659
552
361
270
389
623
764
729
643
657
757
798
709
584
557
621
670
643
581
526
452
336
234
232
316
374
327
240
234
351
514
611
600
510
395
292
227
196
180
155
123
104
96
69
9
-60
-80
-41
-12
-81
-255
-441
-520
-460
-334
-244
-230
-275
-360
-482
-617
-693
-649
-503
-360
-324
-396
-482
-481
-383
-273
-272
-428
-668
-848
-889
-852
-870
-985
-1095
-1081
-952
-837
-844
-969
-1133
-1280
-1399
-1493
-1550
-1572
-1572
-1539
-1456
-1365
-1376
-1565
-1870
-2127
-2237
-2243
-2234
-2199
-2036
-1675
-1195
-763
-490
-356
-271
-186
-143
-228
-466
-766
-972
-1010
-957
-972
-1128
-1311
-1358
-1225
-1013
-843
-755
-717
-683
-609
-440
-166
101
177
-14
-333
-561
-647
-773
-1139
-1711
-2231
-2493
-2530
-2528
-2590
-2643
-2571
-2355
-2056
-1721
-1374
-1092
-999
-1123
-1315
-1363
-1226
-1080
-1114
-1307
-1465
-1445
-1276
-1074
-911
-804
-780
-855
-954
-936
-792
-719
-930
-1376
-1755
-1848
-1756
-1731
-1837
-1869
-1647
-1275
-1011
-952
-965
-912
-860
-945
-1138
-1244
-1149
-970
-907
-997
-1108
-1113
-1017
-914
-862
-878
-965
-1084
-1120
-968
-675
-426
-354
-402
-401
-292
-193
-225
-342
-386
-294
-164
-116
-148
-154
-83
-16
-61
-222
-387
-463
-459
-438
-429
-409
-347
-252
-146
-21
133
270
310
231
120
96
171
234
183
46
-66
-102
-127
-221
-360
-448
-451
-434
-459
-496
-486
-445
-462
-554
-607
-514
-339
-279
-422
-625
-663
-496
-305
-264
-362
-471
-543
-622
-707
-711
-582
-408
-323
-333
-324
-251
-217
-321
-489
-554
-470
-395
-484
-673
-753
-618
-389
-257
-283
-372
-417
-412
-416
-457
-508
-531
-512
-459
-382
-299
-221
-149
-78
-14
20
12
-16
-34
-34
-39
-81
-153
-208
-201
-143
-87
-80
-122
-170
-181
-160
-145
-177
-258
-357
-430
-441
-373
-245
-99
20
97
149
184
186
154
140
219
410
643
848
1038
1289
1609
1870
1911
1707
1392
1103
842
510
66
-391
-714
-846
-862
-882
-966
-1086
-1168
-1178
-1138
-1091
-1040
-936
-740
-489
-288
-204
-182
-107
61
221
244
115
-36
-56
104
371
633
824
927
943
887
813
788
814
819
745
647
660
834
1054
1156
1107
1062
1174
1410
1564
1467
1183
927
821
770
589
247
-83
-208
-138
-67
-137
-257
-204
129
589
927
1054
1101
1236
1471
1680
1766
1760
1745
1713
1592
1388
1234
1260
1430
1571
1576
1508
1510
1638
1807
1914
1942
1939
1918
1830
1667
1511
1475
1560
1633
1552
1322
1096
1040
1163
1299
1287
1128
992
1042
1262
1473
1499
1321
1062
854
746
713
713
722
724
699
639
569
539
574
635
650
573
443
365
420
592
786
918
978
1005
1016
987
915
849
852
920
959
888
751
696
812
1029
1174
1149
1039
1015
1155
1366
1480
1416
1238
1078
1019
1044
1074
1053
1008
1020
1136
1326
1501
1608
1654
1675
1662
1580
1435
1295
1235
1254
1281
1258
1208
1192
1230
1285
1317
1330
1350
1357
1292
1145
997
952
1010
1064
1022
924
904
1023
1193
1271
1241
1221
1328
1518
1615
1516
1311
1180
1185
1224
1183
1083
1051
1132
1241
1303
1371
1559
1874
2186
2399
2570
2805
3048
3084
2791
2302
1871
1591
1310
857
283
-180
-367
-336
-249
-178
-69
140
396
577
636
647
701
807
894
909
893
926
1016
1098
1145
1192
1254
1248
1094
859
735
801
874
700
297
-4
97
524
914
1027
987
1085
1419
1811
2039
2042
1907
1737
1586
1493
1473
1502
1518
1494
1458
1426
1373
1293
1239
1258
1288
1169
847
488
344
491
750
894
896
951
1236
1695
2080
2203
2108
1995
2001
2058
1980
1674
1253
936
858
984
1186
1376
1545
1710
1848
1922
1924
1861
1732
1519
1246
1002
873
846
844
834
885
1069
1327
1483
1449
1337
1331
1427
1396
1078
628
395
547
882
1065
1005
908
971
1136
1180
962
551
70
-411
-792
-900
-613
-28
577
997
1268
1515
1717
1715
1425
965
557
344
339
502
818
1267
1780
2241
2530
2564
2315
1855
1337
877
474
90
-214
-310
-159
91
235
226
167
181
301
484
701
907
970
794
500
364
514
734
657
195
-289
-329
168
831
1202
1117
766
445
291
241
160
-23
-265
-427
-376
-105
220
389
355
275
314
444
491
364
195
189
377
566
585
501
529
731
930
933
790
754
981
1344
1585
1612
1569
1605
1691
1684
1540
1383
1333
1343
1242
940
542
233
72
-72
-352
-729
-966
-839
-372
155
467
547
607
812
1091
1228
1095
778
459
254
181
214
310
398
422
402
439
590
771
826
699
508
413
450
502
455
326
226
250
396
570
676
688
660
657
679
664
574
476
502
693
906
951
812
676
719
894
987
866
622
453
467
630
862
1108
1308
1398
1375
1327
1327
1326
1216
1008
865
922
1113
1248
1254
1242
1326
1462
1512
1435
1324
1275
1281
1292
1320
1405
1498
1474
1308
1140
1111
1173
1125
880
602
540
730
945
960
793
648
669
804
913
913
803
612
407
319
450
719
871
730
430
303
494
758
755
446
151
169
416
542
366
89
43
301
626
748
654
538
558
694
810
834
796
771
793
845
884
881
824
737
688
744
888
1012
1011
899
807
832
919
918
774
593
532
633
782
843
773
639
536
514
562
620
619
523
392
334
415
588
727
756
702
649
615
565
502
487
574
708
761
682
579
614
799
957
914
718
592
688
880
896
627
280
166
364
652
778
750
802
1092
1499
1772
1816
1786
1861
2013
2037
1794
1387
1063
968
1000
918
607
185
-118
-195
-150
-150
-222
-222
-37
257
508
677
842
1020
1078
904
579
322
262
302
290
221
218
343
528
666
732
757
755
703
616
569
607
666
640
510
380
368
500
695
853
941
960
917
822
735
756
917
1106
1157
1013
785
641
672
824
963
982
861
692
634
786
1063
1246
1199
1038
1001
1169
1377
1402
1220
1011
929
942
925
842
787
866
1068
1261
1334
1308
1296
1391
1542
1602
1482
1259
1086
1035
1055
1051
1007
970
958
975
1051
1208
1382
1453
1397
1332
1362
1393
1230
857
529
480
611
586
257
-132
-227
2
252
276
155
122
220
266
143
-15
5
206
372
356
262
285
462
632
650
572
558
661
769
756
643
577
657
817
901
825
661
570
622
726
712
523
301
233
336
432
349
138
-3
38
168
225
190
195
336
547
681
670
585
532
552
584
554
472
421
465
567
613
535
395
320
363
447
456
349
195
80
50
120
276
450
537
477
358
355
550
823
952
833
565
346
286
334
360
296
195
166
268
460
664
841
1027
1235
1397
1428
1336
1231
1195
1192
1141
1046
984
982
931
702
310
-85
-330
-434
-502
-592
-657
-623
-484
-287
-66
174
406
559
565
433
263
145
105
93
52
-25
-89
-80
26
205
390
512
546
521
503
542
622
680
667
588
504
473
502
561
610
627
610
565
516
507
564
649
687
626
520
481
558
669
676
508
252
83
87
196
265
219
133
160
371
665
858
862
788
847
1135
1523
1778
1795
1679
1617
1675
1744
1687
1485
1265
1186
1271
1405
1440
1346
1268
1370
1610
1706
1381
677
-18
-341
-331
-366
-699
-1136
-1224
-788
-134
277
317
277
483
924
1295
1355
1140
873
699
594
470
296
128
24
-18
-57
-147
-257
-308
-272
-207
-196
-241
-281
-313
-401
-563
-690
-656
-517
-494
-694
-924
-849
-365
251
609
591
419
393
592
841
903
700
349
57
-40
26
93
6
-266
-626
-925
-1073
-1099
-1122
-1226
-1373
-1414
-1237
-902
-612
-537
-665
-848
-976
-1052
-1143
-1270
-1372
-1370
-1237
-1017
-797
-640
-540
-443
-325
-236
-234
-287
-295
-207
-101
-84
-170
-272
-302
-253
-151
18
277
592
858
1019
1130
1263
1375
1330
1060
681
404
343
443
577
673
754
865
1008
1139
1212
1189
1030
711
264
-226
-677
-1055
-1367
-1606
-1740
-1753
-1666
-1524
-1338
-1086
-776
-473
-253
-119
1
147
267
278
175
63
58
179
340
457
505
510
495
461
419
400
426
471
470
394
285
222
262
382
511
599
646
663
638
563
487
484
555
593
492
300
202
324
586
797
880
936
1083
1291
1411
1372
1249
1152
1090
977
757
483
269
194
239
334
407
435
449
495
589
707
800
826
776
678
591
575
648
750
784
705
576
518
578
674
687
587
468
439
504
571
570
524
496
500
483
403
290
209
185
185
164
113
36
-68
-185
-259
-222
-81
67
117
67
10
30
99
121
42
-98
-224
-312
-401
-517
-630
-672
-608
-478
-356
-295
-293
-308
-296
-249
-183
-123
-76
-25
44
120
166
145
65
-30
-78
-52
40
159
254
295
288
259
214
117
-97
-447
-853
-1176
-1323
-1307
-1201
-1061
-902
-720
-541
-397
-321
-321
-389
-497
-590
-625
-610
-588
-592
-590
-521
-378
-253
-271
-457
-687
-794
-734
-614
-553
-513
-325
119
719
1246
1550
1672
1726
1711
1495
986
278
-399
-878
-1173
-1386
-1535
-1501
-1171
-607
-45
277
312
205
116
64
-69
-387
-843
-1278
-1559
-1671
-1684
-1657
-1590
-1451
-1251
-1046
-876
-721
-513
-234
29
149
69
-142
-372
-560
-705
-793
-773
-626
-435
-322
-316
-307
-176
60
266
309
182
-32
-241
-369
-329
-66
356
761
1002
1112
1243
1446
1551
1323
736
22
-535
-838
-1012
-1207
-1426
-1535
-1407
-1050
-620
-287
-119
-66
-29
47
148
247
343
422
434
343
211
168
253
346
278
34
-183
-160
106
402
520
453
361
380
483
546
508
449
494
670
878
1001
1015
987
961
894
717
451
219
116
103
67
-38
-128
-98
34
146
155
97
34
-60
-252
-515
-700
-682
-495
-288
-140
14
240
467
553
455
290
180
112
-8
-201
-370
-429
-411
-407
-441
-457
-412
-350
-350
-422
-494
-499
-438
-361
-295
-233
-157
-77
-21
-20
-75
-150
-192
-175
-146
-195
-367
-589
-719
-696
-609
-593
-659
-688
-593
-425
-286
-192
-96
-42
-190
-595
-1047
-1229
-1063
-802
-725
-806
-756
-393
124
467
483
297
112
-1
-113
-292
-504
-660
-697
-614
-461
-288
-130
-10
78
130
135
64
-95
-298
-459
-503
-418
-289
-210
-160
-19
277
622
847
915
950
1022
996
679
140
-259
-233
72
212
-58
-503
-689
-489
-196
-162
-426
-730
-848
-792
-690
-610
-527
-408
-263
-117
15
107
136
96
26
-35
-97
-165
-187
-114
12
80
34
-60
-115
-171
-353
-679
-977
-1031
-821
-538
-359
-259
-79
260
636
863
859
702
507
330
161
-4
-152
-277
-399
-516
-570
-499
-315
-129
-72
-165
-283
-252
-14
302
487
449
290
176
129
9
-286
-631
-756
-524
-73
344
618
824
1044
1218
1226
1041
737
389
15
-347
-593
-632
-479
-242
-23
124
180
141
36
-80
-176
-259
-325
-332
-255
-147
-81
-46
0
22
-107
-410
-683
-687
-441
-216
-200
-277
-211
-10
59
-192
-628
-974
-1166
-1359
-1618
-1762
-1582
-1165
-864
-896
-1106
-1166
-944
-619
-461
-560
-788
-953
-930
-710
-393
-161
-167
-396
-648
-700
-526
-321
-291
-440
-589
-588
-453
-342
-382
-564
-781
-929
-988
-995
-1007
-1052
-1099
-1082
-950
-704
-425
-213
-122
-135
-185
-221
-249
-315
-440
-575
-633
-544
-325
-62
148
258
281
268
275
310
311
201
-13
-197
-182
54
332
420
281
109
91
194
199
-36
-402
-652
-648
-456
-209
41
308
578
792
932
1062
1241
1400
1388
1149
820
635
683
793
684
243
-364
-835
-1021
-1042
-1118
-1319
-1504
-1496
-1274
-964
-701
-495
-280
-35
162
231
185
116
104
133
123
46
-25
26
223
437
503
390
247
236
357
457
415
275
168
131
82
-33
-143
-125
22
162
194
170
216
357
487
504
424
337
294
288
296
314
348
383
411
452
526
607
646
634
627
658
692
676
628
631
732
859
897
850
840
950
1089
1077
856
619
609
846
1105
1175
1098
1080
1219
1388
1410
1282
1150
1112
1116
1075
1010
1006
1055
1053
963
887
925
1013
973
737
459
352
463
645
744
742
706
674
636
607
622
659
629
491
346
315
393
460
451
453
572
739
763
580
357
307
425
511
434
295
271
387
493
464
341
248
239
263
266
261
276
295
283
254
277
392
529
570
466
292
182
204
304
351
258
88
-3
94
317
477
436
249
112
162
329
415
315
127
27
66
132
113
48
81
267
494
599
515
324
173
140
177
135
-91
-433
-655
-567
-227
98
194
116
85
200
335
311
136
-7
19
151
236
241
297
535
912
1245
1411
1475
1590
1784
1916
1850
1628
1417
1278
1082
681
128
-359
-640
-782
-923
-1085
-1149
-1032
-777
-498
-268
-94
40
179
363
569
688
624
416
231
196
274
335
303
209
126
105
170
334
555
705
679
524
419
462
551
504
290
89
81
213
275
156
-16
-17
212
509
680
685
637
646
724
811
841
779
650
536
528
637
752
754
663
631
739
882
883
731
612
674
818
821
629
447
503
776
998
943
665
441
487
761
1016
1053
910
812
933
1202
1370
1266
989
792
798
876
814
583
364
325
442
547
526
428
372
410
488
525
494
432
396
408
434
407
298
169
126
221
372
413
262
24
-96
-2
185
245
118
-42
-50
83
183
142
47
54
174
268
235
123
47
47
61
30
-28
-55
-31
5
22
18
17
36
66
91
102
115
140
159
150
116
91
108
152
181
169
125
72
12
-53
-93
-76
-19
18
-3
-49
-50
32
163
266
286
226
144
102
114
134
100
14
-60
-71
-41
-34
-60
-61
25
178
320
384
371
325
279
238
196
151
92
0
-110
-180
-144
-11
149
290
439
648
883
1041
1075
1076
1175
1369
1510
1485
1352
1270
1270
1196
872
324
-223
-555
-669
-718
-800
-837
-665
-251
237
569
665
624
578
533
411
193
-21
-114
-77
5
73
149
258
352
350
255
161
152
206
231
178
118
165
346
560
668
631
533
487
512
518
439
318
256
276
281
163
-48
-192
-141
68
266
314
229
118
36
-65
-263
-515
-693
-691
-518
-255
47
410
832
1228
1492
1612
1670
1724
1708
1526
1217
945
811
729
560
314
165
223
373
400
261
159
285
579
781
720
485
304
287
334
285
121
-31
-27
128
285
306
203
110
107
108
-35
-348
-671
-833
-842
-839
-896
-928
-845
-719
-701
-811
-901
-843
-702
-639
-699
-793
-833
-832
-829
-802
-707
-585
-542
-612
-721
-786
-801
-781
-652
-323
162
616
888
1024
1167
1302
1220
737
-66
-891
-1502
-1913
-2276
-2647
-2883
-2830
-2518
-2147
-1903
-1800
-1736
-1633
-1536
-1520
-1567
-1575
-1475
-1300
-1148
-1066
-1052
-1088
-1162
-1237
-1251
-1189
-1118
-1108
-1133
-1082
-906
-711
-657
-780
-963
-1090
-1154
-1212
-1257
-1208
-1036
-848
-761
-766
-738
-576
-321
-116
-83
-226
-457
-678
-822
-871
-864
-848
-843
-805
-665
-385
-2
392
708
916
1039
1095
1051
853
502
75
-342
-747
-1179
-1620
-1955
-2078
-2025
-1953
-1945
-1904
-1669
-1229
-784
-542
-498
-482
-390
-324
-447
-742
-1002
-1049
-928
-816
-798
-786
-657
-427
-221
-117
-88
-87
-126
-244
-413
-566
-671
-751
-823
-856
-817
-738
-681
-664
-617
-468
-237
-39
10
-111
-306
-447
-472
-431
-436
-549
-712
-798
-728
-542
-352
-238
-196
-182
-166
-156
-172
-216
-269
-310
-319
-289
-222
-144
-91
-73
-62
-16
66
134
136
86
52
86
171
235
230
171
100
40
-8
-54
-111
-201
-312
-397
-427
-445
-523
-669
-780
-751
-614
-517
-555
-657
-681
-586
-480
-489
-620
-779
-879
-910
-915
-939
-994
-1071
-1139
-1168
-1152
-1111
-1078
-1072
-1088
-1116
-1152
-1178
-1156
-1061
-923
-810
-785
-852
-962
-1052
-1093
-1089
-1069
-1055
-1050
-1042
-1027
-1011
-1002
-990
-960
-918
-900
-942
-1032
-1105
-1119
-1105
-1142
-1244
-1323
-1288
-1179
-1128
-1210
-1320
-1288
-1098
-922
-929
-1068
-1131
-1009
-805
-696
-722
-770
-748
-703
-744
-894
-1061
-1149
-1158
-1162
-1213
-1289
-1329
-1297
-1230
-1205
-1262
-1363
-1430
-1441
-1441
-1469
-1484
-1390
-1151
-838
-552
-348
-226
-181
-191
-183
-70
160
406
551
591
623
720
843
901
843
671
404
58
-305
-593
-770
-905
-1123
-1468
-1843
-2077
-2094
-1992
-1950
-2046
-2168
-2111
-1805
-1423
-1215
-1245
-1327
-1252
-1049
-940
-1056
-1258
-1292
-1107
-920
-956
-1200
-1423
-1442
-1300
-1165
-1133
-1150
-1120
-1019
-887
-754
-612
-463
-361
-372
-510
-710
-868
-894
-773
-574
-423
-412
-512
-590
-532
-377
-297
-430
-720
-964
-1011
-887
-736
-645
-582
-475
-318
-171
-91
-64
-63
-92
-162
-239
-257
-195
-103
-41
-9
38
112
176
201
223
292
387
438
416
383
402
463
491
440
335
213
84
-58
-174
-210
-146
-22
108
201
211
123
-8
-83
-54
-13
-106
-357
-624
-743
-702
-613
-565
-543
-505
-452
-415
-389
-352
-330
-382
-515
-652
-710
-696
-677
-666
-597
-428
-216
-64
-14
-14
-7
-9
-80
-238
-409
-494
-475
-438
-493
-647
-778
-745
-540
-318
-242
-319
-407
-387
-282
-207
-204
-214
-190
-172
-244
-398
-526
-541
-476
-422
-416
-401
-318
-177
-39
67
147
206
228
206
151
73
-64
-280
-524
-698
-751
-735
-734
-738
-641
-393
-95
82
80
2
-8
53
73
-28
-183
-261
-214
-105
-12
53
92
70
-66
-278
-453
-515
-488
-433
-336
-124
219
604
934
1216
1491
1699
1676
1344
847
444
265
196
52
-209
-453
-543
-502
-480
-593
-806
-984
-1036
-977
-894
-855
-827
-690
-335
220
796
1161
1232
1157
1165
1303
1368
1097
484
-141
-422
-327
-146
-170
-368
-459
-253
111
317
239
46
-19
63
113
16
-118
-80
162
432
558
535
497
535
617
679
696
686
674
700
800
959
1069
1040
894
773
778
876
960
970
925
874
873
975
1181
1361
1328
1055
776
766
1022
1246
1203
988
870
934
984
856
669
650
803
887
727
473
425
652
919
974
808
617
546
570
578
550
549
637
795
923
942
852
734
658
612
520
353
199
164
232
281
242
198
262
415
519
500
453
501
602
584
401
216
205
340
389
211
-46
-124
46
273
347
265
184
198
246
248
251
360
558
695
662
545
528
643
726
616
360
149
72
36
-54
-102
91
519
882
896
638
460
574
797
772
426
60
-16
188
412
493
512
601
728
745
611
452
408
478
524
429
221
45
35
218
477
632
637
623
742
970
1114
1050
877
798
864
910
781
536
371
387
506
623
727
866
1033
1186
1321
1500
1745
1974
2089
2099
2096
2130
2142
2062
1887
1667
1427
1147
821
474
147
-146
-394
-565
-620
-548
-369
-112
178
444
646
784
924
1127
1338
1417
1268
978
770
807
1026
1178
1089
846
707
834
1094
1207
1065
855
836
1032
1190
1073
762
590
774
1183
1463
1410
1155
985
1041
1210
1295
1226
1090
983
929
912
933
998
1058
1046
987
1003
1147
1320
1371
1278
1189
1262
1480
1689
1776
1749
1682
1619
1561
1523
1522
1539
1516
1422
1295
1217
1251
1377
1514
1579
1548
1474
1440
1483
1573
1641
1626
1517
1367
1246
1208
1239
1282
1309
1332
1374
1396
1322
1143
954
857
845
830
769
708
714
775
856
967
1111
1195
1081
761
429
289
340
383
263
52
-61
23
242
467
613
647
579
485
475
583
703
704
596
517
542
567
461
278
226
410
671
753
619
469
496
648
716
611
455
399
438
446
371
293
293
350
387
380
370
378
379
384
448
603
779
869
866
874
959
1040
983
770
544
443
459
467
394
281
228
272
384
494
545
511
432
395
450
535
521
388
277
335
524
648
598
491
517
681
778
661
449
402
623
942
1126
1134
1146
1331
1650
1907
1944
1761
1496
1275
1129
983
740
375
-27
-359
-574
-687
-715
-648
-490
-304
-175
-107
-2
224
529
779
867
807
684
574
505
490
538
619
662
623
550
549
662
816
896
857
758
696
693
698
650
549
458
430
450
463
438
424
486
608
677
612
475
422
535
725
806
707
545
490
588
734
797
764
722
749
827
899
940
979
1037
1095
1110
1057
955
862
835
900
1032
1154
1193
1155
1119
1142
1191
1176
1076
979
963
992
954
820
693
691
796
878
867
826
846
907
906
810
717
739
853
916
840
688
601
647
766
831
773
628
483
386
320
232
98
-48
-145
-182
-203
-242
-253
-163
11
140
115
-1
-32
100
258
238
18
-189
-177
22
176
128
-31
-83
66
307
475
513
490
482
496
490
443
374
316
299
324
352
329
243
152
129
189
274
324
340
373
456
565
652
681
652
591
523
458
368
229
71
-22
3
108
189
185
125
72
39
-22
-147
-289
-347
-266
-78
123
284
428
595
767
865
839
733
633
566
477
338
232
275
455
630
671
622
640
794
998
1115
1110
1075
1134
1336
1646
1969
2196
2245
2097
1788
1354
783
56
-774
-1581
-2208
-2537
-2560
-2353
-1996
-1529
-970
-394
70
368
572
768
886
735
278
-221
-402
-218
22
22
-188
-346
-303
-161
-62
29
234
535
784
885
883
840
727
486
141
-216
-519
-739
-836
-775
-612
-490
-458
-407
-212
70
238
197
65
11
83
203
310
397
438
359
162
-2
28
205
325
270
158
207
476
792
955
938
849
736
547
263
7
-51
113
328
412
384
441
722
1138
1428
1420
1187
955
868
879
835
675
473
333
262
196
107
45
53
99
109
74
78
178
322
407
393
333
273
172
-38
-307
-487
-506
-454
-455
-487
-410
-169
75
114
-39
-143
-22
207
264
49
-225
-283
-87
141
196
88
-22
-14
83
163
166
115
88
148
277
375
360
275
244
318
416
414
308
217
226
288
302
252
203
225
324
456
564
605
570
501
466
481
477
376
183
-11
-117
-110
-114
140
319
445
470
433
433
515
612
640
587
528
528
561
572
555
540
532
493
395
268
170
125
119
144
214
335
467
559
600
634
700
790
871
934
992
1046
1084
1128
1243
1450
1651
1709
1589
1417
1333
1313
1180
809
269
-228
-538
-693
-805
-899
-898
-722
-412
-99
114
237
347
475
557
496
283
45
-66
-2
138
238
272
300
358
407
391
319
257
236
221
191
186
250
345
371
294
214
241
344
367
208
-40
-174
-99
97
255
297
265
220
185
165
187
248
275
203
63
-22
16
99
105
42
53
235
496
660
692
742
947
1229
1364
1227
929
681
569
494
311
6
-271
-362
-254
-92
-43
-129
-232
-232
-116
23
101
119
129
160
195
224
267
344
453
565
635
612
481
328
306
479
706
733
452
34
-240
-273
-235
-344
-606
-824
-836
-698
-607
-687
-880
-1030
-1042
-939
-804
-708
-665
-647
-606
-487
-274
-24
137
120
-29
-158
-150
-65
-76
-267
-527
-649
-545
-337
-219
-258
-363
-409
-351
-226
-96
1
66
154
306
509
684
760
744
695
639
549
428
347
357
406
399
333
308
392
527
599
570
472
305
33
-308
-555
-566
-411
-308
-372
-494
-494
-369
-310
