68
77
45
-22
-101
-155
-171
-171
-198
-263
-317
-300
-203
-83
0
29
49
100
179
252
285
283
268
252
232
197
167
184
267
368
415
378
300
262
286
311
267
159
61
41
86
139
162
147
82
-56
-260
-485
-693
-899
-1130
-1364
-1506
-1496
-1366
-1189
-961
-593
-49
554
1027
1298
1475
1698
1965
2127
2056
1785
1471
1246
1124
1027
888
718
571
490
463
445
400
323
240
170
112
55
-4
-54
-74
-52
2
50
57
33
25
51
88
87
37
-30
-107
-236
-454
-711
-897
-930
-847
-757
-706
-635
-462
-194
66
222
265
245
193
104
-23
-145
-202
-182
-136
-122
-137
-125
-52
43
69
-20
-176
-292
-299
-242
-216
-253
-283
-229
-118
-79
-194
-385
-504
-504
-472
-501
-561
-552
-449
-344
-315
-331
-315
-271
-284
-390
-510
-559
-544
-546
-589
-601
-521
-399
-330
-335
-348
-311
-266
-290
-384
-454
-415
-298
-201
-193
-241
-254
-176
-46
45
27
-79
-176
-184
-110
-15
48
90
154
241
324
385
443
519
585
588
512
407
348
376
448
486
460
411
425
545
705
784
726
624
635
817
1059
1198
1172
1042
900
774
638
461
229
-27
-249
-350
-260
3
338
600
687
596
429
299
225
90
-220
-628
-827
-482
419
1474
2161
2239
1889
1459
1094
631
-137
-1121
-1911
-2130
-1769
-1139
-543
-77
293
514
451
82
-436
-893
-1209
-1395
-1384
-1048
-371
392
913
1088
1036
847
407
-403
-1350
-1837
-1387
-96
1385
2370
2635
2420
2014
1438
512
-835
-2386
-3754
-4595
-4756
-4275
-3347
-2252
-1266
-547
-102
140
223
139
-116
-481
-834
-1020
-978
-741
-417
-118
104
200
97
-212
-588
-795
-720
-503
-408
-544
-745
-765
-561
-342
-323
-484
-614
-552
-371
-283
-435
-784
-1159
-1415
-1492
-1367
-1039
-541
24
528
922
1259
1590
1887
2028
1933
1636
1265
939
705
536
421
354
303
208
44
-123
-176
-73
93
180
160
159
286
445
389
12
-472
-710
-592
-363
-340
-531
-631
-385
119
551
703
661
607
585
495
294
82
-17
-20
-41
-128
-210
-186
-47
88
96
-7
-76
21
263
494
580
523
441
419
399
252
-66
-435
-682
-720
-605
-480
-424
-390
-244
80
459
631
465
102
-154
-159
-88
-242
-680
-1156
-1374
-1283
-1048
-823
-634
-455
-325
-266
-192
4
277
423
299
0
-269
-414
-521
-688
-867
-904
-735
-463
-248
-147
-74
70
291
489
541
397
130
-129
-276
-285
-180
-11
147
201
152
126
269
567
786
715
407
133
92
223
305
248
157
168
274
365
356
269
168
96
74
98
156
226
309
412
514
574
580
559
546
518
447
352
311
368
471
524
521
519
562
603
555
406
256
204
209
145
-36
-193
-117
192
467
447
166
-73
-58
107
185
100
2
31
100
33
-148
-221
-50
227
332
169
-23
97
609
1220
1490
1201
582
85
-30
101
116
-156
-534
-696
-540
-253
-51
52
170
300
302
117
-97
-107
114
344
392
317
315
482
693
779
735
716
825
1017
1182
1248
1184
1001
754
562
484
407
158
-260
-598
-612
-332
-17
137
158
181
217
173
0
-212
-366
-467
-575
-709
-801
-770
-564
-196
251
638
872
989
1126
1359
1588
1639
1458
1171
931
754
580
419
371
475
593
552
354
195
231
397
486
391
205
102
133
206
213
141
59
21
29
29
-4
-52
-80
-67
-43
-51
-96
-131
-113
-71
-81
-154
-194
-90
118
256
212
107
152
389
589
497
146
-147
-121
140
311
202
-38
-98
139
497
707
668
455
152
-224
-656
-1051
-1288
-1345
-1288
-1158
-905
-480
50
515
797
899
889
782
547
213
-92
-249
-255
-245
-332
-477
-537
-431
-223
-50
15
18
32
76
132
202
311
417
392
157
-186
-431
-498
-523
-700
-1022
-1272
-1256
-1011
-760
-653
-640
-564
-334
8
348
570
607
491
338
286
370
475
476
378
334
473
758
990
1012
871
756
800
955
1050
985
824
720
780
1003
1294
1518
1536
1305
932
614
470
385
132
-356
-850
-1049
-879
-544
-303
-203
-114
41
186
229
189
163
159
88
-69
-165
-44
254
485
463
244
40
-38
-89
-264
-564
-822
-871
-696
-438
-286
-363
-652
-1030
-1348
-1510
-1506
-1366
-1135
-855
-557
-186
354
1038
1593
1607
909
-202
-1155
-1591
-1612
-1565
-1614
-1605
-1289
-599
268
1014
1418
1423
1109
611
79
-367
-659
-788
-784
-685
-504
-273
-52
109
230
391
572
548
44
-942
-2021
-2672
-2680
-2271
-1808
-1440
-1035
-403
496
1511
2400
2907
2863
2289
1419
582
-8
-361
-609
-837
-990
-969
-709
-261
196
459
454
313
266
418
649
783
821
941
1249
1598
1705
1466
1064
780
715
732
668
513
375
321
316
298
266
244
225
184
111
23
-54
-128
-219
-318
-390
-415
-366
-203
77
417
691
788
710
555
421
312
136
-166
-532
-777
-735
-417
-31
188
170
42
-32
-31
-79
-260
-515
-703
-741
-662
-506
-259
93
462
679
640
405
129
-71
-183
-194
-28
347
800
1066
973
640
352
254
184
-125
-719
-1351
-1711
-1689
-1403
-1037
-710
-488
-400
-390
-315
-101
151
238
83
-135
-200
-97
-5
-76
-242
-345
-395
-563
-923
-1282
-1357
-1090
-722
-509
-437
-302
-45
125
-11
-366
-617
-603
-525
-689
-1098
-1421
-1371
-1015
-637
-392
-213
-57
-124
-670
-1652
-2648
-3163
-3023
-2444
-1768
-1157
-533
242
1179
2084
2663
2720
2294
1615
968
543
392
461
646
828
944
1014
1114
1248
1254
924
236
-547
-1058
-1153
-980
-733
-403
136
782
1058
443
-1033
-2660
-3556
-3394
-2596
-1803
-1236
-596
459
1885
3275
4209
4495
4121
3170
1881
702
59
-5
134
86
-115
-76
450
1232
1754
1711
1234
663
227
-35
-131
-34
211
437
466
271
-7
-238
-392
-511
-599
-610
-521
-391
-307
-302
-317
-277
-167
-33
32
-66
-179
-234
-216
-176
-167
-172
-117
38
225
338
336
294
292
326
313
199
47
-30
-1
68
84
52
29
45
55
-12
-148
-276
-377
-511
-752
-1075
-1367
-1543
-1599
-1551
-1375
-1038
-602
-198
122
438
832
1231
1432
1329
1051
842
811
859
820
665
517
505
608
677
588
391
254
276
361
324
134
-22
49
338
617
682
537
340
222
182
147
60
-91
-263
-381
-391
-313
-241
-264
-368
-456
-466
-428
-411
-443
-486
-487
-431
-353
-298
-274
-238
-138
26
166
185
72
-70
-123
-70
-3
-15
-116
-240
-331
-384
-413
-425
-411
-361
-282
-188
-75
87
319
592
785
744
419
-51
-425
-579
-633
-811
-1160
-1456
-1446
-1167
-952
-1078
-1438
-1637
-1432
-998
-731
-806
-996
-934
-516
3
277
191
-85
-308
-390
-423
-528
-698
-811
-768
-595
-402
-267
-174
-84
-18
-42
-167
-297
-307
-162
52
220
300
326
351
385
384
312
180
54
6
46
109
126
98
83
111
152
166
172
213
263
230
85
-40
32
339
718
980
1076
1108
1159
1187
1080
789
385
9
-215
-247
-133
35
195
315
396
421
351
166
-84
-317
-462
-500
-469
-364
-38
791
2332
4398
6268
7037
6293
4496
2654
1495
892
146
-1196
-2794
-3812
-3705
-2711
-1570
-882
-741
-912
-1207
-1556
-1860
-1949
-1787
-1594
-1665
-2017
-2312
-2198
-1729
-1303
-1271
-1616
-2020
-2185
-2045
-1683
-1188
-632
-155
35
-241
-942
-1738
-2215
-2186
-1834
-1474
-1208
-861
-338
135
206
-121
-419
-395
-412
-1241
-3165
-5474
-6979
-7043
-6029
-4778
-3763
-2801
-1448
415
2391
3831
4243
3590
2287
920
-108
-713
-1000
-1063
-900
-513
18
604
1223
1847
2322
2405
1976
1227
556
293
489
924
1315
1493
1436
1204
893
619
492
546
721
887
917
784
556
331
149
-27
-227
-416
-528
-530
-453
-326
-137
73
125
-216
-997
-1922
-2543
-2628
-2320
-1922
-1559
-1110
-417
493
1409
2057
2224
1817
948
-37
-717
-901
-735
-518
-374
-169
229
745
1153
1302
1203
903
392
-283
-925
-1297
-1344
-1262
-1259
-1335
-1369
-1401
-1700
-2457
-3453
-4159
-4193
-3665
-3022
-2587
-2261
-1695
-729
365
1080
1082
460
-379
-1042
-1406
-1586
-1749
-1935
-2017
-1814
-1256
-486
215
619
697
550
248
-214
-790
-1277
-1473
-1419
-1413
-1693
-2179
-2590
-2765
-2777
-2711
-2462
-1850
-899
112
933
1571
2165
2701
2959
2745
2120
1361
741
361
189
148
190
278
397
545
704
831
863
748
478
110
-216
-342
-200
78
258
215
79
73
223
264
-84
-739
-1252
-1217
-685
-125
60
-59
-32
462
1261
1841
1779
1097
195
-502
-810
-837
-767
-698
-595
-371
18
524
1029
1387
1462
1200
687
133
-275
-505
-663
-811
-875
-783
-666
-833
-1449
-2283
-2865
-2921
-2613
-2300
-2120
-1860
-1244
-294
645
1212
1304
1081
737
353
-60
-465
-772
-928
-974
-991
-993
-930
-774
-598
-517
-576
-738
-935
-1134
-1286
-1324
-1226
-1079
-1025
-1109
-1241
-1289
-1249
-1243
-1378
-1600
-1713
-1558
-1193
-898
-909
-1124
-1137
-746
-383
-887
-2616
-4840
-6223
-6036
-4822
-3750
-3398
-3249
-2402
-601
1507
3001
3442
3023
2232
1481
976
737
656
580
435
291
280
480
828
1126
1148
783
145
-482
-833
-858
-733
-653
-668
-710
-716
-735
-834
-976
-1009
-819
-480
-213
-192
-391
-618
-722
-728
-761
-853
-895
-791
-616
-549
-674
-887
-1027
-1048
-1046
-1115
-1239
-1331
-1346
-1330
-1345
-1387
-1378
-1259
-1075
-964
-1023
-1181
-1257
-1146
-968
-991
-1334
-1810
-2083
-1996
-1708
-1504
-1512
-1604
-1557
-1302
-996
-881
-1069
-1466
-1853
-2060
-2075
-1995
-1921
-1866
-1769
-1571
-1282
-1000
-852
-888
-1046
-1221
-1348
-1452
-1591
-1767
-1915
-1981
-1953
-1854
-1720
-1633
-1729
-2129
-2825
-3643
-4340
-4739
-4785
-4509
-3958
-3185
-2233
-1155
-32
984
1688
1933
1742
1301
810
353
-81
-497
-822
-941
-828
-596
-401
-334
-360
-382
-365
-365
-441
-552
-570
-428
-187
35
186
303
375
296
-20
-433
-639
-507
-302
-521
-1402
-2638
-3582
-3746
-3125
-2112
-1153
-440
148
879
1878
2910
3466
3159
2098
842
-45
-386
-415
-438
-553
-642
-565
-304
50
362
519
470
239
-83
-387
-547
-476
-175
209
438
351
19
-329
-548
-704
-950
-1289
-1521
-1453
-1103
-692
-429
-324
-233
-37
233
423
400
156
-191
-497
-695
-789
-824
-841
-848
-825
-751
-637
-536
-507
-548
-607
-646
-693
-769
-809
-710
-471
-239
-171
-277
-427
-509
-549
-628
-766
-908
-1001
-1040
-1018
-912
-750
-627
-620
-683
-673
-558
-476
-604
-925
-1242
-1407
-1476
-1618
-1880
-2122
-2198
-2134
-2054
-1990
-1816
-1427
-916
-554
-510
-657
-676
-350
244
798
1033
870
434
-60
-424
-575
-573
-560
-621
-692
-570
-114
588
1267
1657
1682
1438
1064
640
180
-288
-708
-1020
-1192
-1203
-1057
-775
-434
-124
70
127
69
-60
-205
-297
-289
-186
-63
-13
-79
-205
-296
-310
-299
-342
-446
-541
-585
-622
-738
-937
-1113
-1149
-1034
-853
-690
-558
-443
-369
-385
-504
-665
-806
-920
-1043
-1194
-1348
-1464
-1545
-1624
-1714
-1804
-1881
-1972
-2120
-2332
-2560
-2743
-2861
-2956
-3088
-3270
-3437
-3490
-3371
-3115
-2806
-2530
-2306
-2108
-1920
-1761
-1671
-1689
-1824
-2038
-2253
-2376
-2376
-2291
-2191
-2115
-2054
-1996
-1958
-1960
-1990
-2017
-2012
-1979
-1930
-1849
-1712
-1509
-1294
-1139
-1100
-1172
-1310
-1458
-1571
-1615
-1575
-1467
-1332
-1223
-1155
-1077
-930
-720
-535
-463
-507
-577
-579
-505
-421
-395
-424
-463
-487
-511
-557
-608
-618
-582
-556
-597
-690
-744
-698
-590
-522
-532
-569
-565
-531
-540
-608
-671
-695
-705
-760
-868
-971
-1015
-995
-934
-861
-815
-843
-945
-1052
-1091
-1076
-1082
-1148
-1232
-1267
-1266
-1302
-1394
-1493
-1562
-1643
-1802
-2009
-2134
-2066
-1800
-1383
-801
-49
730
1228
1192
687
116
-172
-247
-572
-1543
-3026
-4393
-5061
-5000
-4701
-4667
-4946
-5159
-4916
-4170
-3221
-2431
-1971
-1798
-1754
-1707
-1620
-1502
-1410
-1421
-1564
-1772
-1900
-1838
-1609
-1353
-1200
-1166
-1182
-1247
-1462
-1874
-2351
-2639
-2609
-2417
-2359
-2556
-2795
-2750
-2310
-1692
-1193
-881
-570
-61
617
1233
1574
1609
1460
1246
1048
918
843
752
551
251
1
-42
102
254
315
411
742
1274
1707
1772
1477
1049
655
261
-232
-795
-1291
-1635
-1842
-1919
-1781
-1364
-785
-289
-15
139
365
671
837
669
248
-134
-250
-142
-43
-120
-291
-305
11
568
1058
1209
1014
717
574
591
536
203
-350
-837
-996
-777
-336
113
403
446
253
-67
-362
-553
-699
-887
-1095
-1205
-1144
-972
-818
-744
-729
-762
-882
-1099
-1317
-1409
-1364
-1304
-1331
-1398
-1373
-1224
-1077
-1081
-1231
-1385
-1440
-1417
-1379
-1314
-1198
-1125
-1292
-1778
-2377
-2720
-2606
-2189
-1796
-1581
-1373
-896
-96
755
1272
1291
985
688
594
604
507
241
-14
-33
204
510
703
779
838
903
875
682
381
90
-117
-228
-217
-37
272
543
621
535
473
584
815
963
889
643
411
332
393
489
550
602
714
889
1062
1159
1178
1170
1151
1091
977
887
923
1065
1170
1121
980
937
1090
1277
1231
879
457
268
373
542
529
327
142
139
312
545
744
838
739
422
24
-221
-211
-101
-126
-320
-487
-435
-203
18
109
95
49
-9
-88
-164
-197
-183
-152
-122
-73
-9
10
-44
-123
-162
-147
-125
-119
-103
-47
29
81
99
100
110
129
138
136
111
45
-46
-94
-46
59
130
114
36
-77
-276
-639
-1121
-1575
-1900
-2135
-2361
-2538
-2526
-2256
-1831
-1401
-1007
-579
-121
241
390
381
394
530
681
654
406
98
-80
-100
-88
-145
-219
-180
-35
32
-168
-624
-1119
-1469
-1721
-2078
-2639
-3257
-3647
-3620
-3221
-2670
-2215
-1997
-1996
-2074
-2124
-2192
-2421
-2848
-3319
-3598
-3577
-3334
-3007
-2676
-2371
-2131
-1977
-1868
-1763
-1733
-1886
-2179
-2349
-2142
-1626
-1183
-1153
-1509
-1917
-2105
-2124
-2241
-2626
-3169
-3584
-3660
-3421
-3078
-2850
-2803
-2846
-2858
-2812
-2777
-2850
-3039
-3274
-3451
-3486
-3350
-3076
-2760
-2502
-2351
-2271
-2188
-2063
-1950
-1961
-2158
-2453
-2640
-2554
-2236
-1918
-1820
-1918
-1962
-1737
-1324
-1057
-1212
-1730
-2301
-2673
-2864
-3061
-3361
-3661
-3808
-3761
-3592
-3359
-3061
-2718
-2425
-2273
-2243
-2201
-2039
-1791
-1590
-1537
-1593
-1629
-1559
-1419
-1319
-1323
-1377
-1365
-1238
-1070
-988
-1022
-1082
-1075
-1004
-946
-922
-830
-559
-128
293
517
477
242
-104
-518
-1003
-1544
-2082
-2542
-2855
-2957
-2814
-2457
-1999
-1594
-1368
-1346
-1434
-1485
-1439
-1389
-1440
-1557
-1548
-1262
-777
-354
-201
-324
-581
-857
-1072
-1122
-907
-441
117
571
804
760
351
-463
-1533
-2531
-3220
-3659
-4054
-4437
-4571
-4216
-3459
-2682
-2229
-2153
-2286
-2477
-2700
-2962
-3209
-3352
-3326
-3101
-2660
-2022
-1314
-767
-569
-708
-983
-1210
-1365
-1524
-1708
-1828
-1817
-1735
-1729
-1847
-1976
-1970
-1812
-1623
-1521
-1487
-1393
-1152
-854
-685
-733
-891
-974
-924
-865
-963
-1249
-1608
-1941
-2239
-2519
-2766
-2942
-3078
-3241
-3435
-3573
-3583
-3480
-3309
-3040
-2630
-2152
-1759
-1503
-1247
-861
-471
-382
-732
-1272
-1595
-1551
-1363
-1334
-1484
-1544
-1256
-611
144
687
831
614
254
-24
-150
-266
-568
-1055
-1467
-1451
-884
-8
754
1124
1154
1081
1039
934
588
-1
-621
-1057
-1273
-1400
-1527
-1572
-1434
-1150
-891
-786
-805
-813
-706
-483
-218
-52
-135
-512
-1030
-1390
-1400
-1164
-984
-1041
-1211
-1192
-827
-264
169
209
-151
-676
-1067
-1178
-1120
-1127
-1292
-1468
-1436
-1159
-774
-423
-159
-31
-201
-808
-1692
-2402
-2563
-2236
-1800
-1536
-1350
-938
-197
679
1379
1725
1729
1490
1115
719
415
233
87
-140
-448
-710
-798
-713
-554
-435
-414
-513
-695
-820
-703
-295
198
446
296
-91
-415
-517
-443
-282
-39
291
619
839
985
1202
1526
1777
1729
1390
1053
1033
1391
1917
2339
2521
2505
2422
2403
2493
2619
2639
2455
2118
1797
1644
1676
1795
1891
1920
1900
1845
1753
1644
1567
1569
1640
1716
1739
1692
1585
1419
1213
1033
975
1081
1288
1478
1593
1682
1817
1999
2155
2215
2155
1972
1680
1342
1079
996
1092
1252
1367
1448
1577
1802
2064
2244
2261
2103
1812
1459
1149
976
974
1087
1214
1298
1377
1516
1725
1928
2035
2012
1894
1739
1600
1525
1551
1654
1738
1731
1682
1745
2018
2397
2631
2548
2233
1943
1838
1835
1717
1380
946
646
604
761
965
1134
1289
1464
1611
1629
1479
1219
942
669
351
-33
-399
-602
-545
-247
203
715
1229
1702
2116
2476
2803
3092
3287
3316
3162
2885
2590
2333
2097
1822
1504
1231
1107
1146
1243
1287
1274
1292
1392
1506
1522
1406
1222
1027
831
643
535
570
696
772
726
634
615
668
653
462
148
-119
-219
-176
-98
-62
-53
7
161
335
379
199
-135
-417
-485
-368
-249
-272
-406
-497
-428
-241
-78
-60
-187
-361
-477
-502
-485
-489
-529
-566
-563
-532
-519
-544
-585
-616
-636
-665
-709
-744
-744
-705
-645
-592
-563
-559
-572
-589
-606
-612
-612
-625
-659
-698
-707
-668
-607
-571
-594
-666
-767
-883
-986
-1028
-970
-845
-732
-675
-630
-516
-308
197
-35
-124
10
203
244
109
-25
-2
147
303
431
581
760
877
850
725
630
642
725
793
803
779
766
791
856
906
865
689
430
214
129
167
242
286
317
410
601
831
977
960
829
709
666
647
557
384
223
156
180
244
327
419
472
418
276
161
173
260
253
66
-191
-328
-280
-164
-142
-267
-437
-523
-486
-395
-353
-401
-522
-664
-793
-877
-882
-800
-668
-567
-549
-583
-577
-493
-394
-353
-390
-464
-543
-639
-738
-766
-678
-535
-455
-459
-434
-285
-101
-67
-229
-419
-468
-472
-709
-1270
-1867
-2073
-1763
-1232
-876
-783
-706
-390
137
601
782
689
462
198
-108
-477
-868
-1205
-1462
-1682
-1894
-2060
-2111
-2016
-1815
-1568
-1278
-918
-509
-132
138
304
434
565
655
639
517
386
341
392
474
511
470
354
181
-8
-146
-193
-162
-105
-56
0
88
177
214
192
147
100
17
-136
-323
-457
-492
-484
-520
-616
-701
-714
-682
-688
-757
-824
-819
-798
-918
-1240
-1594
-1702
-1460
-1060
-799
-759
-749
-565
-212
102
211
129
-40
-215
-350
-387
-299
-149
-70
-144
-315
-467
-558
-622
-675
-664
-531
-307
-99
11
20
-37
-155
-380
-742
-1213
-1705
-2106
-2340
-2385
-2284
-2092
-1882
-1719
-1629
-1594
-1569
-1539
-1547
-1606
-1645
-1531
-1192
-740
-420
-428
-751
-1184
-1493
-1592
-1582
-1621
-1734
-1743
-1416
-715
92
611
639
311
-61
-283
-409
-617
-976
-1374
-1624
-1618
-1398
-1067
-721
-416
-185
-35
38
70
93
132
175
146
-35
-353
-665
-802
-729
-589
-534
-526
-367
35
452
473
-137
-1197
-2261
-2957
-3191
-3089
-2788
-2314
-1606
-642
477
1511
2182
2339
2028
1431
736
67
-492
-858
-1016
-1036
-1011
-959
-818
-589
-405
-421
-639
-916
-1103
-1169
-1125
-948
-651
-473
-834
-1987
-3656
-5128
-5761
-5460
-4618
-3650
-2634
-1405
64
1474
2380
2547
2067
1205
207
-753
-1495
-1835
-1716
-1276
-752
-306
74
443
742
812
551
26
-569
-1057
-1329
-1328
-1052
-603
-193
-24
-133
-394
-660
-894
-1103
-1247
-1240
-1070
-873
-835
-1028
-1348
-1643
-1831
-1933
-2005
-2090
-2185
-2254
-2256
-2189
-2121
-2170
-2395
-2724
-2975
-2998
-2783
-2433
-2038
-1603
-1096
-522
65
608
1069
1375
1425
1189
776
385
109
-116
-376
-624
-718
-619
-459
-364
-235
118
662
1050
949
420
-107
-277
-162
-145
-465
-973
-1300
-1228
-847
-427
-164
-80
-87
-106
-119
-147
-200
-280
-393
-549
-691
-696
-496
-161
117
223
229
284
408
478
404
260
167
110
-22
-196
-177
164
579
642
290
36
477
1601
2675
2928
2291
1365
744
443
15
-863
-2037
-3056
-3617
-3735
-3573
-3256
-2846
-2414
-2084
-1910
-1815
-1687
-1520
-1451
-1593
-1857
-2029
-2004
-1912
-1952
-2085
-2045
-1673
-1213
-1108
-1510
-2057
-2219
-1863
-1345
-1097
-1206
-1429
-1554
-1575
-1572
-1543
-1456
-1379
-1438
-1637
-1819
-1865
-1882
-2109
-2573
-2974
-2955
-2485
-1906
-1551
-1415
-1225
-818
-361
-181
-375
-737
-1006
-1126
-1198
-1260
-1226
-1070
-959
-1080
-1370
-1544
-1437
-1263
-1406
-2003
-2731
-3109
-2956
-2500
-2096
-1883
-1740
-1517
-1222
-1010
-1045
-1350
-1804
-2199
-2354
-2232
-1969
-1757
-1665
-1581
-1350
-992
-716
-733
-1044
-1428
-1657
-1703
-1719
-1828
-1959
-1917
-1650
-1338
-1224
-1361
-1561
-1637
-1636
-1770
-2131
-2516
-2609
-2315
-1859
-1565
-1548
-1648
-1682
-1652
-1722
-2009
-2395
-2625
-2552
-2284
-2059
-1993
-1961
-1768
-1387
-1016
-923
-1204
-1703
-2160
-2364
-2276
-2040
-1865
-1849
-1872
-1722
-1368
-1054
-1032
-1204
-1189
-823
-425
-478
-1021
-1533
-1522
-1124
-935
-1295
-1894
-2171
-2016
-1867
-2142
-2725
-3127
-3070
-2779
-2648
-2747
-2740
-2265
-1330
-314
419
790
981
1181
1417
1577
1556
1355
1060
788
669
777
1058
1341
1403
1155
725
342
131
27
-137
-427
-712
-783
-563
-197
90
226
333
552
832
947
763
378
5
-271
-535
-858
-1144
-1231
-1084
-838
-629
-462
-298
-152
-115
-228
-417
-587
-715
-836
-966
-1074
-1129
-1112
-1023
-865
-678
-536
-473
-444
-399
-361
-393
-465
-454
-298
-117
-107
-302
-494
-446
-150
154
237
95
-82
-144
-117
-139
-257
-392
-448
-430
-444
-536
-620
-575
-407
-265
-285
-450
-606
-613
-477
-322
-280
-385
-549
-653
-611
-450
-292
-253
-335
-424
-382
-199
-15
12
-142
-338
-404
-315
-213
-233
-335
-358
-244
-153
-274
-562
-725
-544
-142
140
128
6
70
380
700
787
626
402
260
180
78
-50
-127
-100
-14
38
33
40
131
265
290
102
-216
-439
-422
-243
-112
-126
-169
-77
144
321
330
227
151
142
124
45
-42
-61
-33
-49
-124
-155
-66
83
148
75
-44
-84
-48
-50
-157
-297
-335
-239
-117
-102
-213
-353
-421
-404
-356
-318
-282
-222
-127
-11
98
161
132
0
-191
-367
-489
-573
-652
-721
-744
-705
-603
-448
-277
-151
-100
-79
-32
-4
-123
-388
-516
-127
855
2046
2964
3533
4126
5036
5985
6244
5284
3290
1035
-746
-1870
-2661
-3477
-4271
-4612
-4147
-3023
-1825
-1104
-968
-1146
-1368
-1604
-1957
-2413
-2820
-3023
-2944
-2538
-1802
-884
-116
231
237
293
706
1362
1821
1786
1381
1012
922
982
890
524
38
-351
-589
-760
-891
-895
-729
-538
-542
-755
-916
-740
-241
266
494
449
346
341
386
335
149
-72
-228
-316
-417
-614
-924
-1303
-1679
-1972
-2123
-2116
-1984
-1764
-1439
-945
-260
484
1028
1153
866
400
5
-266
-529
-854
-1133
-1179
-949
-592
-304
-173
-156
-202
-314
-480
-619
-633
-512
-341
-188
-21
225
515
695
630
373
114
7
47
113
108
47
17
79
209
322
303
87
-272
-601
-715
-563
-286
-89
-45
-27
149
506
846
929
737
498
441
569
692
688
673
845
1199
1478
1437
1136
854
745
649
319
-229
-639
-579
-109
392
630
651
712
934
1176
1229
1063
810
584
378
159
-2
12
203
415
500
490
548
761
987
973
611
77
-307
-373
-231
-112
-117
-126
27
357
693
853
783
550
243
-96
-434
-706
-837
-805
-654
-454
-239
8
296
554
645
466
83
-289
-462
-425
-321
-269
-246
-161
0
162
258
294
314
299
185
-31
-259
-391
-422
-423
-452
-495
-492
-426
-349
-333
-408
-542
-672
-746
-756
-734
-720
-717
-693
-636
-576
-563
-607
-652
-627
-516
-377
-282
-245
-219
-159
-66
36
120
155
123
11
-151
-288
-320
-219
-34
147
255
289
319
405
523
552
393
75
-244
-429
-480
-501
-547
-555
-449
-242
-11
237
603
1123
1648
1937
1927
1839
1960
2342
2719
2795
2545
2207
2037
2093
2225
2275
2207
2115
2080
2094
2094
2049
1975
1886
1727
1431
1024
645
441
411
419
344
210
145
215
361
515
706
1032
1509
1951
2092
1815
1293
843
653
600
377
-180
-880
-1316
-1231
-756
-263
-31
-36
-86
-68
-37
-78
-175
-232
-200
-124
-65
-18
74
228
382
438
355
170
-37
-190
-248
-203
-87
40
105
61
-75
-218
-286
-284
-306
-437
-632
-743
-659
-448
-319
-429
-723
-994
-1082
-1033
-1022
-1154
-1335
-1371
-1164
-815
-523
-397
-384
-377
-341
-335
-416
-552
-672
-736
-753
-733
-666
-547
-404
-291
-232
-215
-225
-263
-325
-386
-414
-399
-351
-271
-163
-52
14
4
-52
-87
-63
-3
41
33
-7
-34
-16
41
103
139
145
151
184
231
247
192
89
7
13
118
276
418
482
447
345
227
108
-55
-315
-669
-1029
-1275
-1337
-1231
-1040
-855
-726
-620
-463
-240
-67
-81
-288
-533
-662
-683
-707
-764
-757
-611
-412
-308
-307
-285
-190
-132
-240
-450
-580
-563
-527
-587
-666
-600
-394
-260
-372
-635
-787
-692
-478
-383
-487
-649
-672
-500
-252
-75
-29
-76
-157
-253
-365
-458
-469
-379
-244
-136
-70
-16
58
155
242
289
281
229
182
206
328
501
634
682
676
686
721
715
621
466
351
341
375
324
114
-173
-402
-543
-724
-1086
-1602
-2071
-2278
-2130
-1674
-997
-213
535
1141
1614
2054
2485
2747
2605
2020
1250
657
418
430
481
459
421
485
695
976
1193
1247
1127
893
639
423
293
270
352
482
569
553
464
381
347
325
257
135
0
-114
-218
-340
-470
-552
-536
-432
-309
-222
-180
-144
-96
-77
-145
-307
-475
-522
-396
-185
-38
-24
-73
-39
166
469
680
636
318
-119
-470
-626
-653
-705
-866
-1072
-1177
-1082
-825
-543
-354
-294
-319
-366
-404
-447
-523
-607
-655
-651
-643
-674
-715
-675
-506
-286
-151
-162
-245
-284
-256
-250
-333
-462
-536
-536
-544
-619
-716
-739
-682
-644
-683
-720
-671
-624
-800
-1300
-1900
-2229
-2131
-1781
-1442
-1170
-831
-379
-18
-26
-445
-1023
-1447
-1604
-1577
-1461
-1215
-723
47
950
1747
2245
2388
2232
1857
1326
706
108
-357
-640
-765
-783
-716
-567
-380
-253
-276
-465
-749
-1015
-1182
-1224
-1172
-1088
-1028
-1025
-1085
-1203
-1353
-1460
-1421
-1190
-867
-670
-763
-1097
-1447
-1628
-1654
-1670
-1758
-1851
-1835
-1690
-1490
-1308
-1168
-1085
-1098
-1216
-1358
-1413
-1365
-1311
-1340
-1430
-1474
-1418
-1329
-1300
-1345
-1402
-1428
-1458
-1551
-1689
-1784
-1769
-1660
-1547
-1515
-1551
-1553
-1420
-1159
-877
-690
-613
-562
-467
-359
-342
-482
-722
-949
-1093
-1145
-1117
-1001
-817
-653
-603
-670
-750
-718
-546
-330
-208
-244
-364
-417
-303
-90
16
-146
-537
-968
-1274
-1458
-1621
-1802
-1959
-2051
-2074
-1963
-1583
-906
-163
293
326
176
223
593
1021
1155
911
538
369
516
812
989
915
688
496
418
385
324
265
266
255
98
-172
-289
-27
495
903
975
859
821
839
619
4
-749
-1212
-1268
-1207
-1336
-1609
-1707
-1453
-1028
-780
-886
-1238
-1610
-1881
-2060
-2171
-2201
-2119
-1938
-1710
-1455
-1159
-815
-523
-440
-647
-1057
-1462
-1701
-1738
-1647
-1514
-1403
-1354
-1371
-1420
-1469
-1530
-1654
-1836
-1987
-2014
-1925
-1828
-1800
-1849
-1974
-2271
-2868
-3697
-4387
-4518
-4012
-3229
-2629
-2306
-1948
-1258
-369
212
112
-573
-1428
-2108
-2543
-2771
-2776
-2524
-2099
-1651
-1252
-877
-558
-468
-734
-1232
-1663
-1836
-1809
-1732
-1623
-1396
-1022
-636
-401
-361
-467
-669
-914
-1100
-1101
-884
-574
-357
-312
-356
-349
-241
-99
-25
-65
-200
-354
-437
-403
-282
-155
-66
17
127
210
143
-109
-390
-496
-408
-332
-466
-759
-934
-789
-427
-130
-61
-117
-106
35
201
257
144
-84
-332
-531
-649
-734
-881
-1107
-1298
-1302
-1102
-835
-624
-430
-178
49
23
-354
-882
-1234
-1305
-1288
-1400
-1586
-1594
-1281
-765
-285
25
170
167
1
-284
-539
-639
-631
-694
-894
-1088
-1044
-694
-250
-6
-48
-210
-267
-178
-99
-158
-307
-388
-281
0
393
868
1408
1926
2247
2221
1840
1247
613
14
-574
-1173
-1697
-1958
-1814
-1304
-633
-29
378
571
600
508
337
100
-210
-601
-1025
-1411
-1681
-1796
-1762
-1662
-1603
-1613
-1571
-1316
-847
-396
-188
-154
13
447
862
826
295
-290
-471
-259
-33
-34
-103
25
318
475
306
-29
-240
-257
-282
-519
-929
-1289
-1427
-1371
-1250
-1164
-1117
-1094
-1088
-1108
-1117
-1063
-965
-900
-921
-989
-1009
-947
-856
-805
-800
-804
-830
-941
-1159
-1387
-1486
-1400
-1201
-996
-830
-678
-529
-407
-322
-249
-194
-227
-416
-705
-924
-950
-830
-724
-724
-781
-794
-746
-701
-706
-753
-822
-918
-1041
-1150
-1188
-1149
-1081
-1035
-1030
-1063
-1133
-1207
-1219
-1129
-1014
-995
-1102
-1231
-1263
-1209
-1195
-1300
-1450
-1530
-1517
-1490
-1508
-1529
-1479
-1359
-1246
-1193
-1166
-1102
-996
-892
-832
-821
-838
-883
-958
-1039
-1078
-1039
-941
-832
-741
-654
-545
-412
-294
-201
-114
-30
3
-54
-160
-185
-55
122
180
123
185
576
1193
1687
1847
1832
1972
2338
2614
2420
1695
758
-20
-527
-897
-1287
-1689
-1950
-1923
-1543
-907
-272
94
154
119
180
257
120
-263
-576
-530
-289
-317
-668
-668
446
2512
4297
4542
3170
1341
305
263
360
-336
-1922
-3631
-4531
-4243
-3137
-1954
-1305
-1311
-1643
-1850
-1686
-1279
-1003
-1205
-1972
-3059
-3981
-4288
-3885
-3089
-2391
-2093
-2139
-2220
-2048
-1593
-1067
-752
-807
-1185
-1673
-2042
-2185
-2169
-2135
-2148
-2136
-1982
-1679
-1387
-1323
-1583
-2087
-2634
-3037
-3203
-3138
-2906
-2595
-2301
-2102
-2040
-2096
-2172
-2179
-2135
-2225
-2607
-3218
-3791
-4128
-4352
-4740
-5321
-5727
-5569
-4903
-4212
-3839
-3592
-3023
-2043
-1080
-588
-526
-491
-245
31
55
-177
-465
-776
-1336
-2288
-3389
-4149
-4258
-3806
-3126
-2462
-1839
-1148
-299
650
1432
1720
1376
599
-204
-756
-1070
-1306
-1518
-1610
-1509
-1295
-1115
-1043
-1063
-1171
-1394
-1743
-2115
-2346
-2324
-2076
-1745
-1460
-1237
-1018
-813
-774
-1057
-1588
-2064
-2202
-2037
-1869
-1932
-2162
-2315
-2240
-2006
-1770
-1617
-1567
-1637
-1841
-2119
-2336
-2405
-2364
-2314
-2307
-2304
-2247
-2131
-2001
-1903
-1851
-1844
-1859
-1878
-1879
-1839
-1730
-1548
-1360
-1299
-1466
-1800
-2081
-2126
-1964
-1798
-1773
-1813
-1736
-1497
-1261
-1218
-1371
-1569
-1680
-1703
-1675
-1568
-1331
-996
-672
-418
-178
91
312
334
114
-210
-441
-486
-393
-272
-183
-110
-12
131
288
391
372
217
-8
-187
-232
-146
-26
9
-81
-221
-294
-262
-190
-171
-199
-192
-81
102
274
386
447
463
409
274
108
6
2
17
-78
-338
-688
-991
-1131
-1077
-883
-640
-424
-239
-32
246
561
801
849
660
292
-139
-503
-699
-705
-599
-520
-538
-566
-455
-165
138
238
76
-190
-352
-344
-256
-206
-236
-319
-413
-483
-501
-458
-406
-419
-509
-584
-545
-405
-294
-332
-507
-696
-801
-829
-836
-823
-736
-556
-353
-230
-207
-208
-159
-71
-53
-213
-559
-971
-1261
-1307
-1139
-915
-772
-704
-599
-419
-281
-342
-617
-949
-1171
-1245
-1233
-1170
-1038
-832
-602
-398
-246
-189
-313
-662
-1131
-1519
-1711
-1741
-1683
-1513
-1146
-612
-98
239
424
556
623
509
213
-24
63
460
845
890
568
117
-236
-482
-777
-1251
-1880
-2490
-2848
-2801
-2409
-1945
-1700
-1740
-1859
-1799
-1530
-1278
-1282
-1544
-1852
-2001
-1952
-1804
-1660
-1556
-1507
-1541
-1656
-1796
-1886
-1903
-1897
-1926
-1985
-2021
-2007
-1974
-1987
-2084
-2237
-2367
-2411
-2361
-2259
-2167
-2112
-2079
-2041
-2002
-2001
-2074
-2220
-2385
-2496
-2500
-2395
-2221
-2026
-1837
-1651
-1465
-1309
-1228
-1241
-1333
-1462
-1602
-1754
-1901
-2001
-2016
-1955
-1892
-1873
-1846
-1734
-1573
-1512
-1634
-1791
-1754
-1541
-1521
-2063
-3076
-3986
-4254
-3878
-3325
-2981
-2761
-2270
-1298
-66
956
1414
1260
692
-8
-615
-1042
-1331
-1569
-1781
-1887
-1797
-1520
-1174
-898
-762
-755
-854
-1022
-1199
-1305
-1268
-1086
-835
-619
-499
-479
-534
-636
-750
-803
-741
-597
-480
-451
-454
-391
-266
-201
-284
-448
-549
-543
-542
-660
-855
-981
-962
-867
-795
-748
-671
-570
-524
-566
-610
-558
-441
-400
-519
-715
-817
-747
-578
-443
-410
-453
-518
-570
-584
-541
-463
-435
-562
-860
-1195
-1378
-1313
-1068
-809
-650
-570
-469
-271
15
298
467
457
285
35
-200
-364
-446
-489
-540
-631
-748
-819
-783
-649
-510
-462
-519
-612
-655
-608
-488
-335
-188
-91
-75
-112
-127
-45
119
260
283
205
113
68
51
3
-86
-180
-244
-274
-260
-184
-62
50
112
144
166
102
-188
-732
-1330
-1701
-1767
-1705
-1690
-1686
-1518
-1110
-562
-10
498
934
1200
1239
1202
1327
1607
1661
1073
-119
-1364
-2087
-2170
-1941
-1730
-1553
-1168
-390
708
1853
2727
3125
3013
2514
1834
1126
464
-101
-493
-646
-599
-469
-307
-34
414
900
1122
886
326
-166
-284
-87
87
-39
-432
-823
-991
-962
-925
-1005
-1153
-1226
-1136
-929
-706
-544
-485
-507
-551
-553
-487
-388
-263
-46
308
707
927
814
448
59
-234
-549
-1054
-1710
-2248
-2408
-2186
-1795
-1448
-1207
-1039
-931
-926
-1053
-1284
-1572
-1879
-2168
-2356
-2358
-2175
-1933
-1793
-1786
-1821
-1808
-1760
-1766
-1839
-1870
-1733
-1431
-1111
-944
-972
-1112
-1263
-1434
-1685
-1976
-2155
-2114
-1924
-1753
-1650
-1516
-1293
-1095
-1055
-1085
-964
-737
-886
-1917
-3743
-5600
-6661
-6681
-6023
-5112
-4018
-2543
-591
1638
3740
5300
6024
5839
4936
3697
2482
1475
706
160
-138
-173
-27
181
370
490
490
306
-37
-378
-492
-261
219
673
836
648
282
-41
-297
-694
-1370
-2082
-2298
-1756
-930
-773
-1849
-3707
-5236
-5633
-5020
-4101
-3358
-2650
-1567
16
1780
3240
4043
4078
3426
2318
1094
69
-625
-1048
-1311
-1439
-1371
-1099
-719
-364
-130
-65
-208
-574
-1064
-1454
-1533
-1300
-993
-872
-979
-1126
-1129
-1004
-897
-859
-781
-553
-253
-96
-208
-464
-608
-508
-267
-87
-39
-19
106
308
408
250
-113
-447
-521
-316
-38
101
86
72
147
184
-25
-503
-1037
-1414
-1640
-1881
-2209
-2470
-2463
-2168
-1755
-1368
-987
-521
17
498
785
865
836
814
846
883
822
604
292
38
-71
-87
-114
-166
-143
5
160
130
-127
-455
-680
-786
-913
-1156
-1432
-1548
-1381
-998
-639
-536
-734
-1041
-1183
-1061
-851
-819
-1043
-1329
-1423
-1269
-1022
-815
-648
-512
-468
-562
-696
-716
-616
-534
-528
-505
-383
-249
-202
-140
150
619
853
495
-292
-913
-950
-577
-340
-630
-1433
-2466
-3402
-3943
-3904
-3366
-2702
-2274
-2071
-1706
-848
390
1497
1992
1794
1155
397
-279
-775
-1044
-1090
-1020
-970
-974
-929
-678
-191
331
582
382
-169
-762
-1106
-1132
-979
-827
-734
-669
-630
-686
-870
-1093
-1217
-1185
-1060
-928
-800
-657
-484
-254
46
318
327
-121
-894
-1546
-1700
-1397
-990
-705
-418
124
925
1711
2218
2394
2311
2023
1588
1150
888
816
742
517
255
212
470
787
855
632
353
239
270
279
212
171
249
391
474
452
371
253
63
-183
-344
-280
-18
226
261
109
-23
35
218
286
90
-200
-252
55
482
629
342
-132
-423
-395
-223
-166
-357
-767
-1265
-1621
-1602
-1170
-593
-246
-221
-221
85
651
1070
1011
566
84
-205
-353
-489
-601
-591
-452
-315
-273
-230
-5
384
682
702
515
376
383
378
221
64
175
518
701
448
2
-122
226
625
607
278
211
754
1604
2159
2165
1869
1578
1289
836
217
-359
-759
-1076
-1444
-1793
-1898
-1630
-1100
-508
11
358
476
454
553
999
1709
2294
2448
2298
2232
2426
2640
2529
2053
1485
1078
845
687
616
725
1009
1313
1496
1553
1532
1401
1091
654
301
225
392
582
648
675
876
1299
1702
1765
1405
872
523
509
669
739
638
533
639
975
1321
1427
1243
932
702
629
651
693
789
1016
1367
1686
1776
1581
1272
1107
1196
1385
1400
1103
613
153
-157
-368
-602
-918
-1281
-1607
-1793
-1739
-1404
-893
-423
-176
-148
-196
-219
-235
-312
-438
-544
-599
-631
-648
-578
-368
-78
133
145
-21
-250
-449
-587
-654
-621
-480
-294
-176
-180
-228
-179
6
186
164
-84
-341
-357
-118
135
169
24
-41
150
504
749
727
523
338
268
260
223
148
100
136
246
374
477
540
570
583
590
589
564
532
581
847
1372
1979
2337
2244
1830
1454
1336
1322
1066
440
-249
-542
-282
213
465
288
-100
-354
-366
-277
-280
-453
-753
-1080
-1281
-1216
-885
-470
-172
18
219
375
244
-161
-224
807
2905
4956
5671
4845
3507
2774
2691
2347
1022
-1016
-2837
-3767
-3814
-3366
-2734
-2080
-1583
-1405
-1528
-1688
-1610
-1290
-978
-938
-1169
-1408
-1348
-880
-164
511
904
949
736
426
177
60
85
217
400
562
620
528
325
125
19
4
14
25
86
227
386
471
485
529
664
815
848
705
459
202
-34
-250
-416
-481
-459
-427
-415
-363
-205
21
177
186
149
239
500
788
920
897
886
995
1102
981
582
124
-144
-204
-246
-375
-455
-298
53
328
326
142
32
104
209
147
-102
-364
-493
-510
-517
-556
-561
-463
-299
-158
-85
-50
-6
43
67
61
41
-11
-147
-355
-490
-402
-110
185
291
226
174
275
493
684
730
604
353
112
68
312
704
940
846
581
468
621
832
824
560
255
104
118
206
312
426
479
339
-57
-613
-1131
-1420
-1388
-1044
-517
-30
254
388
608
1070
1624
1920
1754
1300
945
919
1133
1352
1442
1422
1329
1169
976
853
863
932
917
785
685
766
995
1192
1240
1175
1089
939
629
219
-67
-44
230
526
710
819
924
1005
1024
1076
1291
1554
1416
456
-1209
-2858
-3688
-3432
-2489
-1469
-629
262
1547
3227
4873
5921
6070
5427
4361
3249
2344
1754
1481
1430
1475
1550
1686
1964
2347
2648
2667
2351
1837
1326
961
816
901
1148
1410
1533
1457
1260
1062
931
868
875
976
1148
1267
1193
923
617
461
506
657
794
874
914
926
923
936
989
1038
981
776
549
485
637
842
890
754
605
608
748
873
877
794
722
704
722
759
825
924
1020
1059
1035
997
1000
1070
1185
1271
1257
1135
1008
1001
1133
1278
1298
1216
1176
1275
1442
1533
1517
1500
1564
1649
1624
1451
1213
1005
827
607
309
-22
-292
-427
-403
-253
-31
239
606
1131
1772
2364
2751
2936
3066
3232
3360
3314
3068
2725
2378
2025
1649
1334
1203
1254
1337
1312
1209
1183
1314
1525
1639
1553
1308
1061
966
1058
1214
1254
1100
848
666
600
541
380
167
55
109
218
263
291
450
748
976
931
667
446
420
456
326
41
-117
69
492
838
935
910
976
1153
1270
1199
997
812
719
676
608
492
363
281
287
374
465
459
320
115
-51
-134
-162
-180
-201
-221
-228
-191
-87
49
104
-2
-220
-406
-476
-479
-491
-498
-424
-269
-130
-72
-34
96
283
342
151
-167
-358
-303
-126
-35
-89
-165
-140
-36
18
-60
-235
-399
-467
-413
-272
-116
-13
29
84
223
420
560
566
492
456
504
573
569
490
421
434
504
532
466
344
240
188
171
163
194
307
458
494
267
-191
-637
-823
-701
-463
-341
-376
-395
-194
266
819
1235
1371
1238
964
709
590
625
726
738
578
300
74
30
135
238
201
14
-212
-351
-343
-220
-99
-111
-285
-504
-609
-600
-671
-985
-1444
-1742
-1700
-1489
-1462
-1771
-2181
-2315
-2029
-1511
-1038
-707
-414
-58
310
541
558
421
240
57
-160
-413
-617
-665
-537
-326
-138
-15
64
105
76
-45
-209
-343
-400
-407
-418
-440
-429
-348
-255
-276
-512
-934
-1362
-1592
-1564
-1396
-1236
-1119
-974
-752
-504
-349
-357
-527
-817
-1184
-1570
-1905
-2149
-2308
-2368
-2241
-1843
-1217
-553
-11
429
885
1357
1637
1529
1087
606
325
216
73
-221
-560
-763
-795
-801
-922
-1129
-1271
-1270
-1249
-1442
-1962
-2657
-3220
-3445
-3349
-3080
-2757
-2398
-1979
-1495
-958
-396
127
472
484
121
-482
-1090
-1512
-1696
-1722
-1718
-1750
-1755
-1594
-1207
-732
-439
-533
-1000
-1631
-2199
-2579
-2735
-2696
-2539
-2382
-2287
-2184
-1973
-1639
-1300
-1087
-992
-916
-841
-879
-1126
-1497
-1771
-1794
-1624
-1449
-1378
-1357
-1279
-1126
-988
-958
-1058
-1259
-1536
-1855
-2140
-2290
-2258
-2114
-2001
-1993
-2028
-1984
-1818
-1631
-1569
-1673
-1858
-2002
-2065
-2070
-2003
-1824
-1564
-1368
-1371
-1536
-1674
-1654
-1551
-1542
-1667
-1769
-1674
-1414
-1186
-1134
-1207
-1254
-1204
-1100
-997
-899
-807
-777
-883
-1098
-1300
-1369
-1303
-1193
-1112
-1064
-1023
-946
-808
-609
-405
-283
-277
-340
-415
-517
-696
-901
-971
-834
-689
-894
-1588
-2490
-3098
-3119
-2654
-2011
-1401
-836
-231
462
1210
1888
2287
2205
1604
714
-89
-540
-650
-634
-665
-732
-740
-647
-521
-439
-423
-450
-535
-712
-958
-1153
-1179
-1029
-813
-652
-591
-634
-794
-1048
-1272
-1303
-1105
-845
-755
-880
-1040
-1032
-870
-770
-899
-1190
-1401
-1367
-1148
-943
-874
-887
-841
-667
-425
-231
-135
-105
-107
-159
-282
-426
-471
-350
-140
-9
-41
-153
-177
-41
156
236
107
-159
-405
-522
-520
-498
-560
-743
-997
-1235
-1400
-1488
-1538
-1598
-1683
-1744
-1672
-1366
-853
-301
115
369
573
834
1116
1298
1360
1391
1447
1433
1239
922
698
694
762
635
257
-106
-123
248
704
876
654
265
38
103
292
306
4
-464
-787
-782
-542
-316
-249
-270
-252
-184
-169
-270
-406
-469
-465
-495
-561
-520
-253
142
428
495
468
499
524
311
-191
-717
-927
-798
-636
-707
-942
-1031
-797
-366
6
192
230
180
42
-176
-380
-456
-400
-328
-357
-465
-525
-445
-259
-97
-73
-209
-430
-613
-650
-514
-284
-118
-131
-300
-482
-558
-536
-535
-653
-874
-1102
-1240
-1242
-1123
-952
-810
-717
-620
-446
-216
-51
-63
-228
-446
-655
-846
-998
-1019
-850
-582
-389
-306
-173
152
549
707
422
-191
-798
-1130
-1148
-991
-802
-627
-382
60
703
1318
1568
1294
706
192
-29
-58
-99
-146
-6
435
1047
1577
1890
2037
2103
2078
1864
1385
700
32
-354
-321
5
329
447
432
517
797
1121
1261
1151
896
621
375
187
103
135
182
117
-68
-217
-194
-33
117
128
9
-145
-271
-360
-410
-396
-296
-163
-102
-166
-273
-294
-191
-94
-133
-266
-331
-279
-302
-603
-1088
-1403
-1321
-1017
-847
-894
-852
-417
284
776
720
249
-203
-336
-226
-159
-303
-568
-723
-602
-241
179
463
513
370
173
58
82
188
260
233
164
150
217
278
263
175
23
-257
-728
-1301
-1707
-1744
-1520
-1353
-1433
-1621
-1614
-1285
-794
-398
-174
17
337
785
1255
1667
2024
2323
2453
2278
1827
1317
965
710
321
-264
-711
-580
178
1070
1505
1354
999
848
881
727
125
-776
-1558
-1898
-1804
-1524
-1281
-1103
-869
-518
-175
-53
-219
-497
-631
-574
-521
-639
-854
-904
-651
-263
-33
-86
-287
-443
-509
-595
-752
-909
-964
-911
-838
-799
-755
-636
-431
-187
31
146
64
-265
-751
-1166
-1306
-1177
-983
-909
-939
-906
-703
-401
-166
-101
-201
-391
-583
-710
-727
-661
-588
-564
-561
-524
-472
-531
-777
-1106
-1304
-1260
-1096
-1028
-1097
-1115
-878
-435
-64
11
-160
-335
-365
-321
-367
-537
-710
-752
-650
-492
-370
-312
-297
-276
-222
-143
-96
-143
-278
-408
-437
-346
-207
-104
-56
-35
-6
47
121
209
301
386
449
457
389
283
244
337
486
544
473
410
497
676
722
561
445
716
1388
2058
2276
1987
1515
1183
992
697
143
-551
-1120
-1383
-1349
-1135
-837
-512
-217
-32
11
-32
-65
-69
-124
-304
-548
-689
-628
-436
-284
-258
-296
-301
-279
-317
-443
-549
-481
-230
19
55
-145
-388
-504
-525
-582
-605
-241
790
2271
3489
3775
3066
1918
950
288
-430
-1581
-3119
-4568
-5384
-5336
-4592
-3537
-2524
-1715
-1069
-443
263
972
1408
1232
329
-1004
-2177
-2682
-2452
-1846
-1281
-879
-433
294
1288
2305
3056
3373
3197
2549
1576
566
-193
-617
-856
-1087
-1273
-1205
-784
-197
261
466
534
614
712
779
887
1196
1656
1844
1277
-39
-1431
-2069
-1745
-1107
-1036
-1759
-2622
-2753
-1904
-614
403
915
1211
1617
2142
2572
2762
2750
2591
2256
1733
1155
774
771
1086
1468
1688
1688
1594
1562
1614
1624
1466
1137
758
447
249
146
113
103
7
-273
-715
-1157
-1411
-1409
-1197
-817
-246
506
1307
1941
2254
2254
2063
1798
1508
1207
925
697
531
416
351
351
417
512
565
531
416
260
110
3
-39
-36
-22
-22
-22
10
55
48
-42
-141
-129
22
200
257
154
-20
-155
-219
-242
-249
-224
-141
-8
136
261
368
453
496
482
416
308
178
44
-55
-82
-32
48
109
160
260
435
625
737
755
742
754
781
782
760
762
810
873
920
961
1008
1029
978
877
830
907
1065
1189
1220
1209
1244
1339
1431
1454
1394
1279
1142
1009
912
879
894
903
863
804
787
829
880
892
858
794
710
603
505
473
515
558
539
484
481
575
717
826
844
721
408
-45
-432
-503
-206
217
460
481
538
884
1452
1890
1888
1444
822
306
-3
-162
-268
-347
-372
-297
-111
151
437
676
796
764
620
464
381
396
462
506
498
474
494
570
629
592
472
376
402
523
608
557
405
272
244
322
459
611
737
800
796
758
724
670
526
259
-85
-420
-690
-877
-976
-992
-957
-893
-773
-558
-270
-13
166
358
696
1153
1489
1475
1137
728
476
414
424
395
308
230
267
522
986
1469
1702
1564
1218
958
917
964
891
660
414
288
278
303
319
325
302
189
-13
-216
-312
-278
-174
-57
60
172
223
137
-86
-343
-490
-466
-339
-232
-201
-193
-125
10
129
152
68
-77
-263
-509
-782
-959
-931
-743
-572
-521
-491
-293
93
451
548
387
180
99
96
23
-164
-357
-433
-395
-335
-322
-334
-321
-268
-200
-150
-158
-251
-424
-609
-733
-775
-770
-759
-739
-692
-656
-716
-922
-1243
-1593
-1884
-2061
-2088
-1956
-1678
-1283
-820
-361
-5
183
222
199
153
-8
-395
-947
-1395
-1468
-1142
-651
-227
112
502
989
1418
1587
1501
1332
1206
1083
871
618
482
539
678
733
679
610
602
633
674
758
909
1011
882
499
87
-72
78
329
436
331
142
44
126
344
565
657
609
547
611
807
994
1049
1034
1115
1319
1476
1407
1149
906
790
692
457
94
-227
-369
-367
-323
-250
-93
132
296
285
154
91
225
480
597
293
-535
-1702
-2785
-3372
-3341
-2910
-2408
-1962
-1420
-558
636
1899
2845
3238
3091
2597
2007
1490
1095
800
567
403
345
404
551
726
851
854
704
438
181
76
158
334
468
510
504
461
292
-98
-641
-1107
-1319
-1360
-1534
-2069
-2873
-3553
-3710
-3243
-2412
-1609
-1031
-560
68
939
1803
2270
2168
1697
1237
1028
1039
1130
1221
1334
1485
1624
1689
1682
1620
1455
1133
694
281
14
-118
-200
-247
-193
-5
236
411
483
467
274
-316
-1443
-2934
-4313
-5090
-5092
-4492
-3592
-2542
-1252
427
2422
4306
5498
5629
4821
3556
2309
1313
600
156
-22
30
231
527
920
1367
1697
1698
1289
604
-114
-642
-851
-731
-402
-75
68
-11
-199
-337
-340
-202
11
201
299
310
327
426
537
512
324
165
284
699
1141
1308
1170
962
909
989
972
680
165
-334
-596
-613
-553
-577
-697
-789
-740
-540
-268
-17
143
197
205
269
400
428
128
-533
-1277
-1740
-1792
-1586
-1326
-1038
-622
-46
605
1224
1729
1994
1834
1175
234
-568
-925
-856
-604
-360
-107
279
849
1503
2029
2241
2073
1632
1124
717
465
338
324
442
677
922
1054
1048
997
1002
1055
1046
901
673
496
455
515
578
579
526
462
400
323
232
163
138
134
97
16
-45
-26
51
89
44
-18
-11
44
27
-124
-304
-355
-274
-242
-432
-795
-1093
-1141
-969
-733
-535
-346
-97
214
510
709
768
682
457
131
-229
-545
-739
-764
-632
-408
-184
-11
128
280
450
572
563
414
205
54
33
118
219
264
252
240
284
352
359
301
276
355
468
479
390
343
431
542
515
404
434
633
618
-101
-1519
-2990
-3746
-3564
-2896
-2344
-2096
-1817
-1063
248
1741
2850
3228
2979
2531
2270
2256
2247
2050
1773
1726
2045
2481
2644
2398
1958
1610
1382
1075
560
-13
-335
-243
129
508
701
683
538
363
241
220
325
533
783
980
1031
937
804
771
864
956
913
755
626
635
749
849
891
920
977
1025
994
856
649
467
392
405
383
221
-32
-184
-138
-61
-231
-691
-1112
-1104
-648
-127
91
21
-40
91
284
311
130
-103
-266
-391
-543
-659
-588
-318
-53
-45
-325
-660
-797
-730
-674
-793
-1014
-1130
-1033
-811
-625
-547
-560
-640
-754
-787
-610
-279
-88
-271
-707
-986
-856
-556
-577
-1104
-1776
-2055
-1755
-1187
-790
-681
-629
-389
20
359
420
208
-110
-387
-575
-667
-635
-448
-139
194
457
640
786
911
970
936
825
681
526
385
294
293
379
498
589
629
633
613
576
530
485
430
345
255
229
309
428
451
311
97
-24
33
198
346
440
545
713
903
1034
1071
1052
1039
1031
984
867
709
583
540
562
578
530
455
453
571
720
745
593
377
277
319
327
112
-299
-645
-677
-406
-67
105
101
88
207
428
608
650
563
383
139
-127
-314
-309
-109
148
301
325
345
484
728
950
1029
941
745
525
359
309
375
481
524
473
410
448
595
737
780
748
745
801
833
774
664
587
540
436
238
0
-220
-471
-817
-1183
-1371
-1282
-1037
-810
-590
-192
477
1247
1835
2128
2254
2379
2494
2463
2219
1862
1569
1429
1388
1347
1297
1307
1438
1641
1776
1728
1521
1283
1123
1036
942
793
634
540
546
606
652
642
574
477
408
428
548
694
763
736
722
833
1007
1012
669
87
-373
-431
-142
176
283
249
337
681
1124
1379
1308
1013
694
451
263
103
22
82
254
438
567
651
738
819
821
707
539
409
338
277
212
208
322
477
488
254
-118
-393
-419
-251
-78
-18
-10
97
375
726
955
946
758
527
321
104
-151
-341
-311
-39
295
471
472
480
648
910
1047
936
698
570
664
887
1067
1114
1054
937
757
488
163
-130
-316
-405
-449
-446
-318
-18
351
602
639
564
554
666
773
731
564
458
563
841
1114
1237
1206
1124
1075
1062
1040
985
912
858
835
832
828
823
837
879
908
874
780
693
668
668
596
423
241
174
230
298
290
246
263
367
485
558
609
670
693
597
400
248
264
384
418
264
34
-62
49
239
321
247
130
100
162
225
213
151
102
81
46
-25
-95
-124
-141
-213
-335
-397
-291
-53
151
187
87
7
61
228
391
448
411
387
485
697
896
949
860
757
682
505
400
520
821
987
865
874
1741
3631
5666
6551
5776
4095
2717
2092
1600
382
-1647
-3700
-4881
-4893
-4069
-2936
-1867
-1032
-472
-95
295
840
1444
1799
1644
1050
423
208
561
1231
1757
1830
1500
1106
986
1227
1650
1993
2121
2072
1960
1853
1729
1538
1256
935
696
654
848
1194
1512
1652
1587
1416
1245
1093
931
761
631
551
444
230
-42
-197
-128
51
97
-100
-401
-578
-577
-548
-649
-838
-915
-736
-363
-7
168
181
170
233
333
361
281
184
166
237
316
347
380
504
722
940
1046
993
796
477
56
-393
-728
-795
-557
-161
180
373
531
848
1375
1926
2203
2062
1644
1252
1113
1191
1233
1018
550
74
-143
-39
218
436
570
691
851
1025
1195
1419
1728
1990
2000
1689
1237
898
738
618
415
199
148
311
544
681
713
758
886
1030
1073
1005
933
944
1018
1082
1111
1149
1229
1322
1388
1443
1531
1634
1660
1534
1299
1100
1055
1150
1275
1335
1319
1282
1270
1277
1263
1191
1070
946
872
855
867
870
864
883
936
965
891
707
511
416
450
544
605
584
479
316
158
76
109
216
308
344
384
511
742
1006
1215
1315
1268
1056
742
479
404
506
637
672
643
672
806
954
997
919
786
643
482
311
209
261
435
588
617
580
635
870
1225
1547
1732
1784
1747
1638
1444
1152
782
385
28
-208
-259
-116
162
487
785
1032
1213
1300
1249
1072
850
671
552
438
289
144
83
110
130
49
-123
-276
-293
-132
176
576
1030
1497
1922
2257
2490
2641
2719
2686
2497
2191
1919
1832
1919
1994
1865
1574
1372
1453
1715
1849
1667
1306
1065
1086
1234
1277
1144
970
924
1040
1193
1247
1175
1042
924
817
668
458
252
153
193
301
377
400
428
523
673
808
871
854
790
716
659
630
623
621
605
583
587
649
761
893
1007
1077
1095
1071
1029
988
944
877
774
658
566
529
559
634
708
736
717
700
721
733
628
370
92
0
150
364
421
318
264
420
686
831
779
666
626
581
373
27
-215
-162
78
220
141
10
81
398
746
889
782
553
358
266
261
289
300
280
255
276
368
499
615
700
777
862
921
913
847
791
812
906
1009
1054
1024
980
1025
1263
1720
2288
2743
2885
2700
2374
2110
1916
1599
1002
241
-344
-487
-229
153
428
597
800
1097
1392
1542
1505
1358
1199
1067
958
860
784
749
768
847
961
1060
1101
1078
1048
1078
1182
1316
1409
1411
1316
1158
994
874
820
817
842
881
932
990
1039
1077
1104
1117
1105
1062
1011
993
1033
1112
1189
1230
1226
1191
1138
1074
1008
949
913
911
942
988
1025
1047
1073
1127
1213
1302
1367
1397
1401
1387
1371
1374
1408
1459
1484
1455
1391
1339
1330
1349
1366
1382
1408
1431
1416
1361
1289
1201
1036
731
327
-30
-215
-247
-249
-293
-322
-231
5
325
667
1032
1423
1781
2037
2197
2375
2652
2965
3139
3050
2753
2434
2248
2200
2169
2026
1743
1395
1111
987
1034
1175
1310
1379
1387
1385
1430
1517
1584
1562
1457
1349
1308
1300
1215
998
750
646
762
988
1138
1136
1068
1069
1191
1361
1459
1421
1263
1068
929
888
928
980
1002
990
968
955
951
920
791
533
212
-57
-184
-178
-72
160
541
963
1229
1251
1178
1185
1137
603
-681
-2398
-3790
-4259
-3816
-2930
-2019
-1138
-118
1130
2468
3616
4283
4292
3655
2591
1463
601
140
-29
-103
-162
-140
70
470
888
1088
946
533
44
-357
-645
-889
-1139
-1323
-1272
-877
-243
319
519
327
14
-86
123
428
533
356
101
45
300
741
1159
1409
1457
1336
1105
848
643
497
375
275
262
420
764
1173
1481
1604
1583
1522
1447
1269
915
487
257
425
856
1104
799
34
-682
-873
-504
62
475
703
966
1444
2106
2754
3172
3223
2890
2307
1716
1317
1140
1053
909
704
555
564
731
982
1220
1368
1366
1202
945
709
601
653
819
1004
1102
1057
911
798
828
981
1125
1147
1059
951
859
751
609
476
386
298
159
11
-22
108
280
343
288
268
409
690
949
1043
972
858
803
796
733
550
328
220
254
314
325
428
823
1375
1523
732
-907
-2644
-3676
-3758
-3261
-2670
-2128
-1436
-368
1063
2560
3679
4046
3551
2429
1161
187
-310
-413
-280
9
452
1037
1714
2399
2985
3338
3310
2848
2094
1380
1034
1131
1459
1728
1808
1755
1644
1462
1189
900
742
772
861
821
580
233
-52
-168
-115
38
201
305
346
378
451
535
550
454
284
131
69
114
226
360
480
584
679
734
703
586
459
427
515
637
706
740
813
917
937
783
509
260
113
20
-86
-201
-256
-201
-22
252
498
486
22
-825
-1668
-2076
-1935
-1514
-1124
-803
-351
361
1204
1892
2227
2205
1907
1419
838
310
-22
-124
-93
-47
-28
1
88
235
392
472
396
161
-113
-270
-238
-118
-56
-80
-99
-57
-30
-111
-248
-273
-129
24
-12
-208
-323
-188
97
301
346
386
580
882
1101
1126
1013
873
733
575
429
370
437
566
686
793
915
1042
1122
1129
1106
1095
1072
987
845
727
694
720
736
731
753
815
848
765
586
442
447
563
637
574
444
395
492
649
718
655
549
508
545
566
487
331
203
183
269
383
438
408
340
311
348
393
344
164
-58
-175
-134
-30
18
14
69
233
404
449
393
393
514
602
470
166
-28
100
435
655
614
497
580
912
1240
1296
1104
882
781
753
675
557
534
670
826
815
640
514
610
823
895
716
448
351
493
697
755
623
400
184
-16
-236
-490
-752
-964
-1063
-998
-761
-393
64
578
1114
1614
1985
2196
2295
2346
2378
2348
2207
1974
1725
1536
1430
1384
1357
1319
1242
1116
983
908
911
928
866
718
581
564
672
803
877
916
975
1054
1090
1049
971
916
878
813
708
616
602
662
733
770
802
880
998
1075
1038
905
786
780
863
906
807
601
437
424
537
658
700
685
690
735
779
782
767
795
878
956
959
895
845
878
966
1001
901
685
449
287
207
153
93
40
38
107
218
331
428
500
517
433
240
14
-127
-123
-28
57
95
134
222
339
422
431
399
379
376
343
252
140
98
182
342
452
423
288
156
104
111
107
85
116
274
543
826
1044
1200
1346
1514
1661
1704
1604
1418
1276
1277
1396
1496
1450
1266
1069
971
972
990
960
869
739
622
585
662
803
900
904
883
907
905
718
331
-40
-132
77
352
480
517
689
1100
1586
1896
1926
1757
1506
1204
843
474
196
61
36
66
158
342
597
832
956
955
884
791
681
553
456
459
564
712
872
1073
1306
1442
1310
901
435
157
67
-53
-351
-700
-837
-647
-272
81
347
581
800
921
864
668
438
234
53
-106
-203
-216
-168
-102
-8
157
375
545
584
522
468
475
494
440
312
197
157
151
96
-15
-95
-82
-15
24
11
-8
-20
-102
-312
-562
-666
-524
-239
8
163
335
658
1126
1593
1885
1923
1742
1454
1180
992
860
677
354
-83
-475
-624
-440
-28
372
555
514
424
457
619
750
709
507
297
218
310
513
726
853
845
740
645
638
671
620
420
160
-2
4
117
235
315
378
432
439
362
211
14
-211
-447
-626
-651
-516
-374
-389
-535
-608
-461
-178
20
13
-136
-339
-594
-882
-1046
-916
-547
-225
-141
-151
49
516
942
978
599
92
-269
-434
-506
-545
-524
-421
-283
-163
-58
59
175
232
185
48
-124
-271
-349
-333
-249
-163
-137
-168
-194
-198
-245
-387
-552
-551
-264
197
574
698
637
587
648
740
711
484
113
-245
-407
-276
87
481
730
831
936
1159
1423
1544
1432
1182
972
881
855
826
807
872
1055
1277
1427
1450
1375
1270
1159
1005
786
554
397
365
418
482
534
612
739
855
872
771
639
571
565
541
461
385
395
493
600
665
706
748
757
676
516
369
306
296
265
204
186
258
365
417
375
265
151
82
68
97
141
184
224
266
274
179
-76
-455
-822
-1022
-976
-725
-381
-40
283
636
1052
1479
1790
1881
1731
1394
956
515
186
60
143
327
488
598
713
882
1068
1152
1055
827
596
471
474
559
666
768
848
870
768
497
105
-300
-634
-879
-1054
-1165
-1167
-1000
-636
-112
482
1050
1526
1887
2122
2199
2106
1895
1678
1537
1454
1347
1180
1034
1023
1163
1316
1302
1054
673
349
211
257
400
569
763
1011
1280
1479
1538
1450
1259
983
596
99
-382
-661
-643
-422
-196
-88
-71
-23
108
258
323
270
145
26
-40
-44
11
107
199
214
108
-84
-266
-368
-403
-425
-451
-417
-273
-55
134
205
166
79
0
-51
-56
-19
24
37
33
67
158
195
16
-405
-880
-1139
-1094
-896
-759
-739
-692
-473
-111
195
263
66
-281
-634
-892
-1002
-971
-863
-788
-775
-704
-404
129
638
783
472
-51
-445
-599
-687
-929
-1347
-1757
-1984
-2009
-1930
-1833
-1722
-1573
-1385
-1200
-1059
-964
-878
-764
-643
-582
-624
-707
-696
-532
-333
-299
-499
-782
-933
-883
-747
-663
-630
-532
-292
31
291
372
273
84
-95
-222
-329
-456
-590
-662
-625
-512
-411
-374
-385
-392
-384
-391
-442
-524
-597
-636
-651
-650
-644
-649
-671
-711
-763
-819
-869
-897
-887
-846
-813
-817
-849
-873
-875
-885
-930
-982
-981
-911
-824
-786
-809
-854
-882
-898
-931
-997
-1089
-1190
-1278
-1331
-1338
-1316
-1283
-1227
-1127
-989
-867
-814
-805
-757
-640
-521
-503
-600
-725
-774
-737
-690
-712
-798
-875
-877
-809
-738
-727
-768
-800
-770
-697
-661
-703
-779
-818
-814
-848
-992
-1234
-1506
-1770
-2048
-2342
-2581
-2660
-2556
-2342
-2084
-1751
-1265
-642
-34
389
594
698
822
948
941
717
364
67
-69
-116
-211
-399
-588
-682
-706
-745
-839
-937
-989
-1013
-1060
-1126
-1173
-1195
-1236
-1329
-1444
-1529
-1576
-1619
-1680
-1760
-1868
-2041
-2292
-2572
-2799
-2917
-2920
-2827
-2651
-2410
-2134
-1843
-1547
-1270
-1087
-1065
-1212
-1451
-1674
-1827
-1927
-2020
-2125
-2209
-2211
-2114
-1986
-1938
-2021
-2162
-2242
-2240
-2265
-2407
-2593
-2638
-2488
-2364
-2582
-3229
-4024
-4528
-4522
-4169
-3814
-3638
-3513
-3174
-2528
-1790
-1311
-1282
-1617
-2071
-2459
-2758
-3011
-3228
-3380
-3448
-3443
-3362
-3174
-2876
-2572
-2415
-2482
-2711
-2956
-3113
-3176
-3204
-3254
-3346
-3454
-3539
-3558
-3481
-3307
-3076
-2860
-2740
-2763
-2894
-3031
-3096
-3119
-3208
-3426
-3691
-3832
-3747
-3483
-3184
-2954
-2786
-2608
-2380
-2155
-2037
-2064
-2157
-2183
-2089
-1951
-1882
-1872
-1800
-1594
-1366
-1318
-1529
-1874
-2168
-2360
-2547
-2810
-3091
-3248
-3216
-3065
-2906
-2776
-2630
-2444
-2291
-2278
-2415
-2582
-2619
-2480
-2259
-2084
-1997
-1986
-2072
-2316
-2708
-3081
-3221
-3073
-2797
-2592
-2474
-2270
-1848
-1322
-1002
-1120
-1634
-2274
-2787
-3105
-3313
-3502
-3674
-3763
-3721
-3550
-3285
-2991
-2772
-2731
-2887
-3135
-3308
-3309
-3186
-3047
-2959
-2898
-2813
-2698
-2594
-2520
-2463
-2406
-2384
-2460
-2661
-2937
-3192
-3361
-3431
-3395
-3228
-2912
-2487
-2050
-1696
-1463
-1318
-1237
-1271
-1520
-2035
-2701
-3281
-3589
-3651
-3664
-3784
-3964
-4030
-3861
-3503
-3094
-2750
-2513
-2377
-2269
-2061
-1666
-1195
-938
-1112
-1637
-2194
-2526
-2631
-2681
-2790
-2902
-2875
-2624
-2186
-1694
-1337
-1286
-1549
-1934
-2209
-2321
-2437
-2731
-3157
-3466
-3451
-3154
-2814
-2642
-2665
-2773
-2850
-2866
-2873
-2928
-3020
-3093
-3101
-3047
-2971
-2911
-2854
-2788
-2739
-2735
-2776
-2793
-2716
-2568
-2461
-2487
-2616
-2727
-2748
-2755
-2891
-3165
-3379
-3296
-2894
-2394
-2045
-1888
-1793
-1676
-1610
-1707
-1948
-2212
-2436
-2657
-2897
-3061
-3019
-2782
-2522
-2392
-2388
-2408
-2401
-2399
-2459
-2552
-2628
-2690
-2773
-2851
-2815
-2580
-2192
-1834
-1692
-1795
-1987
-2100
-2105
-2106
-2183
-2279
-2274
-2159
-2075
-2152
-2332
-2425
-2330
-2161
-2121
-2258
-2402
-2353
-2091
-1765
-1535
-1428
-1365
-1277
-1168
-1088
-1090
-1176
-1300
-1393
-1417
-1389
-1322
-1185
-956
-698
-561
-607
-688
-592
-314
-114
-259
-722
-1181
-1365
-1317
-1297
-1460
-1697
-1753
-1481
-951
-401
-80
-98
-365
-656
-806
-848
-945
-1171
-1403
-1449
-1256
-959
-717
-585
-528
-520
-574
-689
-828
-940
-1006
-1039
-1037
-987
-886
-734
-537
-349
-286
-452
-807
-1133
-1197
-989
-759
-772
-1011
-1198
-1099
-787
-552
-584
-779
-909
-903
-910
-1053
-1220
-1185
-905
-615
-592
-843
-1105
-1136
-961
-801
-816
-948
-1002
-822
-381
204
721
993
983
824
676
564
392
107
-207
-437
-578
-719
-862
-885
-728
-555
-620
-963
-1332
-1461
-1383
-1368
-1584
-1888
-1996
-1803
-1431
-1038
-645
-201
271
675
956
1147
1270
1227
891
332
-186
-424
-409
-381
-501
-657
-618
-342
-50
10
-162
-374
-472
-508
-625
-834
-1012
-1066
-1031
-1012
-1061
-1131
-1142
-1043
-856
-724
-881
-1498
-2456
-3302
-3569
-3177
-2482
-1924
-1601
-1227
-518
469
1370
1809
1679
1184
621
184
-114
-340
-518
-590
-488
-252
-26
65
-13
-195
-378
-503
-541
-486
-362
-199
-16
179
367
474
407
137
-263
-641
-853
-829
-616
-347
-185
-206
-351
-506
-584
-582
-554
-543
-555
-569
-561
-542
-568
-696
-905
-1061
-1033
-830
-611
-521
-519
-424
-116
301
571
531
278
78
124
350
504
403
127
-67
-21
163
248
132
-61
-144
-50
129
286
414
557
713
822
856
848
826
749
553
255
2
-32
198
551
827
947
1006
1146
1374
1562
1586
1451
1255
1066
872
666
522
540
721
953
1116
1191
1229
1245
1177
965
640
303
44
-96
-107
5
204
426
618
749
812
773
605
371
213
217
314
352
286
236
331
527
634
525
283
102
83
155
203
212
258
386
543
630
595
462
291
130
8
-52
-38
36
145
271
403
514
582
610
630
664
677
615
497
436
529
717
830
769
627
579
644
658
497
266
198
355
543
536
339
162
146
204
153
-64
-347
-587
-777
-966
-1156
-1270
-1218
-921
-340
480
1379
2122
2560
2729
2775
2770
2621
2186
1468
688
141
-35
60
218
319
402
558
789
1005
1101
1052
890
626
258
-160
-501
-646
-589
-431
-260
-80
145
381
525
505
319
-5
-478
-1089
-1678
-1982
-1852
-1385
-808
-222
469
1330
2186
2712
2731
2366
1880
1397
884
342
-100
-283
-201
8
230
451
679
853
896
808
658
474
220
-138
-548
-937
-1285
-1591
-1777
-1725
-1433
-1103
-970
-1039
-1082
-913
-630
-530
-780
-1223
-1518
-1450
-1062
-557
-129
110
98
-177
-668
-1266
-1849
-2352
-2756
-3042
-3134
-2927
-2391
-1635
-878
-310
16
146
136
13
-183
-360
-478
-564
-625
-589
-369
-41
150
17
-395
-864
-1190
-1272
-1075
-651
-287
-414
-1218
-2295
-2900
-2602
-1697
-859
-422
-74
730
2188
3928
5314
5876
5555
4660
3662
2921
2515
2279
2042
1766
1548
1464
1520
1685
1898
2035
1954
1615
1158
780
614
689
975
1359
1638
1609
1273
866
660
690
786
864
1029
1303
1339
592
-1070
-2985
-4114
-3900
-2710
-1408
-502
232
1353
3048
4851
5991
5987
4940
3410
2033
1174
834
766
704
591
570
803
1270
1750
1975
1838
1432
955
581
414
493
775
1142
1440
1555
1450
1155
726
264
-87
-209
-82
192
461
629
705
765
887
1078
1271
1353
1258
1040
833
715
629
456
168
-136
-326
-387
-400
-448
-532
-587
-538
-333
29
498
988
1438
1848
2238
2577
2781
2794
2635
2379
2082
1775
1491
1245
1025
804
609
529
623
851
1091
1254
1343
1416
1502
1587
1636
1603
1444
1169
870
676
642
697
741
742
765
875
1053
1222
1320
1333
1281
1178
1023
824
612
445
380
432
545
639
684
740
890
1128
1333
1377
1217
942
701
614
689
821
883
842
811
928
1195
1437
1461
1250
968
786
730
719
702
711
781
891
987
1058
1135
1211
1228
1136
962
806
741
766
823
862
875
886
901
912
892
834
762
710
691
673
631
581
571
620
705
789
851
874
834
734
649
691
906
1213
1468
1603
1667
1727
1767
1714
1528
1250
951
672
437
283
261
377
565
749
903
1052
1211
1352
1430
1430
1383
1329
1281
1237
1214
1224
1257
1282
1283
1293
1351
1435
1478
1450
1417
1470
1609
1709
1644
1419
1170
1027
1018
1079
1136
1161
1163
1164
1191
1254
1318
1324
1246
1130
1051
1021
985
893
779
728
772
842
845
775
726
773
875
926
880
807
794
817
762
571
340
239
333
516
622
595
539
600
811
1052
1153
1058
879
782
825
913
928
867
840
933
1098
1217
1236
1208
1204
1235
1260
1239
1160
1034
895
799
787
843
919
1001
1113
1232
1250
1076
752
427
189
-20
-288
-582
-757
-719
-493
-147
314
905
1547
2073
2374
2505
2605
2741
2848
2828
2662
2432
2243
2140
2112
2114
2101
2052
1965
1845
1713
1610
1575
1599
1622
1576
1468
1392
1426
1532
1588
1525
1414
1382
1464
1556
1535
1389
1226
1149
1160
1184
1158
1090
1028
998
1002
1025
1060
1099
1127
1135
1128
1119
1108
1092
1071
1041
1003
970
980
1050
1145
1187
1134
1056
1069
1195
1307
1247
1009
772
713
825
936
902
754
642
658
759
845
873
872
876
884
875
851
831
822
812
791
760
725
682
638
613
617
629
623
598
582
602
655
713
754
776
779
761
733
721
743
781
791
757
715
713
762
829
878
895
892
883
886
910
945
968
971
980
1025
1094
1153
1185
1214
1269
1327
1336
1287
1239
1254
1320
1362
1333
1258
1198
1193
1230
1285
1335
1355
1331
1281
1263
1311
1394
1428
1356
1209
1058
953
890
847
818
804
804
822
878
989
1116
1186
1146
1024
915
874
860
808
725
709
827
1011
1110
1055
913
799
743
688
615
583
640
748
829
884
992
1186
1350
1345
1168
964
852
794
678
475
286
208
231
285
334
414
561
748
921
1050
1118
1086
912
611
298
118
127
279
498
768
1119
1530
1884
2050
1983
1745
1414
1006
520
52
-212
-154
150
487
704
808
873
866
661
208
-346
-789
-1032
-1132
-1112
-860
-271
562
1380
1981
2368
2632
2777
2731
2514
2264
2079
1914
1703
1521
1513
1663
1749
1581
1217
887
735
709
728
805
981
1191
1314
1298
1202
1074
870
548
187
-55
-105
-19
131
355
687
1063
1334
1404
1289
1081
869
686
535
417
352
378
510
693
815
819
774
769
747
507
-50
-731
-1166
-1127
-726
-257
92
374
740
1249
1797
2205
2349
2217
1888
1463
1005
558
204
66
189
458
661
687
627
635
699
635
267
-353
-958
-1302
-1367
-1316
-1276
-1189
-911
-445
18
299
483
819
1347
1705
1415
405
-816
-1578
-1636
-1294
-1002
-883
-697
-169
697
1621
2264
2424
2109
1508
891
476
309
283
252
180
154
260
496
768
949
974
844
615
369
184
131
228
424
620
735
750
695
604
514
501
653
970
1295
1389
1157
765
504
502
604
553
274
-38
-135
35
295
431
389
268
183
156
143
98
24
-60
-155
-259
-336
-316
-182
-25
45
27
34
159
331
402
324
197
172
265
322
190
-100
-344
-355
-150
52
45
-156
-326
-277
-82
25
-68
-212
-179
49
278
378
442
634
930
1103
986
683
474
516
683
712
469
94
-95
105
559
892
812
417
108
150
408
525
330
-25
-305
-458
-591
-779
-990
-1191
-1424
-1697
-1852
-1679
-1145
-454
154
621
1052
1532
2016
2385
2544
2457
2149
1710
1276
961
784
676
608
610
697
788
763
615
471
428
424
300
12
-273
-331
-132
124
210
108
-6
20
129
156
48
-74
-93
-71
-190
-516
-864
-965
-748
-411
-206
-180
-169
-7
292
534
488
73
-549
-1022
-1046
-666
-256
-152
-260
-131
466
1101
989
-183
-1850
-3048
-3299
-2924
-2492
-2148
-1577
-521
853
2126
3003
3411
3334
2732
1710
632
-91
-331
-308
-305
-366
-329
-87
255
471
449
252
-1
-277
-632
-1047
-1338
-1266
-848
-390
-205
-334
-515
-484
-234
47
217
244
129
-116
-393
-519
-394
-161
-79
-229
-410
-364
-48
341
565
530
305
40
-120
-110
0
49
-65
-273
-392
-306
-67
168
267
235
171
152
204
280
302
247
184
200
303
436
541
624
710
779
790
736
650
565
489
426
385
369
347
295
241
233
271
284
216
103
36
48
51
-67
-305
-531
-613
-546
-439
-394
-401
-377
-281
-151
-68
-71
-139
-233
-325
-390
-405
-378
-347
-361
-418
-458
-429
-349
-306
-349
-438
-479
-437
-367
-353
-404
-453
-431
-352
-280
-240
-197
-117
-37
-26
-97
-176
-190
-146
-122
-161
-220
-219
-138
-22
76
128
105
-20
-230
-422
-475
-368
-206
-109
-110
-169
-264
-412
-619
-877
-1204
-1653
-2190
-2622
-2708
-2392
-1874
-1395
-991
-517
93
679
1020
1080
1019
973
905
714
427
212
178
247
261
153
-6
-119
-179
-253
-379
-513
-591
-598
-565
-529
-484
-416
-347
-329
-388
-484
-547
-558
-569
-623
-686
-677
-582
-485
-474
-531
-560
-523
-529
-696
-970
-1136
-1058
-860
-786
-914
-1053
-1002
-816
-750
-935
-1196
-1266
-1113
-973
-1058
-1287
-1388
-1216
-923
-785
-895
-1114
-1246
-1238
-1174
-1153
-1201
-1298
-1417
-1521
-1548
-1465
-1329
-1258
-1308
-1428
-1521
-1539
-1489
-1404
-1341
-1379
-1526
-1655
-1602
-1381
-1220
-1311
-1554
-1658
-1493
-1242
-1168
-1290
-1426
-1461
-1469
-1546
-1620
-1583
-1511
-1592
-1850
-2066
-2025
-1795
-1654
-1750
-1934
-1944
-1725
-1483
-1454
-1661
-1900
-1954
-1782
-1545
-1448
-1566
-1777
-1853
-1674
-1345
-1139
-1272
-1712
-2175
-2359
-2179
-1820
-1519
-1346
-1247
-1253
-1560
-2303
-3268
-3968
-4061
-3655
-3169
-2843
-2468
-1647
-309
1116
2017
2079
1469
605
-181
-776
-1218
-1586
-1941
-2299
-2576
-2638
-2421
-2037
-1733
-1734
-2076
-2602
-3051
-3217
-3060
-2730
-2470
-2408
-2477
-2501
-2413
-2337
-2422
-2638
-2775
-2667
-2383
-2153
-2121
-2204
-2237
-2188
-2190
-2356
-2603
-2713
-2583
-2335
-2186
-2205
-2242
-2114
-1804
-1499
-1377
-1408
-1422
-1328
-1204
-1169
-1197
-1173
-1063
-956
-904
-790
-520
-289
-530
-1481
-2848
-3996
-4480
-4331
-3843
-3199
-2374
-1299
-34
1241
2296
2883
2822
2149
1155
208
-509
-1038
-1445
-1672
-1584
-1177
-608
-19
573
1174
1687
1942
1881
1652
1491
1535
1729
1906
1938
1820
1627
1427
1253
1098
950
823
730
676
642
609
569
523
485
467
482
529
579
587
526
399
227
31
-164
-314
-358
-275
-113
25
60
-4
-93
-138
-129
-106
-120
-192
-284
-325
-276
-177
-130
-200
-352
-498
-593
-665
-743
-812
-826
-776
-689
-587
-477
-383
-350
-394
-476
-537
-579
-657
-791
-913
-932
-844
-746
-736
-795
-807
-695
-526
-449
-536
-693
-770
-763
-870
-1293
-1989
-2640
-2912
-2745
-2356
-1991
-1714
-1394
-888
-204
488
973
1122
967
670
393
205
76
-30
-99
-106
-88
-101
-127
-82
68
209
167
-92
-377
-447
-257
-23
-9
-258
-554
-654
-522
-339
-271
-273
-164
141
523
772
781
620
407
201
14
-127
-180
-152
-113
-120
-141
-91
59
226
284
182
-8
-161
-211
-195
-182
-205
-227
-203
-129
-49
-13
-23
-48
-66
-89
-154
-281
-429
-516
-495
-404
-333
-331
-356
-321
-197
-42
52
39
-59
-174
-236
-211
-113
1
86
150
229
320
368
329
227
118
11
-139
-336
-496
-533
-488
-523
-761
-1138
-1435
-1460
-1215
-872
-598
-410
-163
277
859
1353
1542
1426
1212
1087
1050
969
786
602
538
587
623
559
432
341
324
351
378
409
490
656
891
1118
1222
1123
834
433
-3
-443
-859
-1183
-1325
-1254
-1005
-630
-146
438
1054
1592
1982
2244
2436
2565
2580
2449
2215
1964
1757
1596
1440
1270
1102
978
917
883
809
661
482
354
313
313
285
222
191
251
378
484
494
409
282
160
67
15
12
44
60
17
-72
-137
-128
-73
-61
-146
-283
-377
-384
-336
-288
-260
-230
-190
-151
-111
-31
107
252
303
224
94
31
66
109
52
-85
-179
-132
15
134
165
176
263
414
497
403
193
50
70
155
125
-48
-198
-167
13
150
140
80
115
232
268
133
-58
-127
-51
24
-33
-178
-261
-206
-70
45
89
82
55
23
6
24
70
104
95
53
30
68
159
261
332
358
356
363
395
447
496
536
571
610
653
686
683
637
598
660
860
1077
1109
883
586
504
711
962
945
638
340
343
621
877
882
684
507
495
589
639
584
479
406
390
391
383
373
389
426
445
420
374
349
354
359
334
283
210
103
-33
-134
-123
-10
97
114
93
174
395
618
666
511
293
156
120
112
81
45
34
48
83
142
218
257
205
84
-6
1
66
83
13
-75
-81
10
122
186
206
236
300
369
413
448
509
596
659
654
597
543
516
482
403
300
250
289
358
376
349
381
535
706
683
356
-146
-575
-801
-921
-1108
-1398
-1641
-1669
-1445
-1067
-650
-245
148
528
860
1098
1220
1246
1238
1261
1315
1319
1201
990
820
783
823
787
589
323
151
140
193
187
95
-25
-138
-277
-432
-510
-432
-252
-116
-100
-130
-98
-7
53
35
-35
-147
-343
-622
-852
-865
-667
-459
-423
-503
-477
-246
40
147
13
-198
-274
-156
42
163
151
34
-122
-271
-405
-554
-746
-959
-1109
-1109
-951
-734
-594
-584
-639
-656
-630
-677
-906
-1272
-1557
-1540
-1202
-740
-390
-216
-95
106
355
476
339
2
-338
-544
-604
-586
-522
-413
-276
-180
-204
-374
-644
-944
-1208
-1381
-1433
-1356
-1164
-882
-551
-210
114
400
615
703
627
426
214
105
101
124
122
126
181
269
327
340
369
448
511
474
374
363
536
802
982
1007
977
1013
1105
1148
1093
996
938
927
920
914
948
1026
1089
1065
959
843
786
781
764
708
640
619
697
864
1037
1136
1160
1158
1156
1114
964
718
482
376
420
513
535
458
362
355
445
525
478
302
122
90
253
521
743
820
739
549
324
114
-69
-267
-518
-769
-887
-780
-519
-295
-235
-296
-297
-157
32
143
159
170
239
338
420
470
486
438
306
173
167
297
412
397
353
508
920
1350
1488
1281
965
767
693
614
494
421
438
447
325
96
-89
-145
-147
-263
-551
-882
-1029
-833
-331
290
844
1274
1654
2057
2457
2774
2940
2935
2756
2414
1997
1678
1593
1731
1948
2102
2148
2100
1962
1760
1574
1483
1463
1392
1192
950
853
999
1300
1551
1605
1450
1183
917
706
544
398
269
201
218
291
393
530
719
906
978
884
727
667
749
862
880
802
731
723
740
718
654
606
610
658
728
809
885
924
897
841
809
827
855
837
772
722
746
844
933
928
833
732
695
695
662
596
568
616
667
620
498
440
535
678
694
553
400
379
440
415
246
62
34
174
337
409
378
341
386
497
624
699
655
479
262
176
311
532
585
375
128
168
548
954
1020
741
474
520
804
1018
1006
920
974
1161
1292
1271
1208
1219
1271
1246
1128
1042
1078
1172
1195
1113
1043
1063
1120
1113
1010
875
778
735
729
745
775
800
812
839
911
999
1018
926
774
651
588
570
575
620
692
730
681
575
511
535
593
598
516
374
214
80
19
67
202
329
360
306
276
354
525
671
683
537
301
78
-60
-117
-163
-236
-305
-290
-159
27
170
240
269
288
288
261
225
212
224
247
293
399
553
663
631
473
315
249
246
225
173
169
278
467
663
841
1014
1152
1191
1080
826
491
132
-201
-467
-658
-794
-883
-908
-854
-741
-604
-422
-108
349
829
1192
1444
1729
2136
2563
2814
2791
2540
2142
1662
1224
1001
1043
1167
1127
917
795
955
1264
1399
1243
988
850
812
715
534
460
637
956
1152
1091
915
831
876
907
780
497
205
77
197
502
804
923
855
776
848
1000
960
584
88
-144
31
362
491
351
221
380
762
1040
973
624
259
72
60
113
158
188
250
373
586
860
1065
1054
797
437
185
126
165
154
65
5
77
254
402
431
368
305
293
296
232
81
-66
-83
71
303
455
444
328
234
233
301
362
359
285
173
81
63
126
218
276
295
322
398
515
621
678
688
686
692
703
695
653
584
528
516
559
634
715
782
839
897
950
984
967
890
791
734
742
781
812
855
964
1137
1283
1306
1205
1080
1023
1040
1069
1047
950
812
707
708
829
987
1056
988
861
789
808
846
829
777
772
826
856
798
702
683
786
910
928
814
621
382
101
-111
-69
224
356
-246
-1686
-3292
-4077
-3634
-2488
-1530
-1113
-791
84
1608
3211
4199
4300
3710
2792
1829
996
397
33
-210
-438
-627
-641
-403
-12
310
402
259
-27
-340
-570
-611
-420
-63
303
544
607
509
296
20
-223
-332
-274
-127
-21
-17
-86
-188
-329
-534
-798
-1066
-1296
-1488
-1662
-1832
-1991
-2124
-2182
-2052
-1613
-863
-18
602
852
908
1099
1562
2099
2378
2255
1874
1461
1096
720
324
41
20
253
576
851
1109
1453
1883
2247
2349
2122
1694
1262
959
809
759
763
787
803
792
751
685
548
240
-300
-982
-1542
-1717
-1427
-842
-214
336
860
1459
2098
2557
2588
2110
1302
492
-61
-293
-305
-221
-84
136
477
937
1443
1887
2161
2174
1913
1451
940
553
386
413
510
546
477
372
331
381
480
546
527
421
249
85
43
188
453
650
590
206
-458
-1309
-2201
-2878
-3030
-2527
-1630
-858
-550
-553
-411
126
833
1250
1154
759
480
566
968
1484
1918
2150
2125
1885
1558
1264
1026
785
486
169
-52
-80
116
481
886
1180
1247
1081
783
483
268
164
163
239
330
374
361
338
361
442
541
625
699
768
818
823
776
695
605
556
617
823
1105
1305
1317
1187
1048
961
874
732
596
590
753
992
1189
1308
1379
1417
1407
1375
1411
1579
1806
1935
1877
1691
1505
1371
1190
821
239
-419
-933
-1158
-1091
-843
-562
-340
-196
-67
102
297
417
369
190
25
-13
47
103
131
216
404
594
632
503
363
378
556
802
1083
1445
1903
2349
2625
2678
2589
2441
2213
1825
1259
605
31
-328
-406
-230
118
511
861
1156
1417
1641
1750
1669
1392
1001
603
270
34
-102
-155
-156
-120
-21
186
515
910
1293
1643
1998
2375
2713
2895
2864
2687
2513
2431
2388
2236
1909
1550
1415
1622
1974
2107
1830
1322
943
834
784
486
-76
-577
-686
-382
55
354
490
613
823
1067
1208
1167
976
728
504
339
235
184
179
213
278
345
389
413
435
443
402
298
180
113
108
121
133
187
318
457
468
313
113
40
121
212
172
-1
-183
-260
-225
-132
-24
92
219
349
453
511
522
518
531
554
520
377
154
-32
-77
-9
45
-13
-144
-220
-153
22
183
242
202
135
97
90
88
79
73
76
78
80
103
161
227
254
242
247
307
382
397
355
350
446
578
614
525
437
473
594
643
544
393
342
425
541
593
590
592
622
658
683
718
783
859
904
902
878
872
909
979
1033
1015
918
791
687
614
535
425
315
271
332
478
653
819
975
1145
1315
1425
1410
1288
1155
1095
1081
1001
813
619
564
672
808
840
785
753
805
892
946
960
979
1013
1025
983
907
834
758
658
544
455
409
385
350
285
199
96
-23
-150
-263
-357
-438
-492
-457
-262
102
549
954
1247
1446
1611
1761
1841
1792
1621
1418
1293
1296
1356
1358
1233
1009
769
586
468
384
297
211
167
214
356
539
664
652
489
223
-69
-329
-540
-712
-857
-944
-880
-556
40
763
1386
1763
1915
1972
2022
2026
1905
1658
1364
1103
909
783
744
803
907
966
939
880
864
862
750
465
91
-194
-283
-203
-54
103
267
444
618
763
847
826
677
468
354
462
743
1004
1092
1046
1027
1101
1122
880
336
-320
-826
-1047
-1036
-912
-734
-478
-109
350
812
1166
1327
1274
1060
760
444
196
76
72
97
68
19
59
210
347
344
271
304
427
298
-437
-1692
-2895
-3471
-3305
-2719
-2048
-1333
-431
698
1885
2877
3473
3556
3114
2304
1460
906
739
786
800
711
643
724
920
1041
919
538
39
-376
-559
-514
-348
-145
118
505
931
1134
932
498
258
336
238
-731
-2651
-4669
-5676
-5289
-4100
-2958
-2128
-1206
281
2310
4376
5849
6294
5609
4078
2320
993
414
403
533
564
584
816
1345
2026
2578
2742
2423
1752
1026
538
410
576
862
1098
1156
968
595
221
46
131
347
528
629
721
851
974
1010
954
861
761
635
487
387
394
459
441
266
32
-69
34
208
231
9
-326
-541
-525
-368
-239
-212
-222
-175
-51
102
238
357
471
558
572
499
383
307
326
410
464
419
324
318
503
829
1137
1326
1432
1546
1655
1664
1534
1347
1198
1065
842
498
145
-85
-195
-294
-452
-657
-839
-966
-1041
-1055
-982
-799
-489
-56
457
967
1401
1764
2118
2466
2707
2720
2499
2177
1911
1768
1699
1594
1352
970
608
515
809
1281
1522
1318
896
722
989
1388
1440
980
340
-50
-79
34
60
-27
-116
-142
-129
-79
53
265
452
491
367
176
11
-91
-104
-6
161
283
259
127
49
156
422
678
748
574
268
51
76
276
406
276
-20
-214
-185
-94
-176
-412
-524
-329
16
201
126
5
88
372
613
610
379
84
-123
-189
-142
-41
34
23
-32
-27
68
131
23
-232
-437
-433
-276
-121
10
239
594
865
801
430
41
-137
-185
-373
-773
-1144
-1209
-935
-548
-287
-204
-175
-79
77
164
38
-292
-626
-746
-600
-326
-93
72
272
566
891
1136
1242
1214
1093
954
875
891
944
937
864
822
904
1072
1193
1209
1181
1190
1205
1105
852
585
500
639
846
957
975
1046
1219
1349
1265
993
739
662
690
655
547
535
748
1085
1330
1401
1408
1476
1553
1481
1229
960
853
914
990
969
913
950
1084
1171
1076
821
558
389
281
159
39
19
143
323
438
448
418
421
456
481
482
485
512
556
596
636
695
765
812
813
792
784
803
834
856
894
975
1060
1075
993
888
858
906
927
820
617
436
322
205
24
-150
-181
-68
4
-123
-364
-466
-308
-60
36
-26
2
317
821
1252
1492
1694
2055
2579
3082
3403
3545
3571
3474
3191
2703
2114
1547
1042
573
156
-87
-62
179
486
755
993
1201
1265
1055
626
225
34
-56
-308
-758
-1087
-945
-352
296
635
652
597
625
670
611
459
333
279
227
126
35
59
181
269
237
154
158
273
382
376
294
272
363
491
565
585
595
563
381
20
-361
-536
-425
-193
-79
-139
-189
-12
400
810
947
738
345
-1
-168
-157
-31
120
210
181
91
116
414
939
1421
1553
1250
698
187
-118
-273
-468
-838
-1335
-1710
-1700
-1277
-752
-521
-686
-935
-899
-594
-425
-726
-1359
-1834
-1825
-1486
-1209
-1191
-1280
-1231
-985
-678
-447
-335
-323
-371
-394
-286
-23
281
473
515
481
441
388
299
207
103
-177
-852
-1940
-3096
-3859
-4011
-3698
-3195
-2607
-1821
-726
575
1763
2486
2550
1984
1008
-45
-868
-1299
-1361
-1183
-860
-390
259
1026
1722
2110
2070
1684
1161
660
213
-179
-430
-424
-188
64
114
-32
-165
-125
-1
-17
-244
-493
-559
-491
-560
-920
-1374
-1547
-1303
-881
-586
-408
-85
446
817
583
-225
-1039
-1312
-1047
-679
-499
-329
201
1174
2252
2994
3209
2983
2513
1990
1568
1318
1172
990
741
582
672
967
1221
1225
987
643
283
-102
-493
-782
-881
-853
-856
-956
-1037
-929
-604
-166
294
808
1428
2075
2567
2790
2808
2770
2708
2515
2113
1623
1293
1256
1391
1432
1223
859
573
502
558
553
417
266
237
279
144
-377
-1206
-1981
-2321
-2110
-1536
-883
-333
82
357
455
355
140
-41
-114
-123
-120
-30
342
1097
2045
2769
2921
2482
1748
1070
607
305
40
-214
-370
-319
-36
385
790
1020
971
619
46
-570
-1017
-1152
-982
-649
-333
-160
-157
-293
-513
-756
-968
-1099
-1126
-1072
-1002
-1000
-1134
-1405
-1730
-1971
-2024
-1881
-1622
-1342
-1091
-852
-610
-406
-326
-424
-662
-943
-1199
-1419
-1598
-1670
-1557
-1272
-948
-724
-616
-524
-371
-200
-129
-214
-403
-589
-699
-717
-652
-524
-384
-301
-311
-374
-408
-354
-237
-136
-102
-118
-133
-112
-58
5
65
131
205
269
298
289
270
281
327
373
382
358
348
391
483
562
572
507
409
335
318
360
428
480
492
486
506
566
607
545
356
111
-84
-177
-186
-146
-70
41
158
252
326
403
466
440
267
-7
-245
-332
-270
-156
-76
-44
-29
-6
20
48
77
78
13
-122
-272
-366
-379
-348
-320
-304
-283
-257
-240
-225
-175
-72
43
110
115
104
126
170
173
91
-61
-229
-350
-389
-345
-262
-192
-156
-121
-42
65
139
137
77
-14
-157
-392
-704
-1003
-1232
-1428
-1667
-1927
-2074
-1990
-1703
-1348
-1019
-677
-226
340
887
1255
1395
1400
1394
1398
1315
1061
698
392
237
153
-18
-306
-563
-626
-497
-340
-288
-317
-297
-152
58
204
189
18
-213
-394
-485
-556
-703
-943
-1175
-1283
-1259
-1187
-1122
-1045
-929
-821
-801
-867
-916
-866
-768
-769
-944
-1212
-1420
-1494
-1492
-1528
-1647
-1763
-1737
-1524
-1244
-1097
-1165
-1322
-1371
-1262
-1146
-1180
-1330
-1418
-1352
-1235
-1221
-1315
-1376
-1301
-1143
-1034
-1024
-1042
-1013
-947
-902
-904
-919
-924
-938
-998
-1102
-1210
-1295
-1359
-1416
-1469
-1513
-1544
-1554
-1527
-1461
-1390
-1352
-1343
-1311
-1220
-1105
-1045
-1072
-1137
-1165
-1151
-1159
-1240
-1372
-1480
-1504
-1452
-1373
-1319
-1301
-1296
-1275
-1225
-1153
-1064
-967
-885
-857
-898
-961
-964
-862
-705
-594
-585
-628
-626
-556
-492
-516
-602
-615
-469
-260
-198
-376
-644
-743
-612
-461
-527
-793
-1020
-1017
-844
-691
-637
-622
-616
-715
-1024
-1478
-1840
-1914
-1709
-1392
-1095
-816
-471
-17
475
867
1038
946
650
287
-1
-136
-144
-114
-120
-155
-161
-103
-21
9
-55
-190
-336
-422
-418
-353
-291
-282
-312
-327
-317
-340
-434
-535
-518
-387
-352
-677
-1396
-2207
-2685
-2626
-2156
-1552
-962
-318
523
1568
2609
3334
3527
3198
2547
1830
1222
768
443
224
132
198
390
616
784
835
746
501
99
-416
-918
-1257
-1377
-1353
-1309
-1298
-1282
-1211
-1110
-1042
-1003
-918
-713
-395
-22
354
712
1015
1209
1289
1358
1540
1807
1943
1743
1235
686
343
221
151
1
-173
-236
-171
-92
-92
-80
115
511
870
896
529
33
-254
-263
-233
-428
-837
-1182
-1209
-927
-559
-302
-182
-100
19
160
259
264
180
63
-14
-28
-18
-57
-178
-333
-434
-453
-455
-501
-573
-601
-556
-478
-411
-331
-207
-104
-191
-572
-1129
-1569
-1674
-1477
-1186
-957
-767
-496
-93
372
780
1030
1060
860
492
86
-236
-433
-544
-624
-681
-684
-609
-471
-317
-199
-153
-171
-204
-201
-153
-74
37
197
384
512
494
331
117
-31
-69
-33
29
116
233
352
462
587
744
870
849
652
423
357
465
541
386
42
-226
-206
55
332
471
513
597
800
1068
1293
1391
1339
1172
961
783
677
625
593
560
525
494
476
477
497
529
526
442
302
190
176
235
281
281
297
402
548
592
470
298
265
405
564
586
496
442
497
571
552
463
425
482
535
477
357
320
429
580
640
558
400
291
286
344
374
296
142
73
264
695
1135
1351
1319
1217
1220
1358
1561
1751
1855
1766
1432
1002
772
863
1024
870
351
-105
-34
551
1146
1289
1008
692
622
681
583
206
-308
-716
-892
-886
-815
-731
-595
-330
94
611
1066
1377
1619
1932
2315
2592
2653
2634
2776
3085
3256
3020
2498
2086
1990
2008
1823
1408
1024
853
776
599
345
216
310
486
561
533
530
616
710
720
661
605
578
580
614
702
815
861
794
687
649
700
760
738
656
588
578
618
659
644
553
436
406
547
798
980
961
817
741
785
785
582
259
90
221
494
639
596
550
687
946
1119
1074
856
596
388
257
203
217
254
267
242
240
336
493
579
491
237
-49
-212
-212
-147
-141
-200
-225
-140
25
177
266
318
341
292
160
28
17
133
236
197
59
16
196
525
774
813
733
720
853
1027
1099
1048
975
963
982
956
889
870
915
932
881
836
910
1091
1235
1235
1145
1090
1088
1060
943
771
607
462
349
336
483
725
901
926
884
926
1047
1075
860
432
-12
-273
-272
-70
192
380
470
552
722
974
1177
1177
972
709
554
571
697
833
907
895
772
522
172
-179
-407
-468
-440
-423
-429
-394
-303
-251
-340
-523
-645
-624
-565
-601
-668
-527
-30
663
1209
1373
1235
1053
956
886
752
621
634
800
923
866
773
1005
1703
2507
2814
2369
1554
1006
966
1060
737
-118
-1086
-1644
-1633
-1295
-951
-720
-538
-338
-146
-38
-62
-230
-516
-866
-1189
-1405
-1464
-1296
-845
-126
713
1463
1985
2304
2510
2619
2546
2237
1797
1469
1426
1609
1744
1572
1086
539
190
49
-126
-565
-1218
-1794
-2045
-1967
-1727
-1453
-1151
-825
-558
-455
-523
-654
-757
-860
-1042
-1284
-1438
-1359
-1042
-630
-302
-166
-206
-344
-502
-634
-732
-795
-814
-801
-785
-794
-816
-799
-712
-612
-598
-704
-840
-872
-770
-649
-630
-698
-734
-670
-580
-580
-683
-803
-862
-874
-886
-899
-869
-786
-697
-661
-679
-717
-758
-812
-874
-914
-907
-874
-853
-855
-846
-793
-717
-682
-714
-779
-822
-838
-868
-928
-961
-889
-721
-566
-541
-638
-736
-722
-605
-498
-488
-554
-617
-624
-588
-538
-470
-369
-246
-143
-95
-80
-45
29
103
125
97
82
132
226
312
379
458
562
630
597
489
417
428
403
145
-395
-1014
-1409
-1426
-1162
-828
-548
-289
64
569
1170
1706
1988
1910
1542
1104
787
620
476
242
-46
-250
-288
-208
-128
-117
-183
-298
-412
-526
-726
-1188
-2032
-3164
-4291
-5114
-5497
-5441
-4957
-4047
-2825
-1559
-527
180
644
948
1043
810
226
-539
-1179
-1423
-1204
-720
-318
-231
-430
-683
-781
-711
-605
-604
-747
-924
-963
-748
-297
179
431
379
182
66
89
76
-157
-531
-712
-481
-114
-297
-1530
-3515
-5292
-6034
-5694
-4818
-3838
-2773
-1678
-1053
-1436
-2628
-3623
-3527
-2497
-1511
-1179
-1022
-17
2280
5212
7580
8567
8150
6911
5538
4439
3636
2916
2115
1317
776
687
1030
1652
2357
2886
2923
2268
1134
102
-318
-119
215
144
-499
-1516
-2613
-3564
-4134
-4045
-3162
-1699
-135
1172
2201
3043
3524
3220
1954
183
-1250
-1777
-1511
-975
-537
-185
268
944
1778
2547
2896
2530
1527
408
-271
-433
-451
-581
-627
-361
-176
-965
-3133
-5859
-7548
-7173
-5169
-3005
-1878
-1793
-1743
-720
1330
3385
4159
3135
989
-933
-1625
-1037
100
931
1042
577
11
-181
179
830
1220
905
-76
-1187
-1806
-1663
-1031
-411
-135
-200
-441
-789
-1272
-1793
-2066
-1855
-1257
-634
-279
-206
-364
-926
-2183
-4066
-5877
-6690
-6120
-4660
-3183
-2107
-1051
633
3035
5407
6686
6340
4717
2689
991
-131
-790
-1150
-1298
-1235
-960
-459
254
1013
1508
1478
911
89
-603
-913
-798
-343
283
836
1064
865
381
-97
-353
-347
-153
155
510
787
840
639
337
142
119
162
142
61
36
150
343
486
523
520
562
652
725
728
675
605
515
385
257
213
239
161
-225
-889
-1499
-1673
-1326
-736
-274
-60
95
431
971
1501
1765
1660
1279
834
522
446
581
804
983
1064
1095
1159
1302
1488
1611
1572
1358
1070
862
842
1002
1242
1455
1576
1583
1497
1381
1326
1361
1389
1251
904
505
264
218
186
-6
-297
-433
-238
214
723
1178
1603
2009
2308
2416
2417
2508
2774
3052
3086
2816
2472
2354
2529
2773
2802
2544
2177
1936
1904
1980
2022
1977
1895
1842
1843
1879
1928
1987
2045
2070
2015
1868
1667
1481
1343
1233
1108
957
826
770
807
898
991
1071
1169
1299
1429
1495
1461
1354
1229
1108
986
896
917
1104
1389
1597
1604
1455
1319
1294
1305
1205
959
696
578
636
775
908
1016
1115
1168
1125
997
863
782
712
574
375
231
235
361
486
530
528
539
550
487
324
142
36
22
41
39
20
16
42
112
259
481
696
791
727
596
530
565
620
616
579
570
595
592
523
443
418
408
314
117
-58
-67
87
242
277
216
178
221
313
432
600
779
800
501
-46
-501
-534
-145
355
678
835
1085
1601
2274
2818
3034
2922
2600
2188
1764
1389
1110
925
788
677
632
722
945
1195
1327
1269
1056
800
605
510
499
536
583
615
623
607
567
512
439
358
305
313
387
481
538
526
447
311
129
-75
-272
-458
-645
-819
-894
-768
-443
-58
240
427
583
751
860
813
622
408
276
235
248
319
484
732
976
1123
1141
1068
961
837
708
581
471
399
387
441
536
638
731
761
589
25
-976
-2143
-3017
-3301
-3121
-2856
-2717
-2540
-2017
-1058
107
1145
1892
2388
2725
2945
3052
3064
3035
3016
3006
2936
2713
2328
1916
1662
1606
1572
1338
883
421
199
280
497
641
613
460
293
189
140
83
1
-35
36
72
-259
-1190
-2510
-3578
-3816
-3202
-2255
-1512
-1042
-468
542
1860
2980
3442
3174
2475
1707
1087
660
401
248
113
-44
-162
-126
88
335
410
248
-32
-282
-450
-553
-588
-516
-359
-235
-258
-419
-591
-654
-590
-467
-351
-267
-221
-233
-320
-468
-643
-807
-920
-949
-880
-739
-584
-476
-430
-438
-493
-591
-700
-754
-707
-585
-495
-503
-543
-490
-320
-168
-212
-455
-690
-732
-599
-462
-409
-340
-172
-44
-241
-856
-1610
-2070
-2038
-1686
-1320
-1050
-734
-184
617
1483
2162
2446
2266
1737
1123
675
461
360
221
48
-31
61
276
489
617
659
636
539
388
246
183
226
334
437
468
386
202
-8
-140
-143
-59
25
69
99
142
179
174
152
178
257
307
255
141
87
151
250
257
154
41
4
18
-4
-87
-166
-190
-191
-238
-330
-393
-377
-317
-288
-319
-358
-344
-282
-239
-259
-307
-315
-239
-110
4
77
137
227
334
403
415
416
458
507
469
321
173
171
324
479
481
342
222
252
398
514
494
365
227
138
71
-40
-228
-466
-706
-917
-1102
-1265
-1392
-1466
-1466
-1355
-1099
-713
-277
114
439
762
1121
1429
1529
1347
996
673
496
454
482
560
702
894
1078
1194
1208
1127
971
774
563
342
125
-40
-81
24
197
326
364
358
356
339
267
163
114
167
280
386
462
531
592
599
520
388
268
187
125
87
113
213
317
332
240
122
69
75
45
-70
-199
-195
7
328
599
711
687
622
583
564
517
403
215
-18
-223
-294
-187
23
159
107
-61
-164
-90
92
209
169
26
-74
-24
151
302
264
-7
-368
-587
-546
-367
-278
-351
-422
-291
32
319
391
282
152
83
26
-59
-114
-56
88
215
275
325
428
539
544
399
189
38
2
40
95
140
194
282
418
590
741
805
763
697
700
769
805
778
793
966
1237
1365
1210
917
769
861
998
887
511
156
111
380
719
907
944
966
1033
1065
967
764
551
370
181
-33
-183
-149
64
297
405
422
493
657
748
581
182
-193
-267
-18
312
460
394
334
512
871
1108
955
505
113
10
92
79
-111
-277
-203
95
415
603
671
698
716
712
687
655
623
621
703
883
1074
1146
1099
1051
1083
1119
989
686
480
658
1177
1634
1642
1234
865
915
1223
1249
659
-268
-921
-1040
-911
-946
-1174
-1289
-1098
-725
-363
-6
446
945
1332
1574
1813
2137
2411
2451
2269
2045
1885
1714
1453
1181
1050
1030
939
703
469
463
727
1052
1180
1047
833
788
962
1144
1087
744
347
176
271
421
422
289
189
239
373
446
395
272
159
96
64
24
-49
-144
-193
-114
95
311
379
270
121
110
270
463
542
482
354
215
67
-64
-112
-43
69
129
135
193
371
582
659
556
379
258
216
179
113
46
5
-40
-120
-200
-216
-161
-107
-130
-217
-279
-261
-183
-116
-97
-102
-91
-47
-1
4
-33
-82
-103
-92
-91
-134
-202
-226
-178
-114
-123
-224
-324
-314
-198
-94
-121
-286
-474
-533
-397
-137
96
197
197
227
381
587
680
574
373
273
355
522
627
648
688
814
964
1013
904
697
492
346
251
197
190
255
425
697
996
1170
1090
767
365
60
-105
-224
-357
-446
-372
-107
248
565
784
892
857
672
418
229
150
86
-56
-218
-238
-57
164
224
107
-14
-6
51
-33
-309
-616
-746
-646
-464
-395
-515
-744
-918
-912
-731
-486
-308
-241
-220
-165
-36
151
341
470
488
401
294
260
317
389
409
392
381
351
245
77
-50
-76
-77
-170
-357
-521
-585
-603
-674
-794
-883
-937
-1051
-1276
-1517
-1615
-1518
-1303
-1053
-770
-410
16
452
876
1276
1602
1765
1709
1461
1054
510
-75
-510
-613
-418
-173
-65
-23
138
462
788
963
965
825
562
333
555
1633
3427
5103
5723
5051
3717
2535
1696
766
-689
-2585
-4363
-5416
-5422
-4432
-2921
-1636
-1163
-1457
-1841
-1712
-1300
-1537
-3087
-5479
-7339
-7539
-6130
-4142
-2596
-1684
-860
431
2138
3656
4346
4010
2945
1663
572
-165
-600
-911
-1281
-1718
-2028
-1966
-1465
-784
-344
-395
-877
-1533
-2109
-2429
-2388
-2021
-1570
-1364
-1515
-1835
-2066
-2150
-2235
-2397
-2513
-2474
-2393
-2457
-2602
-2554
-2282
-2248
-2976
-4340
-5506
-5696
-4952
-4003
-3439
-3126
-2507
-1318
132
1286
1790
1631
991
121
-717
-1303
-1577
-1650
-1666
-1649
-1500
-1137
-600
-37
342
388
122
-256
-492
-474
-285
-69
123
317
476
483
287
30
-80
-10
42
-109
-413
-635
-641
-530
-484
-543
-601
-606
-657
-858
-1117
-1206
-1055
-885
-948
-1178
-1207
-799
-188
149
64
-53
302
1142
1913
2068
1600
992
643
501
230
-388
-1291
-2257
-3035
-3387
-3163
-2486
-1803
-1548
-1749
-1997
-1841
-1212
-448
31
92
-77
-161
76
645
1334
1829
1912
1581
1033
527
229
146
149
90
-63
-205
-183
23
276
419
444
439
452
415
261
61
-21
78
240
282
146
-68
-232
-308
-351
-439
-624
-890
-1151
-1320
-1371
-1342
-1255
-1046
-627
-16
625
1117
1446
1736
2051
2270
2201
1826
1355
1028
896
822
687
519
426
459
568
669
713
685
583
417
220
56
-34
-62
-65
-74
-103
-137
-158
-173
-216
-319
-476
-630
-715
-719
-673
-611
-549
-497
-472
-477
-491
-501
-540
-648
-793
-873
-823
-692
-594
-565
-522
-384
-187
-57
-60
-136
-209
-261
-333
-437
-529
-573
-578
-564
-510
-394
-264
-215
-290
-433
-532
-562
-591
-691
-861
-1027
-1123
-1142
-1136
-1149
-1183
-1210
-1220
-1261
-1372
-1526
-1644
-1689
-1715
-1785
-1870
-1867
-1739
-1573
-1485
-1477
-1451
-1364
-1300
-1361
-1525
-1671
-1731
-1755
-1820
-1909
-1946
-1908
-1846
-1807
-1796
-1792
-1798
-1822
-1841
-1836
-1845
-1921
-2039
-2099
-2035
-1918
-1879
-1941
-1994
-1933
-1804
-1750
-1838
-1991
-2089
-2112
-2138
-2238
-2386
-2507
-2557
-2553
-2530
-2494
-2438
-2367
-2305
-2266
-2246
-2232
-2205
-2170
-2157
-2204
-2303
-2375
-2321
-2137
-1962
-1969
-2190
-2463
-2589
-2535
-2468
-2564
-2808
-3027
-3078
-2993
-2903
-2892
-2928
-2939
-2895
-2822
-2763
-2758
-2841
-3013
-3218
-3372
-3420
-3400
-3395
-3447
-3514
-3522
-3449
-3350
-3301
-3328
-3390
-3443
-3479
-3516
-3554
-3584
-3610
-3664
-3753
-3825
-3820
-3748
-3686
-3696
-3764
-3841
-3896
-3930
-3935
-3890
-3807
-3743
-3741
-3787
-3811
-3804
-3854
-4037
-4320
-4604
-4859
-5151
-5500
-5745
-5647
-5162
-4557
-4186
-4141
-4166
-3962
-3535
-3207
-3273
-3688
-4120
-4268
-4114
-3865
-3713
-3687
-3712
-3727
-3742
-3788
-3864
-3950
-4026
-4096
-4163
-4198
-4171
-4073
-3928
-3806
-3790
-3916
-4140
-4343
-4422
-4360
-4233
-4111
-3997
-3867
-3758
-3750
-3851
-3966
-3997
-3990
-4084
-4316
-4536
-4572
-4446
-4354
-4439
-4624
-4724
-4665
-4549
-4496
-4506
-4495
-4421
-4333
-4294
-4304
-4307
-4274
-4230
-4219
-4256
-4320
-4372
-4374
-4315
-4220
-4130
-4065
-4018
-3981
-3970
-4009
-4089
-4164
-4184
-4154
-4124
-4132
-4165
-4177
-4138
-4069
-4016
-3998
-3996
-3976
-3931
-3875
-3824
-3781
-3739
-3688
-3631
-3586
-3567
-3566
-3557
-3526
-3490
-3470
-3454
-3409
-3315
-3200
-3116
-3070
-3031
-2967
-2896
-2866
-2896
-2946
-2949
-2867
-2729
-2612
-2571
-2591
-2592
-2503
-2345
-2205
-2147
-2137
-2088
-1967
-1832
-1758
-1761
-1795
-1826
-1871
-1955
-2061
-2156
-2219
-2261
-2293
-2308
-2307
-2306
-2324
-2362
-2402
-2440
-2488
-2558
-2633
-2685
-2703
-2707
-2734
-2795
-2872
-2922
-2925
-2896
-2857
-2805
-2726
-2616
-2506
-2429
-2388
-2358
-2339
-2364
-2457
-2600
-2745
-2869
-2965
-3012
-2965
-2816
-2644
-2550
-2553
-2588
-2607
-2662
-2821
-3058
-3245
-3300
-3278
-3293
-3362
-3375
-3223
-2921
-2590
-2351
-2245
-2247
-2302
-2346
-2343
-2308
-2321
-2461
-2740
-3050
-3220
-3138
-2828
-2455
-2205
-2137
-2101
-1869
-1380
-850
-629
-875
-1400
-1850
-2018
-2003
-2063
-2364
-2852
-3345
-3698
-3870
-3904
-3898
-3948
-4069
-4121
-3905
-3348
-2615
-1991
-1619
-1376
-1037
-548
-119
-33
-378
-967
-1502
-1813
-1935
-2008
-2124
-2241
-2243
-2073
-1782
-1498
-1322
-1262
-1268
-1274
-1235
-1155
-1095
-1110
-1181
-1216
-1139
-1008
-1004
-1268
-1745
-2207
-2453
-2461
-2341
-2180
-1962
-1637
-1218
-780
-394
-102
22
-117
-533
-1053
-1403
-1428
-1230
-1057
-1066
-1215
-1373
-1456
-1469
-1427
-1323
-1179
-1052
-979
-914
-757
-473
-163
5
-75
-359
-698
-964
-1122
-1205
-1225
-1192
-1145
-1166
-1275
-1378
-1355
-1269
-1375
-1892
-2750
-3633
-4285
-4701
-5008
-5233
-5254
-4972
-4436
-3767
-3019
-2185
-1311
-527
53
403
560
548
382
111
-191
-479
-749
-988
-1157
-1220
-1209
-1192
-1187
-1174
-1128
-1055
-964
-866
-771
-715
-717
-757
-810
-878
-988
-1116
-1153
-998
-677
-338
-144
-148
-283
-444
-554
-587
-557
-525
-555
-643
-707
-650
-475
-301
-259
-364
-512
-593
-585
-548
-541
-556
-564
-557
-529
-467
-349
-211
-156
-259
-480
-677
-744
-712
-656
-559
-349
-55
150
126
-23
-64
49
33
-408
-1174
-1785
-1848
-1478
-1136
-1118
-1252
-1152
-676
-66
332
394
284
212
232
235
118
-70
-168
-64
174
374
441
427
455
562
694
806
918
1024
1025
868
678
693
977
1257
1140
527
-259
-802
-998
-1100
-1380
-1824
-2193
-2334
-2314
-2248
-2071
-1621
-897
-166
274
423
570
949
1457
1754
1635
1232
847
638
539
411
225
42
-113
-279
-478
-635
-641
-500
-345
-320
-451
-604
-632
-538
-477
-563
-734
-829
-806
-821
-1052
-1465
-1798
-1820
-1547
-1180
-883
-648
-389
-90
180
353
412
372
237
8
-277
-539
-706
-749
-698
-616
-564
-540
-494
-383
-237
-155
-244
-533
-980
-1578
-2340
-3152
-3698
-3651
-3039
-2324
-2003
-2066
-1961
-1211
18
1030
1308
1015
737
833
1161
1370
1311
1078
781
449
125
-83
-108
-54
-90
-256
-430
-467
-336
-102
148
320
311
70
-285
-548
-624
-603
-615
-608
-388
66
427
288
-339
-923
-921
-366
140
72
-440
-805
-642
-164
156
139
-11
-80
-113
-260
-455
-465
-208
94
166
23
-67
105
459
747
816
698
510
328
189
141
219
391
561
644
632
584
564
569
539
430
256
49
-181
-438
-654
-695
-517
-269
-199
-388
-619
-613
-349
-97
-102
-297
-394
-224
82
266
212
19
-162
-272
-319
-317
-290
-293
-360
-450
-485
-455
-427
-447
-459
-402
-340
-399
-564
-616
-366
69
345
265
20
-39
172
367
263
-57
-234
-56
310
533
501
398
437
615
758
754
650
556
525
529
522
474
361
176
-52
-273
-464
-654
-873
-1094
-1236
-1219
-1008
-601
-31
600
1148
1529
1781
1986
2133
2091
1762
1245
781
533
453
401
339
373
577
856
1036
1048
990
963
937
804
537
260
127
168
270
319
315
339
435
551
586
486
284
94
33
131
294
375
325
272
376
612
730
494
-27
-489
-604
-390
-102
73
176
350
644
959
1157
1153
928
533
95
-224
-338
-310
-274
-284
-252
-82
192
420
485
402
266
152
75
38
50
123
238
393
616
907
1193
1348
1291
1054
713
305
-175
-682
-1099
-1339
-1436
-1477
-1456
-1256
-811
-242
212
403
371
238
81
-93
-266
-387
-411
-344
-216
-50
133
312
458
537
521
398
215
86
129
360
688
1034
1415
1855
2253
2394
2160
1690
1266
1033
837
442
-155
-651
-722
-337
205
551
602
531
553
708
862
863
705
526
471
549
639
621
514
451
519
640
655
516
360
375
587
839
998
1083
1128
971
291
-1036
-2627
-3752
-3905
-3205
-2218
-1382
-624
432
1946
3552
4606
4691
3901
2706
1593
807
340
64
-119
-208
-121
236
842
1494
1888
1836
1408
862
418
111
-132
-339
-442
-396
-271
-214
-301
-492
-673
-730
-621
-377
-89
143
280
325
272
90
-198
-494
-720
-954
-1388
-2122
-3001
-3721
-4057
-3990
-3644
-3165
-2638
-2062
-1348
-403
708
1695
2227
2242
2022
1903
1977
2052
1935
1646
1366
1232
1242
1324
1416
1472
1472
1438
1411
1328
950
63
-1225
-2391
-2835
-2404
-1540
-837
-440
57
1115
2657
4026
4524
3984
2838
1722
1036
820
883
1024
1137
1249
1449
1802
2238
2542
2486
2012
1286
607
201
105
199
345
494
650
792
826
679
396
101
-111
-244
-325
-306
-109
232
535
644
614
642
820
999
956
640
211
-157
-442
-695
-897
-954
-842
-655
-488
-319
-58
265
465
369
-6
-463
-801
-944
-930
-829
-698
-575
-467
-344
-177
-25
-4
-161
-390
-528
-517
-435
-359
-247
-27
236
356
231
7
-68
65
228
249
202
312
681
1154
1496
1632
1661
1666
1609
1403
1059
701
461
388
444
565
698
815
917
1022
1134
1216
1227
1157
1033
907
820
807
866
941
958
893
806
769
776
747
649
567
587
653
602
393
212
298
653
1015
1133
1039
966
1060
1218
1244
1086
867
722
654
587
478
364
296
273
264
246
238
263
320
391
458
525
608
692
732
710
658
631
627
583
467
353
363
516
676
683
541
437
536
806
1054
1154
1173
1257
1437
1586
1577
1412
1163
819
326
-248
-662
-704
-449
-226
-282
-515
-591
-327
128
477
590
597
690
930
1233
1517
1750
1927
2011
1952
1747
1473
1240
1121
1095
1076
998
889
852
944
1097
1162
1063
864
691
606
593
651
837
1167
1506
1626
1396
933
500
271
203
127
-51
-261
-341
-187
150
503
707
732
667
591
481
274
34
10
429
1239
2072
2549
2590
2444
2395
2439
2280
1654
635
-367
-926
-939
-658
-418
-345
-323
-217
-48
48
-3
-134
-235
-271
-275
-268
-211
-72
127
320
458
519
488
382
260
196
208
247
260
241
223
204
115
-87
-341
-503
-482
-304
-81
96
218
326
459
607
726
762
687
526
344
205
131
102
89
71
43
14
17
78
179
258
267
231
225
282
354
369
329
293
293
301
292
315
464
786
1226
1659
1949
1988
1749
1311
827
398
-10
-499
-1054
-1473
-1529
-1198
-684
-235
53
232
361
426
398
310
217
133
41
-56
-101
-44
92
226
296
283
189
34
-119
-173
-81
75
145
55
-123
-242
-247
-223
-295
-486
-685
-753
-646
-438
-246
-143
-106
-49
99
322
510
550
436
290
253
341
440
427
317
242
301
466
629
723
766
798
824
820
773
684
555
390
209
38
-112
-258
-413
-562
-684
-778
-851
-907
-920
-877
-768
-560
-206
288
818
1249
1551
1831
2182
2538
2720
2629
2348
2056
1850
1702
1550
1389
1245
1129
1040
996
1004
1017
969
875
822
844
849
725
529
455
597
800
831
652
470
461
559
566
424
271
243
299
316
283
304
432
559
560
443
328
275
213
60
-136
-250
-229
-144
-81
-39
39
145
192
121
-30
-163
-235
-286
-379
-509
-587
-533
-367
-197
-115
-114
-97
2
88
-35
-487
-1161
-1792
-2170
-2314
-2405
-2574
-2736
-2637
-2079
-1108
-9
895
1468
1802
2077
2341
2475
2326
1889
1330
841
512
330
247
206
160
107
93
161
265
305
266
258
373
535
584
495
436
488
365
-442
-2096
-4077
-5477
-5699
-4873
-3612
-2407
-1280
42
1710
3508
4939
5543
5169
4052
2658
1443
644
244
81
19
10
82
292
652
1063
1319
1243
840
350
106
254
642
972
1097
1118
1201
1309
1234
854
344
51
149
456
606
395
-64
-505
-746
-774
-654
-430
-152
81
172
123
38
13
38
38
-9
-30
50
226
426
612
816
1063
1304
1437
1402
1236
1043
922
908
961
994
941
809
683
649
701
739
659
461
235
84
65
130
177
161
123
135
193
203
95
-90
-256
-386
-521
-641
-649
-593
-806
-1672
-3113
-4423
-4781
-3958
-2477
-1045
110
1306
2887
4752
6379
7226
7089
6156
4832
3518
2459
1724
1260
972
802
751
827
1047
1368
1630
1624
1256
676
162
-80
-10
267
594
824
867
756
593
433
253
67
40
337
785
837
41
-1400
-2666
-3017
-2434
-1523
-839
-392
189
1134
2267
3171
3529
3275
2555
1639
826
331
163
161
154
118
159
343
618
846
921
832
617
342
90
-58
-31
181
478
706
720
510
210
6
-26
24
27
7
140
532
1013
1239
1021
543
186
121
157
1
-390
-767
-875
-722
-514
-389
-288
-104
124
216
81
-137
-200
-43
155
179
16
-122
-44
218
470
592
643
730
855
933
952
1032
1284
1651
1932
2007
1941
1868
1815
1675
1359
955
653
554
571
543
427
328
372
560
802
1004
1140
1197
1125
912
650
511
578
739
813
759
717
842
1122
1386
1486
1422
1290
1150
991
815
681
640
666
649
520
334
213
233
356
479
497
382
203
85
132
295
381
218
-137
-394
-302
92
471
568
438
378
626
1130
1597
1754
1556
1185
900
846
964
1066
989
733
455
318
387
602
836
961
902
686
438
282
197
51
-217
-514
-718
-886
-1188
-1642
-1981
-1875
-1314
-663
-331
-413
-654
-716
-375
411
1474
2462
3019
3099
3074
3385
4024
4459
4147
3108
1928
1195
1030
1145
1243
1263
1290
1382
1525
1708
1905
2029
1960
1653
1213
805
544
456
506
639
796
915
957
918
830
739
695
718
755
701
518
315
255
346
404
273
51
14
280
646
801
679
498
471
569
622
558
469
436
435
396
334
319
345
351
314
303
383
527
636
634
501
254
-54
-299
-356
-224
-70
-51
-128
-92
181
560
789
762
609
533
594
682
664
510
292
115
53
119
252
345
346
318
368
534
720
802
757
681
672
726
756
689
562
504
618
874
1100
1140
1010
906
1010
1267
1422
1298
1026
938
1207
1655
1939
1893
1655
1464
1405
1390
1320
1216
1155
1143
1107
1011
928
963
1104
1209
1151
974
851
877
965
985
938
943
1030
1065
931
731
687
830
915
725
380
231
450
831
1054
1058
1065
1265
1600
1858
1911
1773
1508
1164
814
553
404
283
107
-80
-144
-16
221
431
567
687
839
996
1105
1170
1239
1308
1301
1144
879
653
586
654
715
669
579
597
814
1144
1415
1500
1398
1189
957
743
545
327
58
-240
-492
-611
-578
-446
-282
-94
161
517
942
1362
1704
1954
2156
2349
2501
2516
2339
2030
1746
1585
1516
1439
1313
1164
1002
790
537
365
401
611
784
753
601
589
862
1294
1605
1628
1431
1213
1120
1153
1211
1189
1058
881
761
736
754
738
689
675
713
721
603
378
200
206
362
488
447
284
173
248
466
670
745
750
862
1166
1511
1629
1402
997
679
533
424
189
-141
-386
-423
-262
21
341
544
389
-243
-1122
-1749
-1763
-1286
-788
-576
-485
-105
746
1793
2536
2672
2264
1586
874
243
-257
-605
-809
-912
-942
-867
-637
-277
89
294
243
-12
-334
-608
-790
-879
-872
-751
-527
-278
-88
31
183
476
872
1202
1298
1128
813
496
256
111
50
32
9
-19
8
142
337
444
363
179
93
195
327
218
-208
-696
-863
-572
-73
249
256
174
326
775
1254
1442
1272
953
722
642
613
561
566
750
1087
1370
1397
1177
938
882
978
1012
809
408
35
-86
96
447
742
761
385
-333
-1171
-1828
-2077
-1874
-1355
-743
-188
330
959
1791
2692
3330
3411
2946
2261
1730
1495
1409
1265
1038
896
988
1272
1543
1640
1574
1473
1414
1358
1213
965
692
484
354
240
61
-227
-582
-878
-946
-688
-166
439
969
1396
1778
2155
2481
2680
2740
2702
2616
2499
2369
2254
2170
2080
1924
1691
1442
1261
1178
1169
1185
1194
1181
1151
1132
1164
1239
1279
1194
988
778
693
735
789
768
716
743
856
924
824
585
386
372
515
663
714
709
751
856
935
883
699
471
273
121
4
-61
-22
127
318
460
527
555
570
548
444
254
36
-132
-197
-164
-78
15
97
169
231
268
271
229
127
-52
-275
-440
-429
-239
-32
11
-103
-176
-54
160
183
-132
-600
-894
-845
-586
-363
-277
-225
-57
236
530
682
641
462
247
94
53
98
150
150
128
172
315
483
556
496
372
272
220
206
256
423
677
884
938
891
909
1069
1256
1290
1138
946
881
947
1012
977
876
804
808
857
896
919
949
996
1043
1064
1042
971
876
790
745
741
737
693
613
541
521
550
599
647
684
700
671
606
559
592
717
887
1047
1171
1257
1282
1211
1029
770
503
275
87
-78
-206
-250
-173
1
192
328
405
479
577
654
633
508
379
365
481
626
699
707
744
860
994
1044
981
873
790
733
662
563
459
356
216
6
-247
-477
-653
-801
-943
-1038
-1025
-889
-676
-412
-58
421
951
1379
1605
1689
1760
1849
1840
1614
1214
833
646
679
820
924
918
828
757
797
925
974
764
306
-157
-349
-221
4
83
6
-21
167
505
772
815
665
465
313
207
119
34
-43
-99
-100
-10
145
255
225
106
77
224
401
370
99
-165
-160
80
275
268
239
481
1006
1482
1575
1305
992
896
950
862
431
-254
-897
-1243
-1274
-1166
-1114
-1170
-1230
-1158
-924
-621
-372
-233
-193
-207
-231
-227
-174
-85
-15
-8
-46
-62
-15
53
52
-58
-195
-229
-133
-29
-77
-296
-508
-505
-253
69
233
169
7
-81
-41
50
104
108
106
123
138
133
126
159
247
343
378
340
301
337
448
552
583
564
575
634
677
647
602
675
900
1154
1265
1179
1002
863
777
672
495
276
91
-13
-42
-24
12
45
60
56
55
71
98
115
106
90
94
112
124
124
132
160
188
175
117
76
117
217
271
217
118
79
123
156
89
-46
-125
-62
113
296
403
432
427
435
476
538
585
594
584
607
698
839
978
1063
1081
1045
986
936
919
930
937
907
849
810
845
937
1002
947
764
528
309
94
-178
-505
-793
-951
-977
-953
-908
-770
-469
-60
316
590
842
1194
1637
2025
2235
2293
2318
2380
2433
2406
2288
2121
1923
1670
1354
1045
846
785
782
720
575
454
482
654
827
834
623
287
-30
-249
-381
-463
-505
-471
-338
-123
136
409
682
936
1118
1145
960
603
203
-113
-316
-463
-626
-798
-894
-831
-614
-338
-80
165
444
739
909
810
456
51
-182
-215
-225
-395
-731
-1049
-1146
-949
-574
-247
-160
-336
-590
-681
-537
-337
-321
-540
-811
-936
-888
-795
-761
-761
-731
-687
-697
-771
-825
-775
-621
-445
-343
-352
-449
-563
-626
-610
-564
-552
-596
-635
-602
-510
-436
-413
-376
-221
44
271
321
216
117
146
258
307
219
76
8
65
193
334
492
684
857
916
856
801
878
1020
955
455
-395
-1193
-1540
-1339
-832
-324
89
528
1118
1814
2418
2745
2743
2477
2049
1554
1106
837
804
922
1013
970
855
819
909
994
899
604
266
53
-16
-43
-95
-132
-92
-6
26
-56
-196
-288
-264
-148
3
147
272
361
393
376
350
360
410
484
568
653
722
753
727
664
608
585
584
572
525
437
348
313
365
456
452
261
-58
-315
-363
-263
-198
-275
-426
-532
-570
-601
-650
-671
-621
-519
-385
-147
306
978
1712
2310
2691
2902
3030
3104
3088
2937
2631
2211
1780
1446
1260
1185
1156
1136
1112
1060
959
846
786
778
734
597
445
422
554
704
748
727
769
852
802
548
277
255
509
792
861
738
634
678
837
1031
1221
1353
1325
1087
791
672
792
956
970
875
866
1013
1167
1181
1094
1032
982
790
402
-14
-230
-204
-122
-132
-185
-153
-27
83
132
204
345
447
349
39
-295
-471
-475
-414
-342
-225
-31
183
338
412
451
498
580
720
889
975
858
573
335
335
501
544
274
-180
-529
-597
-492
-414
-432
-485
-498
-460
-363
-176
75
277
312
189
55
55
183
290
246
77
-38
57
340
618
716
661
672
929
1355
1660
1639
1388
1196
1229
1379
1418
1270
1070
973
976
951
823
656
561
582
640
649
579
492
475
549
634
620
490
370
418
658
934
1054
975
846
844
988
1114
1056
815
565
475
556
679
723
690
657
657
649
596
544
572
683
787
794
725
710
823
1011
1139
1129
1020
904
843
828
818
783
726
686
674
677
681
705
776
865
890
842
829
942
1063
913
377
-289
-676
-646
-501
-616
-999
-1285
-1164
-703
-201
188
557
1007
1415
1538
1338
1077
1048
1242
1360
1147
681
313
311
616
924
968
743
446
270
258
321
352
315
258
238
232
180
96
68
170
329
387
302
217
258
337
252
-24
-247
-203
-4
25
-244
-556
-559
-215
167
300
206
108
124
157
88
-38
-72
41
178
203
142
152
312
509
580
530
547
811
1248
1580
1584
1302
951
686
466
133
-379
-938
-1331
-1433
-1267
-974
-682
-458
-322
-270
-281
-311
-321
-315
-352
-482
-665
-782
-738
-538
-279
-83
3
23
55
131
203
209
129
37
17
62
70
-55
-268
-407
-347
-153
-27
-56
-126
-77
84
198
182
147
238
408
479
394
298
311
322
150
-156
-307
-134
186
366
388
511
900
1371
1591
1469
1215
1032
901
687
370
84
-66
-116
-159
-205
-178
-22
228
471
624
654
589
485
373
242
53
-190
-414
-550
-592
-580
-516
-329
-10
308
418
262
24
-53
40
56
-211
-656
-939
-850
-521
-251
-189
-238
-237
-157
-88
-91
-137
-173
-201
-246
-284
-258
-154
-31
28
-3
-89
-192
-301
-401
-458
-436
-362
-310
-316
-325
-259
-133
-76
-172
-360
-538
-722
-1043
-1522
-1965
-2140
-2036
-1829
-1606
-1214
-488
432
1156
1464
1523
1629
1812
1828
1514
1014
612
411
292
139
-21
-150
-293
-509
-712
-740
-557
-274
42
444
971
1483
1779
1851
1881
1916
1649
707
-855
-2440
-3360
-3397
-2884
-2282
-1760
-1155
-273
866
2004
2805
3039
2697
1982
1204
624
314
157
-38
-321
-536
-495
-218
30
-28
-395
-797
-971
-950
-970
-1154
-1364
-1372
-1146
-893
-837
-1041
-1364
-1589
-1597
-1431
-1237
-1114
-1021
-882
-764
-867
-1288
-1849
-2266
-2519
-2970
-3977
-5421
-6678
-7084
-6401
-4926
-3203
-1704
-630
155
977
2006
2985
3382
2880
1732
621
84
142
448
639
604
450
349
427
655
826
710
309
-116
-345
-496
-932
-1797
-2765
-3300
-3168
-2624
-2079
-1649
-1093
-122
1274
2781
3962
4494
4308
3599
2733
2058
1711
1608
1598
1601
1649
1778
1945
2059
2069
1976
1812
1616
1424
1269
1186
1220
1381
1603
1754
1705
1440
1045
608
148
-323
-694
-789
-541
-80
393
793
1159
1454
1475
1048
290
-390
-623
-411
-65
159
336
747
1531
2455
3075
3101
2601
1891
1247
741
301
-116
-430
-517
-334
41
471
827
1039
1076
944
674
330
35
-84
5
204
347
340
229
141
151
236
310
310
227
87
-79
-248
-441
-700
-1006
-1245
-1250
-942
-405
177
665
1036
1326
1561
1735
1842
1890
1903
1899
1893
1882
1839
1743
1597
1435
1276
1075
768
374
22
-151
-131
-23
64
133
270
501
737
838
762
608
499
473
464
418
376
416
545
662
680
638
654
735
688
279
-474
-1218
-1525
-1261
-684
-179
92
278
630
1215
1841
2188
2039
1416
576
-111
-370
-200
157
437
581
759
1136
1659
2078
2174
1924
1484
1045
711
513
442
463
531
609
687
753
763
688
564
475
461
479
476
476
545
666
723
657
556
572
730
913
1016
1053
1068
1018
840
616
582
878
1357
1705
1767
1671
1636
1703
1709
1499
1093
640
288
102
79
187
369
552
686
770
833
905
997
1081
1115
1081
1010
973
1011
1090
1131
1111
1092
1127
1172
1124
979
890
1013
1288
1434
1213
672
66
-434
-897
-1434
-1925
-2035
-1551
-622
373
1179
1835
2478
3089
3473
3460
3069
2460
1803
1212
763
505
428
461
515
563
614
670
720
733
658
478
262
149
228
427
556
524
463
543
647
336
-739
-2369
-3794
-4284
-3727
-2654
-1683
-966
-161
1088
2710
4211
5052
5020
4308
3308
2362
1641
1179
916
732
522
276
86
58
169
226
25
-448
-982
-1311
-1290
-952
-422
176
750
1216
1498
1570
1471
1269
1036
847
775
856
1026
1163
1191
1163
1203
1370
1578
1671
1565
1302
971
655
412
287
304
429
597
766
948
1172
1411
1597
1661
1575
1372
1120
897
747
644
525
363
210
137
152
192
214
246
326
427
485
489
497
550
596
561
447
343
318
346
372
380
386
384
351
301
289
327
360
341
317
372
501
605
613
594
681
884
1055
1036
838
608
458
355
188
-68
-345
-556
-664
-702
-715
-714
-695
-648
-564
-448
-320
-203
-106
-44
-93
-384
-974
-1708
-2242
-2289
-1863
-1268
-792
-435
40
781
1632
2244
2394
2131
1672
1201
807
533
410
430
519
630
772
966
1178
1313
1297
1161
997
875
822
856
1004
1256
1517
1651
1589
1376
1111
882
714
600
534
504
496
499
523
586
673
738
738
675
594
514
418
290
175
153
251
413
546
612
634
608
486
246
-52
-310
-499
-677
-881
-1019
-953
-682
-373
-204
-175
-125
56
271
319
128
-143
-258
-156
10
43
-71
-158
-42
277
608
781
776
705
670
679
698
710
729
756
759
701
599
517
497
511
466
270
-71
-434
-688
-801
-853
-927
-1010
-1015
-898
-708
-492
-211
209
737
1207
1467
1547
1626
1808
2009
2052
1885
1637
1471
1429
1433
1422
1405
1373
1285
1138
1009
972
998
979
900
878
977
1085
1050
925
920
1041
897
29
-1526
-3096
-3896
-3681
-2843
-1950
-1232
-511
479
1756
3028
3880
4024
3470
2520
1580
915
550
372
258
185
193
315
542
787
900
805
544
201
-167
-521
-709
-546
-84
337
399
181
36
56
-168
-1060
-2424
-3498
-3703
-3209
-2664
-2432
-2283
-1759
-693
687
1991
2876
3136
2801
2149
1559
1198
916
522
69
-190
-111
156
369
452
502
611
732
760
689
625
706
945
1193
1230
964
523
136
-84
-236
-473
-777
-984
-965
-756
-485
-234
-9
189
349
495
696
955
1146
1106
840
546
422
479
566
570
530
552
655
761
820
846
862
851
789
708
658
670
717
773
850
967
1081
1113
1025
859
687
536
371
166
-47
-178
-156
-5
164
224
131
-45
-184
-202
-119
-26
3
-13
16
180
471
779
970
978
841
677
559
500
466
439
432
470
553
698
913
1139
1292
1329
1326
1417
1642
1871
1901
1666
1302
1009
841
650
245
-400
-1077
-1482
-1451
-1087
-671
-426
-373
-365
-268
-68
164
380
553
694
839
1080
1516
2124
2686
2955
2874
2606
2361
2184
1967
1632
1238
899
691
630
676
766
839
853
824
782
719
617
483
375
337
348
363
385
446
549
649
744
852
938
916
740
505
373
392
443
393
246
114
69
59
2
-116
-244
-320
-301
-148
135
454
670
755
806
908
1001
915
590
186
-82
-159
-180
-257
-308
-185
97
318
308
172
127
231
252
-62
-611
-982
-889
-487
-201
-236
-378
-295
53
359
315
-84
-604
-989
-1099
-901
-445
97
513
713
838
1077
1396
1521
1241
643
16
-428
-673
-758
-658
-355
37
329
450
517
666
848
892
725
485
375
451
596
702
805
973
1123
1045
689
381
577
1360
2231
2561
2222
1702
1539
1717
1733
1210
310
-459
-778
-718
-514
-309
-131
7
98
205
385
589
686
630
522
485
497
432
281
197
302
505
599
494
303
163
74
-45
-156
-88
250
710
1004
989
805
702
775
879
781
401
-142
-642
-933
-971
-804
-534
-261
-34
164
385
630
828
895
828
716
636
591
559
558
636
774
875
853
716
561
454
397
400
491
654
757
655
373
90
-80
-252
-632
-1188
-1579
-1471
-881
-171
338
659
1028
1587
2197
2586
2613
2350
1960
1559
1190
885
673
574
569
624
684
725
757
803
886
952
908
713
450
285
334
555
800
957
1046
1153
1294
1347
1163
735
249
-60
-133
-134
-262
-503
-616
-392
105
571
744
631
438
336
317
274
155
17
-64
-69
-28
26
88
138
149
118
64
14
-15
-18
8
66
148
216
219
146
37
-58
-121
-161
-169
-114
14
150
205
172
171
328
613
822
761
451
110
-60
-82
-159
-439
-842
-1152
-1211
-1052
-831
-678
-621
-621
-623
-581
-482
-368
-296
-292
-328
-362
-383
-386
-334
-181
-12
-95
-699
-1794
-2973
-3697
-3694
-3110
-2294
-1463
-553
614
2057
3488
4448
4620
4051
3109
2158
1310
484
-323
-901
-1005
-650
-138
233
433
628
880
1033
913
558
234
149
234
269
135
-103
-353
-651
-1062
-1511
-1809
-1823
-1594
-1232
-787
-329
-95
-376
-1220
-2266
-3004
-3206
-3019
-2693
-2312
-1795
-1083
-219
694
1498
1940
1823
1237
572
154
-144
-762
-1882
-3083
-3655
-3297
-2368
-1462
-846
-340
304
1030
1519
1502
1012
326
-263
-629
-829
-980
-1088
-1006
-570
193
997
1504
1593
1416
1190
965
626
104
-465
-834
-842
-532
-94
286
534
672
774
893
1040
1191
1331
1463
1606
1738
1790
1708
1531
1396
1447
1707
2047
2290
2351
2257
2042
1667
1083
390
-156
-327
-128
213
484
685
959
1377
1810
2027
1908
1527
1084
744
552
464
434
450
527
663
811
897
884
791
669
543
402
236
94
57
154
289
250
-119
-741
-1296
-1466
-1204
-759
-407
-147
278
1025
1855
2270
1974
1175
404
42
52
132
98
49
188
559
975
1202
1180
1003
757
424
-22
-464
-691
-611
-362
-172
-123
-112
-29
75
45
-172
-440
-593
-614
-626
-720
-851
-914
-879
-832
-862
-937
-925
-730
-402
-90
88
142
152
153
88
-100
-360
-546
-550
-399
-199
-26
147
383
673
933
1080
1101
1039
936
801
641
496
415
408
427
419
381
362
400
494
603
681
695
628
497
359
280
275
297
298
283
291
329
360
361
368
425
517
572
555
503
471
450
389
280
190
183
222
211
118
27
69
284
586
837
945
900
761
603
463
313
97
-184
-441
-546
-446
-202
74
311
490
607
655
648
630
634
636
589
504
475
566
733
852
857
795
756
763
752
671
557
521
655
936
1203
1235
918
360
-181
-520
-697
-879
-1106
-1185
-877
-168
693
1419
1914
2271
2587
2832
2894
2728
2413
2082
1813
1592
1388
1206
1110
1165
1335
1490
1508
1381
1232
1193
1288
1423
1471
1361
1116
821
595
563
816
1331
1941
2413
2589
2505
2334
2207
2072
1742
1102
259
-505
-932
-958
-727
-454
-283
-227
-215
-155
-17
136
213
175
68
-24
-56
-29
36
121
187
171
42
-134
-222
-136
76
277
367
341
253
132
-43
-300
-601
-802
-710
-223
544
1274
1659
1643
1432
1246
1080
717
4
-940
-1795
-2296
-2410
-2270
-2011
-1679
-1304
-956
-714
-584
-491
-372
-270
-293
-468
-656
-671
-477
-246
-188
-329
-509
-567
-499
-411
-354
-268
-91
132
305
389
432
478
497
443
351
316
378
474
517
505
518
592
663
632
492
341
273
289
322
335
348
392
449
483
506
548
588
539
359
139
27
62
125
86
-27
-58
76
289
427
442
413
412
410
336
207
126
156
228
222
110
-11
-36
18
50
-14
-134
-214
-222
-214
-244
-279
-243
-115
35
124
144
160
227
338
436
471
431
331
213
116
55
8
-56
-139
-196
-180
-93
8
82
136
192
241
230
108
-126
-408
-658
-841
-998
-1185
-1408
-1582
-1583
-1349
-932
-451
10
438
857
1248
1561
1759
1842
1816
1676
1428
1132
889
748
665
562
429
340
362
472
576
603
578
554
545
517
446
355
281
234
198
163
144
145
137
107
85
119
195
237
173
18
-136
-209
-208
-187
-179
-163
-112
-33
61
183
340
479
520
443
340
336
455
582
577
415
200
67
54
92
93
22
-77
-134
-107
-1
125
194
159
40
-108
-237
-350
-482
-640
-770
-814
-768
-701
-674
-676
-652
-572
-491
-497
-608
-735
-754
-630
-442
-317
-316
-415
-549
-673
-779
-861
-915
-940
-950
-986
-1072
-1186
-1245
-1151
-877
-517
-228
-99
-64
32
254
488
538
327
-1
-222
-248
-180
-170
-239
-258
-105
201
498
627
559
394
242
146
67
-43
-165
-243
-216
-68
134
275
258
70
-204
-453
-626
-751
-867
-968
-1014
-988
-912
-823
-729
-597
-412
-227
-134
-165
-232
-190
5
208
238
114
66
251
495
387
-316
-1405
-2381
-2890
-2931
-2711
-2366
-1877
-1195
-360
534
1393
2094
2468
2394
1934
1327
828
530
350
184
27
-55
-8
151
366
563
674
636
444
191
9
-30
45
158
245
264
178
-34
-329
-603
-790
-922
-1088
-1302
-1445
-1377
-1084
-680
-277
112
514
908
1218
1390
1439
1370
1109
574
-165
-854
-1226
-1203
-919
-557
-212
116
442
763
1046
1208
1112
664
-53
-772
-1219
-1322
-1228
-1103
-970
-740
-378
38
388
599
652
537
279
-25
-247
-333
-347
-404
-536
-654
-649
-512
-359
-319
-411
-532
-546
-413
-219
-101
-128
-254
-374
-426
-450
-518
-640
-740
-757
-710
-665
-652
-633
-571
-505
-497
-542
-579
-581
-600
-671
-725
-644
-438
-278
-329
-537
-675
-601
-426
-364
-472
-595
-591
-504
-483
-562
-619
-559
-462
-479
-605
-675
-569
-371
-272
-331
-408
-345
-151
20
49
-30
-92
-62
46
171
266
305
288
245
231
280
366
425
453
559
870
1360
1808
1955
1743
1371
1085
924
718
337
-112
-385
-339
-65
223
413
532
634
695
660
549
455
441
450
404
312
264
354
539
684
696
586
458
406
451
532
579
586
621
732
854
834
615
341
244
383
552
500
231
-2
-3
145
182
-6
-266
-365
-249
-58
68
131
218
355
477
537
553
599
690
732
647
486
410
509
670
685
487
256
220
390
556
559
471
481
636
775
725
509
309
249
271
233
75
-127
-260
-287
-265
-245
-205
-60
265
743
1245
1664
2004
2324
2628
2835
2865
2716
2448
2102
1695
1287
1016
971
1089
1199
1194
1128
1138
1279
1458
1530
1406
1084
663
320
223
410
723
903
811
571
436
517
684
728
546
212
-119
-317
-299
-97
124
196
137
156
391
650
568
42
-545
-680
-300
134
183
-49
-60
427
1121
1465
1218
657
187
-73
-278
-555
-808
-856
-686
-471
-341
-242
-70
154
239
29
-398
-768
-847
-646
-383
-253
-249
-199
15
296
414
262
-17
-155
-70
31
-104
-449
-698
-612
-320
-180
-394
-747
-839
-523
-53
199
114
-103
-171
-13
207
282
141
-125
-353
-413
-273
-19
199
297
312
351
456
560
572
493
394
355
407
530
700
863
930
848
650
447
338
333
358
304
126
-95
-195
-59
243
478
470
297
222
401
683
764
535
222
156
414
739
842
707
571
623
783
808
585
243
-1
-58
-25
-30
-83
-96
-15
106
173
160
113
86
67
-18
-196
-400
-531
-513
-343
-89
160
332
421
492
638
885
1135
1237
1132
935
848
971
1215
1376
1303
1012
656
396
278
225
106
-127
-381
-515
-478
-367
-340
-467
-685
-904
-1086
-1269
-1482
-1671
-1765
-1732
-1559
-1228
-724
-80
588
1138
1505
1759
2019
2315
2522
2461
2081
1557
1185
1149
1348
1479
1327
956
639
584
732
838
714
385
28
-202
-285
-308
-341
-371
-345
-247
-128
-48
-7
25
81
146
169
122
33
-43
-50
6
40
-42
-234
-412
-469
-455
-547
-830
-1148
-1265
-1115
-844
-581
-226
401
1235
1895
2020
1634
1085
639
216
-436
-1351
-2244
-2755
-2775
-2466
-2044
-1627
-1251
-964
-812
-777
-783
-794
-863
-1050
-1308
-1504
-1544
-1470
-1420
-1491
-1634
-1707
-1619
-1426
-1261
-1148
-930
-445
216
693
686
291
-74
-117
19
-40
-433
-886
-1050
-891
-696
-714
-896
-1023
-967
-804
-672
-613
-576
-502
-350
-99
205
398
236
-414
-1424
-2433
-3077
-3215
-2978
-2596
-2171
-1603
-745
367
1467
2217
2424
2134
1541
862
269
-124
-292
-300
-244
-161
-9
235
489
617
546
329
61
-225
-525
-770
-823
-609
-247
1
-71
-427
-834
-1075
-1106
-1057
-1080
-1212
-1369
-1444
-1399
-1300
-1246
-1273
-1340
-1369
-1342
-1326
-1423
-1626
-1776
-1662
-1232
-692
-326
-215
-170
26
335
482
306
-31
-216
-143
4
34
-9
79
350
632
743
681
557
384
60
-433
-936
-1258
-1360
-1341
-1259
-1075
-764
-422
-188
-95
-50
46
203
393
646
1006
1456
1905
2279
2592
2885
3103
3126
2891
2480
2055
1717
1459
1242
1073
992
1029
1190
1469
1816
2085
2087
1761
1265
871
726
734
703
558
394
339
419
547
632
643
584
474
353
280
270
259
159
-41
-229
-257
-70
238
491
580
541
509
579
704
744
599
308
-28
-344
-630
-851
-914
-761
-474
-226
-91
16
217
493
670
617
359
39
-207
-322
-303
-203
-114
-110
-178
-238
-244
-283
-464
-748
-946
-911
-707
-525
-455
-397
-202
134
439
542
397
70
-330
-685
-881
-844
-620
-339
-92
155
473
836
1103
1167
1079
967
883
756
535
306
213
282
377
358
246
172
205
287
336
360
419
516
586
601
618
704
830
869
728
432
105
-104
-100
116
430
677
771
782
861
1050
1223
1208
987
709
535
492
492
452
379
353
456
707
1041
1311
1378
1205
898
603
380
170
-123
-492
-815
-960
-891
-702
-509
-373
-258
-98
99
235
189
-59
-364
-458
-113
661
1601
2354
2756
2904
2981
3030
2926
2575
2061
1567
1174
819
449
128
-61
-187
-445
-926
-1470
-1801
-1796
-1585
-1377
-1241
-1109
-916
-699
-534
-437
-379
-375
-503
-776
-1017
-966
-534
112
723
1206
1639
2069
2398
2532
2574
2761
3151
3503
3530
3216
2795
2433
2058
1532
914
431
199
111
15
-80
-47
124
285
298
208
172
268
419
498
455
326
178
89
107
197
269
260
208
204
265
321
320
313
373
454
386
80
-330
-587
-552
-325
-110
-20
-5
40
164
334
457
430
203
-143
-413
-456
-319
-214
-288
-482
-610
-592
-548
-640
-877
-1133
-1287
-1331
-1318
-1264
-1127
-889
-597
-336
-149
-37
17
11
-66
-209
-385
-543
-633
-638
-590
-536
-508
-497
-481
-452
-422
-400
-381
-351
-309
-278
-287
-339
-390
-375
-284
-187
-172
-251
-335
-331
-237
-141
-109
-119
-112
-77
-53
-54
-41
23
103
128
82
31
50
133
203
209
173
147
144
144
136
138
158
167
132
67
32
64
125
145
103
40
13
28
45
30
-4
-26
-28
-34
-67
-103
-85
5
115
158
106
36
54
169
280
278
164
33
-48
-105
-188
-274
-284
-201
-109
-84
-93
-39
108
279
386
424
460
541
637
677
631
558
568
715
881
806
299
-522
-1243
-1478
-1207
-744
-387
-126
282
985
1838
2546
2899
2876
2553
2012
1336
648
99
-237
-410
-536
-669
-713
-509
3
678
1241
1518
1557
1565
1691
1903
2045
1981
1710
1337
974
678
458
334
341
454
524
302
-388
-1484
-2651
-3488
-3769
-3546
-3023
-2350
-1519
-444
853
2143
3062
3318
2886
2030
1118
410
-67
-424
-742
-977
-1023
-830
-476
-129
64
48
-139
-414
-707
-937
-1004
-849
-521
-185
-12
-70
-309
-643
-1010
-1356
-1599
-1676
-1624
-1565
-1589
-1641
-1577
-1322
-971
-691
-576
-579
-603
-613
-638
-712
-823
-918
-977
-997
-975
-906
-801
-735
-781
-912
-1016
-1019
-968
-948
-961
-935
-844
-744
-639
-428
-128
-61
-658
-1942
-3307
-3997
-3809
-3216
-2766
-2488
-1966
-916
470
1736
2565
2886
2719
2126
1310
606
247
162
98
-65
-182
-49
314
663
786
683
488
285
56
-176
-273
-114
196
391
343
212
169
4
-782
-2375
-4197
-5226
-4876
-3522
-2078
-1115
-428
561
2097
3796
4981
5201
4486
3229
1905
853
192
-115
-191
-159
-75
71
299
591
838
889
655
196
-315
-683
-793
-618
-224
234
553
584
339
-40
-426
-798
-1179
-1504
-1609
-1366
-842
-286
85
284
507
911
1424
1777
1754
1372
846
428
241
249
325
365
348
326
364
468
551
516
325
29
-295
-583
-775
-842
-821
-818
-904
-1034
-1061
-866
-474
-8
444
907
1455
2081
2644
2945
2862
2448
1918
1508
1324
1287
1231
1063
842
696
703
814
895
825
593
300
85
17
60
136
205
270
327
348
317
265
229
181
48
-159
-300
-252
-57
99
123
147
367
736
925
660
66
-390
-364
-6
210
25
-325
-386
-11
473
636
397
51
-121
-159
-294
-604
-882
-891
-642
-358
-204
-128
-16
117
127
-57
-333
-555
-703
-840
-959
-927
-652
-232
104
212
154
71
-7
-172
-496
-903
-1225
-1374
-1417
-1445
-1435
-1266
-877
-384
7
190
235
280
359
386
265
10
-272
-464
-520
-455
-319
-179
-97
-68
-25
86
236
330
320
262
254
317
384
400
389
404
444
456
413
364
344
301
143
-118
-321
-300
-60
219
359
359
365
489
692
837
822
661
440
258
156
127
125
117
117
159
234
289
290
269
291
359
383
290
107
-52
-84
15
164
280
327
318
281
221
119
-60
-316
-593
-813
-933
-976
-982
-930
-758
-451
-91
176
268
249
246
286
255
58
-207
-289
-58
306
476
343
132
118
292
398
282
126
225
627
1095
1388
1497
1555
1557
1315
680
-243
-1165
-1869
-2354
-2725
-2998
-3039
-2707
-2020
-1159
-309
450
1121
1670
2006
2084
1997
1889
1804
1648
1335
942
649
545
556
556
519
497
490
410
182
-125
-339
-339
-132
195
565
935
1265
1499
1596
1563
1440
1225
872
356
-234
-722
-957
-943
-822
-739
-716
-678
-581
-502
-554
-739
-933
-1001
-908
-732
-543
-340
-87
208
461
569
481
232
-92
-377
-526
-510
-399
-321
-350
-429
-407
-228
3
102
-14
-246
-433
-533
-621
-745
-816
-704
-423
-187
-242
-621
-1091
-1353
-1297
-1081
-941
-961
-994
-832
-427
59
381
415
226
-25
-237
-417
-625
-864
-1033
-1000
-754
-447
-246
-137
99
649
1381
1871
1772
1149
424
-33
-224
-428
-845
-1382
-1796
-1952
-1890
-1682
-1331
-867
-433
-218
-240
-298
-206
23
221
291
303
345
376
303
154
96
210
357
305
12
-289
-333
-89
222
350
225
-30
-238
-314
-287
-239
-220
-208
-148
-39
43
33
-41
-94
-99
-96
-105
-60
110
329
446
452
511
731
945
869
487
148
187
511
660
291
-463
-1158
-1491
-1529
-1527
-1614
-1699
-1647
-1405
-1022
-565
-67
409
696
561
-146
-1333
-2656
-3674
-4064
-3774
-3017
-2158
-1517
-1168
-928
-586
-167
26
-287
-1031
-1787
-2129
-1933
-1386
-769
-287
-44
-62
-238
-376
-352
-238
-206
-293
-338
-158
226
577
695
600
449
283
-35
-611
-1293
-1735
-1706
-1318
-908
-721
-764
-914
-1115
-1400
-1728
-1946
-1916
-1708
-1569
-1692
-2035
-2345
-2420
-2291
-2126
-2037
-1964
-1762
-1383
-932
-573
-391
-370
-455
-608
-807
-1015
-1182
-1268
-1266
-1196
-1070
-890
-661
-428
-271
-271
-431
-660
-841
-918
-943
-981
-1031
-1036
-967
-870
-819
-871
-1085
-1521
-2162
-2805
-3125
-2965
-2506
-2078
-1792
-1445
-835
-127
251
60
-473
-922
-1099
-1157
-1263
-1332
-1159
-717
-221
109
240
254
148
-168
-700
-1253
-1575
-1585
-1438
-1311
-1204
-947
-444
100
273
-202
-1168
-2129
-2644
-2648
-2373
-2029
-1627
-1087
-410
300
933
1404
1604
1409
832
107
-451
-681
-683
-670
-731
-766
-623
-266
148
368
234
-170
-597
-833
-881
-883
-921
-923
-793
-572
-424
-458
-608
-735
-784
-823
-921
-1047
-1115
-1082
-975
-849
-746
-688
-683
-701
-695
-656
-640
-715
-876
-1037
-1145
-1246
-1426
-1688
-1898
-1903
-1682
-1368
-1115
-945
-763
-489
-176
39
69
-51
-224
-379
-502
-579
-581
-497
-398
-384
-463
-546
-541
-480
-500
-680
-938
-1116
-1136
-1058
-990
-959
-920
-844
-791
-865
-1107
-1450
-1777
-2000
-2117
-2184
-2258
-2331
-2335
-2191
-1885
-1489
-1101
-767
-465
-143
207
534
769
876
863
744
531
255
-24
-252
-434
-640
-904
-1153
-1266
-1198
-1044
-950
-973
-1042
-1062
-1019
-975
-991
-1081
-1216
-1365
-1489
-1539
-1479
-1343
-1238
-1265
-1429
-1637
-1795
-1897
-2028
