4182
4232
4331
4359
4304
4250
4250
4262
4238
4193
4183
4222
4256
4242
4196
4169
4186
4229
4269
4291
4292
4274
4247
4230
4226
4211
4154
4066
4006
4027
4107
4165
4130
4020
3926
3925
4005
4095
4138
4137
4123
4102
4060
4003
3977
4011
4079
4121
4113
4092
4104
4147
4182
4185
4176
4178
4182
4158
4101
4037
4003
4008
4035
4062
4081
4094
4108
4125
4139
4148
4157
4184
4237
4292
4300
4236
4142
4089
4103
4123
4073
3949
3831
3793
3818
3826
3784
3747
3791
3896
3956
3888
3729
3601
3582
3637
3668
3632
3567
3549
3596
3656
3682
3678
3694
3756
3833
3874
4313
4236
4139
4132
4212
4272
4235
4147
4107
4136
4153
4077
3930
3805
3759
3758
3750
3746
3803
3925
4047
4103
4102
4098
4104
4078
3985
3871
3819
3855
3917
3932
3910
3927
4026
4155
4207
4130
3981
3874
3885
3965
3970
3801
3530
3373
3467
3709
3847
3763
3628
3723
4101
4503
4625
4429
4149
4008
4012
3997
3841
3564
3276
3084
3051
3172
3367
3518
3563
3540
3515
3490
3412
3280
3201
3265
3418
3503
3466
3429
3525
3707
3798
3715
3585
3566
3623
3568
3336
3077
2970
2983
2940
2791
2708
2827
3047
3136
3045
2990
3174
3508
3720
3675
3512
3430
3443
3391
3176
2902
2764
2820
2937
2964
2903
2894
3040
3291
3488
3537
3498
3478
3503
3529
3553
3617
3732
3818
3794
3727
3779
3989
4188
4187
4010
3880
3951
4152
4318
4398
4478
4608
4707
4663
4519
4405
4378
4344
4207
4022
3936
4022
4200
4333
4388
4434
4512
4567
4517
4366
4202
4075
3967
3862
3791
3816
3916
3981
3936
3858
3913
4166
4473
4595
4459
4245
4228
4463
4711
4712
4492
4320
4397
4607
4687
4591
4558
4761
5020
4999
4656
4346
4387
4635
4643
4224
3705
3525
3715
3930
3902
3767
3802
4031
4206
4154
3964
3836
3832
3859
3859
3878
3986
4162
4338
4521
4734
4926
4986
4860
4626
4397
4187
3930
3612
3327
3194
3256
3453
3706
3995
4306
4577
4705
4662
4550
4505
4537
4491
4223
3796
3476
3479
3738
3968
3935
3686
3483
3529
3777
3987
3958
3710
3492
3575
3956
4336
4399
4132
3827
3762
3920
4069
4054
3944
3903
3978
4117
4323
4646
5030
5258
5156
4829
4606
4683
4889
4867
4499
4054
3924
4170
4434
4308
3794
3311
3248
3529
3747
3633
3330
3191
3352
3618
3740
3704
3687
3753
3768
3630
3432
3389
3568
3782
3800
3616
3463
3565
3921
4342
4680
4918
5112
5297
5500
5752
6030
6190
6098
5828
5637
5666
5716
5426
4742
4050
3773
3931
4100
3922
3491
3175
3191
3419
3629
3707
3655
3523
3392
3362
3521
3845
4191
4418
4476
4401
4286
4231
4285
4349
4200
3714
3074
2672
2738
3102
3393
3432
3343
3332
3452
3614
3736
3802
3772
3598
3325
3136
3171
3351
3446
3355
3233
3279
3476
3598
3531
3399
3414
3618
3829
3850
3666
3440
3347
3445
3665
3854
3891
3796
3735
3849
4075
4164
3987
3725
3671
3830
3877
3554
3011
2664
2690
2853
2818
2587
2437
2554
2845
3095
3239
3321
3366
3355
3357
3505
3788
3969
3802
3331
2897
2813
3032
3220
3113
2772
2504
2554
2893
3264
3424
3336
3156
3037
3011
3017
2991
2941
2891
2864
2894
3012
3192
3348
3413
3424
3484
3596
3615
3427
3135
3021
3241
3634
3900
3926
3863
3897
4015
4083
4060
4039
4087
4114
4022
3857
3769
3813
3889
3910
3929
4047
4221
4298
4218
4126
4183
4347
4413
4264
4018
3883
3929
4039
4072
4006
3932
3935
4031
4172
4307
4396
4424
4395
4330
4267
4248
4281
4335
4364
4364
4360
4379
4398
4380
4327
4287
4283
4276
4226
4163
4163
4240
4324
4341
4304
4286
4321
4358
4349
4316
4315
4341
4325
4232
4128
4103
4160
4213
4190
4123
4089
4113
4156
4174
4174
4191
4241
4303
4352
4374
4362
4322
4267
4222
4212
4230
4250
4241
4191
4123
4074
4074
4108
4125
4098
4056
4048
4073
4084
4048
3988
3953
3952
3950
3924
3889
3864
3839
3810
3793
3818
3870
3904
3896
3877
3875
3880
3865
3844
3861
3921
3969
3965
3937
3950
4018
4081
4095
4086
4101
4131
4118
4042
3960
3943
3988
4023
4002
3950
3925
3946
3970
3961
3927
3917
3950
3996
3994
3920
3824
3788
3844
3945
3990
3922
3788
3688
3671
3686
3653
3559
3465
3428
3421
3389
3320
3265
3250
3225
3126
2987
2926
3006
3164
3284
3356
3499
3818
4272
4713
5044
5284
5489
5634
5640
5483
5227
4951
4660
4307
3896
3535
3324
3257
3243
3226
3239
3337
3500
3629
3651
3603
3571
3584
3587
3544
3488
3464
3463
3436
3390
3397
3494
3599
3579
3430
3300
3338
3511
3648
3638
3538
3487
3532
3607
3630
3605
3583
3583
3586
3582
3576
3578
3585
3592
3595
3590
3581
3592
3657
3754
3800
3728
3600
3558
3656
3805
3880
3878
3867
3853
3771
3624
3545
3644
3820
3840
3617
3347
3286
3467
3658
3637
3403
3141
3007
3003
3049
3108
3206
3349
3479
3504
3419
3348
3409
3551
3563
3315
2943
2740
2838
3064
3161
3095
3042
3128
3262
3294
3243
3252
3367
3453
3383
3238
3219
3398
3600
3594
3355
3076
2965
3047
3163
3161
3071
3047
3173
3346
3414
3389
3441
3689
4000
4115
3960
3752
3737
3894
3985
3867
3671
3623
3751
3869
3854
3820
3956
4233
4423
4380
4227
4204
4357
4482
4405
4224
4178
4348
4533
4545
4451
4468
4646
4770
4619
4283
4084
4195
4424
4437
4159
3859
3841
4113
4411
4500
4403
4323
4383
4512
4562
4471
4324
4240
4251
4256
4161
3996
3896
3962
4139
4271
4267
4204
4210
4313
4394
4363
4276
4249
4302
4316
4208
4056
4037
4189
4361
4376
4234
4101
4104
4198
4240
4219
4248
4195
4124
4104
4136
4165
4160
4136
4136
4151
4146
4121
4111
4133
4147
4089
3968
4008
3979
3958
3984
4004
3961
3874
3824
3860
3943
3992
3982
3952
3970
4055
4159
4214
4188
4109
4040
4028
4070
4115
4121
4095
4072
4084
4134
4266
4129
4074
4050
4051
4045
4026
4001
3977
3944
3913
3926
4006
4096
4097
3987
3872
3860
3925
3931
3815
3676
3641
3703
3734
3664
3562
3523
3523
3458
3317
3210
3228
3322
3371
3353
3405
3667
4110
4564
4885
5077
5224
5362
5436
5376
5188
4935
4666
4374
4048
3744
3546
3467
3442
3398
3356
3397
3540
3699
3752
3683
3596
3591
3656
3702
3679
3620
3581
3577
3581
3578
3586
3620
3652
3638
3569
3500
3502
3585
3669
3666
3577
3493
3494
3560
3604
3584
3546
3548
3580
3582
3539
3500
3507
3533
3528
3498
3494
3516
3508
3439
3371
3394
3492
3550
3491
3385
3364
3452
3523
3484
3383
3357
3443
3538
3525
3424
3353
3384
3452
3457
3390
3341
3372
3433
3424
3332
3237
3226
3284
3321
3278
3199
3171
3218
3288
3307
3273
3240
3252
3293
3314
3284
3225
3174
3145
3130
3123
3132
3159
3183
3180
3156
3143
3167
3213
3236
3216
3169
3117
3068
3011
2952
2908
2893
2894
2897
2913
2968
3062
3156
3224
3276
3349
3444
3522
3558
3574
3621
3705
3786
3815
3791
3755
3743
3758
3771
3758
3724
3699
3719
3784
3853
3891
3894
3898
3932
3981
4003
3983
3953
3952
3975
3994
3991
3985
3994
4017
4029
4020
4011
4024
4053
4072
4076
4085
4114
4134
4106
4028
3961
3950
3980
3993
3965
3935
3946
3980
3981
3940
3920
3964
4036
4051
3983
3904
3901
3971
4026
4003
3937
3915
3962
4009
3979
3883
3820
3861
3959
4006
3952
3865
3845
3910
3989
4020
4028
4066
4130
4154
4112
4063
4074
4117
4101
3988
3856
3808
3850
3883
3829
3732
3692
3743
3822
3847
3824
3808
3829
3844
3813
3762
3754
3796
3835
3822
3776
3749
3750
3734
3685
3645
3663
3718
3728
3664
3589
3599
3713
3853
3938
3954
3949
3972
4016
4039
4021
3988
3993
4049
4090
4045
3924
3848
3932
4135
4288
4255
4084
3954
3976
4085
4141
4087
3983
3912
3897
3907
3924
3952
3982
3991
3981
3976
3987
3971
3877
3723
3611
3620
3705
3740
3651
3512
3455
3511
3569
3511
3344
3206
3206
3316
3434
3522
3658
3937
4341
4762
5116
5407
5662
5841
5862
5701
5439
5179
4935
4635
4239
3838
3579
3517
3563
3598
3599
3626
3716
3812
3836
3788
3741
3746
3773
3790
3830
3931
4026
3985
3805
3660
3711
3855
3819
3521
3245
3346
3813
4221
4196
3841
3607
3745
4023
4013
3621
3204
3174
3559
4003
4168
4078
4046
4308
4742
4996
4844
4411
4022
3862
3812
3636
3276
2917
2775
2856
2997
3069
3089
3144
3265
3385
3449
3467
3488
3545
3614
3634
3569
3473
3477
3667
3965
4167
4140
3962
3827
3814
3812
3668
3384
3129
3048
3103
3136
3043
2879
2805
2917
3141
3302
3292
3189
3166
3286
3420
3403
3224
3037
2956
2940
2900
2851
2871
2956
2997
2944
2897
2986
3185
3320
3285
3151
3055
3038
3031
2981
2926
2910
2920
2919
2917
2966
3094
3249
3357
3390
3389
3408
3471
3555
3618
3645
3653
3673
3712
3747
3756
3760
3805
3899
3987
4000
3947
3906
3944
4040
4117
4129
4099
4074
4065
4052
4032
4025
4045
4074
4091
4100
4118
4139
4140
4112
4080
4075
4098
4123
4126
4116
4111
4116
4122
4124
4122
4116
4100
4075
4054
4050
4068
4101
4138
4166
4180
4178
4168
4156
4143
4122
4091
4069
4078
4112
4139
4133
4106
4098
4131
4181
4201
4175
4129
4098
4088
4089
4095
4117
4159
4203
4221
4202
4159
4107
4060
4024
3997
3970
3930
3881
3844
3834
3848
3867
3879
3886
3892
3897
3894
3882
3870
3863
3860
3860
3867
3878
3876
3855
3821
3793
3790
3806
3827
3837
3834
3824
3810
3793
3781
3789
3820
3859
3886
3898
3918
3971
4050
4121
4156
4157
4151
4151
4148
4127
4096
4083
4102
4138
4170
4192
4213
4235
4251
4252
4247
4249
4259
4254
4218
4163
4121
4114
4134
4158
4164
4152
4129
4097
4049
3985
3909
3833
3772
3729
3693
3650
3594
3548
3542
3575
3605
3584
3514
3462
3499
3639
3844
4086
4376
4745
5181
5617
5974
6208
6320
6328
6239
6041
5724
5306
4850
4441
4135
3932
3797
3712
3687
3735
3833
3922
3960
3951
3932
3927
3930
3916
3875
3813
3758
3729
3731
3753
3781
3809
3830
3840
3831
3807
3786
3781
3783
3777
3764
3754
3751
3745
3725
3707
3710
3731
3743
3723
3681
3650
3647
3655
3651
3633
3618
3618
3631
3640
3634
3617
3602
3600
3616
3637
3645
3629
3598
3570
3567
3592
3626
3644
3636
3614
3598
3594
3592
3583
3578
3591
3615
3624
3597
3548
3507
3490
3484
3469
3448
3430
3415
3393
3363
3342
3343
3358
3363
3349
3322
3293
3264
3235
3215
3211
3220
3227
3221
3209
3202
3200
3197
3190
3185
3185
3183
3168
3142
3121
3116
3126
3139
3149
3155
3162
3170
3177
3178
3181
3195
3230
3282
3332
3365
3381
3401
3441
3501
3563
3616
3656
3687
3711
3727
3741
3768
3810
3860
3901
3923
3932
3939
3953
3976
4005
4038
4070
4093
4102
4096
4087
4088
4103
4123
4136
4132
4114
4094
4082
4078
4075
4071
4066
4063
4064
4063
4056
4045
4040
4049
4069
4088
4090
4076
4058
4051
4055
4062
4068
4079
4102
4126
4130
4106
4073
4057
4066
4084
4094
4091
4085
4079
4067
4054
4053
4074
4103
4113
4092
4060
4040
4043
4058
4075
4091
4107
4119
4122
4117
4111
4107
4104
4100
4102
4110
4114
4102
4075
4048
4038
4041
4044
4035
4016
3987
3947
3899
3861
3853
3874
3902
3913
3899
3872
3843
3817
3801
3802
3818
3826
3806
3762
3722
3712
3728
3751
3767
3777
3782
3780
3769
3761
3775
3822
3890
3957
4007
4041
4067
4094
4126
4154
4172
4178
4173
4160
4141
4121
4108
4113
4133
4154
4161
4153
4139
4131
4131
4131
4125
4115
4108
4107
4105
4096
4080
4067
4064
4065
4056
4024
3965
3879
3769
3653
3565
3521
3503
3474
3426
3394
3414
3465
3480
3432
3381
3419
3579
3805
4033
4271
4583
5001
5472
5895
6206
6396
6473
6423
6229
5903
5502
5095
4722
4394
4109
3877
3722
3656
3672
3739
3819
3881
3909
3898
3855
3803
3772
3770
3776
3760
3713
3662
3642
3659
3687
3700
3697
3692
3687
3674
3652
3639
3647
3668
3684
3685
3683
3683
3675
3648
3613
3595
3603
3622
3628
3618
3607
3603
3597
3583
3567
3566
3583
3597
3589
3565
3548
3551
3566
3575
3574
3571
3571
3565
3541
3504
3473
3465
3475
3482
3475
3457
3443
3436
3431
3419
3403
3391
3387
3382
3369
3345
3318
3302
3302
3316
3333
3340
3328
3301
3272
3250
3242
3241
3239
3227
3202
3170
3145
3134
3133
3129
3115
3100
3094
3099
3101
3092
3076
3069
3078
3093
3097
3088
3072
3059
3052
3052
3061
3080
3104
3124
3138
3154
3178
3211
3246
3279
3312
3352
3395
3430
3455
3481
3521
3575
3632
3679
3715
3745
3773
3797
3817
3841
3875
3919
3958
3978
3978
3973
3981
4010
4047
4076
4087
4085
4081
4080
4082
4085
4091
4098
4101
4094
4081
4071
4070
4074
4079
4081
4084
4086
4081
4068
4051
4037
4027
4022
4022
4031
4045
4056
4054
4044
4035
4038
4051
4064
4070
4068
4061
4052
4043
4040
4046
4059
4073
4077
4066
4043
4022
4015
4028
4049
4064
4064
4056
4050
4051
4058
4067
4077
4090
4104
4110
4103
4088
4076
4075
4081
4084
4077
4063
4050
4040
4033
4028
4028
4035
4043
4041
4021
3985
3946
3912
3885
3868
3860
3859
3853
3835
3807
3781
3760
3739
3712
3684
3668
3665
3662
3649
3638
3645
3676
3710
3723
3708
3681
3662
3661
3675
3698
3732
3778
3836
3901
3963
4014
4054
4090
4124
4150
4155
4132
4095
4068
4067
4085
4103
4111
4116
4126
4137
4135
4121
4108
4110
4122
4126
4107
4079
4064
4071
4087
4094
4091
4086
4083
4070
4031
3962
3874
3781
3700
3646
3610
3569
3506
3440
3405
3410
3408
3344
3236
3171
3221
3363
3520
3666
3870
4216
4692
5191
5611
5928
6164
6315
6342
6223
5989
5687
5340
4953
4557
4216
3988
3875
3833
3820
3824
3846
3879
3904
3910
3901
3885
3868
3844
3809
3773
3747
3741
3749
3761
3767
3766
3761
3748
3721
3682
3645
3630
3642
3669
3691
3695
3688
3678
3672
3665
3657
3650
3646
3641
3631
3617
3606
3603
3607
3613
3622
3635
3646
3646
3630
3605
3585
3581
3585
3583
3568
3542
3519
3506
3506
3512
3516
3513
3504
3494
3485
3474
3457
3439
3431
3441
3455
3454
3432
3404
3389
3390
3392
3381
3364
3355
3353
3342
3312
3276
3258
3268
3287
3287
3258
3215
3180
3163
3154
3143
3129
3118
3113
3107
3091
3070
3053
3047
3049
3051
3045
3036
3030
3029
3034
3042
3055
3070
3085
3096
3107
3118
3130
3141
3155
3179
3215
3259
3297
3321
3340
3366
3409
3463
3514
3556
3590
3622
3654
3687
3722
3758
3793
3825
3855
3882
3907
3926
3940
3955
3978
4009
4034
4043
4039
4038
4047
4062
4072
4076
4082
4096
4108
4102
4079
4057
4053
4068
4087
4092
4081
4061
4047
4043
4049
4058
4064
4063
4057
4047
4035
4024
4017
4020
4032
4046
4053
4051
4047
4050
4061
4079
4097
4109
4109
4100
4089
4084
4081
4077
4074
4078
4095
4112
4114
4099
4084
4081
4088
4093
4088
4078
4069
4060
4046
4033
4028
4037
4052
4062
4062
4053
4038
4018
4002
4001
4019
4046
4063
4061
4049
4039
4039
4042
4040
4025
3997
3959
3921
3896
3889
3891
3893
3891
3889
3885
3863
3812
3745
3692
3674
3677
3674
3655
3635
3633
3653
3681
3702
3712
3716
3722
3731
3740
3750
3766
3799
3856
3930
4003
4058
4094
4122
4149
4173
4182
4177
1101
1131
1160
1148
1089
1024
998
1002
976
877
734
624
586
569
499
370
268
276
370
432
371
235
175
295
562
854
1106
1363
1710
2158
2623
3005
3265
3416
3460
3354
3081
2686
2260
1865
1503
1165
885
743
799
1023
1310
1528
1606
1558
1455
1365
1291
1188
1015
790
590
475
445
449
439
414
385
347
287
215
174
202
282
359
400
424
475
553
620
642
623
592
564
541
528
547
614
704
771
776
720
641
586
588
633
673
661
609
575
593
631
626
569
523
543
608
643
619
582
584
621
643
628
600
587
590
580
553
518
492
483
491
504
489
440
422
535
795
1082
1222
1168
1051
1030
1100
1088
846
422
13
-223
-296
-327
-397
-484
-518
-465
-359
-254
-177
-129
-101
-91
-96
-105
-100
-72
-28
20
60
87
96
84
63
62
107
196
293
356
374
379
412
477
536
546
514
502
569
720
907
1088
1256
1408
1503
1492
1362
1171
983
807
615
407
241
180
231
351
500
654
785
852
848
824
842
916
982
979
929
909
969
1073
1151
1174
1183
1231
1315
1371
1362
1339
1393
1540
1676
1672
1509
1305
1176
1117
1028
851
642
502
462
466
466
474
528
623
712
767
803
849
902
947
972
969
949
937
949
971
970
948
954
1039
1176
1268
1267
1256
1351
1543
1685
1648
1478
1335
1287
1225
1012
667
350
191
146
71
-103
-282
-318
-169
54
204
239
251
354
551
732
792
738
680
697
752
754
672
575
563
693
951
1269
1563
1757
1826
1802
1730
1605
1365
987
550
194
-17
-127
-188
-159
14
270
458
500
501
620
846
988
905
709
665
898
1258
1477
1453
1311
1223
1226
1234
1192
1149
1193
1343
1519
1618
1567
1362
1044
662
250
-195
-669
-1113
-1384
-1357
-1039
-583
-143
261
715
1280
1882
2359
2634
2770
2868
2945
2935
2790
2552
2296
2038
1729
1341
932
622
478
470
510
544
581
647
739
819
845
806
720
619
545
528
567
619
629
590
558
588
663
693
608
465
393
475
653
795
842
845
879
927
904
771
574
383
214
59
-65
-112
-82
-32
-12
5
73
195
309
367
392
430
471
458
375
296
309
414
517
523
432
327
294
345
420
446
399
317
270
285
335
363
336
293
313
449
677
902
1012
959
789
596
430
256
12
-286
-520
-563
-407
-159
65
239
397
534
584
503
333
151
-23
-234
-484
-677
-701
-559
-378
-271
-233
-187
-113
-68
-95
-157
-171
-128
-91
-90
-72
29
180
263
231
180
222
339
391
302
175
186
358
526
535
436
420
590
828
932
856
751
800
1030
1306
1482
1531
1525
1519
1479
1347
1116
844
585
345
128
-24
-38
91
273
419
523
647
816
959
995
935
867
832
800
759
773
898
1076
1172
1136
1072
1093
1165
1142
960
748
677
747
793
710
608
694
1041
1490
1824
1961
1976
1962
1896
1689
1327
887
473
161
-26
-95
-50
84
246
379
453
463
424
371
344
347
346
299
218
164
192
303
438
535
585
609
618
627
666
754
870
935
893
797
764
856
1011
1085
1031
939
913
944
929
791
580
436
428
505
598
718
920
1194
1423
1471
1320
1082
881
733
563
338
152
134
310
564
755
866
979
1124
1211
1135
939
795
801
860
815
662
591
771
1153
1496
1597
1460
1232
1045
912
733
407
-66
-531
-752
-591
-148
317
621
806
1013
1278
1480
1526
1475
1443
1444
1402
1334
1378
1612
1890
1957
1726
1370
1099
940
769
519
290
224
336
532
721
885
1028
1105
1054
873
646
484
454
536
650
718
696
609
527
485
468
425
322
194
110
109
170
243
300
359
444
521
549
541
568
670
774
753
581
389
324
379
410
320
169
100
160
269
328
343
392
510
626
651
570
456
391
393
419
423
390
353
354
406
465
480
434
357
295
256
220
188
194
251
308
297
218
159
193
285
329
265
144
58
32
18
-17
-47
-37
-5
2
-27
-36
25
122
169
126
35
-31
-37
5
67
132
180
187
155
122
127
154
143
72
-9
-31
10
53
59
72
162
327
489
567
563
555
595
665
701
663
571
496
491
559
667
787
916
1047
1158
1236
1298
1360
1383
1295
1100
921
899
1031
1161
1166
1113
1169
1376
1574
1569
1346
1060
849
713
586
450
360
349
388
445
522
640
771
853
858
820
795
801
809
800
790
806
845
877
870
836
817
839
884
920
933
930
913
893
906
996
1151
1274
1264
1138
1025
1018
1054
984
764
516
387
382
390
354
357
504
773
1014
1113
1090
1025
952
842
680
488
302
145
49
53
154
276
348
408
571
889
1263
1538
1659
1694
1719
1714
1602
1367
1073
785
531
326
204
186
241
309
377
484
664
887
1073
1160
1149
1088
1033
1023
1059
1102
1103
1054
999
976
956
874
715
547
458
467
512
530
514
501
514
544
575
607
636
639
590
494
377
270
202
215
338
561
836
1129
1451
1824
2217
2551
2751
2797
2721
2547
2296
1988
1660
1332
1008
706
480
392
429
522
605
666
716
749
743
691
617
534
437
335
278
321
456
608
711
779
874
1005
1106
1100
991
856
772
759
790
825
854
878
894
902
906
900
865
793
699
638
643
692
725
708
665
646
671
702
707
679
635
588
554
559
627
720
747
668
558
553
707
927
1073
1085
1012
924
851
790
730
654
518
293
33
-149
-175
-73
57
138
165
176
198
238
300
375
424
382
227
8
-178
-254
-232
-194
-200
-227
-204
-87
96
280
424
517
544
482
345
209
160
223
319
344
269
168
137
200
287
309
248
173
170
263
396
487
514
518
547
595
616
583
513
451
429
450
507
584
649
679
685
707
772
851
880
849
818
845
908
927
857
756
719
771
839
843
787
751
793
885
947
937
887
850
842
835
798
738
688
669
675
685
682
657
617
581
570
585
600
595
577
578
612
645
648
631
634
666
691
667
607
564
564
579
566
526
491
484
486
467
427
391
377
385
389
356
283
204
179
240
347
403
346
211
94
74
150
250
299
271
205
171
228
376
539
627
624
588
586
633
704
789
884
964
966
882
809
870
1036
1128
1018
801
715
849
1045
1074
911
768
821
1005
1103
1003
821
748
842
977
993
866
720
695
815
965
1003
887
724
672
775
909
897
704
469
369
427
496
421
222
52
-10
-29
-127
-309
-455
-460
-356
-273
-242
-158
104
534
982
1311
1521
1717
1991
2317
2611
2751
2647
2328
1932
1626
1465
1319
1038
641
325
261
401
543
554
484
486
601
732
772
731
684
685
695
654
561
489
499
564
581
483
334
275
370
526
583
527
454
496
621
684
622
526
493
511
484
393
346
412
519
520
379
242
257
426
609
678
642
584
574
583
563
505
451
441
462
487
481
458
464
513
535
456
287
153
136
200
235
206
209
328
486
535
455
376
421
518
506
338
164
122
192
236
190
113
89
90
53
-15
-37
24
102
100
15
-27
65
233
333
281
151
86
162
292
341
261
141
106
179
259
232
99
-30
-59
3
55
52
46
121
265
370
368
331
385
525
640
641
580
575
651
745
781
761
729
711
705
718
737
719
637
561
586
706
799
782
720
758
913
1035
1011
904
862
929
1007
984
891
821
822
860
894
880
844
795
763
769
788
750
646
558
566
642
674
614
542
567
689
793
789
714
674
718
794
825
784
696
620
582
572
550
480
383
319
315
341
339
310
312
383
474
509
477
436
416
423
435
453
482
503
500
502
546
627
678
666
645
686
771
813
764
684
666
735
814
839
821
810
847
917
1003
1077
1111
1085
1027
988
1002
1033
1027
973
926
929
948
919
838
762
734
728
695
631
582
583
609
627
645
680
699
651
544
448
412
392
306
149
7
-58
-90
-171
-298
-385
-361
-250
-132
-32
115
383
773
1217
1651
2046
2389
2642
2751
2693
2504
2236
1923
1577
1211
876
606
402
253
185
235
383
534
610
629
674
778
870
870
797
740
729
710
624
506
452
499
574
592
551
523
556
631
688
693
642
555
450
362
327
351
402
438
442
434
431
431
412
360
277
173
63
-25
-60
-27
52
140
217
280
320
317
269
206
183
226
297
339
336
344
426
569
684
685
571
427
332
276
209
123
77
112
192
237
229
222
265
316
285
144
-34
-154
-198
-232
-302
-378
-400
-361
-315
-316
-350
-350
-281
-177
-105
-89
-94
-85
-67
-76
-117
-161
-187
-212
-260
-301
-259
-97
122
285
343
342
352
369
324
181
-2
-136
-189
-213
-257
-292
-246
-105
40
78
7
-51
6
138
204
139
45
75
253
431
476
417
396
478
575
582
514
476
519
585
607
600
626
683
698
631
544
522
562
589
561
520
531
599
693
813
972
1152
1283
1325
1319
1325
1327
1257
1083
868
705
618
565
517
481
469
468
471
519
643
801
896
882
819
813
891
973
962
850
724
671
701
756
772
747
739
795
890
940
892
786
706
693
705
678
608
541
517
525
534
536
545
571
598
613
626
667
744
822
855
830
785
765
776
782
754
703
669
678
717
760
794
822
851
881
902
903
873
817
754
706
671
629
576
552
595
670
692
616
501
444
465
473
380
212
82
51
61
-4
-176
-364
-453
-418
-326
-249
-181
-59
163
480
861
1269
1668
1998
2206
2284
2291
2292
2268
2128
1803
1353
947
714
630
549
375
180
143
335
623
792
757
641
620
718
786
683
438
225
181
286
409
450
419
397
439
527
597
597
529
446
397
399
429
458
465
444
395
337
304
308
317
279
190
112
124
237
386
496
557
598
637
659
641
584
497
385
257
150
97
97
105
87
70
113
224
330
346
271
201
221
314
363
287
141
50
71
130
113
11
-65
-26
85
151
120
66
91
196
274
228
88
-24
-27
44
77
10
-104
-153
-93
11
57
21
-27
-25
5
-12
-95
-185
-227
-216
-179
-127
-61
-7
7
14
91
233
326
257
81
-2
127
343
415
275
111
133
330
494
472
338
294
433
647
778
780
743
770
863
951
982
980
991
1023
1045
1045
1065
1161
1331
1506
1607
1617
1585
1574
1601
1634
1627
1552
1419
1274
1161
1094
1031
929
777
626
543
542
581
607
617
635
667
689
679
659
664
711
767
794
792
789
806
832
847
841
805
734
638
556
520
517
491
409
312
274
313
370
378
328
271
246
245
240
226
221
232
236
222
208
213
231
226
201
194
234
292
308
270
246
297
396
452
433
408
475
624
754
786
746
719
737
757
733
682
646
637
636
634
656
711
769
792
785
782
802
822
817
806
822
858
877
854
816
805
825
829
782
704
636
589
543
493
459
431
368
247
108
10
-58
-182
-409
-663
-800
-758
-603
-441
-283
-48
335
840
1370
1847
2239
2542
2747
2832
2790
2629
2371
2049
1709
1378
1078
837
693
669
735
826
897
966
1068
1188
1264
1262
1216
1182
1160
1099
974
835
752
737
729
666
560
468
429
442
479
515
536
531
506
488
494
506
496
461
433
429
428
402
369
371
416
444
397
291
214
234
331
424
463
467
484
533
593
652
705
740
737
701
677
696
728
706
610
492
416
382
330
218
86
5
4
55
105
131
135
130
132
138
130
78
-25
-138
-192
-155
-68
-11
-28
-90
-131
-110
-36
56
136
195
232
262
306
374
437
435
342
202
90
33
-18
-118
-233
-268
-193
-94
-81
-142
-164
-80
36
63
-10
-60
24
217
398
493
530
571
631
681
704
716
731
740
734
717
709
718
757
831
928
1007
1035
1028
1042
1097
1132
1056
872
701
659
741
838
877
890
952
1069
1162
1185
1186
1236
1314
1314
1177
982
877
916
1014
1056
1017
959
933
928
912
879
842
794
722
649
611
622
648
645
619
608
622
633
621
601
595
587
545
463
365
290
256
258
294
343
366
335
286
285
346
403
383
296
235
265
355
420
430
427
474
575
677
733
745
745
758
780
796
805
815
827
828
813
797
802
830
863
876
871
870
886
908
923
925
917
889
827
747
691
695
741
770
752
712
697
716
731
706
637
548
457
379
325
290
248
170
72
-1
-38
-95
-237
-444
-608
-635
-548
-452
-400
-319
-94
299
757
1161
1475
1747
2004
2199
2252
2132
1882
1569
1231
884
556
283
91
-17
-41
16
138
273
361
401
432
477
494
433
319
250
279
350
367
330
327
406
487
469
357
268
274
334
359
335
318
338
370
394
432
501
547
505
414
386
478
591
587
450
318
324
441
527
489
386
321
326
347
337
311
308
319
300
244
209
245
335
405
410
375
353
359
362
337
308
302
316
300
242
183
182
240
281
247
170
142
197
268
268
207
176
219
271
245
152
93
127
204
257
274
267
228
166
120
128
148
83
-77
-208
-198
-97
-51
-103
-138
-52
95
147
69
-5
12
90
124
95
74
98
148
199
274
374
433
412
363
377
466
526
460
320
248
325
484
612
649
635
664
794
983
1097
1052
901
822
915
1110
1221
1157
1011
936
1006
1117
1114
958
742
616
626
690
695
630
639
834
1160
1407
1413
1239
1092
1082
1098
972
700
456
391
468
532
516
503
595
746
809
713
562
489
503
499
405
272
205
233
293
337
376
412
401
300
163
98
150
249
301
303
319
382
440
423
345
282
271
289
297
287
288
311
339
357
397
494
598
617
525
431
479
682
903
997
967
954
1038
1158
1203
1148
1046
939
820
708
678
800
995
1107
1028
828
686
716
857
903
719
390
185
271
521
616
419
119
44
268
494
419
104
-127
-81
68
55
-137
-304
-328
-347
-531
-818
-965
-885
-744
-723
-746
-587
-132
460
981
1393
1777
2172
2490
2639
2653
2591
2436
2134
1715
1314
1030
834
629
417
322
389
490
479
365
319
449
654
745
675
577
595
708
776
725
610
530
492
451
394
381
447
550
616
618
586
581
598
600
564
493
422
388
387
390
377
357
366
412
448
434
389
365
363
355
333
328
373
425
415
347
306
358
457
508
466
374
293
246
213
168
77
-67
-217
-279
-192
-11
143
212
251
336
460
543
538
466
388
330
274
199
104
19
-26
-18
24
35
-15
-84
-90
-16
79
144
201
304
442
525
490
365
205
22
-222
-518
-778
-907
-897
-820
-738
-648
-505
-301
-94
19
-12
-144
-270
-314
-299
-307
-367
-400
-307
-106
72
111
44
1
62
179
241
216
174
206
331
484
585
600
557
524
545
612
680
713
725
745
772
768
713
631
579
589
634
673
696
722
777
873
986
1070
1074
978
832
723
692
707
696
651
621
641
671
644
562
509
553
653
691
615
504
479
565
664
658
532
371
266
227
197
123
30
-4
66
204
305
300
220
159
176
234
237
146
20
-47
-17
56
88
46
-34
-105
-152
-199
-262
-321
-340
-300
-219
-117
15
191
400
592
716
756
733
688
651
608
524
384
225
126
150
273
409
485
526
603
742
897
1001
1024
979
889
778
678
620
587
536
435
319
268
316
413
484
498
483
480
490
472
405
317
265
261
243
125
-100
-340
-496
-566
-651
-832
-1067
-1245
-1286
-1208
-1070
-886
-635
-297
105
548
1008
1441
1778
1966
2016
1978
1867
1666
1381
1075
820
639
498
364
268
247
298
378
468
580
701
773
756
689
662
718
793
789
698
595
553
572
601
601
583
583
620
688
745
741
649
504
367
281
234
198
169
181
243
326
400
471
559
649
691
650
551
469
449
469
463
387
263
167
155
203
239
226
199
220
301
382
412
416
446
505
528
464
338
230
205
256
315
325
269
192
149
162
205
225
203
168
159
191
243
282
281
227
123
5
-89
-138
-155
-172
-193
-197
-169
-120
-83
-80
-111
-163
-220
-277
-332
-387
-438
-469
-469
-430
-377
-335
-314
-308
-302
-291
-269
-239
-207
-187
-181
-175
-155
-128
-115
-121
-126
-105
-61
-29
-32
-63
-85
-79
-47
-5
36
72
111
161
239
330
387
377
329
317
365
408
362
240
162
214
338
394
326
219
186
243
307
319
306
305
304
280
269
332
455
533
483
338
222
203
234
225
149
47
-17
-8
80
217
337
371
303
191
103
58
15
-62
-166
-262
-321
-333
-297
-221
-136
-81
-72
-97
-143
-200
-256
-275
-229
-134
-50
-24
-32
-23
24
72
67
2
-80
-136
-156
-156
-147
-124
-87
-51
-38
-45
-48
-19
37
99
166
254
367
488
597
691
777
839
846
799
747
739
763
754
682
596
564
594
636
675
760
935
1151
1304
1346
1339
1369
1438
1463
1367
1161
929
747
646
634
692
758
755
676
598
582
576
445
130
-251
-514
-587
-565
-555
-521
-334
51
516
910
1197
1460
1756
2047
2239
2281
2192
2003
1730
1394
1039
717
453
236
62
-22
54
301
648
977
1197
1291
1287
1202
1015
699
280
-159
-517
-731
-797
-748
-634
-495
-362
-249
-162
-101
-66
-55
-71
-113
-169
-215
-224
-179
-102
-34
-10
-27
-54
-64
-66
-89
-142
-193
-198
-150
-86
-59
-84
-127
-144
-114
-57
-14
-20
-75
-133
-139
-75
14
64
53
26
34
83
128
129
88
45
17
-14
-57
-85
-65
-17
-11
-82
-165
-163
-73
-10
-63
-166
-169
-28
118
104
-49
-156
-92
50
77
-64
-239
-293
-237
-200
-251
-326
-332
-282
-268
-329
-405
-414
-360
-322
-347
-399
-412
-368
-309
-268
-244
-218
-195
-196
-220
-242
-239
-208
-150
-62
51
161
251
331
430
536
589
545
437
349
330
357
370
357
354
395
471
542
584
602
614
625
637
655
683
716
735
733
734
768
829
876
865
794
700
622
571
532
482
418
358
345
416
573
761
913
1006
1067
1132
1199
1233
1211
1133
1019
893
794
764
813
900
976
1039
1129
1241
1309
1269
1137
991
860
680
384
23
-261
-373
-361
-340
-348
-299
-102
219
534
739
837
904
975
1003
931
775
624
544
519
492
445
421
455
512
523
462
380
345
358
342
240
78
-56
-107
-99
-85
-81
-33
114
342
572
750
896
1056
1222
1315
1272
1129
997
946
940
894
781
668
642
707
787
811
769
704
662
650
650
662
695
748
797
802
749
663
584
512
395
195
-61
-285
-409
-444
-452
-485
-556
-674
-841
-1020
-1128
-1109
-992
-863
-760
-607
-304
161
695
1184
1570
1859
2070
2194
2218
2145
1983
1749
1472
1196
951
753
607
520
488
490
496
498
513
548
582
587
561
524
495
470
445
434
452
492
531
558
581
609
622
589
515
441
403
394
365
299
225
193
209
232
228
215
235
296
357
376
357
340
342
336
285
191
102
60
66
82
78
60
62
109
185
248
273
268
253
232
190
118
39
-12
-33
-45
-65
-91
-108
-114
-114
-102
-77
-57
-71
-115
-135
-81
33
131
152
116
79
57
13
-92
-240
-378
-483
-574
-666
-732
-723
-642
-544
-487
-482
-493
-493
-490
-498
-515
-515
-473
-390
-288
-190
-120
-88
-95
-138
-212
-314
-431
-539
-619
-668
-692
-686
-637
-555
-477
-442
-439
-425
-368
-289
-229
-199
-166
-89
30
151
230
256
253
247
251
256
251
239
237
274
359
478
599
697
764
805
829
834
802
728
627
529
455
407
382
384
409
432
426
393
368
375
391
384
352
339
384
471
555
597
587
541
486
447
431
404
322
195
111
154
305
446
473
403
348
384
468
512
475
387
311
265
242
227
217
189
118
22
-38
-12
70
132
138
127
158
213
231
199
181
226
277
225
75
-37
5
171
316
356
343
359
424
502
568
610
597
499
367
301
355
454
481
406
325
337
438
538
555
485
391
349
382
430
389
235
92
115
318
535
595
507
435
492
615
667
591
439
287
174
101
54
6
-81
-182
-229
-224
-276
-487
-796
-1014
-1040
-971
-960
-1001
-920
-599
-119
341
709
1037
1378
1676
1834
1824
1705
1536
1326
1064
761
460
207
29
-54
-52
4
85
184
294
387
424
404
380
409
463
457
358
241
221
321
438
457
372
274
240
258
276
292
348
439
491
465
407
413
503
579
537
384
239
215
304
415
460
407
327
283
275
256
196
110
37
-19
-77
-124
-114
-43
10
-32
-131
-153
-36
120
161
65
-36
-17
104
200
180
85
12
10
53
85
81
59
49
53
46
12
-16
-24
-8
-5
-47
-112
-140
-106
-31
36
60
31
-40
-110
-127
-76
-17
-36
-150
-278
-315
-249
-164
-141
-186
-234
-226
-173
-128
-135
-188
-253
-304
-351
-402
-433
-416
-340
-246
-183
-149
-108
-44
23
69
99
131
156
146
102
66
82
138
180
175
152
159
206
262
297
323
372
446
506
520
504
506
540
561
505
384
287
284
347
366
290
194
187
292
416
451
407
373
404
464
487
464
444
450
456
432
400
401
428
425
360
279
253
293
333
327
306
335
428
522
552
528
500
490
470
410
324
258
243
264
279
259
222
208
247
321
363
324
215
117
107
186
273
291
242
201
227
301
352
333
274
232
229
240
248
274
348
451
526
543
543
585
673
749
762
728
702
716
750
771
771
764
756
741
718
697
693
712
736
744
738
743
780
837
873
853
799
757
744
724
653
548
469
444
416
316
176
113
181
272
216
-14
-249
-323
-284
-339
-597
-922
-1079
-991
-796
-647
-538
-341
10
451
882
1257
1590
1887
2114
2234
2239
2133
1921
1626
1294
974
688
448
260
128
43
-7
-25
-14
16
59
127
232
348
410
392
347
355
412
427
328
162
51
62
150
226
251
259
305
405
522
602
610
552
475
418
384
344
287
237
227
245
244
196
127
80
64
57
47
51
79
106
91
28
-48
-100
-130
-158
-192
-212
-198
-165
-147
-151
-150
-118
-73
-61
-106
-181
-228
-219
-176
-138
-125
-121
-94
-31
45
92
78
5
-99
-226
-382
-544
-637
-595
-440
-288
-230
-226
-162
1
165
202
101
-32
-92
-66
-9
44
97
165
238
311
380
423
411
351
284
246
222
170
97
67
117
200
231
189
131
116
140
164
177
191
211
209
170
131
131
149
121
32
-42
-14
120
270
363
422
514
654
777
826
824
840
890
919
881
792
711
678
689
726
792
880
954
974
945
921
944
991
996
914
771
641
582
592
612
592
522
447
430
482
574
649
674
650
610
589
598
633
665
662
615
533
458
432
468
539
599
615
589
552
534
550
582
585
529
425
334
313
354
397
398
374
370
381
352
253
153
125
162
182
117
4
-55
-11
66
81
5
-100
-148
-114
-50
-22
-40
-46
9
106
178
191
182
212
287
347
348
320
328
398
493
552
557
528
487
452
437
433
416
356
264
210
263
395
497
492
411
359
395
464
478
415
338
312
336
363
360
329
280
219
144
61
-17
-84
-147
-224
-334
-467
-575
-627
-656
-745
-945
-1191
-1336
-1296
-1130
-963
-824
-614
-231
299
835
1259
1561
1796
1990
2106
2088
1924
1651
1325
994
690
425
203
27
-80
-93
-22
86
191
293
409
522
576
545
473
432
426
390
270
106
1
0
35
4
-112
-230
-272
-242
-209
-208
-209
-166
-87
-32
-23
-5
98
304
553
770
925
1016
1037
981
860
691
473
186
-145
-428
-579
-590
-521
-404
-214
48
309
462
475
417
369
329
240
76
-117
-264
-328
-315
-253
-180
-136
-145
-187
-209
-176
-89
27
140
216
226
166
74
1
-44
-96
-185
-288
-348
-337
-298
-296
-358
-456
-544
-608
-671
-749
-835
-894
-904
-864
-787
-685
-575
-494
-483
-537
-592
-591
-550
-546
-624
-718
-713
-570
-378
-269
-280
-335
-337
-266
-177
-131
-140
-171
-178
-140
-76
-27
-19
-41
-54
-30
20
66
95
121
165
233
308
375
426
459
477
484
481
465
431
379
317
260
228
231
266
310
338
346
350
372
417
461
472
440
392
365
373
407
448
494
550
610
666
718
764
782
738
638
553
566
683
811
857
817
765
757
763
713
583
416
268
163
101
75
93
147
220
292
351
396
421
421
397
353
296
241
208
203
219
242
256
258
246
229
221
236
271
310
340
357
365
362
346
323
302
291
288
293
316
360
417
468
495
501
504
527
577
639
693
728
741
739
726
710
697
685
666
640
632
662
711
732
706
671
679
720
712
585
375
196
134
173
239
293
360
484
652
797
846
785
667
545
419
252
31
-216
-447
-650
-840
-1004
-1093
-1062
-934
-764
-561
-264
179
732
1280
1740
2102
2392
2604
2701
2673
2540
2319
2004
1588
1140
784
617
613
637
561
381
228
225
370
527
553
445
324
304
397
533
647
715
739
727
679
599
487
340
170
14
-97
-157
-176
-152
-70
63
183
231
210
197
241
319
362
346
322
348
423
484
480
413
325
254
215
208
236
281
310
293
238
188
170
162
120
40
-22
-12
62
141
188
218
260
306
312
247
133
21
-54
-93
-118
-141
-161
-176
-183
-179
-166
-158
-179
-239
-320
-395
-443
-465
-459
-418
-356
-309
-313
-351
-361
-297
-196
-142
-180
-264
-304
-263
-185
-136
-139
-169
-191
-192
-185
-193
-244
-348
-483
-590
-629
-609
-575
-555
-537
-499
-444
-389
-339
-295
-265
-260
-265
-247
-192
-133
-109
-109
-81
-2
87
123
93
48
38
76
145
222
284
308
285
257
277
347
404
377
273
163
103
75
35
-31
-88
-101
-76
-38
-5
21
49
89
149
232
336
453
571
665
699
659
573
493
425
323
150
-42
-150
-121
-16
70
105
146
245
373
453
450
396
342
301
249
175
116
118
183
260
283
230
141
75
49
39
7
-45
-82
-76
-29
40
134
268
429
559
595
543
483
486
528
506
359
148
3
-13
47
72
43
36
113
220
259
207
160
229
400
555
605
581
590
706
892
1069
1174
1201
1174
1124
1087
1073
1059
1010
916
818
768
760
744
697
659
688
770
829
816
754
719
736
759
742
697
670
669
661
613
539
487
469
432
288
32
-228
-380
-425
-489
-680
-962
-1165
-1177
-1056
-934
-836
-625
-183
448
1061
1493
1755
1977
2234
2476
2580
2485
2228
1899
1574
1289
1053
858
694
554
442
373
356
381
424
474
514
524
499
448
400
380
401
436
460
471
470
468
471
515
618
742
798
709
483
239
101
111
204
265
229
111
-15
-60
16
173
310
339
250
122
60
87
128
106
36
10
75
165
191
157
172
283
394
374
206
23
-67
-78
-74
-65
-22
24
9
-52
-23
180
428
477
250
-36
-116
19
133
40
-184
-306
-231
-105
-115
-260
-366
-297
-144
-95
-224
-384
-378
-193
-22
-56
-265
-449
-460
-349
-280
-327
-431
-504
-516
-510
-481
-406
-312
-275
-345
-453
-475
-361
-203
-125
-139
-171
-159
-99
-45
-18
-31
-69
-116
-150
-164
-180
-210
-243
-285
-376
-531
-648
-584
-344
-136
-154
-314
-314
-3
388
513
301
44
39
252
417
368
216
143
215
319
336
273
214
208
246
266
244
210
228
319
404
396
306
235
249
302
322
305
318
388
451
441
373
311
291
296
295
282
263
239
229
276
385
468
443
300
171
165
256
316
264
156
105
147
220
246
222
180
130
75
28
30
61
47
-47
-151
-161
-74
0
-43
-167
-240
-182
-39
86
148
174
201
235
282
350
415
431
371
265
173
138
164
225
301
354
350
318
337
470
662
759
688
526
435
473
557
559
471
402
438
548
621
605
581
659
840
977
927
717
541
564
739
859
769
541
391
442
602
674
584
413
281
210
154
93
53
35
-10
-114
-238
-329
-383
-483
-668
-877
-997
-979
-862
-706
-504
-199
249
801
1349
1786
2066
2227
2324
2370
2315
2097
1741
1346
1003
734
505
294
134
69
87
133
176
234
340
482
618
724
805
861
881
875
889
942
980
902
661
320
12
-169
-227
-225
-234
-280
-319
-238
81
619
1189
1555
1618
1480
1286
1059
732
276
-222
-633
-905
-1063
-1117
-1032
-801
-503
-284
-233
-324
-445
-520
-558
-611
-703
-793
-811
-720
-550
-368
-216
-100
-18
22
-12
-126
-289
-415
-444
-397
-358
-385
-450
-475
-428
-352
-297
-258
-198
-117
-65
-60
-41
50
175
218
127
-20
-105
-121
-172
-327
-527
-654
-674
-666
-709
-773
-771
-676
-567
-542
-611
-692
-711
-671
-630
-620
-618
-582
-514
-462
-462
-488
-486
-458
-453
-497
-538
-496
-362
-230
-179
-177
-128
-9
86
66
-24
-39
90
275
384
398
412
497
601
617
523
396
311
262
190
81
-4
-1
97
244
383
482
530
542
554
600
667
708
692
647
639
693
774
837
887
955
1035
1074
1052
1039
1124
1293
1427
1424
1319
1230
1223
1238
1181
1036
870
752
684
638
614
633
686
723
705
657
647
702
766
759
648
489
376
359
393
388
309
212
193
267
348
336
230
134
135
200
223
149
45
15
76
144
141
82
46
74
128
147
126
105
96
76
38
5
13
52
90
124
171
250
335
397
450
500
541
542
496
448
419
379
283
167
132
213
326
346
282
264
366
488
482
352
264
339
492
533
410
290
307
404
412
283
150
102
44
-134
-367
-453
-333
-243
-392
-699
-866
-755
-577
-606
-819
-945
-807
-533
-333
-231
-45
327
761
1075
1248
1419
1645
1815
1795
1611
1437
1358
1239
928
450
42
-105
-43
27
-2
-43
38
252
466
570
586
602
638
622
498
319
199
204
283
333
294
217
194
265
379
448
446
417
425
471
502
487
440
376
291
163
10
-108
-160
-172
-199
-251
-262
-188
-58
33
48
31
53
109
133
95
56
93
179
218
165
95
111
224
328
346
297
264
290
337
353
322
275
230
185
106
-10
-129
-214
-245
-249
-269
-312
-334
-282
-156
-21
55
60
42
55
93
120
109
75
42
10
-28
-50
-1
150
372
570
667
649
556
427
260
41
-216
-465
-674
-838
-952
-986
-884
-606
-180
307
733
990
1032
881
616
316
20
-268
-556
-826
-1042
-1171
-1183
-1065
-855
-664
-621
-755
-936
-978
-811
-557
-412
-442
-527
-495
-318
-134
-71
-116
-135
-61
26
4
-124
-186
-40
262
550
746
929
1197
1467
1584
1530
1432
1366
1208
797
183
-373
-678
-790
-877
-980
-986
-828
-596
-404
-245
-61
114
148
16
-117
-70
136
284
216
2
-142
-48
259
624
881
948
874
783
776
836
816
574
143
-289
-528
-533
-417
-303
-207
-67
120
264
284
220
181
205
207
101
-67
-139
-47
101
142
40
-79
-83
23
114
109
40
23
93
195
224
171
110
116
185
244
260
310
480
744
961
1041
1054
1140
1329
1480
1452
1274
1094
999
921
757
516
307
215
215
225
211
210
258
344
425
473
500
527
560
588
595
585
574
581
595
584
519
407
288
206
164
110
-14
-188
-321
-330
-255
-259
-472
-844
-1168
-1280
-1207
-1094
-998
-801
-350
352
1137
1829
2383
2840
3203
3385
3304
2978
2526
2081
1706
1388
1091
818
602
483
466
523
603
653
642
576
511
521
628
771
852
827
744
678
644
608
538
455
415
447
536
648
761
870
969
1042
1062
1014
924
840
797
780
735
639
539
516
598
724
797
775
694
628
603
583
523
427
357
370
458
564
634
665
683
701
693
631
524
413
330
268
210
159
141
173
235
285
308
326
364
414
439
418
365
319
302
301
294
278
255
223
172
108
57
41
46
48
36
22
21
26
25
31
73
156
239
272
237
176
143
153
155
89
-52
-211
-315
-337
-314
-299
-308
-308
-265
-189
-125
-110
-134
-161
-164
-142
-114
-92
-79
-60
-22
43
123
187
205
179
142
131
163
233
327
429
519
579
609
630
660
689
679
604
484
365
288
265
293
380
532
724
897
992
1001
948
850
687
435
117
-189
-410
-531
-583
-594
-556
-457
-325
-204
-123
-77
-48
-33
-37
-50
-50
-26
10
30
18
-17
-50
-54
-39
-50
-125
-243
-321
-291
-189
-126
-180
-301
-370
-343
-289
-295
-349
-349
-240
-84
5
-28
-141
-265
-376
-491
-620
-748
-859
-938
-965
-927
-829
-708
-600
-516
-445
-375
-314
-272
-254
-253
-255
-244
-218
-178
-121
-37
86
231
351
409
424
446
501
559
570
529
473
430
412
431
489
566
605
573
492
435
437
460
436
352
252
195
210
283
373
442
473
492
533
599
627
554
396
254
198
196
148
3
-175
-296
-334
-345
-403
-530
-675
-777
-792
-679
-429
-87
262
560
835
1177
1621
2061
2314
2299
2120
1936
1791
1587
1239
823
508
365
284
132
-87
-236
-210
-44
125
203
213
228
297
388
409
318
177
84
79
86
16
-90
-92
64
236
242
79
-24
107
393
576
531
396
376
483
539
442
301
288
406
461
305
42
-68
100
403
575
492
291
209
327
537
658
613
491
416
440
516
556
528
461
428
463
549
594
560
487
466
500
482
312
12
-226
-245
-86
50
22
-108
-162
-48
137
239
212
134
86
72
41
-4
-17
35
113
149
124
91
102
155
198
187
134
77
44
45
58
65
50
10
-18
-9
49
119
150
139
122
118
110
84
49
38
64
88
75
33
13
56
140
198
164
74
40
164
415
634
675
576
548
750
1103
1343
1285
995
675
439
251
28
-218
-413
-540
-623
-646
-533
-257
72
296
363
359
374
410
397
320
241
215
228
235
236
273
369
484
528
454
303
182
183
297
413
423
332
224
219
324
437
467
406
317
295
371
501
602
589
463
292
164
137
203
311
429
512
504
398
284
273
380
486
468
332
206
188
251
319
370
439
501
457
262
44
-45
5
51
-12
-86
18
311
567
597
455
380
475
578
473
162
-97
-81
162
403
493
481
498
588
698
767
804
826
803
704
573
495
498
508
447
348
309
381
488
511
434
365
413
567
699
725
656
561
484
425
389
403
468
522
499
413
350
365
404
372
236
48
-111
-223
-307
-383
-467
-588
-757
-936
-1038
-1014
-903
-763
-590
-315
103
609
1100
1521
1891
2233
2494
2575
2429
2119
1775
1481
1206
868
469
130
-21
36
182
284
308
337
458
654
822
867
784
666
598
574
503
345
195
188
334
468
444
312
242
298
370
326
208
156
188
162
-5
-179
-163
38
202
161
17
25
270
569
693
620
494
423
357
209
9
-108
-101
-90
-205
-397
-457
-273
28
183
73
-165
-302
-249
-114
-63
-135
-241
-267
-163
5
119
91
-60
-213
-254
-178
-91
-99
-185
-227
-146
-8
48
-44
-202
-293
-284
-262
-306
-379
-386
-295
-186
-140
-139
-101
-24
-3
-85
-178
-143
5
93
-3
-192
-269
-182
-100
-208
-480
-711
-775
-742
-757
-855
-938
-922
-837
-772
-766
-790
-796
-764
-686
-565
-433
-350
-329
-302
-188
-1
125
66
-155
-398
-562
-675
-808
-946
-981
-854
-624
-390
-161
143
547
938
1162
1183
1114
1086
1115
1115
1030
904
824
816
824
793
720
654
615
575
505
420
375
407
492
561
578
567
574
600
610
568
503
478
526
610
664
666
659
688
743
764
710
618
568
599
675
717
688
622
587
625
697
719
633
476
360
368
467
538
510
434
433
559
743
882
934
918
879
831
777
731
692
624
501
360
276
279
305
270
174
109
155
264
312
256
193
252
439
622
692
690
744
902
1068
1120
1060
1004
1030
1088
1083
995
904
878
893
860
750
632
588
619
653
640
615
655
766
859
841
724
622
622
689
705
598
411
251
173
161
150
85
-50
-221
-375
-470
-516
-584
-721
-877
-933
-820
-604
-410
-273
-83
274
769
1229
1510
1633
1726
1860
1955
1881
1598
1197
809
497
245
24
-164
-294
-351
-349
-315
-272
-225
-168
-102
-36
20
53
59
54
61
104
184
266
304
282
226
188
194
221
227
202
170
161
168
164
140
117
113
113
89
42
5
3
20
19
-3
-1
54
125
147
109
70
96
172
227
211
145
83
52
44
45
52
59
54
28
0
-4
21
39
12
-62
-135
-153
-107
-43
-20
-49
-84
-71
-3
68
89
55
0
-37
-43
-28
-16
-22
-54
-94
-120
-120
-109
-116
-152
-199
-225
-217
-193
-187
-208
-227
-209
-158
-115
-122
-170
-205
-185
-126
-79
-73
-86
-79
-40
6
26
18
9
28
81
144
188
202
191
174
162
162
169
174
173
164
159
172
216
292
395
505
600
666
714
774
854
930
960
939
905
892
896
889
870
864
888
925
946
951
949
942
909
854
806
794
807
821
822
827
860
937
1072
1261
1461
1602
1642
1612
1579
1553
1468
1264
976
702
508
372
247
139
104
162
262
336
370
405
460
499
475
393
307
273
285
302
292
264
241
224
194
145
98
74
56
2
-96
-188
-212
-164
-113
-123
-186
-225
-185
-88
-14
-9
-43
-60
-41
-10
3
0
6
29
63
100
137
189
257
331
389
415
410
398
395
385
337
245
158
137
180
217
189
129
125
225
370
466
489
501
566
667
734
729
683
646
623
599
584
601
627
589
429
195
-5
-111
-158
-209
-272
-301
-271
-207
-132
-35
83
160
118
-19
-121
-78
92
284
444
629
917
1286
1633
1882
2034
2127
2154
2070
1861
1582
1311
1089
899
703
488
290
158
126
183
281
372
439
504
587
677
733
721
652
573
517
477
438
414
431
485
526
513
471
466
525
591
595
536
483
489
526
526
459
370
324
333
360
369
360
361
395
450
492
492
449
390
346
322
297
255
207
178
178
196
216
241
279
321
346
346
329
303
267
216
156
95
29
-42
-100
-106
-51
31
94
134
179
229
240
177
74
16
35
62
12
-110
-204
-175
-40
86
104
24
-46
-25
73
152
142
71
21
27
41
-1
-89
-136
-95
-21
-15
-93
-156
-107
36
154
163
110
103
179
257
243
140
44
33
75
79
5
-93
-136
-102
-36
14
40
68
109
157
209
257
281
265
229
224
275
338
353
315
286
316
372
387
357
351
429
558
655
686
706
764
831
841
779
704
673
676
668
636
619
649
707
740
725
682
641
605
565
524
495
480
467
454
462
513
595
665
687
669
642
622
601
572
546
541
548
546
532
539
590
665
709
699
669
670
706
724
681
592
515
484
482
473
441
403
379
371
369
366
362
360
363
369
379
386
376
349
322
314
318
305
263
210
196
241
322
398
449
486
525
575
641
724
810
862
850
783
716
694
708
705
652
567
499
478
492
506
503
493
495
512
527
523
503
490
498
521
534
517
479
437
406
382
349
290
187
49
-85
-169
-206
-258
-381
-553
-698
-789
-886
-1060
-1281
-1429
-1419
-1292
-1156
-1039
-851
-494
20
566
1025
1364
1614
1798
1904
1908
1800
1582
1269
901
544
255
47
-109
-240
-332
-359
-322
-244
-152
-57
29
82
79
29
-28
-53
-45
-21
8
48
101
146
170
178
187
195
173
108
30
-12
6
63
112
132
139
162
204
244
251
214
152
89
48
37
49
59
49
17
-11
-3
41
90
111
116
133
169
190
173
142
141
167
161
76
-26
-34
88
250
314
240
125
82
134
210
229
171
73
-3
-16
26
77
90
54
0
-42
-71
-77
-52
-7
18
4
-19
15
104
175
177
134
105
95
76
44
22
30
32
-17
-104
-192
-264
-322
-327
-244
-134
-117
-215
-292
-195
27
152
43
-161
-236
-154
-63
-70
-87
31
255
376
302
164
165
313
395
240
-77
-306
-295
-122
17
28
-2
66
220
306
211
18
-63
55
254
346
287
231
301
433
466
345
186
112
93
15
-146
-248
-169
36
221
291
294
322
398
476
494
444
364
316
341
426
497
494
441
442
560
699
704
532
331
291
422
570
592
527
519
620
739
788
796
869
995
1059
968
795
684
662
605
426
218
137
204
284
257
161
146
269
429
496
437
338
298
310
317
279
222
185
191
220
239
266
345
471
579
582
496
446
525
697
807
768
673
698
896
1127
1214
1100
929
847
843
817
742
650
605
614
648
725
838
900
833
665
552
572
625
538
312
180
290
508
587
453
298
304
425
466
343
177
123
173
200
134
29
-55
-100
-167
-310
-493
-656
-755
-759
-675
-529
-321
-50
293
695
1106
1472
1764
1982
2128
2181
2110
1900
1577
1210
844
519
253
53
-92
-187
-226
-192
-77
87
231
287
264
238
260
321
343
258
92
-58
-106
-52
26
40
-26
-110
-142
-110
-61
-58
-116
-198
-254
-252
-195
-110
-45
-15
-8
0
17
25
-3
-63
-129
-180
-216
-250
-280
-291
-268
-215
-177
-179
-207
-213
-175
-121
-103
-138
-185
-197
-177
-169
-199
-237
-231
-178
-126
-120
-143
-143
-90
-24
-8
-57
-123
-155
-147
-139
-162
-211
-254
-266
-251
-231
-230
-254
-274
-252
-186
-133
-154
-244
-329
-340
-295
-275
-318
-377
-376
-318
-272
-274
-284
-243
-167
-146
-235
-381
-463
-416
-292
-192
-176
-213
-228
-179
-81
11
51
22
-57
-138
-172
-138
-71
-29
-32
-42
-19
24
40
18
7
45
106
121
80
51
88
157
164
73
-62
-154
-176
-161
-151
-164
-185
-182
-120
8
158
274
355
456
603
725
711
546
352
260
264
241
113
-45
-90
32
228
355
365
327
328
384
439
437
388
350
368
432
505
565
618
666
689
655
566
463
389
363
370
390
422
475
541
580
558
483
406
362
339
298
225
152
117
120
143
185
275
404
507
522
468
419
401
346
191
-9
-129
-111
-53
-101
-262
-393
-353
-166
5
26
-75
-152
-97
59
191
211
151
109
146
221
250
210
161
165
222
279
306
328
378
459
533
567
553
510
454
407
384
396
427
448
449
435
421
412
398
364
302
216
118
35
-15
-47
-99
-187
-275
-311
-293
-301
-429
-677
-929
-1048
-1000
-876
-782
-706
-526
-141
418
1004
1470
1772
1965
2115
2226
2233
2070
1732
1293
860
517
280
111
-28
-137
-182
-131
7
173
301
367
395
413
417
378
298
225
198
202
188
139
92
93
136
169
147
79
11
-17
-9
1
-16
-58
-97
-109
-99
-95
-118
-162
-197
-210
-217
-232
-247
-244
-222
-201
-198
-210
-221
-224
-220
-210
-202
-207
-234
-267
-280
-258
-226
-210
-209
-201
-170
-132
-106
-91
-68
-34
-15
-38
-95
-148
-166
-151
-135
-149
-195
-243
-262
-245
-211
-193
-209
-254
-295
-307
-285
-250
-234
-254
-292
-315
-306
-277
-263
-275
-298
-303
-282
-252
-232
-225
-217
-208
-215
-252
-316
-378
-415
-424
-426
-433
-433
-395
-303
-183
-84
-39
-42
-57
-68
-89
-139
-218
-308
-388
-438
-439
-384
-302
-243
-231
-227
-173
-59
55
111
116
127
173
221
218
158
91
53
38
3
-72
-145
-132
29
312
611
805
850
797
711
620
486
262
-33
-300
-413
-341
-180
-62
24
194
505
821
941
836
756
999
1562
2129
2361
2212
1921
1735
1712
1726
1622
1328
868
335
-135
-446
-608
-743
-991
-1395
-1863
-2213
-2282
-2029
-1570
-1121
-831
-662
-434
-33
449
749
699
376
24
-178
-233
-266
-354
-426
-384
-228
-53
63
146
241
349
428
477
551
692
841
886
806
692
642
657
666
630
596
591
570
482
379
376
506
649
659
554
491
566
692
713
592
458
440
520
596
619
646
728
817
818
718
595
519
476
401
273
142
48
-17
-70
-111
-154
-231
-370
-524
-608
-604
-620
-778
-1037
-1210
-1131
-846
-562
-399
-275
-11
440
919
1232
1347
1385
1456
1527
1492
1307
1029
738
461
196
-33
-175
-226
-232
-228
-194
-100
36
152
197
181
129
43
-85
-225
-317
-332
-304
-271
-230
-150
-48
15
-8
-82
-124
-105
-74
-86
-126
-131
-66
49
192
366
561
716
757
686
600
587
613
550
314
-39
-364
-549
-600
-598
-605
-620
-597
-507
-376
-257
-183
-148
-131
-126
-148
-193
-225
-206
-130
-48
-10
-25
-60
-68
-41
-4
18
17
1
-1
15
19
-30
-133
-221
-215
-126
-74
-151
-297
-330
-142
170
403
465
453
507
621
646
473
153
-153
-332
-392
-393
-376
-340
-273
-171
-52
34
40
-32
-138
-233
-321
-455
-640
-795
-828
-736
-597
-482
-404
-325
-233
-147
-85
-54
-50
-79
-145
-209
-198
-80
79
152
87
-15
1
163
322
313
148
0
1
103
160
114
68
133
302
458
520
499
459
452
509
625
731
713
524
255
76
55
85
15
-180
-366
-415
-331
-216
-146
-103
-53
-12
-32
-118
-195
-164
4
229
393
449
463
545
713
865
872
728
555
496
557
623
603
534
516
566
594
532
428
382
416
444
416
415
567
859
1113
1148
948
658
405
185
-92
-456
-821
-1063
-1124
-1050
-927
-801
-661
-478
-269
-84
38
121
220
356
487
557
571
596
676
766
781
708
636
655
751
808
744
619
588
716
908
1005
957
859
824
862
882
821
719
646
607
537
398
247
192
280
455
604
654
610
523
419
285
104
-103
-285
-395
-411
-336
-197
-45
57
90
107
183
322
455
513
527
603
813
1133
1479
1781
2019
2182
2265
2276
2230
2106
1868
1510
1104
740
463
252
75
-70
-165
-205
-188
-107
27
163
234
225
200
226
292
321
252
107
-30
-105
-130
-162
-238
-350
-454
-500
-465
-371
-267
-188
-144
-121
-103
-92
-90
-93
-95
-89
-66
-19
59
151
236
309
377
432
452
426
379
344
319
279
221
186
216
283
316
287
244
250
293
298
222
111
44
44
59
39
-9
-39
-40
-43
-68
-92
-84
-56
-56
-113
-185
-213
-210
-240
-343
-461
-497
-436
-369
-387
-467
-487
-385
-233
-159
-209
-315
-380
-382
-363
-360
-366
-362
-356
-368
-388
-376
-312
-231
-194
-225
-292
-333
-314
-256
-207
-216
-280
-350
-366
-313
-240
-212
-257
-338
-390
-360
-250
-138
-106
-164
-222
-171
-9
154
202
147
107
176
329
461
502
484
471
487
509
515
497
463
414
369
364
425
545
697
882
1146
1525
1998
2473
2818
2876
2548
1893
1146
567
219
-51
-425
-889
-1193
-1087
-577
92
604
782
662
415
246
222
261
216
9
-266
-404
-281
79
572
1103
1589
1954
2116
2066
1870
1630
1384
1082
635
35
-572
-978
-1066
-914
-710
-581
-467
-269
-33
74
-6
-169
-256
-241
-238
-304
-366
-303
-124
19
38
-18
-65
-87
-128
-192
-194
-59
132
245
217
117
49
56
92
103
83
68
115
244
398
476
436
330
266
258
204
31
-152
-159
41
258
288
162
90
185
325
317
138
-49
-117
-121
-165
-242
-257
-164
-61
-74
-196
-293
-291
-257
-331
-532
-707
-707
-590
-572
-796
-1141
-1316
-1189
-924
-792
-860
-890
-599
53
842
1533
2056
2466
2791
2978
2965
2773
2442
1954
1307
576
-55
-459
-642
-700
-686
-579
-368
-120
71
180
241
268
229
107
-30
-85
-33
51
96
131
230
402
560
604
519
367
221
118
52
-9
-114
-256
-378
-409
-355
-301
-313
-355
-341
-257
-180
-164
-159
-96
5
50
5
-44
-15
52
61
-10
-77
-77
-43
-27
-17
32
110
144
126
129
209
284
228
49
-98
-73
71
148
56
-102
-158
-55
79
88
-45
-182
-182
-46
94
124
61
-20
-61
-71
-75
-56
-25
-38
-138
-264
-275
-101
156
312
262
77
-98
-186
-219
-289
-449
-671
-853
-894
-789
-639
-540
-498
-444
-343
-261
-273
-341
-358
-276
-170
-140
-189
-229
-199
-128
-70
-49
-52
-55
-44
10
111
211
252
224
178
138
79
-20
-134
-212
-247
-269
-271
-206
-63
89
159
154
163
240
336
375
338
292
293
319
326
302
279
286
320
364
401
424
423
419
436
484
538
549
503
429
379
371
385
396
402
417
445
468
468
451
448
476
516
530
500
454
439
473
522
531
481
407
364
368
380
351
281
222
223
270
301
278
232
223
272
330
349
340
362
427
469
409
271
177
208
311
347
256
138
135
275
451
541
528
482
469
486
511
542
596
662
684
643
595
630
759
878
863
713
560
544
664
787
806
736
681
709
791
857
859
788
660
512
410
398
440
446
361
242
203
288
402
412
301
181
154
170
104
-75
-253
-322
-342
-482
-801
-1112
-1181
-999
-798
-769
-824
-696
-242
413
1012
1400
1582
1629
1584
1474
1341
1200
1013
746
446
241
220
342
480
535
516
487
480
480
466
451
460
494
515
474
393
344
377
454
461
330
133
18
67
208
294
267
204
200
238
211
58
-160
-325
-384
-381
-374
-360
-298
-172
-11
156
303
416
485
510
505
495
488
480
458
418
363
321
332
402
487
511
441
326
253
269
358
472
554
575
543
502
497
533
542
455
295
158
125
178
243
281
323
434
620
813
943
986
979
981
997
971
849
657
505
476
535
568
519
445
422
444
440
374
288
224
160
65
-26
-46
0
29
-3
-42
2
112
167
113
42
77
201
276
226
134
130
201
219
106
-45
-87
-3
82
60
-32
-63
14
111
118
31
-56
-64
-13
22
10
-7
17
62
55
-32
-145
-188
-126
-21
42
51
70
143
237
287
296
326
394
428
352
210
140
223
382
452
360
202
126
179
270
280
183
61
26
109
247
330
299
202
138
163
234
265
214
126
78
96
131
125
75
25
3
-16
-76
-162
-204
-151
-48
-16
-118
-270
-327
-249
-148
-156
-272
-363
-325
-191
-83
-77
-144
-206
-226
-221
-213
-213
-218
-234
-250
-227
-134
1
103
107
38
-11
26
117
162
115
37
28
112
209
231
175
110
95
124
162
188
205
216
230
277
377
491
541
488
387
328
339
359
310
187
62
11
40
88
71
-34
-171
-239
-197
-114
-102
-189
-288
-305
-258
-256
-373
-568
-725
-761
-690
-577
-472
-352
-139
225
711
1185
1512
1677
1774
1879
1945
1850
1554
1166
837
622
455
264
70
-40
-11
120
261
349
388
423
480
541
558
509
417
326
267
233
207
191
202
242
290
324
338
338
330
314
289
256
223
197
180
169
158
152
157
179
211
235
226
172
90
13
-33
-59
-96
-159
-224
-258
-254
-239
-247
-286
-332
-357
-345
-296
-234
-198
-222
-290
-333
-298
-220
-200
-311
-501
-641
-648
-563
-500
-513
-554
-547
-476
-392
-342
-326
-322
-322
-344
-394
-446
-473
-474
-473
-484
-493
-478
-446
-421
-418
-426
-429
-430
-442
-467
-488
-493
-484
-470
-451
-417
-371
-334
-316
-310
-307
-313
-338
-365
-368
-342
-318
-326
-352
-349
-295
-223
-187
-205
-231
-215
-154
-88
-56
-53
-50
-30
-1
20
39
76
129
166
166
152
173
249
342
385
358
319
321
356
371
367
413
547
696
748
728
821
1190
1767
2307
2630
2760
2783
2658
2246
1527
701
-10
-577
-1124
-1678
-2045
-2009
-1590
-1047
-631
-385
-203
-2
182
275
266
211
162
141
160
226
320
404
441
423
367
294
212
145
133
198
319
449
553
624
642
569
392
179
31
-23
-54
-132
-218
-208
-78
76
183
294
492
725
812
652
375
206
203
204
68
-119
-155
34
303
475
533
591
705
815
858
867
912
1001
1081
1129
1178
1239
1263
1193
1051
897
754
601
440
333
323
362
387
429
575
821
1025
1042
888
735
717
796
833
753
590
399
198
-15
-208
-337
-398
-442
-506
-555
-507
-330
-91
79
96
-22
-176
-270
-281
-254
-225
-165
3
324
774
1274
1737
2120
2414
2607
2663
2546
2265
1892
1520
1208
949
713
501
343
259
232
228
231
249
290
324
302
210
94
24
33
77
85
43
18
70
165
195
100
-41
-92
-11
116
184
182
183
237
310
335
288
201
114
49
21
41
91
122
105
67
62
99
125
87
-6
-100
-149
-159
-156
-147
-118
-65
-3
48
85
127
193
280
356
392
385
360
332
298
238
148
52
-25
-75
-95
-79
-22
55
111
116
79
32
-4
-28
-46
-62
-79
-96
-107
-93
-45
11
26
-20
-92
-136
-146
-170
-250
-377
-495
-571
-620
-673
-729
-762
-755
-715
-646
-535
-391
-257
-177
-145
-105
-35
18
-7
-112
-223
-268
-249
-220
-218
-227
-207
-152
-91
-55
-53
-73
-98
-107
-99
-93
-110
-143
-149
-90
22
130
183
183
164
157
164
170
164
145
113
92
102
146
196
216
208
202
209
204
158
96
78
121
186
223
241
286
367
435
438
407
413
468
501
445
331
265
308
404
446
402
332
313
347
376
368
346
336
325
285
232
228
293
356
330
217
126
129
185
210
178
137
129
150
174
203
267
338
353
292
217
198
238
284
283
244
206
188
186
200
238
313
419
528
612
655
667
683
732
788
802
732
615
519
497
541
604
662
691
687
662
678
745
769
683
538
481
556
621
523
325
287
530
840
903
665
401
370
487
475
211
-127
-302
-296
-267
-337
-463
-558
-608
-667
-727
-724
-636
-509
-404
-295
-102
225
647
1092
1508
1846
2076
2167
2124
2019
1899
1734
1428
947
418
32
-124
-142
-180
-274
-339
-285
-131
44
195
306
361
325
199
56
-5
27
79
94
94
116
143
113
23
-39
0
92
107
8
-84
-22
169
324
336
277
296
418
511
470
347
278
317
387
394
345
321
356
430
487
506
499
473
421
363
333
332
322
263
173
110
99
92
32
-66
-116
-86
-65
-145
-294
-362
-268
-117
-83
-199
-311
-270
-115
-18
-72
-218
-329
-349
-313
-254
-200
-184
-209
-240
-204
-98
-12
-27
-116
-177
-159
-111
-100
-113
-87
-14
50
64
60
91
129
111
22
-75
-114
-100
-83
-87
-88
-58
-12
36
94
165
224
241
218
183
167
167
181
196
192
150
95
96
172
264
290
268
295
417
547
573
503
462
519
605
600
493
389
377
437
491
502
490
478
477
490
520
553
550
494
428
411
443
473
455
412
401
441
488
484
430
384
397
446
478
473
463
472
483
469
442
431
429
390
298
217
217
278
303
240
148
114
135
116
-2
-159
-247
-243
-227
-264
-319
-301
-171
-4
98
95
41
15
41
65
43
-15
-46
0
98
189
247
304
397
505
570
564
519
480
449
403
354
354
434
560
662
711
737
791
868
923
918
875
836
813
793
773
780
840
928
974
938
850
772
732
692
612
502
405
343
285
198
107
52
40
29
-3
-46
-88
-130
-167
-164
-109
-84
-219
-536
-865
-993
-883
-714
-644
-613
-422
40
658
1219
1609
1866
2072
2230
2276
2165
1897
1525
1137
816
583
382
144
-115
-280
-258
-88
84
148
126
115
173
274
341
319
217
91
-8
-57
-75
-95
-138
-180
-173
-101
-9
38
18
-6
43
166
252
189
4
-143
-133
-21
25
-74
-209
-211
-44
157
253
243
219
237
254
209
114
24
-32
-64
-77
-54
3
52
47
5
-19
-8
-12
-93
-241
-364
-377
-294
-212
-219
-303
-362
-313
-189
-109
-155
-280
-354
-306
-198
-144
-177
-231
-231
-192
-183
-231
-300
-351
-395
-457
-513
-511
-460
-439
-500
-599
-628
-546
-431
-388
-428
-473
-457
-393
-350
-364
-404
-425
-411
-380
-359
-359
-368
-372
-354
-313
-266
-246
-253
-250
-189
-61
83
181
217
224
239
258
260
250
247
253
258
247
226
214
215
220
220
203
157
93
50
67
137
195
184
124
88
110
140
119
50
0
25
102
176
227
281
354
422
454
457
457
464
463
441
422
436
480
524
536
517
491
478
482
489
486
469
447
439
463
514
558
554
514
495
546
649
739
773
770
781
806
796
715
588
471
378
275
151
47
20
77
159
203
206
206
237
294
338
336
284
213
176
203
277
337
340
304
296
361
466
540
543
515
523
582
650
672
654
653
710
794
835
801
733
700
718
734
691
604
546
554
593
593
532
463
446
474
502
503
485
444
352
210
89
62
107
108
-8
-181
-296
-329
-357
-463
-627
-776
-888
-994
-1101
-1143
-1059
-868
-645
-435
-208
88
461
864
1235
1535
1744
1851
1865
1805
1682
1488
1195
813
405
74
-138
-274
-396
-503
-516
-374
-138
51
104
79
119
278
460
507
373
171
55
74
141
128
-3
-182
-304
-320
-258
-178
-142
-179
-263
-311
-253
-109
-4
-34
-150
-209
-137
-11
38
-19
-88
-89
-48
-35
-70
-113
-145
-161
-146
-81
-8
-18
-155
-301
-291
-107
84
111
7
-64
-15
55
15
-137
-279
-333
-344
-375
-408
-372
-251
-109
-8
61
136
215
254
237
198
171
141
82
6
-44
-58
-64
-96
-135
-160
-171
-192
-223
-226
-190
-156
-169
-207
-209
-168
-149
-195
-250
-224
-118
-46
-88
-169
-147
-9
96
38
-117
-189
-111
-16
-58
-211
-301
-229
-103
-84
-183
-258
-195
-60
-5
-77
-177
-181
-92
-13
-16
-69
-88
-39
41
90
78
21
-34
-53
-38
-14
-15
-39
-50
-23
32
88
139
200
269
315
310
275
257
271
277
227
130
49
39
83
114
87
23
-23
-20
21
79
136
192
244
281
302
311
313
307
279
214
117
9
-84
-139
-152
-128
-98
-101
-148
-204
-214
-163
-116
-152
-265
-352
-318
-188
-76
-46
-54
-14
80
157
166
132
116
140
182
219
252
277
279
277
319
429
555
617
618
636
710
793
809
759
709
692
668
613
574
600
643
597
448
327
379
578
742
731
597
512
574
716
807
793
732
710
743
777
762
693
596
484
361
232
116
18
-79
-179
-266
-325
-367
-426
-512
-569
-539
-425
-291
-184
-64
150
489
890
1260
1557
1788
1973
2100
2141
2069
1879
1587
1240
904
635
436
275
133
40
36
96
152
169
198
303
457
536
465
308
207
215
254
237
183
179
249
326
352
358
403
471
482
414
334
315
337
324
255
193
197
232
230
204
246
398
575
644
587
502
490
528
513
390
221
121
139
227
294
291
248
238
305
427
525
538
470
382
332
332
345
335
293
245
224
249
296
309
255
175
152
220
315
330
242
135
110
168
219
188
100
37
48
108
148
125
45
-53
-124
-147
-136
-124
-137
-170
-198
-203
-199
-210
-240
-271
-287
-293
-305
-316
-296
-232
-153
-108
-111
-126
-101
-32
35
57
47
62
138
244
316
323
292
271
272
272
254
227
207
199
197
200
208
214
197
170
175
250
380
503
571
582
565
531
457
316
122
-72
-216
-288
-304
-289
-262
-209
-110
24
141
186
170
169
238
324
320
197
71
84
241
386
380
254
170
231
372
452
421
350
330
365
385
346
265
191
144
111
74
33
-5
-31
-39
-46
-83
-158
-223
-215
-128
-37
-16
-58
-77
-8
108
177
155
94
87
162
259
302
274
225
210
233
258
254
244
267
332
407
466
528
616
712
749
697
613
578
607
628
582
509
497
560
626
624
570
526
514
508
495
497
526
546
531
526
600
730
786
682
484
349
338
332
189
-73
-291
-355
-331
-358
-460
-545
-558
-570
-706
-979
-1240
-1315
-1186
-996
-871
-782
-562
-97
541
1141
1551
1806
2033
2285
2452
2404
2140
1781
1451
1164
860
533
242
51
-29
-35
-3
26
18
-26
-49
16
140
212
139
9
-5
144
306
323
227
190
305
436
390
163
-28
-4
186
331
292
150
75
143
289
384
360
237
80
-38
-82
-67
-29
-16
-41
-85
-114
-113
-84
-47
-25
-30
-63
-99
-94
-37
47
106
104
48
-15
-62
-121
-229
-361
-440
-407
-294
-211
-234
-324
-358
-266
-114
-52
-158
-352
-455
-375
-207
-123
-194
-308
-318
-213
-152
-245
-419
-487
-377
-214
-174
-266
-337
-256
-55
86
49
-120
-273
-310
-251
-200
-225
-312
-397
-437
-441
-449
-477
-502
-487
-426
-349
-297
-296
-320
-320
-278
-236
-239
-298
-360
-367
-297
-180
-59
20
35
-6
-55
-62
-34
-34
-91
-175
-217
-182
-118
-71
-28
27
93
149
187
215
228
194
144
147
231
330
348
277
201
203
271
329
354
366
371
349
288
237
265
359
421
363
217
107
124
213
244
174
75
65
158
249
268
250
271
336
360
284
162
99
118
131
53
-89
-186
-180
-112
-63
-61
-74
-43
49
155
205
163
65
14
66
171
220
183
152
215
345
424
415
407
494
632
685
598
471
445
537
650
694
665
612
579
562
559
560
528
430
299
207
205
253
271
217
129
74
88
131
136
68
-7
6
132
263
240
38
-187
-257
-173
-116
-246
-511
-722
-764
-721
-756
-906
-1048
-1041
-904
-774
-737
-704
-505
-88
418
841
1132
1373
1648
1912
2053
2007
1803
1518
1181
807
427
111
-96
-215
-290
-338
-331
-239
-77
96
225
288
299
287
275
254
213
156
109
95
99
85
36
-10
-5
46
93
97
66
48
77
133
173
162
82
-40
-135
-133
-35
66
47
-105
-256
-237
-38
159
158
-20
-159
-82
143
283
215
65
42
185
334
338
233
165
202
267
269
216
165
123
56
-24
-42
30
102
74
-34
-95
-25
112
177
119
5
-76
-94
-86
-85
-90
-85
-56
-9
26
20
-14
-37
-26
-23
-94
-235
-356
-361
-258
-153
-126
-160
-179
-141
-68
-18
-30
-99
-183
-240
-264
-275
-291
-277
-197
-106
-128
-325
-597
-766
-777
-763
-857
-999
-983
-713
-336
-63
68
194
418
668
803
804
787
837
913
940
926
945
1008
1033
964
861
823
848
822
667
445
286
240
235
201
165
189
269
321
307
301
401
589
734
739
638
535
470
394
264
130
86
148
232
262
256
288
379
459
454
374
302
286
286
229
113
13
0
51
73
10
-100
-157
-116
-30
6
-48
-133
-161
-103
-12
37
22
-22
-48
-51
-49
-64
-98
-127
-123
-64
40
151
239
306
370
431
476
507
549
605
616
500
258
-6
-183
-256
-278
-276
-204
-27
215
439
616
781
957
1090
1115
1049
982
976
1005
1009
986
992
1051
1112
1104
1020
912
817
717
595
462
348
267
206
151
102
48
-37
-171
-324
-432
-448
-357
-168
109
451
832
1225
1629
2029
2373
2571
2576
2435
2228
1973
1609
1115
602
255
157
235
348
448
593
818
1044
1137
1045
830
591
384
211
56
-75
-167
-189
-102
86
284
366
298
186
155
192
174
47
-66
-6
199
344
293
140
81
166
237
137
-89
-245
-215
-79
12
18
15
56
98
90
61
71
110
113
65
43
109
208
234
181
137
152
153
56
-81
-106
24
167
169
50
-22
38
127
93
-69
-218
-247
-205
-212
-299
-376
-355
-267
-209
-232
-285
-289
-234
-176
-178
-232
-277
-272
-237
-228
-271
-344
-402
-418
-408
-406
-418
-421
-377
-280
-190
-172
-226
-268
-230
-144
-111
-168
-231
-204
-106
-64
-146
-257
-251
-133
-58
-124
-238
-228
-74
61
54
-28
-29
69
118
20
-110
-77
140
346
379
302
316
485
649
624
425
227
157
169
141
42
-29
24
174
308
342
301
265
277
308
304
240
147
85
86
135
205
282
362
427
454
439
411
403
407
381
291
168
95
127
236
329
339
297
285
339
400
379
251
85
-38
-94
-110
-97
-50
19
80
99
82
57
29
-11
-63
-108
-134
-142
-132
-96
-31
49
126
200
280
366
435
486
550
651
773
871
917
924
909
868
793
707
653
642
643
621
597
642
798
1020
1198
1257
1222
1185
1195
1213
1164
1039
911
841
799
702
510
267
36
-166
-363
-565
-758
-914
-1010
-1039
-1011
-962
-941
-958
-965
-910
-794
-666
-562
-454
-269
32
415
817
1190
1504
1740
1875
1894
1797
1596
1308
966
624
337
116
-68
-237
-351
-344
-214
-65
-2
-11
17
146
302
347
261
177
228
379
476
432
321
276
315
336
270
169
131
177
237
257
279
374
511
562
443
239
122
158
231
179
-9
-177
-178
-36
98
115
48
19
87
198
265
267
254
270
299
293
238
178
158
171
164
106
27
-9
23
88
139
155
153
165
196
225
224
180
106
25
-52
-124
-183
-203
-161
-79
-12
11
12
37
84
93
23
-85
-146
-136
-124
-175
-256
-275
-198
-95
-58
-92
-131
-133
-130
-174
-253
-307
-308
-288
-292
-309
-292
-222
-128
-61
-35
-27
-12
22
63
88
76
34
-4
-3
34
75
93
98
119
170
237
300
358
422
495
559
596
595
561
507
452
408
373
350
350
392
471
558
619
646
661
681
694
668
599
526
480
462
448
437
449
484
497
460
405
403
476
559
571
498
407
364
377
404
408
369
284
177
93
79
122
156
131
64
30
62
118
135
119
143
241
352
381
316
256
293
397
448
375
238
158
177
234
271
305
390
509
576
543
477
471
515
491
329
102
-35
-10
101
177
187
220
347
541
697
743
721
738
858
1015
1074
967
785
708
829
1030
1091
902
591
390
416
562
630
536
365
261
290
394
467
432
288
110
-12
-46
-61
-159
-340
-481
-457
-269
-48
107
237
451
786
1165
1500
1774
2004
2169
2224
2170
2067
1932
1721
1389
996
656
423
252
99
-1
20
142
272
342
376
427
484
497
444
358
266
156
18
-98
-125
-74
-28
-47
-92
-89
-9
110
222
321
402
442
420
354
295
256
210
131
44
-8
-17
-8
2
21
46
43
-14
-99
-142
-116
-65
-55
-98
-140
-135
-95
-69
-86
-121
-135
-121
-98
-87
-94
-107
-116
-119
-127
-160
-229
-329
-442
-541
-614
-659
-679
-669
-631
-593
-586
-608
-622
-600
-559
-540
-559
-575
-551
-500
-481
-522
-586
-616
-610
-617
-668
-729
-736
-672
-582
-512
-469
-432
-391
-353
-328
-320
-327
-351
-383
-403
-404
-399
-407
-415
-396
-354
-328
-346
-378
-370
-305
-223
-171
-148
-108
-24
83
158
168
140
129
172
253
303
280
226
226
315
414
416
326
261
309
404
402
262
108
92
211
327
329
248
203
259
368
443
448
407
361
345
368
410
440
428
388
379
431
514
555
515
446
429
481
525
476
334
199
152
174
172
90
-27
-78
-39
22
40
41
80
141
152
86
37
122
297
370
238
12
-85
44
257
363
323
256
282
384
461
467
435
405
376
319
250
228
286
390
479
543
598
655
672
620
551
566
663
720
622
421
330
494
801
985
919
721
614
700
852
894
784
619
524
528
578
611
578
497
441
480
630
785
793
599
305
74
-57
-192
-438
-776
-1069
-1204
-1174
-1045
-883
-722
-553
-306
104
631
1104
1389
1549
1780
2148
2486
2590
2472
2293
2126
1863
1427
940
579
324
23
-336
-545
-452
-191
-43
-64
-45
176
484
623
540
412
404
466
456
335
194
134
140
154
174
232
333
434
468
425
365
400
565
748
760
535
249
167
366
620
661
479
314
343
500
595
555
445
342
242
157
168
324
505
521
367
257
390
672
849
771
568
463
524
611
604
522
462
464
460
395
288
188
136
123
110
85
46
-2
-33
-22
32
93
120
93
46
39
119
267
391
413
341
251
220
245
256
210
133
71
26
-34
-93
-96
-27
68
109
91
88
142
214
221
149
88
122
226
305
287
215
198
287
414
471
407
302
255
294
353
367
328
278
255
266
332
437
540
566
495
407
410
509
594
566
455
399
468
591
635
556
442
419
520
656
711
641
515
441
471
550
577
531
471
478
557
638
656
622
593
593
598
574
518
458
407
373
351
333
304
255
209
208
257
308
303
233
150
115
130
148
134
87
44
36
66
108
125
100
54
36
70
113
110
57
14
42
124
199
221
222
248
304
362
393
426
517
674
830
896
847
758
726
755
736
573
313
121
103
205
285
286
278
346
468
547
540
499
490
502
468
372
289
295
376
427
357
184
24
-25
6
0
-124
-312
-428
-425
-411
-533
-785
-999
-1025
-893
-758
-705
-639
-406
18
517
950
1279
1548
1789
1965
2011
1907
1679
1375
1040
717
438
218
48
-80
-156
-158
-89
17
111
162
160
115
51
0
-11
5
-1
-59
-126
-106
36
216
278
160
-35
-144
-111
-33
-36
-135
-230
-235
-188
-189
-287
-422
-482
-420
-299
-222
-234
-264
-206
-40
138
198
102
-51
-134
-126
-108
-166
-282
-362
-352
-281
-214
-178
-159
-142
-131
-130
-118
-84
-55
-77
-158
-232
-215
-102
15
29
-54
-112
-34
169
360
416
337
221
153
133
124
125
168
263
356
363
255
79
-98
-255
-445
-715
-1031
-1291
-1410
-1401
-1333
-1247
-1131
-976
-833
-764
-759
-751
-710
-696
-760
-840
-814
-653
-484
-422
-429
-373
-218
-86
-105
-241
-344
-327
-255
-238
-277
-285
-211
-112
-74
-89
-76
13
132
210
243
307
453
641
786
862
924
1004
1031
905
628
328
130
29
-61
-163
-194
-80
135
337
475
605
778
942
992
890
706
545
449
396
362
349
369
427
516
622
717
768
757
695
611
533
469
413
352
275
191
119
87
105
147
174
165
133
116
136
175
189
167
154
192
265
295
241
159
143
197
230
166
41
-41
-28
25
42
16
-9
-5
26
84
180
306
407
432
396
364
383
428
451
439
434
472
534
578
581
567
570
575
535
431
314
260
273
286
245
187
188
256
312
282
203
167
185
177
73
-76
-169
-188
-214
-305
-407
-454
-485
-603
-806
-963
-953
-811
-677
-603
-505
-294
13
345
686
1051
1403
1660
1767
1759
1700
1600
1425
1167
851
486
110
-180
-305
-298
-304
-384
-422
-265
45
266
257
142
144
292
385
262
21
-116
-67
55
108
67
10
0
43
124
222
293
271
160
46
22
95
188
208
130
17
-41
-1
105
177
134
-13
-156
-183
-88
29
65
19
-20
7
72
100
55
-32
-111
-159
-190
-216
-239
-255
-259
-233
-167
-81
-27
-45
-122
-216
-293
-348
-379
-382
-357
-341
-367
-413
-408
-317
-195
-135
-179
-285
-367
-388
-372
-376
-435
-538
-632
-649
-568
-441
-353
-324
-293
-193
-41
73
81
1
-96
-192
-309
-467
-629
-736
-773
-756
-699
-595
-429
-219
-14
147
251
301
298
242
154
63
-12
-66
-91
-56
66
279
549
829
1079
1257
1328
1281
1148
976
774
513
190
-123
-310
-314
-189
-46
43
88
140
214
285
312
293
271
271
279
258
205
179
233
332
368
278
116
-5
-38
-37
-57
-74
-37
44
105
131
189
340
524
597
485
270
102
44
32
-26
-149
-269
-312
-270
-183
-97
-38
-15
-22
-49
-87
-137
-207
-285
-337
-333
-292
-249
-223
-182
-101
1
72
84
61
50
70
110
163
229
301
354
384
425
517
653
776
824
789
708
636
584
546
504
453
393
344
325
350
408
473
526
560
582
597
606
615
637
669
701
711
699
675
656
647
639
627
595
533
447
375
341
304
192
-3
-198
-306
-357
-480
-735
-1008
-1106
-975
-748
-579
-463
-257
136
659
1175
1605
1954
2236
2421
2471
2403
2255
2046
1754
1375
964
604
359
232
182
170
179
211
283
386
487
555
584
581
547
478
382
290
222
171
117
71
71
131
209
252
263
296
377
463
486
443
395
391
416
422
409
429
510
602
625
557
460
396
364
299
171
26
-74
-100
-76
-45
-32
-35
-50
-73
-111
-182
-284
-386
-437
-420
-389
-414
-480
-493
-393
-232
-130
-126
-147
-103
-5
53
27
-15
34
182
336
406
410
427
492
538
487
358
246
214
224
183
73
-15
11
127
206
146
-5
-121
-138
-107
-116
-184
-235
-201
-99
-8
17
-4
-22
-22
-34
-95
-205
-326
-416
-454
-442
-389
-307
-209
-112
-31
34
91
148
182
165
94
4
-49
-37
15
55
56
36
32
54
87
132
194
266
315
317
302
325
406
507
568
573
546
505
440
356
287
263
257
214
135
102
182
340
454
457
407
422
541
688
769
760
709
665
641
626
609
586
538
455
348
258
222
234
232
147
-28
-212
-294
-252
-170
-162
-241
-305
-250
-90
60
117
107
113
146
142
55
-72
-158
-175
-170
-182
-188
-138
-32
53
50
-25
-89
-65
43
146
146
42
-53
-8
195
417
497
401
248
178
220
283
273
177
50
-37
-52
-17
20
0
-104
-244
-338
-345
-311
-307
-335
-339
-279
-194
-149
-159
-183
-187
-179
-208
-293
-410
-527
-629
-693
-689
-607
-485
-384
-303
-162
122
540
970
1293
1511
1704
1920
2111
2170
2056
1815
1495
1124
743
431
249
152
50
-76
-124
-6
212
368
384
356
406
505
515
393
253
223
279
301
242
183
203
259
245
128
-11
-61
-14
41
21
-74
-152
-120
15
131
128
44
18
117
237
234
120
55
145
280
262
77
-85
-79
21
26
-114
-240
-208
-66
17
-22
-58
18
157
198
91
-35
-48
42
88
-11
-181
-272
-239
-174
-190
-292
-371
-340
-227
-131
-105
-137
-169
-169
-111
-9
80
64
-81
-253
-307
-193
-60
-109
-357
-592
-577
-341
-131
-159
-361
-481
-368
-135
-28
-129
-298
-358
-281
-202
-236
-336
-372
-280
-115
13
45
-6
-73
-106
-89
-62
-42
-22
9
48
76
116
197
322
422
74
175
231
220
198
192
193
181
184
247
356
415
347
203
115
171
331
461
482
442
453
566
711
777
707
564
440
382
378
396
410
429
471
531
568
562
528
493
471
438
347
199
63
21
96
211
267
230
180
219
359
502
534
434
290
220
258
332
351
307
264
307
427
526
537
499
471
472
445
348
230
189
242
316
329
296
317
460
658
791
797
742
727
809
936
1031
1070
1054
1007
957
957
1049
1171
1181
1021
824
797
980
1166
1128
905
765
854
1053
1122
995
819
716
655
526
313
149
127
199
224
125
-43
-152
-144
-91
-181
-511
-951
-1245
-1203
-904
-576
-343
-101
335
1000
1715
2255
2540
2663
2727
2740
2639
2375
1997
1599
1243
938
673
439
247
95
7
-16
42
168
317
425
470
491
542
626
691
673
565
444
412
484
561
542
438
361
381
448
462
401
330
321
360
384
377
370
380
388
374
336
296
250
217
233
321
413
404
264
111
79
165
221
125
-84
-251
-282
-205
-118
-68
-37
-6
19
38
74
128
156
118
41
-9
-3
10
-30
-104
-149
-146
-138
-167
-207
-201
-141
-70
-22
6
15
-17
-115
-257
-388
-482
-552
-602
-608
-566
-515
-493
-479
-418
-316
-257
-313
-446
-541
-526
-442
-378
-373
-385
-362
-304
-241
-193
-153
-124
-129
-181
-261
-319
-308
-240
-173
-160
-203
-246
-236
-178
-116
-92
-95
-91
-70
-49
-30
14
105
211
252
197
107
83
146
215
191
77
-15
7
121
216
218
165
146
191
245
240
168
69
2
4
86
224
360
429
425
411
454
534
550
446
287
200
234
315
340
309
304
378
486
540
513
455
419
404
372
303
228
193
206
237
254
254
258
284
317
316
274
226
211
223
202
121
21
-44
-81
-145
-245
-308
-253
-101
49
132
188
287
429
546
598
611
620
607
538
435
370
385
440
471
467
462
489
539
576
589
591
591
578
523
395
204
9
-110
-116
-68
-65
-118
-126
5
224
373
345
189
52
22
38
-18
-183
-346
-354
-181
15
10
-264
-631
-835
-811
-735
-807
-988
-1020
-700
-92
554
1042
1365
1629
1906
2173
2329
2269
1957
1502
1090
848
717
517
166
-200
-349
-231
-30
46
-9
-11
168
444
622
628
566
566
606
553
355
127
30
80
146
97
-43
-136
-109
-4
71
60
-15
-95
-141
-153
-156
-166
-185
-201
-192
-170
-159
-157
-141
-97
-46
-27
-34
-15
68
177
243
244
224
234
252
208
81
-60
-115
-64
26
66
43
24
61
164
290
381
406
376
342
346
388
430
448
450
477
521
538
504
469
499
596
673
663
612
617
686
717
611
395
190
73
10
-66
-161
-217
-207
-155
-104
-53
19
92
135
149
159
177
175
125
56
19
23
22
-32
-116
-160
-125
-44
15
28
26
50
104
157
185
187
174
148
105
55
27
30
35
3
-57
-97
-91
-61
-50
-45
-5
98
227
322
346
320
289
290
325
350
309
194
72
36
104
197
220
168
132
184
299
397
429
402
336
243
143
76
65
69
20
-82
-172
-201
-190
-198
-242
-272
-266
-271
-357
-505
-614
-600
-487
-388
-386
-462
-523
-490
-377
-269
-247
-320
-415
-444
-381
-280
-227
-254
-316
-339
-293
-205
-129
-105
-118
-111
-45
60
149
178
178
216
300
350
286
136
23
34
132
206
201
174
201
293
392
433
404
330
244
175
134
113
93
65
41
47
82
114
120
105
98
96
71
-4
-109
-197
-240
-261
-317
-443
-622
-803
-939
-1020
-1050
-1031
-964
-855
-713
-511
-207
201
643
1012
1271
1474
1682
1863
1916
1785
1534
1282
1072
858
592
323
155
136
206
262
277
287
316
331
300
255
251
279
268
176
68
52
157
315
432
465
430
368
321
322
377
440
449
395
335
337
419
542
657
730
733
649
497
335
205
94
-35
-189
-322
-394
-405
-371
-305
-218
-144
-115
-117
-115
-107
-137
-230
-347
-416
-413
-384
-376
-376
-348
-296
-259
-257
-262
-243
-217
-236
-307
-369
-369
-322
-304
-354
-428
-456
-416
-355
-322
-316
-307
-292
-292
-322
-353
-342
-290
-243
-240
-277
-312
-313
-287
-262
-256
-264
-271
-266
-248
-224
-208
-200
-188
-165
-137
-119
-121
-130
-125
-99
-65
-42
-48
-77
-96
-69
3
73
93
67
48
81
153
217
253
283
337
397
426
418
412
440
491
523
526
524
539
563
574
569
573
592
605
597
584
597
633
643
589
506
468
502
553
554
495
436
429
470
526
577
626
655
625
511
357
243
215
235
234
190
159
213
360
536
673
763
839
918
975
974
919
857
826
817
792
724
624
528
472
471
497
501
440
318
189
114
110
132
128
77
3
-47
-43
12
87
144
171
187
224
295
391
488
563
603
607
588
565
541
519
505
512
537
547
522
497
536
637
691
583
322
53
-78
-58
8
38
41
73
148
227
282
314
317
275
199
141
139
171
188
180
177
176
121
-12
-172
-289
-386
-558
-823
-1049
-1075
-883
-631
-464
-357
-150
256
792
1290
1640
1873
2086
2321
2494
2476
2225
1832
1442
1109
774
374
-23
-260
-261
-116
13
57
84
192
385
565
647
627
565
519
489
442
363
290
280
344
424
454
418
370
366
408
453
467
441
393
336
286
269
284
308
316
315
325
348
364
358
353
379
421
427
353
234
141
110
121
122
84
29
-5
5
56
129
194
231
232
205
170
139
119
109
106
98
79
63
78
152
252
306
263
152
56
27
43
40
-7
-53
-40
47
148
190
157
89
32
-2
-44
-124
-233
-328
-373
-356
-294
-211
-132
-86
-80
-95
-92
-65
-49
-91
-185
-261
-251
-155
-46
5
-8
-30
-5
62
113
101
34
-36
-73
-91
-116
-147
-146
-88
-8
28
-1
-47
-52
-7
29
10
-48
-78
-40
37
85
72
32
28
81
142
135
42
-73
-117
-62
24
50
-4
-70
-55
39
137
172
152
140
164
195
205
210
228
249
233
180
141
144
166
163
140
132
145
133
84
57
111
211
248
174
66
31
80
114
50
-89
-206
-246
-218
-163
-105
-54
-23
7
72
176
266
282
222
170
180
229
247
214
180
198
271
364
456
541
608
637
645
673
730
768
743
687
687
768
846
832
758
753
884
1055
1100
977
813
770
861
967
966
872
784
775
820
863
882
885
872
839
786
737
701
656
616
595
574
458
179
-162
-358
-344
-315
-529
-963
-1274
-1177
-789
-495
-487
-534
-248
456
1276
1859
2157
2378
2689
2985
3034
2752
2286
1853
1517
1184
774
357
130
181
382
530
522
440
447
602
800
865
714
471
360
471
667
739
655
582
631
680
573
402
464
830
1143
977
394
-65
23
453
630
262
-346
-675
-543
-202
35
62
-41
-167
-255
-247
-110
82
178
111
-42
-139
-107
18
160
246
233
139
65
114
310
550
713
760
738
696
629
525
412
315
220
98
-24
-67
19
189
337
397
396
401
422
423
372
302
266
281
321
359
407
519
740
1031
1269
1334
1207
975
798
726
655
434
31
-378
-582
-538
-410
-372
-413
-398
-248
-48
56
28
-38
-47
13
99
161
191
201
249
383
585
739
713
543
437
551
791
903
771
540
454
593
767
783
647
521
523
626
737
807
844
864
858
867
923
1004
1035
986
912
897
923
892
793
717
725
748
698
612
610
725
812
737
568
520
662
824
813
651
541
615
784
873
820
726
687
710
760
812
830
780
649
518
484
538
546
403
179
38
50
108
96
25
11
102
215
257
229
205
206
181
84
-23
-48
14
91
119
115
142
240
391
537
631
659
644
638
677
734
729
612
424
267
227
304
407
452
433
422
475
585
672
680
635
584
536
467
388
356
394
434
389
278
217
279
367
308
64
-191
-261
-158
-85
-183
-385
-523
-543
-557
-677
-862
-975
-956
-874
-802
-696
-449
-40
427
831
1158
1487
1839
2124
2223
2121
1915
1698
1464
1146
734
324
36
-102
-172
-258
-362
-401
-314
-133
35
110
91
46
25
37
54
52
43
61
115
172
180
122
47
5
-17
-76
-201
-329
-368
-303
-213
-172
-170
-135
-31
90
144
106
32
-8
3
17
-23
-119
-211
-225
-149
-62
-66
-158
-206
-74
223
509
606
503
334
231
181
63
-210
-585
-903
-1029
-953
-795
-687
-646
-567
-347
-36
182
166
-28
-202
-239
-229
-370
-723
-1115
-1316
-1258
-1080
-950
-884
-770
-545
-289
-121
-67
-45
15
78
51
-65
-145
-74
109
258
300
327
463
668
737
530
161
-93
-75
82
123
-43
-256
-301
-148
53
143
89
-23
-112
-148
-128
-61
28
102
140
144
127
99
64
31
15
7
-23
-96
-201
-271
-216
-8
263
440
451
398
447
621
761
708
511
388
457
597
611
476
370
437
598
657
543
372
283
277
251
173
117
158
268
368
435
513
631
746
790
758
699
663
649
617
552
478
432
429
453
471
465
449
443
454
465
454
431
431
477
555
639
713
785
851
885
856
764
655
576
541
514
451
347
261
265
375
515
591
580
550
577
643
664
601
519
517
608
701
713
673
673
746
822
819
747
676
644
623
579
536
548
616
678
677
623
578
576
591
569
480
341
212
150
148
120
-4
-189
-305
-277
-190
-206
-365
-523
-511
-334
-153
-80
-53
78
380
774
1148
1456
1717
1941
2083
2101
1996
1795
1532
1221
883
568
346
251
252
291
323
360
432
541
633
650
593
517
462
426
380
333
327
385
460
476
401
296
242
263
308
314
279
252
276
341
407
446
456
437
385
321
279
273
262
188
40
-116
-211
-236
-238
-245
-233
-167
-58
44
111
164
235
310
338
284
183
105
95
122
111
19
-101
-164
-130
-89
-154
-349
-559
-642
-572
-461
-434
-479
-472
-322
-95
51
30
-91
-174
-165
-127
-131
-159
-142
-77
-46
-101
-174
-173
-117
-129
-271
-443
-496
-417
-336
-350
-407
-387
-285
-210
-245
-350
-440
-498
-564
-637
-651
-566
-428
-337
-319
-302
-212
-71
19
-10
-108
-173
-170
-158
-189
-212
-132
54
220
255
198
203
339
495
496
325
141
111
224
323
289
169
110
187
329
410
379
308
285
324
382
413
415
414
418
420
404
349
236
68
-103
-204
-217
-194
-175
-115
59
340
597
691
620
511
477
488
420
207
-60
-219
-199
-88
-27
-59
-117
-122
-93
-101
-171
-256
-307
-337
-382
-425
-429
-391
-353
-335
-314
-271
-245
-286
-354
-353
-236
-84
-17
-59
-103
-44
106
234
258
203
174
235
344
404
359
264
217
269
368
419
399
366
379
428
451
418
357
305
262
212
171
183
254
335
369
357
341
334
301
217
113
42
3
-55
-163
-282
-356
-397
-467
-583
-673
-654
-533
-399
-298
-173
71
447
861
1210
1468
1672
1838
1922
1871
1678
1387
1052
709
368
44
-235
-430
-518
-512
-449
-361
-252
-116
26
122
131
75
14
-9
-16
-53
-127
-184
-167
-76
22
53
2
-75
-116
-108
-94
-117
-166
-184
-136
-57
-20
-61
-135
-169
-138
-96
-104
-169
-234
-244
-202
-153
-129
-125
-117
-99
-83
-75
-66
-50
-43
-68
-114
-141
-122
-71
-28
-10
-4
13
41
64
73
74
79
88
99
107
105
84
48
25
52
130
207
216
137
32
-15
25
93
99
15
-95
-148
-122
-71
-56
-84
-125
-155
-174
-184
-170
-124
-82
-84
-135
-183
-189
-168
-168
-203
-239
-242
-212
-167
-121
-79
-54
-48
-39
-8
13
-53
-225
-425
-527
-470
-308
-135
-2
105
224
377
556
710
761
660
459
284
209
181
107
-11
-66
17
177
308
390
507
707
900
951
856
752
777
911
1024
1039
993
966
961
923
866
859
923
951
824
595
461
556
790
947
925
815
745
732
721
719
769
824
756
532
326
358
621
831
749
450
235
260
377
368
225
134
178
242
199
111
154
350
508
466
301
208
243
274
194
70
48
150
254
281
285
371
558
794
1007
1102
994
712
442
381
511
587
439
226
264
648
1116
1358
1335
1253
1256
1288
1240
1129
1063
1091
1158
1203
1246
1321
1403
1431
1394
1318
1195
999
743
510
373
311
247
148
66
28
-12
-109
-253
-393
-529
-716
-956
-1133
-1112
-915
-722
-652
-622
-451
-84
339
665
893
1116
1351
1492
1451
1287
1122
992
823
555
223
-88
-324
-465
-497
-447
-399
-436
-535
-558
-412
-184
-58
-105
-209
-222
-145
-97
-144
-211
-187
-96
-61
-146
-273
-313
-236
-127
-82
-99
-109
-69
-16
-4
-28
-49
-59
-100
-191
-282
-301
-246
-190
-196
-225
-192
-96
-33
-69
-143
-125
9
130
114
-8
-65
51
240
317
219
73
44
131
195
139
30
15
130
240
203
43
-69
-17
111
124
-43
-223
-213
-6
200
238
142
76
126
208
199
100
4
-35
-49
-89
-145
-174
-164
-140
-119
-102
-101
-139
-197
-218
-167
-88
-68
-124
-189
-176
-88
-9
-6
-64
-119
-125
-95
-69
-66
-65
-38
29
111
172
195
198
201
205
187
131
54
-5
-32
-51
-90
-136
-139
-60
70
176
207
204
246
346
424
400
300
234
270
346
366
318
289
331
403
432
421
436
492
524
484
430
470
593
661
571
404
330
407
505
455
247
52
48
243
480
587
518
379
329
442
640
748
641
370
137
114
300
526
575
386
94
-90
-75
34
68
-32
-157
-179
-111
-55
-54
-25
112
300
387
305
183
198
352
501
528
476
469
554
659
703
702
715
756
781
751
672
578
494
426
398
419
451
446
404
389
452
570
658
680
664
661
687
716
725
708
684
668
671
656
572
390
180
30
-50
-147
-302
-437
-455
-390
-401
-575
-806
-892
-772
-585
-497
-510
-481
-258
198
806
1426
1896
2120
2145
2175
2338
2519
2445
1991
1338
832
621
548
365
35
-226
-228
-39
122
141
142
292
554
717
652
483
426
531
604
467
184
0
57
240
327
221
30
-72
2
208
410
455
308
96
14
155
382
446
290
141
241
545
741
634
405
387
617
760
495
-54
-429
-340
-9
94
-215
-626
-695
-340
100
256
103
-94
-120
4
108
102
19
-49
-73
-70
-55
-37
-46
-108
-202
-269
-258
-194
-146
-157
-204
-226
-200
-162
-158
-193
-224
-222
-204
-206
-232
-261
-264
-244
-239
-259
-272
-244
-192
-175
-239
-354
-416
-352
-216
-160
-267
-427
-342
-29
-32
-230
-357
-226
39
151
-4
-226
-276
-152
-65
-148
-301
-342
-230
-83
-24
-49
-91
-115
-113
-95
-76
-96
-188
-318
-380
-296
-110
47
94
83
118
236
357
381
295
180
117
105
91
61
57
131
240
270
166
6
-57
55
249
351
251
10
-190
-203
-24
199
282
172
-8
-64
74
269
329
212
66
50
138
173
65
-94
-158
-116
-92
-180
-328
-396
-307
-118
58
143
124
45
-24
-44
-44
-107
-285
-515
-656
-622
-475
-341
-269
-173
55
391
649
640
369
21
-218
-323
-397
-463
-407
-136
239
503
606
726
1017
1343
1380
1013
506
234
282
416
404
263
168
194
248
228
148
92
81
64
-22
-201
-402
-485
-330
31
399
591
664
845
1205
1502
1424
974
471
157
-76
-476
-1012
-1360
-1280
-881
-446
-93
267
683
1032
1175
1153
1100
1023
795
371
-67
-283
-235
-97
-51
-102
-157
-172
-183
-219
-234
-165
-31
61
30
-83
-164
-145
-75
-53
-81
-41
172
505
767
820
702
563
484
399
200
-118
-434
-617
-624
-507
-345
-168
31
265
497
660
693
606
473
363
292
207
65
-97
-182
-137
-32
-5
-136
-351
-504
-535
-497
-487
-520
-532
-469
-346
-226
-172
-186
-227
-236
-182
-101
-58
-71
-67
18
150
208
137
24
-19
-20
-111
-348
-616
-762
-765
-745
-794
-879
-920
-900
-861
-831
-782
-685
-580
-523
-522
-540
-533
-480
-393
-309
-281
-322
-363
-291
-59
237
438
465
383
314
301
279
165
-42
-260
-388
-354
-148
161
442
586
596
575
597
627
567
382
150
-22
-95
-91
-35
75
219
342
400
408
404
388
325
216
120
97
143
207
273
371
516
655
718
681
584
482
389
295
193
99
21
-43
-93
-111
-92
-63
-58
-67
-48
28
125
172
139
85
103
217
344
384
330
259
248
291
322
301
239
176
144
165
251
372
457
453
387
340
356
386
352
242
120
39
-8
-44
-60
-39
-5
4
-11
1
70
148
173
154
158
222
310
373
424
488
539
532
492
503
580
631
578
494
513
624
653
498
313
327
528
640
474
207
194
526
909
1005
815
623
627
732
720
528
281
115
36
-26
-93
-133
-133
-146
-225
-346
-431
-455
-496
-663
-951
-1204
-1264
-1133
-969
-893
-832
-614
-180
335
766
1086
1371
1645
1839
1900
1862
1786
1650
1413
1135
978
1039
1234
1392
1424
1375
1289
1124
821
398
-49
-449
-783
-1037
-1166
-1127
-940
-681
-431
-234
-109
-48
-30
-27
-30
-55
-110
-168
-178
-117
-18
68
112
113
91
55
15
-20
-44
-48
-26
8
22
-4
-62
-130
-192
-249
-290
-288
-230
-160
-151
-232
-341
-382
-330
-259
-253
-315
-360
-323
-237
-195
-229
-295
-323
-311
-308
-349
-419
-478
-507
-511
-498
-476
-465
-482
-514
-516
-459
-375
-323
-332
-368
-380
-355
-324
-323
-351
-380
-388
-378
-372
-386
-421
-461
-489
-505
-518
-529
-532
-513
-484
-471
-484
-496
-475
-433
-418
-463
-539
-585
-568
-518
-481
-463
-432
-365
-281
-217
-186
-161
-123
-77
-49
-49
-61
-56
-19
44
111
173
235
299
355
382
374
354
343
328
283
211
166
195
276
327
301
245
251
356
500
595
610
591
593
626
666
688
696
693
672
622
560
524
538
587
625
627
605
590
592
591
567
524
483
452
421
384
355
352
373
405
423
422
406
385
358
326
291
255
222
195
178
171
178
201
242
289
324
338
330
301
249
190
151
147
156
147
121
121
177
265
334
370
409
491
600
726
683
642
616
639
682
698
674
648
663
714
756
762
762
808
895
958
942
867
791
733
653
516
356
252
241
282
310
292
238
177
137
144
185
176
29
-236
-471
-549
-509
-533
-732
-1004
-1143
-1067
-889
-762
-699
-576
-305
73
461
831
1221
1629
1964
2123
2099
1964
1777
1519
1162
742
350
64
-100
-166
-159
-101
-30
22
56
95
144
163
113
14
-68
-96
-88
-82
-74
-30
50
115
109
44
-8
11
100
205
274
296
299
311
337
360
355
321
276
263
303
380
456
517
580
662
744
784
767
719
679
671
696
748
812
856
858
856
915
1036
1121
1067
890
723
658
657
611
509
444
487
580
626
613
628
712
790
762
638
530
505
495
399
233
133
188
341
446
442
404
421
484
499
423
326
294
311
283
173
62
58
157
241
201
69
-36
-42
6
12
-59
-148
-186
-160
-111
-61
-5
59
95
70
0
-60
-70
-53
-57
-95
-118
-69
41
122
95
-21
-116
-94
14
77
7
-128
-159
13
314
563
629
544
436
399
409
360
169
-117
-356
-421
-308
-133
-27
-39
-118
-188
-220
-240
-269
-302
-320
-302
-249
-158
-24
133
273
373
437
486
504
453
312
147
57
66
80
-22
-255
-508
-645
-631
-538
-463
-462
-516
-548
-484
-311
-105
-3
-76
-254
-390
-387
-277
-168
-130
-161
-210
-225
-185
-110
-36
18
50
94
176
288
398
467
489
489
511
578
655
678
602
463
375
435
631
822
863
745
626
654
823
949
859
609
414
415
569
717
794
862
987
1123
1160
1061
920
850
820
680
360
-25
-267
-295
-216
-204
-322
-477
-566
-566
-524
-506
-533
-575
-557
-400
-93
274
597
874
1209
1677
2179
2543
2693
2698
2657
2571
2375
2060
1685
1324
1001
700
453
336
383
528
668
719
690
643
639
675
664
538
333
141
45
57
139
270
413
541
656
825
1091
1379
1523
1396
1069
779
726
855
901
655
229
-27
127
528
770
641
332
216
390
588
541
288
91
78
137
110
53
105
263
332
216
125
323
754
1045
978
804
974
1553
2049
1950
1301
657
430
472
341
-112
-574
-694
-506
-298
-209
-92
214
582
742
605
407
430
674
891
857
634
436
441
585
683
593
346
99
-13
-2
7
-64
-173
-219
-203
-237
-395
-583
-601
-405
-180
-130
-213
-170
153
588
805
687
444
364
502
647
598
374
166
123
222
351
423
419
363
276
233
333
565
740
664
382
211
434
958
1369
1340
961
612
555
707
785
612
249
-92
-236
-162
11
137
154
142
203
330
400
367
339
432
600
671
604
555
688
930
1039
899
665
576
652
718
633
460
363
389
437
376
170
-96
-291
-347
-323
-344
-481
-655
-702
-547
-316
-205
-275
-392
-383
-241
-110
-108
-211
-311
-331
-298
-257
-227
-207
-180
-162
-166
-196
-217
-182
-68
73
151
138
101
120
198
271
285
266
264
268
229
156
132
209
325
358
270
157
132
205
284
289
229
171
153
184
245
308
344
331
290
269
292
327
328
287
230
160
65
-42
-119
-144
-170
-264
-426
-591
-711
-815
-961
-1136
-1254
-1242
-1117
-949
-762
-498
-87
471
1087
1654
2110
2454
2705
2859
2883
2733
2409
1966
1503
1101
774
501
270
114
83
178
331
457
513
509
484
463
440
388
290
156
25
-50
-29
83
226
316
314
268
275
377
505
543
436
251
106
47
15
-68
-208
-333
-369
-300
-187
-110
-109
-157
-188
-170
-133
-118
-109
-54
49
121
84
-8
-18
98
206
129
-124
-361
-407
-284
-146
-104
-122
-106
-19
103
207
267
267
194
44
-156
-360
-543
-701
-824
-876
-834
-719
-595
-508
-439
-334
-180
-51
-40
-139
-238
-261
-270
-389
-642
-890
-964
-831
-617
-468
-441
-479
-478
-351
-92
187
310
202
0
-61
103
330
391
243
47
-29
19
72
46
-35
-97
-110
-103
-113
-132
-106
11
199
365
429
409
387
414
444
416
341
297
317
331
268
172
156
253
367
383
317
286
352
444
433
294
149
134
253
376
391
322
295
384
522
570
474
332
270
297
320
268
187
170
218
235
146
11
-62
-51
-39
-102
-218
-297
-293
-250
-237
-274
-337
-393
-436
-454
-440
-419
-431
-488
-542
-534
-461
-379
-342
-344
-334
-274
-179
-96
-49
-25
5
47
77
70
46
54
111
178
195
157
120
129
169
181
142
87
58
59
59
48
57
113
193
238
210
133
66
48
57
54
30
18
40
73
78
41
-14
-64
-118
-187
-258
-308
-342
-370
-376
-327
-231
-173
-231
-374
-472
-440
-329
-262
-268
-241
-64
250
574
812
978
1140
1308
1416
1397
1247
1014
750
486
241
33
-134
-263
-355
-395
-356
-255
-143
-74
-43
-1
78
161
183
125
23
-68
-122
-141
-145
-150
-172
-195
-167
-49
115
214
174
50
-26
9
76
49
-98
-271
-365
-368
-342
-319
-293
-253
-227
-241
-278
-297
-283
-275
-305
-361
-406
-439
-470
-465
-349
-102
184
359
376
335
339
351
227
-92
-486
-771
-901
-978
-1080
-1145
-1054
-816
-593
-526
-585
-618
-543
-426
-387
-450
-523
-515
-434
-360
-330
-314
-275
-240
-261
-350
-448
-498
-498
-487
-482
-459
-402
-337
-302
-293
-266
-200
-130
-100
-120
-158
-185
-201
-216
-232
-234
-212
-173
-120
-54
25
110
184
225
220
180
139
146
216
296
315
253
158
114
144
191
187
132
90
111
173
231
271
330
422
491
475
371
253
175
114
26
-80
-124
-52
88
202
266
338
457
565
568
454
320
267
290
320
327
356
449
557
585
504
382
301
269
235
174
112
100
152
239
320
367
365
309
216
122
46
-6
-48
-80
-84
-50
21
106
154
100
-86
-346
-559
-633
-588
-516
-467
-395
-230
24
287
482
604
682
719
689
588
463
370
325
299
264
218
178
165
192
253
314
337
314
286
290
316
313
259
198
184
209
199
109
-9
-53
16
122
156
93
6
-37
-57
-127
-268
-409
-480
-508
-571
-688
-789
-813
-813
-886
-1046
-1174
-1142
-954
-732
-566
-414
-164
231
698
1116
1412
1592
1684
1691
1585
1356
1035
684
353
61
-195
-396
-511
-523
-456
-359
-272
-200
-138
-90
-63
-54
-45
-36
-48
-94
-150
-175
-155
-128
-141
-202
-268
-288
-256
-210
-185
-179
-163
-124
-82
-59
-61
-77
-97
-124
-156
-177
-174
-146
-110
-89
-93
-118
-141
-140
-108
-62
-31
-24
-22
0
42
81
96
93
87
87
89
93
96
91
64
21
-5
11
51
74
60
28
10
6
-2
-13
-17
-20
-47
-111
-168
-163
-98
-37
-40
-91
-129
-123
-111
-149
-231
-300
-313
-291
-286
-311
-331
-301
-225
-150
-125
-152
-186
-188
-155
-127
-135
-172
-207
-209
-182
-149
-129
-127
-135
-140
-128
-99
-68
-51
-45
-21
22
30
-43
-156
-200
-127
-19
-15
-132
-238
-210
-71
47
77
79
124
187
189
143
145
241
356
391
363
375
480
621
718
753
752
726
669
608
580
564
486
334
218
257
403
469
362
211
207
358
477
414
251
187
283
406
419
360
360
452
524
478
361
289
294
295
225
123
72
95
142
169
188
235
307
363
377
359
334
313
290
261
241
238
259
307
376
451
523
585
644
711
790
873
945
992
1025
1079
1184
1329
1458
1517
1508
1475
1452
1429
1378
1297
1208
1137
1099
1109
1180
1298
1418
1483
1491
1484
1509
1555
1563
1481
1313
1119
970
896
878
860
803
715
645
626
644
647
583
445
258
52
-142
-279
-312
-234
-97
38
179
414
806
1313
1800
2150
2355
2483
2587
2646
2611
2455
2200
1897
1604
1372
1216
1094
945
762
614
573
624
662
595
427
245
141
121
114
57
-63
-175
-199
-129
-43
-33
-120
-225
-248
-169
-71
-46
-112
-198
-215
-157
-100
-126
-228
-323
-338
-293
-253
-255
-281
-291
-282
-286
-306
-306
-269
-215
-175
-170
-170
-166
-170
-171
-138
-84
-90
-211
-380
-433
-275
-25
79
-48
-256
-312
-152
52
77
-123
-364
-447
-348
-212
-182
-258
-352
-392
-390
-370
-322
-234
-163
-180
-298
-404
-356
-164
10
6
-196
-460
-601
-553
-413
-306
-278
-263
-189
-59
42
76
85
119
148
97
-14
-68
33
247
419
483
488
519
570
596
598
600
574
466
299
198
242
352
373
278
188
222
349
423
377
294
297
389
473
499
478
434
355
259
219
301
458
548
503
446
538
786
974
901
610
354
320
453
572
555
442
350
354
443
552
611
563
419
261
177
182
199
157
54
-33
-53
-29
-4
-9
-47
-113
-167
-177
-174
-270
-519
-823
-986
-903
-700
-619
-744
-907
-875
-609
-296
-101
-9
74
151
136
30
1
207
561
765
627
298
163
439
943
1270
1201
888
677
741
936
983
776
477
311
343
433
433
349
298
343
433
444
316
118
-23
-43
38
154
251
315
350
371
389
398
374
313
221
121
41
19
95
256
428
501
423
243
54
-114
-284
-468
-602
-587
-399
-110
206
548
935
1293
1482
1440
1290
1209
1229
1178
885
413
33
-57
62
153
81
-58
-103
-16
90
136
157
232
340
403
398
398
471
561
578
511
424
356
247
35
-233
-428
-486
-474
-498
-574
-617
-552
-388
-197
-48
29
56
67
93
147
200
214
191
185
239
341
401
370
260
178
194
281
336
285
153
35
7
75
168
196
99
-85
-232
-217
-57
65
-27
-271
-404
-241
80
240
103
-135
-173
49
300
342
197
58
50
116
140
98
32
-15
-61
-122
-174
-193
-187
-184
-185
-176
-154
-139
-147
-162
-162
-151
-174
-251
-344
-373
-305
-198
-146
-178
-224
-193
-69
63
101
23
-96
-159
-130
-60
-30
-74
-149
-180
-134
-42
36
68
71
74
88
102
108
111
113
114
113
115
122
127
128
133
147
162
162
141
118
120
158
221
284
325
337
341
364
416
473
497
484
471
500
566
610
591
523
460
434
424
393
337
290
274
272
249
199
150
130
130
119
85
53
59
106
155
163
131
113
164
281
389
398
287
131
31
26
49
12
-90
-184
-196
-131
-54
-1
47
114
186
238
282
357
462
537
535
493
494
564
634
629
555
479
431
362
230
84
26
94
218
299
324
374
524
760
985
1109
1122
1084
1058
1048
988
818
567
329
177
93
11
-92
-184
-236
-265
-299
-325
-329
-350
-457
-648
-824
-873
-785
-621
-430
-205
73
398
768
1194
1644
2002
2157
2128
2055
2016
1943
1740
1470
1329
1401
1528
1487
1265
1064
1026
1036
877
525
172
-8
-51
-102
-180
-149
85
427
693
805
822
796
700
485
170
-169
-465
-703
-875
-951
-917
-818
-705
-592
-459
-320
-215
-169
-166
-147
-76
22
95
86
-1
-89
-99
-21
45
-33
-249
-427
-370
-75
227
295
134
-4
67
224
165
-212
-654
-837
-716
-543
-543
-648
-647
-491
-330
-282
-259
-131
61
173
151
119
201
336
363
228
32
-101
-156
-207
-294
-413
-521
-565
-491
-282
1
255
422
529
631
741
835
888
867
715
403
-11
-389
-634
-774
-902
-1043
-1123
-1066
-885
-666
-482
-359
-302
-302
-319
-308
-266
-228
-227
-231
-190
-96
-1
59
95
133
174
206
238
294
378
465
531
585
639
682
683
631
543
445
355
281
220
160
86
8
-30
14
127
237
282
266
262
339
500
686
829
909
926
896
822
706
561
398
227
43
-147
-306
-387
-366
-274
-187
-171
-228
-295
-305
-264
-256
-356
-534
-675
-689
-599
-504
-469
-469
-435
-349
-255
-207
-211
-229
-219
-169
-104
-49
-33
-60
-96
-89
-10
106
188
194
160
167
250
363
428
420
383
366
374
382
373
362
354
333
290
244
232
262
308
345
373
391
389
344
266
192
158
161
167
146
104
72
81
133
178
149
25
-138
-265
-343
-435
-578
-727
-807
-823
-863
-976
-1083
-1069
-924
-756
-660
-577
-361
47
544
972
1275
1512
1751
1966
2063
1983
1755
1463
1169
882
594
315
87
-56
-111
-105
-74
-35
15
80
158
230
276
278
237
172
109
62
30
7
-13
-35
-59
-71
-56
-27
-18
-38
-42
16
117
177
152
105
138
257
347
301
148
23
12
63
70
2
-75
-88
-30
46
93
101
74
30
-8
-23
-12
2
-8
-35
-48
-24
25
58
59
50
68
115
149
136
95
79
109
-454
-420
-380
-372
-406
-462
-509
-526
-523
-530
-570
-637
-689
-685
-628
-563
-541
-570
-605
-600
-547
-491
-477
-497
-499
-455
-391
-359
-368
-375
-343
-288
-249
-243
-244
-234
-223
-223
-215
-171
-93
-32
-32
-75
-96
-63
-7
16
-7
-39
-38
-8
26
48
68
91
110
117
132
168
214
235
219
197
208
258
306
314
286
258
253
264
263
238
200
172
164
166
158
137
126
152
211
273
308
325
352
391
407
361
255
130
24
-60
-132
-190
-216
-203
-170
-145
-131
-114
-87
-71
-95
-152
-202
-207
-176
-152
-165
-200
-216
-196
-158
-132
-124
-128
-141
-162
-181
-180
-151
-106
-53
15
103
197
269
321
379
452
505
497
431
350
287
232
168
112
95
119
145
145
135
148
193
252
310
368
430
486
536
596
678
750
753
654
495
343
228
123
-5
-152
-293
-423
-548
-644
-677
-655
-662
-769
-935
-1025
-946
-738
-509
-296
-31
352
818
1276
1675
2031
2349
2559
2574
2379
2054
1697
1362
1045
729
416
129
-80
-157
-87
71
213
277
274
269
306
371
411
395
336
281
264
277
290
297
326
388
441
427
348
278
286
353
383
324
217
137
96
41
-64
-181
-241
-229
-199
-195
-167
-20
269
584
758
732
630
626
742
812
656
298
-33
-138
-57
4
-88
-258
-339
-287
-224
-271
-393
-438
-323
-119
28
65
78
158
286
341
244
55
-78
-69
22
56
-21
-113
-82
93
284
327
191
8
-62
6
90
59
-87
-224
-240
-153
-68
-75
-158
-237
-263
-261
-263
-267
-235
-165
-107
-109
-164
-214
-211
-165
-124
-111
-103
-58
38
155
246
290
301
304
312
325
342
376
434
486
498
473
466
526
633
698
669
588
545
582
639
633
563
509
533
598
616
554
477
474
555
637
631
538
449
453
546
634
622
512
405
395
477
556
542
431
302
244
283
376
451
474
458
441
428
376
224
-27
-284
-446
-479
-430
-350
-237
-58
180
409
573
669
720
714
622
456
286
190
177
191
179
143
109
80
41
-17
-60
-71
-64
-59
-47
13
138
278
355
347
323
367
483
601
647
625
592
602
653
699
694
632
535
450
424
461
531
584
585
545
494
456
431
418
422
422
389
322
268
295
393
474
448
319
161
38
-53
-138
-205
-233
-237
-249
-284
-330
-407
-559
-776
-969
-1054
-1045
-1024
-1004
-877
-538
-20
527
995
1380
1703
1940
2053
2038
1926
1708
1352
905
510
274
176
84
-84
-242
-260
-101
126
262
267
245
305
432
484
363
144
14
58
175
200
112
51
133
290
367
288
143
70
88
118
101
75
92
152
201
212
193
171
115
-3
-155
-267
-278
-230
-212
-257
-315
-315
-249
-158
-95
-86
-129
-210
-276
-254
-119
30
53
-84
-241
-264
-142
-24
-57
-211
-348
-361
-260
-134
-78
-133
-281
-432
-497
-454
-399
-434
-557
-638
-564
-398
-302
-336
-393
-335
-192
-120
-215
-384
-444
-335
-205
-233
-412
-561
-529
-347
-168
-93
-100
-121
-140
-190
-275
-336
-331
-294
-300
-361
-417
-392
-280
-134
-12
73
132
163
165
144
110
85
78
81
79
69
59
70
101
118
89
33
11
54
111
111
52
34
149
361
544
600
558
534
591
670
655
496
276
102
17
-30
-83
-111
-30
140
252
186
13
-52
111
348
390
178
-69
-107
76
259
279
196
156
203
249
244
256
334
396
320
134
24
109
288
332
167
-14
-18
161
322
330
234
174
170
135
21
-98
-124
-99
-126
-210
-242
-127
64
206
288
406
585
709
677
559
525
595
592
389
101
-16
118
319
369
256
167
260
456
577
517
339
167
93
133
236
315
321
282
271
343
439
439
315
133
-19
-116
-199
-285
-347
-361
-344
-349
-405
-500
-610
-718
-809
-873
-900
-866
-745
-529
-225
136
536
977
1421
1782
1985
2031
1986
1896
1731
1423
990
559
240
34
-128
-286
-409
-443
-384
-279
-185
-129
-117
-135
-151
-132
-65
33
121
169
182
202
271
376
456
440
317
170
87
75
49
-49
-178
-235
-182
-93
-64
-119
-192
-223
-206
-186
-195
-227
-260
-275
-266
-231
-169
-93
-18
26
18
-31
-72
-50
35
114
110
16
-97
-141
-95
-11
30
-20
-146
-274
-320
-259
-158
-130
-215
-337
-377
-316
-254
-306
-465
-616
-656
-605
-556
-559
-572
-539
-466
-419
-417
-410
-349
-270
-258
-321
-366
-317
-216
-181
-257
-359
-374
-306
-256
-295
-399
-494
-542
-553
-544
-525
-517
-538
-557
-515
-394
-261
-202
-207
-173
-38
125
181
84
-71
-143
-89
13
59
17
-43
-26
107
302
439
437
330
227
203
233
232
161
70
31
53
92
120
149
192
224
197
126
92
158
282
328
217
31
-64
12
158
207
108
2
53
259
466
539
482
394
332
284
248
257
323
373
321
186
100
173
353
466
389
188
54
106
285
420
410
302
219
223
283
318
287
205
121
74
78
117
161
194
235
292
320
260
136
64
128
248
268
154
57
153
398
579
558
431
401
511
593
498
301
217
332
477
445
222
27
43
214
309
185
-62
-220
-202
-70
35
52
-3
-69
-81
-30
11
-57
-256
-460
-524
-468
-438
-569
-804
-970
-979
-946
-1013
-1153
-1167
-920
-488
-82
181
403
747
1242
1732
2013
2039
1948
1906
1937
1916
1736
1405
1066
839
720
614
455
303
263
354
493
577
585
601
670
738
742
671
578
517
453
353
261
260
340
381
292
135
63
127
215
176
22
-97
-73
21
24
-102
-241
-269
-199
-116
-74
-47
-29
-55
-115
-134
-57
65
116
69
6
-2
27
60
84
121
115
-6
-191
-261
-102
163
283
168
11
68
344
571
501
194
-57
-54
85
128
-9
-180
-211
-89
53
116
133
172
242
292
271
192
69
-48
-94
-22
104
158
76
-23
54
319
551
519
234
-44
-67
171
452
540
388
159
68
207
430
513
365
142
103
317
600
727
682
625
651
665
530
323
254
413
618
636
474
367
484
746
932
953
926
993
1131
1227
1216
1173
1214
1364
1539
1600
1488
1277
1119
1135
1298
1454
1478
1385
1315
1393
1577
1680
1541
1213
920
833
891
857
617
342
283
459
596
482
246
212
501
853
944
759
563
596
800
920
794
502
280
311
580
897
1061
1017
883
811
834
877
877
858
845
799
672
542
593
906
1322
1557
1483
1247
1092
1124
1234
1279
1263
1283
1402
1578
1727
1824
1883
1935
1997
2057
2076
1998
1817
1661
1723
2032
2354
2393
2117
1827
1829
2089
2282
2197
1964
1871
2021
2250
2349
2288
2199
2172
2168
2094
1922
1734
1631
1639
1698
1737
1743
1746
1742
1687
1566
1460
1462
1577
1711
1799
1897
2105
2432
2778
3053
3256
3439
3609
3712
3708
3607
3424
3159
2823
2456
2124
1856
1636
1456
1336
1308
1367
1483
1619
1740
1811
1811
1781
1786
1855
1935
1944
1859
1761
1735
1774
1789
1701
1522
1349
1265
1258
1258
1226
1193
1215
1296
1366
1355
1271
1183
1152
1153
1122
1046
991
1024
1123
1189
1143
1023
936
933
955
910
790
682
666
727
777
749
674
632
663
721
732
681
628
637
703
748
713
620
542
523
534
520
472
428
423
439
435
404
382
403
450
467
428
369
344
367
400
401
372
355
368
383
359
297
248
245
273
283
257
221
209
220
229
225
215
199
177
147
124
115
114
106
91
85
93
105
108
93
56
-3
-61
-67
15
145
238
241
202
220
332
468
520
458
359
315
350
409
432
413
386
380
390
393
383
366
338
286
209
133
90
85
83
60
32
36
70
91
57
-20
-86
-109
-96
-71
-28
40
130
223
309
402
494
537
480
321
123
-30
-106
-132
-143
-156
-160
-144
-106
-40
46
110
96
-8
-139
-203
-173
-130
-182
-353
-568
-733
-846
-959
-1075
-1107
-960
-664
-358
-145
12
236
556
823
854
639
370
237
235
215
85
-81
-154
-119
-78
-100
-150
-170
-156
-150
-163
-170
-171
-204
-278
-339
-343
-327
-357
-412
-396
-265
-113
-80
-182
-294
-308
-260
-277
-406
-555
-619
-617
-641
-722
-780
-762
-743
-858
-1111
-1327
-1330
-1149
-987
-956
-938
-713
-226
326
694
823
859
959
1122
1212
1125
878
580
344
200
107
8
-124
-266
-354
-342
-252
-169
-190
-338
-525
-609
-527
-361
-259
-282
-350
-331
-163
88
292
350
250
79
-33
-7
113
196
161
47
-40
-24
71
186
275
299
237
114
9
-2
65
106
58
-27
-50
2
59
76
84
131
192
210
191
182
205
199
116
-6
-87
-97
-91
-137
-240
-327
-347
-302
-244
-236
-302
-411
-499
-510
-450
-377
-342
-357
-404
-482
-604
-770
-944
-1085
-1184
-1259
-1313
-1301
-1183
-972
-752
-609
-548
-512
-459
-420
-463
-600
-752
-824
-804
-768
-777
-808
-804
-774
-768
-795
-805
-768
-730
-759
-827
-827
-723
-629
-685
-883
-1041
-1017
-859
-730
-712
-731
-664
-496
-326
-251
-271
-318
-340
-330
-317
-344
-414
-502
-553
-536
-480
-453
-483
-523
-497
-400
-310
-305
-368
-399
-333
-221
-167
-205
-258
-254
-223
-236
-289
-299
-211
-89
-42
-103
-183
-199
-152
-109
-107
-121
-140
-166
-183
-174
-154
-152
-179
-195
-164
-122
-141
-208
-230
-160
-68
-64
-175
-325
-418
-428
-377
-294
-229
-242
-346
-459
-440
-252
1
153
111
-91
-312
-395
-282
-75
28
-83
-301
-378
-202
96
256
194
47
-3
58
138
176
201
225
185
45
-108
-126
20
174
189
94
71
222
443
543
480
389
396
461
427
246
55
21
142
255
219
73
-30
1
110
140
-3
-270
-489
-578
-614
-770
-1093
-1432
-1565
-1431
-1195
-1066
-1069
-1028
-740
-184
474
1014
1327
1479
1630
1868
2104
2149
1897
1461
1048
764
534
257
-53
-273
-320
-234
-113
-8
93
199
316
423
499
497
373
148
-47
-87
41
210
269
182
73
85
222
307
189
-67
-238
-177
0
36
-149
-358
-363
-186
-62
-158
-378
-499
-459
-383
-392
-411
-275
33
326
404
326
351
642
1033
1156
799
161
-325
-382
-160
-39
-262
-716
-1095
-1180
-1002
-771
-677
-784
-998
-1136
-1073
-852
-626
-496
-453
-417
-365
-358
-416
-496
-544
-583
-684
-836
-941
-939
-877
-828
-778
-654
-458
-292
-276
-388
-510
-521
-432
-341
-329
-392
-477
-532
-543
-517
-467
-403
-337
-328
-394
-481
-520
-488
-450
-483
-571
-634
-654
-685
-739
-723
-544
-281
-139
-205
-328
-277
-17
257
320
160
-61
-170
-143
-66
-53
-177
-390
-562
-571
-432
-289
-253
-296
-308
-229
-114
-39
-9
4
-19
-116
-256
-339
-306
-223
-216
-292
-335
-270
-149
-92
-126
-149
-95
-45
-113
-249
-284
-149
-5
-72
-347
-577
-562
-385
-304
-411
-542
-497
-296
-136
-144
-240
-287
-262
-253
-315
-396
-423
-409
-413
-455
-471
-392
-244
-121
-101
-156
-172
-84
50
100
14
-144
-244
-233
-145
-43
26
27
-62
-182
-168
87
465
671
515
138
-107
-30
205
283
89
-199
-341
-277
-127
-25
5
1
-23
-66
-97
-70
4
44
-16
-160
-317
-400
-398
-383
-420
-505
-570
-579
-598
-726
-948
-1113
-1079
-901
-788
-860
-984
-903
-513
25
476
771
1030
1367
1737
1979
1988
1790
1482
1134
769
391
32
-261
-468
-592
-639
-598
-487
-332
-168
-29
55
79
62
37
35
48
33
-27
-91
-102
-68
-61
-137
-266
-362
-389
-372
-341
-279
-162
-29
48
57
82
196
350
408
296
97
-32
-28
28
25
-51
-133
-162
-148
-130
-120
-123
-155
-219
-284
-293
-243
-191
-189
-229
-289
-401
-624
-944
-1236
-1372
-1338
-1218
-1080
-899
-625
-274
82
378
581
654
567
346
100
-63
-132
-198
-325
-461
-499
-404
-270
-222
-290
-412
-521
-601
-675
-752
-789
-736
-586
-396
-245
-182
-192
-211
-201
-198
-270
-392
-458
-401
-286
-235
-271
-270
-141
39
105
4
-157
-262
-308
-336
-311
-153
114
346
461
544
722
945
1010
800
439
148
5
-89
-229
-363
-377
-266
-149
-116
-112
-22
143
244
183
34
-35
58
202
237
165
165
371
684
847
722
444
272
310
404
349
122
-102
-170
-110
-67
-103
-149
-135
-97
-112
-191
-274
-319
-358
-432
-519
-569
-578
-593
-617
-584
-445
-264
-161
-186
-270
-318
-305
-280
-300
-368
-439
-458
-397
-279
-156
-70
-5
88
217
331
378
366
349
364
390
390
368
358
367
366
329
273
246
274
340
406
448
477
518
578
626
621
545
429
328
271
233
167
56
-61
-149
-224
-339
-500
-629
-654
-611
-611
-706
-814
-830
-785
-816
-987
-1184
-1239
-1142
-1033
-1002
-946
-691
-209
341
790
1128
1450
1794
2071
2169
2067
1836
1552
1247
930
628
378
201
96
63
102
202
318
409
463
496
519
526
506
458
401
346
286
214
150
122
123
112
64
0
-32
-17
10
17
5
0
6
2
-22
-47
-58
-60
-70
-77
-50
7
46
34
-5
-1
63
116
76
-44
-152
-180
-142
-108
-123
-167
-198
-206
-213
-238
-279
-316
-315
-274
-233
-241
-298
-332
-271
-137
-39
-53
-131
-159
-98
-30
-53
-159
-256
-283
-280
-312
-384
-444
-457
-454
-480
-530
-556
-533
-491
-473
-492
-518
-512
-469
-416
-390
-395
-408
-401
-379
-369
-391
-426
-438
-412
-374
-352
-346
-324
-262
-181
-125
-117
-143
-182
-234
-306
-390
-458
-498
-525
-563
-597
-577
-465
-277
-82
66
159
234
337
459
552
554
468
371
338
365
364
270
128
42
55
91
73
25
49
194
374
460
423
342
299
289
253
163
46
-65
-159
-237
-292
-325
-362
-423
-501
-554
-548
-509
-467
-429
-362
-239
-90
21
50
8
-52
-88
-105
-140
-209
-270
-267
-191
-91
-29
-13
-11
-10
-40
-122
-224
-287
-298
-308
-346
-364
-307
-206
-178
-268
-369
-336
-158
20
78
51
68
172
279
323
326
343
349
282
157
81
111
180
195
164
157
184
164
56
-56
-58
27
54
-56
-216
-266
-167
-23
31
-39
-163
-251
-275
-278
-332
-465
-638
-777
-870
-974
-1121
-1253
-1254
-1092
-861
-665
-483
-202
239
755
1197
1485
1642
1722
1746
1698
1565
1350
1076
774
481
232
42
-84
-140
-128
-82
-45
-32
-4
79
191
253
216
114
28
4
9
-7
-47
-74
-55
-11
16
11
-5
-1
18
29
17
-5
-17
-19
-34
-68
-101
-94
-41
25
65
74
77
103
148
180
174
138
100
80
71
56
26
-4
-23
-33
-51
-84
-109
-108
-95
-103
-145
-192
-205
-188
-180
-212
-262
-288
-274
-246
-231
-222
-187
-111
-30
9
-18
-84
-148
-189
-222
-272
-344
-412
-445
-433
-396
-353
-317
-288
-266
-263
-289
-336
-378
-392
-386
-384
-394
-394
-353
-278
-215
-199
-209
-204
-176
-166
-201
-247
-247
-199
-162
-174
-193
-160
-91
-65
-119
-177
-154
-72
-27
-61
-98
-49
66
146
147
138
196
282
283
161
17
-25
36
83
26
-84
-130
-58
77
185
220
192
121
42
15
77
187
247
209
138
136
216
293
289
215
133
56
-45
-156
-183
-82
77
162
132
61
29
32
18
-20
-46
-69
-157
-334
-496
-507
-356
-199
-194
-326
-428
-363
-166
14
84
77
81
128
174
185
175
172
177
166
148
159
219
289
337
366
399
443
471
471
453
448
467
495
516
519
511
522
584
689
779
801
783
813
910
982
926
761
616
562
525
408
235
142
198
321
383
364
337
338
332
270
156
19
-152
-366
-560
-620
-512
-337
-214
-139
26
380
837
1216
1423
1522
1635
1774
1843
1764
1568
1343
1133
903
631
375
211
158
155
148
143
187
290
406
475
477
437
389
341
282
205
129
84
85
111
119
93
52
37
64
113
150
152
113
44
-29
-67
-52
-15
-17
-79
-157
-173
-106
-15
14
-43
-137
-209
-245
-266
-285
-291
-277
-249
-217
-163
-70
27
68
28
-30
-17
82
190
219
169
115
119
161
179
136
50
-41
-110
-147
-148
-125
-109
-127
-177
-222
-224
-170
-84
-9
17
-23
-98
-150
-142
-94
-58
-89
-190
-296
-328
-255
-110
21
73
47
2
-6
25
39
-16
-133
-246
-287
-246
-168
-98
-44
24
117
196
208
154
82
51
67
74
23
-64
-130
-117
-13
126
215
227
215
263
378
468
422
261
129
134
221
230
112
6
74
307
523
565
483
471
633
871
982
861
605
403
373
462
518
454
329
262
297
381
436
451
472
503
493
401
293
262
310
344
290
181
108
111
133
124
108
148
241
308
304
268
276
332
359
296
182
97
79
82
75
93
172
282
368
433
521
635
707
693
650
663
718
674
457
201
128
309
562
644
499
317
315
498
679
702
614
591
732
942
1063
1045
979
957
998
1092
1256
1478
1620
1519
1179
815
642
632
535
162
-391
-814
-883
-654
-380
-297
-447
-654
-691
-474
-134
106
158
138
250
593
1104
1656
2181
2650
3012
3171
3076
2777
2412
2095
1800
1423
939
487
232
172
137
2
-154
-161
13
179
152
-15
-110
-31
108
128
1
-116
-69
148
414
566
550
419
272
188
150
101
12
-82
-143
-188
-241
-254
-144
54
199
174
76
90
257
407
369
207
133
204
304
326
286
268
269
225
136
68
4
-157
-403
-543
-391
-83
72
-25
-135
20
376
597
503
277
180
244
267
128
-49
-113
-88
-114
-230
-321
-299
-228
-219
-279
-305
-232
-126
-71
-84
-108
-104
-102
-140
-226
-320
-394
-428
-403
-317
-225
-195
-235
-260
-204
-112
-92
-203
-336
-347
-201
-29
4
-108
-220
-186
-38
43
-57
-251
-351
-291
-172
-138
-200
-250
-227
-187
-193
-210
-177
-115
-118
-208
-278
-237
-122
-52
-79
-126
-117
-64
-17
15
79
175
247
257
244
274
338
384
375
341
327
331
323
297
285
306
338
343
306
256
232
234
236
213
158
43
7
-53
-80
-77
-63
-56
-52
-31
14
62
85
83
81
90
93
60
4
-29
-9
39
63
44
11
9
48
99
135
155
173
201
240
295
367
437
471
459
430
423
435
422
358
291
300
403
525
575
554
541
586
648
656
595
513
439
357
260
205
246
342
382
305
183
132
158
148
13
-188
-317
-333
-335
-418
-529
-550
-483
-499
-743
-1138
-1434
-1477
-1369
-1312
-1353
-1304
-943
-255
554
1260
1791
2204
2536
2740
2748
2558
2229
1827
1392
949
548
255
116
121
195
254
270
286
346
418
404
244
1
-188
-247
-234
-255
-328
-344
-212
26
222
297
320
398
526
588
506
344
238
227
249
250
238
244
235
174
97
89
144
119
-104
-429
-615
-542
-376
-343
-429
-367
29
597
1002
1124
1165
1339
1558
1532
1132
553
98
-155
-346
-579
-785
-846
-774
-689
-630
-524
-319
-104
-34
-147
-327
-448
-478
-459
-426
-392
-387
-432
-487
-467
-354
-238
-220
-299
-369
-354
-295
-283
-332
-375
-363
-328
-322
-314
-211
3
206
252
129
-22
-74
-42
-54
-188
-386
-520
-524
-438
-348
-298
-282
-265
-225
-171
-134
-147
-205
-259
-257
-207
-161
-158
-186
-201
-191
-178
-175
-158
-106
-23
60
136
216
277
267
163
5
-118
-183
-242
-337
-422
-398
-244
-50
74
117
161
254
343
328
202
68
36
112
216
276
291
288
266
215
151
114
108
84
8
-77
-90
-37
-4
-39
-81
-40
71
133
87
22
69
254
478
649
768
890
1040
1184
1275
1254
1083
774
413
112
-92
-260
-434
-551
-510
-314
-96
20
47
96
231
392
460
384
228
110
110
211
319
344
296
283
378
527
602
556
472
467
551
612
560
417
273
175
98
15
-58
-89
-109
-196
-367
-542
-616
-571
-494
-471
-496
-491
-408
-283
-181
-109
-17
129
310
498
698
934
1196
1418
1538
1543
1454
1276
998
638
299
83
-1
-23
-23
46
233
475
628
643
646
783
1019
1146
1014
718
479
384
282
-27
-541
-1039
-1298
-1284
-1136
-1004
-916
-805
-608
-349
-122
-18
-57
-183
-312
-403
-468
-528
-569
-553
-475
-374
-291
-231
-178
-140
-123
-57
172
594
1059
1308
1211
891
593
425
267
-59
-561
-1034
-1259
-1204
-1017
-874
-839
-847
-818
-748
-692
-695
-746
-789
-784
-737
-685
-640
-576
-477
-380
-327
-316
-318
-313
-320
-346
-340
-237
-23
242
486
668
763
741
576
295
-22
-319
-602
-921
-1282
-1608
-1791
-1768
-1566
-1278
-1000
-806
-689
-584
-435
-270
-171
-198
-301
-355
-281
-120
22
93
112
111
83
12
-78
-139
-140
-98
-32
68
211
353
423
404
363
352
334
217
-6
-208
-254
-164
-88
-135
-248
-285
-185
-33
56
47
-7
-44
-58
-75
-85
-31
113
308
478
580
615
591
500
349
182
34
-128
-374
-681
-889
-840
-572
-306
-210
-233
-176
37
258
298
147
-35
-117
-116
-134
-201
-253
-236
-160
-74
-4
53
90
89
60
40
44
51
33
8
17
71
121
114
68
61
141
270
358
370
354
373
431
464
422
324
229
180
164
149
117
85
83
127
204
277
311
304
289
285
273
220
121
14
-53
-65
-57
-76
-133
-184
-178
-132
-138
-292
-584
-871
-992
-918
-770
-671
-580
-331
174
821
1364
1650
1725
1731
1731
1669
1483
1209
943
751
632
572
579
653
737
758
691
586
509
483
485
488
489
505
537
564
569
549
509
449
374
293
233
217
254
329
406
459
492
513
511
451
327
185
101
104
139
132
82
71
173
353
491
513
462
439
470
488
421
286
154
72
30
1
-29
-71
-130
-182
-176
-96
-15
-29
-114
-122
36
249
315
184
37
59
204
256
103
-124
-233
-216
-249
-443
-701
-839
-814
-746
-742
-759
-660
-381
0
336
533
591
568
527
505
503
490
442
360
288
275
326
387
379
267
93
-42
-74
-41
-32
-85
-140
-122
-19
111
213
259
236
125
-31
-129
-84
59
164
161
137
244
498
761
883
854
786
752
717
592
365
127
-11
-23
31
89
146
256
454
698
903
1003
990
893
740
563
418
349
350
375
393
430
547
711
831
841
771
691
617
518
386
306
344
454
505
429
303
241
250
245
165
58
-6
-11
10
53
153
300
408
404
312
230
224
262
280
239
143
40
-15
6
98
184
189
125
95
179
336
465
506
506
544
632
711
714
630
505
399
348
345
358
359
359
383
429
459
436
385
371
431
536
623
663
682
715
765
802
785
693
535
351
201
149
199
267
250
130
1
-42
-31
-104
-352
-699
-968
-1062
-1037
-1009
-998
-902
-615
-149
367
802
1115
1354
1573
1769
1877
1819
1584
1245
903
599
299
-28
-344
-549
-579
-462
-297
-158
-39
97
256
399
488
503
453
350
215
96
51
113
230
305
290
240
258
370
484
485
340
138
-21
-124
-206
-282
-318
-297
-245
-206
-164
-69
79
198
198
100
23
54
153
196
129
45
77
214
304
228
46
-60
7
154
220
163
89
94
148
154
87
23
12
2
-85
-226
-289
-180
43
214
239
170
134
185
244
212
74
-79
-151
-135
-94
-88
-116
-126
-90
-42
-34
-82
-143
-175
-164
-151
-179
-255
-342
-381
-351
-284
-239
-232
-228
-183
-105
-49
-48
-63
-31
28
28
-73
-173
-138
22
138
87
-42
-47
121
307
339
239
192
291
452
504
427
340
346
416
437
343
185
60
28
85
174
233
242
232
267
375
500
564
538
485
448
388
211
-69
-278
-247
-3
214
202
31
-39
176
544
733
588
280
109
155
232
144
-66
-187
-73
215
527
777
897
844
648
481
518
669
599
129
-487
-772
-556
-145
19
-167
-428
-497
-349
-130
69
218
280
249
208
288
512
732
806
756
695
652
551
374
235
258
433
644
796
908
1013
1078
1047
946
864
833
780
653
514
483
582
702
722
636
559
559
573
486
296
107
8
-42
-159
-385
-613
-707
-642
-527
-467
-414
-214
233
857
1503
2049
2465
2770
2984
3122
3191
3130
2851
2341
1733
1224
926
807
764
701
572
414
325
426
730
1081
1238
1090
743
421
285
340
473
537
464
312
222
287
473
634
635
417
11
-443
-725
-650
-267
113
195
27
-25
315
893
1273
1213
893
683
742
901
928
775
576
469
462
474
439
376
349
391
468
538
598
672
750
780
707
544
374
276
269
275
189
11
-88
105
603
1109
1247
937
517
392
615
842
734
315
-96
-229
-108
76
197
263
317
344
319
272
263
311
360
339
226
74
-29
-24
79
206
278
275
231
191
173
184
242
352
465
503
446
356
333
393
455
427
305
181
120
113
103
74
72
134
236
315
346
366
422
503
550
519
420
324
301
360
440
468
418
340
308
352
423
444
389
304
257
282
354
410
407
352
288
265
292
339
359
315
215
119
97
163
242
239
140
46
73
201
295
260
150
96
151
239
289
323
386
436
385
249
169
244
363
326
97
-116
-98
105
254
209
76
41
137
228
227
200
250
368
457
483
522
642
791
844
758
612
514
486
463
385
275
212
248
358
457
471
403
334
333
385
401
323
188
87
55
37
-21
-104
-154
-157
-160
-205
-276
-321
-325
-325
-386
-540
-759
-967
-1088
-1102
-1070
-1073
-1089
-970
-592
-22
508
844
1060
1345
1749
2095
2169
1952
1614
1317
1052
733
345
-20
-265
-379
-414
-412
-370
-282
-172
-77
-17
20
52
69
42
-43
-140
-164
-78
63
147
125
46
0
22
50
4
-122
-266
-362
-385
-342
-252
-157
-110
-126
-151
-112
-4
92
107
61
33
55
90
96
82
75
77
69
54
34
-21
-161
-363
-512
-515
-423
-371
-421
-483
-432
-247
-33
93
103
63
44
64
64
-47
-300
-604
-801
-811
-705
-612
-566
-489
-327
-135
-2
63
127
207
234
165
71
65
162
257
249
159
91
110
180
219
190
117
45
1
-10
5
39
91
153
206
233
225
200
173
146
118
100
101
104
71
-8
-75
-67
0
41
8
-41
-14
87
156
109
2
-49
-6
55
51
-3
-41
-32
-13
-20
-42
-42
-7
53
125
204
280
342
385
423
453
451
398
309
230
198
205
213
186
128
79
79
122
157
135
67
6
-17
-23
-50
-93
-113
-96
-76
-97
-146
-172
-140
-70
-9
22
31
27
5
-36
-85
-127
-163
-195
-207
-163
-43
125
288
407
485
552
630
707
756
759
717
650
582
539
533
555
585
600
589
564
548
553
573
592
589
559
500
429
378
368
389
414
412
375
319
267
247
271
314
299
162
-58
-227
-244
-160
-132
-246
-426
-534
-542
-539
-600
-686
-720
-690
-648
-605
-476
-178
241
638
920
1129
1365
1658
1913
2000
1854
1530
1165
870
637
393
120
-99
-156
-64
51
107
160
332
604
798
769
569
391
387
561
843
1170
1485
1736
1888
1964
1975
1825
1391
670
-143
-812
-1260
-1581
-1848
-1975
-1826
-1428
-988
-697
-555
-428
-255
-116
-135
-310
-500
-569
-487
-339
-200
-92
-15
26
39
41
47
48
32
24
58
134
186
153
62
-8
-2
40
40
-29
-112
-130
-73
3
27
-14
-74
-101
-101
-111
-155
-208
-239
-251
-278
-318
-322
-270
-203
-184
-206
-210
-153
-70
-36
-62
-94
-90
-75
-95
-166
-253
-303
-275
-157
39
275
500
664
722
659
509
333
164
-26
-276
-551
-727
-699
-487
-214
4
135
187
173
99
4
-81
-168
-306
-488
-608
-568
-403
-261
-251
-344
-432
-465
-487
-545
-618
-651
-638
-596
-533
-431
-295
-181
-140
-158
-167
-123
-55
-30
-82
-179
-258
-274
-231
-173
-154
-184
-216
-186
-79
43
104
80
16
-34
-62
-96
-144
-183
-196
-181
-152
-120
-97
-77
-60
-34
0
21
12
-8
-10
11
28
23
15
36
87
135
152
148
157
197
257
310
348
381
417
466
527
590
639
665
666
647
604
540
473
445
469
499
475
395
330
343
426
501
515
486
456
435
399
340
279
222
144
27
-91
-156
-182
-234
-341
-436
-442
-400
-436
-591
-735
-707
-493
-228
8
300
771
1376
1905
2214
2382
2578
2812
2896
2658
2150
1589
1133
756
357
-78
-451
-669
-732
-697
-606
-468
-293
-119
23
122
175
190
174
148
122
85
28
-22
-18
63
187
291
341
343
324
296
262
227
192
150
105
76
79
104
117
115
132
205
317
401
397
317
224
165
138
107
46
-30
-83
-76
-2
105
188
208
178
151
160
170
119
7
-84
-77
-2
32
-34
-132
-153
-78
-3
-9
-74
-128
-152
-173
-189
-154
-63
-5
-69
-212
-293
-238
-130
-105
-181
-259
-264
-239
-263
-314
-304
-210
-129
-161
-262
-292
-176
9
112
65
-57
-127
-99
-48
-83
-247
-470
-625
-629
-508
-361
-262
-193
-90
72
244
351
374
363
362
366
337
263
190
165
195
232
238
223
232
289
365
409
398
363
361
412
475
500
481
463
484
532
550
503
423
374
385
416
402
328
245
205
211
222
210
192
195
216
226
207
175
156
160
172
178
172
161
153
155
175
212
245
252
226
189
172
183
192
163
95
25
-3
17
55
78
89
119
187
282
377
444
472
474
477
514
591
677
722
717
701
726
799
870
882
826
741
678
664
681
683
637
558
500
500
518
480
366
247
217
279
340
317
239
195
228
280
280
217
116
-14
-177
-340
-451
-517
-619
-821
-1066
-1210
-1184
-1062
-951
-861
-689
-358
95
570
1002
1379
1698
1932
2053
2052
1926
1667
1288
855
449
117
-140
-337
-460
-481
-407
-288
-175
-90
-23
40
101
154
182
173
131
87
68
79
101
113
112
107
99
91
83
76
73
77
93
123
152
155
119
70
50
75
119
149
157
165
182
185
148
81
29
17
17
-17
-88
-136
-98
19
138
189
162
114
106
145
185
180
121
56
35
63
99
100
70
49
68
98
85
21
-39
-34
33
106
136
120
74
18
-24
-35
-42
-106
-233
-336
-310
-166
-34
-23
-116
-188
-150
-59
-31
-105
-217
-291
-309
-311
-315
-292
-196
-28
157
267
236
76
-98
-153
-62
-4
-171
-522
-755
-626
-267
-37
-95
-204
-52
323
587
547
367
270
189
-103
-558
-837
-761
-601
-707
-971
-951
-540
-173
-232
-461
-274
445
1086
1051
484
72
207
547
485
-94
-735
-960
-747
-463
-402
-497
-460
-141
280
503
452
352
406
518
365
-188
-856
-1185
-1011
-595
-304
-242
