180
167
163
160
143
115
103
130
191
262
329
396
464
517
538
534
538
566
605
628
624
607
599
611
634
656
667
663
646
626
606
582
562
566
604
659
702
728
763
821
868
837
691
450
162
-122
-378
-608
-844
-1121
-1420
-1643
-1695
-1584
-1422
-1278
-1073
-675
-81
528
957
1190
1355
1535
1656
1596
1350
1041
792
623
498
418
414
483
574
639
684
730
765
751
673
571
495
465
472
497
527
542
523
472
413
367
335
306
280
270
285
310
324
315
286
254
233
227
229
221
198
171
156
149
132
101
74
74
90
91
66
37
34
52
58
26
-29
-68
-76
-73
-93
-143
-197
-226
-230
-231
-245
-267
-280
-279
-278
-283
-285
-269
-239
-217
-214
-222
-220
-201
-174
-154
-149
-151
-144
-118
-79
-47
-31
-25
-19
-8
10
36
77
125
167
200
239
298
360
390
375
354
369
420
463
467
442
428
450
497
548
586
602
592
561
532
530
557
583
575
538
508
517
563
620
670
700
706
685
656
656
699
749
756
711
652
621
626
663
745
861
949
945
884
890
1027
1183
1160
891
527
264
133
6
-208
-439
-554
-521
-433
-383
-362
-312
-234
-212
-317
-505
-636
-602
-441
-296
-245
-213
-87
125
275
259
150
106
159
196
166
205
465
850
1047
875
504
256
220
149
-207
-775
-1230
-1344
-1210
-1069
-1024
-994
-880
-724
-640
-652
-676
-648
-622
-709
-940
-1235
-1491
-1663
-1780
-1888
-2025
-2209
-2398
-2478
-2339
-2000
-1610
-1288
-984
-559
-16
467
725
794
838
904
853
576
201
-15
7
95
93
103
353
850
1281
1316
958
485
116
-189
-588
-1075
-1459
-1577
-1456
-1246
-1023
-758
-418
-89
78
7
-212
-400
-428
-322
-239
-317
-541
-747
-767
-581
-339
-235
-349
-586
-766
-761
-601
-433
-384
-456
-554
-616
-671
-757
-833
-792
-620
-446
-410
-481
-478
-281
7
154
45
-199
-370
-383
-324
-317
-377
-439
-456
-449
-452
-457
-427
-365
-332
-379
-473
-526
-484
-379
-293
-266
-254
-186
-57
61
109
111
137
222
326
384
388
399
467
568
642
664
675
729
813
866
854
815
819
880
942
931
839
742
741
861
1007
1037
918
784
822
1074
1370
1486
1374
1185
1088
1094
1079
941
697
435
237
143
161
265
391
485
558
651
758
818
795
726
673
640
583
489
401
357
348
362
455
692
1020
1259
1254
1033
774
637
627
607
445
125
-235
-469
-478
-316
-146
-113
-221
-349
-383
-306
-189
-96
-37
3
39
79
142
244
364
449
457
397
323
296
335
410
484
547
605
636
601
491
374
331
372
432
473
546
721
950
1084
1020
828
657
528
271
-289
-1063
-1700
-1893
-1711
-1571
-1838
-2425
-2842
-2700
-2128
-1611
-1440
-1399
-1067
-327
541
1232
1734
2183
2547
2631
2398
2084
1916
1772
1336
597
-5
-64
274
434
104
-384
-497
-194
18
-249
-719
-762
-217
353
297
-337
-854
-755
-335
-298
-892
-1601
-1724
-1162
-505
-408
-956
-1705
-2181
-2279
-2193
-2123
-2099
-2049
-1905
-1613
-1156
-603
-161
-57
-304
-663
-896
-1007
-1188
-1500
-1747
-1737
-1570
-1517
-1657
-1773
-1690
-1583
-1772
-2275
-2700
-2680
-2289
-1932
-1851
-1875
-1710
-1366
-1151
-1293
-1661
-1922
-1915
-1783
-1763
-1884
-1972
-1859
-1586
-1355
-1306
-1400
-1500
-1514
-1473
-1452
-1480
-1517
-1501
-1412
-1281
-1140
-982
-772
-539
-408
-510
-812
-1095
-1147
-982
-836
-886
-1050
-1082
-887
-626
-519
-594
-705
-746
-752
-793
-835
-804
-722
-704
-805
-941
-968
-857
-728
-710
-823
-981
-1089
-1103
-1038
-955
-914
-931
-953
-916
-819
-738
-738
-795
-834
-820
-798
-818
-866
-876
-824
-764
-773
-854
-937
-953
-899
-830
-800
-811
-806
-721
-530
-273
-29
139
224
267
310
344
313
191
37
-41
16
164
305
392
467
598
778
935
1005
989
943
912
894
871
848
857
914
993
1052
1081
1112
1174
1237
1242
1173
1098
1099
1183
1281
1332
1363
1438
1569
1676
1663
1512
1264
954
597
221
-131
-451
-781
-1143
-1461
-1596
-1480
-1176
-798
-375
161
842
1564
2157
2544
2778
2936
3004
2901
2621
2277
2002
1835
1725
1641
1607
1644
1701
1705
1657
1633
1674
1708
1638
1474
1335
1326
1429
1537
1575
1551
1505
1454
1396
1341
1306
1295
1293
1304
1339
1384
1401
1368
1311
1274
1265
1249
1200
1138
1102
1103
1117
1131
1151
1181
1217
1237
1228
1196
1149
1090
1027
972
925
868
784
686
626
642
699
711
639
538
496
520
516
400
218
108
148
258
300
254
251
412
688
885
875
732
660
776
989
1078
925
630
414
403
517
557
427
230
146
244
417
516
506
480
521
592
590
476
324
229
204
182
112
22
-6
60
161
212
184
116
56
10
-35
-67
-55
-3
39
16
-58
-120
-132
-133
-181
-278
-372
-421
-447
-490
-546
-576
-559
-522
-497
-473
-416
-323
-224
-148
-95
-59
-41
-54
-99
-143
-164
-163
-156
-144
-119
-64
26
135
237
298
308
288
275
289
324
358
388
425
485
564
646
708
739
750
764
804
857
886
873
853
885
980
1078
1103
1063
1036
1074
1141
1152
1087
1015
1012
1058
1072
1014
943
937
996
1057
1078
1087
1131
1205
1251
1218
1105
933
688
355
-25
-362
-605
-805
-1053
-1341
-1527
-1453
-1113
-647
-188
283
875
1614
2356
2905
3190
3295
3334
3329
3219
2969
2641
2334
2114
1986
1928
1923
1960
2017
2059
2059
2020
1974
1949
1944
1915
1828
1719
1670
1723
1810
1808
1669
1482
1391
1433
1509
1507
1431
1380
1407
1448
1403
1279
1191
1214
1283
1274
1162
1060
1075
1169
1201
1103
966
917
968
1013
967
866
799
784
762
700
644
640
647
589
476
402
419
454
391
241
141
191
323
377
301
199
198
290
354
308
181
61
2
-1
25
58
86
108
153
250
379
473
487
439
375
311
238
181
222
391
590
657
544
395
392
551
697
650
423
208
168
295
452
533
542
534
529
513
493
504
564
630
636
563
465
423
479
588
655
595
418
231
154
206
283
276
182
99
106
167
177
91
-17
-45
14
60
16
-70
-68
75
255
323
265
223
336
583
812
921
949
973
992
931
761
543
340
161
-12
-155
-207
-158
-54
64
183
292
354
344
288
252
279
364
486
641
827
1021
1187
1289
1291
1174
980
810
745
766
771
705
653
752
1027
1306
1353
1065
556
48
-321
-549
-706
-848
-987
-1145
-1343
-1527
-1591
-1504
-1423
-1581
-2021
-2492
-2654
-2418
-2000
-1639
-1341
-948
-403
164
609
937
1230
1480
1566
1424
1134
828
534
207
-152
-451
-609
-644
-615
-510
-255
176
682
1090
1316
1398
1413
1394
1312
1139
908
690
539
450
386
333
324
387
495
580
597
550
484
439
427
458
524
572
527
376
192
68
17
-44
-191
-374
-493
-543
-653
-934
-1314
-1593
-1657
-1597
-1585
-1641
-1614
-1389
-1053
-812
-760
-781
-710
-519
-324
-209
-127
23
278
565
777
874
877
832
772
691
559
364
154
13
-18
31
75
88
110
154
150
22
-206
-412
-517
-559
-598
-641
-654
-619
-520
-294
83
455
564
363
160
295
636
608
-138
-1188
-1683
-1223
-277
391
577
765
1440
2492
3368
3701
3589
3324
3044
2715
2355
2086
1945
1808
1541
1201
995
997
1043
915
606
354
377
634
891
1008
1087
1300
1626
1840
1767
1481
1202
1036
889
648
364
224
325
562
738
777
763
814
948
1079
1119
1057
940
828
752
709
675
623
568
554
607
700
769
784
779
801
844
856
812
750
725
738
737
699
663
684
755
814
810
757
706
689
691
682
636
547
427
316
243
198
132
5
-173
-359
-550
-793
-1097
-1374
-1527
-1577
-1672
-1913
-2200
-2300
-2095
-1704
-1352
-1107
-819
-328
323
917
1281
1437
1522
1586
1550
1344
1042
808
735
771
807
800
773
736
662
566
539
652
822
881
773
641
673
864
987
827
407
-54
-388
-605
-799
-981
-1074
-1040
-937
-851
-795
-708
-562
-431
-414
-523
-665
-739
-727
-686
-663
-655
-649
-667
-716
-742
-665
-498
-374
-407
-549
-630
-566
-479
-560
-832
-1119
-1246
-1218
-1173
-1207
-1282
-1314
-1276
-1212
-1167
-1152
-1156
-1172
-1190
-1190
-1169
-1148
-1136
-1118
-1084
-1042
-1004
-959
-890
-807
-747
-716
-683
-625
-559
-523
-515
-493
-435
-374
-343
-332
-295
-214
-128
-69
-21
50
149
248
331
405
475
520
533
550
611
704
758
725
624
523
453
382
272
123
-28
-144
-207
-219
-192
-148
-112
-92
-81
-78
-89
-114
-133
-149
-184
-235
-258
-191
-48
71
95
86
171
370
533
504
327
195
208
244
124
-131
-302
-224
8
151
80
-107
-242
-299
-393
-620
-955
-1287
-1523
-1640
-1654
-1587
-1465
-1329
-1207
-1104
-1008
-917
-854
-848
-902
-982
-1038
-1036
-981
-914
-877
-882
-902
-907
-902
-929
-1024
-1162
-1267
-1277
-1208
-1141
-1145
-1211
-1283
-1315
-1314
-1324
-1394
-1572
-1869
-2214
-2483
-2603
-2653
-2806
-3131
-3477
-3601
-3420
-3093
-2814
-2592
-2260
-1720
-1087
-574
-273
-97
58
166
124
-90
-372
-593
-722
-811
-890
-930
-900
-823
-757
-734
-738
-748
-771
-826
-907
-982
-1017
-1004
-958
-906
-879
-894
-941
-979
-959
-877
-775
-690
-636
-625
-675
-790
-898
-898
-793
-738
-888
-1168
-1313
-1173
-946
-971
-1290
-1537
-1372
-947
-809
-1278
-2052
-2508
-2368
-1955
-1766
-1921
-2099
-1928
-1374
-719
-259
-82
-98
-190
-314
-474
-665
-845
-958
-995
-987
-963
-912
-807
-672
-585
-613
-747
-939
-1153
-1366
-1545
-1633
-1617
-1570
-1583
-1664
-1720
-1647
-1440
-1181
-978
-895
-930
-1044
-1173
-1247
-1249
-1228
-1247
-1314
-1373
-1362
-1264
-1110
-949
-816
-727
-691
-702
-728
-727
-696
-689
-784
-990
-1185
-1207
-1019
-788
-739
-913
-1103
-1077
-832
-587
-539
-668
-816
-898
-982
-1138
-1313
-1364
-1238
-1043
-929
-920
-902
-782
-616
-545
-623
-748
-780
-710
-667
-742
-865
-885
-772
-655
-668
-778
-820
-699
-496
-380
-439
-597
-701
-659
-499
-335
-261
-272
-279
-213
-101
-29
-36
-60
-15
94
180
176
128
137
253
426
569
641
673
706
746
758
707
603
490
421
416
452
504
555
605
649
674
672
642
570
427
187
-138
-481
-748
-895
-975
-1106
-1357
-1652
-1818
-1749
-1520
-1305
-1171
-988
-579
63
739
1254
1593
1873
2134
2269
2166
1875
1569
1359
1207
1030
843
744
775
869
927
928
923
940
939
873
760
671
653
691
739
772
790
792
761
699
642
626
646
660
644
623
633
672
705
699
672
663
691
729
733
672
576
511
529
610
668
629
513
425
440
518
542
442
282
194
238
350
421
410
377
403
495
577
567
469
361
311
310
290
214
112
51
56
93
101
59
-5
-35
-2
70
125
128
116
158
279
415
475
446
397
391
404
369
279
203
209
286
364
408
446
516
610
680
689
652
606
578
569
559
532
498
487
518
573
610
610
601
620
659
666
606
514
459
457
453
385
268
183
185
235
246
178
85
49
89
155
183
151
83
7
-52
-80
-73
-53
-60
-117
-199
-248
-225
-146
-72
-56
-100
-151
-150
-99
-60
-83
-153
-211
-218
-190
-154
-99
0
130
225
243
220
234
301
363
352
279
218
222
277
330
351
355
362
356
318
269
258
300
346
324
238
190
262
425
558
576
518
494
546
586
487
206
-195
-608
-975
-1297
-1617
-1985
-2397
-2758
-2925
-2826
-2531
-2180
-1818
-1358
-699
95
799
1230
1420
1539
1681
1762
1653
1346
991
753
672
669
652
593
534
532
604
703
747
688
568
484
487
534
549
524
515
551
582
543
435
331
296
327
369
367
317
257
234
261
310
341
354
381
444
512
530
483
419
379
346
272
156
60
39
82
129
136
110
87
89
105
106
72
1
-78
-135
-151
-140
-129
-138
-170
-209
-232
-233
-223
-224
-246
-263
-246
-201
-162
-148
-141
-120
-95
-95
-121
-133
-101
-44
-13
-27
-54
-53
-28
-12
-22
-32
-13
22
42
34
32
66
128
180
207
236
299
380
435
448
454
496
563
598
571
515
484
481
469
437
416
437
473
477
448
435
464
498
485
418
338
276
222
166
125
115
111
77
17
-17
-6
0
-57
-156
-218
-203
-166
-175
-209
-189
-80
58
151
194
236
287
290
200
35
-143
-283
-359
-366
-323
-274
-253
-224
-110
106
331
436
388
283
236
268
309
293
212
114
48
43
91
143
144
98
77
142
249
284
189
50
-1
55
114
80
-11
-45
20
102
107
37
-72
-250
-574
-1017
-1419
-1650
-1797
-2084
-2578
-3069
-3265
-3107
-2799
-2531
-2256
-1791
-1093
-347
222
561
782
965
1053
947
665
367
217
241
307
264
97
-69
-111
-52
-45
-201
-462
-647
-645
-515
-398
-349
-317
-248
-181
-209
-372
-608
-804
-880
-821
-660
-457
-277
-171
-176
-292
-466
-609
-656
-633
-625
-676
-727
-670
-473
-238
-135
-249
-511
-754
-836
-754
-638
-654
-846
-1079
-1165
-1069
-956
-1006
-1208
-1377
-1373
-1270
-1246
-1344
-1417
-1340
-1190
-1160
-1322
-1530
-1612
-1577
-1572
-1656
-1693
-1514
-1151
-825
-722
-805
-889
-863
-803
-837
-976
-1101
-1124
-1081
-1067
-1095
-1081
-963
-814
-768
-854
-919
-772
-415
-97
-88
-394
-744
-836
-644
-425
-458
-761
-1066
-1066
-687
-154
192
210
109
207
557
862
802
395
-49
-314
-453
-588
-675
-675
-846
-1602
-2955
-4270
-4797
-4451
-3880
-3690
-3767
-3486
-2480
-1048
189
870
1063
1007
867
726
643
626
607
520
399
369
498
717
892
933
823
588
285
-13
-236
-340
-315
-185
-11
125
167
122
36
-27
-19
88
274
454
520
427
262
179
275
484
660
700
608
437
229
3
-212
-395
-554
-711
-869
-980
-975
-852
-712
-697
-870
-1137
-1308
-1250
-1001
-728
-577
-563
-599
-611
-618
-696
-909
-1271
-1729
-2168
-2443
-2460
-2224
-1823
-1323
-733
-71
567
1052
1320
1422
1437
1377
1206
940
675
501
398
293
193
189
343
581
754
804
813
877
967
958
785
541
372
312
265
158
29
-26
10
45
-9
-142
-256
-295
-279
-253
-245
-260
-306
-370
-403
-359
-264
-206
-249
-344
-386
-336
-252
-204
-194
-176
-148
-164
-246
-344
-387
-370
-350
-374
-419
-434
-405
-358
-332
-354
-425
-510
-567
-575
-563
-574
-615
-642
-615
-551
-498
-472
-455
-435
-429
-445
-455
-424
-365
-330
-348
-382
-382
-347
-312
-297
-303
-319
-340
-353
-336
-294
-259
-250
-244
-204
-120
-14
106
253
382
364
104
-303
-609
-658
-547
-509
-621
-700
-515
-82
334
495
419
326
354
447
479
427
400
511
751
1013
1186
1230
1192
1169
1199
1190
965
434
-240
-722
-787
-533
-265
-171
-151
9
386
828
1135
1234
1185
1074
946
822
732
686
666
652
650
701
815
956
1085
1190
1268
1308
1293
1242
1222
1296
1452
1615
1710
1724
1691
1649
1608
1569
1540
1526
1530
1559
1616
1683
1722
1708
1656
1612
1605
1612
1589
1523
1442
1379
1345
1337
1358
1415
1489
1538
1523
1455
1387
1337
1229
941
457
-69
-425
-571
-689
-975
-1373
-1610
-1493
-1141
-833
-655
-403
133
865
1491
1826
1986
2181
2422
2522
2361
2049
1792
1653
1532
1354
1189
1153
1243
1337
1350
1305
1262
1210
1104
971
907
961
1050
1058
984
939
999
1090
1077
918
704
548
475
449
445
462
491
495
455
405
400
456
522
541
504
438
367
292
215
156
128
101
13
-168
-371
-479
-440
-337
-298
-365
-447
-449
-390
-365
-416
-483
-496
-486
-537
-655
-742
-714
-609
-558
-629
-760
-839
-825
-766
-725
-717
-720
-710
-684
-645
-592
-533
-484
-460
-465
-485
-489
-448
-368
-305
-317
-399
-471
-451
-352
-267
-261
-297
-292
-226
-163
-166
-207
-218
-186
-164
-203
-282
-328
-307
-254
-226
-246
-290
-317
-304
-256
-203
-173
-170
-171
-148
-97
-41
0
24
33
7
-76
-198
-307
-358
-357
-351
-373
-411
-426
-400
-351
-314
-301
-300
-301
-310
-343
-403
-469
-507
-497
-453
-408
-388
-385
-375
-342
-300
-274
-282
-327
-396
-462
-490
-459
-384
-306
-259
-237
-202
-127
-33
40
70
73
76
95
130
173
213
234
225
192
152
117
84
45
9
-7
5
29
46
64
104
160
194
171
100
23
-35
-103
-235
-455
-747
-1066
-1359
-1596
-1791
-2008
-2311
-2667
-2913
-2885
-2585
-2202
-1903
-1639
-1204
-517
223
700
805
732
740
868
922
708
264
-173
-383
-323
-128
15
28
-4
79
343
675
873
845
697
610
653
733
732
640
543
500
484
437
347
251
165
53
-113
-286
-361
-274
-77
112
196
174
114
77
53
-42
-304
-724
-1117
-1237
-1033
-776
-838
-1306
-1854
-2043
-1789
-1433
-1338
-1505
-1586
-1293
-692
-86
268
340
272
201
147
44
-187
-513
-788
-890
-846
-804
-856
-918
-871
-774
-832
-1148
-1563
-1796
-1733
-1530
-1401
-1391
-1397
-1322
-1187
-1069
-1019
-1027
-1067
-1112
-1120
-1059
-963
-922
-994
-1120
-1151
-1009
-763
-546
-411
-299
-152
-35
-59
-222
-381
-408
-340
-325
-413
-480
-373
-106
146
235
182
110
85
57
-43
-196
-324
-372
-338
-257
-171
-124
-143
-191
-176
-67
46
24
-150
-329
-360
-250
-148
-157
-214
-207
-129
-81
-123
-186
-165
-50
66
102
83
86
140
203
209
140
40
-28
-41
-21
7
38
87
149
192
198
220
314
470
595
614
557
529
587
668
691
661
651
716
815
854
798
713
695
764
841
841
782
792
969
1244
1428
1402
1230
1091
1078
1119
1072
880
585
251
-77
-350
-518
-592
-671
-850
-1089
-1224
-1127
-828
-457
-88
326
848
1428
1919
2224
2372
2443
2456
2362
2131
1826
1555
1389
1329
1351
1431
1524
1565
1520
1434
1396
1438
1476
1415
1271
1160
1166
1247
1303
1304
1310
1346
1352
1276
1190
1222
1384
1530
1541
1474
1472
1553
1588
1490
1342
1275
1299
1306
1263
1268
1404
1581
1631
1510
1337
1231
1166
1035
804
543
341
237
240
335
463
516
437
297
231
289
376
376
267
126
50
81
200
351
447
408
241
65
8
69
118
38
-131
-239
-190
-57
21
0
-40
-11
57
72
10
-43
-4
103
186
206
217
296
439
574
643
653
641
638
657
682
684
651
602
599
695
857
995
1052
1056
1081
1154
1228
1236
1156
1028
909
844
843
876
884
830
749
713
744
785
765
686
637
673
740
733
627
513
481
498
449
290
129
102
215
320
295
193
169
298
476
546
474
378
383
493
604
634
602
593
654
751
819
831
813
804
808
803
798
829
903
967
960
893
861
927
1042
1087
1023
930
903
949
983
956
900
867
853
826
786
779
829
900
946
973
1025
1102
1136
1062
870
593
252
-134
-527
-887
-1231
-1640
-2130
-2558
-2710
-2511
-2117
-1744
-1416
-932
-140
820
1598
1974
2041
2065
2177
2255
2121
1764
1362
1104
1051
1141
1279
1388
1426
1401
1367
1381
1418
1382
1212
962
759
683
709
753
765
746
716
687
667
661
661
645
616
604
626
650
627
562
522
552
623
669
661
626
584
521
436
379
391
443
449
376
300
317
413
475
420
289
199
196
214
175
86
36
80
170
206
138
12
-84
-98
-55
-16
-33
-105
-182
-196
-123
-8
65
30
-74
-148
-128
-46
9
-9
-56
-52
21
101
132
119
112
134
162
167
165
187
240
299
350
409
498
596
652
641
613
637
722
799
805
755
732
784
865
890
842
779
768
813
856
838
758
659
593
585
613
622
580
510
474
502
537
505
398
272
176
110
50
-3
-39
-69
-115
-146
-90
72
248
328
311
314
439
650
807
817
722
641
652
735
792
748
619
504
477
506
511
487
519
636
719
630
424
338
511
778
836
609
354
359
608
829
837
718
664
732
820
846
832
817
763
630
474
419
513
657
720
680
621
607
599
513
307
-10
-409
-851
-1261
-1551
-1706
-1824
-2016
-2254
-2369
-2227
-1897
-1567
-1330
-1081
-673
-135
359
701
947
1192
1387
1369
1081
705
492
490
503
338
57
-89
49
331
462
308
27
-123
-53
84
93
-49
-194
-213
-121
-29
-10
-49
-120
-222
-341
-411
-377
-290
-273
-385
-534
-576
-475
-332
-258
-258
-278
-290
-310
-346
-366
-359
-371
-455
-587
-679
-666
-589
-530
-514
-518
-537
-602
-712
-794
-775
-689
-657
-734
-830
-811
-662
-505
-453
-488
-517
-519
-563
-681
-787
-772
-645
-534
-512
-474
-240
221
697
937
873
636
391
158
-182
-723
-1404
-2046
-2447
-2503
-2238
-1769
-1229
-727
-340
-105
-14
-6
-35
-151
-429
-822
-1087
-947
-361
390
939
1152
1190
1258
1362
1326
996
403
-238
-706
-918
-930
-860
-826
-894
-1058
-1237
-1318
-1264
-1199
-1302
-1564
-1681
-1288
-386
558
984
761
254
-112
-295
-602
-1270
-2169
-2950
-3349
-3331
-3020
-2576
-2122
-1721
-1364
-1006
-668
-437
-402
-538
-729
-891
-1008
-1079
-1071
-969
-839
-778
-808
-847
-819
-746
-701
-698
-671
-572
-458
-412
-421
-389
-266
-125
-79
-144
-230
-249
-228
-246
-336
-470
-597
-685
-722
-692
-609
-519
-470
-462
-455
-410
-324
-221
-138
-108
-166
-318
-542
-815
-1121
-1441
-1738
-1983
-2200
-2438
-2691
-2856
-2814
-2550
-2172
-1779
-1354
-809
-143
507
973
1216
1332
1418
1454
1355
1101
794
562
435
347
254
196
239
357
437
400
295
233
262
322
330
284
250
284
374
467
534
558
528
457
390
371
376
349
285
236
229
215
129
19
19
170
337
344
190
48
42
102
70
-78
-202
-179
-59
5
-43
-94
-25
141
246
174
-40
-253
-373
-456
-616
-889
-1184
-1354
-1323
-1140
-918
-726
-557
-372
-145
111
353
509
530
446
362
383
483
542
477
346
287
358
476
525
499
494
575
695
771
786
807
877
956
977
944
933
997
1103
1182
1208
1225
1286
1389
1484
1520
1465
1347
1226
1176
1227
1318
1349
1277
1185
1193
1325
1470
1486
1364
1222
1179
1229
1284
1329
1451
1715
2050
2298
2385
2386
2402
2406
2257
1873
1345
849
505
299
157
47
-16
-10
72
226
433
638
758
747
654
572
558
587
585
522
427
349
319
332
379
464
583
712
810
861
898
978
1112
1222
1205
1061
915
909
1049
1196
1205
1063
879
763
744
774
788
718
557
395
375
545
767
854
804
791
928
1105
1122
938
672
369
-96
-780
-1465
-1859
-2027
-2365
-3071
-3776
-3877
-3239
-2359
-1778
-1474
-966
30
1243
2143
2486
2442
2301
2192
2062
1831
1494
1117
842
790
974
1262
1474
1582
1699
1882
2027
1977
1719
1402
1195
1133
1141
1150
1168
1220
1287
1334
1341
1320
1289
1261
1234
1182
1077
947
870
900
988
1028
968
879
882
995
1115
1126
1033
935
897
906
898
841
753
678
645
650
668
663
623
591
613
678
698
587
346
88
-63
-81
-53
-91
-215
-338
-351
-232
-75
5
-27
-113
-168
-159
-110
-52
10
70
123
192
303
438
534
548
517
513
551
555
473
368
360
475
601
611
517
442
481
598
685
683
629
601
639
712
762
771
766
785
838
884
878
825
781
780
808
807
745
662
625
643
655
610
534
492
501
506
457
388
366
388
370
265
157
168
294
382
295
88
-68
-93
-87
-195
-421
-624
-695
-671
-662
-705
-740
-722
-685
-696
-760
-823
-860
-898
-952
-968
-890
-753
-667
-682
-715
-641
-461
-321
-349
-490
-563
-462
-265
-134
-119
-131
-82
-1
13
-63
-137
-111
-12
40
-26
-143
-192
-138
-67
-77
-165
-247
-261
-238
-239
-275
-304
-312
-360
-533
-853
-1230
-1521
-1661
-1723
-1855
-2119
-2389
-2461
-2255
-1887
-1522
-1200
-844
-422
-18
273
463
611
680
562
236
-138
-365
-407
-387
-413
-452
-387
-154
196
528
693
620
381
127
-20
-90
-220
-478
-727
-744
-449
10
392
575
626
652
640
459
10
-634
-1258
-1684
-1884
-1924
-1814
-1494
-940
-248
417
909
1165
1180
984
666
365
154
-9
-198
-403
-537
-528
-439
-408
-507
-696
-871
-947
-919
-871
-899
-1004
-1090
-1059
-950
-920
-1084
-1370
-1591
-1635
-1566
-1513
-1512
-1484
-1374
-1249
-1227
-1347
-1538
-1694
-1758
-1743
-1694
-1639
-1572
-1466
-1297
-1083
-899
-829
-891
-1001
-1034
-963
-877
-879
-965
-1033
-990
-842
-697
-639
-665
-689
-646
-547
-462
-445
-470
-456
-362
-239
-181
-217
-268
-241
-143
-89
-159
-303
-391
-344
-215
-121
-128
-194
-230
-186
-98
-57
-123
-273
-427
-512
-519
-504
-514
-540
-540
-491
-405
-302
-195
-105
-58
-47
-25
50
145
178
117
41
69
214
360
378
277
182
183
244
274
249
236
295
417
544
653
771
908
1018
1052
1039
1067
1188
1348
1441
1428
1384
1405
1502
1585
1568
1452
1315
1230
1210
1229
1268
1317
1364
1392
1396
1407
1449
1516
1571
1585
1555
1502
1447
1392
1309
1136
826
402
-31
-373
-636
-930
-1303
-1635
-1729
-1524
-1168
-840
-522
-31
725
1564
2183
2463
2567
2722
2946
3050
2891
2552
2248
2120
2125
2151
2146
2133
2127
2109
2055
1970
1879
1789
1699
1609
1533
1497
1523
1614
1737
1831
1841
1757
1628
1531
1506
1524
1525
1474
1390
1323
1310
1348
1393
1400
1373
1355
1379
1438
1505
1561
1593
1572
1476
1352
1305
1395
1550
1631
1578
1477
1444
1479
1481
1390
1253
1152
1096
1030
935
846
791
740
654
545
466
433
397
307
182
89
64
69
41
-25
-74
-69
-31
-19
-62
-128
-145
-90
-9
35
21
-1
3
4
-61
-203
-343
-371
-265
-128
-69
-91
-91
7
158
248
231
174
166
212
243
214
160
133
147
181
217
257
298
334
374
447
552
639
667
667
700
769
784
679
508
403
431
503
491
383
320
432
672
860
856
703
558
527
567
563
476
385
386
490
632
768
912
1077
1207
1228
1151
1075
1083
1140
1134
1030
920
923
1055
1213
1289
1277
1262
1316
1431
1526
1539
1490
1459
1511
1619
1691
1668
1588
1545
1585
1656
1675
1617
1526
1470
1473
1520
1582
1610
1568
1478
1419
1475
1645
1813
1856
1746
1559
1388
1194
672
159
-369
-790
-1109
-1439
-1843
-2207
-2335
-2166
-1839
-1515
-1164
-605
222
1127
1828
2236
2476
2688
2832
2783
2532
2204
1922
1700
1502
1359
1347
1470
1625
1706
1700
1672
1666
1656
1596
1485
1360
1263
1221
1233
1269
1279
1236
1156
1097
1088
1104
1105
1077
1044
1019
990
948
906
880
856
812
751
707
692
673
614
524
438
375
325
281
254
245
226
168
85
30
31
44
5
-97
-204
-254
-237
-201
-201
-252
-322
-366
-371
-365
-388
-443
-493
-502
-483
-482
-511
-537
-522
-480
-465
-503
-557
-571
-525
-456
-407
-386
-371
-345
-305
-263
-231
-212
-200
-182
-148
-110
-80
-51
8
116
237
308
312
298
327
393
433
403
338
311
341
379
370
332
336
419
532
590
558
475
395
331
252
128
-35
-195
-307
-359
-368
-368
-378
-381
-355
-309
-283
-311
-392
-485
-561
-612
-643
-655
-663
-689
-734
-762
-726
-640
-577
-598
-671
-713
-693
-663
-685
-751
-803
-820
-842
-891
-911
-837
-691
-571
-535
-532
-472
-344
-238
-231
-302
-370
-398
-413
-440
-452
-408
-339
-322
-379
-425
-360
-201
-103
-198
-445
-659
-710
-646
-620
-711
-845
-899
-849
-779
-772
-829
-915
-1063
-1352
-1796
-2273
-2640
-2895
-3181
-3603
-4047
-4248
-4062
-3623
-3184
-2831
-2393
-1692
-804
-26
424
602
725
882
955
787
391
-41
-325
-426
-427
-415
-408
-375
-295
-176
-61
2
-22
-119
-234
-314
-352
-381
-424
-451
-401
-267
-124
-60
-83
-117
-106
-86
-139
-294
-496
-673
-790
-834
-790
-670
-540
-465
-428
-355
-240
-203
-353
-630
-843
-867
-780
-747
-805
-827
-693
-453
-279
-277
-401
-528
-590
-619
-673
-757
-825
-830
-778
-719
-700
-723
-743
-729
-702
-708
-753
-767
-692
-556
-445
-400
-377
-322
-255
-234
-263
-292
-315
-393
-526
-562
-326
134
527
604
440
348
509
776
863
680
390
195
135
137
169
257
391
487
490
446
444
500
524
447
297
162
98
97
125
168
231
302
347
336
263
156
60
19
44
106
141
112
50
39
130
283
392
386
292
203
172
172
148
96
61
81
140
200
246
301
371
425
423
359
268
182
108
41
-12
-39
-37
-11
74
272
588
935
1184
1289
1328
1404
1515
1552
1430
1211
1028
954
940
902
823
762
761
794
804
754
652
534
418
289
120
-67
-171
-89
152
369
389
255
186
324
534
520
151
-373
-735
-826
-823
-950
-1230
-1505
-1633
-1618
-1543
-1425
-1214
-903
-577
-328
-141
95
444
836
1138
1301
1388
1479
1575
1615
1582
1532
1528
1550
1513
1375
1192
1073
1057
1100
1114
1057
978
964
1050
1165
1204
1150
1068
983
837
563
226
-15
-161
-441
-1024
-1692
-1984
-1738
-1374
-1415
-1781
-1837
-1262
-630
-832
-1936
-2943
-2856
-1792
-763
-425
-371
225
1516
2781
3292
3041
2526
2067
1580
926
252
-155
-209
-60
104
243
407
571
645
570
339
-10
-400
-716
-863
-838
-734
-647
-587
-534
-508
-574
-728
-865
-866
-729
-572
-509
-542
-576
-545
-474
-429
-438
-464
-463
-419
-347
-269
-215
-224
-308
-421
-488
-475
-422
-399
-420
-428
-362
-241
-132
-65
-8
71
136
128
50
-21
-18
27
25
-44
-95
-41
82
139
59
-75
-133
-82
-32
-91
-223
-290
-213
-66
8
-52
-167
-233
-233
-238
-308
-415
-479
-454
-360
-259
-183
-134
-102
-74
-37
24
100
154
154
114
90
127
220
317
366
371
378
444
588
767
912
980
997
1029
1105
1170
1143
1007
851
797
869
970
983
906
858
938
1103
1197
1128
969
885
941
1026
979
763
512
383
392
412
326
133
-79
-236
-323
-356
-374
-433
-595
-848
-1064
-1077
-855
-539
-275
-40
324
877
1472
1904
2126
2254
2359
2364
2180
1890
1707
1723
1791
1707
1464
1247
1188
1200
1090
796
453
229
158
151
129
106
147
274
429
528
527
444
331
236
167
97
-4
-122
-209
-221
-171
-117
-114
-167
-227
-234
-180
-104
-46
-24
-31
-60
-105
-154
-183
-187
-193
-237
-334
-455
-562
-628
-646
-637
-632
-659
-715
-774
-799
-776
-727
-691
-703
-765
-847
-891
-851
-736
-634
-632
-732
-835
-844
-760
-686
-703
-781
-817
-754
-636
-537
-494
-485
-482
-488
-518
-561
-578
-541
-471
-410
-375
-344
-280
-179
-91
-69
-114
-179
-207
-192
-155
-119
-78
-31
17
60
118
205
293
324
274
184
131
140
176
191
182
181
199
206
180
144
127
126
98
20
-75
-129
-123
-98
-97
-103
-66
18
86
68
-17
-77
-52
9
5
-83
-173
-178
-102
-27
1
23
85
157
174
124
66
53
71
61
8
-51
-72
-26
104
296
471
537
482
399
381
406
365
236
143
202
390
584
712
817
927
979
909
779
712
723
674
473
249
216
409
613
612
450
334
347
351
184
-107
-338
-429
-509
-754
-1174
-1583
-1768
-1702
-1598
-1717
-2072
-2351
-2223
-1761
-1473
-1779
-2460
-2830
-2492
-1801
-1456
-1673
-1951
-1663
-741
325
1041
1317
1358
1360
1416
1554
1723
1785
1610
1258
961
904
1049
1205
1237
1151
986
746
464
222
109
135
210
215
102
-72
-176
-121
50
182
155
0
-149
-207
-192
-146
-65
59
143
68
-162
-390
-454
-371
-313
-395
-537
-576
-465
-324
-290
-378
-483
-517
-496
-499
-570
-685
-787
-825
-777
-659
-524
-421
-373
-368
-378
-385
-384
-377
-386
-457
-605
-752
-779
-641
-446
-360
-409
-459
-351
-73
223
371
328
184
59
14
30
36
-12
-68
-45
78
221
275
235
222
334
524
660
705
750
877
1043
1116
1053
945
892
895
878
806
737
750
852
966
1017
1002
966
945
927
859
712
527
385
340
374
448
547
685
840
906
794
562
380
359
421
374
165
-25
12
252
464
486
416
457
637
768
713
580
587
776
959
977
888
870
973
1064
1044
983
1012
1127
1187
1123
1042
1108
1325
1523
1547
1417
1286
1277
1382
1491
1515
1460
1400
1400
1454
1505
1501
1439
1362
1308
1287
1282
1283
1302
1353
1436
1513
1537
1493
1414
1346
1283
1161
910
540
173
-63
-152
-214
-382
-653
-874
-895
-707
-435
-182
93
505
1074
1666
2115
2383
2545
2649
2642
2446
2096
1733
1479
1338
1242
1167
1147
1191
1248
1249
1193
1141
1140
1152
1106
980
828
756
821
966
1054
975
757
541
440
439
423
332
227
215
314
424
458
434
437
490
527
478
352
213
112
42
-22
-78
-112
-121
-112
-82
-18
59
102
95
62
39
14
-60
-187
-313
-378
-397
-431
-508
-587
-601
-545
-480
-462
-488
-508
-485
-422
-334
-234
-152
-121
-144
-174
-161
-111
-80
-106
-146
-112
15
167
273
320
356
400
442
468
495
544
600
625
599
556
548
596
676
728
704
629
596
696
897
1056
1054
938
880
983
1154
1201
1060
855
754
797
894
941
927
899
899
938
990
1015
978
887
802
768
757
706
603
525
534
579
548
415
302
341
517
670
688
641
667
794
902
881
772
702
726
755
690
557
484
552
703
818
850
849
873
928
979
1006
1026
1046
1036
974
902
908
1022
1164
1210
1125
1008
991
1097
1210
1208
1099
1003
998
1043
1043
987
953
995
1059
1058
985
915
901
896
812
631
404
163
-117
-440
-742
-961
-1140
-1388
-1720
-1982
-1979
-1689
-1281
-926
-611
-187
426
1116
1672
1971
2051
2030
1988
1913
1745
1464
1144
919
865
935
994
965
919
988
1194
1377
1343
1073
763
623
654
663
496
212
11
20
165
282
298
281
322
422
507
510
432
327
244
202
180
142
77
28
58
174
289
303
215
120
104
147
163
111
34
-11
-16
-10
-5
4
6
-22
-74
-100
-74
-35
-56
-147
-238
-264
-250
-283
-404
-558
-657
-672
-645
-641
-664
-656
-565
-414
-293
-280
-359
-433
-421
-352
-339
-447
-623
-735
-708
-587
-474
-429
-432
-432
-401
-345
-272
-189
-112
-70
-71
-86
-71
-14
43
30
-70
-204
-282
-271
-226
-232
-298
-346
-304
-206
-145
-165
-206
-200
-179
-240
-420
-629
-741
-728
-674
-682
-769
-867
-898
-823
-668
-513
-446
-494
-573
-558
-420
-265
-229
-316
-383
-320
-180
-111
-169
-279
-333
-316
-272
-232
-204
-218
-313
-468
-607
-718
-898
-1214
-1551
-1679
-1501
-1188
-971
-879
-742
-435
-63
173
208
150
115
126
173
307
591
991
1373
1606
1661
1566
1332
946
421
-181
-775
-1283
-1627
-1735
-1595
-1281
-938
-720
-720
-932
-1294
-1736
-2208
-2673
-3106
-3507
-3893
-4244
-4458
-4401
-4049
-3569
-3182
-2928
-2617
-2050
-1289
-619
-242
-72
111
358
482
303
-120
-529
-732
-760
-755
-783
-785
-694
-535
-380
-265
-181
-137
-176
-304
-429
-431
-275
-55
106
165
164
147
105
31
-44
-73
-69
-95
-177
-262
-272
-188
-68
19
51
41
14
4
50
157
260
274
192
124
187
359
496
487
366
263
265
330
363
325
250
189
166
177
198
199
155
76
22
46
140
242
311
366
428
477
485
473
487
520
495
365
206
159
260
378
366
227
110
124
216
260
229
231
355
557
708
757
801
950
1185
1364
1371
1253
1171
1230
1386
1514
1544
1520
1523
1577
1636
1646
1581
1453
1295
1146
1049
1035
1092
1163
1176
1100
994
949
983
982
762
254
-389
-885
-1055
-954
-778
-649
-505
-203
287
821
1197
1311
1218
1048
899
794
720
680
710
833
1041
1276
1456
1521
1481
1390
1296
1192
1024
782
549
430
464
571
640
672
739
847
890
804
699
788
1140
1556
1756
1665
1469
1369
1367
1305
1098
859
749
784
844
843
825
874
974
1014
934
798
721
729
758
746
706
679
670
636
544
393
172
-148
-542
-903
-1141
-1308
-1561
-1924
-2160
-1969
-1331
-602
-180
-85
63
615
1479
2203
2420
2200
1937
1947
2200
2426
2430
2236
1983
1730
1423
1006
532
83
-334
-764
-1192
-1481
-1502
-1293
-1035
-839
-614
-192
389
817
791
365
-66
-177
-63
-88
-429
-828
-867
-444
129
517
717
943
1224
1296
940
279
-358
-832
-1302
-1915
-2525
-2818
-2673
-2265
-1855
-1538
-1280
-1075
-968
-968
-1016
-1082
-1217
-1458
-1723
-1877
-1873
-1799
-1793
-1907
-2067
-2109
-1859
-1296
-650
-292
-426
-854
-1145
-1067
-829
-840
-1271
-1895
-2340
-2415
-2157
-1697
-1185
-801
-686
-809
-958
-950
-826
-779
-867
-943
-866
-672
-478
-249
160
711
1052
827
110
-603
-886
-791
-720
-933
-1296
-1489
-1376
-1072
-735
-387
-11
291
353
162
-42
21
371
715
730
368
-111
-411
-472
-475
-620
-939
-1275
-1414
-1246
-830
-341
52
295
435
521
523
361
25
-385
-735
-956
-1058
-1061
-961
-770
-539
-333
-174
-58
-19
-107
-321
-564
-714
-729
-652
-534
-369
-121
200
513
729
835
879
896
863
739
540
360
299
370
491
580
641
739
882
994
992
883
770
727
720
661
522
376
317
363
451
517
545
549
538
506
445
342
177
-48
-294
-502
-668
-845
-1082
-1339
-1492
-1441
-1198
-857
-497
-117
336
881
1443
1892
2122
2117
1962
1773
1623
1484
1286
1012
758
648
708
826
865
815
795
919
1149
1331
1358
1256
1117
975
782
498
151
-182
-453
-652
-765
-765
-652
-478
-294
-124
27
123
111
-4
-132
-180
-170
-209
-333
-453
-465
-387
-330
-340
-357
-348
-374
-479
-558
-468
-304
-443
-1159
-2222
-3026
-3175
-2863
-2596
-2596
-2579
-2138
-1233
-227
492
814
858
763
593
384
184
8
-151
-293
-374
-353
-256
-135
-13
90
117
7
-197
-345
-346
-330
-569
-1192
-2019
-2691
-3011
-3085
-3131
-3185
-3055
-2553
-1732
-860
-189
211
420
525
556
524
463
418
395
355
279
198
140
86
36
60
245
532
665
421
-79
-386
-168
372
624
188
-709
-1467
-1742
-1730
-1847
-2239
-2692
-2957
-2986
-2849
-2575
-2197
-1877
-1811
-1989
-2151
-2081
-1879
-1863
-2176
-2613
-2845
-2766
-2529
-2310
-2144
-1961
-1732
-1519
-1387
-1331
-1308
-1288
-1258
-1217
-1160
-1103
-1076
-1074
-1071
-1043
-1014
-1026
-1080
-1106
-1007
-781
-527
-374
-364
-430
-485
-516
-583
-729
-923
-1095
-1190
-1197
-1137
-1042
-948
-869
-798
-731
-686
-699
-766
-828
-840
-837
-905
-1080
-1302
-1486
-1623
-1757
-1906
-2036
-2103
-2125
-2137
-2130
-2033
-1790
-1428
-1039
-694
-401
-125
171
465
667
687
519
309
270
466
702
689
369
28
4
311
613
592
301
85
176
460
652
638
571
649
883
1112
1197
1143
1045
972
927
884
815
710
611
600
725
916
1017
942
770
686
787
989
1128
1115
1016
954
982
1045
1073
1055
1052
1118
1233
1313
1301
1216
1117
1042
969
862
723
603
571
643
764
852
867
849
867
934
988
959
852
748
698
667
599
525
542
666
788
790
708
703
860
1071
1166
1118
1067
1143
1311
1428
1406
1296
1196
1153
1161
1213
1301
1386
1418
1424
1511
1738
2013
2151
2085
1954
1954
2111
2247
2199
2023
1931
2039
2241
2332
2240
2088
2039
2120
2196
2132
1935
1752
1722
1846
1992
2027
1948
1870
1891
1989
2045
1976
1829
1717
1685
1679
1643
1618
1694
1863
1980
1908
1694
1545
1599
1761
1812
1673
1497
1488
1670
1886
1980
1951
1888
1841
1794
1751
1757
1834
1913
1907
1832
1813
1952
2186
2334
2284
2114
2012
2070
2195
2228
2122
2005
2030
2200
2370
2405
2315
2209
2161
2140
2082
1982
1899
1874
1898
1929
1950
1981
2024
2024
1905
1634
1261
885
579
339
86
-259
-688
-1076
-1256
-1152
-869
-594
-403
-154
363
1170
2004
2529
2667
2642
2699
2820
2779
2448
1981
1637
1483
1365
1157
941
903
1066
1230
1204
1027
893
915
1008
1017
898
743
662
675
712
698
610
496
423
419
451
458
423
390
385
372
298
189
132
166
223
220
192
228
344
417
344
192
134
229
362
389
299
211
211
258
254
172
62
-15
-55
-78
-91
-89
-83
-97
-139
-178
-184
-163
-164
-232
-348
-441
-458
-407
-356
-345
-351
-329
-267
-205
-183
-199
-225
-247
-277
-314
-338
-319
-261
-205
-179
-165
-125
-49
43
109
125
103
77
82
126
201
277
336
371
389
401
415
422
416
388
333
262
198
181
236
335
407
400
327
253
228
233
209
127
15
-73
-106
-90
-47
1
25
1
-61
-106
-87
-23
-4
-90
-231
-302
-250
-161
-159
-257
-332
-276
-126
-31
-78
-183
-191
-62
92
137
48
-66
-92
-26
57
97
107
130
190
269
331
354
359
384
454
545
595
568
514
529
657
827
913
873
785
755
797
831
795
704
605
518
449
435
512
643
721
696
640
632
618
420
-48
-648
-1137
-1413
-1612
-1928
-2394
-2848
-3095
-3069
-2856
-2590
-2329
-2023
-1570
-925
-170
528
1039
1358
1570
1722
1766
1623
1306
953
726
669
685
646
524
405
380
433
471
435
359
305
276
217
109
17
22
110
164
76
-142
-358
-425
-297
-74
80
69
-57
-179
-232
-252
-297
-362
-395
-394
-420
-499
-559
-505
-355
-260
-348
-582
-795
-850
-760
-641
-583
-593
-630
-668
-723
-808
-905
-981
-1045
-1140
-1277
-1379
-1357
-1227
-1120
-1160
-1316
-1436
-1427
-1351
-1323
-1359
-1362
-1271
-1141
-1061
-1020
-942
-823
-794
-980
-1319
-1567
-1527
-1248
-962
-824
-754
-561
-201
149
266
103
-184
-422
-589
-764
-973
-1112
-1048
-794
-510
-332
-268
-227
-151
-91
-135
-286
-445
-515
-512
-536
-618
-660
-595
-490
-480
-603
-745
-792
-752
-692
-606
-402
-81
221
360
309
104
-298
-896
-1480
-1743
-1621
-1371
-1247
-1139
-722
87
983
1603
1865
1842
1471
618
-578
-1650
-2248
-2505
-2791
-3151
-3164
-2464
-1223
23
906
1451
1818
2026
1980
1669
1267
972
838
763
622
414
258
288
524
813
917
729
357
5
-217
-341
-438
-526
-573
-543
-433
-272
-111
3
72
143
252
368
404
309
117
-106
-352
-664
-1054
-1448
-1752
-1974
-2208
-2515
-2815
-2960
-2890
-2689
-2479
-2257
-1887
-1266
-486
215
670
916
1093
1252
1307
1168
873
555
313
145
25
-29
15
132
255
355
457
568
632
583
446
326
301
345
380
370
342
318
281
218
151
122
136
156
163
172
205
240
254
252
263
286
290
270
262
302
365
386
339
265
223
231
265
299
326
346
360
372
386
392
379
359
363
401
423
371
267
213
279
403
449
368
267
286
437
582
594
506
463
551
710
814
813
764
751
785
811
791
750
738
760
779
761
720
694
700
724
752
784
814
798
686
494
316
260
339
470
569
640
767
1010
1326
1597
1740
1759
1706
1604
1436
1208
975
798
671
534
364
239
252
380
489
479
423
483
727
1035
1252
1360
1473
1666
1870
1960
1896
1752
1620
1521
1425
1303
1164
1043
972
962
985
987
952
933
1006
1149
1240
1176
993
841
821
884
902
829
753
785
944
1147
1313
1433
1553
1703
1859
1968
1985
1898
1745
1603
1546
1576
1620
1601
1533
1525
1660
1885
2042
2022
1880
1764
1753
1788
1768
1669
1548
1461
1400
1336
1250
1133
949
659
283
-87
-358
-518
-652
-864
-1185
-1529
-1744
-1730
-1522
-1257
-1024
-760
-323
318
1001
1499
1726
1784
1800
1767
1591
1251
876
604
453
354
280
277
367
481
522
475
420
405
386
306
181
95
84
83
1
-186
-407
-558
-586
-510
-392
-278
-165
-16
175
352
434
387
257
115
1
-76
-115
-127
-159
-260
-416
-538
-573
-568
-626
-773
-919
-976
-957
-950
-1001
-1067
-1085
-1044
-966
-844
-638
-348
-50
177
333
486
664
798
774
572
306
115
36
-9
-96
-193
-208
-109
29
98
74
15
-12
-4
4
1
11
53
113
163
197
239
301
370
423
463
511
582
655
695
697
682
662
628
566
493
452
460
489
502
500
532
633
777
903
961
967
978
1025
1085
1117
1097
1038
973
923
887
860
828
775
695
606
545
531
544
540
501
457
444
454
456
434
406
391
380
341
265
182
133
144
210
298
360
368
333
305
300
275
157
-54
-251
-315
-239
-123
-63
-30
74
292
535
674
677
624
603
600
539
397
259
229
313
412
440
404
378
398
422
399
331
262
220
187
141
84
37
5
-34
-107
-237
-434
-723
-1110
-1538
-1879
-2032
-2034
-2048
-2196
-2395
-2416
-2142
-1719
-1401
-1262
-1114
-752
-214
255
506
641
836
1088
1191
994
590
227
41
-35
-141
-310
-454
-479
-392
-265
-158
-90
-81
-156
-296
-421
-439
-347
-235
-193
-193
-137
-20
46
-48
-248
-374
-320
-168
-87
-133
-206
-188
-84
-4
-19
-101
-179
-244
-336
-464
-561
-558
-480
-443
-542
-757
-968
-1058
-998
-858
-733
-682
-677
-613
-408
-96
170
253
163
41
-7
-39
-182
-445
-665
-692
-588
-562
-718
-903
-908
-786
-809
-1091
-1322
-1062
-302
397
475
52
-175
270
1058
1411
973
162
-345
-326
-127
-159
-479
-876
-1170
-1348
-1471
-1591
-1730
-1888
-2036
-2120
-2104
-1991
-1789
-1516
-1212
-891
-528
-157
49
-107
-515
-649
-35
1131
2004
1904
1015
172
-93
-102
-567
-1725
-3097
-4042
-4358
-4258
-3993
-3628
-3157
-2666
-2275
-2002
-1781
-1635
-1695
-1988
-2330
-2467
-2314
-2030
-1820
-1721
-1614
-1420
-1222
-1163
-1267
-1427
-1532
-1559
-1527
-1442
-1319
-1220
-1212
-1265
-1273
-1192
-1111
-1134
-1218
-1210
-1067
-938
-987
-1149
-1173
-910
-513
-277
-302
-398
-328
-87
122
130
-17
-146
-168
-132
-140
-209
-257
-208
-69
76
141
121
101
138
184
124
-111
-459
-804
-1092
-1352
-1642
-1980
-2347
-2699
-2960
-3052
-2938
-2680
-2370
-2029
-1599
-1056
-471
42
444
781
1083
1298
1342
1205
987
843
859
975
1039
938
728
603
680
855
908
750
539
470
538
565
452
324
366
553
658
526
266
124
201
344
350
204
77
105
241
341
342
346
483
735
952
1004
920
841
851
896
841
635
361
157
101
161
256
329
362
359
339
331
355
385
378
320
244
200
197
196
191
211
282
380
454
492
523
570
608
590
503
368
226
107
32
10
20
46
123
328
699
1151
1523
1719
1791
1854
1931
1907
1661
1215
749
429
282
231
207
217
297
421
540
645
771
927
1048
1054
967
914
998
1160
1240
1172
1085
1161
1413
1650
1670
1469
1206
1040
974
907
766
554
325
142
63
94
164
170
95
52
148
343
460
384
188
34
-24
-67
-171
-294
-331
-261
-178
-168
-197
-168
-53
74
124
104
103
185
307
389
405
409
455
519
555
584
667
796
872
814
668
569
591
680
729
693
601
497
412
376
411
483
513
474
438
495
622
692
624
486
425
477
505
363
40
-331
-617
-811
-993
-1222
-1496
-1770
-1975
-2018
-1838
-1485
-1097
-768
-443
12
618
1210
1585
1701
1692
1684
1657
1511
1247
979
789
655
513
383
349
439
556
563
437
295
254
319
388
368
278
232
291
420
528
550
497
410
327
271
265
306
366
410
430
443
454
433
368
294
272
308
338
293
176
89
130
281
416
419
302
188
181
247
260
156
5
-58
3
99
117
47
-19
-9
50
73
14
-87
-174
-224
-249
-253
-222
-160
-97
-57
-18
57
171
281
339
341
318
302
294
280
262
262
297
360
419
457
486
536
625
724
784
793
784
798
844
891
918
941
972
1015
1061
1098
1116
1096
1041
995
1005
1064
1105
1069
977
918
948
1019
1030
941
807
708
682
704
733
753
766
771
765
763
776
788
759
676
579
527
525
522
488
463
512
634
739
744
664
578
537
514
457
364
278
235
244
304
414
549
653
688
674
668
711
789
848
851
809
763
750
794
891
992
1033
980
881
830
899
1060
1225
1333
1391
1444
1493
1485
1405
1309
1268
1251
1125
826
463
240
228
253
52
-414
-878
-1028
-853
-698
-922
-1528
-2163
-2479
-2459
-2372
-2417
-2503
-2361
-1880
-1237
-710
-409
-247
-107
-12
-78
-342
-694
-987
-1151
-1227
-1262
-1251
-1167
-1021
-875
-788
-785
-855
-974
-1109
-1225
-1304
-1333
-1304
-1216
-1085
-951
-863
-853
-911
-974
-966
-859
-732
-725
-911
-1201
-1423
-1481
-1445
-1446
-1521
-1591
-1581
-1509
-1452
-1433
-1403
-1348
-1320
-1375
-1482
-1541
-1496
-1398
-1353
-1405
-1510
-1590
-1618
-1623
-1651
-1722
-1813
-1877
-1882
-1831
-1750
-1674
-1620
-1586
-1549
-1492
-1414
-1339
-1304
-1325
-1365
-1368
-1316
-1243
-1190
-1158
-1105
-1012
-903
-825
-806
-821
-832
-820
-805
-823
-878
-929
-915
-798
-609
-440
-350
-310
-240
-99
59
146
143
130
194
344
537
754
1026
1368
1702
1887
1845
1609
1264
860
397
-116
-601
-945
-1075
-997
-776
-483
-162
173
495
748
855
798
650
517
449
392
288
174
156
256
360
341
231
201
343
554
656
619
586
689
872
963
892
766
716
731
701
595
517
568
699
756
666
534
508
617
723
708
602
526
553
641
721
774
812
822
796
780
820
862
744
377
-105
-433
-471
-328
-211
-167
-50
278
777
1268
1602
1731
1654
1364
884
327
-150
-471
-708
-984
-1317
-1548
-1496
-1153
-721
-402
-178
162
743
1436
1985
2246
2329
2430
2557
2503
2096
1431
803
402
147
-133
-396
-388
-36
291
71
-758
-1611
-1810
-1308
-712
-545
-628
-310
751
2191
3329
3821
3830
3669
3447
3094
2577
1999
1533
1268
1135
1017
905
925
1170
1503
1619
1396
1075
975
1041
869
247
-476
-790
-704
-759
-1354
-2219
-2721
-2555
-1969
-1350
-826
-352
34
233
276
283
220
-102
-691
-1192
-1187
-654
23
524
911
1416
2021
2444
2479
2206
1834
1473
1103
718
401
231
197
208
230
302
430
526
511
396
273
209
194
177
150
150
191
242
260
245
210
143
28
-79
-78
62
229
277
186
89
122
271
409
446
421
422
461
481
433
332
217
111
22
-37
-63
-85
-119
-126
-32
167
377
502
553
622
731
766
601
266
-60
-242
-316
-410
-562
-665
-609
-420
-233
-157
-192
-275
-357
-423
-469
-494
-500
-485
-427
-303
-135
17
105
133
145
160
159
122
67
50
106
211
293
309
283
287
352
417
407
328
293
384
548
644
611
554
604
751
878
910
900
926
969
943
829
704
598
420
71
-404
-858
-1224
-1590
-2038
-2487
-2747
-2732
-2538
-2268
-1876
-1245
-406
398
925
1163
1306
1494
1643
1567
1209
740
400
282
300
320
295
265
270
295
312
314
295
215
47
-152
-272
-257
-180
-163
-231
-287
-242
-133
-68
-88
-112
-52
105
300
482
629
725
752
730
713
729
737
684
568
437
317
179
-16
-261
-516
-764
-1010
-1244
-1447
-1605
-1717
-1772
-1752
-1674
-1601
-1579
-1585
-1561
-1503
-1486
-1570
-1703
-1775
-1731
-1630
-1555
-1519
-1474
-1387
-1287
-1237
-1266
-1345
-1410
-1404
-1316
-1192
-1108
-1096
-1100
-1036
-900
-784
-785
-881
-952
-913
-810
-757
-786
-815
-745
-583
-421
-328
-288
-247
-188
-132
-87
-30
53
139
188
193
180
172
172
168
148
110
55
-5
-43
-39
5
64
100
102
79
60
71
107
130
108
57
23
13
-8
-51
-45
82
283
402
340
196
170
319
495
514
363
202
163
214
246
222
206
253
331
364
320
256
255
353
499
587
546
401
273
270
373
442
344
107
-108
-161
-65
47
77
53
67
169
326
484
631
777
896
950
927
896
936
1034
1083
1007
869
822
950
1176
1328
1294
1068
702
257
-214
-659
-1087
-1592
-2245
-2933
-3374
-3357
-2961
-2484
-2124
-1780
-1227
-434
341
812
966
1015
1125
1230
1158
877
552
359
317
313
261
189
166
193
209
186
173
205
239
201
100
54
141
276
306
213
133
186
318
371
296
215
245
340
350
219
62
-2
6
-19
-107
-171
-150
-99
-119
-223
-319
-340
-328
-363
-438
-464
-393
-285
-237
-264
-290
-253
-187
-178
-261
-387
-495
-550
-562
-557
-563
-595
-641
-672
-682
-691
-706
-696
-620
-502
-421
-409
-392
-282
-128
-60
-123
-200
-164
-43
20
-46
-139
-127
-9
105
143
124
96
61
28
59
196
377
475
457
447
567
772
886
811
646
570
631
719
711
613
538
569
677
752
754
723
732
808
909
948
872
724
609
607
687
737
686
604
611
732
849
834
707
614
644
722
696
515
293
168
170
234
296
364
467
593
683
703
675
652
684
762
831
840
799
776
826
928
1000
985
913
855
852
901
983
1096
1212
1262
1197
1076
1030
1121
1257
1287
1195
1120
1198
1388
1506
1446
1290
1186
1179
1175
1078
912
791
787
863
920
894
755
483
76
-405
-841
-1161
-1406
-1677
-2006
-2295
-2391
-2231
-1868
-1394
-866
-311
248
793
1324
1842
2294
2590
2668
2557
2345
2122
1918
1729
1545
1366
1211
1135
1185
1337
1487
1540
1501
1490
1596
1778
1900
1879
1757
1627
1526
1414
1228
944
609
329
215
295
483
635
677
643
600
558
494
432
428
488
505
369
98
-157
-258
-206
-131
-148
-253
-356
-375
-282
-128
-2
0
-161
-432
-693
-852
-929
-1021
-1171
-1314
-1344
-1227
-1045
-906
-837
-785
-727
-706
-776
-890
-920
-785
-552
-362
-299
-319
-323
-273
-213
-202
-244
-299
-320
-279
-179
-52
50
99
117
156
240
332
375
351
307
309
383
499
601
664
700
721
730
734
743
764
790
809
825
854
900
947
977
1000
1035
1084
1104
1058
954
848
791
788
800
790
751
701
675
697
778
886
966
979
925
851
808
804
791
712
563
401
311
324
391
444
464
491
565
666
741
775
804
858
900
879
807
776
857
1012
1124
1132
1101
1132
1237
1319
1287
1170
1085
1089
1128
1115
1062
1054
1119
1183
1168
1102
1088
1142
1149
1021
849
839
1070
1359
1402
1065
504
26
-191
-228
-302
-548
-896
-1145
-1164
-1005
-824
-724
-668
-554
-324
15
454
1010
1670
2315
2785
2994
2998
2929
2871
2807
2660
2396
2067
1810
1744
1870
2061
2178
2186
2147
2104
2013
1831
1622
1519
1578
1714
1804
1818
1823
1850
1845
1739
1564
1426
1388
1421
1456
1461
1448
1431
1395
1340
1286
1254
1241
1222
1192
1170
1177
1204
1223
1218
1193
1157
1100
1014
918
865
878
906
874
775
690
691
743
743
658
560
542
587
620
608
597
628
658
620
530
479
512
569
565
497
462
537
684
800
837
840
880
972
1061
1089
1054
1006
992
1000
989
943
911
955
1055
1111
1062
976
996
1170
1384
1474
1404
1291
1258
1314
1401
1482
1557
1604
1597
1572
1637
1834
2030
2029
1790
1493
1344
1340
1301
1111
853
700
694
713
653
549
514
583
665
658
560
463
457
536
618
636
584
509
461
454
463
463
456
458
462
439
380
318
293
288
250
150
42
4
55
138
192
229
295
402
513
589
625
630
608
571
553
572
606
617
599
587
611
658
699
721
725
710
662
593
543
531
531
510
482
478
502
509
448
295
48
-305
-753
-1227
-1635
-1967
-2310
-2719
-3089
-3225
-3052
-2715
-2400
-2093
-1603
-833
40
726
1121
1371
1631
1843
1822
1530
1143
861
701
542
334
172
176
336
533
641
643
610
631
708
760
700
549
429
449
566
631
551
394
280
248
238
212
204
244
293
278
205
146
131
100
-11
-169
-266
-255
-204
-210
-287
-361
-378
-369
-407
-505
-612
-690
-758
-843
-917
-923
-856
-779
-748
-740
-689
-588
-516
-549
-675
-816
-912
-966
-999
-1023
-1037
-1053
-1072
-1068
-1020
-948
-898
-887
-880
-837
-765
-697
-652
-621
-595
-585
-592
-596
-582
-574
-602
-643
-627
-514
-354
-236
-198
-187
-133
-28
78
122
92
30
-3
30
111
175
168
109
80
145
275
371
381
357
386
472
536
521
476
495
590
674
671
604
554
558
575
548
472
390
364
462
731
1141
1558
1824
1900
1869
1791
1619
1283
858
544
460
506
498
401
356
471
653
701
540
283
71
-68
-196
-334
-418
-399
-320
-266
-267
-285
-264
-195
-114
-71
-85
-122
-125
-55
58
138
128
30
-119
-274
-395
-442
-400
-298
-193
-111
-50
-24
-78
-224
-406
-554
-700
-974
-1436
-1962
-2349
-2551
-2730
-3060
-3475
-3707
-3559
-3111
-2600
-2158
-1701
-1088
-336
372
857
1088
1160
1172
1133
997
723
357
21
-160
-157
-53
29
45
50
99
170
189
135
61
32
53
91
143
241
376
470
448
341
263
279
344
364
322
292
342
454
544
566
541
505
447
344
228
163
173
195
149
43
-23
40
209
363
405
337
245
199
196
176
94
-27
-121
-152
-141
-143
-178
-196
-134
-4
105
105
-3
-127
-173
-130
-66
-59
-130
-214
-225
-131
20
135
163
134
131
203
313
368
316
206
148
204
325
401
389
354
394
527
666
720
691
653
657
673
647
582
550
601
698
757
747
718
737
799
825
758
653
611
652
695
664
604
610
684
727
663
557
524
550
466
156
-275
-568
-561
-345
-161
-182
-377
-553
-524
-252
117
371
418
375
451
743
1139
1444
1556
1515
1407
1287
1165
1072
1038
1041
1020
949
882
906
1040
1226
1372
1422
1390
1334
1312
1337
1392
1461
1556
1683
1812
1884
1855
1750
1635
1564
1524
1464
1363
1269
1245
1301
1379
1416
1399
1362
1318
1218
985
596
139
-247
-492
-666
-910
-1279
-1645
-1781
-1582
-1169
-763
-465
-173
265
853
1423
1796
1941
1952
1920
1837
1651
1357
1037
796
673
623
575
515
490
550
672
774
789
720
613
508
415
342
300
287
265
213
163
156
191
226
226
223
261
327
345
269
136
33
8
29
31
-10
-59
-67
-33
-4
-29
-109
-200
-256
-271
-280
-314
-367
-411
-424
-414
-414
-449
-505
-546
-544
-512
-509
-568
-653
-697
-674
-644
-676
-761
-815
-785
-715
-680
-689
-683
-632
-585
-610
-697
-765
-771
-756
-783
-843
-860
-791
-685
-614
-591
-562
-487
-398
-355
-363
-362
-286
-133
31
154
236
311
399
481
522
514
477
440
412
388
368
366
390
429
454
454
438
416
393
361
320
276
232
182
128
62
-8
-59
-70
-47
-32
-65
-128
-163
-152
-140
-169
-216
-254
-344
-598
-1014
-1411
-1597
-1590
-1588
-1703
-1807
-1718
-1478
-1334
-1419
-1549
-1449
-1080
-688
-499
-466
-340
28
539
952
1119
1072
972
987
1098
1098
806
268
-252
-498
-463
-337
-275
-285
-288
-203
40
417
666
365
-643
-1910
-2656
-2544
-2082
-2070
-2628
-3025
-2523
-1295
-253
-54
-466
-815
-834
-855
-1238
-1842
-2211
-2156
-1962
-1946
-2027
-1854
-1270
-563
-184
-237
-358
-161
304
602
414
-88
-444
-437
-326
-513
-1049
-1570
-1708
-1455
-1102
-914
-930
-1041
-1136
-1147
-1053
-903
-798
-765
-685
-420
-72
25
-330
-918
-1289
-1262
-1118
-1240
-1621
-1856
-1673
-1315
-1269
-1692
-2214
-2368
-2088
-1719
-1536
-1418
-1055
-397
220
437
250
-23
-137
-182
-413
-898
-1408
-1634
-1478
-1098
-718
-450
-304
-266
-330
-484
-686
-906
-1158
-1465
-1778
-1979
-2005
-1896
-1756
-1651
-1561
-1452
-1347
-1297
-1286
-1231
-1117
-1058
-1205
-1570
-1949
-2089
-1914
-1602
-1404
-1398
-1430
-1276
-871
-396
-116
-154
-386
-570
-552
-387
-280
-371
-583
-700
-597
-388
-305
-435
-620
-646
-494
-355
-403
-584
-722
-748
-758
-829
-880
-788
-572
-414
-445
-588
-679
-668
-665
-765
-937
-1078
-1125
-1087
-973
-781
-535
-328
-265
-343
-458
-502
-465
-445
-549
-764
-928
-857
-544
-200
-64
-153
-243
-111
195
395
270
-90
-373
-352
-85
187
295
276
292
450
720
980
1132
1158
1104
1023
944
891
890
970
1122
1304
1454
1533
1551
1557
1602
1669
1678
1574
1396
1275
1299
1420
1497
1457
1366
1323
1297
1130
732
232
-124
-245
-300
-538
-1005
-1475
-1682
-1571
-1311
-1065
-813
-411
217
978
1709
2335
2870
3298
3520
3465
3210
2918
2694
2501
2265
2022
1891
1924
2032
2110
2142
2180
2217
2184
2070
1984
2032
2185
2318
2357
2343
2326
2265
2093
1836
1621
1505
1420
1286
1151
1145
1323
1578
1766
1848
1890
1963
2064
2139
2134
2039
1884
1732
1641
1632
1684
1748
1796
1818
1791
1692
1544
1425
1385
1379
1309
1151
1001
965
1035
1114
1147
1173
1250
1349
1376
1288
1151
1059
1035
1024
974
915
930
1067
1277
1446
1487
1413
1321
1296
1338
1371
1337
1254
1190
1187
1237
1306
1377
1438
1470
1469
1472
1532
1633
1696
1670
1607
1622
1744
1874
1904
1842
1796
1842
1944
2011
2015
2010
2041
2084
2074
1992
1867
1737
1615
1500
1418
1397
1431
1477
1499
1499
1509
1533
1539
1494
1407
1324
1279
1265
1242
1189
1126
1105
1143
1203
1228
1193
1128
1082
1079
1104
1120
1104
1067
1045
1064
1117
1159
1154
1109
1069
1058
1062
1057
1057
1099
1170
1205
1164
1097
1093
1156
1187
1096
928
815
815
848
800
663
527
469
472
481
479
486
515
559
612
669
697
643
490
273
22
-298
-710
-1154
-1511
-1752
-1988
-2323
-2677
-2836
-2686
-2340
-1980
-1630
-1150
-468
291
918
1335
1630
1873
2007
1929
1660
1345
1106
927
727
505
356
365
483
571
556
507
544
682
812
830
744
653
621
604
535
429
354
334
311
232
141
131
227
349
400
356
262
165
81
30
43
108
153
111
-2
-97
-111
-72
-54
-85
-133
-161
-175
-206
-251
-274
-260
-244
-274
-355
-439
-475
-458
-416
-386
-387
-421
-474
-525
-546
-522
-473
-440
-453
-501
-538
-534
-508
-501
-520
-528
-486
-416
-394
-453
-520
-490
-352
-219
-214
-324
-418
-399
-298
-225
-226
-251
-242
-213
-205
-193
-101
79
243
271
174
102
149
251
247
87
-88
-89
106
318
365
240
99
75
142
169
56
-182
-450
-644
-694
-605
-469
-415
-511
-683
-780
-725
-603
-556
-637
-777
-879
-911
-886
-810
-693
-587
-575
-650
-703
-645
-528
-496
-605
-751
-812
-812
-875
-1044
-1201
-1197
-1044
-901
-888
-952
-945
-819
-666
-603
-640
-697
-718
-710
-693
-644
-561
-522
-593
-718
-747
-621
-504
-611
-918
-1157
-1125
-942
-901
-1103
-1343
-1396
-1298
-1270
-1401
-1564
-1668
-1820
-2155
-2580
-2845
-2897
-2994
-3379
-3900
-4134
-3873
-3374
-3042
-2932
-2710
-2094
-1226
-519
-210
-172
-139
-32
-9
-216
-597
-957
-1163
-1227
-1230
-1213
-1165
-1075
-978
-923
-914
-919
-923
-947
-1015
-1102
-1138
-1084
-980
-902
-874
-858
-824
-823
-925
-1119
-1293
-1342
-1277
-1211
-1229
-1310
-1360
-1328
-1254
-1223
-1281
-1410
-1541
-1620
-1641
-1637
-1640
-1658
-1690
-1726
-1750
-1749
-1722
-1700
-1721
-1793
-1874
-1918
-1921
-1908
-1894
-1869
-1819
-1778
-1793
-1854
-1895
-1868
-1824
-1856
-1978
-2076
-2033
-1895
-1853
-2035
-2345
-2561
-2574
-2491
-2453
-2459
-2401
-2229
-2016
-1846
-1700
-1523
-1330
-1226
-1256
-1346
-1405
-1439
-1513
-1614
-1643
-1547
-1420
-1398
-1478
-1511
-1392
-1193
-1079
-1114
-1192
-1164
-1010
-853
-813
-877
-934
-909
-842
-833
-914
-1006
-999
-868
-706
-629
-657
-708
-691
-592
-475
-419
-459
-575
-716
-827
-874
-869
-862
-893
-947
-958
-891
-783
-707
-687
-667
-588
-467
-383
-387
-446
-468
-402
-275
-167
-143
-188
-228
-189
-72
32
43
-21
-57
20
173
295
339
357
397
408
308
107
-69
-129
-126
-170
-255
-253
-94
123
232
206
173
236
339
347
230
86
17
25
36
-3
-119
-345
-684
-1050
-1320
-1482
-1668
-1990
-2369
-2573
-2472
-2187
-1914
-1670
-1316
-800
-299
-38
-15
-3
175
425
513
358
121
16
78
157
110
-61
-239
-316
-276
-179
-92
-44
-16
37
140
267
352
350
274
166
68
-9
-73
-139
-215
-296
-360
-367
-312
-262
-312
-503
-743
-873
-825
-690
-608
-609
-597
-498
-396
-448
-675
-910
-1009
-1035
-1187
-1544
-1924
-2072
-1938
-1698
-1528
-1413
-1219
-896
-542
-282
-131
-25
46
16
-143
-336
-434
-415
-382
-436
-547
-611
-580
-517
-517
-590
-684
-745
-761
-748
-727
-719
-717
-665
-524
-369
-362
-601
-990
-1345
-1622
-1946
-2388
-2769
-2810
-2456
-1956
-1569
-1274
-844
-192
468
844
867
708
542
389
189
-37
-196
-241
-218
-222
-259
-267
-210
-121
-77
-144
-316
-506
-611
-583
-478
-414
-455
-556
-614
-584
-527
-530
-599
-655
-638
-585
-586
-668
-768
-808
-780
-742
-740
-754
-734
-677
-631
-640
-692
-730
-715
-667
-641
-661
-688
-670
-594
-512
-480
-495
-493
-424
-301
-188
-137
-142
-154
-131
-80
-51
-87
-174
-244
-235
-155
-97
-136
-249
-330
-308
-213
-136
-121
-129
-111
-66
-19
24
57
23
-173
-562
-1030
-1404
-1637
-1862
-2249
-2799
-3287
-3453
-3254
-2901
-2611
-2369
-1945
-1192
-278
442
793
942
1164
1473
1623
1424
1005
676
577
571
490
357
302
352
407
400
392
452
509
447
277
141
129
166
127
13
-49
5
90
89
13
-32
14
88
80
-32
-178
-278
-323
-365
-445
-545
-596
-529
-365
-212
-184
-289
-409
-430
-373
-366
-491
-687
-820
-840
-834
-911
-1066
-1187
-1180
-1077
-998
-1012
-1072
-1076
-998
-913
-916
-1018
-1145
-1219
-1233
-1240
-1277
-1320
-1321
-1283
-1260
-1296
-1362
-1378
-1315
-1227
-1184
-1182
-1145
-1019
-841
-694
-615
-588
-579
-576
-581
-573
-532
-475
-440
-432
-403
-310
-177
-77
-54
-75
-82
-61
-39
-35
-25
29
125
214
258
271
294
336
363
341
279
218
180
164
164
188
233
269
273
263
268
281
245
124
-35
-147
-181
-181
-196
-213
-188
-124
-64
-31
-8
23
44
25
-32
-84
-94
-69
-42
-31
-18
22
92
174
248
319
404
497
566
585
571
577
624
668
654
593
558
599
686
757
801
868
981
1090
1140
1129
1105
1085
1033
934
851
865
962
1036
1008
918
876
919
949
834
529
103
-336
-714
-1006
-1242
-1485
-1785
-2101
-2289
-2215
-1905
-1532
-1221
-910
-438
226
891
1333
1519
1605
1711
1788
1704
1441
1136
926
824
754
667
594
582
625
670
662
580
442
302
222
229
284
325
328
323
341
372
378
332
222
39
-204
-431
-540
-496
-393
-357
-415
-464
-400
-247
-126
-119
-204
-304
-395
-499
-612
-688
-693
-641
-581
-540
-527
-572
-714
-943
-1165
-1258
-1194
-1078
-1062
-1199
-1391
-1469
-1359
-1162
-1081
-1235
-1538
-1737
-1635
-1272
-918
-806
-918
-1031
-967
-801
-760
-929
-1148
-1181
-982
-733
-607
-558
-402
-83
197
196
-91
-428
-590
-603
-661
-851
-1033
-1002
-735
-405
-206
-169
-166
-74
116
299
353
242
52
-58
-3
121
142
-14
-225
-292
-163
22
95
16
-118
-197
-192
-158
-169
-272
-457
-630
-668
-545
-367
-283
-326
-398
-397
-299
-182
-138
-189
-277
-292
-178
-8
60
-29
-127
-22
289
548
499
211
30
168
461
572
394
176
201
466
718
764
690
724
973
1300
1464
1355
1079
859
816
870
839
636
376
283
459
782
1026
1097
1084
1127
1231
1283
1213
1092
1050
1104
1125
997
762
564
468
369
101
-351
-829
-1179
-1412
-1656
-1962
-2205
-2222
-1989
-1632
-1258
-835
-267
426
1084
1567
1896
2184
2458
2609
2524
2226
1872
1605
1452
1361
1293
1247
1220
1203
1214
1277
1376
1431
1379
1245
1128
1085
1090
1103
1129
1198
1287
1326
1278
1191
1147
1170
1196
1156
1043
935
906
965
1048
1080
1054
1040
1087
1146
1105
925
720
646
722
807
763
608
483
484
563
618
613
581
682
514
539
605
653
607
470
332
257
221
162
64
-18
-29
18
66
80
85
136
250
371
404
309
149
33
19
73
113
99
58
37
39
43
69
167
361
596
776
844
811
739
679
643
608
542
431
310
253
320
501
712
850
860
761
624
526
499
497
442
302
135
56
116
256
377
426
419
388
323
204
52
-59
-72
-9
52
57
23
-2
10
46
74
78
61
32
3
-14
-6
16
12
-50
-149
-213
-182
-74
29
57
23
-4
22
81
128
146
155
169
188
217
268
338
391
392
352
324
336
354
330
276
254
304
379
411
398
412
498
611
661
626
557
503
460
378
231
17
-272
-631
-998
-1278
-1462
-1650
-1940
-2271
-2441
-2322
-1978
-1565
-1141
-638
-7
662
1218
1598
1839
1975
1965
1780
1473
1157
915
756
658
605
602
665
811
1007
1132
1062
824
618
627
800
899
799
663
746
1064
1345
1331
1046
754
647
678
690
622
539
520
566
617
641
651
679
714
705
613
467
356
363
469
546
477
287
135
155
317
438
362
122
-100
-147
-26
111
131
35
-83
-148
-159
-163
-199
-283
-416
-579
-700
-707
-618
-547
-590
-685
-668
-449
-137
66
83
20
25
124
235
261
171
-8
-217
-377
-420
-362
-317
-382
-525
-621
-594
-488
-386
-292
-128
139
433
645
758
841
952
1061
1089
995
801
586
427
374
421
504
528
456
354
317
372
437
409
277
122
28
22
78
164
244
265
185
34
-77
-76
-10
1
-104
-243
-274
-148
46
183
210
159
85
14
-41
-74
-79
-69
-74
-98
-104
-44
69
163
168
110
77
102
128
106
60
71
150
214
207
189
251
360
382
255
102
94
227
321
246
90
56
232
475
577
499
372
324
335
280
82
-237
-614
-1025
-1444
-1800
-2012
-2115
-2267
-2569
-2897
-2985
-2714
-2297
-2051
-2018
-1888
-1349
-489
279
644
692
741
928
1084
993
664
301
63
-79
-212
-331
-369
-320
-290
-372
-523
-612
-577
-508
-537
-686
-823
-805
-641
-490
-497
-647
-788
-815
-771
-785
-891
-984
-965
-869
-835
-939
-1087
-1140
-1075
-987
-967
-1000
-1022
-1032
-1078
-1174
-1260
-1284
-1289
-1368
-1536
-1693
-1720
-1606
-1458
-1402
-1477
-1629
-1775
-1864
-1897
-1904
-1907
-1905
-1873
-1794
-1667
-1516
-1367
-1244
-1183
-1208
-1293
-1374
-1405
-1398
-1396
-1410
-1403
-1330
-1203
-1073
-986
-961
-993
-1060
-1140
-1227
-1327
-1433
-1491
-1438
-1267
-1057
-900
-809
-715
-567
-411
-345
-400
-506
-554
-502
-409
-364
-390
-419
-365
-219
-68
1
-10
-9
65
166
197
137
73
83
141
156
96
19
-8
12
36
49
74
109
130
118
109
138
188
211
193
176
206
271
331
377
436
515
585
615
616
635
692
753
777
763
758
799
880
966
1035
1098
1186
1311
1452
1568
1649
1720
1812
1923
2017
2051
2028
1983
1960
1976
1997
1974
1891
1794
1752
1765
1753
1633
1442
1302
1280
1300
1249
1114
988
934
886
753
541
344
179
-23
-288
-498
-522
-410
-373
-536
-765
-821
-637
-368
-168
14
359
933
1593
2150
2529
2789
2984
3050
2880
2467
1972
1591
1378
1208
952
662
513
537
488
80
-645
-1291
-1503
-1328
-1114
-1051
-935
-450
397
1228
1659
1626
1358
1093
867
593
250
-51
-177
-92
98
316
572
863
1089
1112
901
542
63
-664
-1682
-2679
-3162
-3013
-2724
-2852
-3279
-3246
-2232
-612
708
1268
1432
1806
2466
2964
2943
2528
2077
1748
1440
1087
798
683
685
659
531
359
210
86
-14
-63
-61
-61
-124
-244
-343
-351
-279
-185
-87
31
145
174
93
15
92
324
511
455
196
-21
-30
61
9
-252
-519
-545
-307
-1
206
335
500
728
938
1070
1163
1268
1344
1302
1125
913
783
759
765
731
659
590
565
587
632
660
640
580
526
513
532
541
523
514
556
638
701
709
699
738
824
887
864
780
716
708
713
681
641
670
799
964
1077
1125
1173
1276
1415
1516
1528
1465
1391
1370
1425
1524
1596
1596
1549
1539
1613
1723
1768
1701
1576
1479
1434
1402
1359
1334
1358
1413
1458
1491
1544
1617
1664
1634
1532
1393
1202
904
494
86
-191
-340
-507
-808
-1173
-1387
-1316
-1037
-724
-446
-111
389
1026
1641
2098
2383
2551
2627
2571
2354
2019
1669
1394
1232
1167
1164
1187
1221
1275
1359
1445
1465
1355
1130
890
732
670
658
650
650
671
705
723
719
723
745
756
715
620
527
494
520
538
485
362
231
167
187
242
265
231
174
154
197
277
350
394
421
446
472
483
467
433
402
383
362
319
255
193
155
132
96
53
33
47
58
33
-12
-19
40
110
114
30
-75
-109
-47
60
141
170
181
225
324
442
516
515
464
423
425
457
497
534
583
652
734
818
900
966
987
960
919
905
922
937
927
917
934
963
963
932
915
936
955
925
865
848
904
974
970
890
813
793
788
732
629
550
537
546
512
439
391
407
446
435
362
290
279
327
377
385
363
352
366
382
373
338
287
229
167
124
124
160
180
134
40
-18
18
123
218
258
274
328
437
561
643
666
653
629
588
519
443
405
424
458
443
372
303
291
315
313
258
181
115
57
-12
-97
-179
-259
-353
-443
-491
-556
-795
-1271
-1774
-1951
-1688
-1285
-1164
-1393
-1595
-1401
-905
-569
-717
-1196
-1598
-1714
-1697
-1807
-2082
-2318
-2301
-2013
-1596
-1175
-789
-425
-89
166
272
225
54
-190
-430
-588
-649
-690
-796
-978
-1196
-1419
-1637
-1810
-1885
-1928
-2179
-2847
-3785
-4505
-4628
-4282
-3958
-3914
-3857
-3292
-2132
-845
24
363
475
629
764
664
266
-269
-761
-1176
-1597
-2002
-2245
-2239
-2071
-1951
-2035
-2269
-2445
-2434
-2335
-2341
-2507
-2675
-2691
-2593
-2552
-2628
-2687
-2644
-2684
-3099
-3898
-4711
-5141
-5198
-5221
-5379
-5400
-4877
-3733
-2328
-1087
-173
473
872
956
717
274
-234
-745
-1254
-1688
-1887
-1760
-1384
-923
-512
-224
-40
90
188
202
83
-113
-242
-212
-91
-35
-122
-275
-405
-525
-699
-931
-1132
-1206
-1179
-1158
-1230
-1405
-1609
-1726
-1674
-1510
-1414
-1524
-1762
-1866
-1676
-1303
-986
-820
-712
-599
-551
-622
-693
-606
-450
-540
-1005
-1532
-1650
-1259
-752
-551
-631
-616
-308
35
-2
-476
-1009
-1161
-872
-465
-230
-120
164
805
1618
2193
2271
1960
1573
1294
1040
663
233
15
174
571
933
1150
1356
1690
2072
2261
2137
1815
1493
1262
1098
987
967
1041
1105
1029
801
528
300
109
-101
-357
-653
-981
-1319
-1565
-1592
-1371
-1062
-849
-721
-460
102
850
1466
1764
1868
2035
2353
2648
2694
2494
2266
2173
2146
2006
1695
1384
1287
1406
1534
1479
1297
1223
1388
1640
1686
1419
1046
873
1000
1247
1395
1407
1413
1518
1684
1800
1829
1813
1791
1738
1630
1505
1430
1419
1426
1426
1441
1484
1504
1430
1286
1207
1289
1471
1582
1523
1368
1286
1358
1494
1533
1401
1164
955
839
775
684
550
447
448
533
605
615
624
728
918
1061
1054
946
879
912
958
914
810
760
817
909
939
918
927
993
1057
1067
1048
1052
1069
1049
998
1007
1137
1308
1364
1256
1109
1081
1199
1347
1417
1415
1415
1444
1473
1475
1473
1477
1450
1361
1252
1216
1291
1398
1440
1399
1344
1334
1346
1329
1278
1223
1179
1123
1056
1020
1039
1065
1035
957
914
949
1000
969
858
771
796
909
1001
1006
965
952
991
1031
1021
959
879
813
776
771
797
836
855
840
826
874
999
1126
1164
1106
1058
1116
1253
1347
1330
1267
1271
1356
1420
1381
1281
1222
1229
1224
1140
1020
956
980
1042
1094
1143
1212
1281
1306
1283
1245
1197
1057
735
257
-211
-503
-620
-740
-1037
-1471
-1786
-1744
-1377
-969
-764
-689
-409
299
1266
2062
2408
2429
2463
2666
2870
2804
2410
1902
1548
1431
1450
1463
1415
1366
1393
1512
1664
1747
1708
1593
1494
1468
1514
1599
1682
1723
1697
1629
1582
1589
1595
1513
1345
1192
1152
1208
1264
1267
1245
1225
1183
1086
970
899
875
824
697
541
445
454
525
589
608
579
523
479
472
481
445
320
136
-11
-56
-23
17
27
20
24
30
21
12
44
124
185
143
8
-90
-29
157
297
263
121
63
200
421
540
492
396
401
523
641
662
618
598
633
669
650
602
584
613
640
628
605
631
717
809
844
817
774
758
787
854
914
917
846
760
747
815
854
757
561
433
483
625
681
586
466
479
625
751
730
601
497
488
513
475
360
244
196
199
189
137
86
94
163
239
269
252
230
244
295
342
345
303
250
237
289
396
520
613
649
641
642
703
827
952
979
880
741
699
815
987
1039
890
645
505
558
688
700
529
312
235
329
451
463
379
327
372
442
425
294
106
-119
-423
-807
-1176
-1427
-1598
-1832
-2180
-2486
-2532
-2294
-1966
-1718
-1474
-1027
-339
364
819
1014
1149
1358
1546
1515
1239
897
664
551
456
337
248
239
280
305
295
280
264
203
80
-49
-108
-85
-51
-58
-72
-24
80
132
47
-121
-218
-158
-8
88
68
1
-22
-4
-26
-128
-243
-294
-298
-344
-477
-632
-704
-657
-566
-515
-510
-494
-443
-400
-407
-455
-500
-534
-596
-691
-761
-749
-677
-645
-713
-826
-882
-853
-813
-842
-938
-1040
-1103
-1110
-1076
-1033
-1031
-1107
-1211
-1236
-1156
-1099
-1220
-1497
-1716
-1695
-1502
-1361
-1382
-1445
-1390
-1264
-1282
-1555
-1936
-2177
-2192
-2101
-2022
-1893
-1546
-920
-153
528
1006
1315
1540
1710
1782
1711
1508
1253
1035
905
870
899
939
943
900
826
757
704
640
540
421
342
352
433
520
554
528
483
454
443
437
436
445
456
451
432
431
468
517
529
493
456
470
518
536
495
438
430
478
527
551
576
635
700
706
631
525
452
416
372
299
241
260
374
533
669
739
745
721
708
723
736
702
605
492
436
474
573
664
706
707
689
669
647
612
553
449
266
10
-260
-468
-604
-745
-959
-1189
-1276
-1116
-798
-519
-348
-121
361
1051
1637
1842
1719
1578
1626
1752
1677
1306
832
517
419
407
368
327
345
389
372
293
265
354
463
449
299
161
177
312
410
373
249
139
72
-5
-126
-262
-359
-390
-363
-303
-233
-189
-188
-200
-184
-134
-100
-140
-240
-324
-327
-259
-197
-198
-254
-307
-318
-318
-373
-504
-658
-763
-813
-876
-1004
-1147
-1196
-1110
-959
-849
-799
-740
-615
-454
-339
-308
-332
-372
-427
-511
-607
-676
-701
-714
-739
-758
-734
-669
-608
-581
-560
-500
-404
-330
-327
-361
-354
-262
-126
-27
-19
-78
-135
-128
-41
73
137
120
78
103
226
363
409
350
275
282
369
456
488
482
487
515
548
573
594
601
571
500
433
425
479
534
522
445
374
371
430
489
496
456
415
407
423
443
463
498
550
585
576
545
547
611
702
749
722
665
653
706
776
809
802
801
838
899
947
972
992
1027
1069
1095
1102
1106
1128
1169
1212
1239
1249
1244
1230
1212
1202
1203
1212
1213
1204
1200
1211
1230
1230
1200
1161
1140
1121
1051
885
627
325
35
-203
-369
-492
-640
-857
-1081
-1174
-1057
-810
-577
-379
-81
419
1015
1495
1757
1901
2055
2189
2166
1945
1649
1422
1278
1131
959
833
812
863
909
935
979
1046
1077
1033
957
924
953
996
1011
1011
1029
1055
1049
989
906
834
786
761
769
807
831
790
701
643
676
765
812
772
707
694
728
728
650
541
470
438
389
290
178
109
82
53
-1
-51
-53
2
75
125
145
153
164
179
183
168
145
129
129
140
156
183
233
299
348
351
321
305
334
383
395
346
281
259
288
319
300
248
229
296
427
558
646
692
732
794
869
922
919
856
776
747
805
927
1043
1104
1122
1155
1227
1309
1347
1320
1255
1183
1113
1061
1047
1084
1152
1201
1193
1154
1152
1227
1332
1367
1285
1159
1125
1242
1438
1592
1663
1713
1799
1875
1822
1588
1243
904
620
364
113
-102
-230
-265
-245
-183
-64
114
286
372
350
285
263
299
339
330
264
198
195
273
382
432
376
258
177
187
250
290
274
230
188
134
45
-44
-70
-38
-32
-119
-236
-242
-94
81
103
-57
-243
-282
-169
-59
-109
-354
-720
-1120
-1485
-1763
-1955
-2146
-2466
-2925
-3334
-3444
-3200
-2811
-2508
-2281
-1905
-1249
-476
102
356
432
511
580
494
200
-143
-333
-345
-321
-383
-447
-348
-84
144
126
-137
-449
-646
-771
-974
-1296
-1585
-1682
-1605
-1513
-1502
-1492
-1337
-1019
-705
-584
-674
-820
-844
-716
-576
-569
-703
-839
-811
-591
-298
-109
-136
-341
-557
-621
-571
-638
-999
-1539
-1898
-1879
-1754
-2012
-2776
-3583
-3856
-3526
-3069
-2932
-3038
-2938
-2352
-1464
-675
-213
-25
34
24
-86
-328
-655
-974
-1191
-1265
-1259
-1287
-1393
-1498
-1473
-1295
-1099
-1040
-1152
-1302
-1348
-1263
-1133
-1053
-1017
-969
-905
-894
-975
-1044
-946
-700
-559
-734
-1082
-1223
-1008
-701
-632
-779
-820
-614
-408
-496
-821
-1049
-995
-787
-614
-493
-413
-559
-1114
-1875
-2309
-2123
-1662
-1539
-1895
-2199
-1845
-863
95
416
86
-389
-534
-296
58
303
450
640
930
1234
1428
1480
1442
1331
1094
730
366
182
240
439
646
828
1012
1182
1242
1096
771
432
256
284
404
478
473
469
551
705
826
819
715
654
781
1116
1496
1700
1624
1378
1196
1214
1343
1357
1120
726
416
368
576
874
1089
1160
1170
1261
1483
1726
1795
1561
1086
582
221
-13
-309
-823
-1465
-1936
-2006
-1734
-1396
-1175
-951
-458
370
1316
2079
2562
2872
3112
3242
3169
2885
2483
2084
1783
1637
1637
1675
1640
1555
1569
1760
1996
2038
1804
1495
1378
1512
1726
1846
1852
1824
1783
1683
1535
1437
1474
1604
1678
1596
1416
1289
1308
1420
1486
1426
1284
1167
1137
1180
1256
1362
1499
1602
1577
1408
1220
1162
1253
1347
1303
1130
952
860
838
806
711
558
381
240
177
182
204
221
282
446
653
730
588
354
259
376
552
622
608
664
859
1092
1235
1294
1348
1407
1396
1282
1140
1077
1088
1083
1025
986
1049
1174
1244
1201
1118
1110
1201
1309
1346
1313
1295
1363
1509
1662
1756
1761
1684
1573
1480
1429
1405
1390
1389
1414
1458
1496
1530
1596
1707
1793
1751
1560
1328
1192
1170
1164
1079
941
868
923
1064
1197
1270
1283
1255
1212
1184
1194
1238
1274
1249
1165
1085
1074
1130
1185
1180
1131
1096
1112
1157
1190
1226
1306
1408
1440
1343
1205
1199
1368
1537
1503
1264
1070
1150
1442
1653
1568
1279
1062
1077
1222
1276
1149
952
852
902
1000
1031
986
974
1083
1267
1370
1279
1031
766
565
362
57
-330
-673
-903
-1096
-1359
-1651
-1779
-1618
-1282
-1000
-851
-659
-188
567
1349
1866
2058
2083
2127
2227
2258
2098
1751
1352
1070
975
999
1016
979
939
965
1049
1111
1091
1004
925
883
863
850
861
895
910
867
795
769
809
846
777
616
484
488
599
710
749
751
790
881
969
994
946
862
782
725
685
648
603
556
538
566
614
608
499
313
161
117
127
55
-140
-333
-341
-140
102
224
243
305
465
613
622
526
472
517
554
469
305
215
250
306
286
243
308
481
598
519
320
219
331
537
625
536
420
454
653
862
941
912
902
967
1034
1014
922
867
905
963
927
792
687
728
898
1050
1065
971
888
891
934
924
834
734
701
734
775
771
724
672
642
636
644
641
597
503
392
320
307
324
335
349
398
481
550
581
595
626
663
658
601
525
454
370
252
160
180
311
452
518
538
609
756
897
945
900
835
797
775
744
700
659
617
576
560
589
649
696
712
725
759
802
815
797
791
827
873
849
715
517
342
223
83
-199
-625
-1036
-1252
-1284
-1349
-1633
-2053
-2316
-2238
-1943
-1689
-1545
-1317
-807
-80
611
1095
1407
1647
1803
1796
1634
1414
1194
929
586
259
110
183
362
511
599
657
673
592
421
268
211
201
129
-16
-125
-97
45
185
232
174
53
-86
-194
-218
-156
-87
-107
-211
-284
-210
-21
127
128
33
-16
41
99
29
-163
-327
-370
-352
-404
-564
-750
-878
-955
-1021
-1062
-1040
-975
-930
-911
-851
-727
-637
-690
-843
-932
-886
-830
-908
-1072
-1118
-973
-806
-806
-919
-905
-662
-388
-369
-644
-950
-1042
-944
-898
-1051
-1297
-1401
-1252
-980
-802
-808
-888
-872
-717
-544
-487
-536
-562
-469
-300
-165
-103
-55
34
126
144
78
-5
-49
-51
-30
23
116
199
213
169
161
243
347
344
205
41
-11
65
168
193
122
6
-94
-141
-137
-111
-100
-111
-106
-38
89
211
270
277
276
275
239
126
-47
-206
-288
-277
-211
-131
-53
45
185
352
494
570
597
638
715
766
721
582
441
375
369
344
259
152
81
63
76
112
180
256
288
246
159
95
80
73
35
-14
-23
19
60
28
-102
-303
-546
-817
-1096
-1343
-1523
-1648
-1770
-1897
-1949
-1853
-1626
-1370
-1148
-903
-518
19
582
1015
1273
1420
1518
1551
1451
1167
692
81
-539
-1003
-1205
-1194
-1096
-972
-759
-377
131
601
888
967
905
781
662
584
522
388
109
-258
-544
-633
-588
-569
-636
-698
-653
-530
-461
-511
-616
-685
-713
-770
-887
-1007
-1052
-1000
-888
-767
-668
-606
-566
-506
-412
-348
-420
-643
-904
-1054
-1058
-1010
-1017
-1105
-1219
-1294
-1322
-1329
-1312
-1248
-1138
-1043
-1039
-1125
-1200
-1181
-1167
-1416
-2065
-2874
-3374
-3304
-2890
-2581
-2520
-2372
-1757
-739
205
686
771
798
933
1024
863
497
190
122
214
266
196
94
81
177
297
345
291
171
47
-18
2
79
132
110
44
11
27
33
-27
-121
-162
-119
-61
-68
-142
-227
-277
-292
-291
-281
-267
-267
-295
-326
-319
-280
-264
-314
-394
-429
-394
-346
-346
-376
-357
-250
-111
-25
-19
-28
24
142
248
258
158
27
-26
32
132
174
142
127
224
406
551
585
563
592
691
774
769
716
703
748
773
712
594
498
463
457
439
395
337
273
225
241
352
512
618
612
540
516
583
656
584
273
-219
-721
-1077
-1278
-1478
-1842
-2347
-2749
-2801
-2503
-2098
-1780
-1470
-938
-126
715
1295
1583
1784
2029
2196
2095
1728
1300
997
810
629
428
296
296
377
451
496
546
599
591
480
315
177
97
34
-43
-102
-88
-12
52
43
-12
-33
26
129
183
135
16
-89
-112
-66
-21
-38
-111
-178
-195
-180
-199
-300
-459
-604
-677
-671
-630
-615
-649
-713
-760
-777
-792
-839
-913
-967
-968
-932
-899
-889
-892
-900
-924
-971
-1020
-1049
-1060
-1073
-1088
-1082
-1038
-983
-963
-982
-989
-949
-884
-853
-877
-914
-897
-809
-696
-625
-608
-605
-567
-484
-397
-353
-367
-393
-373
-290
-186
-122
-118
-136
-126
-74
-15
11
-7
-57
-117
-172
-208
-213
-192
-168
-162
-175
-181
-158
-110
-70
-66
-100
-146
-175
-169
-130
-76
-23
11
17
3
-14
-16
-13
-41
-129
-260
-369
-383
-294
-178
-139
-212
-328
-384
-360
-332
-386
-512
-611
-601
-495
-377
-310
-281
-242
-172
-101
-80
-132
-235
-324
-339
-261
-135
-28
45
133
289
483
602
556
366
157
31
-17
-55
-125
-198
-220
-182
-111
-28
64
145
162
86
-59
-225
-426
-736
-1178
-1639
-1961
-2126
-2299
-2644
-3085
-3340
-3212
-2806
-2410
-2147
-1838
-1239
-379
420
877
1019
1073
1160
1175
981
623
291
108
28
-34
-90
-103
-73
-55
-79
-137
-225
-368
-561
-723
-775
-724
-645
-588
-548
-518
-526
-596
-703
-808
-920
-1058
-1158
-1105
-866
-580
-422
-401
-368
-210
-4
84
11
-107
-149
-130
-176
-347
-574
-746
-829
-900
-1051
-1281
-1488
-1570
-1531
-1475
-1499
-1577
-1608
-1544
-1443
-1392
-1405
-1427
-1439
-1472
-1546
-1611
-1616
-1598
-1643
-1753
-1804
-1677
-1414
-1191
-1111
-1113
-1061
-919
-793
-810
-978
-1209
-1425
-1603
-1728
-1762
-1659
-1427
-1156
-961
-883
-859
-780
-610
-445
-431
-614
-874
-1031
-986
-793
-577
-421
-334
-283
-260
-262
-282
-327
-423
-589
-791
-925
-904
-747
-544
-370
-219
-55
97
136
2
-229
-410
-466
-461
-519
-672
-806
-782
-585
-351
-232
-271
-372
-432
-450
-493
-596
-694
-687
-571
-450
-430
-488
-492
-359
-176
-110
-208
-333
-320
-161
8
66
38
53
178
347
458
488
499
546
604
615
573
534
543
580
600
606
622
631
568
416
272
262
382
496
486
386
330
398
536
638
661
594
405
85
-281
-547
-668
-780
-1058
-1476
-1765
-1672
-1214
-638
-154
257
747
1362
1956
2340
2466
2437
2342
2168
1873
1507
1219
1107
1125
1151
1130
1120
1186
1290
1330
1267
1181
1173
1248
1326
1344
1327
1349
1425
1481
1444
1317
1164
1047
978
949
965
1023
1091
1132
1144
1159
1195
1208
1140
996
848
767
746
723
668
614
602
619
629
618
615
635
644
608
541
498
493
472
384
256
173
185
247
277
242
187
165
181
204
217
218
200
149
76
39
90
208
311
337
302
267
264
271
257
222
169
97
13
-44
-28
45
107
111
94
119
188
228
189
125
132
230
328
334
261
204
226
289
312
263
180
119
100
94
66
14
-36
-50
-26
0
-6
-45
-90
-115
-121
-133
-169
-227
-294
-348
-362
-329
-281
-281
-350
-429
-441
-371
-298
-308
-395
-471
-455
-351
-240
-191
-209
-246
-250
-206
-147
-122
-166
-252
-310
-271
-144
-24
-9
-102
-204
-208
-98
57
198
344
540
757
910
965
992
1070
1142
1054
734
315
27
-41
-24
-105
-300
-456
-439
-285
-151
-164
-346
-670
-1113
-1618
-2066
-2357
-2528
-2742
-3091
-3441
-3529
-3240
-2740
-2292
-1960
-1567
-956
-216
391
706
798
832
862
820
657
426
217
56
-87
-212
-269
-221
-102
6
50
42
17
-7
-39
-90
-155
-200
-203
-163
-112
-84
-93
-127
-169
-215
-266
-306
-311
-290
-293
-352
-437
-485
-469
-436
-449
-512
-571
-579
-544
-519
-548
-626
-719
-778
-772
-708
-643
-642
-711
-790
-823
-811
-795
-789
-770
-731
-720
-783
-896
-965
-939
-878
-895
-1017
-1151
-1171
-1059
-924
-874
-907
-922
-840
-704
-627
-669
-769
-815
-764
-669
-601
-583
-580
-553
-481
-363
-224
-106
-48
-34
-2
93
233
345
387
391
411
463
508
511
482
491
570
669
707
683
686
764
829
779
668
660
784
844
701
580
892
1690
2471
2698
2478
2486
3146
4046
4339
3666
2495
1532
978
489
-264
-1185
-1938
-2327
-2401
-2262
-1937
-1442
-931
-605
-543
-647
-757
-807
-854
-971
-1152
-1297
-1313
-1201
-1024
-830
-624
-437
-358
-462
-700
-900
-933
-843
-781
-821
-897
-910
-849
-785
-776
-812
-865
-925
-964
-937
-830
-709
-680
-761
-864
-895
-852
-813
-841
-947
-1114
-1340
-1611
-1876
-2089
-2272
-2508
-2856
-3255
-3552
-3625
-3484
-3245
-2986
-2665
-2176
-1493
-745
-118
295
541
707
804
763
541
193
-150
-375
-457
-459
-462
-489
-492
-399
-214
-37
11
-100
-269
-372
-378
-361
-398
-486
-548
-532
-474
-457
-523
-629
-693
-683
-636
-606
-591
-554
-494
-441
-433
-473
-540
-613
-680
-731
-765
-811
-873
-899
-831
-720
-738
-999
-1405
-1696
-1712
-1556
-1441
-1443
-1432
-1257
-939
-633
-451
-373
-345
-390
-586
-945
-1348
-1621
-1673
-1551
-1386
-1284
-1264
-1255
-1148
-898
-558
-276
-174
-223
-248
-71
321
751
1028
1099
1038
931
821
756
779
788
534
-170
-1163
-1932
-2056
-1626
-1156
-1008
-970
-485
676
2070
2938
2893
2187
1327
551
-244
-1136
-1908
-2219
-1956
-1277
-395
626
1761
2823
3494
3587
3204
2611
2011
1487
1073
799
667
653
723
861
1018
1084
999
846
786
865
959
941
853
848
983
1126
1091
844
519
262
113
43
60
191
397
576
648
634
624
664
703
674
594
564
654
829
973
1011
992
1033
1188
1379
1470
1405
1279
1232
1315
1442
1477
1365
1175
1023
975
1008
1066
1117
1157
1177
1157
1086
976
823
571
173
-326
-791
-1123
-1366
-1643
-1969
-2170
-2051
-1623
-1102
-661
-208
512
1579
2717
3492
3705
3533
3296
3111
2817
2227
1395
598
82
-116
-104
21
234
511
783
985
1115
1207
1250
1193
1022
825
722
749
841
901
898
865
851
883
955
1061
1186
1302
1367
1358
1295
1220
1148
1042
866
644
466
404
437
489
509
512
526
525
462
344
252
245
288
282
169
0
-116
-118
-42
30
34
-25
-89
-102
-53
28
94
121
111
78
24
-52
-130
-173
-157
-101
-55
-52
-73
-58
25
136
189
132
24
-12
98
295
443
467
433
467
604
744
766
667
566
566
652
728
738
717
730
786
849
898
940
976
976
932
898
939
1034
1091
1067
1032
1082
1200
1255
1161
994
898
897
880
755
590
548
678
855
927
883
835
858
905
885
798
738
761
815
806
736
721
839
1018
1098
1016
887
868
975
1076
1061
988
1013
1193
1414
1520
1494
1456
1507
1612
1651
1564
1419
1335
1375
1490
1593
1654
1733
1912
2188
2452
2579
2553
2479
2454
2452
2342
2036
1585
1137
798
571
394
197
-67
-419
-795
-1060
-1126
-1077
-1143
-1479
-1960
-2251
-2124
-1683
-1250
-1009
-819
-398
334
1157
1763
2029
2065
2043
2012
1916
1708
1427
1149
949
869
910
1024
1130
1174
1172
1170
1160
1090
958
854
857
931
962
893
804
792
830
781
575
295
88
-2
-51
-125
-192
-180
-95
-37
-92
-231
-343
-363
-338
-366
-472
-577
-583
-471
-333
-267
-287
-329
-337
-324
-359
-466
-590
-657
-660
-658
-696
-745
-747
-689
-618
-567
-501
-374
-222
-154
-227
-365
-424
-366
-306
-370
-532
-629
-541
-320
-115
-4
57
129
184
148
9
-155
-265
-340
-452
-604
-695
-619
-393
-160
-59
-94
-136
-71
87
208
186
50
-62
-40
93
225
272
254
245
287
357
419
448
437
390
344
355
438
535
560
506
442
418
394
299
152
61
89
177
223
218
252
383
551
653
648
578
481
361
207
42
-108
-254
-418
-577
-667
-655
-581
-513
-477
-441
-379
-306
-253
-215
-158
-56
55
107
79
29
53
174
302
321
220
112
105
180
229
192
124
100
104
56
-57
-152
-164
-140
-176
-280
-357
-331
-240
-191
-248
-395
-607
-871
-1122
-1247
-1219
-1193
-1394
-1846
-2277
-2361
-2049
-1613
-1335
-1212
-993
-484
251
971
1475
1716
1739
1608
1391
1153
914
632
277
-73
-282
-279
-127
45
151
187
194
206
223
232
214
175
161
229
337
335
93
-361
-840
-1175
-1352
-1450
-1487
-1394
-1140
-789
-440
-145
72
159
50
-250
-631
-959
-1140
-1132
-963
-732
-530
-322
84
801
1623
2103
2008
1598
1319
1321
1314
972
315
-370
-887
-1260
-1580
-1890
-2240
-2659
-3000
-2890
-2095
-923
-91
-22
-371
-436
18
476
273
-651
-1635
-1957
-1503
-754
-273
-238
-447
-656
-825
-1088
-1551
-2188
-2883
-3520
-4008
-4238
-4099
-3597
-2899
-2242
-1781
-1515
-1376
-1335
-1397
-1509
-1586
-1605
-1635
-1731
-1837
-1844
-1729
-1602
-1574
-1630
-1678
-1690
-1724
-1783
-1764
-1576
-1295
-1112
-1115
-1171
-1059
-715
-301
-46
-25
-137
-243
-309
-387
-510
-650
-742
-769
-780
-808
-816
-745
-612
-534
-629
-861
-1041
-1005
-785
-566
-506
-585
-635
-522
-292
-131
-174
-363
-510
-475
-275
-40
130
230
303
378
449
524
613
680
649
487
282
173
232
388
484
448
355
346
480
655
710
592
415
333
356
334
127
-223
-508
-577
-494
-478
-684
-1035
-1309
-1355
-1211
-1025
-869
-657
-257
351
1013
1530
1827
1995
2147
2270
2234
1955
1543
1250
1229
1396
1540
1550
1522
1619
1864
2122
2246
2203
2059
1883
1715
1596
1581
1671
1781
1822
1792
1780
1851
1968
2031
1983
1861
1738
1647
1571
1493
1430
1417
1462
1548
1643
1721
1754
1732
1664
1588
1530
1476
1399
1302
1240
1264
1363
1476
1555
1602
1616
1570
1445
1284
1176
1145
1126
1045
923
853
891
996
1093
1164
1239
1315
1345
1293
1191
1105
1056
1004
906
786
706
698
744
810
889
983
1062
1070
1002
928
943
1052
1160
1176
1129
1126
1223
1345
1372
1276
1143
1077
1086
1087
1024
925
871
913
1016
1095
1101
1070
1079
1132
1148
1040
824
629
564
593
581
450
266
176
250
410
522
514
428
364
371
400
383
320
287
347
456
506
455
378
384
471
526
463
322
219
212
245
234
169
125
154
223
260
239
220
284
446
633
764
834
897
988
1071
1092
1060
1043
1079
1121
1102
1019
965
1013
1126
1185
1111
951
816
773
805
843
847
828
826
865
930
953
851
571
129
-377
-830
-1178
-1478
-1828
-2226
-2518
-2506
-2132
-1559
-1018
-582
-114
540
1340
2052
2460
2564
2539
2518
2474
2297
1962
1590
1316
1171
1089
1016
972
989
1051
1115
1180
1263
1330
1287
1107
918
892
1039
1173
1113
897
752
824
1014
1108
1017
855
776
810
875
906
908
898
864
793
727
725
792
857
850
776
688
629
604
598
606
619
613
576
523
486
466
441
403
378
385
389
327
202
92
81
148
191
138
28
-35
-1
98
191
244
265
279
299
327
359
376
372
368
389
426
432
386
333
339
416
488
484
416
374
418
519
598
622
640
710
830
935
972
951
940
997
1102
1173
1158
1083
1040
1084
1176
1221
1171
1072
1011
1019
1054
1054
1011
968
958
963
950
922
915
944
956
878
718
574
545
617
672
623
510
452
540
743
950
1068
1082
1046
1020
1020
1013
966
880
780
682
594
550
585
700
826
890
889
886
926
987
1027
1061
1130
1208
1206
1090
949
923
1043
1187
1216
1112
969
881
861
871
881
878
856
823
812
861
970
1081
1124
1060
902
670
359
-32
-453
-836
-1176
-1545
-1996
-2434
-2666
-2572
-2244
-1878
-1553
-1156
-555
194
870
1304
1532
1692
1823
1824
1604
1213
813
526
358
242
126
19
-46
-54
-34
-28
-68
-157
-270
-373
-442
-458
-416
-340
-278
-269
-307
-351
-381
-421
-482
-535
-533
-484
-449
-471
-511
-499
-428
-370
-398
-487
-544
-515
-451
-437
-505
-606
-687
-736
-777
-818
-840
-830
-803
-783
-780
-792
-827
-894
-967
-1005
-1007
-1034
-1152
-1318
-1397
-1308
-1129
-1015
-1022
-1057
-1005
-888
-822
-876
-1004
-1118
-1192
-1236
-1231
-1158
-1055
-1003
-1013
-982
-807
-536
-345
-334
-397
-336
-112
87
58
-168
-341
-282
-72
46
5
55
508
1341
2118
2352
1939
1222
627
281
-3
-429
-969
-1392
-1483
-1202
-670
-90
359
557
483
213
-148
-520
-849
-1066
-1108
-979
-757
-535
-328
-94
164
345
341
153
-87
-235
-234
-106
126
441
747
898
799
530
299
248
341
438
457
442
484
617
805
988
1136
1242
1307
1343
1361
1368
1363
1346
1326
1298
1246
1156
1046
969
964
1022
1089
1124
1141
1189
1288
1403
1477
1499
1515
1563
1606
1561
1418
1271
1204
1154
950
525
35
-297
-446
-626
-1013
-1496
-1774
-1690
-1389
-1100
-828
-379
354
1190
1833
2179
2371
2572
2746
2734
2476
2091
1741
1495
1345
1288
1336
1447
1529
1540
1543
1620
1750
1794
1666
1435
1258
1226
1302
1383
1417
1418
1416
1409
1391
1379
1391
1413
1389
1270
1062
834
658
552
474
368
230
111
66
104
173
202
159
65
-35
-94
-107
-108
-143
-224
-315
-364
-355
-325
-329
-384
-442
-444
-390
-345
-364
-431
-470
-430
-345
-306
-358
-447
-480
-425
-338
-293
-294
-283
-215
-110
-40
-41
-90
-135
-144
-130
-125
-144
-176
-188
-157
-91
-31
-12
-22
-10
58
150
199
181
145
165
252
333
335
259
174
153
199
264
300
304
300
313
346
391
435
458
438
385
355
427
632
886
1042
1024
908
838
862
865
699
371
61
-56
19
142
199
214
265
338
332
178
-72
-305
-479
-642
-847
-1074
-1224
-1206
-1026
-802
-668
-685
-789
-862
-834
-729
-636
-608
-610
-570
-462
-336
-266
-279
-326
-347
-331
-330
-388
-482
-558
-587
-608
-678
-799
-926
-1006
-1020
-987
-928
-857
-791
-735
-703
-735
-869
-1081
-1297
-1475
-1695
-2098
-2681
-3226
-3465
-3352
-3107
-2949
-2858
-2632
-2157
-1548
-1019
-684
-514
-445
-447
-488
-512
-517
-584
-796
-1106
-1336
-1360
-1231
-1124
-1165
-1316
-1439
-1437
-1315
-1150
-1025
-979
-988
-983
-918
-825
-792
-867
-1008
-1109
-1113
-1059
-1033
-1066
-1102
-1078
-1009
-982
-1053
-1179
-1255
-1233
-1166
-1143
-1189
-1254
-1282
-1288
-1321
-1390
-1447
-1446
-1401
-1382
-1430
-1518
-1574
-1551
-1476
-1428
-1460
-1537
-1567
-1499
-1388
-1349
-1437
-1586
-1684
-1688
-1661
-1681
-1744
-1772
-1711
-1595
-1506
-1489
-1505
-1484
-1407
-1331
-1319
-1367
-1405
-1379
-1319
-1291
-1307
-1307
-1235
-1120
-1044
-1031
-1009
-897
-705
-527
-431
-382
-305
-185
-88
-78
-139
-199
-213
-196
-190
-191
-154
-53
80
179
200
154
94
59
52
46
16
-28
-47
-18
41
95
135
179
237
273
237
125
13
-12
60
143
149
85
52
128
273
369
355
301
314
388
390
231
12
-49
133
392
484
354
202
238
450
642
671
581
529
605
774
947
1062
1114
1154
1243
1389
1491
1402
1087
696
428
339
306
187
-3
-105
11
311
641
860
942
943
925
898
807
570
165
-311
-700
-937
-1122
-1415
-1831
-2185
-2260
-2039
-1734
-1559
-1474
-1256
-803
-288
40
170
336
688
1037
1046
648
158
-101
-184
-450
-1067
-1753
-2054
-1824
-1340
-962
-744
-457
79
762
1301
1506
1428
1238
1027
767
457
199
68
-23
-239
-581
-836
-822
-641
-609
-878
-1223
-1316
-1166
-1099
-1332
-1657
-1689
-1358
-1028
-1044
-1296
-1344
-934
-302
77
-9
-360
-652
-776
-874
-1119
-1534
-1996
-2362
-2544
-2533
-2408
-2286
-2238
-2240
-2207
-2100
-1976
-1922
-1951
-1958
-1828
-1545
-1226
-1030
-1029
-1127
-1143
-986
-773
-701
-835
-1031
-1107
-1073
-1110
-1336
-1650
-1857
-1893
-1849
-1808
-1758
-1651
-1525
-1444
-1411
-1357
-1254
-1161
-1124
-1098
-1037
-962
-937
-977
-1011
-1010
-1038
-1181
-1423
-1654
-1765
-1741
-1611
-1397
-1117
-838
-632
-519
-490
-562
-804
-1221
-1676
-1973
-2031
-1980
-2024
-2184
-2260
-2056
-1641
-1336
-1373
-1640
-1796
-1660
-1411
-1342
-1501
-1667
-1626
-1437
-1294
-1249
-1165
-972
-801
-826
-1013
-1154
-1133
-1065
-1143
-1407
-1681
-1763
-1633
-1428
-1278
-1186
-1053
-824
-568
-437
-499
-641
-657
-453
-142
65
95
73
157
350
507
486
303
90
-39
-59
8
129
278
419
505
522
492
424
270
-20
-405
-768
-1029
-1231
-1468
-1745
-1928
-1884
-1642
-1356
-1107
-808
-325
328
968
1416
1678
1887
2117
2273
2219
1947
1628
1455
1467
1534
1505
1359
1222
1232
1386
1555
1605
1526
1414
1365
1388
1428
1459
1492
1542
1594
1614
1586
1527
1473
1462
1512
1594
1633
1583
1492
1470
1561
1668
1648
1480
1301
1252
1326
1390
1348
1250
1203
1236
1281
1271
1221
1197
1224
1259
1236
1138
1004
892
838
839
846
809
723
640
620
677
754
782
746
698
700
762
846
908
938
932
884
810
762
782
845
870
816
733
707
762
853
934
1015
1116
1204
1227
1188
1164
1213
1288
1286
1179
1055
1039
1161
1337
1466
1519
1544
1578
1616
1626
1602
1570
1536
1479
1398
1333
1333
1395
1466
1516
1577
1686
1792
1788
1629
1407
1258
1211
1155
980
723
544
558
717
868
910
886
913
1037
1188
1258
1207
1095
1004
967
952
936
919
913
915
920
944
1005
1089
1146
1148
1126
1143
1217
1291
1303
1257
1216
1223
1246
1225
1153
1089
1083
1117
1125
1067
969
884
838
821
819
828
855
891
927
957
984
1006
1007
950
783
466
22
-434
-785
-1033
-1310
-1722
-2170
-2402
-2266
-1889
-1554
-1381
-1199
-771
-98
558
967
1159
1318
1531
1707
1733
1607
1402
1147
848
582
449
409
270
-73
-465
-650
-579
-463
-477
-521
-407
-171
-56
-170
-285
-107
343
739
846
787
876
1240
1715
2059
2178
2134
2035
1941
1871
1789
1635
1393
1152
999
929
857
746
667
682
728
688
584
570
728
937
1031
1017
1059
1214
1311
1154
781
450
350
424
494
485
461
504
594
670
710
717
696
652
612
606
607
572
527
590
830
1139
1315
1271
1132
1087
1165
1198
1031
711
452
440
685
1044
1363
1601
1831
2130
2482
2764
2852
2741
2563
2448
2400
2322
2154
1969
1904
1990
2125
2188
2154
2103
2090
2085
2041
1956
1870
1798
1755
1751
1787
1800
1714
1547
1426
1427
1424
1183
678
194
52
208
255
-108
-763
-1220
-1033
-237
663
1100
1102
1251
1932
2706
2791
2094
1430
1435
1567
720
-1151
-2599
-2360
-1059
-524
-1465
-2489
-1882
203
1953
2179
1667
1948
3272
4430
4348
3337
2561
2669
3285
3587
3221
2495
1986
2083
2662
3223
3241
2674
1994
1669
1687
1705
1505
1194
985
952
1025
1088
1087
1033
947
803
591
365
192
133
224
460
803
1188
1527
1774
2008
2335
2677
2729
2210
1250
408
175
481
806
812
728
1046
1891
2852
3415
3439
3160
2830
2476
2025
1535
1213
1201
1412
1577
1544
1433
1498
1808
2076
1899
1202
372
-118
-156
10
138
248
485
829
1091
1158
1106
1055
1004
871
665
506
456
422
283
69
-54
-3
117
142
47
-21
53
194
221
62
-147
-227
-176
-154
-279
-477
-582
-555
-524
-590
-694
-706
-607
-513
-517
-578
-603
-579
-567
-604
-661
-710
-768
-842
-887
-868
-827
-851
-943
-993
-909
-745
-664
-764
-990
-1204
-1320
-1338
-1309
-1275
-1267
-1288
-1300
-1231
-1057
-858
-791
-934
-1199
-1404
-1442
-1363
-1290
-1300
-1354
-1347
-1229
-1048
-920
-934
-1022
-1048
-984
-949
-1031
-1131
-1114
-1109
-1463
-2260
-3039
-3234
-2922
-2859
-3590
-4668
-5031
-4182
-2729
-1636
-1176
-814
-22
1103
2090
2664
2868
2771
2365
1769
1297
1154
1177
1049
710
398
334
427
453
367
314
394
528
572
476
316
193
144
127
-6
-467
-1355
-2463
-3334
-3602
-3297
-2795
-2405
-2080
-1543
-682
257
858
885
432
-239
-930
-1598
-2275
-2929
-3425
-3636
-3540
-3234
-2837
-2365
-1751
-995
-245
302
578
698
805
910
913
752
503
281
119
-32
-192
-291
-261
-139
-38
-27
-64
-69
-39
-48
-159
-331
-460
-483
-433
-387
-389
-426
-466
-496
-508
-464
-333
-160
-50
-57
-117
-117
-28
56
36
-73
-158
-149
-77
-13
14
35
64
76
45
-12
-43
-24
31
82
95
53
-38
-132
-174
-156
-138
-186
-296
-381
-368
-278
-205
-204
-236
-215
-138
-85
-117
-196
-226
-160
-69
-57
-134
-210
-197
-118
-68
-94
-148
-154
-108
-59
-30
15
105
206
265
278
296
345
379
337
231
139
122
165
217
256
295
343
386
414
447
497
539
528
452
361
317
333
366
360
302
232
207
245
302
315
256
177
155
208
270
264
186
114
108
155
189
167
96
22
-16
-4
41
78
70
27
-6
3
16
-21
-105
-160
-127
-48
-19
-62
-86
4
182
332
374
361
395
502
606
626
574
540
592
697
754
694
554
446
453
536
566
458
266
140
176
319
435
459
437
449
499
520
454
294
40
-325
-790
-1255
-1597
-1813
-2040
-2393
-2788
-2997
-2895
-2593
-2279
-1971
-1493
-738
137
842
1253
1511
1791
2052
2081
1771
1277
872
682
617
533
407
324
357
480
603
656
634
564
476
401
358
363
416
505
590
617
557
441
346
330
381
447
506
590
731
890
982
974
922
894
882
810
642
436
280
179
59
-132
-364
-560
-684
-750
-770
-743
-677
-622
-626
-668
-671
-596
-495
-458
-520
-618
-669
-649
-610
-607
-645
-684
-683
-652
-626
-627
-644
-639
-584
-491
-406
-372
-390
-430
-457
-472
-492
-510
-500
-447
-368
-293
-223
-141
-51
5
-2
-59
-120
-166
-209
-250
-261
-228
-187
-185
-208
-187
-89
31
92
72
33
28
39
15
-49
-109
-135
-151
-196
-270
-333
-363
-381
-412
-449
-472
-490
-526
-581
-616
-600
-559
-543
-572
-606
-591
-532
-483
-474
-480
-459
-412
-393
-439
-525
-582
-565
-504
-472
-513
-598
-644
-586
-437
-280
-197
-194
-205
-169
-80
20
92
129
148
162
182
219
275
339
393
424
437
445
463
504
571
648
698
698
663
638
650
680
679
627
544
463
383
252
19
-307
-636
-871
-1011
-1161
-1425
-1760
-1978
-1907
-1570
-1158
-813
-480
11
699
1395
1851
1996
1973
1937
1880
1696
1371
1031
814
722
654
571
538
608
729
786
745
683
672
681
633
522
440
458
546
611
618
609
629
653
622
529
428
373
348
302
210
94
-8
-83
-132
-145
-109
-39
25
39
3
-48
-86
-119
-176
-265
-358
-422
-451
-459
-455
-439
-426
-451
-532
-634
-691
-688
-685
-751
-870
-953
-947
-904
-904
-952
-970
-909
-802
-719
-667
-599
-498
-404
-352
-323
-271
-203
-170
-198
-246
-264
-261
-284
-354
-436
-487
-498
-484
-460
-416
-331
-219
-123
-75
-65
-34
67
204
257
157
-8
-37
168
468
599
433
112
-112
-136
-98
-210
-541
-959
-1268
-1375
-1329
-1243
-1203
-1226
-1278
-1312
-1293
-1225
-1153
-1145
-1232
-1387
-1547
-1645
-1663
-1639
-1629
-1648
-1649
-1585
-1468
-1376
-1377
-1447
-1496
-1495
-1522
-1659
-1850
-1914
-1740
-1419
-1168
-1089
-1062
-906
-612
-368
-370
-604
-854
-920
-799
-653
-627
-701
-743
-666
-514
-389
-330
-289
-236
-220
-302
-455
-550
-503
-361
-243
-205
-201
-158
-60
35
49
-83
-381
-805
-1223
-1484
-1561
-1576
-1674
-1869
-1991
-1858
-1454
-948
-540
-292
-97
194
600
964
1099
965
746
679
812
949
859
539
198
40
56
100
96
74
68
22
-115
-268
-277
-79
204
400
474
532
652
799
886
859
718
478
200
44
170
540
873
892
622
373
411
667
844
745
464
233
167
219
299
387
509
636
700
655
535
441
445
527
578
505
344
260
388
666
854
772
493
251
190
239
255
205
175
230
316
359
365
408
536
725
913
1047
1081
1016
921
888
940
988
945
832
758
778
837
874
911
1017
1183
1280
1234
1137
1152
1303
1448
1461
1380
1398
1642
2028
2382
2645
2917
3294
3667
3785
3526
3058
2657
2432
2266
2062
1924
2009
2240
2306
2033
1608
1344
1240
935
180
-762
-1332
-1272
-872
-537
-251
381
1539
2779
3351
2942
2004
1219
765
217
-850
-2231
-3177
-3128
-2291
-1418
-1060
-1115
-1113
-856
-616
-721
-1099
-1350
-1238
-961
-844
-856
-618
95
978
1458
1308
846
507
357
128
-314
-718
-734
-332
155
404
379
257
160
52
-147
-435
-745
-999
-1092
-948
-659
-503
-714
-1182
-1512
-1465
-1276
-1428
-2081
-2846
-3194
-3014
-2644
-2397
-2204
-1789
-1080
-301
293
638
809
838
698
430
164
-27
-198
-412
-614
-656
-473
-177
52
127
101
84
130
193
171
-17
-330
-612
-698
-559
-326
-167
-155
-252
-376
-461
-467
-389
-264
-155
-101
-95
-117
-156
-187
-156
-40
84
98
-17
-145
-150
-66
-65
-222
-400
-406
-247
-137
-234
-440
-537
-447
-331
-383
-604
-827
-926
-938
-962
-1023
-1054
-1012
-930
-857
-791
-695
-571
-473
-453
-515
-623
-729
-770
-705
-553
-414
-395
-492
-566
-496
-318
-182
-176
-238
-253
-193
-119
-65
4
123
264
375
455
549
674
769
775
710
658
680
770
869
915
897
852
829
862
948
1077
1230
1366
1427
1371
1255
1208
1282
1359
1240
860
386
73
23
106
127
23
-112
-131
26
291
521
593
491
329
256
317
433
500
497
506
600
739
822
807
753
739
773
784
726
641
623
724
902
1075
1180
1209
1179
1127
1107
1147
1214
1226
1144
1042
1039
1153
1257
1208
1014
835
808
915
1031
1084
1123
1230
1397
1538
1585
1533
1422
1263
1013
626
125
-366
-723
-957
-1202
-1548
-1897
-2044
-1908
-1609
-1299
-965
-467
237
1003
1637
2075
2356
2512
2532
2427
2240
1968
1591
1184
935
958
1112
1146
999
860
909
1077
1146
1049
948
986
1108
1171
1154
1174
1298
1437
1465
1375
1259
1186
1155
1140
1142
1171
1205
1210
1175
1136
1125
1141
1165
1174
1161
1127
1073
1012
957
917
878
823
744
659
594
558
524
452
343
237
171
136
85
-19
-143
-201
-140
4
129
160
124
111
171
246
234
128
33
47
133
167
107
48
103
245
329
270
145
85
118
158
149
144
211
329
411
436
490
646
833
904
811
675
667
852
1129
1343
1418
1400
1389
1421
1439
1350
1124
842
640
585
615
616
550
461
406
376
316
184
-9
-206
-341
-389
-372
-347
-339
-314
-225
-84
34
69
48
49
120
248
405
587
773
903
917
826
707
627
578
509
384
211
27
-139
-275
-398
-538
-700
-838
-869
-761
-572
-396
-286
-210
-119
-16
51
37
-55
-170
-250
-252
-191
-130
-117
-141
-144
-78
54
220
387
542
675
780
863
914
882
710
369
-130
-730
-1343
-1858
-2222
-2516
-2897
-3392
-3781
-3758
-3266
-2609
-2153
-1942
-1685
-1142
-445
42
131
-34
-195
-265
-346
-505
-655
-672
-565
-447
-381
-309
-151
81
277
354
332
285
267
272
257
211
161
121
47
-118
-350
-546
-611
-566
-510
-482
-391
-119
321
750
993
1032
991
968
943
834
617
329
12
-325
-660
-929
-1066
-1051
-932
-776
-646
-588
-609
-669
-712
-734
-810
-1005
-1269
-1458
-1469
-1333
-1174
-1075
-1022
-961
-871
-775
-701
-655
-622
-599
-601
-626
-650
-650
-621
-584
-563
-556
-542
-522
-534
-611
-725
-782
-716
-552
-392
-321
-335
-366
-356
-306
-247
-206
-181
-144
-75
26
129
195
215
219
242
283
308
310
317
361
437
517
596
694
815
921
970
967
949
936
910
853
783
745
753
781
806
845
919
1012
1076
1072
1019
965
934
911
873
825
792
791
812
841
874
915
940
908
806
680
606
612
649
633
548
472
517
711
964
1151
1223
1246
1326
1491
1664
1739
1687
1595
1568
1615
1656
1626
1560
1544
1602
1661
1650
1588
1552
1575
1614
1627
1630
1652
1668
1625
1520
1419
1338
1188
887
496
182
26
-91
-327
-656
-844
-706
-314
97
401
704
1167
1771
2312
2621
2726
2767
2812
2790
2620
2340
2072
1895
1785
1689
1596
1532
1514
1531
1558
1572
1546
1454
1325
1235
1229
1273
1283
1222
1139
1106
1128
1145
1107
1031
972
955
963
963
958
966
987
989
950
895
878
910
940
895
768
630
552
544
556
552
547
569
613
646
655
650
637
598
522
441
411
444
482
472
433
436
511
601
626
573
497
455
440
436
489
667
930
1117
1096
923
793
812
862
763
492
213
79
82
120
171
305
544
774
861
807
740
752
782
710
502
247
69
20
61
126
177
206
222
235
255
288
325
347
342
308
256
207
172
149
130
130
166
217
219
128
-15
-120
-145
-143
-193
-292
-355
-317
-214
-141
-152
-211
-253
-239
-170
-52
87
182
168
51
-70
-101
-65
-77
-211
-404
-517
-492
-412
-394
-458
-515
-490
-412
-374
-419
-494
-523
-480
-403
-336
-279
-210
-125
-37
37
93
115
76
-18
-124
-191
-198
-162
-109
-68
-74
-146
-257
-339
-379
-443
-612
-866
-1070
-1117
-1074
-1126
-1374
-1712
-1921
-1882
-1667
-1425
-1206
-926
-479
130
759
1243
1499
1564
1522
1420
1247
991
692
437
293
262
305
383
463
514
510
445
337
212
105
64
129
286
455
567
647
774
968
1119
1072
779
353
-47
-343
-569
-792
-1045
-1315
-1543
-1651
-1567
-1311
-1016
-846
-855
-939
-948
-848
-748
-776
-932
-1096
-1153
-1091
-992
-922
-884
-848
-811
-812
-881
-992
-1098
-1162
-1182
-1179
-1176
-1182
-1196
-1208
-1222
-1254
-1323
-1415
-1477
-1461
-1367
-1251
-1167
-1118
-1070
-1007
-962
-990
-1103
-1257
-1385
-1444
-1449
-1439
-1432
-1403
-1300
-1108
-885
-733
-701
-745
-775
-752
-718
-728
-772
-794
-768
-720
-680
-637
-566
-490
-466
-500
-525
-479
-391
-371
-477
-640
-734
-721
-680
-688
-729
-721
-621
-471
-333
-232
-156
-127
-189
-341
-511
-617
-647
-669
-742
-842
-879
-801
-649
-511
-424
-349
-244
-137
-120
-237
-411
-520
-522
-510
-583
-705
-730
-583
-358
-215
-213
-255
-221
-109
5
76
125
184
264
369
513
668
744
670
507
416
472
558
488
244
35
82
373
670
759
672
606
676
809
848
749
597
457
293
31
-335
-736
-1122
-1517
-1958
-2363
-2566
-2453
-2043
-1455
-766
40
944
1794
2386
2656
2758
2886
3035
2991
2611
2060
1684
1663
1843
1931
1854
1800
1929
2153
2257
2206
2183
2311
2477
2471
2264
2061
2024
2056
1919
1556
1153
908
821
747
626
570
698
964
1183
1239
1170
1076
994
872
703
575
597
767
961
1059
1072
1100
1190
1253
1135
811
458
306
405
561
550
389
342
612
1068
1318
1078
497
68
143
590
937
876
570
455
761
1254
1509
1349
972
704
680
782
840
823
827
925
1065
1126
1039
865
747
785
933
1041
1017
907
841
890
1007
1121
1203
1276
1349
1415
1480
1576
1699
1777
1739
1610
1498
1478
1513
1523
1506
1533
1640
1745
1749
1684
1691
1847
2018
1996
1757
1520
1489
1597
1588
1344
1054
987
1164
1335
1295
1125
1075
1258
1519
1643
1586
1440
1293
1130
964
909
1047
1253
1302
1193
1217
1577
2046
2186
1886
1536
1508
1609
1284
367
-610
-1008
-831
-666
-904
-1262
-1162
-432
583
1485
2202
2861
3509
4067
4485
4775
4894
4763
4420
4028
3722
3437
3026
2500
2103
2058
2300
2531
2529
2345
2191
2183
2185
1918
1260
384
-379
-835
-1018
-1064
-997
-730
-190
587
1486
2368
3105
3605
3843
3893
3869
3807
3627
3269
2807
2438
2308
2375
2482
2518
2492
2462
2436
2377
2274
2170
2096
2031
1922
1765
1634
1594
1619
1623
1569
1503
1492
1530
1553
1527
1483
1481
1527
1571
1562
1509
1461
1451
1461
1447
1386
1306
1253
1241
1247
1241
1220
1202
1190
1175
1146
1112
1076
1027
953
870
817
818
844
816
704
589
561
579
558
496
500
601
633
433
91
-123
-114
-139
-486
-1089
-1641
-2028
-2451
-2980
-3210
-2649
-1418
-273
211
318
828
2036
3353
3961
3682
3090
2816
2968
3226
3303
3210
3102
3034
2955
2855
2775
2752
2748
2638
2356
1985
1727
1725
1916
2097
2128
2040
1957
1930
1914
1838
1714
1649
1739
1940
2051
1887
1479
1108
1056
1293
1462
1231
678
236
237
571
849
849
756
893
1338
1867
2226
2366
2406
2408
2324
2121
1875
1711
1663
1656
1610
1533
1511
1588
1724
1828
1830
1748
1649
1578
1538
1518
1523
1567
1647
1724
1754
1721
1641
1538
1434
1348
1304
1297
1289
1256
1208
1191
1239
1322
1384
1392
1351
1285
1197
1053
804
438
23
-325
-548
-708
-925
-1211
-1427
-1406
-1140
-792
-497
-207
219
811
1409
1820
1998
2049
2079
2067
1927
1636
1289
1016
864
788
721
647
611
658
781
909
960
901
773
658
605
602
612
613
625
670
722
713
606
450
341
331
364
359
299
252
267
296
271
185
128
174
288
363
343
288
284
350
400
329
95
-236
-524
-659
-651
-625
-715
-913
-1063
-1024
-832
-660
-632
-703
-753
-750
-771
-869
-988
-1019
-924
-782
-698
-700
-704
-603
-365
-92
26
-112
-391
-576
-546
-436
-488
-768
-1090
-1223
-1116
-913
-742
-604
-456
-314
-255
-320
-452
-570
-643
-708
-799
-906
-967
-910
-721
-475
-295
-238
-247
-240
-199
-190
-259
-377
-486
-569
-651
-739
-781
-733
-620
-512
-459
-451
-455
-456
-467
-502
-557
-611
-651
-677
-718
-807
-930
-1004
-949
-782
-619
-563
-596
-601
-512
-388
-354
-445
-564
-599
-549
-512
-545
-593
-558
-438
-320
-288
-312
-299
-228
-175
-209
-298
-335
-274
-195
-204
-298
-364
-313
-182
-95
-125
-238
-364
-465
-525
-519
-460
-447
-609
-928
-1201
-1245
-1120
-1065
-1213
-1446
-1568
-1552
-1539
-1608
-1693
-1730
-1805
-2028
-2321
-2447
-2278
-1922
-1579
-1306
-1001
-592
-122
315
649
825
802
612
389
263
224
147
-7
-138
-146
-66
-17
-42
-84
-83
-48
-27
-34
-65
-177
-447
-891
-1430
-1963
-2425
-2772
-2957
-2934
-2696
-2265
-1657
-906
-121
537
947
1118
1142
1087
964
781
587
444
365
320
282
264
280
293
242
97
-103
-287
-415
-488
-524
-539
-533
-516
-525
-584
-673
-740
-760
-754
-754
-762
-747
-702
-661
-663
-702
-743
-778
-837
-935
-1040
-1120
-1183
-1261
-1326
-1316
-1249
-1266
-1502
-1916
-2287
-2420
-2327
-2158
-1997
-1777
-1419
-984
-642
-500
-506
-538
-546
-571
-646
-710
-639
-355
88
544
875
1034
1054
994
881
693
403
38
-302
-509
-544
-470
-366
-265
-183
-140
-174
-306
-487
-638
-745
-877
-1102
-1390
-1622
-1734
-1833
-2134
-2734
-3437
-3837
-3651
-2981
-2235
-1719
-1352
-807
53
970
1518
1532
1208
834
507
155
-231
-524
-615
-543
-436
-322
-136
110
284
270
104
-72
-173
-238
-331
-412
-386
-233
-65
-17
-114
-267
-394
-465
-489
-461
-353
-147
130
416
636
744
747
696
625
489
182
-346
-993
-1553
-1904
-2142
-2487
-3012
-3495
-3598
-3213
-2570
-2002
-1575
-1051
-217
807
1653
2073
2156
2143
2121
1968
1587
1060
588
300
172
134
166
272
431
611
795
953
1013
908
674
448
338
324
322
307
344
475
642
754
788
789
780
737
646
550
496
455
360
210
97
102
186
228
159
17
-124
-230
-310
-367
-376
-333
-274
-240
-219
-168
-71
20
20
-105
-300
-457
-510
-495
-506
-596
-712
-749
-680
-587
-580
-665
-742
-735
-693
-725
-861
-1000
-1035
-976
-911
-883
-829
-687
-507
-408
-421
-443
-364
-223
-171
-300
-513
-623
-548
-377
-264
-266
-309
-292
-180
-26
98
153
146
115
101
126
190
257
278
232
141
62
37
40
10
-76
-159
-169
-112
-74
-125
-239
-329
-355
-355
-383
-428
-441
-409
-369
-357
-352
-315
-261
-253
-337
-478
-591
-622
-588
-545
-518
-490
-433
-339
-229
-126
-40
19
36
1
-71
-146
-188
-194
-190
-203
-244
-283
-283
-228
-137
-54
-4
25
60
96
109
95
101
167
259
288
216
109
63
101
139
93
-13
-83
-70
-23
-22
-79
-134
-148
-170
-299
-587
-983
-1362
-1616
-1754
-1889
-2140
-2483
-2740
-2738
-2480
-2147
-1894
-1667
-1269
-611
152
741
1022
1112
1201
1325
1346
1140
759
392
175
88
44
21
63
169
253
240
172
164
246
312
254
108
35
130
319
448
455
403
362
314
209
64
-39
-53
-22
-29
-94
-155
-153
-95
-30
-2
-16
-64
-130
-175
-149
-47
56
73
-5
-96
-125
-123
-189
-378
-632
-848
-974
-1032
-1067
-1094
-1112
-1132
-1163
-1201
-1240
-1292
-1370
-1456
-1504
-1505
-1490
-1489
-1480
-1425
-1334
-1279
-1311
-1386
-1413
-1372
-1340
-1402
-1539
-1631
-1596
-1480
-1406
-1446
-1553
-1615
-1574
-1467
-1367
-1317
-1309
-1310
-1287
-1229
-1158
-1122
-1168
-1273
-1345
-1309
-1191
-1108
-1137
-1216
-1210
-1080
-942
-945
-1096
-1249
-1273
-1192
-1137
-1179
-1259
-1279
-1223
-1156
-1121
-1092
-1043
-1019
-1098
-1292
-1511
-1653
-1708
-1755
-1867
-2024
-2138
-2142
-2051
-1933
-1850
-1810
-1786
-1757
-1723
-1702
-1693
-1681
-1659
-1642
-1640
-1636
-1582
-1462
-1323
-1232
-1210
-1212
-1177
-1100
-1026
-1000
-1021
-1039
-1009
-933
-850
-800
-798
-821
-836
-833
-836
-886
-1003
-1163
-1293
-1302
-1180
-1015
-912
-901
-897
-805
-638
-528
-589
-818
-1142
-1529
-2004
-2566
-3152
-3699
-4212
-4698
-5051
-5077
-4685
-4008
-3289
-2618
-1884
-987
-48
657
953
921
761
583
372
118
-107
-238
-302
-351
-384
-392
-433
-607
-916
-1207
-1330
-1336
-1414
-1595
-1682
-1499
-1157
-960
-1073
-1331
-1457
-1392
-1333
-1463
-1696
-1776
-1566
-1174
-814
-575
-387
-166
38
90
-48
-261
-412
-478
-519
-522
-388
-101
157
167
-59
-276
-286
-179
-174
-311
-382
-181
233
611
782
784
721
597
346
-29
-408
-687
-855
-946
-942
-753
-362
85
372
401
291
243
324
407
328
94
-89
-12
350
823
1169
1266
1197
1147
1242
1425
1541
1505
1391
1337
1360
1330
1156
949
917
1119
1367
1421
1260
1100
1138
1337
1472
1383
1150
993
1026
1148
1182
1095
1013
1043
1138
1182
1189
1296
1562
1822
1840
1587
1312
1266
1413
1478
1285
971
844
1040
1386
1615
1653
1668
1835
2116
2299
2234
1992
1761
1624
1509
1325
1102
962
975
1099
1246
1380
1518
1686
1888
2122
2346
2491
2499
2391
2255
2150
2057
1936
1843
1899
2141
2438
2597
2552
2426
2378
2437
2487
2423
2258
2093
2009
2003
2032
2076
2129
2172
2175
2133
2080
2037
1950
1728
1367
994
744
608
430
87
-335
-606
-574
-309
16
328
719
1294
2007
2663
3080
3233
3244
3229
3198
3074
2807
2459
2160
2001
1965
1974
1974
1976
1997
2019
2013
1989
1976
1958
1872
1696
1522
1492
1646
1854
1947
1881
1755
1683
1670
1650
1582
1480
1356
1187
965
751
639
649
694
664
552
464
491
597
661
607
480
380
342
328
291
240
215
202
136
-10
-168
-237
-195
-140
-170
-281
-375
-377
-321
-310
-406
-558
-659
-661
-623
-658
-806
-966
-978
-799
-584
-548
-724
-910
-874
-626
-410
-414
-562
-610
-439
-183
-46
-64
-101
-49
39
41
-60
-165
-179
-117
-62
-61
-89
-98
-62
13
97
146
129
54
-28
-63
-38
1
-5
-69
-150
-189
-171
-146
-174
-263
-359
-396
-379
-373
-418
-478
-485
-437
-411
-459
-538
-565
-529
-504
-550
-631
-668
-630
-565
-507
-430
-313
-205
-181
-237
-274
-215
-108
-55
-79
-110
-74
20
113
181
244
309
346
331
299
311
381
470
518
502
447
395
388
445
540
615
635
625
651
726
816
880
920
967
1023
1047
1014
952
906
861
743
489
124
-249
-547
-784
-1055
-1418
-1806
-2057
-2058
-1855
-1583
-1311
-960
-410
315
1014
1490
1719
1840
1964
2048
1966
1677
1299
998
841
770
699
604
533
539
627
733
770
711
610
554
566
584
543
458
398
401
414
360
235
128
116
195
282
305
263
209
190
198
186
118
2
-115
-186
-205
-195
-191
-208
-255
-326
-393
-425
-427
-453
-543
-671
-752
-738
-668
-623
-640
-675
-675
-648
-647
-697
-770
-828
-850
-842
-820
-807
-814
-824
-803
-734
-655
-633
-680
-727
-697
-593
-507
-514
-594
-649
-607
-494
-380
-310
-271
-228
-160
-85
-25
24
88
175
249
250
176
98
102
192
288
303
238
166
147
163
150
83
-10
-79
-100
-87
-65
-50
-42
-34
-13
28
79
118
128
125
150
217
279
270
174
44
-48
-82
-96
-125
-154
-144
-98
-69
-99
-162
-194
-169
-133
-138
-190
-240
-251
-223
-184
-142
-95
-58
-57
-101
-152
-168
-131
-63
17
105
202
300
392
496
625
748
786
682
446
143
-182
-539
-925
-1252
-1374
-1201
-781
-249
296
846
1435
2019
2463
2630
2480
2100
1613
1104
587
51
-487
-982
-1387
-1722
-2048
-2395
-2679
-2760
-2593
-2289
-1985
-1653
-1096
-203
823
1593
1880
1822
1729
1731
1691
1436
1000
593
375
335
373
418
451
467
464
471
504
530
487
382
295
277
277
209
87
14
48
111
84
-28
-114
-104
-51
-42
-80
-80
-1
97
120
52
-27
-31
60
180
231
154
-9
-146
-182
-150
-154
-258
-416
-527
-564
-590
-673
-813
-943
-1000
-984
-943
-938
-981
-1012
-951
-795
-659
-684
-884
-1106
-1168
-1044
-888
-861
-969
-1062
-1006
-814
-633
-594
-690
-797
-809
-749
-728
-805
-910
-917
-795
-637
-538
-487
-404
-266
-164
-191
-319
-422
-408
-318
-266
-304
-370
-361
-236
-65
42
42
7
50
197
349
376
272
163
170
271
339
295
181
93
74
88
79
28
-45
-108
-129
-86
6
93
120
76
-5
-73
-103
-89
-46
-9
1
-8
1
52
118
159
174
198
241
264
241
212
249
365
497
578
621
684
787
878
906
883
868
885
906
899
872
875
940
1033
1084
1048
954
875
858
872
858
792
710
668
680
719
752
767
776
795
826
833
729
448
34
-369
-661
-922
-1334
-1943
-2534
-2804
-2661
-2292
-1910
-1514
-936
-119
746
1398
1764
1968
2120
2157
1953
1518
1041
714
571
518
471
428
433
499
601
704
777
789
725
624
556
551
569
550
498
473
504
530
469
328
218
230
334
420
424
379
344
329
298
242
193
175
157
93
-5
-72
-67
-25
-14
-61
-128
-160
-150
-138
-163
-221
-282
-313
-320
-328
-355
-394
-422
-436
-456
-502
-564
-613
-634
-641
-655
-675
-678
-643
-578
-512
-472
-454
-431
-384
-327
-291
-292
-307
-292
-234
-165
-128
-130
-133
-87
2
70
67
21
31
171
410
634
758
794
812
833
826
759
657
563
474
357
228
158
197
297
355
322
255
233
264
294
279
222
153
96
66
66
81
82
46
-1
-12
20
55
57
42
63
147
258
328
334
317
329
373
403
391
359
350
363
350
283
202
183
246
331
372
382
419
498
557
534
465
453
553
711
823
863
914
1064
1293
1470
1475
1309
1095
960
915
875
783
675
640
707
820
915
975
988
914
721
445
152
-133
-441
-763
-1011
-1128
-1189
-1321
-1509
-1558
-1310
-851
-423
-135
150
617
1232
1766
2034
2066
1997
1892
1723
1473
1204
993
841
707
582
501
477
461
399
299
210
150
92
14
-60
-76
-9
97
173
184
147
90
31
-21
-43
-6
90
187
214
159
102
136
244
299
186
-58
-269
-309
-208
-108
-106
-175
-221
-184
-71
74
202
269
239
129
6
-75
-131
-222
-371
-532
-632
-644
-600
-543
-484
-414
-337
-275
-243
-229
-210
-182
-161
-157
-160
-141
-88
-15
57
120
172
217
250
280
329
388
422
408
356
306
283
297
367
519
741
965
1136
1271
1446
1682
1892
1947
1803
1551
1315
1152
1031
908
780
660
534
375
183
6
-88
-100
-113
-210
-398
-581
-654
-609
-532
-516
-587
-696
-780
-802
-760
-662
-540
-440
-370
-279
-107
122
287
260
37
-254
-476
-606
-735
-944
-1191
-1349
-1347
-1238
-1148
-1135
-1144
-1105
-1019
-943
-906
-867
-785
-691
-653
-680
-699
-642
-532
-460
-483
-563
-623
-630
-601
-555
-488
-394
-295
-228
-202
-198
-196
-194
-204
-236
-293
-378
-489
-612
-752
-931
-1149
-1360
-1483
-1494
-1491
-1622
-1921
-2227
-2304
-2076
-1725
-1498
-1415
-1221
-675
136
835
1139
1116
1041
1034
955
653
208
-147
-325
-453
-631
-773
-725
-503
-304
-279
-402
-589
-805
-1013
-1121
-1095
-1051
-1080
-1013
-530
404
1321
1674
1442
1143
1193
1404
1250
528
-405
-1076
-1388
-1588
-1872
-2181
-2361
-2389
-2358
-2324
-2243
-2074
-1880
-1747
-1698
-1688
-1667
-1630
-1603
-1610
-1656
-1743
-1876
-2042
-2205
-2317
-2319
-2155
-1852
-1543
-1400
-1486
-1669
-1726
-1590
-1453
-1548
-1885
-2214
-2325
-2299
-2392
-2698
-3020
-3123
-3022
-2930
-2965
-2952
-2631
-2002
-1376
-1072
-1089
-1122
-902
-491
-214
-313
-699
-1044
-1098
-883
-604
-445
-453
-572
-711
-769
-699
-585
-590
-793
-1059
-1149
-1008
-835
-848
-1049
-1239
-1282
-1256
-1311
-1445
-1505
-1402
-1255
-1239
-1380
-1514
-1498
-1392
-1385
-1551
-1738
-1715
-1433
-1088
-922
-983
-1119
-1192
-1217
-1310
-1513
-1744
-1868
-1818
-1622
-1355
-1100
-937
-892
-928
-973
-984
-974
-967
-953
-918
-889
-901
-917
-816
-535
-168
89
126
52
86
326
643
809
729
524
395
431
565
685
752
792
833
872
918
1013
1166
1302
1310
1161
959
850
896
1034
1113
984
603
84
-359
-574
-620
-727
-1025
-1360
-1426
-1076
-491
22
354
662
1128
1719
2232
2540
2718
2907
3102
3137
2910
2526
2208
2069
2027
1965
1876
1853
1953
2123
2291
2449
2602
2668
2529
2206
1910
1846
1973
2030
1842
1531
1369
1468
1678
1796
1839
2004
2387
2821
3027
2922
2696
2586
2603
2530
2200
1738
1457
1507
1663
1556
1119
674
561
729
796
499
-20
-432
-598
-645
-716
-770
-694
-520
-389
-342
-297
-216
-220
-460
-887
-1295
-1536
-1651
-1731
-1752
-1639
-1423
-1223
-1095
-975
-801
-656
-662
-817
-987
-1101
-1206
-1288
-1207
-906
-625
-698
-1100
-1369
-1153
-744
-832
-1681
-2707
-3044
-2477
-1638
-1247
-1330
-1332
-788
229
1285
1995
2243
2173
1998
1852
1677
1289
630
-98
-621
-885
-1038
-1141
-1084
-862
-795
-1249
-2106
-2775
-2825
-2487
-2362
-2636
-2782
-2127
-630
1038
2124
2440
2365
2345
2475
2514
2261
1780
1309
1032
974
1051
1141
1154
984
598
98
-311
-514
-628
-787
-896
-687
-55
731
1248
1346
1242
1211
1233
1036
453
-342
-991
-1243
-1099
-689
-109
603
1405
2195
2854
3311
3532
3520
3305
2956
2567
2227
2005
1920
1959
2061
2144
2154
2084
1956
1755
1436
990
466
-79
-607
-1056
-1319
-1297
-1027
-666
-340
18
584
1397
2253
2865
3124
3177
3224
3318
3355
3246
3049
2900
2856
2866
2869
2875
2915
2944
2866
2657
2439
2351
2390
2421
2378
2367
2538
2857
3106
3109
2915
2718
2611
2499
2248
1873
1513
1287
1196
1172
1168
1168
1155
1118
1085
1117
1233
1377
1450
1413
1297
1166
1059
977
914
877
869
865
828
747
656
601
596
612
607
558
488
452
492
587
658
637
523
395
328
328
333
281
177
86
62
110
185
235
244
237
253
303
364
407
433
468
532
628
738
849
935
972
953
902
844
769
634
445
295
281
385
480
472
425
512
808
1156
1302
1154
868
666
606
603
602
694
938
1188
1229
1110
1189
1731
2502
2914
2616
1861
1227
1012
1034
973
770
628
679
803
818
714
634
623
531
155
-497
-1143
-1466
-1395
-1142
-976
-978
-991
-850
-564
-302
-151
-11
262
635
894
876
656
476
481
574
537
259
-164
-528
-704
-692
-561
-373
-182
-63
-80
-227
-398
-478
-448
-374
-314
-257
-167
-49
39
56
26
-20
-97
-279
-614
-1056
-1473
-1738
-1845
-1915
-2089
-2371
-2602
-2606
-2366
-2043
-1771
-1499
-1071
-455
169
600
820
964
1102
1142
992
723
503
386
273
83
-113
-189
-148
-113
-162
-227
-213
-137
-94
-109
-102
6
190
374
527
661
754
730
563
320
110
-51
-246
-528
-824
-998
-1010
-946
-911
-896
-810
-622
-418
-307
-266
-170
37
245
290
169
45
31
21
-162
-498
-719
-608
-307
-183
-404
-706
-708
-389
-158
-363
-863
-1142
-903
-386
-63
-83
-131
131
634
968
846
383
-95
-407
-628
-898
-1223
-1502
-1635
-1573
-1305
-888
-487
-269
-248
-262
-141
101
303
368
338
292
211
39
-182
-311
-277
-152
-30
115
346
614
745
637
380
120
-111
-363
-591
-635
-414
-37
313
590
887
1233
1487
1469
1147
637
52
-561
-1138
-1561
-1756
-1771
-1704
-1590
-1402
-1152
-926
-794
-734
-686
-630
-575
-498
-337
-126
6
-20
-125
-141
-20
101
76
-80
-207
-196
-93
-26
-35
-41
50
249
477
657
762
808
806
768
721
687
640
518
288
-6
-284
-500
-669
-832
-984
-1083
-1090
-1005
-850
-657
-466
-321
-244
-227
-255
-364
-608
-981
-1371
-1636
-1735
-1759
-1812
-1874
-1821
-1564
-1146
-693
-277
119
512
853
1071
1250
1242
1295
1241
981
559
171
-10
13
97
131
123
149
247
384
511
593
609
549
427
297
208
170
176
213
272
321
313
237
143
96
117
153
138
64
-8
-12
50
111
104
34
-30
-33
11
52
53
24
-4
-17
-32
-75
-142
-204
-230
-212
-165
-105
-31
59
138
156
95
10
-26
-20
-74
-270
-551
-759
-797
-732
-713
-795
-881
-847
-691
-521
-444
-456
-484
-480
-471
-506
-578
-622
-579
-470
-372
-337
-323
-242
-72
113
219
229
209
217
242
239
195
147
130
141
152
155
163
189
232
281
322
351
361
343
296
236
179
130
88
59
64
111
167
181
141
97
114
193
274
305
303
331
417
525
594
603
565
494
388
250
105
-2
-48
-43
-18
-8
-23
-37
-9
77
196
302
367
401
423
442
467
513
578
621
597
511
441
463
573
684
727
720
735
797
844
798
661
520
458
470
483
453
423
472
620
796
905
913
856
777
670
504
262
-24
-298
-532
-735
-938
-1159
-1369
-1513
-1545
-1460
-1294
-1081
-812
-451
7
509
958
1282
1461
1510
1466
1359
1208
1017
798
601
502
538
659
767
821
873
993
1178
1355
1463
1486
1422
1261
1037
848
761
714
552
226
-101
-217
-86
110
184
133
92
127
168
119
-6
-108
-138
-136
-152
-169
-130
-14
141
273
342
345
301
233
165
102
30
-61
-163
-252
-314
-357
-389
-412
-430
-458
-515
-604
-700
-778
-825
-847
-837
-783
-694
-600
-529
-474
-408
-332
-284
-304
-379
-441
-437
-376
-311
-263
-203
-98
29
120
159
198
312
496
658
728
770
907
1135
1272
1158
885
742
868
1063
1021
755
634
957
1542
1885
1718
1287
1021
1019
974
580
-91
-691
-972
-990
-952
-959
-952
-854
-683
-519
-408
-334
-281
-251
-242
-228
-188
-150
-158
-197
-164
36
336
500
331
-92
-441
-459
-227
-100
-328
-795
-1146
-1142
-870
-608
-543
-634
-711
-658
-486
-287
-148
-96
-98
-85
-16
105
240
358
430
410
274
63
-120
-202
-218
-256
-327
-348
-246
-73
42
38
-18
-39
-8
13
-19
-86
-176
-315
-542
-813
-1019
-1106
-1155
-1324
-1673
-2073
-2294
-2233
-1992
-1738
-1509
-1177
-642
23
623
1027
1265
1435
1564
1595
1484
1265
1020
837
766
796
849
821
699
592
618
745
805
685
460
313
329
438
543
621
702
768
758
654
518
416
338
236
104
3
-3
78
184
266
306
307
285
261
248
237
210
175
171
222
308
382
428
475
536
561
479
282
44
-148
-267
-335
-366
-340
-264
-204
-232
-346
-469
-542
-595
-700
-860
-979
-928
-679
-335
-34
149
239
300
360
388
341
232
134
131
262
497
761
977
1133
1265
1393
1468
1401
1179
906
727
681
666
592
516
571
768
935
895
690
544
604
776
835
714
600
690
940
1093
984
738
614
672
721
594
433
525
913
1284
1336
1190
1233
1599
1939
1882
1537
1370
1564
1765
1566
1097
881
1162
1573
1609
1251
953
1062
1410
1580
1428
1196
1159
1306
1420
1368
1237
1196
1272
1340
1264
1077
951
1015
1212
1365
1393
1399
1523
1743
1910
1951
1963
2060
2156
2042
1679
1306
1182
1313
1473
1487
1414
1417
1527
1640
1674
1650
1632
1634
1629
1616
1618
1616
1506
1207
762
322
-13
-310
-707
-1195
-1550
-1515
-1078
-528
-160
34
330
938
1716
2293
2457
2344
2270
2388
2580
2630
2443
2094
1735
1488
1387
1371
1332
1213
1070
1034
1184
1452
1673
1749
1716
1675
1677
1679
1630
1568
1589
1721
1844
1769
1470
1142
1023
1146
1292
1248
1029
862
943
1223
1481
1549
1439
1288
1193
1135
1050
931
830
790
788
789
814
914
1070
1162
1076
848
649
593
621
596
487
392
389
423
416
404
487
649
722
588
362
302
490
729
767
586
388
343
418
483
514
594
751
881
866
745
684
779
945
1010
900
712
598
623
738
871
965
1000
981
945
952
1022
1097
1089
970
813
721
733
802
861
876
857
833
832
877
949
986
934
820
735
737
790
807
742
638
566
557
582
601
600
583
553
509
464
436
442
486
550
589
578
538
529
586
666
699
654
591
593
661
714
689
620
605
693
824
904
919
949
1049
1173
1223
1172
1095
1083
1130
1148
1075
954
884
894
929
926
888
864
877
895
889
900
985
1133
1238
1186
985
771
639
535
312
-84
-527
-842
-1000
-1118
-1273
-1378
-1279
-961
-581
-263
41
472
1039
1552
1819
1841
1775
1737
1687
1524
1242
947
744
659
664
729
831
929
987
1007
1026
1054
1030
900
692
515
445
464
487
472
453
475
536
578
565
527
512
530
549
538
493
425
350
291
283
340
414
428
363
290
293
371
429
394
304
258
293
353
375
362
371
415
437
390
294
214
175
147
102
51
32
46
63
72
100
176
274
325
291
208
154
167
211
224
184
132
115
155
229
302
348
355
338
340
386
453
498
505
510
566
665
740
749
728
754
849
946
954
868
767
747
847
1009
1128
1128
1020
886
805
782
745
634
469
328
249
205
169
169
252
384
446
365
203
110
156
259
275
147
-47
-179
-174
-50
110
205
169
27
-133
-214
-200
-152
-130
-150
-190
-225
-232
-190
-93
27
117
159
187
241
305
335
321
307
326
355
347
304
283
313
351
327
228
119
72
86
101
78
24
-34
-92
-144
-154
-89
39
149
179
145
100
25
-186
-604
-1136
-1588
-1868
-2088
-2385
-2712
-2854
-2684
-2312
-1924
-1539
-1008
-285
416
814
891
901
1040
1192
1094
698
272
98
161
222
135
9
20
172
292
267
170
142
192
203
97
-56
-122
-50
74
127
62
-52
-117
-110
-95
-143
-242
-295
-237
-103
-7
-11
-70
-103
-101
-136
-251
-396
-484
-494
-486
-500
-502
-434
-304
-188
-151
-177
-207
-209
-218
-279
-394
-511
-577
-580
-547
-518
-509
-493
-446
-386
-361
-398
-467
-500
-467
-405
-373
-382
-390
-357
-302
-278
-314
-375
-402
-370
-307
-262
-259
-282
-297
-292
-275
-256
-233
-208
-191
-182
-158
-93
2
63
35
-64
-145
-136
-68
-42
-107
-203
-214
-98
60
130
74
-10
-6
91
169
149
96
137
281
368
245
-30
-238
-262
-244
-429
-859
-1306
-1508
-1439
-1296
-1248
-1263
-1208
-1030
-810
-656
-582
-531
-461
-382
-317
-264
-199
-110
-16
46
65
69
108
199
289
304
259
282
480
797
1041
1106
1120
1310
1731
2155
2312
2204
2131
2376
2896
3334
3335
2844
2093
1366
766
199
-461
-1200
-1830
-2125
-1989
-1543
-1025
-630
-409
-326
-365
-561
-933
-1398
-1817
-2137
-2426
-2751
-3032
-3075
-2780
-2267
-1758
-1363
-997
-522
58
613
1041
1345
1569
1696
1660
1445
1122
800
549
391
339
385
478
545
552
521
494
473
411
289
155
74
68
99
125
155
212
284
310
233
72
-78
-141
-110
-45
-17
-56
-152
-273
-363
-384
-351
-336
-411
-577
-752
-861
-912
-980
-1102
-1240
-1333
-1358
-1319
-1193
-966
-698
-511
-460
-438
-303
-100
-89
-468
-1081
-1535
-1591
-1427
-1414
-1649
-1823
-1565
-872
-131
278
343
327
432
596
629
475
251
94
26
-9
-37
-29
48
170
282
349
354
312
256
229
262
335
398
430
455
504
577
651
713
767
806
815
799
803
861
939
963
891
776
713
741
806
827
789
741
745
800
862
894
899
899
908
914
912
919
946
982
994
965
916
882
890
936
1003
1075
1127
1148
1155
1200
1312
1449
1514
1459
1345
1295
1371
1506
1582
1563
1516
1521
1586
1659
1705
1727
1719
1660
1555
1468
1459
1514
1551
1516
1445
1423
1471
1527
1514
1430
1344
1309
1309
1303
1289
1318
1412
1507
1511
1405
1256
1133
991
718
283
-191
-553
-783
-1004
-1305
-1610
-1738
-1599
-1281
-935
-601
-198
343
956
1496
1876
2116
2256
2283
2156
1899
1622
1411
1249
1079
914
837
890
994
1029
970
898
880
879
829
744
704
762
888
1006
1077
1106
1092
1025
905
766
627
485
338
214
153
147
151
137
130
164
226
261
240
201
199
228
220
139
29
-19
13
53
15
-88
-168
-169
-134
-147
-227
-315
-345
-329
-338
-410
-509
-574
-603
-633
-672
-678
-620
-543
-527
-588
-633
-568
-416
-308
-329
-411
-424
-332
-210
-141
-123
-113
-118
-165
-225
-210
-99
-2
-30
-145
-182
-43
176
306
294
246
269
357
422
431
430
453
474
452
396
365
391
437
436
370
287
251
277
324
346
332
308
304
314
312
291
286
333
413
466
462
431
438
489
531
518
464
415
383
346
301
291
352
459
543
570
578
618
690
756
792
807
818
817
803
806
863
970
1079
1141
1157
1158
1171
1192
1202
1188
1140
1060
969
905
892
920
949
933
858
761
714
759
859
913
863
776
776
896
1008
932
611
168
-211
-455
-643
-907
-1288
-1688
-1944
-1947
-1728
-1417
-1118
-816
-414
129
714
1175
1423
1493
1467
1382
1220
979
708
478
325
240
215
239
291
336
355
367
396
427
397
274
115
27
64
161
201
131
22
-11
57
139
143
61
-34
-92
-141
-220
-308
-348
-324
-296
-327
-398
-435
-401
-358
-407
-567
-752
-863
-871
-853
-894
-1002
-1098
-1099
-1009
-921
-945
-1089
-1253
-1344
-1347
-1324
-1317
-1303
-1235
-1123
-1036
-1020
-1048
-1069
-1083
-1127
-1189
-1185
-1056
-872
-758
-755
-751
-620
-398
-253
-306
-484
-612
-664
-766
-1000
-1265
-1385
-1319
-1186
-1066
-880
-540
-115
223
396
484
581
653
