128
43
109
246
324
298
239
229
276
342
401
467
548
607
605
542
464
419
416
429
427
396
348
311
310
350
412
459
466
432
383
349
347
365
386
397
390
368
345
342
360
375
361
325
306
336
398
442
438
412
411
445
476
464
417
382
397
450
480
442
347
269
269
331
377
350
283
260
302
337
290
188
138
190
267
255
146
49
55
133
176
137
65
25
10
-37
-131
-218
-246
-220
-192
-195
-213
-212
-185
-152
-131
-118
-97
-59
-7
47
94
138
188
254
335
419
485
520
521
497
467
450
454
474
490
493
500
521
548
570
587
622
673
700
671
606
558
541
515
454
422
519
754
992
1077
989
853
776
719
551
211
-223
-623
-926
-1141
-1278
-1327
-1308
-1298
-1361
-1466
-1503
-1400
-1192
-957
-709
-380
93
675
1261
1766
2169
2490
2710
2774
2634
2309
1879
1437
1042
708
423
190
31
-38
-28
15
57
101
169
260
330
337
284
209
148
112
92
91
122
176
207
177
109
74
112
177
178
92
11
48
215
399
486
483
484
534
562
476
285
104
21
10
-22
-117
-212
-220
-128
-4
84
118
124
130
147
178
219
241
210
128
46
21
62
111
111
59
4
-11
11
36
54
89
147
189
155
44
-64
-81
-17
15
-80
-265
-396
-376
-253
-160
-169
-231
-249
-207
-173
-197
-239
-231
-174
-137
-161
-200
-174
-74
25
39
-27
-89
-84
-27
10
-33
-149
-259
-285
-236
-225
-370
-638
-838
-809
-617
-493
-568
-704
-636
-285
149
386
336
149
33
81
240
398
484
484
433
378
360
389
442
462
356
94
-213
-350
-160
293
752
984
969
879
862
899
837
559
117
-281
-409
-191
222
546
594
439
331
436
644
671
378
-66
-338
-283
-35
171
253
316
442
556
519
352
234
293
451
537
520
534
699
941
1070
1010
871
818
887
969
941
801
648
583
602
626
575
468
411
492
705
946
1107
1144
1045
805
432
-8
-413
-714
-929
-1107
-1245
-1269
-1129
-870
-607
-428
-342
-322
-356
-431
-516
-584
-648
-742
-843
-841
-649
-329
-88
-69
-178
-170
69
373
492
371
201
167
239
249
128
-37
-150
-243
-383
-514
-492
-271
-2
144
166
216
384
588
669
569
356
126
-77
-254
-413
-562
-715
-859
-939
-895
-738
-550
-404
-296
-169
-3
161
274
339
386
418
394
305
217
202
229
167
-60
-334
-426
-254
-14
13
-230
-493
-490
-201
125
247
164
56
50
107
120
49
-72
-185
-275
-339
-358
-306
-197
-78
2
38
63
99
93
-52
-367
-719
-899
-827
-652
-593
-682
-736
-596
-330
-160
-203
-363
-478
-502
-496
-482
-378
-107
290
704
1064
1381
1692
1970
2146
2165
2017
1752
1438
1117
798
488
216
8
-142
-253
-297
-217
-28
147
185
90
-31
-116
-200
-287
-248
45
502
865
1030
1209
1666
2307
2691
2483
1816
1131
697
396
-12
-570
-1098
-1426
-1547
-1533
-1422
-1227
-1006
-837
-742
-666
-567
-459
-369
-265
-108
72
180
177
147
214
381
499
415
134
-166
-315
-304
-252
-254
-309
-328
-237
-53
113
146
14
-169
-256
-229
-233
-382
-534
-377
227
1025
1563
1628
1426
1289
1264
1094
551
-267
-1024
-1463
-1593
-1574
-1506
-1370
-1135
-846
-612
-506
-495
-495
-461
-422
-453
-575
-698
-689
-514
-277
-137
-166
-293
-395
-420
-428
-488
-563
-525
-287
78
368
436
323
203
197
252
216
7
-305
-569
-700
-736
-759
-796
-794
-701
-544
-403
-330
-309
-285
-249
-256
-335
-418
-373
-135
211
481
554
470
381
385
430
376
151
-166
-410
-469
-373
-245
-186
-193
-183
-93
52
150
134
55
40
152
317
411
397
369
438
586
651
498
164
-175
-372
-422
-410
-403
-385
-322
-215
-81
94
351
671
949
1070
1029
931
860
773
571
251
-70
-285
-409
-520
-605
-559
-322
0
234
312
323
377
472
521
488
433
439
518
602
618
564
493
449
419
335
147
-106
-303
-332
-188
17
147
160
123
135
222
311
309
196
44
-43
-30
25
37
-14
-68
-59
-2
26
-27
-138
-221
-209
-106
18
81
68
57
158
378
582
633
567
592
863
1285
1588
1610
1450
1316
1257
1127
782
289
-147
-393
-491
-545
-571
-493
-272
26
287
447
514
495
388
247
171
215
309
337
287
281
402
537
508
328
238
423
742
874
703
445
340
313
58
-543
-1239
-1682
-1791
-1761
-1727
-1583
-1151
-455
272
834
1234
1570
1858
2008
1953
1729
1423
1110
829
603
419
241
57
-89
-155
-176
-249
-393
-471
-326
19
346
468
443
488
719
999
1105
975
752
592
493
343
92
-176
-364
-458
-494
-494
-440
-333
-195
-11
264
616
930
1081
1066
979
862
634
218
-298
-711
-916
-997
-1077
-1124
-1013
-720
-391
-186
-112
-79
-53
-75
-160
-245
-269
-254
-257
-260
-189
-24
135
180
78
-111
-291
-381
-347
-226
-117
-106
-164
-178
-84
55
141
183
287
506
745
857
794
643
496
341
114
-196
-519
-776
-947
-1054
-1101
-1058
-913
-715
-554
-482
-445
-346
-169
-29
-54
-220
-363
-356
-252
-208
-274
-351
-337
-255
-195
-158
-41
197
445
548
487
368
263
125
-113
-402
-595
-613
-532
-479
-480
-435
-254
23
253
327
269
196
212
295
332
244
80
-36
-43
1
2
-44
-76
-83
-133
-241
-264
-5
537
1103
1399
1383
1269
1242
1233
1032
556
-46
-552
-870
-1034
-1088
-1014
-803
-517
-253
-71
34
92
113
111
93
47
-37
-121
-116
15
215
369
416
389
340
273
168
63
41
133
263
318
269
198
192
256
320
325
282
242
237
253
247
207
159
144
175
222
247
247
253
285
333
355
329
257
169
99
78
108
156
169
126
68
49
74
88
46
-26
-72
-79
-102
-178
-266
-281
-206
-121
-119
-203
-281
-283
-229
-198
-232
-293
-325
-311
-280
-258
-246
-231
-214
-210
-231
-270
-302
-306
-270
-209
-144
-81
3
129
287
429
510
531
527
525
514
474
405
343
321
339
366
370
350
338
362
411
435
400
320
253
240
271
304
312
308
318
340
347
319
256
167
56
-71
-196
-302
-403
-515
-618
-675
-692
-751
-937
-1214
-1421
-1411
-1199
-951
-793
-678
-442
6
588
1130
1522
1774
1955
2092
2150
2081
1873
1559
1194
819
456
121
-156
-338
-396
-341
-232
-121
-19
96
239
380
458
432
313
158
1
-187
-452
-763
-986
-991
-788
-535
-383
-322
-204
77
451
728
789
676
518
400
317
235
156
107
96
98
95
101
135
197
250
252
194
109
46
42
94
166
211
201
144
65
-14
-93
-173
-239
-260
-218
-145
-105
-138
-206
-212
-98
97
251
270
193
172
320
576
737
655
404
203
186
261
220
-12
-302
-486
-552
-615
-712
-715
-496
-143
82
29
-149
-144
147
481
537
267
-46
-108
75
239
182
-26
-177
-180
-136
-175
-273
-301
-200
-58
-9
-89
-210
-264
-242
-222
-282
-433
-615
-733
-728
-606
-427
-249
-94
48
170
243
238
181
143
162
187
151
56
1
75
248
393
418
354
301
315
367
407
421
423
411
381
363
403
496
567
551
482
462
535
626
621
505
391
395
510
617
616
524
455
496
631
774
842
819
754
706
705
736
759
749
715
695
716
775
854
941
1029
1086
1068
969
855
807
830
840
774
681
687
854
1088
1243
1277
1289
1379
1523
1579
1450
1178
893
680
520
348
153
-15
-96
-97
-76
-75
-76
-34
53
116
84
-27
-116
-107
-41
-30
-115
-210
-206
-114
-66
-160
-340
-462
-456
-393
-375
-409
-412
-325
-176
-44
16
-2
-69
-150
-211
-244
-271
-311
-334
-269
-87
144
317
401
457
545
642
670
581
416
256
149
97
73
57
41
32
32
30
7
-36
-69
-61
-21
14
21
23
56
124
194
234
243
225
179
109
41
0
-30
-98
-227
-376
-461
-458
-428
-459
-568
-711
-835
-948
-1075
-1203
-1277
-1261
-1171
-1038
-853
-559
-118
431
983
1439
1758
1970
2123
2229
2247
2108
1783
1319
846
487
286
180
65
-100
-249
-257
-71
224
484
622
660
658
662
680
708
732
707
611
495
456
536
671
768
806
817
802
710
551
440
485
620
669
553
402
407
589
770
775
620
476
473
578
651
595
453
356
397
537
640
597
436
291
262
319
350
299
227
243
377
534
594
537
458
481
622
760
732
518
283
225
369
534
533
363
189
119
99
28
-61
-41
123
279
274
175
188
392
609
607
380
128
2
-45
-127
-220
-219
-107
-12
-35
-106
-85
27
71
-62
-282
-423
-453
-485
-596
-686
-609
-380
-198
-203
-312
-312
-140
43
50
-113
-256
-258
-191
-200
-305
-371
-283
-95
31
10
-68
-58
101
308
390
250
-38
-267
-260
-34
208
267
140
11
44
227
387
381
236
104
98
177
200
81
-100
-168
-31
205
341
291
166
140
249
368
375
272
142
43
-29
-85
-103
-60
13
51
17
-76
-179
-235
-208
-116
-26
-20
-98
-173
-152
-41
75
129
139
151
171
137
8
-144
-192
-77
125
265
263
188
174
283
451
554
511
339
142
22
12
69
111
95
60
85
201
364
496
535
444
231
-31
-209
-220
-137
-138
-301
-486
-473
-224
39
62
-144
-327
-293
-119
-33
-135
-293
-316
-182
-45
-30
-105
-167
-175
-170
-179
-161
-90
-23
-34
-97
-86
72
290
403
358
258
233
299
362
368
359
386
421
402
347
338
409
492
499
449
432
480
526
507
471
491
526
450
239
55
66
219
286
137
-76
-103
104
348
412
279
94
-31
-89
-130
-199
-328
-538
-789
-980
-1036
-992
-950
-959
-972
-928
-837
-729
-570
-283
126
533
817
994
1175
1406
1597
1615
1435
1149
841
515
142
-229
-503
-650
-735
-822
-873
-787
-531
-200
67
208
258
276
282
273
249
209
129
-3
-140
-197
-140
-34
38
68
95
132
139
99
56
54
54
-19
-158
-245
-190
-59
-28
-162
-337
-386
-293
-204
-235
-327
-337
-226
-109
-128
-282
-437
-468
-376
-256
-177
-121
-29
105
205
179
-9
-307
-613
-844
-982
-1043
-1018
-867
-563
-151
269
602
808
881
827
664
434
188
-51
-293
-499
-589
-541
-452
-444
-493
-481
-414
-494
-885
-1431
-1789
-1864
-1963
-2376
-2867
-2806
-1880
-527
480
851
992
1429
2141
2615
2465
1840
1198
847
746
715
670
630
618
618
590
486
261
-86
-451
-681
-721
-665
-617
-542
-305
134
613
908
987
1042
1266
1624
1904
1950
1801
1592
1362
1020
490
-158
-740
-1120
-1301
-1365
-1361
-1262
-1028
-698
-401
-263
-298
-369
-291
-31
239
278
16
-376
-656
-753
-801
-927
-1073
-1042
-722
-205
332
806
1244
1655
1949
2028
1902
1686
1481
1301
1120
962
901
969
1098
1175
1145
1050
952
865
760
621
485
413
437
539
669
775
829
813
725
590
460
393
406
448
426
299
131
47
115
263
337
255
98
24
97
211
193
-3
-241
-339
-245
-72
46
100
190
392
669
916
1077
1180
1270
1348
1378
1343
1267
1176
1068
931
777
634
512
387
249
125
63
74
119
158
197
267
354
406
379
296
207
131
39
-81
-188
-234
-239
-267
-335
-376
-327
-219
-152
-163
-180
-119
13
136
202
242
298
353
368
338
311
313
330
328
299
247
158
10
-164
-287
-334
-370
-485
-674
-827
-857
-814
-834
-982
-1167
-1242
-1160
-1016
-917
-848
-687
-352
106
551
890
1128
1308
1427
1435
1310
1070
753
378
-32
-419
-707
-881
-988
-1062
-1058
-908
-629
-345
-169
-85
11
167
304
307
165
-6
-101
-119
-141
-216
-313
-369
-360
-321
-307
-342
-401
-433
-414
-369
-351
-384
-438
-473
-475
-456
-420
-368
-323
-312
-324
-311
-246
-181
-189
-263
-311
-266
-176
-157
-247
-362
-401
-350
-290
-301
-395
-516
-587
-556
-432
-292
-227
-260
-324
-325
-254
-183
-174
-213
-242
-223
-177
-140
-133
-167
-252
-384
-529
-626
-628
-544
-424
-320
-240
-165
-92
-53
-91
-192
-293
-355
-412
-519
-645
-662
-470
-136
135
199
105
24
50
108
71
-49
-97
54
331
546
626
692
890
1171
1316
1209
1041
1142
1629
2262
2695
2823
2818
2858
2888
2694
2157
1401
683
191
-51
-132
-130
-48
152
479
860
1176
1361
1429
1437
1408
1334
1255
1255
1366
1496
1513
1405
1283
1229
1186
1044
813
651
690
874
1016
995
872
792
817
865
805
601
336
147
101
147
181
140
62
23
46
84
90
79
105
185
263
272
209
145
135
159
158
112
76
103
168
163
11
-220
-351
-260
-28
118
46
-119
-121
144
495
668
603
495
545
715
776
588
267
28
-60
-123
-293
-535
-706
-743
-710
-682
-632
-488
-266
-92
-60
-113
-112
1
133
156
48
-85
-133
-82
-2
49
80
118
152
141
75
6
-1
53
95
68
-5
-56
-56
-40
-47
-59
-32
37
94
97
70
78
138
211
251
263
290
348
407
431
424
424
452
486
485
454
449
522
658
785
851
878
924
1003
1063
1044
954
874
863
900
908
844
747
699
735
800
800
703
573
499
495
487
392
209
20
-105
-180
-268
-413
-609
-817
-1005
-1143
-1213
-1229
-1255
-1359
-1538
-1699
-1734
-1621
-1441
-1288
-1157
-946
-567
-58
440
813
1061
1262
1446
1534
1421
1099
687
320
19
-303
-703
-1113
-1391
-1462
-1388
-1280
-1180
-1031
-786
-486
-236
-98
-42
-9
18
-1
-85
-186
-238
-217
-165
-130
-97
-25
73
111
30
-130
-283
-416
-614
-917
-1209
-1316
-1232
-1169
-1325
-1619
-1728
-1436
-898
-501
-486
-734
-929
-857
-558
-212
32
151
235
405
714
1088
1358
1387
1147
724
240
-171
-379
-311
-38
238
362
387
498
786
1115
1257
1115
788
448
203
84
95
217
376
465
434
333
247
203
158
61
-80
-211
-292
-319
-301
-256
-204
-188
-248
-390
-556
-667
-689
-654
-621
-619
-630
-630
-623
-629
-648
-657
-632
-594
-591
-653
-759
-846
-863
-818
-775
-795
-871
-928
-891
-770
-660
-649
-725
-792
-785
-740
-739
-794
-822
-732
-529
-305
-127
25
217
455
675
803
823
754
610
396
146
-72
-206
-273
-336
-428
-510
-514
-424
-296
-213
-207
-228
-199
-96
16
62
46
54
155
305
387
345
259
256
358
451
418
267
121
74
91
63
-52
-165
-148
23
238
366
390
407
507
651
711
604
372
141
-4
-63
-89
-116
-150
-171
-159
-109
-49
-16
-23
-45
-56
-68
-115
-180
-202
-146
-62
-33
-80
-144
-161
-134
-101
-75
-45
-29
-80
-206
-353
-454
-498
-535
-615
-731
-829
-849
-761
-592
-416
-311
-307
-348
-349
-284
-216
-237
-366
-504
-520
-367
-144
2
41
98
300
597
785
736
539
399
393
420
370
247
119
5
-101
-154
-83
80
187
150
78
149
377
566
560
429
351
383
432
417
384
401
428
377
260
209
299
431
424
220
-51
-204
-176
-69
-50
-198
-432
-601
-619
-551
-543
-666
-832
-881
-764
-575
-404
-204
159
720
1320
1747
1947
2091
2362
2727
2936
2768
2252
1651
1214
968
760
453
79
-197
-249
-84
171
382
503
568
639
744
848
889
828
693
565
513
536
572
558
497
468
528
628
670
612
531
539
643
717
646
456
285
236
282
345
379
399
433
477
518
558
600
632
615
541
450
381
342
319
312
333
381
438
476
486
478
467
463
472
466
379
174
-86
-269
-280
-161
-68
-105
-207
-223
-66
163
279
187
-26
-175
-164
-65
-37
-165
-364
-466
-379
-164
32
111
93
70
92
122
102
21
-86
-184
-270
-367
-488
-613
-711
-758
-751
-717
-694
-702
-731
-753
-740
-695
-649
-641
-670
-683
-624
-505
-418
-446
-542
-567
-445
-290
-301
-519
-738
-705
-418
-140
-117
-310
-460
-396
-211
-114
-162
-228
-193
-99
-72
-129
-145
-36
121
175
98
24
60
147
151
56
-6
70
202
226
127
69
193
427
567
524
404
354
393
428
392
299
191
89
6
-24
24
96
104
26
-74
-118
-93
-44
-3
19
23
14
22
92
221
342
381
343
293
266
244
219
231
308
383
352
222
129
192
348
431
381
308
324
389
378
263
136
77
44
-35
-127
-115
17
135
130
65
93
252
394
360
148
-98
-235
-244
-195
-157
-166
-225
-302
-356
-380
-407
-459
-508
-504
-446
-389
-384
-403
-372
-260
-119
-46
-103
-254
-399
-445
-378
-273
-221
-242
-264
-198
-31
148
235
211
156
163
223
249
179
59
6
69
151
122
-26
-160
-164
-82
-58
-150
-257
-246
-124
-24
-25
-62
-24
88
164
128
38
-10
-2
-15
-90
-175
-203
-204
-273
-447
-635
-730
-754
-838
-1040
-1261
-1356
-1318
-1299
-1422
-1623
-1721
-1620
-1406
-1228
-1114
-937
-575
-63
440
812
1066
1291
1510
1632
1551
1271
907
568
281
6
-273
-518
-686
-762
-755
-671
-528
-386
-318
-332
-350
-288
-151
-49
-56
-128
-150
-47
138
296
349
297
199
127
112
110
36
-143
-344
-420
-291
-43
158
223
217
258
373
470
455
326
168
69
50
65
68
64
99
193
273
196
-142
-687
-1245
-1642
-1857
-1989
-2099
-2136
-1998
-1636
-1094
-450
239
920
1509
1900
2057
2063
2081
2209
2396
2511
2492
2403
2348
2320
2217
1966
1603
1213
824
411
7
-264
-320
-218
-118
-115
-182
-254
-301
-320
-294
-224
-185
-274
-501
-743
-881
-935
-1010
-1127
-1171
-1046
-827
-683
-637
-495
-53
649
1312
1652
1641
1465
1277
1054
705
243
-201
-531
-769
-971
-1115
-1124
-988
-816
-721
-707
-681
-602
-522
-497
-505
-473
-386
-318
-323
-357
-319
-173
6
120
151
153
168
182
178
191
273
404
486
445
324
259
344
540
731
841
881
896
894
858
780
671
531
365
223
190
307
497
626
623
542
477
446
372
190
-79
-341
-520
-604
-616
-571
-475
-338
-193
-82
-26
-10
2
33
62
41
-46
-160
-240
-251
-218
-181
-147
-94
-4
118
252
381
484
546
576
602
632
618
512
350
257
313
440
461
317
164
203
434
634
606
410
278
324
413
327
32
-297
-492
-563
-619
-698
-737
-688
-606
-567
-566
-525
-410
-282
-221
-223
-208
-122
6
115
177
199
190
151
96
58
45
29
-15
-60
-47
46
167
239
243
226
244
295
323
286
194
97
33
-3
-43
-109
-187
-245
-259
-238
-200
-163
-139
-148
-197
-272
-354
-449
-592
-795
-1002
-1125
-1162
-1216
-1386
-1619
-1732
-1608
-1330
-1087
-950
-785
-417
146
700
1044
1158
1161
1152
1123
1011
787
473
101
-292
-642
-883
-1007
-1078
-1155
-1220
-1201
-1065
-864
-674
-521
-379
-229
-102
-37
-44
-98
-164
-220
-254
-267
-269
-273
-275
-256
-206
-140
-86
-47
-7
42
80
88
77
77
96
95
25
-106
-234
-292
-269
-224
-221
-258
-272
-202
-62
72
134
134
126
143
158
113
-17
-194
-354
-463
-542
-628
-725
-792
-799
-754
-686
-591
-428
-189
55
201
217
170
132
80
-86
-407
-803
-1136
-1335
-1427
-1469
-1473
-1411
-1269
-1070
-854
-648
-471
-327
-210
-111
-41
-22
-57
-104
-112
-87
-95
-195
-356
-485
-525
-493
-429
-338
-206
-70
9
34
94
241
379
361
204
125
304
646
882
921
1002
1412
2106
2716
2950
2891
2828
2868
2811
2427
1749
1025
436
-37
-474
-841
-1023
-988
-842
-699
-563
-380
-158
4
29
-38
-73
-12
89
129
94
71
155
326
470
499
437
379
393
472
573
665
721
703
588
425
293
216
131
-12
-142
-107
152
501
736
778
727
709
706
582
256
-186
-562
-757
-792
-754
-682
-550
-348
-128
33
105
122
123
109
59
-20
-82
-88
-35
56
180
328
456
495
415
273
170
158
213
273
297
286
256
226
206
196
178
115
3
-123
-214
-253
-265
-272
-258
-199
-106
-34
-11
9
112
322
553
681
673
605
574
577
523
346
83
-167
-349
-479
-584
-637
-594
-455
-288
-159
-74
4
90
158
188
205
251
343
443
505
528
553
603
661
682
643
573
520
518
552
583
585
564
543
528
504
461
412
383
379
380
363
331
309
308
322
334
339
336
320
277
203
105
-15
-160
-313
-448
-562
-684
-834
-980
-1061
-1072
-1088
-1184
-1334
-1426
-1373
-1212
-1047
-916
-752
-455
-10
499
959
1313
1563
1732
1814
1774
1583
1250
832
408
30
-292
-566
-777
-889
-877
-764
-601
-434
-278
-137
-29
29
47
54
62
56
9
-72
-141
-156
-133
-126
-164
-225
-264
-274
-295
-365
-477
-593
-667
-659
-555
-387
-222
-113
-47
38
174
312
366
298
152
10
-77
-103
-92
-65
-47
-48
-59
-60
-43
-25
-28
-46
-59
-50
-27
9
75
179
292
360
349
286
218
164
102
16
-58
-77
-47
-31
-70
-127
-120
-26
89
143
123
100
132
207
258
251
205
160
136
127
125
126
128
132
144
165
187
190
168
128
79
18
-58
-134
-188
-214
-230
-257
-298
-328
-336
-339
-361
-411
-468
-500
-496
-462
-420
-390
-379
-382
-382
-369
-346
-332
-339
-364
-383
-376
-338
-283
-225
-176
-135
-93
-43
15
63
83
70
39
13
6
20
44
60
52
17
-23
-37
-15
6
-19
-91
-152
-147
-82
-15
14
34
89
168
208
179
125
110
131
126
60
-25
-61
-32
17
47
66
106
167
222
256
283
312
327
309
266
219
185
156
129
108
96
86
75
88
147
240
317
334
308
288
311
361
393
374
309
243
252
391
641
889
1004
945
799
694
678
676
570
322
13
-219
-287
-213
-98
-42
-64
-120
-157
-176
-199
-241
-291
-333
-359
-350
-281
-159
-35
48
101
160
224
251
234
239
333
490
621
680
706
759
829
865
859
849
855
849
791
691
596
528
463
385
323
304
311
311
309
349
444
539
553
484
434
511
712
909
972
882
737
641
611
559
393
112
-188
-399
-500
-553
-607
-644
-623
-584
-636
-816
-986
-965
-731
-475
-413
-498
-429
26
750
1371
1639
1647
1666
1835
2030
2064
1887
1586
1225
811
391
94
1
2
-84
-262
-316
-69
371
708
780
712
722
833
876
726
466
289
280
355
382
339
296
327
418
489
495
486
536
632
658
550
416
442
663
892
918
763
658
753
942
1008
896
773
818
1007
1165
1178
1088
1021
1041
1104
1134
1106
1042
981
943
913
873
822
774
752
760
776
774
755
738
755
807
864
885
856
789
715
654
609
570
523
453
364
302
312
391
474
491
442
380
362
379
385
347
288
245
228
233
262
315
370
367
284
168
98
99
109
34
-125
-247
-220
-72
75
129
112
93
84
54
4
-5
49
112
138
187
362
662
948
1100
1166
1270
1424
1488
1348
1066
807
659
580
506
441
403
358
273
193
201
297
362
290
136
72
164
297
311
184
67
105
277
404
353
184
84
162
317
359
230
95
136
345
523
516
395
356
475
620
638
522
404
376
385
323
173
29
-12
47
120
124
59
4
40
153
242
211
82
-12
37
192
313
313
244
227
295
361
323
216
172
253
367
373
263
185
260
423
506
445
366
417
571
654
566
402
328
382
435
358
162
-36
-148
-164
-126
-82
-65
-92
-135
-120
-10
134
188
92
-70
-149
-74
79
176
166
122
157
302
483
598
616
599
616
672
708
685
641
648
717
783
776
710
665
697
773
800
738
637
570
560
578
595
615
644
666
658
628
620
651
688
688
650
612
611
631
625
567
470
369
276
172
39
-136
-359
-613
-842
-987
-1058
-1154
-1371
-1679
-1919
-1953
-1820
-1692
-1669
-1666
-1489
-1040
-419
193
690
1094
1472
1827
2085
2164
2029
1721
1323
911
526
186
-107
-343
-496
-535
-445
-262
-63
88
189
290
421
541
570
490
372
302
291
280
226
144
77
38
5
-34
-76
-115
-149
-169
-162
-129
-86
-56
-33
5
65
120
137
101
31
-46
-96
-96
-60
-35
-48
-69
-45
6
-28
-244
-599
-952
-1219
-1463
-1768
-2074
-2195
-2020
-1639
-1229
-848
-404
163
738
1130
1268
1242
1160
1027
786
447
109
-131
-273
-378
-471
-531
-532
-496
-468
-460
-439
-367
-263
-171
-118
-78
-35
-29
-140
-394
-740
-1155
-1714
-2462
-3217
-3572
-3229
-2323
-1339
-659
-235
260
992
1748
2165
2085
1657
1147
737
495
435
512
614
619
505
384
374
475
554
490
281
47
-78
-65
12
51
10
-93
-228
-393
-580
-732
-755
-615
-385
-193
-112
-114
-130
-141
-176
-258
-355
-401
-353
-227
-85
19
64
69
66
80
115
154
175
167
140
117
113
134
172
213
246
266
265
239
192
134
67
-21
-131
-242
-322
-361
-377
-377
-322
-166
81
337
513
588
619
658
700
695
615
485
364
299
296
320
336
327
304
287
276
250
194
120
56
28
44
95
161
222
267
292
295
253
135
-67
-310
-528
-680
-785
-884
-989
-1074
-1113
-1103
-1069
-1043
-1043
-1072
-1107
-1100
-1029
-926
-855
-828
-768
-580
-263
67
281
355
372
421
487
485
359
148
-52
-172
-210
-211
-208
-196
-153
-66
42
133
184
198
195
185
162
127
101
110
164
248
340
427
489
497
435
327
212
110
-3
-165
-371
-564
-687
-752
-826
-948
-1077
-1146
-1158
-1211
-1385
-1617
-1724
-1582
-1265
-962
-764
-565
-184
414
1060
1542
1785
1877
1935
1978
1925
1705
1325
876
458
123
-151
-393
-588
-671
-597
-403
-178
20
199
379
534
631
702
809
934
962
803
538
365
385
459
354
5
-400
-604
-530
-332
-215
-252
-356
-405
-359
-274
-231
-255
-297
-284
-196
-80
5
45
67
83
67
-13
-165
-371
-608
-838
-996
-1025
-935
-811
-722
-642
-489
-249
-18
90
74
37
51
66
-27
-251
-500
-639
-627
-530
-438
-393
-394
-430
-498
-589
-689
-793
-909
-1051
-1199
-1295
-1273
-1115
-886
-697
-626
-655
-695
-664
-559
-444
-383
-389
-412
-384
-278
-121
21
86
62
-8
-64
-73
-51
-30
-10
37
134
268
398
500
592
710
849
969
1048
1105
1171
1227
1210
1093
935
843
869
965
1051
1092
1117
1169
1272
1419
1584
1727
1816
1857
1893
1948
1983
1926
1747
1498
1269
1106
973
802
577
365
266
304
392
419
359
275
226
186
111
44
107
352
667
870
900
870
911
1009
1026
862
556
238
15
-80
-62
29
139
215
232
211
195
200
206
186
142
92
47
10
-5
30
115
198
211
130
6
-95
-154
-216
-329
-484
-641
-774
-893
-1022
-1160
-1272
-1311
-1241
-1062
-807
-526
-254
4
239
427
542
578
556
493
386
240
89
-14
-51
-53
-64
-89
-94
-65
-32
-32
-65
-93
-87
-69
-87
-157
-235
-263
-242
-233
-287
-377
-426
-392
-308
-239
-202
-160
-85
6
78
111
113
91
52
24
37
87
130
135
116
112
126
98
-15
-191
-351
-433
-443
-411
-338
-194
44
336
597
761
818
798
718
573
351
66
-221
-445
-581
-669
-762
-858
-904
-868
-808
-828
-972
-1160
-1263
-1226
-1118
-1045
-1025
-968
-756
-357
136
584
902
1114
1289
1443
1511
1421
1187
908
665
451
211
-49
-249
-325
-310
-297
-332
-370
-345
-257
-168
-124
-129
-163
-204
-233
-229
-189
-153
-168
-223
-264
-257
-248
-311
-424
-463
-341
-139
-25
-53
-86
41
272
352
115
-294
-554
-529
-401
-438
-683
-905
-870
-575
-209
48
144
120
31
-74
-158
-210
-257
-341
-462
-564
-598
-560
-485
-411
-353
-320
-314
-319
-310
-278
-231
-175
-122
-84
-80
-113
-146
-131
-67
-20
-56
-164
-267
-311
-313
-329
-373
-397
-351
-239
-118
-45
-28
-34
-17
33
80
83
45
31
93
204
272
236
144
105
161
225
187
44
-91
-117
-46
28
43
18
9
32
69
99
112
111
108
120
163
235
307
350
359
348
325
287
228
146
41
-73
-154
-149
-53
73
153
173
190
253
345
411
440
469
518
549
519
461
456
503
492
320
41
-185
-273
-306
-404
-553
-616
-516
-342
-231
-168
17
428
946
1320
1403
1277
1133
1086
1086
991
717
322
-28
-192
-178
-121
-133
-177
-120
77
289
362
302
280
399
552
548
345
97
-39
-77
-146
-311
-508
-649
-726
-776
-791
-721
-569
-441
-428
-505
-553
-508
-426
-396
-418
-412
-331
-234
-205
-252
-299
-283
-231
-202
-194
-146
-34
86
145
159
210
324
415
373
205
38
-27
-29
-90
-260
-445
-507
-404
-237
-140
-152
-196
-175
-80
18
58
58
81
155
245
322
425
619
875
1055
1029
820
597
503
514
494
364
186
89
133
264
383
438
440
422
391
328
225
111
24
-23
-54
-111
-210
-338
-461
-544
-581
-598
-649
-774
-945
-1059
-1028
-861
-653
-489
-353
-147
191
620
1028
1344
1595
1843
2087
2241
2207
1977
1633
1268
911
555
220
-30
-131
-92
21
149
277
418
568
696
773
803
799
762
681
566
464
424
473
593
728
819
840
816
809
865
961
1020
976
841
702
643
684
776
856
901
921
933
951
963
946
869
727
559
413
289
157
19
-55
-1
135
227
194
88
29
53
71
4
-109
-159
-90
43
155
231
306
399
480
533
596
715
866
976
1001
1000
1072
1235
1405
1482
1446
1357
1271
1188
1090
1003
994
1093
1248
1360
1375
1315
1232
1142
1007
778
445
53
-310
-552
-649
-665
-679
-718
-732
-670
-570
-523
-576
-679
-741
-742
-750
-817
-906
-917
-812
-672
-613
-655
-687
-588
-359
-130
-18
-13
-8
64
155
168
74
-69
-193
-283
-351
-368
-284
-113
47
87
6
-80
-77
3
58
15
-84
-125
-24
204
437
543
505
430
424
442
320
-4
-363
-514
-415
-258
-191
-101
243
833
1348
1498
1331
1138
1044
863
383
-329
-984
-1388
-1587
-1684
-1662
-1457
-1140
-896
-803
-734
-532
-232
-53
-132
-351
-475
-399
-219
-87
-27
39
164
293
346
324
296
310
316
268
224
310
545
761
751
513
278
264
416
476
301
66
71
371
700
772
581
361
266
191
-58
-497
-943
-1205
-1247
-1146
-956
-692
-391
-130
51
188
320
422
427
343
268
303
452
631
772
873
974
1080
1147
1125
1001
831
707
695
783
880
886
792
685
653
688
700
624
496
413
422
474
488
431
351
314
333
361
336
234
89
-44
-150
-270
-439
-633
-795
-923
-1078
-1295
-1504
-1594
-1558
-1528
-1623
-1800
-1890
-1802
-1620
-1471
-1350
-1124
-710
-191
285
665
1004
1340
1609
1709
1629
1444
1221
969
679
382
131
-52
-182
-255
-224
-67
153
334
417
433
448
470
445
331
166
30
-23
-15
2
8
31
103
209
288
292
225
147
117
155
250
383
524
630
664
635
592
564
511
354
76
-221
-396
-383
-253
-137
-114
-161
-215
-240
-257
-316
-444
-607
-734
-775
-747
-709
-700
-697
-646
-537
-436
-416
-479
-543
-512
-368
-177
-26
45
61
76
102
90
1
-138
-235
-257
-277
-371
-471
-387
-15
509
928
1143
1299
1570
1916
2111
2002
1670
1301
978
652
293
-46
-301
-507
-736
-999
-1236
-1380
-1401
-1339
-1272
-1282
-1372
-1450
-1415
-1310
-1281
-1358
-1373
-1155
-775
-463
-208
381
1673
3481
5084
5846
5723
5121
4348
3336
1888
38
-1902
-3560
-4698
-5222
-5168
-4708
-4101
-3544
-3068
-2588
-2080
-1628
-1301
-1055
-784
-434
-32
363
727
1052
1310
1447
1426
1255
994
725
545
521
663
903
1127
1243
1224
1091
882
648
460
381
410
472
477
396
276
169
72
-54
-216
-374
-493
-577
-651
-713
-734
-704
-639
-564
-486
-411
-370
-393
-467
-530
-532
-480
-421
-380
-337
-255
-139
-30
39
61
28
-83
-290
-543
-741
-813
-795
-797
-874
-947
-864
-565
-162
146
274
325
467
734
987
1075
1006
921
903
885
761
559
436
470
554
505
287
56
-43
-45
-117
-352
-655
-858
-896
-813
-671
-477
-227
31
234
372
467
507
433
239
53
53
288
624
875
993
1080
1237
1417
1468
1282
889
412
-31
-370
-578
-682
-751
-857
-997
-1093
-1094
-1055
-1089
-1231
-1380
-1404
-1274
-1066
-852
-604
-260
157
527
752
861
962
1099
1188
1124
921
714
615
600
552
403
212
82
38
12
-64
-190
-325
-443
-550
-646
-693
-654
-549
-455
-430
-449
-424
-307
-143
-28
-1
-2
74
276
554
810
973
1035
1017
934
786
575
320
53
-180
-340
-407
-404
-382
-363
-338
-290
-241
-241
-318
-441
-538
-559
-523
-493
-505
-536
-518
-415
-255
-110
-34
-34
-96
-205
-339
-455
-515
-532
-564
-649
-745
-775
-702
-572
-467
-432
-467
-548
-658
-784
-902
-990
-1036
-1039
-1004
-953
-906
-865
-817
-757
-713
-733
-820
-919
-972
-974
-964
-962
-932
-835
-695
-599
-623
-773
-993
-1219
-1426
-1620
-1802
-1945
-1995
-1907
-1689
-1414
-1165
-972
-800
-597
-376
-204
-130
-112
-63
46
151
184
162
174
265
362
363
283
252
372
583
731
766
797
922
1047
950
555
78
-172
-115
43
83
46
181
625
1221
1664
1793
1707
1598
1555
1534
1469
1349
1201
1049
917
838
839
891
922
883
795
726
725
784
871
965
1062
1153
1218
1246
1240
1220
1189
1145
1088
1025
965
906
844
788
750
729
706
653
563
475
442
491
579
634
612
539
474
447
432
376
243
26
-251
-524
-688
-655
-437
-154
67
214
382
650
965
1184
1209
1071
887
748
668
618
566
508
457
423
411
416
428
434
420
381
332
306
342
450
585
682
715
709
713
734
736
698
653
661
745
860
942
974
987
1007
1016
973
869
743
634
541
430
290
160
101
133
214
272
277
260
271
327
384
388
323
216
101
-5
-110
-199
-260
-312
-401
-531
-630
-618
-518
-458
-538
-702
-783
-689
-503
-379
-346
-270
-6
434
896
1239
1454
1609
1740
1793
1701
1456
1119
766
438
150
-82
-245
-331
-352
-327
-277
-214
-138
-52
30
79
95
114
166
218
206
133
110
267
598
940
1124
1144
1125
1145
1133
957
593
159
-200
-434
-583
-691
-745
-700
-547
-332
-134
-4
63
97
107
79
34
22
47
42
-33
-64
159
705
1357
1770
1836
1773
1817
1895
1691
1031
111
-701
-1232
-1612
-1937
-1936
-1120
656
2851
4564
5251
5116
4727
4310
3522
1921
-412
-2841
-4678
-5641
-5852
-5554
-4947
-4219
-3553
-3031
-2587
-2137
-1726
-1487
-1471
-1598
-1749
-1836
-1784
-1523
-1078
-657
-540
-844
-1361
-1746
-1823
-1693
-1570
-1566
-1608
-1548
-1334
-1051
-829
-713
-646
-562
-463
-398
-378
-349
-267
-178
-167
-235
-270
-159
65
250
280
186
92
70
78
43
-39
-105
-98
-8
147
328
470
520
491
460
465
425
243
-16
-118
94
487
745
700
498
393
426
394
114
-349
-760
-961
-980
-927
-837
-677
-442
-190
13
147
233
293
334
363
385
410
459
553
686
806
849
801
715
653
635
634
608
561
544
619
760
838
751
555
427
453
511
462
432
789
1714
2875
3663
3789
3537
3347
3248
2827
1778
327
-973
-1774
-2157
-2362
-2448
-2300
-1877
-1328
-844
-495
-246
-88
-69
-204
-413
-568
-607
-553
-450
-310
-118
113
315
400
348
236
204
332
563
751
799
778
874
1195
1651
2030
2207
2241
2249
2227
2032
1555
868
171
-375
-747
-988
-1108
-1071
-878
-601
-339
-150
-25
70
149
190
168
94
24
25
106
202
221
149
55
2
-42
-166
-397
-620
-673
-515
-308
-268
-444
-644
-635
-404
-170
-111
-115
112
688
1371
1801
1886
1868
1974
2104
1951
1386
635
35
-310
-566
-893
-1228
-1373
-1237
-926
-627
-427
-289
-155
-51
-46
-145
-248
-240
-111
22
51
30
135
463
900
1210
1272
1173
1065
963
739
298
-273
-782
-1108
-1285
-1423
-1547
-1587
-1477
-1245
-986
-773
-599
-420
-233
-77
-5
-26
-106
-190
-242
-263
-274
-281
-257
-180
-86
-68
-167
-304
-352
-279
-193
-209
-287
-267
-72
174
288
239
173
222
339
364
232
42
-65
-57
-6
42
119
274
478
629
640
516
344
214
149
104
16
-131
-276
-318
-195
56
322
499
572
603
636
629
497
222
-100
-350
-478
-514
-506
-458
-357
-220
-89
2
46
49
12
-48
-92
-102
-99
-102
-83
9
170
325
393
375
346
345
324
211
11
-190
-308
-331
-298
-230
-114
51
224
361
472
619
822
1005
1042
896
676
539
529
545
468
290
112
22
13
15
-10
-44
-53
-34
-7
27
89
190
299
360
340
269
217
224
256
252
217
233
358
543
668
695
707
794
932
1003
939
795
649
490
257
-30
-239
-266
-156
-45
6
49
164
342
506
621
715
795
809
718
592
571
703
868
886
707
463
328
347
412
401
286
137
34
-3
-3
6
11
10
5
-4
-18
-36
-47
-30
22
99
180
259
346
442
531
589
613
631
660
683
673
618
544
488
463
457
446
429
428
460
504
513
458
374
346
424
552
612
534
372
259
272
355
391
324
214
154
162
182
163
111
57
-3
-116
-319
-577
-791
-894
-917
-974
-1154
-1416
-1622
-1673
-1615
-1568
-1562
-1479
-1167
-613
36
623
1108
1551
1989
2359
2531
2410
2022
1502
1021
670
412
149
-145
-384
-460
-369
-212
-88
-6
85
201
310
388
446
504
545
534
461
364
300
296
320
322
287
251
260
302
322
291
241
215
206
177
124
105
159
253
326
368
425
501
530
452
310
217
231
282
272
193
144
197
306
356
294
181
111
101
77
-14
-141
-213
-173
-58
39
59
-3
-117
-241
-320
-316
-262
-270
-431
-684
-831
-719
-417
-170
-176
-402
-624
-642
-457
-235
-138
-171
-199
-89
148
368
424
316
176
133
181
206
137
27
-13
66
200
290
300
257
212
173
125
63
5
-24
-9
19
6
-72
-148
-126
-4
67
-96
-497
-932
-1197
-1290
-1377
-1541
-1636
-1435
-909
-275
221
534
787
1035
1147
949
436
-195
-709
-1009
-1114
-1037
-742
-242
338
830
1177
1452
1694
1811
1671
1280
813
429
112
-256
-683
-1000
-1060
-911
-740
-628
-457
-81
449
905
1100
1050
912
782
622
364
36
-255
-427
-489
-486
-443
-346
-199
-37
73
91
40
-12
-13
3
-80
-371
-870
-1427
-1841
-2001
-1947
-1799
-1623
-1360
-880
-129
782
1613
2136
2281
2159
1957
1795
1660
1464
1164
822
563
480
556
683
760
764
738
698
591
372
121
23
194
523
756
759
670
726
978
1204
1148
806
431
263
320
444
514
569
719
997
1327
1597
1732
1710
1563
1357
1171
1045
961
897
872
932
1075
1229
1318
1328
1299
1264
1221
1162
1101
1066
1069
1092
1107
1080
984
825
628
424
220
-15
-303
-633
-974
-1304
-1602
-1820
-1909
-1871
-1796
-1786
-1850
-1880
-1757
-1464
-1090
-729
-407
-87
265
631
952
1159
1210
1105
876
568
229
-97
-343
-454
-442
-397
-418
-489
-495
-366
-172
-72
-143
-314
-463
-554
-637
-728
-759
-682
-562
-501
-500
-426
-166
222
549
687
672
635
640
642
554
366
137
-62
-189
-235
-201
-115
-46
-48
-121
-205
-249
-258
-275
-325
-387
-414
-390
-338
-291
-266
-262
-275
-292
-304
-308
-307
-296
-266
-207
-120
-20
83
177
253
302
332
358
380
361
271
133
17
-24
-12
-16
-75
-154
-199
-209
-230
-302
-397
-457
-469
-468
-490
-508
-469
-361
-232
-134
-72
-23
10
-15
-131
-321
-533
-729
-894
-1004
-1018
-915
-726
-514
-318
-136
43
197
277
254
153
31
-71
-156
-248
-366
-494
-592
-625
-589
-517
-453
-414
-384
-341
-281
-215
-158
-134
-160
-225
-291
-323
-323
-325
-343
-352
-328
-297
-302
-344
-378
-385
-428
-563
-740
-810
-662
-336
26
327
584
854
1139
1378
1504
1501
1384
1191
975
785
652
578
545
543
577
651
750
855
942
989
1002
1009
1034
1059
1047
990
935
929
953
940
846
710
610
583
599
603
572
526
497
491
489
466
401
311
239
223
255
279
246
170
119
149
238
318
350
359
401
487
566
576
516
450
434
445
413
316
241
309
539
810
970
992
992
1077
1218
1291
1240
1156
1167
1284
1385
1367
1263
1183
1168
1139
1010
800
617
534
520
505
473
462
499
559
601
609
591
561
523
486
464
465
474
480
486
493
468
377
231
78
-60
-208
-386
-555
-653
-688
-744
-872
-1003
-1015
-883
-696
-536
-358
-47
424
944
1379
1694
1939
2144
2267
2251
2089
1821
1490
1133
793
505
264
36
-178
-311
-295
-154
-3
65
73
111
222
364
456
473
450
417
380
336
313
336
393
441
451
440
445
479
514
513
466
396
332
298
298
342
428
531
602
617
631
744
990
1260
1380
1279
1063
887
769
580
215
-259
-658
-863
-909
-896
-862
-772
-610
-428
-298
-239
-209
-173
-147
-168
-247
-351
-424
-428
-363
-260
-164
-117
-137
-204
-268
-284
-249
-201
-181
-190
-194
-170
-148
-179
-273
-370
-401
-365
-340
-380
-432
-360
-92
292
622
801
870
907
896
727
336
-192
-693
-1068
-1335
-1542
-1669
-1654
-1485
-1242
-1029
-885
-780
-674
-578
-529
-542
-593
-642
-668
-674
-666
-650
-632
-626
-634
-630
-557
-364
-34
395
841
1194
1354
1280
1009
602
84
-550
-1251
-1883
-2299
-2466
-2482
-2439
-2318
-2039
-1609
-1174
-874
-706
-541
-292
-25
133
144
97
96
155
207
196
134
71
40
42
60
94
157
253
356
412
375
249
99
1
-25
-18
-24
-39
-18
61
151
180
121
14
-61
-65
-23
13
13
-1
18
84
155
177
127
30
-87
-224
-386
-543
-649
-677
-640
-567
-475
-376
-288
-226
-178
-132
-126
-217
-416
-643
-806
-885
-915
-889
-742
-466
-185
-60
-107
-165
-80
119
273
288
243
286
458
672
830
911
939
921
845
721
598
516
468
423
356
279
225
218
253
304
331
305
236
158
105
91
116
173
241
277
247
165
88
56
43
-11
-129
-268
-395
-558
-825
-1185
-1532
-1787
-1994
-2239
-2483
-2544
-2280
-1771
-1242
-822
-417
150
901
1653
2202
2494
2632
2728
2795
2781
2643
2386
2048
1676
1314
993
713
462
235
65
-13
13
102
206
308
422
554
678
747
733
650
537
433
359
329
351
418
520
653
823
1022
1206
1317
1318
1225
1072
877
631
339
39
-199
-329
-350
-304
-239
-178
-117
-40
47
114
128
82
13
-34
-43
-34
-27
-6
40
85
69
-12
-80
-63
2
4
-92
-179
-154
-76
-100
-233
-255
46
594
1058
1200
1097
982
948
883
667
327
-29
-349
-629
-821
-849
-734
-628
-674
-850
-1017
-1074
-1056
-1049
-1088
-1132
-1123
-1035
-867
-652
-452
-331
-310
-358
-426
-504
-588
-652
-639
-530
-363
-220
-149
-124
-89
-28
15
4
-34
-30
38
100
74
-24
-75
5
166
282
294
273
318
412
443
335
141
-27
-113
-149
-184
-217
-216
-174
-109
-40
39
142
259
361
424
445
438
424
418
436
479
528
548
514
426
322
254
247
277
289
256
210
215
298
420
515
544
533
529
550
582
591
568
529
493
474
466
459
451
450
448
416
338
236
172
178
221
232
187
130
114
142
178
190
184
170
135
75
26
31
88
136
115
38
-29
-32
18
69
85
75
68
77
96
122
162
213
247
237
205
214
311
451
546
558
548
602
720
807
777
642
504
447
470
516
543
553
576
633
713
779
799
771
730
716
729
734
709
673
665
699
742
750
712
653
605
568
528
479
423
349
244
114
-7
-108
-230
-411
-598
-678
-605
-497
-516
-676
-797
-716
-493
-370
-487
-696
-704
-370
162
638
949
1191
1492
1823
2010
1915
1572
1130
712
320
-81
-471
-758
-868
-826
-710
-576
-416
-219
-29
79
78
30
19
65
119
126
97
94
150
227
257
212
144
118
146
189
214
225
244
267
275
258
232
214
200
183
166
161
172
194
219
241
248
235
206
179
161
146
111
57
9
-7
10
30
30
16
12
25
34
10
-32
-41
17
112
170
141
63
1
-35
-105
-255
-436
-544
-532
-476
-504
-666
-882
-1031
-1073
-1072
-1107
-1173
-1183
-1066
-844
-608
-424
-283
-153
-44
0
-30
-84
-122
-167
-256
-364
-399
-310
-168
-90
-98
-99
9
201
356
388
328
267
259
276
273
226
136
13
-119
-215
-213
-99
63
178
210
207
248
352
463
516
504
469
443
421
400
401
445
501
504
431
336
296
323
354
329
260
205
194
202
197
200
241
302
319
268
201
172
150
42
-190
-474
-701
-834
-896
-882
-733
-427
-51
262
474
654
868
1070
1143
1023
763
492
303
216
196
203
216
237
288
384
500
576
563
452
266
2
-376
-848
-1282
-1501
-1435
-1185
-921
-731
-558
-286
122
567
867
865
547
83
-290
-478
-623
-919
-1347
-1650
-1614
-1287
-916
-662
-446
-109
343
672
638
254
-195
-409
-381
-424
-825
-1414
-1637
-1121
-161
521
536
232
225
635
982
868
501
427
848
1423
1737
1755
1728
1773
1750
1538
1239
1066
1070
1137
1197
1323
1613
1992
2217
2065
1529
814
154
-389
-916
-1510
-2063
-2318
-2124
-1616
-1117
-834
-703
-519
-196
133
267
162
-13
-34
184
540
837
960
949
943
1043
1236
1409
1446
1289
948
490
14
-370
-608
-724
-768
-750
-628
-385
-62
271
581
861
1097
1238
1237
1094
854
573
290
37
-151
-265
-325
-359
-370
-333
-213
3
286
577
804
921
949
966
1031
1115
1112
948
669
419
314
332
345
231
-11
-264
-387
-330
-172
-54
-60
-140
-162
-40
167
307
280
139
33
54
166
281
374
492
653
801
860
833
787
758
699
547
327
153
96
105
60
-81
-229
-265
-174
-30
107
257
463
725
988
1213
1399
1529
1531
1329
951
544
252
78
-111
-431
-835
-1105
-1033
-616
-88
272
379
395
533
817
1066
1087
870
578
365
258
203
166
171
237
317
340
297
265
302
376
367
207
-27
-177
-187
-177
-301
-566
-843
-1053
-1254
-1499
-1681
-1587
-1145
-535
-22
313
596
946
1316
1552
1568
1401
1133
830
551
366
298
272
184
22
-125
-170
-134
-101
-131
-191
-204
-131
7
161
299
404
469
492
473
420
334
213
77
-31
-80
-102
-208
-482
-874
-1191
-1247
-1034
-734
-543
-478
-378
-89
360
769
945
854
618
389
225
81
-116
-380
-649
-834
-882
-795
-612
-378
-137
65
206
304
390
462
471
378
221
86
24
0
-44
-106
-119
-38
101
207
228
183
126
85
58
61
131
279
456
599
690
748
770
734
654
608
650
721
700
543
338
192
102
12
-63
-38
94
201
196
212
491
1060
1635
1893
1828
1729
1824
2017
2034
1747
1301
931
738
672
666
684
681
594
429
294
283
344
291
12
-378
-629
-614
-444
-317
-275
-165
165
696
1266
1754
2162
2547
2913
3197
3325
3257
2984
2519
1912
1240
578
-16
-501
-827
-961
-905
-710
-449
-196
16
224
513
924
1365
1666
1741
1682
1641
1644
1535
1161
549
-96
-589
-912
-1153
-1364
-1493
-1466
-1289
-1047
-821
-629
-465
-338
-275
-278
-299
-274
-172
-37
32
-77
-403
-855
-1220
-1300
-1081
-756
-547
-470
-323
83
669
1126
1200
928
571
351
282
247
178
105
82
95
99
94
121
187
224
155
-19
-205
-296
-274
-198
-134
-101
-89
-104
-168
-269
-358
-386
-356
-313
-303
-323
-338
-320
-276
-237
-237
-286
-373
-489
-638
-819
-1004
-1128
-1132
-1007
-802
-571
-329
-65
208
434
565
590
541
456
357
251
152
85
73
114
179
214
180
78
-55
-184
-321
-500
-718
-895
-916
-720
-352
67
419
661
832
988
1129
1181
1079
848
613
481
447
423
362
318
370
505
610
589
463
327
238
172
91
-4
-78
-124
-170
-234
-289
-289
-217
-114
-26
38
123
273
474
644
699
626
491
379
317
280
242
211
210
222
202
133
48
-3
-21
-45
-97
-141
-106
43
275
515
685
740
681
542
360
153
-81
-333
-562
-723
-805
-843
-872
-887
-856
-770
-661
-586
-573
-602
-628
-622
-593
-572
-576
-600
-624
-634
-621
-571
-472
-336
-205
-111
-47
27
131
241
308
309
245
124
-42
-202
-280
-246
-160
-121
-160
-210
-195
-111
8
151
319
455
446
251
4
-83
66
316
464
457
427
515
715
893
944
877
757
596
360
57
-218
-369
-430
-541
-779
-1045
-1172
-1147
-1138
-1277
-1437
-1334
-852
-192
346
701
1087
1681
2353
2767
2721
2318
1815
1378
1010
664
336
43
-208
-394
-439
-283
40
380
597
663
650
621
582
514
419
316
218
129
72
78
161
287
406
474
459
344
147
-74
-238
-309
-320
-318
-307
-244
-78
196
517
782
892
825
662
542
539
591
587
494
400
410
525
628
593
390
100
-160
-325
-421
-524
-678
-838
-897
-789
-567
-357
-255
-248
-259
-229
-173
-145
-179
-257
-330
-363
-365
-372
-400
-417
-375
-281
-208
-220
-292
-324
-248
-104
6
26
-6
-37
-63
-114
-185
-233
-235
-223
-243
-313
-406
-489
-540
-569
-631
-815
-1144
-1483
-1607
-1418
-1049
-724
-485
-150
443
1201
1852
2226
2385
2463
2467
2309
1982
1612
1296
999
630
203
-143
-316
-362
-391
-439
-449
-382
-274
-182
-115
-48
25
72
66
15
-54
-124
-191
-245
-262
-224
-124
23
173
271
293
286
328
444
559
581
516
472
530
627
621
445
184
-26
-145
-244
-391
-564
-681
-696
-639
-569
-504
-420
-288
-130
-5
51
59
71
114
144
120
64
46
76
79
-7
-109
-62
208
568
798
813
733
713
750
682
384
-78
-511
-777
-893
-960
-1023
-1027
-900
-670
-450
-331
-288
-229
-117
-22
-37
-160
-284
-314
-247
-163
-124
-129
-127
-69
64
253
430
533
558
575
650
761
809
735
600
519
543
613
644
622
601
621
656
650
592
526
507
536
566
562
540
541
581
622
614
555
500
492
512
494
407
288
200
176
192
193
127
-14
-189
-337
-430
-512
-651
-851
-1017
-1047
-935
-772
-619
-424
-72
466
1077
1596
1956
2204
2413
2581
2640
2517
2203
1763
1289
864
530
281
82
-83
-188
-178
-37
179
375
497
556
587
596
562
478
390
342
329
309
274
268
326
422
493
510
508
532
581
621
629
620
615
620
624
617
621
657
721
766
741
650
578
624
783
928
917
752
583
540
587
573
414
188
32
-22
-63
-178
-346
-479
-533
-549
-583
-634
-648
-570
-388
-132
144
394
584
699
728
668
530
339
108
-166
-468
-737
-879
-849
-706
-563
-491
-472
-448
-385
-305
-246
-236
-277
-347
-406
-418
-382
-344
-345
-377
-416
-457
-513
-573
-594
-551
-477
-424
-389
-333
-241
-164
-146
-159
-138
-81
-59
-124
-228
-261
-182
-71
-45
-127
-229
-249
-159
-14
111
175
180
150
118
128
201
302
355
324
267
276
366
429
361
195
100
181
358
440
350
211
206
364
540
577
461
311
232
231
252
255
250
260
281
294
287
280
300
345
389
406
403
407
437
489
548
604
651
677
670
636
605
599
608
603
572
521
458
372
253
119
17
-24
-21
-8
12
66
159
238
233
147
55
19
14
-46
-180
-297
-292
-161
-14
46
6
-73
-147
-207
-252
-264
-242
-223
-236
-255
-221
-109
47
180
251
271
279
310
384
493
596
654
662
659
680
718
728
682
607
545
514
504
500
511
561
642
716
739
701
638
596
594
619
639
631
591
534
485
463
464
453
393
274
134
18
-85
-226
-423
-623
-755
-822
-910
-1083
-1290
-1410
-1381
-1260
-1145
-1054
-887
-535
3
608
1137
1522
1789
2001
2172
2237
2105
1750
1265
805
465
216
-36
-317
-532
-559
-381
-127
49
109
130
202
325
419
423
344
241
157
98
56
26
4
-6
26
147
380
670
903
981
889
685
423
108
-277
-699
-1055
-1231
-1185
-974
-703
-444
-217
-30
80
74
-36
-174
-253
-249
-196
-126
-6
219
535
837
996
963
798
602
406
154
-221
-695
-1141
-1402
-1417
-1281
-1176
-1196
-1250
-1127
-716
-147
298
444
376
334
464
694
851
833
688
525
427
422
491
565
554
406
161
-64
-193
-235
-250
-281
-335
-415
-521
-616
-638
-555
-425
-334
-305
-272
-173
-41
32
-6
-102
-165
-167
-154
-174
-222
-247
-221
-154
-75
-16
-11
-113
-358
-702
-1021
-1184
-1156
-1010
-837
-640
-339
127
704
1240
1594
1729
1697
1568
1375
1122
818
489
172
-85
-248
-311
-309
-282
-242
-180
-98
-38
-43
-97
-131
-90
3
79
94
72
59
71
102
156
261
423
602
751
877
1025
1209
1374
1459
1482
1519
1601
1666
1627
1481
1315
1203
1137
1072
1016
1039
1189
1421
1633
1751
1758
1664
1463
1142
715
240
-210
-572
-813
-935
-954
-888
-751
-563
-370
-228
-162
-158
-186
-235
-311
-403
-470
-471
-409
-322
-243
-180
-126
-74
-22
47
148
264
348
360
312
252
205
162
106
45
-2
-41
-96
-160
-180
-111
15
103
89
17
-13
50
156
216
188
100
5
-70
-122
-164
-204
-240
-266
-279
-291
-316
-365
-420
-476
-566
-728
-936
-1102
-1163
-1160
-1199
-1312
-1399
-1324
-1072
-779
-587
-496
-375
-104
304
718
1014
1162
1223
1277
1354
1408
1347
1117
744
336
9
-198
-336
-473
-608
-665
-573
-355
-116
54
150
221
290
319
260
130
4
-61
-76
-93
-135
-173
-158
-75
37
119
140
119
91
67
37
-13
-73
-130
-182
-232
-266
-263
-227
-195
-202
-238
-252
-219
-179
-196
-280
-372
-397
-351
-315
-361
-473
-567
-577
-532
-500
-491
-450
-341
-220
-167
-173
-133
22
232
388
466
527
595
594
443
181
-64
-252
-484
-844
-1245
-1477
-1424
-1180
-921
-712
-500
-245
-6
127
148
123
94
41
-61
-177
-232
-175
8
311
713
1152
1521
1734
1785
1725
1578
1311
895
376
-136
-543
-813
-954
-967
-839
-590
-300
-61
78
135
156
155
120
49
-26
-56
-29
25
80
149
251
360
412
379
317
312
393
515
609
652
651
618
550
459
368
294
244
226
251
298
324
307
284
316
410
499
536
548
600
688
727
659
548
512
578
656
649
568
512
546
629
682
666
608
532
436
314
196
120
92
79
57
46
77
151
222
250
242
232
247
272
267
215
141
90
91
132
172
177
157
158
212
296
343
310
213
109
44
4
-49
-126
-198
-227
-190
-99
8
82
95
65
42
58
91
88
35
-18
-1
100
225
318
379
451
552
639
661
612
534
464
394
306
212
157
163
205
247
275
317
388
465
509
496
420
302
180
102
83
81
31
-65
-122
-57
99
216
193
60
-65
-120
-163
-293
-523
-756
-879
-875
-830
-849
-948
-1042
-1025
-872
-647
-431
-244
-25
290
712
1197
1671
2071
2361
2534
2594
2523
2289
1889
1390
890
441
15
-418
-803
-1008
-942
-660
-318
-33
193
430
705
961
1102
1071
883
610
334
113
-32
-105
-119
-94
-55
-22
11
56
109
124
43
-140
-347
-480
-509
-484
-466
-446
-374
-230
-74
12
8
-36
-60
-52
-35
-32
-54
-113
-212
-321
-384
-377
-346
-365
-459
-570
-617
-577
-490
-418
-402
-446
-524
-584
-574
-496
-431
-469
-613
-759
-809
-781
-776
-842
-906
-864
-712
-552
-463
-417
-335
-199
-86
-75
-167
-296
-411
-514
-628
-742
-814
-810
-727
-602
-488
-430
-436
-474
-495
-474
-438
-432
-472
-527
-547
-506
-419
-327
-269
-254
-254
-224
-139
-12
109
191
241
282
324
352
365
380
411
436
410
326
239
216
271
340
355
317
285
313
390
458
472
441
411
421
461
469
386
218
46
-45
-40
-11
-30
-82
-88
-1
150
286
366
406
426
416
365
301
282
329
394
415
394
392
459
563
616
585
539
582
745
953
1111
1210
1312
1445
1539
1482
1247
919
610
351
97
-180
-431
-571
-572
-494
-420
-374
-324
-245
-169
-150
-203
-293
-383
-464
-535
-573
-553
-496
-456
-451
-415
-278
-55
149
252
281
329
431
534
575
557
532
538
570
617
683
758
799
763
667
582
567
613
664
680
674
683
727
791
843
860
836
772
684
605
570
587
623
637
621
594
573
557
536
513
498
472
406
307
222
186
167
99
-29
-166
-263
-334
-430
-558
-668
-733
-788
-875
-959
-938
-759
-491
-247
-40
241
698
1270
1764
2033
2114
2154
2221
2221
2012
1587
1092
674
350
43
-270
-509
-586
-511
-364
-200
-19
184
370
491
543
552
532
472
384
298
234
183
144
154
251
398
501
509
467
459
499
525
494
446
457
529
571
514
398
342
417
566
657
625
521
455
491
595
658
595
406
187
68
87
168
181
84
-12
43
257
460
465
273
82
77
236
367
318
131
-15
-4
114
206
198
132
92
99
105
64
0
-18
48
152
207
170
70
-26
-76
-71
-33
19
58
63
37
3
-16
-21
-35
-95
-213
-365
-495
-545
-500
-406
-341
-358
-425
-451
-381
-255
-171
-192
-274
-328
-306
-253
-228
-244
-255
-230
-192
-175
-164
-123
-44
22
24
-18
-49
-47
-43
-55
-46
16
98
130
102
85
152
268
330
296
233
220
250
249
185
106
77
101
126
95
11
-74
-97
-32
87
192
242
241
218
198
187
198
240
284
259
129
-27
-59
103
354
488
396
183
54
107
252
308
206
50
-8
68
173
198
148
125
179
240
201
56
-89
-148
-166
-257
-459
-664
-730
-629
-468
-370
-363
-372
-323
-222
-133
-106
-136
-189
-254
-343
-453
-529
-500
-365
-203
-118
-131
-147
-55
142
314
346
254
159
143
160
121
27
-36
-9
69
118
119
128
188
275
336
345
314
272
244
247
290
363
434
484
521
568
615
627
566
429
236
11
-233
-466
-638
-721
-748
-789
-864
-921
-907
-847
-840
-932
-1056
-1097
-1026
-929
-873
-798
-588
-215
214
571
831
1073
1355
1632
1768
1639
1225
648
105
-242
-386
-467
-624
-832
-910
-708
-287
118
307
270
154
91
101
121
94
6
-114
-209
-228
-156
-28
85
134
130
88
-7
-139
-222
-159
30
172
110
-114
-279
-209
44
260
283
158
39
31
119
214
242
174
34
-112
-195
-185
-121
-62
-36
-24
-5
15
10
-29
-81
-113
-112
-105
-132
-201
-269
-268
-165
-9
101
108
49
20
73
178
263
285
252
204
182
211
293
374
381
293
176
116
117
101
1
-150
-260
-289
-282
-298
-329
-331
-299
-275
-281
-285
-245
-182
-170
-259
-411
-540
-584
-562
-547
-594
-681
-737
-720
-673
-683
-763
-811
-709
-459
-193
-12
117
290
507
638
582
384
178
28
-87
-173
-178
-83
28
63
74
207
504
809
939
902
882
1002
1184
1266
1209
1103
1028
964
864
754
700
708
691
576
399
250
164
79
-93
-365
-653
-848
-889
-796
-629
-440
-241
-24
194
361
431
394
277
110
-84
-279
-432
-514
-542
-559
-583
-580
-504
-355
-193
-62
54
194
349
465
515
539
596
659
644
500
277
61
-129
-351
-635
-924
-1132
-1239
-1278
-1249
-1099
-792
-378
47
423
741
986
1113
1102
1007
907
823
713
565
448
472
660
932
1170
1323
1418
1499
1578
1623
1606
1523
1400
1264
1139
1050
1023
1051
1097
1135
1172
1229
1279
1244
1075
831
613
450
253
-63
-414
-582
-422
-28
346
532
616
805
1165
1509
1576
1311
908
606
449
297
46
-229
-355
-275
-99
33
110
231
468
770
1016
1132
1130
1073
1007
930
806
616
378
149
-26
-142
-219
-259
-249
-189
-118
-81
-85
-87
-47
26
61
1
-146
-324
-490
-638
-759
-807
-723
-511
-260
-69
44
123
189
194
88
-115
-338
-515
-610
-598
-469
-257
-38
128
247
345
401
354
193
-4
-160
-278
-420
-586
-688
-644
-490
-352
-312
-336
-333
-263
-163
-102
-110
-166
-224
-250
-242
-225
-224
-248
-289
-331
-353
-339
-292
-245
-241
-287
-335
-323
-243
-159
-144
-210
-306
-382
-436
-489
-538
-558
-538
-499
-463
-414
-330
-237
-221
-333
-514
-634
-608
-481
-371
-337
-331
-266
-128
7
50
-19
-150
-273
-348
-373
-360
-321
-266
-193
-104
-16
46
64
39
-17
-99
-192
-270
-311
-313
-304
-289
-232
-98
95
262
342
351
355
380
375
284
106
-95
-258
-350
-369
-322
-249
-209
-228
-271
-273
-223
-186
-231
-333
-397
-355
-236
-117
-39
15
75
128
122
22
-144
-307
-399
-396
-326
-237
-162
-95
0
140
293
390
391
330
276
263
250
189
95
32
26
20
-51
-169
-243
-219
-138
-52
62
274
569
827
929
884
792
702
557
294
-46
-344
-524
-612
-656
-649
-554
-372
-168
-17
64
104
131
152
163
174
187
197
202
226
310
481
707
908
1007
999
947
908
881
822
721
610
505
376
230
187
399
862
1355
1630
1653
1603
1624
1640
1449
983
417
-6
-207
-304
-434
-611
-736
-739
-664
-636
-737
-922
-1051
-1015
-841
-667
-614
-661
-681
-583
-406
-283
-303
-422
-487
-362
-29
411
820
1139
1409
1693
1955
2073
1951
1623
1227
859
511
151
-161
-322
-317
-256
-235
-186
62
562
1153
1603
1837
1957
2052
2060
1851
1399
825
271
-204
-601
-901
-1060
-1057
-927
-728
-515
-335
-228
-202
-215
-211
-186
-185
-236
-295
-279
-158
4
109
101
16
-47
-11
112
231
264
224
201
252
326
316
174
-33
-193
-258
-265
-270
-279
-265
-216
-150
-91
-45
-21
-48
-140
-268
-371
-407
-395
-391
-423
-472
-489
-429
-269
-17
273
512
625
606
505
365
179
-89
-444
-833
-1175
-1405
-1490
-1432
-1270
-1067
-882
-730
-589
-448
-338
-299
-332
-395
-444
-471
-488
-491
-463
-400
-329
-280
-257
-248
-238
-217
-179
-123
-63
-22
-17
-50
-107
-165
-207
-224
-217
-196
-161
-103
-15
88
165
182
148
98
56
2
-104
-258
-394
-446
-421
-383
-378
-388
-378
-349
-339
-368
-414
-460
-528
-634
-738
-767
-689
-546
-405
-281
-143
32
214
337
358
274
112
-118
-445
-895
-1410
-1822
-1961
-1815
-1546
-1311
-1078
-692
-108
502
894
1000
958
909
842
666
379
113
-5
14
29
-93
-341
-580
-682
-670
-694
-854
-1051
-1070
-825
-460
-183
-41
54
127
69
-178
-457
-512
-286
16
193
288
502
900
1303
1499
1467
1348
1247
1164
1073
998
953
899
812
756
801
893
858
590
179
-192
-427
-564
-645
-632
-508
-373
-355
-438
-431
-180
253
639
820
858
959
1248
1646
1932
1932
1659
1286
996
832
713
550
344
147
-22
-188
-333
-393
-354
-335
-497
-851
-1213
-1361
-1257
-1050
-886
-756
-527
-114
420
937
1351
1672
1930
2108
2147
2022
1768
1454
1116
750
357
-13
-265
-320
-181
64
297
458
567
679
792
829
723
506
297
205
234
295
319
331
412
584
749
777
640
435
261
104
-126
-443
-719
-820
-771
-723
-746
-716
-456
18
484
746
834
928
1117
1305
1341
1204
1004
834
697
560
430
350
328
331
323
295
247
176
85
9
-20
-7
16
29
41
74
123
163
180
179
170
162
162
180
213
233
209
142
67
15
-24
-88
-188
-285
-321
-290
-250
-263
-341
-425
-457
-436
-415
-440
-502
-559
-580
-576
-560
-532
-494
-466
-474
-504
-510
-458
-373
-322
-348
-427
-488
-483
-420
-355
-325
-322
-297
-219
-103
-7
29
13
-9
2
40
71
66
21
-32
-59
-51
-23
4
27
58
94
98
43
-39
-70
3
133
209
174
89
67
158
298
393
417
414
432
467
481
465
440
430
426
400
355
322
326
354
374
375
385
429
487
490
396
243
137
148
243
313
295
231
211
277
393
493
551
572
556
495
414
358
354
371
357
301
243
214
207
189
148
98
60
46
66
115
170
196
179
148
139
158
171
148
97
56
65
132
247
385
510
591
620
623
638
688
755
797
785
727
662
630
631
638
624
592
568
577
628
704
778
824
833
818
802
782
732
635
525
463
476
527
551
533
511
524
565
584
538
433
316
226
160
69
-93
-308
-495
-610
-731
-1010
-1506
-2070
-2421
-2383
-2021
-1561
-1160
-767
-219
566
1467
2232
2676
2805
2770
2708
2629
2444
2089
1618
1143
746
434
184
-8
-131
-190
-214
-224
-222
-195
-128
-20
117
259
361
380
310
202
128
126
169
183
113
-24
-156
-221
-220
-204
-210
-220
-207
-175
-166
-200
-244
-261
-261
-292
-368
-435
-417
-317
-223
-205
-251
-283
-256
-211
-218
-286
-353
-354
-299
-247
-235
-241
-218
-161
-100
-68
-73
-104
-145
-172
-160
-104
-48
-40
-84
-123
-111
-67
-50
-77
-90
-37
47
74
10
-70
-70
21
110
97
-22
-160
-235
-237
-212
-211
-267
-377
-489
-518
-418
-241
-120
-149
-268
-311
-180
31
131
44
-107
-153
-70
-10
-98
-279
-375
-299
-156
-111
-180
-214
-87
124
211
86
-101
-130
39
221
224
63
-71
-35
123
237
213
101
7
-20
-3
12
10
-1
-14
-27
-39
-44
-32
-12
3
-8
-56
-128
-180
-180
-137
-93
-76
-57
4
84
108
48
-16
10
101
118
-10
-179
-223
-132
-79
-181
-327
-301
-68
175
238
161
121
172
192
86
-63
-131
-140
-237
-445
-566
-397
3
349
428
313
239
325
458
466
294
36
-189
-330
-390
-378
-304
-200
-126
-121
-163
-193
-169
-105
-56
-62
-97
-94
-13
113
216
270
317
402
509
582
597
594
619
669
695
667
604
542
493
446
403
384
401
450
524
609
675
680
619
542
503
492
432
272
60
-78
-73
21
87
74
31
40
105
160
155
94
-2
-117
-228
-304
-355
-487
-817
-1339
-1907
-2390
-2793
-3144
-3314
-3038
-2200
-1022
110
1025
1855
2754
3602
4080
4004
3501
2840
2187
1561
976
512
216
31
-136
-283
-309
-163
52
177
161
107
156
346
583
744
780
706
549
322
52
-203
-388
-494
-546
-549
-465
-282
-60
101
154
141
124
100
8
-182
-407
-559
-582
-510
-404
-283
-111
150
481
813
1061
1165
1118
953
708
377
-87
-696
-1364
-1926
-2238
-2257
-2032
-1622
-1045
-306
540
1381
2095
2595
2843
2851
2671
2371
2016
1660
1352
1133
1026
1005
1012
997
945
861
747
593
390
166
-9
-73
-29
48
76
35
-33
-82
-104
-121
-148
-181
-216
-261
-323
-382
-408
-394
-360
-319
-258
-161
-26
129
276
382
413
349
214
83
17
7
-4
-40
-46
73
346
684
952
1055
991
824
645
525
472
432
345
229
196
353
682
1031
1251
1316
1306
1291
1258
1161
994
795
594
414
279
215
205
187
118
20
-56
-113
-202
-332
-432
-439
-393
-407
-527
-664
-684
-549
-342
-169
-62
21
108
173
168
75
-75
-235
-353
-393
-346
-232
-89
56
198
337
458
526
505
388
213
38
-97
-183
-237
-276
-301
-307
-280
-220
-150
-128
-200
-350
-499
-569
-565
-571
-652
-780
-873
-891
-873
-872
-869
-788
-586
-319
-90
44
112
181
278
354
348
254
148
118
189
306
386
405
420
485
592
665
648
567
490
450
425
387
348
347
395
448
460
423
369
323
281
228
157
75
-3
-39
3
120
240
269
186
68
-14
-84
-230
-472
-728
-925
-1079
-1244
-1387
-1408
-1272
-1087
-980
-951
-872
-673
-439
-294
-218
-51
306
758
1115
1293
1388
1538
1750
1890
1835
1587
1261
954
666
351
5
-311
-550
-723
-860
-922
-817
-516
-135
137
224
256
428
784
1164
1364
1335
1185
1023
835
530
109
-296
-553
-690
-840
-1037
-1143
-1027
-737
-452
-279
-151
29
231
370
485
757
1264
1825
2157
2195
2140
2175
2204
1957
1322
504
-182
-596
-813
-930
-929
-748
-431
-129
47
127
203
296
324
220
37
-91
-81
25
118
153
190
297
443
519
462
317
193
145
131
78
-31
-150
-227
-256
-257
-236
-184
-103
-18
34
49
65
114
189
242
241
204
177
184
213
245
292
375
477
527
475
361
286
292
309
228
44
-119
-151
-79
-30
-80
-175
-218
-206
-223
-304
-365
-293
-80
171
371
515
634
714
703
594
442
293
128
-90
-330
-491
-499
-380
-219
-85
0
40
40
23
18
34
54
51
36
35
61
100
129
120
53
-72
-212
-288
-246
-121
-7
42
66
143
297
472
598
654
667
663
649
623
589
544
472
364
232
110
33
15
37
67
74
55
39
59
111
153
145
87
8
-73
-145
-197
-217
-219
-236
-285
-333
-327
-246
-122
2
117
234
339
395
378
306
210
99
-42
-207
-360
-460
-493
-474
-421
-344
-252
-171
-123
-106
-83
-20
80
184
255
294
331
384
441
466
442
380
304
239
208
228
286
334
331
289
253
239
184
16
-256
-528
-693
-730
-690
-615
-509
-376
-260
-202
-186
-171
-178
-289
-541
-851
-1093
-1229
-1325
-1414
-1410
-1188
-756
-289
51
266
492
807
1122
1284
1242
1087
945
846
713
452
26
-524
-1099
-1597
-1970
-2219
-2356
-2352
-2160
-1768
-1227
-613
6
565
966
1127
1041
781
434
61
-285
-524
-596
-528
-399
-265
-102
117
336
444
397
278
224
291
424
538
594
607
608
598
564
506
442
392
339
237
73
-91
-147
-51
113
199
141
4
-99
-128
-138
-193
-301
-438
-593
-770
-954
-1098
-1149
-1083
-900
-617
-261
118
460
723
890
964
933
789
569
340
158
32
-63
-126
-142
-125
-122
-168
-259
-379
-530
-711
-871
-928
-876
-830
-902
-1029
-1007
-723
-321
-69
-72
-161
-99
153
418
520
440
272
80
-148
-407
-622
-713
-686
-619
-569
-511
-364
-103
207
456
559
509
368
232
165
164
177
175
180
233
320
366
308
149
-60
-272
-448
-536
-482
-287
-35
180
331
458
591
714
809
885
949
972
943
932
1052
1306
1540
1576
1396
1174
1072
1082
1076
977
844
777
798
845
870
878
892
898
855
739
583
451
400
444
544
628
637
565
467
400
374
361
341
342
399
489
541
514
442
391
381
370
319
238
166
115
60
-11
-65
-69
-41
-31
-53
-70
-39
30
80
78
50
37
43
39
10
-15
-6
30
61
79
114
190
288
359
386
399
435
491
527
520
486
457
443
432
415
406
418
431
411
357
314
333
415
505
546
531
501
493
513
536
544
532
497
434
359
301
277
264
228
148
34
-97
-226
-332
-409
-487
-616
-796
-948
-974
-852
-674
-532
-412
-199
200
744
1292
1722
2014
2230
2417
2558
2577
2411
2067
1626
1185
790
438
126
-119
-244
-230
-114
42
204
377
557
706
767
724
617
515
457
426
380
312
256
257
311
355
318
188
30
-64
-46
56
176
275
380
534
730
895
960
931
864
800
722
609
478
392
386
427
452
437
405
390
383
347
269
180
133
168
278
409
496
496
428
362
351
388
407
352
238
136
113
166
238
273
262
221
174
139
117
111
118
128
126
102
62
29
22
44
65
48
-17
-100
-163
-191
-203
-217
-223
-201
-143
-67
-2
53
117
198
270
294
257
187
119
57
-19
-111
-176
-173
-115
-57
-39
-36
6
85
132
102
45
50
128
177
113
-11
-53
48
187
207
93
-14
14
138
209
155
64
65
170
263
250
172
143
200
262
243
160
108
135
181
162
89
54
111
206
244
198
120
71
51
27
-12
-57
-113
-185
-247
-230
-104
87
248
323
319
284
259
269
311
341
311
232
188
251
400
530
572
550
522
501
453
369
281
220
171
125
133
267
517
768
886
834
693
570
509
476
415
304
181
120
171
317
467
514
408
185
-60
-248
-357
-432
-528
-640
-697
-623
-420
-179
-1
76
85
70
57
55
63
75
82
104
181
321
468
526
466
361
322
375
441
434
352
278
292
383
470
485
428
352
306
280
219
77
-135
-359
-542
-668
-768
-887
-1036
-1168
-1222
-1190
-1152
-1212
-1381
-1537
-1535
-1361
-1143
-1002
-892
-642
-154
485
1084
1516
1795
2004
2177
2267
2194
1923
1500
1034
628
309
26
-257
-487
-560
-441
-225
-45
62
174
363
589
748
780
711
601
479
353
241
168
126
81
25
-3
30
103
164
201
249
321
373
359
308
305
386
481
491
408
326
339
430
499
481
405
347
339
350
342
312
285
268
243
197
130
64
18
-9
-44
-118
-224
-310
-302
-192
-43
71
134
198
296
409
497
560
609
615
516
298
47
-135
-228
-308
-437
-592
-703
-742
-740
-722
-675
-583
-474
-401
-384
-389
-365
-301
-225
-181
-199
-279
-382
-450
-451
-414
-411
-488
-620
-731
-773
-756
-720
-688
-648
-590
-520
-450
-370
-251
-79
115
267
333
316
258
187
91
-55
-243
-416
-525
-569
-593
-620
-608
-503
-319
-151
-87
-114
-126
-45
99
191
160
52
-20
8
85
112
51
-42
-85
-54
-12
-15
-45
-34
50
165
233
227
190
170
172
174
170
180
209
232
234
245
292
334
292
184
175
427
896
1319
1473
1379
1237
1159
1040
738
287
-118
-338
-412
-451
-463
-371
-173
-2
1
-165
-361
-469
-503
-541
-611
-657
-606
-445
-228
-26
124
221
273
277
235
172
134
170
292
467
634
740
766
733
682
645
627
608
578
550
558
609
653
627
527
435
461
631
846
972
960
879
816
764
640
382
35
-295
-533
-681
-776
-829
-831
-792
-750
-739
-748
-742
-726
-755
-878
-1064
-1227
-1307
-1335
-1382
-1455
-1474
-1370
-1175
-991
-869
-750
-534
-213
127
405
621
823
1016
1140
1130
977
725
421
88
-254
-570
-823
-993
-1076
-1069
-968
-789
-579
-380
-204
-41
105
202
226
195
163
159
158
133
97
98
152
214
222
170
112
105
154
218
258
269
269
281
311
352
378
367
316
252
201
173
155
135
120
125
153
186
203
198
185
182
190
186
146
68
-18
-70
-74
-63
-86
-156
-233
-262
-233
-198
-207
-253
-271
-209
-98
-24
-49
-150
-255
-315
-343
-375
-427
-478
-502
-496
-469
-431
-392
-370
-375
-398
-424
-450
-503
-591
-667
-666
-583
-498
-502
-594
-667
-608
-418
-217
-125
-163
-257
-333
-375
-424
-519
-662
-827
-962
-1016
-960
-813
-641
-514
-446
-404
-355
-304
-275
-276
-295
-319
-346
-369
-360
-295
-203
-143
-146
-183
-195
-165
-130
-131
-168
-201
-198
-159
-102
-41
10
35
29
20
59
170
323
440
462
390
300
287
420
685
981
1172
1190
1113
1095
1205
1333
1283
971
535
206
105
159
220
217
187
193
257
362
487
603
665
640
559
495
502
551
574
531
447
377
355
379
410
402
343
281
292
399
524
536
394
207
139
239
394
454
401
353
414
547
614
539
375
209
47
-173
-472
-761
-930
-960
-904
-778
-510
-58
482
911
1112
1144
1127
1065
827
332
-304
-828
-1057
-974
-655
-154
495
1209
1856
2343
2662
2847
2886
2725
2352
1872
1464
1260
1285
1461
1658
1764
1729
1573
1349
1086
769
364
-120
-624
-1043
-1291
-1342
-1253
-1147
-1129
-1204
-1274
-1230
-1054
-816
-573
-295
91
610
1186
1701
2086
2339
2483
2501
2350
2024
1581
1122
706
319
-62
-398
-595
-600
-473
-347
-308
-329
-326
-267
-195
-161
-159
-151
-122
-83
-39
27
111
169
170
138
123
132
116
46
-30
-44
3
36
1
-103
-276
-560
-973
-1403
-1654
-1624
-1414
-1201
-1021
-742
-249
365
850
1029
939
756
608
491
335
132
-51
-138
-114
-33
45
91
111
113
93
50
-8
-71
-139
-201
-220
-167
-67
-2
-41
-171
-311
-394
-416
-409
-382
-329
-262
-227
-245
-273
-253
-188
-153
-207
-326
-435
-503
-553
-604
-626
-579
-482
-401
-375
-377
-369
-364
-408
-521
-678
-856
-1060
-1280
-1423
-1365
-1072
-663
-314
-96
62
265
517
711
748
640
485
368
311
291
288
297
301
263
137
-90
-373
-641
-837
-947
-985
-962
-897
-835
-840
-927
-1011
-973
-794
-598
-528
-572
-549
-302
123
513
693
667
561
481
436
388
328
289
302
353
405
435
460
504
553
545
428
233
68
28
102
197
241
256
303
397
475
453
317
138
19
20
111
205
228
181
134
153
237
319
335
277
191
114
55
1
-51
-81
-77
-41
2
30
36
26
17
20
30
36
33
25
26
39
55
62
56
36
4
-37
-61
-42
25
107
160
173
176
202
242
260
247
234
257
303
332
328
326
363
435
504
550
588
629
633
543
339
70
-197
-412
-535
-522
-357
-94
183
430
678
954
1192
1263
1105
801
510
306
126
-126
-420
-623
-653
-587
-593
-736
-902
-929
-795
-639
-579
-546
-341
146
802
1404
1815
2070
2261
2400
2416
2263
1969
1597
1186
750
328
-16
-241
-359
-405
-387
-295
-146
11
124
181
198
187
148
91
58
88
185
310
424
511
575
611
601
543
453
345
216
77
-31
-72
-65
-68
-93
-50
170
550
910
1062
1003
901
894
926
822
518
163
-26
15
149
209
158
87
80
110
70
-119
-420
-714
-900
-969
-983
-992
-959
-836
-643
-467
-356
-261
-115
69
228
357
539
827
1129
1277
1222
1096
1050
1060
961
673
359
310
670
1274
1760
1856
1573
1120
675
215
-410
-1271
-2236
-3058
-3546
-3666
-3491
-3113
-2606
-2044
-1515
-1093
-796
-592
-419
-242
-93
-37
-88
-130
2
344
728
923
841
613
423
318
199
-14
-277
-480
-575
-604
-596
-518
-333
-95
78
125
122
184
329
443
404
212
-21
-184
-253
-270
-276
-276
-266
-249
-230
-210
-204
-211
-210
-169
-84
-9
5
-26
-37
6
58
87
152
331
593
779
770
640
575
641
700
575
272
-26
-183
-249
-358
-543
-711
-771
-752
-743
-774
-801
-780
-698
-549
-338
-115
21
23
-28
-12
52
16
-207
-524
-764
-876
-884
-710
-194
588
1221
1333
1106
1168
1900
2978
3768
4061
4209
4520
4758
4411
3334
1857
311
-1297
-3024
-4617
-5606
-5785
-5392
-4773
-4048
-3159
-2156
-1264
-678
-414
-409
-625
-987
-1315
-1396
-1153
-664
-51
591
1142
1473
1565
1580
1710
1958
2143
2130
1985
1867
1815
1695
1362
817
182
-417
-913
-1240
-1348
-1276
-1154
-1128
-1219
-1312
-1269
-1066
-802
-611
-534
-469
-251
205
823
1432
1915
2286
2638
2991
3227
3166
2716
1956
1100
374
-116
-428
-695
-967
-1133
-1031
-664
-253
-66
-167
-378
-487
-466
-471
-608
-798
-871
-757
-527
-285
-54
188
398
475
383
233
197
339
540
620
533
401
373
466
564
550
412
240
130
110
142
172
161
105
37
1
13
51
92
157
292
495
677
725
616
467
433
544
655
586
341
132
174
451
723
783
676
624
750
931
939
694
335
36
-164
-341
-552
-767
-938
-1047
-1080
-1007
-825
-608
-468
-431
-404
-291
-123
-39
-114
-249
-273
-141
19
51
-65
-196
-195
-83
-29
-157
-366
-421
-198
213
644
1075
1661
2512
3462
4130
4215
3729
2944
2139
1405
680
-74
-762
-1207
-1299
-1094
-802
-681
-857
-1234
-1606
-1887
-2199
-2661
-3128
-3253
-2862
-2202
-1651
-1189
-350
1134
2785
3698
3450
2554
1882
1742
1648
1004
-158
-1235
-1712
-1583
-1201
-859
-633
-478
-358
-262
-194
-192
-323
-602
-931
-1164
-1202
-1040
-728
-335
60
368
516
445
184
-110
-205
2
386
701
843
951
1188
1489
1603
1439
1215
1189
1297
1183
634
-103
-554
-514
-243
-147
-343
-592
-616
-411
-226
-287
-571
-884
-1073
-1158
-1240
-1296
-1185
-839
-379
-31
110
160
272
435
523
525
606
899
1310
1602
1695
1790
2100
2510
2650
2301
1682
1223
1083
995
627
30
-392
-347
-4
217
109
-126
-159
79
356
425
241
-79
-410
-673
-785
-684
-412
-117
99
297
638
1176
1770
2192
2339
2262
2030
1629
1041
370
-210
-623
-994
-1483
-2037
-2383
-2317
-1957
-1641
-1565
-1588
-1410
-912
-271
254
586
847
1180
1587
1942
2123
2101
1928
1672
1387
1094
795
508
287
207
280
418
517
570
648
784
886
841
639
379
144
-74
-287
-404
-290
53
447
708
838
982
1215
1428
1442
1203
816
418
87
-162
-322
-387
-378
-344
-315
-275
-206
-128
-92
-129
-216
-306
-369
-402
-398
-334
-207
-55
51
69
28
17
116
319
538
668
676
615
563
536
473
312
64
-190
-364
-410
-297
-5
429
875
1171
1246
1163
1010
801
479
17
-525
-1024
-1372
-1494
-1371
-1075
-740
-485
-316
-170
-35
13
-82
-254
-362
-355
-309
-305
-314
-237
-49
153
242
175
9
-172
-309
-362
-313
-188
-63
-8
-34
-93
-129
-128
-126
-175
-296
-444
-513
-426
-214
-16
40
-37
-112
-81
11
18
-140
-397
-602
-665
-637
-619
-649
-657
-562
-386
-239
-192
-187
-103
94
319
485
612
763
903
897
664
292
-53
-315
-565
-859
-1112
-1175
-1005
-696
-370
-81
165
341
404
351
228
87
-55
-186
-281
-320
-303
-243
-143
-3
141
210
156
9
-140
-215
-207
-155
-121
-139
-210
-293
-330
-299
-245
-247
-340
-454
-487
-401
-270
-208
-245
-305
-301
-235
-197
-254
-379
-478
-484
-405
-297
-194
-92
23
137
231
302
350
362
321
235
139
69
30
9
20
91
208
303
331
330
382
492
547
427
151
-136
-307
-368
-410
-487
-575
-625
-625
-588
-529
-461
-411
-409
-453
-497
-499
-475
-494
-608
-800
-966
-1001
-906
-808
-846
-1020
-1174
-1151
-961
-756
-662
-641
-558
-327
19
390
721
993
1196
1323
1392
1426
1406
1276
996
623
297
117
44
-44
-169
-188
58
535
1009
1290
1429
1616
1881
2008
1779
1257
738
416
202
-85
-442
-667
-619
-375
-121
55
197
349
468
515
527
575
651
679
616
535
541
640
738
745
671
609
628
709
787
824
838
853
866
846
749
560
329
155
123
209
293
295
299
486
916
1408
1688
1644
1412
1197
1037
821
461
31
-326
-536
-623
-640
-602
-522
-426
-328
-221
-106
-30
-52
-151
-222
-186
-84
-25
-53
-102
-87
-2
92
140
149
149
153
162
198
295
449
593
647
588
478
397
381
403
418
404
366
309
218
94
-17
-48
24
132
184
149
88
83
152
248
309
313
282
256
258
283
306
306
286
261
232
175
70
-62
-159
-180
-135
-68
-5
62
154
278
417
543
626
646
606
530
446
367
284
189
91
-1
-83
-154
-204
-216
-185
-132
-77
-29
20
80
147
217
282
330
346
321
264
196
130
61
-15
-89
-128
-99
5
147
274
350
382
400
421
413
323
145
-47
-159
-157
-102
-60
-23
72
244
418
494
453
342
198
-5
-290
-586
-752
-699
-475
-214
-9
169
405
712
984
1073
941
703
521
459
452
415
354
338
385
423
370
247
161
167
192
121
-50
-189
-165
9
201
295
277
183
6
-287
-666
-1008
-1191
-1201
-1112
-973
-746
-385
64
466
715
802
778
682
507
226
-166
-634
-1089
-1425
-1596
-1677
-1799
-2010
-2205
-2234
-2091
-1920
-1840
-1783
-1572
-1123
-541
1
441
863
1342
1812
2091
2056
1747
1329
939
588
212
-202
-559
-737
-695
-493
-220
89
432
767
996
1048
962
862
840
873
871
797
707
679
727
803
871
947
1044
1105
1029
787
473
234
135
131
139
134
147
205
312
488
753
1080
1353
1450
1357
1195
1100
1101
1098
989
778
566
447
429
457
479
475
450
402
327
251
220
244
274
250
163
61
-23
-112
-240
-391
-504
-560
-621
-752
-938
-1098
-1178
-1202
-1217
-1223
-1175
-1072
-972
-911
-852
-735
-567
-426
-368
-367
-354
-310
-273
-274
-288
-275
-238
-213
-203
-181
-136
-107
-136
-199
-224
-169
-82
-43
-64
-70
18
193
365
455
472
484
554
663
735
720
641
569
552
560
527
435
334
293
338
423
492
535
588
687
800
837
747
610
599
825
1202
1514
1620
1593
1595
1657
1626
1332
794
208
-245
-535
-727
-859
-906
-835
-662
-434
-202
-10
87
69
-17
-77
-63
-13
4
-7
47
237
500
686
707
615
515
457
395
279
122
-27
-139
-218
-272
-319
-392
-517
-644
-657
-504
-284
-175
-230
-318
-272
-86
83
98
-4
-80
-49
37
87
86
97
167
262
322
334
342
379
422
435
414
407
450
520
577
621
689
793
892
941
930
891
853
832
847
901
955
956
902
859
879
923
899
792
688
681
756
817
815
789
797
845
903
964
1026
1051
983
824
649
523
431
313
154
-5
-124
-200
-259
-316
-394
-529
-714
-879
-940
-893
-834
-820
-784
-577
-129
464
1020
1438
1750
2038
2317
2497
2469
2212
1811
1375
958
544
128
-234
-440
-446
-295
-85
109
265
384
472
526
548
539
475
340
166
20
-29
23
130
227
265
227
129
3
-101
-152
-160
-164
-190
-217
-188
-75
95
262
373
409
384
320
243
168
89
-8
-105
-157
-128
-41
38
78
103
153
231
307
362
396
378
266
68
-121
-193
-146
-88
-119
-229
-308
-273
-144
-4
72
66
0
-83
-155
-211
-270
-329
-349
-301
-222
-178
-184
-174
-92
3
-1
-135
-298
-366
-335
-296
-310
-342
-330
-271
-207
-163
-118
-64
-30
-53
-134
-240
-310
-282
-130
104
318
448
538
701
964
1197
1205
926
493
111
-123
-268
-422
-610
-778
-868
-879
-846
-782
-677
-536
-405
-339
-340
-356
-334
-252
-131
-14
36
-28
-173
-281
-255
-129
-36
-50
-90
-15
187
372
403
300
188
142
113
32
-89
-163
-140
-48
43
99
141
223
362
522
622
606
489
343
223
131
28
-99
-227
-330
-404
-447
-431
-343
-220
-133
-120
-144
-149
-116
-74
-56
-72
-126
-238
-404
-549
-563
-422
-243
-198
-314
-431
-376
-164
20
21
-125
-259
-285
-237
-185
-143
-83
-16
23
42
116
308
566
737
699
491
306
321
498
611
465
129
-110
-42
240
459
459
347
312
390
468
474
466
516
583
572
494
469
567
715
772
682
511
358
255
160
29
-131
-273
-369
-456
-602
-806
-964
-990
-940
-983
-1189
-1407
-1410
-1156
-839
-662
-595
-423
-9
549
1029
1318
1483
1650
1856
2013
1998
1753
1323
831
407
104
-110
-301
-485
-609
-598
-430
-170
76
228
284
302
334
372
375
330
282
288
359
449
513
545
562
572
566
530
460
362
252
160
122
171
322
568
881
1201
1439
1532
1494
1388
1256
1050
702
233
-220
-515
-616
-586
-495
-357
-164
63
268
410
504
595
677
667
483
158
-141
-264
-233
-213
-308
-403
-276
158
744
1263
1633
1897
2061
2018
1667
1049
322
-391
-1059
-1662
-2107
-2279
-2163
-1867
-1538
-1259
-1035
-854
-734
-718
-819
-985
-1102
-1080
-947
-831
-810
-811
-697
-451
-234
-219
-401
-592
-624
-503
-386
-403
-550
-725
-822
-797
-674
-520
-400
-321
-224
-46
203
424
509
440
294
170
97
35
-59
-175
-255
-249
-168
-67
1
35
65
97
82
-35
-240
-451
-602
-711
-859
-1082
-1303
-1374
-1214
-879
-520
-244
-43
159
385
574
638
555
391
242
153
110
87
84
118
178
215
165
0
-246
-510
-762
-1025
-1331
-1628
-1761
-1573
-1063
-416
143
539
873
1261
1668
1922
1899
1656
1369
1166
1039
908
753
621
558
545
521
453
367
288
192
25
-214
-431
-515
-436
-277
-151
-86
-10
156
404
639
755
736
673
689
833
1019
1104
1023
881
838
938
1056
1060
955
848
777
636
308
-187
-700
-1075
-1246
-1231
-1066
-813
-541
-269
53
472
921
1232
1286
1137
938
784
642
434
146
-171
-459
-706
-928
-1131
-1297
-1417
-1522
-1660
-1846
-2028
-2105
-2009
-1770
-1483
-1217
-950
-612
-179
315
822
1305
1711
1969
2043
1960
1765
1454
1010
494
47
-253
-483
-745
-981
-1001
-757
-497
-528
-829
-1017
-766
-181
318
474
442
543
875
1232
1381
1303
1143
997
834
606
352
151
24
-79
-216
-383
-513
-530
-436
-323
-302
-389
-480
-473
-407
-430
-628
-920
-1165
-1343
-1537
-1760
-1866
-1707
-1333
-963
-755
-645
-477
-226
-55
-123
-401
-713
-903
-947
-923
-906
-912
-922
-912
-880
-845
-829
-850
-905
-981
-1060
-1124
-1150
-1137
-1120
-1141
-1196
-1243
-1261
-1277
-1324
-1389
-1410
-1344
-1224
-1122
-1063
-1017
-962
-930
-983
-1127
-1290
-1392
-1419
-1429
-1457
-1458
-1338
-1054
-683
-360
-163
-66
11
94
144
109
-14
-185
-350
-450
-431
-262
22
337
596
753
815
795
689
486
180
-221
-668
-1071
-1335
-1407
-1307
-1115
-921
-806
-802
-854
-844
-693
-469
-356
-468
-701
-794
-576
-126
299
510
527
520
619
802
946
957
853
727
657
640
629
612
621
676
733
737
692
678
758
898
986
952
842
748
705
663
572
465
416
425
388
220
3
-61
156
550
879
1008
1021
1077
1186
1180
924
495
118
-77
-169
-294
-447
-468
-232
183
554
733
758
772
847
938
967
923
866
852
881
938
1022
1135
1246
1296
1262
1192
1165
1215
1303
1362
1369
1360
1382
1432
1456
1410
1313
1233
1219
1246
1254
1212
1147
1108
1119
1178
1282
1426
1580
1692
1726
1693
1625
1531
1372
1106
750
386
103
-64
-154
-211
-250
-251
-209
-158
-132
-120
-80
6
94
133
147
239
503
914
1345
1676
1889
2039
2167
2241
2194
1993
1669
1286
893
514
160
-140
-356
-469
-481
-417
-302
-149
39
241
414
529
601
671
757
820
801
691
536
377
193
-68
-401
-722
-950
-1079
-1162
-1220
-1210
-1086
-886
-713
-632
-619
-604
-570
-569
-648
-768
-844
-831
-768
-719
-680
-600
-469
-363
-362
-444
-507
-495
-482
-572
-746
-859
-791
-594
-426
-375
-369
-280
-79
123
203
155
71
32
33
20
-26
-60
-40
19
67
71
53
45
42
9
-47
-72
-30
27
19
-61
-131
-132
-112
-160
-289
-447
-625
-893
-1255
-1540
-1518
-1174
-772
-596
-636
-615
-321
145
476
481
255
45
7
98
176
161
87
34
26
8
-83
-246
-400
-474
-466
-431
-408
-389
-334
-208
11
303
587
751
749
667
643
709
752
657
445
241
124
49
-44
-105
-8
301
721
1087
1338
1532
1731
1906
1969
1879
1685
1467
1279
1130
1021
944
871
780
696
670
708
739
696
591
500
456
408
313
223
239
371
511
563
551
576
677
780
793
702
566
430
299
169
45
-102
-352
-763
-1259
-1645
-1746
-1569
-1307
-1161
-1158
-1124
-864
-379
118
378
315
60
-181
-285
-265
-207
-184
-209
-242
-219
-117
24
126
149
119
95
89
70
24
-1
49
155
226
197
109
73
161
338
515
636
716
788
837
818
713
562
435
369
340
302
232
152
89
42
-24
-146
-319
-487
-598
-665
-736
-820
-866
-834
-785
-850
-1077
-1359
-1535
-1559
-1523
-1494
-1369
-968
-263
552
1255
1810
2328
2845
3212
3246
2941
2474
2023
1618
1195
731
290
-54
-279
-391
-395
-317
-230
-189
-162
-51
188
478
678
723
680
650
659
642
539
365
196
92
62
78
114
151
180
193
192
182
173
170
174
173
165
150
136
126
115
98
72
43
22
19
33
55
77
87
78
54
30
17
14
2
-27
-56
-67
-62
-54
-49
-43
-36
-47
-92
-154
-181
-133
-34
41
43
-2
-23
19
79
84
13
-75
-110
-82
-40
-20
-17
-9
-5
-25
-58
-61
-15
48
71
41
7
14
66
122
149
138
104
64
45
75
170
296
386
403
376
378
442
521
537
465
376
360
434
522
546
509
491
555
673
757
745
669
606
605
637
641
586
491
404
342
289
232
191
192
238
285
293
275
290
376
509
616
639
597
562
598
701
806
853
840
816
832
898
975
1027
1036
1016
998
1016
1089
1191
1262
1248
1154
1036
943
875
792
681
569
491
451
428
421
453
519
574
559
479
397
363
368
355
292
204
147
160
231
306
318
249
154
126
201
293
269
97
-79
-74
136
379
468
407
379
528
797
1005
1047
984
934
942
960
942
903
876
862
849
845
878
946
1001
1003
969
951
982
1035
1068
1069
1060
1057
1059
1059
1054
1044
1009
931
821
708
609
513
384
209
6
-190
-359
-521
-711
-926
-1112
-1220
-1276
-1377
-1591
-1847
-1981
-1893
-1671
-1484
-1389
-1247
-877
-264
408
941
1297
1574
1850
2076
2128
1932
1522
1002
478
10
-392
-738
-1012
-1153
-1097
-858
-541
-265
-46
183
437
632
677
592
492
456
443
385
314
330
453
563
534
386
255
223
242
219
155
133
189
274
326
368
457
589
676
646
533
439
425
457
461
408
332
276
255
250
240
221
198
183
179
172
151
120
103
130
194
243
221
124
1
-92
-147
-206
-303
-418
-494
-490
-409
-287
-148
7
170
297
330
247
96
-44
-153
-276
-446
-596
-607
-443
-216
-72
-36
-2
111
232
230
88
-58
-92
-42
-28
-95
-151
-99
20
66
-55
-291
-515
-638
-658
-622
-564
-491
-386
-229
-26
180
332
409
436
432
381
261
108
3
-10
34
67
71
84
134
197
230
231
225
211
157
58
-38
-75
-56
-34
-41
-53
-39
-17
-34
-93
-145
-142
-93
-54
-64
-101
-110
-60
21
77
68
12
-37
-61
-94
-178
-289
-333
-243
-71
65
101
100
156
268
326
249
89
-28
-51
-53
-122
-241
-309
-269
-175
-128
-151
-179
-145
-57
21
52
63
105
183
242
230
146
47
-1
10
23
-24
-131
-230
-255
-230
-257
-407
-631
-790
-786
-630
-412
-236
-173
-239
-399
-615
-879
-1217
-1640
-2096
-2480
-2714
-2795
-2730
-2442
-1782
-663
768
2121
2994
3277
3220
3128
2936
2193
584
-1566
-3425
-4403
-4669
-4850
-5248
-5513
-5095
-3897
-2386
-1111
-243
435
1227
2288
3549
4759
5612
5984
6089
6303
6735
7067
6876
6116
5197
4574
4321
4158
3826
3328
2800
2265
1591
691
-303
-1137
-1660
-1930
-2112
-2301
-2417
-2290
-1863
-1302
-895
-771
-775
-639
-274
149
414
532
712
1068
1442
1574
1401
1106
845
555
88
-524
-1058
-1373
-1588
-1941
-2491
-3037
-3344
-3362
-3189
-2888
-2424
-1785
-1072
-419
159
735
1296
1676
1709
1416
1006
691
527
454
418
430
515
652
790
889
928
884
734
480
148
-224
-589
-886
-1073
-1184
-1300
-1464
-1615
-1653
-1551
-1380
-1224
-1080
-905
-712
-567
-489
-398
-212
16
139
93
-16
-56
-68
-231
-626
-1100
-1415
-1498
-1491
-1547
-1656
-1688
-1582
-1416
-1303
-1266
-1232
-1131
-958
-751
-543
-329
-57
336
847
1352
1675
1721
1559
1350
1181
1008
738
362
-27
-323
-493
-571
-600
-600
-593
-614
-668
-708
-663
-521
-353
-248
-231
-261
-297
-326
-341
-319
-253
-197
-229
-349
-452
-426
-284
-149
-111
-121
-63
89
235
265
185
98
76
83
42
-60
-149
-132
13
212
367
436
446
442
427
360
213
8
-198
-353
-424
-393
-247
-11
248
467
622
726
778
755
654
501
337
185
48
-57
-114
-132
-148
-179
-203
-193
-172
-177
-203
-193
-119
-38
-34
-101
-136
-55
105
227
246
217
240
355
508
611
623
574
522
501
500
487
448
400
376
401
473
575
689
796
877
926
939
921
877
808
723
628
531
445
396
417
507
608
647
584
443
272
90
-102
-305
-496
-641
-730
-775
-788
-762
-707
-672
-721
-871
-1068
-1246
-1385
-1505
-1573
-1451
-1005
-277
490
1057
1407
1701
2018
2189
1974
1356
617
63
-260
-541
-928
-1348
-1615
-1655
-1565
-1480
-1441
-1411
-1375
-1341
-1291
-1181
-994
-787
-630
-532
-446
-332
-215
-144
-135
-173
-219
-221
-119
94
326
444
419
384
500
784
1074
1187
1081
860
638
447
250
15
-255
-511
-662
-611
-329
104
522
790
900
949
1024
1103
1107
1007
873
795
797
846
944
1119
1357
1567
1689
1811
2107
2624
3168
3476
3452
3219
2902
2465
1804
962
147
-457
-837
-1065
-1139
-970
-551
-46
315
434
398
360
366
347
241
87
-1
50
207
385
527
638
729
772
737
642
550
506
491
469
435
416
418
409
349
240
148
172
358
643
883
966
924
904
1003
1142
1135
908
591
390
370
403
349
221
148
219
381
529
615
668
729
791
812
760
639
488
350
237
133
27
-47
-44
35
134
213
323
554
909
1241
1371
1251
1000
781
645
505
247
-135
-524
-780
-879
-929
-1045
-1207
-1277
-1158
-919
-718
-604
-458
-139
314
695
829
733
568
472
442
392
262
76
-85
-149
-98
30
164
249
260
211
122
10
-115
-238
-333
-376
-361
-309
-254
-224
-218
-202
-136
-19
103
168
149
79
21
13
33
39
19
-5
-19
-27
-38
-48
-42
-34
-49
-87
-115
-104
-71
-51
-49
-30
20
70
87
87
120
194
250
216
111
36
62
150
194
133
2
-110
-153
-154
-176
-249
-345
-415
-444
-462
-511
-602
-715
-818
-913
-1026
-1152
-1273
-1399
-1553
-1710
-1762
-1606
-1270
-920
-667
-443
-87
441
978
1337
1500
1606
1746
1865
1852
1690
1462
1211
899
501
94
-199
-334
-383
-429
-466
-432
-305
-136
1
89
175
273
350
362
309
238
198
197
203
197
190
214
276
350
406
445
495
574
664
721
716
654
559
449
336
235
164
132
126
131
153
207
286
349
360
334
319
339
376
398
412
449
517
569
548
446
315
219
165
113
25
-80
-146
-133
-58
26
80
109
127
124
73
-33
-148
-221
-258
-311
-411
-511
-541
-492
-438
-447
-507
-547
-542
-539
-582
-657
-710
-732
-761
-826
-906
-970
-1036
-1139
-1260
-1311
-1221
-1017
-798
-635
-508
-349
-131
87
207
183
67
-40
-75
-57
-43
-46
-29
38
117
141
95
21
-52
-138
-252
-339
-306
-127
118
324
478
636
827
992
1040
959
821
714
670
671
692
721
750
767
756
715
652
578
508
456
422
391
357
341
380
480
588
630
578
481
410
381
349
274
180
118
103
96
51
-32
-124
-210
-292
-357
-377
-345
-292
-262
-259
-245
-190
-105
-46
-61
-138
-215
-227
-160
-67
-14
-3
24
111
226
287
263
201
165
154
112
23
-54
-49
30
111
151
180
253
366
466
517
546
600
671
700
664
614
633
740
859
899
840
762
754
827
903
902
808
685
605
591
617
643
656
661
665
676
701
735
742
673
531
395
345
358
320
170
-5
-74
-31
-22
-167
-400
-541
-503
-379
-305
-283
-181
99
513
940
1311
1630
1922
2178
2360
2419
2313
2033
1639
1243
928
684
448
201
14
-42
21
124
219
334
508
706
833
830
741
672
683
728
722
629
505
441
465
529
566
563
561
589
627
637
609
566
536
515
485
446
418
405
381
310
214
158
193
296
373
352
263
199
209
239
189
44
-112
-195
-221
-287
-430
-559
-550
-385
-166
-10
61
102
168
266
368
450
485
448
348
251
226
280
337
322
237
150
112
119
129
123
114
110
92
35
-54
-123
-118
-37
67
123
109
71
74
134
206
225
171
81
6
-23
-17
1
15
20
28
59
122
200
264
295
289
256
201
131
60
10
5
53
133
204
229
211
212
298
450
567
560
450
344
312
327
335
341
385
448
452
374
316
394
582
709
644
447
303
315
418
464
400
287
216
213
238
236
186
109
52
45
70
75
24
-53
-84
-38
49
121
173
236
316
378
395
386
374
338
239
102
2
-26
-51
-153
-305
-370
-274
-120
-73
-175
-290
-269
-121
20
53
5
-30
-3
62
116
145
159
162
149
118
88
90
136
204
256
282
313
385
490
578
608
596
592
620
666
695
691
661
633
641
687
731
729
685
655
673
699
675
608
573
615
686
703
667
658
712
768
740
622
482
365
248
94
-81
-227
-339
-468
-645
-819
-911
-917
-946
-1118
-1421
-1690
-1743
-1561
-1298
-1108
-967
-706
-201
467
1094
1546
1845
2085
2274
2330
2190
1886
1515
1150
808
480
174
-77
-228
-246
-132
56
228
332
394
473
580
654
629
511
386
326
326
323
288
261
297
398
502
550
542
528
549
597
630
615
564
512
477
444
397
344
322
357
433
495
508
494
515
603
711
740
636
455
320
298
331
297
152
-4
-29
96
232
233
97
-35
-41
52
112
58
-67
-152
-140
-73
-32
-51
-90
-102
-82
-69
-99
-169
-249
-327
-420
-534
-629
-646
-573
-467
-393
-357
-305
-198
-68
12
-12
-116
-221
-258
-230
-211
-271
-402
-533
-613
-680
-796
-928
-940
-737
-386
-63
132
275
493
785
989
960
712
388
113
-84
-229
-320
-343
-323
-311
-311
-256
-92
123
257
256
220
305
536
756
794
647
464
360
280
99
-177
-373
-301
51
529
960
1266
1454
1519
1420
1128
672
138
-385
-842
-1196
-1396
-1389
-1189
-917
-751
-782
-928
-1025
-1007
-973
-1047
-1194
-1218
-968
-506
-44
273
460
592
677
663
533
350
191
79
-2
-57
-91
-145
-280
-501
-738
-909
-998
-1058
-1113
-1124
-1039
-854
-615
-364
-124
76
202
253
275
310
321
212
-81
-517
-971
-1313
-1471
-1444
-1297
-1123
-967
-765
-399
153
743
1155
1302
1286
1284
1356
1420
1381
1254
1142
1095
1043
888
638
402
240
74
-234
-684
-1092
-1249
-1137
-938
-805
-699
-462
-42
408
679
705
572
377
99
-341
-940
-1564
-2016
-2157
-1951
-1466
-819
-134
521
1155
1777
2288
2481
2222
1641
1089
865
954
1068
968
729
635
836
1146
1233
974
569
316
283
276
107
-198
-487
-710
-953
-1231
-1365
-1166
-706
-299
-152
-116
125
640
1108
1150
738
213
-64
-24
148
276
347
453
655
926
1170
1262
1126
805
446
173
-1
-137
-235
-196
35
326
455
343
123
-53
-210
-503
-965
-1397
-1546
-1364
-1030
-721
-437
-71
411
914
1310
1542
1597
1458
1139
754
475
378
378
340
251
244
431
717
861
698
331
36
-5
125
179
9
-260
-346
-104
283
429
90
-618
-1310
-1659
-1633
-1425
-1214
-1010
-715
-288
209
671
1034
1271
1351
1242
970
642
386
266
254
262
226
160
121
143
190
186
90
-59
-187
-265
-322
-389
-448
-456
-414
-378
-404
-498
-619
-721
-778
-767
-675
-536
-433
-436
-510
-539
-443
-284
-202
-260
-376
-433
-413
-406
-495
-683
-916
-1124
-1232
-1180
-989
-792
-714
-725
-672
-473
-235
-142
-248
-441
-594
-684
-726
-693
-548
-358
-258
-297
-362
-324
-199
-136
-241
-464
-663
-741
-706
-628
-569
-551
-565
-592
-630
-681
-709
-637
-431
-160
56
192
344
606
925
1149
1193
1101
960
804
632
489
461
569
742
898
1045
1239
1481
1681
1748
1685
1566
1448
1333
1224
1141
1116
1158
1245
1333
1378
1373
1365
1421
1522
1531
1347
1088
1073
1524
2283
2909
3100
2948
2751
2617
2358
1751
830
-146
-934
-1447
-1694
-1698
-1529
-1324
-1181
-1043
-782
-387
-17
190
307
539
965
1461
1852
2104
2311
2532
2696
2669
2396
1938
1420
960
617
384
219
85
-4
-7
84
211
309
387
507
696
907
1064
1122
1079
941
743
563
475
466
437
340
290
483
972
1565
1979
2080
1948
1724
1438
1026
454
-195
-781
-1208
-1449
-1516
-1428
-1222
-964
-734
-577
-475
-384
-297
-249
-270
-331
-353
-278
-126
18
81
56
-5
-49
-65
-73
-92
-102
-57
61
197
247
157
-24
-199
-321
-420
-535
-640
-670
-607
-507
-441
-431
-447
-444
-400
-327
-261
-244
-287
-352
-385
-371
-351
-381
-469
-552
-553
-463
-355
-310
-333
-348
-298
-219
-196
-257
-346
-401
-426
-445
-413
-224
155
600
922
1035
994
884
709
420
16
-428
-825
-1134
-1334
-1383
-1245
-952
-606
-312
-102
62
209
315
331
241
89
-52
-135
-163
-159
-132
-67
18
72
59
22
46
155
275
310
258
206
225
272
254
145
20
-38
-23
10
31
61
108
131
84
2
-20
65
178
186
44
-152
-267
-269
-260
-356
-556
-754
-864
-910
-963
-1028
-1017
-852
-574
-298
-93
70
256
463
611
642
574
471
368
271
168
34
-167
-444
-721
-853
-749
-479
-227
-130
-170
-227
-205
-93
84
302
531
725
867
996
1171
1393
1577
1638
1567
1428
1289
1180
1122
1122
1150
1148
1068
930
804
742
719
668
538
337
116
-45
-72
55
284
503
601
518
284
-3
-242
-420
-610
-881
-1222
-1546
-1798
-2002
-2191
-2300
-2212
-1901
-1494
-1124
-772
-303
328
978
1439
1654
1750
1862
1995
2046
1938
1686
1350
987
654
396
222
78
-89
-266
-381
-382
-294
-198
-152
-161
-193
-207
-176
-110
-47
-24
-23
11
103
195
190
59
-108
-192
-178
-165
-247
-401
-520
-545
-538
-612
-809
-1046
-1206
-1242
-1197
-1132
-1053
-923
-714
-453
-192
40
244
409
510
553
615
792
1101
1433
1632
1636
1514
1368
1210
955
531
-1
-475
-746
-804
-749
-684
-616
-494
-300
-102
6
-6
-79
-126
-120
-91
-68
-43
8
87
160
196
181
118
17
-97
-190
-240
-257
-258
-248
-225
-216
-264
-386
-528
-604
-573
-471
-357
-250
-130
16
159
270
342
376
357
280
195
176
245
336
368
341
324
354
388
364
283
210
187
187
161
112
91
133
210
259
244
193
167
207
291
355
348
292
256
278
321
308
216
103
41
43
58
51
53
106
212
311
351
328
284
254
240
227
216
223
259
317
368
389
378
354
345
355
371
365
326
265
208
174
154
118
52
-25
-77
-84
-75
-86
-128
-161
-145
-93
-59
-75
-110
-96
-18
63
73
22
-7
56
180
268
267
225
229
314
425
480
454
393
372
430
544
652
698
680
647
629
621
604
591
607
643
644
581
510
529
648
763
767
676
603
609
634
587
478
406
426
490
512
471
415
372
313
201
46
-95
-193
-279
-393
-521
-595
-576
-508
-484
-557
-684
-775
-773
-705
-634
-577
-481
-277
58
476
888
1229
1494
1706
1856
1878
1706
1353
935
578
318
90
-160
-393
-508
-456
-306
-168
-90
-30
64
178
253
268
275
330
415
448
387
294
272
340
401
351
207
89
84
171
261
301
307
313
325
328
323
317
316
320
319
304
267
213
161
140
147
139
78
-38
-164
-239
-240
-203
-188
-235
-322
-367
-312
-186
-87
-83
-131
-138
-75
-8
-12
-79
-135
-126
-68
-6
36
54
51
25
-21
-86
-192
-361
-566
-729
-787
-755
-702
-669
-623
-498
-273
-10
192
275
258
214
209
252
289
262
175
88
59
87
120
113
76
50
49
55
44
15
-8
-11
-12
-43
-120
-217
-283
-293
-267
-244
-245
-243
-204
-131
-67
-49
-63
-68
-50
-33
-48
-86
-111
-107
-107
-147
-220
-266
-238
-159
-101
-106
-143
-132
-39
80
132
83
0
-28
9
24
-57
-204
-303
-279
-172
-94
-112
-188
-235
-205
-130
-72
-73
-135
-227
-297
-314
-288
-260
-266
-305
-340
-342
-320
-294
-266
-228
-193
-208
-301
-435
-528
-534
-495
-490
-543
-595
-576
-482
-378
-326
-324
-327
-306
-273
-252
-257
-282
-317
-346
-341
-293
-221
-164
-135
-108
-48
53
169
277
370
440
472
464
441
433
432
392
289
161
77
79
146
236
320
393
457
519
583
639
658
615
522
422
353
303
241
162
83
14
-56
-131
-207
-285
-382
-504
-617
-687
-731
-811
-936
-1020
-964
-767
-539
-365
-199
88
546
1085
1561
1913
2161
2330
2384
2282
2054
1787
1537
1284
984
656
386
252
259
355
476
576
625
632
645
712
821
889
836
677
514
434
432
437
399
348
337
376
428
452
454
464
499
542
561
541
502
480
509
595
711
816
877
887
871
857
856
857
849
841
846
865
884
883
860
813
734
621
490
372
276
185
85
14
33
161
341
483
538
525
492
449
352
153
-131
-402
-574
-663
-771
-964
-1153
-1171
-951
-628
-405
-329
-248
-5
350
581
515
229
-57
-220
-342
-561
-884
-1186
-1355
-1381
-1312
-1176
-993
-820
-691
-537
-220
280
766
986
893
690
582
532
324
-157
-762
-1233
-1453
-1497
-1473
-1384
-1178
-872
-572
-369
-266
-214
-200
-238
-336
-466
-589
-687
-751
-782
-781
-751
-709
-659
-600
-540
-500
-509
-567
-645
-698
-701
-664
-608
-550
-482
-370
-182
97
454
840
1190
1439
1555
1535
1399
1170
857
473
39
-396
-764
-1009
-1112
-1096
-1001
-858
-686
-514
-363
-241
-137
-47
11
25
19
35
79
115
122
132
187
250
211
10
-275
-510
-649
-749
-848
-876
-741
-474
-225
-88
19
254
643
1018
1188
1119
940
778
633
430
151
-128
-324
-429
-486
-525
-533
-494
-430
-386
-385
-413
-436
-432
-403
-362
-334
-331
-344
-343
-309
-245
-159
-53
65
169
219
196
101
-64
-289
-518
-661
-679
-653
-727
-945
-1175
-1218
-1014
-701
-470
-367
-282
-103
150
355
424
380
303
241
184
120
84
144
335
644
1006
1352
1636
1852
2039
2208
2277
2082
1533
780
142
-151
-155
-127
-219
-326
-242
58
368
474
375
240
190
184
108
-55
-190
-165
57
407
773
1076
1290
1433
1536
1610
1629
1569
1451
1329
1251
1214
1190
1155
1101
1022
891
713
540
436
419
446
465
460
442
410
340
224
96
-10
-103
-223
-360
-438
-388
-229
-66
23
62
132
247
331
306
184
53
-29
-91
-185
-317
-446
-556
-678
-828
-957
-994
-930
-834
-777
-756
-712
-615
-503
-431
-399
-358
-294
-270
-368
-595
-865
-1077
-1232
-1460
-1862
-2348
-2630
-2481
-1988
-1507
-1312
-1336
-1317
-1170
-1087
-1242
-1497
-1540
-1296
-1015
-898
-764
-252
657
1498
1787
1534
1183
1078
1138
1071
779
440
252
235
307
442
644
825
843
672
452
350
399
530
706
938
1183
1312
1257
1138
1161
1367
1547
1458
1096
683
406
216
-63
-499
-956
-1259
-1359
-1333
-1241
-1067
-791
-472
-223
-95
-48
-4
59
103
88
21
-27
26
220
509
793
984
1069
1088
1065
967
758
481
246
125
85
48
12
60
251
532
796
990
1147
1296
1390
1342
1127
816
514
278
85
-109
-304
-446
-482
-411
-298
-198
-100
48
255
451
569
621
684
799
921
972
941
889
864
862
851
818
778
745
724
724
755
797
808
768
712
697
730
760
741
690
659
673
697
677
600
496
399
320
254
190
103
-36
-222
-395
-497
-564
-705
-982
-1305
-1489
-1433
-1238
-1092
-1061
-1009
-742
-217
402
898
1186
1346
1488
1622
1653
1491
1151
737
355
38
-228
-446
-592
-629
-551
-381
-164
49
217
334
428
513
560
512
363
190
92
93
108
54
-49
-105
-63
19
29
-63
-169
-207
-192
-200
-260
-328
-352
-336
-316
-312
-313
-310
-302
-308
-375
-558
-843
-1110
-1195
-1070
-867
-725
-618
-405
-46
315
508
516
436
313
122
-99
-187
-26
281
514
592
660
876
1180
1349
1245
951
645
413
232
76
-28
-49
-6
44
52
15
-25
-18
43
97
75
-15
-79
-59
-18
-91
-300
-501
-537
-426
-331
-345
-368
-246
14
230
259
138
16
-26
-41
-108
-221
-314
-331
-266
-152
-48
-15
-70
-137
-120
-33
-8
-149
-393
-578
-670
-814
-1136
-1504
-1615
-1337
-893
-640
-674
-727
-489
33
519
657
431
88
-119
-115
1
86
61
-43
-138
-161
-126
-112
-172
-278
-370
-425
-485
-598
-728
-773
-665
-456
-283
-248
-319
-377
-350
-288
-290
-366
-429
-435
-465
-623
-861
-984
-866
-615
-461
-495
-569
-488
-247
-27
18
-79
-163
-145
-79
-67
-132
-214
-261
-287
-338
-422
-493
-509
-472
-419
-375
-347
-348
-400
-493
-566
-557
-474
-392
-380
-410
-381
-216
70
382
625
757
807
845
938
1083
1199
1201
1092
976
976
1118
1323
1489
1577
1601
1575
1481
1306
1089
919
865
905
942
897
803
792
951
1205
1366
1305
1075
841
705
603
409
108
-175
-321
-361
-443
-636
-838
-890
-776
-635
-579
-549
-384
-38
349
620
776
962
1263
1595
1805
1838
1775
1702
1613
1453
1213
936
658
389
154
26
59
209
361
439
464
496
542
555
501
398
298
225
183
182
236
331
417
442
387
277
153
50
-2
4
50
106
157
223
325
445
524
518
437
339
275
257
256
239
191
118
38
-23
-53
-45
-13
27
69
113
159
200
236
277
321
346
323
256
193
198
290
421
523
576
604
638
669
656
579
468
375
324
300
286
286
301
301
233
93
-58
-162
-225
-305
-418
-508
-516
-473
-462
-501
-518
-447
-332
-272
-298
-330
-280
-170
-88
-72
-71
-27
48
84
47
-22
-60
-43
1
31
35
25
16
18
34
63
99
128
135
125
118
141
189
208
150
34
-57
-56
3
18
-66
-185
-223
-165
-109
-149
-246
-278
-182
-22
99
171
282
495
756
934
947
824
659
528
431
323
180
45
3
108
312
519
664
752
802
800
715
572
445
377
337
268
171
102
98
138
199
288
408
502
492
375
238
160
126
61
-68
-210
-304
-340
-339
-296
-189
-30
126
229
290
354
421
444
389
288
213
209
261
327
391
457
533
607
660
688
703
716
729
737
741
750
777
820
860
883
894
912
944
968
958
923
901
910
919
871
766
671
658
721
776
742
632
530
490
479
418
280
126
36
8
-47
-193
-375
-479
-472
-461
-581
-822
-1021
-1028
-863
-686
-605
-549
-344
101
692
1227
1572
1762
1929
2147
2339
2358
2126
1717
1279
903
583
283
10
-188
-287
-296
-232
-103
65
224
332
398
441
443
360
194
31
-41
-25
-3
-26
-62
-54
0
45
49
40
55
83
83
42
-3
-13
3
9
-1
-7
3
4
-22
-50
-36
23
72
56
-14
-76
-87
-65
-55
-86
-154
-235
-309
-361
-382
-390
-407
-442
-461
-417
-305
-183
-129
-151
-182
-163
-124
-172
-358
-594
-725
-688
-572
-509
-519
-516
-439
-314
-212
-164
-182
-320
-615
-957
-1110
-922
-522
-210
-141
-161
-14
345
686
764
564
275
59
-73
-177
-250
-230
-102
48
115
94
75
129
209
192
10
-261
-483
-584
-595
-596
-612
-609
-576
-546
-559
-609
-642
-615
-530
-428
-343
-282
-230
-182
-154
-164
-208
-244
-233
-187
-172
-222
-282
-254
-118
35
99
76
72
151
242
233
108
-16
-36
20
43
-20
-103
-102
4
141
224
238
228
234
258
275
254
185
77
-30
-98
-113
-93
-58
-17
33
89
147
201
234
218
138
19
-87
-159
-222
-299
-356
-328
-195
-31
66
82
102
207
366
464
418
269
149
143
213
257
230
176
159
182
214
269
396
582
724
731
654
632
712
754
576
157
-323
-657
-762
-703
-585
-459
-299
-49
308
687
953
1034
997
953
902
745
473
262
315
624
955
1106
1122
1198
1418
1645
1680
1476
1172
931
801
726
643
559
530
583
665
683
600
499
528
757
1104
1418
1623
1762
1914
2094
2239
2264
2117
1786
1313
786
321
-1
-178
-265
-290
-231
-68
141
281
269
142
12
-56
-116
-276
-554
-834
-974
-935
-790
-634
-510
-411
-323
-227
-92
91
263
342
327
315
396
541
640
632
551
434
239
-91
-508
-875
-1118
-1295
-1480
-1626
-1587
-1297
-850
-405
-48
230
460
638
743
755
660
478
297
235
333
497
582
535
421
323
233
83
-140
-374
-551
-661
-740
-803
-820
-762
-646
-518
-432
-416
-455
-507
-520
-475
-398
-336
-304
-257
-142
40
217
290
219
56
-94
-170
-209
-295
-460
-636
-714
-643
-465
-262
-79
90
270
470
676
860
991
1043
1021
961
902
861
837
824
818
822
836
861
895
922
913
860
782
702
614
483
301
110
-36
-126
-184
-234
-272
-300
-328
-360
-353
-254
-72
99
159
72
-113
-317
-487
-607
-682
-714
-699
-628
-494
-301
-65
183
394
500
460
299
100
-57
-162
-254
-357
-434
-437
-359
-250
-181
-178
-220
-258
-274
-303
-398
-570
-759
-884
-930
-955
-997
-1007
-914
-710
-463
-234
-18
189
320
271
21
-318
-606
-809
-981
-1152
-1273
-1277
-1172
-1045
-970
-941
-899
-809
-692
-598
-555
-533
-482
-387
-295
-260
-271
-254
-166
-53
8
11
35
158
345
478
498
445
383
304
162
-17
-135
-137
-103
-173
-394
-663
-833
-850
-754
-604
-426
-222
9
277
588
909
1147
1198
1015
648
218
-137
-337
-403
-444
-559
-716
-766
-596
-273
6
95
46
36
194
496
837
1137
1372
1543
1658
1720
1702
1519
1091
442
-262
-829
-1195
-1426
-1562
-1516
-1170
-550
156
755
1205
1575
1887
2068
2035
1800
1457
1103
811
653
684
876
1105
1240
1276
1319
1453
1622
1687
1572
1345
1154
1086
1098
1079
963
780
621
541
523
502
428
303
179
121
155
248
313
279
167
88
146
328
500
531
410
259
200
242
280
218
62
-103
-204
-235
-233
-224
-200
-150
-85
-29
-1
-2
-21
-41
-46
-37
-19
5
41
97
158
208
238
245
213
110
-75
-300
-484
-573
-574
-528
-459
-363
-245
-145
-108
-134
-169
-159
-102
-45
-22
-10
50
178
324
413
412
355
295
252
217
179
144
121
108
113
154
234
304
301
207
78
-17
-65
-100
-150
-198
-212
-192
-177
-195
-228
-238
-217
-202
-213
-217
-148
11
195
309
317
259
200
166
134
81
3
-90
-181
-250
-265
-218
-138
-77
-71
-120
-194
-257
-291
-299
-296
-290
-265
-198
-80
58
168
222
233
212
156
64
-40
-129
-199
-270
-343
-383
-369
-333
-346
-432
-533
-567
-516
-437
-395
-398
-407
-393
-359
-326
-307
-313
-355
-426
-488
-500
-459
-400
-356
-323
-279
-224
-185
-174
-162
-114
-45
-7
-22
-54
-48
3
53
58
23
-15
-34
-41
-45
-38
-17
14
41
61
69
48
-5
-53
-35
81
259
415
484
466
401
323
230
81
-165
-497
-828
-1040
-1096
-1080
-1109
-1199
-1251
-1191
-1087
-1082
-1212
-1343
-1314
-1122
-913
-799
-723
-517
-107
419
884
1185
1346
1460
1585
1695
1711
1561
1267
939
685
510
321
48
-241
-378
-276
-30
179
279
355
507
712
856
868
794
713
645
563
462
373
300
210
92
0
0
85
180
238
285
369
472
537
543
529
532
535
497
418
339
300
303
313
306
283
256
238
231
222
184
103
3
-68
-91
-95
-120
-161
-168
-114
-41
-23
-71
-111
-60
69
177
184
112
54
57
69
4
-151
-322
-436
-503
-575
-668
-732
-725
-686
-689
-738
-732
-564
-259
32
177
181
158
177
192
94
-157
-497
-824
-1081
-1265
-1389
-1441
-1398
-1254
-1033
-783
-553
-369
-239
-154
-107
-110
-176
-302
-449
-562
-602
-572
-508
-450
-418
-405
-389
-354
-288
-192
-101
-67
-121
-234
-327
-333
-250
-141
-66
-34
-13
28
90
148
185
202
215
235
260
278
273
246
213
198
204
203
145
-8
-229
-431
-530
-523
-483
-477
-487
-434
-279
-68
127
286
445
605
711
709
634
585
606
636
587
459
344
322
378
425
399
314
221
150
88
10
-86
-179
-248
-291
-320
-342
-339
-292
-208
-120
-58
-17
26
82
127
143
149
177
226
268
286
291
294
274
220
174
199
299
384
370
295
292
442
681
886
1005
1079
1140
1150
1082
993
975
1016
984
785
498
312
320
420
441
320
147
35
3
-3
-10
4
57
111
108
36
-50
-90
-76
-63
-122
-278
-473
-621
-693
-741
-841
-994
-1117
-1139
-1078
-1009
-936
-771
-425
84
637
1143
1605
2061
2480
2764
2820
2631
2257
1777
1260
759
298
-126
-504
-787
-893
-779
-510
-222
-24
79
153
237
308
323
274
201
144
116
104
104
129
175
228
278
329
388
440
460
444
420
421
453
491
493
429
308
179
119
165
268
322
248
80
-75
-129
-95
-42
-21
-30
-46
-64
-82
-71
-4
107
204
237
219
211
255
333
391
396
368
337
311
280
241
201
168
139
114
109
127
144
131
98
101
173
265
284
192
63
3
30
56
-10
-160
-297
-343
-308
-256
-237
-245
-251
-248
-240
-226
-198
-159
-138
-166
-233
-287
-274
-187
-68
18
44
20
-16
-33
-16
20
44
24
-48
-141
-200
-189
-119
-35
28
67
98
131
161
190
231
280
313
295
226
153
131
159
184
151
80
47
104
219
314
343
347
395
502
602
622
548
445
371
329
291
247
225
253
311
353
360
357
378
416
434
410
362
323
310
307
291
248
191
167
211
305
370
332
208
93
72
132
173
110
-48
-221
-340
-387
-390
-377
-359
-323
-240
-85
122
316
426
428
352
238
97
-79
-278
-465
-601
-668
-663
-586
-446
-274
-115
12
121
237
356
437
443
383
311
286
315
357
367
341
317
329
364
381
353
303
283
317
370
390
359
311
298
338
403
457
476
455
408
362
336
318
256
106
-114
-322
-453
-539
-668
-867
-1060
-1159
-1178
-1225
-1363
-1514
-1533
-1366
-1110
-885
-697
-428
25
631
1246
1738
2067
2272
2390
2405
2281
2004
1610
1176
783
479
260
81
-88
-223
-264
-183
-40
65
92
97
166
325
509
627
649
615
586
604
663
724
742
701
627
564
529
510
497
493
493
461
366
234
140
136
194
230
192
101
8
-57
-102
-143
-190
-247
-325
-426
-530
-605
-639
-648
-661
-688
-703
-662
-558
-435
-338
-274
-209
-132
-77
-94
-176
-252
-266
-232
-205
-209
-216
-191
-142
-103
-91
-100
-120
-154
-200
-246
-280
-306
-326
-317
-252
-153
-88
-103
-169
-210
-190
-159
-194
-304
-415
-450
-403
-335
-297
-289
-264
-201
-119
-53
-16
-2
-9
-50
-132
-223
-267
-240
-190
-182
-230
-267
-211
-67
72
116
74
33
57
116
132
79
17
22
100
186
229
238
255
295
327
317
270
219
185
158
129
105
99
104
105
88
63
44
36
39
51
70
88
91
83
80
99
134
155
145
104
53
8
-25
-42
-38
-19
5
20
29
41
54
57
44
10
-37
-76
-87
-72
-74
-133
-234
-300
-272
-195
-180
-280
-421
-493
-486
-496
-601
-761
-867
-867
-790
-680
-522
-297
-30
213
401
564
721
820
787
604
349
130
-4
-79
-141
-191
-186
-78
126
361
556
702
847
1030
1218
1336
1348
1298
1252
1225
1174
1062
915
789
714
672
631
579
516
434
320
187
62
-43
-139
-245
-345
-386
-328
-188
-53
-15
-84
-183
-229
-239
-338
-621
-1018
-1330
-1398
-1250
-1028
-823
-582
-197
341
924
1432
1826
2133
2375
2524
2532
2380
2103
1776
1468
1198
948
701
477
329
296
355
425
418
288
66
-152
-270
-276
-262
-322
-435
-471
-319
-15
302
519
640
727
807
853
837
764
663
553
454
390
378
394
394
351
288
249
246
260
260
238
200
149
81
-12
-121
-219
-272
-278
-273
-295
-338
-354
-307
-225
-177
-208
-287
-344
-345
-313
-294
-300
-306
-282
-226
-163
-118
-98
-92
-78
-51
-28
-32
-60
-84
-81
-69
-92
-166
-249
-283
-262
-239
-257
-297
-296
-232
-153
-122
-148
-182
-179
-145
-118
-117
-133
-158
-195
-243
-279
-274
-230
-178
-150
-144
-139
-116
-75
-24
19
38
24
-13
-47
-54
-25
24
68
88
82
71
84
121
149
135
90
65
102
191
290
369
424
468
520
611
760
944
1094
1152
1127
1075
1030
973
879
753
618
468
273
27
-234
-466
-679
-910
-1164
-1394
-1532
-1555
-1493
-1389
-1259
-1094
-903
-724
-604
-542
-498
-426
-342
-306
-324
-316
-201
-20
79
7
-152
-248
-265
-327
-469
-474
-44
839
1807
2415
2538
2404
2244
2010
1457
487
-689
-1723
-2401
-2725
-2785
-2631
-2286
-1811
-1311
-874
-532
-292
-160
-134
-170
-202
-179
-86
71
272
491
684
802
827
780
707
647
626
649
709
787
852
870
836
777
733
721
727
731
733
743
750
720
651
609
682
878
1094
1207
1178
1072
952
815
603
278
-118
-493
-770
-927
-1001
-1050
-1087
-1066
-920
-650
-343
-80
151
447
875
1377
1833
2180
2451
2696
2880
2901
2689
2281
1793
1330
924
561
233
-19
-138
-100
48
213
326
389
460
564
657
670
590
487
447
480
518
490
399
310
273
270
248
182
106
60
40
14
-34
-69
-45
32
102
104
34
-59
-134
-187
-238
-290
-329
-356
-395
-458
-511
-502
-414
-304
-247
-273
-344
-389
-379
-346
-352
-423
-519
-567
-527
-429
-331
-249
-137
32
202
275
214
87
-18
-90
-194
-377
-587
-723
-738
-680
-624
-589
-532
-412
-258
-142
-103
-101
-51
77
226
306
299
273
294
330
278
85
-177
-375
-444
-432
-415
-402
-341
-208
-53
56
107
145
188
206
151
33
-87
-134
-69
100
350
652
968
1238
1396
1404
1290
1134
992
833
578
233
-65
-158
-44
102
106
-41
-216
-339
-457
-651
-914
-1160
-1328
-1422
-1453
-1391
-1216
-974
-754
-600
-480
-362
-258
-207
-199
-187
-154
-136
-176
-254
-300
-282
-252
-278
-357
-404
-339
-177
-21
35
-10
-79
-111
-100
-89
-102
-120
-108
-48
46
136
195
218
222
214
192
144
76
8
-41
-67
-77
-70
-41
3
46
77
100
117
129
123
91
38
-34
-120
-202
-250
-241
-183
-103
-20
76
208
378
549
671
710
684
642
635
679
739
769
759
752
802
914
1026
1072
1048
1002
972
935
860
766
710
701
674
570
410
269
165
34
-169
-376
-452
-355
-187
-89
-93
-109
-34
125
253
217
5
-260
-457
-571
-695
-909
-1188
-1431
-1557
-1530
-1342
-1016
-624
-224
272
1077
2277
3606
4605
5070
5261
5560
5952
5967
5176
3694
2094
847
-45
-861
-1745
-2541
-2999
-3043
-2786
-2364
-1834
-1229
-635
-144
217
520
850
1215
1532
1707
1716
1598
1415
1217
1019
791
476
56
-387
-714
-855
-881
-917
-968
-885
-534
-3
435
579
499
410
399
316
-15
-530
-947
-1065
-972
-911
-981
-1046
-944
-701
-498
-457
-534
-619
-674
-707
-698
-584
-357
-126
-21
-50
-91
-47
32
-3
-226
-533
-712
-627
-339
-54
48
-39
-175
-235
-234
-299
-489
-666
-610
-275
115
299
252
181
244
337
220
-155
-548
-663
-455
-150
19
71
266
859
1832
2833
3385
3226
2508
1648
948
348
-417
-1447
-2497
-3185
-3334
-3060
-2596
-2094
-1578
-1054
-611
-363
-303
-282
-154
36
72
-186
-553
-631
-237
402
980
1529
2381
3622
4780
5229
4887
4314
4048
3981
3519
2304
626
-884
-1790
-2007
-1717
-1146
-522
-83
46
-66
-223
-307
-423
-783
-1477
-2267
-2573
-1836
38
2496
4678
5975
6314
5977
5243
4208
2888
1310
-451
-2218
-3664
-4402
-4244
-3408
-2369
-1510
-915
-513
-283
-268
-474
-743
-921
-982
-963
-861
-648
-359
-94
114
367
781
1292
1637
1637
1461
1524
2063
2825
3198
2731
1535
196
-718
-1047
-1023
-977
-1048
-1158
-1111
-731
24
986
1786
2108
1966
1725
1731
1970
2101
1838
1258
674
329
295
590
1251
2204
3159
3747
3810
3487
2966
2259
1283
83
-1102
-2033
-2651
-2999
-3038
-2655
-1878
-975
-278
121
377
626
741
468
-198
-886
-1152
-895
-383
90
504
1030
1682
2184
2244
1887
1439
1181
1098
990
770
546
447
459
483
493
549
677
796
825
812
832
816
603
177
-243
-410
-326
-222
-265
-402
-490
-491
-425
-205
335
1159
1872
2014
1513
789
321
184
43
-397
-1052
-1544
-1584
-1208
-670
-215
63
161
120
5
-100
-135
-136
-182
-301
-418
-437
-322
-155
-37
6
32
98
190
239
196
110
96
229
443
551
405
45
-321
-495
-484
-457
-535
-638
-576
-254
189
501
501
220
-162
-461
-595
-604
-557
-479
-327
-69
246
490
565
469
272
24
-288
-669
-1052
-1330
-1432
-1370
-1206
-1014
-851
-745
-672
-573
-445
-363
-411
-549
-600
-415
-31
354
570
599
526
407
230
-24
-319
-583
-771
-885
-947
-950
-880
-749
-595
-447
-305
-156
-10
95
133
102
22
-74
-147
-155
-71
92
271
396
420
343
200
39
-93
-179
-242
-319
-416
-482
-468
-376
-264
-187
-147
-106
-50
-2
3
-37
-98
-159
-218
-278
-315
-296
-220
-147
-156
-259
-367
-373
-268
-160
-157
-249
-336
-334
-271
-230
-263
-354
-445
-494
-479
-413
-348
-346
-423
-511
-524
-449
-352
-305
-321
-362
-378
-340
-247
-139
-72
-61
-31
125
413
697
821
771
672
630
613
530
382
270
253
272
244
198
240
388
519
511
412
384
495
620
588
403
240
226
302
312
200
52
-23
-21
-19
-62
-129
-189
-244
-316
-387
-410
-387
-388
-485
-648
-762
-742
-642
-628
-811
-1114
-1331
-1330
-1178
-1047
-1004
-912
-568
62
787
1363
1705
1917
2124
2307
2320
2059
1611
1177
885
699
490
192
-139
-391
-502
-496
-463
-498
-637
-802
-846
-678
-372
-113
-30
-92
-161
-133
-8
144
254
309
368
519
757
942
933
813
877
1313
1917
2228
2004
1490
1140
1114
1102
702
-132
-1075
-1770
-2108
-2179
-2091
-1907
-1673
-1419
-1113
-698
-173
367
784
981
909
595
196
-46
-6
170
192
-14
-150
142
825
1422
1485
1031
420
-103
-608
-1255
-2018
-2701
-3153
-3356
-3276
-2793
-1904
-864
-13
493
769
942
945
646
137
-275
-353
-155
75
197
302
519
784
885
705
349
-17
-378
-835
-1381
-1807
-1924
-1814
-1741
-1847
-1983
-1879
-1476
-1024
-799
-788
-721
-442
-109
24
-55
-33
345
926
1306
1292
1129
1189
1508
1758
1653
1270
922
766
704
611
530
584
759
888
837
636
394
181
-17
-225
-421
-534
-486
-240
146
523
766
868
913
926
846
697
707
1140
1991
2923
3531
3670
3479
3140
2660
1920
860
-401
-1595
-2430
-2719
-2462
-1887
-1308
-902
-633
-380
-117
55
80
-19
-198
-445
-708
-828
-649
-216
225
455
455
357
259
170
82
25
-13
-125
-365
-660
-875
-976
-1064
-1200
-1294
-1208
-937
-609
-285
137
795
1633
2398
2880
3081
3128
3043
2662
1807
506
-965
-2225
-3039
-3374
-3286
-2822
-2080
-1220
-409
221
591
642
339
-235
-823
-1115
-970
-516
-45
259
493
1003
2077
3561
4768
4878
3609
1543
-336
-1472
-2146
-3032
-4419
-5896
-6740
-6559
-5545
-4223
-3063
-2265
-1786
-1438
-1047
-536
39
575
1007
1302
1450
1503
1578
1751
1939
1974
1787
1471
1141
838
600
595
1008
1707
2156
1806
655
-689
-1613
-2012
-2266
-2660
-3037
-3021
-2468
-1648
-949
-536
-316
-189
-191
-291
-203
435
1627
2843
3394
3059
2264
1607
1192
569
-657
-2277
-3581
-4018
-3629
-2864
-2098
-1396
-692
-80
179
-41
-504
-727
-370
521
1514
2165
2385
2414
2469
2408
1831
551
-1128
-2636
-3566
-3878
-3658
-2847
-1362
516
2049
2583
2130
1316
693
149
-820
-2274
-3474
-3524
-2301
-604
623
1113
1270
1496
1683
1418
566
-541
-1416
-1735
-1453
-733
158
923
1345
1413
1279
1088
855
491
-14
-525
-856
-869
-518
125
855
1419
1650
1560
1281
963
673
435
296
316
486
701
830
833
764
694
626
539
449
420
476
575
658
719
790
869
900
827
660
457
263
83
-98
-272
-412
-485
-458
-308
-44
266
545
765
960
1157
1308
1327
1187
983
844
810
824
820
811
859
971
1071
1072
964
814
686
596
523
451
375
299
245
248
319
405
422
339
218
148
145
155
132
93
77
80
69
42
24
-1
-70
-188
-287
-285
-191
-99
-60
-44
0
66
127
194
317
507
711
875
1032
1259
1562
1840
1945
1775
1336
772
311
124
176
242
121
-135
-252
-26
456
873
973
770
499
378
455
623
723
680
562
514
626
815
897
786
627
667
975
1338
1488
1414
1377
1591
1889
1843
1221
279
-509
-933
-1202
-1614
-2158
-2531
-2538
-2325
-2188
-2221
-2239
-2063
-1767
-1563
-1520
-1459
-1168
-632
-22
496
922
1348
1805
2191
2340
2162
1708
1130
596
196
-121
-442
-782
-1037
-1101
-1007
-913
-926
-992
-961
-787
-625
-641
-804
-928
-906
-844
-902
-1026
-969
-558
99
742
1254
1730
2257
2737
2932
2695
2107
1385
706
140
-317
-691
-997
-1210
-1276
-1192
-1052
-991
-1071
-1248
-1477
-1769
-2124
-2411
-2407
-1990
-1294
-607
-94
292
675
1069
1360
1447
1340
1123
863
598
372
238
194
157
59
-77
-166
-161
-120
-140
-241
-360
-427
-436
-419
-389
-337
-261
-191
-161
-179
-236
-343
-530
-805
-1135
-1481
-1841
-2206
-2479
-2500
-2183
-1658
-1190
-926
-731
-334
340
1030
1359
1194
770
450
398
497
536
424
228
63
-18
-32
-19
-12
-32
-83
-152
-210
-229
-191
-96
25
117
126
41
-82
-161
-147
-54
66
171
243
288
321
351
380
401
408
411
417
416
380
292
173
59
-35
-116
-192
-255
-291
-283
-195
14
324
613
741
686
587
594
694
716
538
230
2
-17
119
260
308
276
229
196
175
151
116
72
18
-50
-127
-208
-277
-328
-366
-408
-458
-492
-482
-417
-314
-195
-58
109
291
437
492
455
387
357
394
469
538
578
601
629
671
722
774
809
812
796
799
849
923
964
941
887
872
911
948
918
819
720
693
742
810
829
775
683
620
628
687
732
719
669
644
668
695
667
569
437
315
215
121
9
-137
-297
-433
-520
-584
-685
-841
-976
-981
-846
-685
-603
-553
-363
70
648
1162
1499
1722
1952
2197
2342
2283
2028
1669
1279
882
488
129
-151
-336
-431
-438
-350
-183
9
175
285
341
360
356
330
277
201
115
43
7
3
8
16
51
130
230
296
309
305
337
397
415
326
157
16
6
127
287
374
362
317
322
404
504
548
495
360
201
98
104
209
331
366
288
176
138
207
314
366
330
240
165
159
232
356
470
519
496
441
413
431
454
422
306
142
22
-2
39
53
-22
-138
-184
-95
67
179
178
108
35
-15
-55
-75
-39
62
159
174
116
100
217
403
492
386
172
39
80
194
219
111
-26
-78
-66
-112
-279
-486
-591
-523
-337
-134
37
194
370
570
758
875
877
764
583
402
270
194
153
135
137
153
170
182
194
200
189
152
112
93
86
44
-55
-167
-219
-193
-145
-132
-154
-155
-101
-12
72
133
169
177
157
134
138
167
177
143
93
81
116
148
129
76
44
51
61
41
9
5
30
39
-10
-99
-177
-206
-180
-112
-24
55
101
110
115
148
202
228
186
89
-2
-33
1
60
95
92
73
80
132
209
274
316
358
430
529
620
671
682
681
683
680
664
645
645
656
638
573
506
503
578
675
719
694
641
610
623
675
736
741
622
388
163
91
184
315
375
395
466
588
631
488
182
-187
-581
-1029
-1496
-1834
-1905
-1747
-1512
-1274
-933
-353
418
1151
1651
1929
2146
2397
2608
2617
2355
1921
1493
1159
841
420
-81
-479
-605
-511
-396
-340
-155
409
1304
2170
2689
2904
3069
3250
3188
2609
1591
507
-356
-1019
-1625
-2151
-2407
-2281
-1888
-1440
-1045
-688
-358
-143
-116
-230
-361
-433
-465
-492
-499
-437
-299
-154
-98
-170
-301
-380
-356
-287
-271
-317
-308
-139
99
149
-130
-540
-702
-454
-49
140
39
-79
34
304
474
457
402
431
459
321
39
-181
-214
-181
-295
-588
-879
-999
-961
-896
-873
-860
-807
-735
-693
-667
-557
-294
43
271
271
113
-12
15
113
99
-106
-393
-583
-602
-529
-474
-470
-466
-409
-303
-190
-116
-100
-131
-168
-158
-76
44
137
169
162
162
177
172
121
48
6
33
116
214
295
333
321
265
193
152
158
182
163
89
28
99
385
856
1395
1874
2237
2498
2662
2665
2395
1785
893
-109
-1024
-1729
-2187
-2411
-2423
-2242
-1894
-1415
-865
-341
35
198
189
127
89
42
-76
-236
-318
-250
-118
-60
-106
-144
-65
108
283
434
611
826
978
947
736
465
222
-3
-248
-482
-628
-657
-589
-436
-198
69
229
216
148
228
503
795
886
778
668
686
745
668
416
126
-68
-168
-244
-315
-331
-267
-168
-87
-33
21
74
100
87
67
59
55
49
81
191
349
461
465
379
272
193
129
48
-59
-169
-251
-305
-354
-420
-506
-585
-604
-529
-392
-292
-322
-481
-669
-784
-808
-814
-874
-964
-969
-774
-353
212
791
1277
1629
1861
2010
2086
2047
1841
1477
1046
662
376
167
4
-95
-78
63
252
384
413
394
431
589
841
1086
1222
1231
1178
1131
1086
980
785
549
351
209
82
-58
-160
-150
-26
118
187
164
105
61
18
-62
-170
-253
-265
-221
-174
-142
-79
65
261
419
487
513
585
714
822
850
845
899
1025
1121
1088
932
734
532
286
-45
-414
-728
-943
-1096
-1226
-1309
-1282
-1128
-916
-736
-623
-547
-476
-419
-419
-475
-537
-562
-563
-585
-635
-658
-602
-498
-433
-433
-408
-243
58
362
531
530
411
214
-79
-482
-955
-1408
-1769
-2009
-2129
-2125
-1989
-1741
-1438
-1157
-937
-773
-641
-553
-545
-612
-667
-609
-412
-167
13
86
81
40
-39
-191
-432
-742
-1051
-1251
-1251
-1047
-730
-382
-3
451
930
1243
1220
884
431
9
-421
-971
-1606
-2096
-2230
-2016
-1643
-1278
-947
-623
-345
-184
-146
-173
-244
-404
-631
-744
-549
-65
440
698
699
639
626
538
192
-408
-1049
-1513
-1752
-1852
-1882
-1840
-1703
-1491
-1274
-1131
-1090
-1126
-1182
-1210
-1207
-1201
-1207
-1203
-1151
-1038
-898
-772
-663
-526
-309
-10
297
500
539
445
295
123
-103
-413
-771
-1088
-1282
-1317
-1190
-935
-632
-391
-282
-277
-296
-294
-283
-279
-239
-100
142
417
654
849
1022
1142
1140
1001
808
664
595
562
556
625
779
913
918
840
868
1122
1471
1652
1555
1343
1246
1292
1287
1049
605
154
-137
-234
-186
-31
225
578
1006
1475
1956
2418
2823
3132
3312
3330
3176
2886
2541
2220
1936
1644
1297
905
544
292
185
197
279
395
524
626
643
548
399
313
359
490
592
600
558
553
607
673
699
686
659
621
560
505
525
664
890
1119
1285
1371
1396
1378
1323
1224
1070
857
604
364
194
114
94
95
97
113
149
193
214
190
132
78
66
93
115
89
27
-10
25
104
143
96
7
-30
18
94
116
77
48
102
227
342
384
368
358
393
455
502
517
509
481
406
255
39
-189
-383
-540
-687
-831
-934
-947
-855
-702
-542
-404
-288
-192
-128
-108
-124
-154
-176
-207
-273
-359
-409
-366
-244
-114
-27
32
110
203
260
264
277
370
513
589
536
429
390
437
453
319
44
-249
-460
-593
-700
-794
-841
-799
-677
-522
-372
-243
-128
-35
22
26
-16
-69
-91
-64
-6
62
126
178
208
207
190
176
170
162
148
140
146
146
112
50
9
34
116
196
236
255
310
438
606
743
774
669
451
175
-103
-362
-604
-832
-1011
-1083
-1019
-853
-663
-515
-426
-365
-305
-261
-263
-315
-379
-403
-363
-280
-184
-96
-16
55
110
138
136
109
74
59
77
121
161
183
208
260
322
334
256
127
36
28
62
56
-23
-125
-168
-115
-10
60
53
1
-14
53
140
138
-13
-243
-422
-482
-479
-521
-649
-798
-874
-858
-831
-884
-1030
-1175
-1214
-1130
-993
-862
-700
-409
48
572
1019
1321
1533
1737
1934
2036
1966
1721
1369
983
616
297
33
-184
-360
-485
-528
-473
-351
-210
-92
-9
55
115
167
192
175
123
56
0
-22
5
69
117
86
-29
-160
-222
-217
-221
-296
-412
-490
-506
-506
-531
-557
-544
-502
-485
-508
-532
-524
-520
-570
-663
-737
-762
-784
-851
-932
-957
-915
-865
-868
-908
-935
-938
-953
-1000
-1050
-1056
-1009
-935
-869
-829
-813
-794
-737
-632
-513
-453
-488
-579
-647
-643
-597
-565
-576
-622
-681
-738
-781
-795
-783
-766
-763
-773
-777
-759
-720
-665
-595
-518
-449
-403
-384
-385
-383
-357
-308
-264
-259
-282
-284
-224
-114
-22
19
71
223
490
770
940
955
872
760
630
441
180
-109
-356
-519
-604
-621
-557
-408
-215
-48
40
62
59
47
19
-6
23
128
255
330
386
548
871
1220
1355
1188
867
615
502
410
213
-74
-322
-434
-427
-375
-326
-274
-183
-34
150
318
416
438
423
402
366
293
198
124
95
86
69
41
11
-14
-31
-27
9
36
-10
-134
-242
-208
-20
194
302
298
308
429
617
736
714
592
478
426
417
431
478
570
667
698
639
540
479
500
577
643
627
512
374
345
485
692
779
675
531
549
753
952
977
868
798
840
894
836
689
561
496
440
374
377
527
762
894
819
623
478
452
451
354
146
-83
-247
-327
-354
-355
-330
-261
-130
52
226
319
323
331
435
604
705
681
661
819
1153
1445
1494
1326
1141
1040
922
638
200
-223
-477
-545
-490
-352
-144
113
375
616
814
930
914
769
579
440
379
371
402
481
608
735
793
743
609
455
345
309
317
295
193
74
81
281
559
694
587
377
297
424
594
580
355
135
142
380
641
723
620
478
419
405
306
35
-356
-730
-977
-1104
-1198
-1296
-1312
-1098
-614
-22
428
640
768
1019
1372
1565
1388
931
481
213
14
-321
-808
-1257
-1508
-1614
-1740
-1916
-1972
-1737
-1231
-670
-265
-33
177
506
919
1201
1168
841
425
128
-2
-67
-163
-268
-293
-220
-139
-145
-209
-213
-101
24
-14
-281
-627
-790
-653
-381
-240
-312
-424
-342
-35
335
620
816
954
982
826
539
266
49
-194
-504
-745
-730
-502
-294
-203
-32
432
1034
1319
1030
473
212
474
911
1023
714
350
289
502
676
605
353
85
-119
-273
-354
-272
-16
277
451
494
539
689
887
951
750
347
-12
-108
84
358
496
483
502
679
884
878
604
275
90
-13
-240
-597
-813
-693
-419
-347
-543
-686
-477
-54
169
31
-206
-208
5
113
-49
-275
-278
-71
83
27
-73
55
452
859
1017
922
795
817
921
905
661
306
54
13
102
191
250
312
347
270
79
-71
-12
209
364
314
198
274
600
964
1115
1007
765
514
274
40
-99
-36
191
357
253
-77
-338
-273
37
223
-16
-578
-1024
-993
-531
-5
273
310
335
533
875
1180
1304
1235
1057
847
629
388
134
-88
-263
-427
-616
-780
-823
-720
-576
-517
-524
-431
-139
230
436
400
299
345
537
690
683
586
511
437
281
124
220
722
1440
1983
2158
2118
2097
2091
1861
1251
395
-406
-987
-1373
-1633
-1712
-1504
-1049
-598
-391
-383
-317
-85
71
-95
-347
-82
1034
2623
3964
4760
5346
6082
6726
6621
5413
3422
1299
-462
-1648
-2203
-2221
-1992
-1849
-1845
-1759
-1474
-1238
-1455
-2208
-3193
-4032
-4568
-4795
-4692
-4226
-3491
-2714
-2090
-1653
-1320
-1054
-940
-1055
-1334
-1572
-1557
-1230
-724
-191
353
932
1425
1631
1586
1660
2193
3068
3786
3983
3755
3377
2875
2032
781
-603
-1776
-2639
-3254
-3599
-3577
-3250
-2887
-2683
-2554
-2311
-1982
-1792
-1837
-1902
-1700
-1202
-613
-93
372
858
1318
1607
1650
1526
1349
1150
893
582
333
268
383
510
473
224
-119
-394
-532
-559
-513
-404
-254
-142
-155
-297
-488
-637
-726
-777
-764
-620
-309
114
543
897
1154
1320
1388
1318
1055
587
-18
-622
-1100
-1430
-1694
-1950
-2117
-2009
-1550
-917
-409
-168
-51
190
620
1038
1186
1027
777
690
832
1064
1193
1125
895
621
432
388
441
457
338
120
-63
-123
-102
-94
-116
-68
124
384
554
588
623
818
1146
1391
1365
1095
776
561
439
303
107
-93
-223
-263
-240
-178
-78
68
276
565
927
1299
1585
1741
1826
1930
2045
2045
1823
1428
1042
797
656
490
236
-54
-290
-437
-487
-405
-132
319
835
1281
1616
1913
2248
2574
2723
2540
2041
1424
921
617
410
165
-129
-337
-326
-105
203
478
666
769
797
777
770
829
933
1000
945
721
326
-191
-713
-1099
-1305
-1421
-1545
-1621
-1450
-916
-164
504
907
1106
1250
1361
1321
1045
606
165
-176
-411
-535
-510
-317
-41
166
220
161
99
76
41
-69
-245
-410
-502
-525
-535
-571
-615
-622
-576
-515
-509
-582
-689
-747
-715
-643
-625
-694
-766
-728
-555
-348
-233
-236
-291
-336
-382
-462
-555
-587
-518
-376
-212
-38
178
430
649
753
715
559
323
20
-337
-705
-1012
-1211
-1292
-1263
-1117
-832
-419
31
376
515
463
333
228
134
-55
-413
-878
-1269
-1421
-1303
-1016
-683
-366
-60
247
517
664
612
349
-71
-552
-990
-1306
-1467
-1482
-1393
-1256
-1102
-931
-736
-542
-401
-346
-359
-395
-419
-422
-392
-313
-172
21
232
424
574
675
748
841
1009
1268
1556
1767
1837
1801
1743
1690
1589
1387
1124
876
669
489
401
600
1233
2153
2956
3314
3257
3083
2987
2839
2377
1531
530
-315
-855
-1101
-1092
-830
-384
63
335
429
496
659
865
956
857
669
557
606
770
953
1105
1221
1296
1306
1245
1152
1094
1107
1175
1258
1331
1388
1414
1391
1325
1257
1223
1222
1218
1209
1243
1383
1634
1908
2082
2088
1950
1722
1424
1030
516
-85
-670
-1117
-1347
-1357
-1204
-961
-691
-436
-226
-76
-4
-29
-158
-365
-590
-772
-890
-946
-940
-863
-742
-654
-675
-788
-880
-849
-697
-506
-314
-61
313
765
1165
1416
1542
1638
1750
1819
1748
1512
1175
831
531
267
31
-153
-253
-264
-223
-162
-75
59
230
381
461
471
451
425
394
360
337
336
340
314
250
173
107
35
-72
-209
-332
-393
-398
-382
-359
-295
-163
19
178
252
242
202
185
198
215
203
153
69
-38
-155
-263
-351
-415
-472
-539
-618
-694
-732
-682
-509
-230
52
200
159
14
-85
-90
-99
-232
-475
-702
-832
-896
-943
-910
-675
-210
355
829
1093
1138
1038
921
903
954
852
355
-500
-1342
-1788
-1820
-1766
-1915
-2218
-2401
-2301
-2012
-1721
-1502
-1325
-1187
-1150
-1246
-1390
-1424
-1265
-964
-654
-448
-380
-400
-426
-386
-249
-24
215
353
301
86
-136
-223
-192
-222
-463
-878
-1284
-1542
-1666
-1735
-1766
-1686
-1444
-1099
-781
-573
-452
-335
-170
22
155
162
61
-17
80
378
731
940
928
802
725
765
849
870
782
614
431
287
198
148
106
53
-17
-94
-151
-135
21
355
824
1311
1707
1976
2135
2190
2113
1869
1453
904
300
-257
-664
-869
-892
-810
-706
-619
-556
-504
-462
-434
-440
-502
-611
-699
-666
-481
-232
-60
-12
10
120
306
438
424
326
292
374
469
435
246
-5
-199
-289
-301
-296
-319
-362
-352
-189
153
573
911
1075
1082
993
841
634
386
108
-207
-557
-868
-1024
-977
-812
-662
-580
-521
-448
-394
-404
-447
-436
-339
-239
-234
-317
-393
-400
-377
-407
-531
-753
-1074
-1487
-1910
-2171
-2132
-1815
-1388
-1020
-773
-629
-581
-625
-689
-648
-462
-248
-147
-106
127
732
1551
2156
2225
1832
1327
957
656
208
-426
-1009
-1261
-1118
-749
-357
-10
314
597
761
770
707
694
777
927
1110
1331
1572
1760
1803
1682
1449
1144
768
353
24
-77
68
305
445
429
359
352
415
444
343
112
-163
-391
-534
-594
-587
-521
-423
-348
-348
-411
-453
-406
-296
-218
-226
-256
-192
-11
182
263
226
170
179
229
235
164
73
36
69
133
187
208
172
59
-110
-252
-290
-226
-147
-132
-174
-197
-143
-27
94
165
154
68
-33
-60
19
142
202
176
149
197
263
204
-30
-319
-484
-472
-387
-356
-384
-379
-278
-111
53
177
255
293
294
268
235
207
187
185
204
223
229
256
375
630
959
1244
1410
1478
1492
1425
1206
807
296
-210
-640
-973
-1188
-1244
-1119
-867
-590
-372
-240
-169
-115
-63
-44
-99
-230
-366
-399
-289
-111
24
70
68
79
95
62
-35
-145
-198
-169
-94
-30
-5
-16
-55
-107
-149
-140
-68
35
110
133
148
229
394
573
650
575
406
260
205
221
232
195
126
58
17
-2
-1
23
55
66
35
-22
-59
-51
-14
30
95
210
355
450
423
301
187
144
110
-32
-288
-506
-510
-293
-30
91
66
63
250
622
1001
1207
1204
1124
1140
1337
1650
1934
2075
2053
1936
1802
1683
1572
1447
1280
1036
696
293
-68
-288
-368
-430
-597
-883
-1194
-1425
-1527
-1481
-1265
-909
-542
-320
-253
-162
126
570
930
1026
942
921
1107
1405
1608
1621
1510
1385
1264
1080
790
426
61
-255
-503
-662
-688
-559
-321
-70
119
235
318
382
412
387
322
254
204
177
199
319
544
811
1016
1098
1077
1004
900
762
593
421
271
139
30
-24
19
157
320
426
436
371
282
200
116
15
-100
-201
-245
-205
-104
-1
46
29
-7
-23
-33
-94
-246
-461
-659
-775
-798
-769
-712
-614
-462
-284
-131
-35
23
70
94
54
-67
-207
-270
-216
-93
18
83
135
211
291
311
235
82
-94
-262
-409
-513
-551
-526
-477
-442
-413
-362
-290
-234
-216
-204
-167
-118
-90
-79
-47
12
44
19
-6
65
233
373
379
312
342
546
803
923
855
732
711
791
840
758
579
415
311
218
88
-38
-80
-30
43
75
97
157
223
197
51
-115
-177
-138
