124
101
107
124
129
120
105
90
83
91
122
170
219
255
273
280
283
286
288
291
291
289
281
263
231
193
165
159
170
181
184
181
178
176
169
157
151
163
184
195
184
160
147
161
201
246
278
288
281
268
259
252
244
219
167
93
10
-76
-171
-270
-349
-390
-402
-403
-380
-276
-50
270
599
881
1134
1414
1734
2046
2285
2433
2503
2513
2475
2403
2303
2157
1924
1590
1204
856
602
424
266
96
-63
-169
-209
-208
-199
-201
-216
-247
-298
-365
-433
-481
-498
-488
-461
-435
-425
-435
-454
-468
-472
-478
-490
-501
-493
-468
-450
-457
-475
-473
-440
-398
-380
-391
-417
-441
-460
-481
-506
-529
-551
-578
-609
-635
-654
-668
-679
-686
-684
-676
-672
-681
-700
-717
-720
-710
-699
-701
-725
-762
-791
-802
-799
-799
-812
-832
-851
-868
-891
-922
-953
-975
-991
-1012
-1046
-1089
-1135
-1177
-1211
-1234
-1245
-1245
-1240
-1241
-1251
-1261
-1261
-1246
-1219
-1191
-1169
-1154
-1142
-1124
-1097
-1062
-1019
-966
-905
-841
-787
-743
-702
-653
-592
-524
-456
-389
-325
-268
-217
-163
-92
-2
88
151
176
180
183
192
201
202
197
191
181
164
152
163
196
222
212
176
156
186
248
291
293
274
274
309
359
389
388
369
348
338
338
344
352
354
350
341
330
324
325
330
335
332
327
327
329
322
299
275
270
278
272
233
177
144
152
180
191
175
158
164
187
200
187
164
160
185
218
230
219
212
231
265
277
245
197
180
204
230
219
175
146
162
203
224
211
182
161
144
116
83
62
66
84
100
109
122
145
177
204
213
197
162
120
89
83
102
132
160
182
206
244
291
331
345
331
307
289
278
262
241
231
246
277
303
310
308
307
309
301
276
234
184
134
96
81
91
114
137
153
168
186
206
224
246
274
301
313
303
280
256
233
198
141
65
-22
-118
-219
-308
-362
-373
-350
-285
-143
117
489
905
1289
1620
1943
2303
2683
3007
3204
3264
3237
3186
3132
3046
2881
2613
2267
1898
1558
1268
1022
809
628
481
372
298
257
243
241
231
198
142
71
-5
-76
-127
-145
-132
-107
-88
-82
-84
-89
-98
-106
-104
-80
-43
-13
-5
-13
-18
-11
4
14
14
8
-1
-10
-22
-36
-43
-38
-22
-5
-7
-32
-67
-86
-84
-75
-81
-105
-132
-152
-164
-177
-188
-191
-188
-191
-216
-262
-313
-353
-373
-378
-379
-387
-407
-441
-485
-535
-577
-602
-610
-622
-654
-703
-742
-755
-753
-758
-775
-790
-793
-794
-808
-836
-859
-871
-872
-865
-842
-802
-767
-758
-771
-770
-724
-642
-568
-535
-537
-538
-511
-458
-400
-354
-320
-284
-238
-188
-141
-101
-60
-15
33
83
125
155
172
190
223
268
311
339
358
381
402
398
365
332
332
360
377
354
312
294
317
360
392
403
403
396
382
358
331
312
307
320
330
342
350
360
381
408
425
415
384
357
355
367
365
335
297
279
284
289
278
260
254
262
256
220
170
138
140
155
161
151
135
127
130
150
185
222
234
214
177
155
157
170
172
162
157
164
175
178
177
187
215
240
235
198
157
143
157
168
148
95
38
1
-19
-35
-55
-80
-100
-112
-110
-89
-60
-49
-69
-103
-121
-108
-78
-48
-27
-12
-9
-23
-43
-46
-21
12
37
62
110
182
235
240
227
252
328
392
375
286
201
192
248
308
327
308
272
233
202
191
210
233
222
171
124
130
194
270
308
298
267
246
242
242
228
191
129
54
-19
-85
-160
-273
-414
-530
-576
-559
-540
-544
-510
-334
17
454
841
1132
1407
1774
2228
2639
2873
2912
2861
2833
2844
2807
2630
2307
1917
1555
1252
976
707
474
321
234
136
-17
-167
-215
-152
-102
-189
-388
-544
-548
-467
-459
-575
-696
-688
-567
-484
-533
-651
-702
-648
-578
-573
-592
-552
-460
-419
-486
-585
-586
-476
-372
-381
-484
-563
-531
-422
-334
-338
-424
-537
-640
-727
-789
-788
-694
-561
-510
-614
-778
-812
-629
-376
-291
-456
-701
-785
-657
-474
-423
-553
-770
-940
-992
-935
-807
-676
-615
-660
-786
-890
-863
-712
-583
-642
-890
-1123
-1118
-889
-702
-792
-1095
-1313
-1255
-1038
-937
-1071
-1294
-1367
-1201
-903
-647
-548
-612
-733
-767
-668
-575
-691
-1034
-1343
-1324
-1009
-730
-714
-810
-700
-351
-99
-203
-468
-432
50
549
524
-48
-602
-585
-60
374
245
-316
-737
-611
-81
364
388
90
-179
-186
7
172
169
51
-32
11
141
254
272
191
68
-46
-123
-163
-193
-277
-450
-632
-657
-429
-68
158
103
-102
-208
-151
-94
-194
-387
-494
-486
-507
-654
-809
-785
-581
-394
-391
-514
-577
-484
-295
-118
5
73
77
9
-85
-140
-154
-210
-365
-552
-630
-549
-417
-375
-428
-423
-236
59
225
112
-179
-416
-502
-550
-709
-947
-1068
-928
-607
-308
-154
-96
-13
136
285
334
208
-80
-407
-611
-614
-500
-439
-502
-587
-530
-313
-103
-72
-221
-386
-414
-310
-193
-150
-155
-121
-12
106
128
6
-211
-400
-451
-347
-186
-115
-192
-316
-322
-178
-27
-37
-184
-299
-288
-241
-285
-358
-248
144
641
955
981
858
747
663
514
258
-60
-371
-625
-744
-647
-354
-26
166
210
240
311
302
70
-325
-651
-781
-822
-924
-1015
-854
-330
381
997
1427
1796
2198
2554
2748
2820
2922
3084
3169
3070
2871
2736
2678
2509
2079
1477
950
656
527
361
56
-258
-334
-55
430
803
851
622
336
168
119
95
15
-146
-371
-594
-692
-588
-348
-135
-55
-68
-91
-115
-182
-276
-318
-288
-279
-401
-609
-739
-694
-532
-371
-268
-192
-105
-14
59
101
93
37
-32
-53
-12
32
27
3
35
106
92
-91
-376
-604
-687
-660
-595
-504
-360
-170
17
188
378
540
494
84
-586
-1155
-1334
-1229
-1220
-1496
-1786
-1634
-938
-133
233
39
-349
-519
-429
-354
-500
-807
-1060
-1117
-964
-671
-361
-182
-203
-327
-372
-275
-171
-228
-427
-560
-490
-317
-233
-288
-360
-342
-277
-271
-331
-336
-180
101
376
548
620
635
599
499
359
242
184
151
102
59
107
285
519
683
725
707
717
768
803
775
706
650
633
647
681
728
778
815
825
806
770
731
703
695
700
704
694
676
666
663
646
604
555
532
540
550
532
493
467
470
486
489
477
471
484
501
507
505
513
539
566
575
567
560
567
584
596
593
583
579
588
603
614
613
600
587
590
613
637
635
598
550
528
545
577
588
571
546
536
536
529
511
494
488
486
478
466
460
460
458
450
440
431
418
391
358
338
341
359
381
403
432
464
489
503
517
542
575
601
614
617
626
643
662
676
682
682
677
671
672
679
677
655
621
596
596
610
616
606
590
587
599
613
619
614
599
573
548
532
524
512
489
469
465
465
442
386
316
259
205
111
-35
-183
-262
-261
-246
-273
-307
-236
11
388
776
1094
1359
1636
1955
2291
2590
2813
2934
2949
2882
2786
2703
2614
2460
2199
1853
1496
1191
954
767
605
461
339
246
189
163
152
130
81
12
-58
-124
-192
-269
-337
-369
-356
-320
-296
-300
-321
-342
-353
-355
-347
-342
-365
-422
-475
-470
-403
-349
-375
-462
-513
-461
-342
-248
-228
-247
-251
-230
-205
-192
-183
-178
-190
-229
-272
-289
-277
-259
-257
-263
-264
-259
-265
-291
-328
-361
-383
-399
-415
-431
-450
-475
-505
-529
-541
-554
-592
-668
-760
-831
-862
-861
-853
-855
-870
-895
-927
-956
-970
-972
-981
-1013
-1056
-1078
-1062
-1030
-1012
-1018
-1024
-1011
-988
-972
-973
-991
-1014
-1024
-1003
-951
-890
-842
-784
-671
-502
-340
-233
-130
91
463
859
1096
1131
1094
1136
1259
1340
1283
1130
989
924
921
944
981
1030
1071
1081
1057
1020
986
954
923
904
904
922
953
998
1060
1129
1185
1212
1212
1199
1184
1172
1161
1155
1154
1146
1112
1050
976
913
864
810
737
656
593
559
532
489
429
379
355
343
314
262
208
172
146
103
41
-9
-21
-3
8
-1
-4
33
104
161
172
153
154
193
240
250
212
157
119
103
93
75
50
29
14
6
3
9
27
56
83
94
80
47
2
-55
-134
-236
-345
-443
-530
-624
-731
-834
-906
-938
-947
-955
-964
-962
-938
-898
-855
-816
-780
-743
-701
-652
-601
-558
-533
-521
-506
-481
-454
-444
-456
-474
-476
-460
-442
-431
-422
-399
-365
-338
-333
-341
-343
-334
-329
-340
-349
-326
-265
-199
-162
-146
-110
-36
48
88
67
12
-44
-102
-181
-284
-395
-507
-635
-779
-903
-967
-982
-1000
-1033
-1005
-822
-479
-84
248
509
794
1174
1607
1972
2178
2231
2207
2163
2100
1982
1778
1494
1162
827
516
243
25
-126
-217
-282
-351
-426
-467
-447
-397
-389
-461
-570
-637
-636
-618
-640
-697
-728
-696
-638
-618
-647
-685
-694
-682
-685
-703
-706
-674
-625
-596
-600
-614
-616
-605
-598
-601
-605
-596
-574
-555
-558
-581
-599
-592
-560
-530
-529
-556
-589
-611
-618
-613
-597
-576
-569
-588
-621
-630
-603
-571
-585
-654
-727
-745
-701
-644
-630
-658
-688
-683
-656
-647
-682
-744
-801
-833
-844
-846
-845
-849
-864
-885
-899
-898
-890
-892
-911
-924
-916
-894
-887
-907
-925
-901
-840
-791
-799
-848
-880
-851
-774
-694
-634
-583
-525
-466
-421
-392
-362
-320
-271
-218
-161
-104
-55
-21
15
71
143
198
215
215
232
271
310
338
372
427
487
522
531
539
567
589
579
554
553
591
633
636
600
569
573
597
610
603
583
557
528
509
518
552
583
582
553
534
542
562
565
543
514
489
473
470
482
498
499
475
450
449
476
498
485
447
415
416
449
488
511
511
502
507
533
562
568
551
537
551
587
612
605
581
568
581
598
586
532
462
409
388
385
377
362
360
384
412
412
380
345
330
326
312
291
294
331
373
390
384
389
413
428
398
334
283
278
306
338
368
425
534
677
808
896
948
992
1045
1091
1108
1099
1095
1117
1153
1166
1145
1117
1120
1157
1194
1198
1175
1155
1159
1175
1184
1177
1164
1157
1150
1131
1098
1062
1033
1023
1033
1056
1074
1071
1043
1010
992
984
961
902
818
743
696
652
569
430
279
174
119
69
-6
-52
35
310
716
1141
1526
1896
2304
2748
3157
3459
3630
3699
3702
3656
3551
3365
3096
2764
2415
2081
1769
1470
1192
960
789
669
572
492
442
425
421
392
319
213
104
22
-17
-10
17
37
35
15
-4
-14
-13
-7
-4
-14
-41
-73
-91
-79
-46
-14
5
18
38
63
75
57
11
-48
-96
-119
-113
-87
-59
-39
-13
45
129
197
199
142
81
66
77
59
1
-39
-3
79
119
70
-13
-45
-32
-61
-197
-380
-480
-434
-324
-272
-310
-351
-312
-223
-191
-273
-417
-531
-592
-648
-723
-769
-739
-662
-626
-674
-742
-732
-631
-532
-532
-637
-768
-850
-874
-869
-845
-787
-708
-674
-735
-851
-897
-792
-584
-415
-377
-421
-422
-309
-130
14
68
63
71
138
255
372
440
462
481
543
636
708
718
685
658
661
688
730
785
844
879
866
817
775
761
754
723
665
604
559
532
524
542
580
612
632
666
731
789
777
695
628
657
740
752
638
497
473
584
701
709
633
595
650
731
744
672
584
549
575
617
629
598
540
491
477
491
495
471
435
423
449
495
526
541
572
638
710
714
610
456
378
444
567
588
450
287
277
436
596
598
468
369
407
526
602
586
522
464
421
383
353
338
321
272
189
104
40
-8
-57
-104
-136
-152
-157
-156
-151
-148
-153
-166
-174
-169
-169
-198
-250
-285
-265
-189
-95
-18
43
82
77
8
-75
-74
63
261
363
304
186
185
363
601
726
682
557
468
453
483
515
525
503
457
420
420
447
460
443
422
423
423
390
348
352
394
394
316
235
265
411
540
541
441
354
335
325
250
105
-63
-226
-371
-458
-418
-232
38
298
525
766
1066
1399
1703
1951
2172
2390
2573
2654
2610
2497
2388
2281
2091
1766
1363
1004
770
631
514
399
307
231
110
-77
-256
-323
-259
-165
-150
-216
-269
-222
-81
66
121
34
-163
-380
-520
-549
-512
-478
-468
-453
-404
-321
-230
-171
-205
-375
-626
-788
-722
-494
-340
-399
-543
-516
-255
0
-24
-308
-564
-570
-403
-304
-384
-528
-566
-479
-384
-375
-427
-464
-453
-427
-428
-469
-527
-552
-518
-443
-391
-396
-426
-417
-374
-388
-526
-725
-845
-826
-751
-739
-798
-836
-785
-687
-614
-574
-531
-490
-509
-615
-741
-798
-778
-757
-787
-842
-849
-794
-729
-703
-703
-688
-653
-632
-644
-658
-635
-586
-562
-585
-609
-565
-452
-348
-309
-307
-270
-185
-113
-107
-129
-110
-48
-12
-53
-117
-92
59
239
319
276
203
215
313
399
384
276
175
180
280
367
333
194
93
153
333
460
414
262
185
264
407
476
455
422
425
421
371
313
316
374
419
411
371
320
241
136
72
121
231
264
177
94
162
364
529
537
436
356
344
337
269
144
26
-30
-7
70
140
155
132
139
212
278
250
144
76
104
118
-13
-232
-317
-136
172
341
301
229
299
469
568
511
378
269
202
175
203
258
224
27
-209
-236
28
354
438
247
62
142
434
657
618
383
149
29
3
6
8
8
6
13
63
164
285
361
363
311
245
189
163
186
268
384
488
544
549
526
489
440
379
318
277
273
305
351
383
382
364
361
385
407
396
364
350
367
372
325
256
237
292
364
374
326
285
298
344
365
330
254
174
126
122
135
113
32
-67
-128
-155
-214
-335
-442
-417
-239
-14
156
290
501
863
1316
1720
1971
2057
2046
2019
2011
1998
1910
1696
1375
1037
778
631
557
491
393
273
171
111
82
53
14
-24
-51
-86
-152
-240
-306
-314
-281
-258
-273
-309
-334
-341
-347
-363
-377
-368
-328
-274
-234
-220
-234
-262
-289
-306
-306
-288
-264
-252
-264
-281
-276
-238
-191
-170
-186
-220
-248
-267
-286
-305
-315
-311
-309
-324
-354
-382
-393
-385
-371
-365
-371
-382
-388
-384
-384
-406
-458
-517
-549
-544
-534
-560
-628
-691
-700
-654
-597
-578
-606
-653
-694
-728
-755
-773
-768
-745
-733
-754
-797
-814
-764
-662
-574
-568
-639
-709
-704
-635
-585
-606
-657
-644
-537
-394
-293
-247
-212
-158
-93
-36
22
90
149
172
169
195
278
385
461
493
514
553
597
617
618
631
669
712
725
705
684
693
731
763
765
740
718
717
722
706
659
611
587
586
580
554
523
509
514
513
490
457
431
416
400
373
345
333
342
362
381
391
392
383
361
330
299
277
265
256
244
224
201
179
164
158
163
177
190
189
174
159
165
198
245
279
286
272
255
253
268
290
311
329
351
382
414
433
433
427
432
452
469
460
431
409
414
443
469
477
473
466
457
444
438
449
470
473
437
380
344
351
379
382
351
318
317
342
363
363
360
377
406
423
421
418
429
450
459
446
418
385
348
315
299
297
284
244
198
187
225
275
296
290
286
301
315
300
268
257
279
305
303
273
246
242
253
256
184
195
212
240
275
307
324
314
284
270
302
365
407
388
331
296
315
360
380
355
314
289
282
277
264
252
244
230
205
186
198
240
283
296
280
266
280
315
352
379
404
427
437
419
388
370
376
388
381
362
353
360
376
393
420
452
454
404
333
293
276
224
128
85
197
417
557
491
300
173
171
170
37
-192
-367
-412
-388
-364
-312
-173
14
130
122
76
107
215
289
251
152
89
103
158
206
237
263
277
267
247
243
257
268
265
263
284
315
306
243
172
161
216
273
268
209
157
151
162
145
108
99
148
222
268
273
270
280
266
171
5
-175
-330
-469
-613
-736
-790
-781
-768
-764
-690
-463
-109
244
508
720
961
1258
1555
1802
1997
2143
2201
2131
1974
1818
1694
1536
1267
908
568
331
179
42
-119
-273
-364
-375
-330
-265
-203
-151
-119
-133
-203
-298
-350
-339
-321
-374
-494
-588
-572
-476
-422
-470
-555
-566
-477
-362
-293
-271
-244
-183
-130
-135
-187
-211
-137
24
168
187
68
-73
-107
-24
49
-9
-169
-274
-205
1
208
331
388
432
461
433
342
229
130
38
-71
-182
-241
-213
-129
-64
-68
-124
-186
-235
-284
-351
-418
-443
-407
-338
-279
-245
-232
-241
-289
-376
-462
-509
-521
-545
-596
-634
-607
-532
-480
-497
-556
-603
-627
-657
-700
-718
-680
-609
-547
-504
-452
-365
-253
-135
-14
106
200
257
311
418
580
727
794
808
858
987
1140
1234
1259
1278
1339
1424
1474
1468
1440
1424
1416
1393
1346
1304
1301
1343
1410
1465
1477
1441
1389
1372
1419
1508
1576
1578
1552
1594
1757
1983
2145
2171
2109
2056
2037
1991
1861
1675
1511
1410
1344
1274
1203
1155
1123
1063
950
801
643
480
315
176
102
91
82
24
-57
-88
-39
16
-27
-185
-367
-475
-498
-493
-501
-487
-381
-147
169
481
717
857
923
933
886
764
574
364
189
65
-37
-133
-177
-103
92
309
434
452
457
539
675
760
743
691
694
746
739
614
455
392
439
462
339
137
40
149
359
471
406
259
160
132
100
4
-129
-240
-314
-376
-430
-448
-405
-317
-236
-202
-219
-272
-351
-457
-587
-734
-902
-1103
-1353
-1629
-1871
-2004
-1979
-1798
-1510
-1176
-826
-446
-16
427
799
1035
1167
1290
1464
1634
1705
1659
1582
1568
1601
1563
1380
1105
850
669
511
308
80
-78
-97
-14
59
52
-13
-54
-12
98
192
192
109
34
64
191
294
245
36
-209
-349
-363
-356
-432
-555
-568
-367
-21
286
445
525
655
849
980
931
732
527
387
269
115
-21
-39
50
103
11
-156
-227
-138
-13
-31
-206
-386
-432
-353
-252
-191
-134
-44
46
95
96
90
96
109
136
200
293
358
353
320
335
374
325
138
-62
-102
26
111
-24
-289
-408
-259
-59
-156
-620
-1141
-1342
-1190
-1015
-1128
-1476
-1723
-1633
-1320
-1086
-1079
-1200
-1271
-1257
-1249
-1283
-1282
-1177
-1009
-878
-810
-726
-570
-379
-237
-153
-53
125
336
496
567
610
712
894
1082
1168
1136
1085
1142
1342
1574
1691
1660
1596
1625
1736
1807
1768
1692
1690
1753
1754
1612
1399
1242
1148
997
709
358
112
40
60
47
-13
-21
93
275
409
440
425
436
457
418
317
249
307
442
522
492
436
457
543
586
525
422
364
350
320
258
214
225
262
273
251
236
246
251
233
215
226
254
253
224
234
346
527
667
698
672
705
847
1033
1154
1184
1191
1226
1280
1316
1336
1363
1402
1422
1429
1478
1600
1741
1815
1812
1790
1799
1820
1798
1734
1688
1691
1712
1717
1718
1751
1811
1853
1851
1832
1825
1824
1795
1736
1698
1724
1799
1868
1883
1863
1846
1848
1831
1743
1579
1399
1278
1232
1196
1114
1010
969
1036
1151
1233
1300
1452
1718
1996
2157
2227
2384
2739
3171
3445
3477
3432
3509
3693
3775
3602
3230
2838
2533
2274
1986
1655
1345
1106
959
894
866
821
724
605
527
513
526
504
429
340
303
334
395
418
373
294
242
219
166
22
-174
-303
-296
-219
-203
-289
-383
-387
-315
-273
-320
-415
-474
-474
-464
-482
-507
-496
-449
-416
-452
-540
-609
-618
-596
-631
-758
-917
-1011
-1024
-1020
-1045
-1059
-1012
-927
-871
-823
-687
-446
-227
-172
-248
-299
-263
-265
-447
-750
-981
-1050
-1066
-1142
-1218
-1162
-967
-787
-734
-750
-720
-657
-676
-817
-986
-1075
-1105
-1181
-1338
-1480
-1493
-1374
-1250
-1244
-1357
-1465
-1444
-1298
-1147
-1109
-1164
-1198
-1138
-1028
-943
-867
-736
-535
-327
-163
-19
162
376
552
651
710
778
855
917
959
1009
1072
1116
1129
1135
1158
1193
1198
1158
1096
1032
969
906
860
834
807
767
736
730
716
632
471
321
285
349
393
319
158
23
-9
36
78
58
-27
-135
-198
-165
-58
30
15
-87
-171
-155
-81
-47
-95
-176
-221
-227
-236
-266
-291
-287
-267
-264
-281
-300
-313
-313
-295
-248
-184
-144
-155
-195
-214
-190
-164
-186
-247
-292
-281
-225
-170
-137
-134
-181
-315
-530
-740
-822
-735
-564
-441
-408
-378
-228
46
313
417
315
108
-69
-172
-245
-347
-478
-583
-630
-638
-639
-630
-588
-517
-469
-484
-543
-576
-540
-467
-424
-439
-482
-516
-541
-589
-668
-748
-783
-768
-731
-714
-742
-810
-898
-979
-1047
-1114
-1184
-1228
-1175
-969
-610
-151
337
810
1275
1769
2315
2881
3375
3700
3838
3879
3949
4098
4263
4337
4280
4158
4074
4070
4081
3984
3706
3286
2839
2442
2075
1678
1255
906
729
706
705
621
482
398
413
430
314
54
-213
-351
-353
-313
-272
-158
114
499
835
1005
1064
1148
1310
1475
1558
1568
1580
1633
1692
1712
1690
1632
1521
1335
1077
775
445
82
-317
-725
-1101
-1401
-1583
-1648
-1658
-1705
-1817
-1911
-1900
-1828
-1849
-2045
-2321
-2513
-2592
-2680
-2875
-3125
-3311
-3432
-3615
-3943
-4327
-4593
-4649
-4545
-4405
-4329
-4317
-4288
-4151
-3887
-3625
-3538
-3658
-3821
-3814
-3608
-3354
-3125
-2806
-2280
-1668
-1241
-1097
-1035
-873
-779
-1091
-1811
-2424
-2389
-1751
-1090
-838
-772
-289
879
2341
3454
3927
4009
4154
4604
5235
5698
5707
5246
4581
4042
3739
3468
2945
2098
1173
502
193
101
55
57
254
726
1359
1959
2460
2986
3687
4551
5405
6122
6743
7388
8064
8641
9000
9176
9300
9440
9556
9598
9600
9633
9703
9728
9639
9451
9235
9046
8875
8671
8406
8105
7833
7663
7609
7613
7601
7560
7533
7557
7601
7602
7536
7441
7366
7329
7337
7404
7543
7726
7898
8045
8231
8513
8844
9096
9198
9235
9376
9708
10179
10676
11146
11612
12095
12567
12969
13262
13433
13473
13386
13203
12984
12776
12582
12356
12047
11631
11118
10537
9915
9244
8501
7672
6795
5948
5171
4406
3547
2555
1504
489
-453
-1353
-2219
-2985
-3566
-3932
-4087
-4012
-3681
-3121
-2417
-1608
-637
529
1683
2352
2081
728
-1498
-4310
-7601
-11404
-15667
-20098
-24243
-27679
-30162
-31658
-32282
-32211
-31598
-30551
-29185
-27680
-26253
-25035
-23994
-23047
-22166
-21393
-20757
-20183
-19544
-18780
-17963
-17211
-16571
-15992
-15369
-14633
-13798
-12939
-12142
-11460
-10883
-10358
-9816
-9197
-8469
-7652
-6817
-6053
-5410
-4867
-4365
-3870
-3384
-2923
-2494
-2097
-1730
-1382
-1035
-678
-331
-31
205
399
581
752
894
1011
1139
1303
1482
1641
1775
1923
2113
2316
2479
2585
2660
2738
2821
2895
2960
3026
3082
3106
3089
3060
3060
3093
3130
3145
3137
3117
3082
3020
2949
2906
2906
2919
2895
2821
2746
2725
2759
2783
2751
2681
2628
2619
2618
2582
2515
2462
2457
2479
2488
2462
2419
2396
2421
2477
2506
2437
2259
2047
1917
1919
1997
2054
2060
2056
2103
2215
2365
2527
2665
2723
2665
2519
2387
2349
2385
2385
2297
2186
2148
2187
2228
2228
2235
2291
2333
2246
2050
1930
2033
2280
2430
2364
2227
2247
2467
2695
2733
2588
2422
2362
2386
2387
2293
2113
1911
1754
1677
1662
1650
1594
1499
1408
1346
1294
1230
1154
1088
1056
1056
1062
1040
968
868
785
749
741
701
585
410
233
110
66
91
138
151
104
30
-4
42
137
210
203
131
55
37
83
144
158
103
16
-50
-80
-103
-145
-186
-185
-128
-58
-24
-34
-60
-69
-60
-44
-31
-21
-8
18
68
137
205
241
231
203
201
248
328
396
429
446
495
602
740
856
910
915
912
929
953
958
936
915
915
924
900
823
731
685
706
753
774
779
839
1020
1316
1655
1966
2237
2505
2816
3185
3596
4002
4335
4550
4661
4734
4820
4885
4826
4569
4162
3745
3437
3242
3076
2874
2670
2561
2605
2754
2912
3016
3080
3149
3227
3286
3306
3311
3347
3419
3489
3527
3539
3553
3563
3527
3431
3326
3298
3361
3441
3451
3396
3358
3400
3499
3586
3632
3659
3689
3692
3630
3500
3336
3148
2905
2567
2130
1626
1107
616
182
-196
-538
-846
-1070
-1129
-1015
-825
-687
-643
-619
-536
-422
-394
-531
-780
-1015
-1163
-1257
-1369
-1511
-1632
-1707
-1798
-1998
-2336
-2777
-3319
-4035
-4989
-6097
-7145
-7966
-8577
-9100
-9554
-9795
-9692
-9329
-8961
-8760
-8663
-8505
-8253
-8049
-8014
-8062
-7967
-7588
-6989
-6330
-5685
-5016
-4282
-3535
-2878
-2357
-1938
-1568
-1243
-968
-707
-384
27
464
827
1084
1299
1547
1844
2146
2428
2706
2997
3279
3522
3726
3922
4118
4269
4317
4269
4209
4229
4340
4467
4543
4566
4570
4559
4491
4326
4085
3822
3557
3278
2990
2744
2591
2522
2451
2314
2111
1872
1617
1343
1037
692
333
27
-130
-125
-82
-176
-451
-758
-937
-1019
-1203
-1592
-2035
-2290
-2298
-2248
-2323
-2493
-2587
-2531
-2434
-2461
-2637
-2842
-2933
-2855
-2654
-2427
-2265
-2179
-2094
-1928
-1686
-1488
-1439
-1479
-1435
-1199
-839
-501
-229
41
343
611
756
790
804
854
891
864
811
813
884
951
955
932
945
989
1004
954
893
890
946
1004
1022
1019
1038
1081
1108
1092
1050
1017
1005
997
968
906
826
748
681
604
475
272
43
-108
-100
48
230
358
461
667
1069
1626
2191
2622
2870
2978
3031
3083
3125
3077
2851
2444
1979
1609
1407
1306
1186
993
785
637
560
501
407
278
149
37
-94
-288
-521
-704
-765
-720
-665
-669
-697
-663
-554
-437
-390
-404
-409
-361
-294
-264
-264
-228
-120
18
106
129
162
273
448
600
664
680
745
904
1094
1210
1206
1140
1093
1106
1150
1162
1101
964
780
611
536
585
706
779
722
575
479
542
715
837
793
624
465
394
379
343
268
179
88
-14
-100
-97
17
152
184
84
-37
-61
6
60
31
-37
-46
16
76
75
45
65
167
278
325
312
325
415
519
559
519
480
508
580
640
672
725
829
956
1068
1181
1333
1506
1611
1598
1519
1488
1533
1568
1495
1358
1303
1414
1591
1666
1578
1428
1368
1437
1538
1570
1519
1451
1442
1511
1611
1660
1608
1474
1343
1283
1257
1169
1000
854
832
883
857
697
529
503
597
632
492
267
140
169
229
187
53
-65
-105
-113
-152
-229
-299
-314
-268
-185
-99
-57
-80
-134
-145
-77
11
28
-38
-93
-40
103
238
310
350
408
487
550
571
556
525
485
460
484
560
645
692
712
757
833
883
839
713
566
447
369
337
360
425
484
508
547
659
824
925
868
689
514
428
392
322
193
60
-19
-46
-58
-92
-165
-273
-407
-540
-649
-738
-829
-936
-1036
-1114
-1178
-1214
-1166
-969
-637
-269
49
336
690
1160
1686
2143
2446
2593
2637
2635
2626
2597
2492
2257
1908
1537
1253
1086
975
840
664
497
389
334
284
196
67
-81
-237
-415
-604
-753
-813
-798
-793
-857
-947
-971
-916
-888
-996
-1207
-1376
-1397
-1314
-1258
-1299
-1386
-1425
-1385
-1308
-1251
-1232
-1226
-1200
-1130
-1025
-898
-770
-648
-538
-459
-417
-394
-356
-293
-230
-201
-193
-160
-83
4
57
77
98
136
158
136
94
87
135
196
210
171
121
95
83
44
-41
-140
-211
-247
-268
-293
-313
-311
-309
-349
-431
-509
-543
-553
-601
-700
-788
-802
-761
-744
-787
-840
-842
-801
-778
-807
-855
-883
-893
-911
-929
-911
-851
-792
-775
-787
-786
-754
-725
-723
-724
-679
-583
-480
-408
-351
-266
-148
-51
-21
-38
-33
31
117
165
170
179
234
316
378
405
420
442
445
404
341
320
392
528
652
712
727
758
836
926
966
920
814
709
647
629
622
600
561
524
518
556
619
669
678
660
652
674
703
696
645
596
603
670
743
773
744
685
632
601
591
590
581
567
568
618
718
827
888
880
833
800
802
808
782
729
702
759
890
1023
1091
1096
1102
1128
1087
872
519
238
229
477
756
878
886
982
1266
1602
1765
1674
1441
1217
1041
860
651
456
329
253
168
50
-70
-143
-158
-161
-213
-338
-496
-612
-644
-619
-599
-613
-632
-647
-715
-910
-1205
-1467
-1568
-1518
-1437
-1397
-1342
-1185
-914
-589
-250
103
459
759
988
1241
1653
2216
2761
3125
3301
3380
3359
3098
2497
1649
796
115
-371
-692
-817
-694
-357
52
391
600
658
517
129
-480
-1168
-1769
-2193
-2441
-2549
-2532
-2396
-2174
-1926
-1721
-1583
-1471
-1309
-1056
-740
-428
-136
204
662
1208
1703
2006
2105
2106
2142
2273
2487
2739
2987
3198
3353
3473
3615
3808
4000
4090
4038
3927
3893
3974
4027
3885
3558
3284
3324
3697
4156
4457
4612
4858
5373
6063
6655
6959
7026
7048
7165
7372
7589
7775
7967
8239
8632
9120
9639
10149
10651
11148
11596
11945
12217
12519
12934
13419
13832
14087
14248
14426
14609
14646
14392
13858
13150
12313
11271
9916
8205
6163
3837
1317
-1226
-3629
-5874
-8098
-10382
-12554
-14295
-15454
-16206
-16818
-17314
-17450
-17031
-16157
-15130
-14143
-13166
-12101
-10961
-9857
-8868
-8000
-7270
-6717
-6324
-5961
-5483
-4883
-4322
-3954
-3771
-3612
-3341
-2976
-2670
-2543
-2557
-2542
-2347
-1997
-1667
-1523
-1573
-1702
-1827
-1996
-2338
-2906
-3611
-4314
-4960
-5593
-6267
-6957
-7581
-8094
-8532
-8965
-9408
-9818
-10149
-10395
-10571
-10667
-10653
-10528
-10349
-10178
-10021
-9832
-9587
-9328
-9115
-8945
-8756
-8487
-8136
-7748
-7382
-7063
-6777
-6473
-6116
-5728
-5385
-5139
-4943
-4694
-4370
-4070
-3909
-3864
-3780
-3537
-3191
-2901
-2740
-2625
-2434
-2159
-1900
-1742
-1670
-1612
-1535
-1458
-1398
-1331
-1209
-1011
-764
-503
-257
-39
151
321
478
610
697
737
749
761
776
781
773
772
789
805
787
740
707
722
762
770
724
662
624
605
563
484
399
349
344
352
349
360
441
632
919
1246
1568
1872
2169
2467
2762
3045
3305
3516
3648
3690
3673
3646
3614
3526
3309
2953
2536
2166
1904
1724
1556
1363
1182
1077
1069
1113
1139
1125
1102
1091
1082
1051
999
957
953
983
1019
1042
1044
1031
1021
1026
1044
1051
1048
1063
1123
1207
1261
1271
1275
1314
1373
1397
1364
1303
1231
1134
1007
911
902
941
906
738
523
393
374
347
207
-27
-252
-402
-489
-537
-518
-425
-324
-312
-405
-506
-532
-529
-612
-826
-1077
-1225
-1237
-1193
-1178
-1188
-1158
-1065
-972
-946
-976
-985
-928
-845
-811
-844
-877
-846
-757
-685
-686
-755
-835
-889
-931
-976
-1021
-1047
-1051
-1047
-1055
-1082
-1112
-1125
-1108
-1079
-1075
-1114
-1178
-1232
-1266
-1293
-1339
-1399
-1434
-1424
-1391
-1383
-1411
-1446
-1444
-1402
-1354
-1336
-1352
-1373
-1361
-1306
-1217
-1112
-1005
-904
-812
-727
-649
-581
-529
-487
-439
-370
-278
-172
-53
86
251
424
585
738
900
1083
1259
1368
1396
1406
1475
1623
1786
1887
1918
1944
2026
2160
2289
2373
2416
2442
2455
2440
2410
2403
2451
2537
2610
2641
2646
2667
2719
2779
2806
2787
2748
2731
2766
2846
2941
3023
3083
3128
3171
3214
3240
3238
3199
3137
3084
3068
3083
3099
3087
3045
2993
2947
2903
2849
2795
2756
2734
2712
2677
2640
2618
2603
2571
2512
2448
2399
2353
2279
2180
2111
2125
2206
2278
2295
2292
2344
2486
2659
2783
2851
2935
3084
3262
3382
3414
3422
3490
3614
3696
3662
3551
3468
3471
3494
3405
3127
2702
2240
1831
1462
1039
496
-104
-570
-740
-631
-450
-421
-595
-840
-999
-1049
-1095
-1263
-1573
-1941
-2263
-2490
-2647
-2806
-3038
-3370
-3769
-4175
-4534
-4817
-5020
-5147
-5201
-5189
-5114
-4974
-4779
-4563
-4374
-4240
-4163
-4118
-4069
-3977
-3814
-3586
-3333
-3104
-2906
-2709
-2483
-2236
-1998
-1786
-1584
-1382
-1193
-1048
-954
-880
-792
-680
-566
-467
-372
-256
-104
82
291
509
718
887
995
1058
1128
1245
1395
1507
1518
1448
1386
1406
1500
1591
1625
1622
1637
1686
1729
1731
1696
1649
1594
1518
1428
1354
1303
1242
1136
1015
957
994
1057
1033
899
770
774
897
979
876
615
361
228
168
56
-152
-376
-526
-613
-704
-811
-879
-869
-837
-856
-920
-968
-981
-1022
-1142
-1294
-1369
-1341
-1301
-1348
-1452
-1491
-1402
-1253
-1172
-1194
-1243
-1243
-1212
-1228
-1311
-1374
-1315
-1128
-911
-762
-685
-595
-423
-189
30
164
219
252
307
401
513
605
659
656
591
472
320
154
8
-79
-86
-50
-56
-147
-272
-335
-287
-209
-236
-423
-699
-932
-1050
-1086
-1119
-1185
-1244
-1230
-1128
-1005
-943
-949
-932
-805
-599
-451
-465
-576
-613
-483
-253
-59
39
104
222
403
597
765
909
1051
1198
1351
1528
1726
1921
2094
2242
2382
2513
2597
2598
2521
2418
2331
2257
2172
2073
1993
1958
1953
1933
1882
1824
1802
1825
1856
1847
1782
1693
1633
1626
1654
1680
1673
1622
1544
1466
1411
1391
1387
1358
1286
1206
1190
1286
1464
1647
1777
1849
1898
1955
2011
2008
1894
1653
1347
1078
896
755
568
332
165
221
509
862
1083
1148
1219
1464
1879
2298
2568
2665
2681
2692
2697
2654
2544
2352
2061
1667
1233
874
665
572
478
304
87
-64
-73
12
95
106
52
-18
-51
-24
42
106
128
132
171
271
395
476
498
498
513
559
639
754
869
925
897
852
897
1040
1164
1150
1028
939
966
1053
1097
1081
1070
1100
1117
1059
962
911
938
978
955
880
840
911
1071
1236
1319
1287
1214
1207
1304
1418
1413
1262
1103
1095
1223
1314
1251
1117
1083
1160
1168
981
726
636
768
910
848
643
538
663
869
912
735
506
406
447
502
469
356
246
183
167
173
179
162
116
60
43
116
255
379
427
420
435
517
630
711
735
736
747
782
837
904
991
1081
1156
1200
1202
1179
1166
1207
1297
1370
1363
1291
1251
1306
1409
1443
1368
1269
1249
1304
1337
1287
1211
1205
1288
1358
1322
1193
1085
1085
1155
1191
1130
1007
906
868
868
858
822
778
733
683
623
580
572
587
578
503
384
304
324
423
505
489
404
361
425
530
554
454
330
297
365
429
387
247
104
35
43
71
61
-16
-144
-259
-279
-193
-84
-52
-118
-194
-188
-116
-73
-122
-223
-296
-332
-378
-452
-501
-470
-383
-318
-299
-269
-182
-81
-40
-59
-65
-19
36
55
67
147
298
445
551
674
858
1036
1087
1002
918
939
1009
989
852
721
696
709
628
435
256
180
130
-43
-351
-620
-669
-504
-290
-157
-80
49
289
617
982
1336
1600
1693
1616
1481
1407
1371
1227
885
442
80
-128
-265
-429
-603
-702
-696
-650
-632
-633
-613
-569
-540
-543
-547
-525
-491
-486
-515
-527
-472
-364
-263
-219
-226
-234
-196
-115
-24
44
78
82
64
33
10
17
48
72
65
38
17
10
7
-4
-4
31
89
124
104
44
2
14
64
107
104
56
-16
-79
-99
-68
-21
-11
-65
-157
-233
-273
-303
-351
-408
-450
-473
-496
-530
-553
-530
-472
-424
-424
-461
-484
-456
-398
-368
-412
-506
-582
-598
-577
-581
-630
-674
-652
-572
-508
-507
-538
-529
-449
-339
-272
-277
-316
-328
-286
-225
-197
-214
-229
-184
-79
20
51
29
36
122
240
303
289
261
294
389
471
483
453
453
510
591
651
688
737
803
846
841
827
870
988
1121
1197
1211
1232
1317
1452
1570
1623
1617
1594
1586
1600
1613
1595
1534
1451
1389
1367
1365
1350
1320
1295
1292
1296
1284
1251
1222
1212
1213
1201
1155
1077
980
883
807
749
694
623
541
476
446
434
397
305
180
84
46
22
-59
-191
-286
-273
-196
-172
-247
-330
-297
-143
-1
7
-96
-186
-184
-110
-31
14
25
9
-1
56
214
387
427
272
37
-114
-158
-230
-427
-642
-663
-400
23
411
685
893
1077
1208
1206
1012
616
69
-490
-869
-936
-750
-516
-386
-304
-89
321
743
916
741
381
70
-114
-275
-521
-805
-982
-985
-915
-940
-1108
-1292
-1320
-1130
-810
-488
-208
97
517
1070
1670
2193
2558
2770
2877
2928
2958
2979
2986
2944
2823
2649
2490
2395
2334
2234
2067
1870
1700
1572
1458
1342
1243
1209
1260
1373
1496
1593
1681
1834
2108
2467
2804
3046
3225
3429
3689
3928
4060
4101
4163
4334
4584
4792
4882
4898
4974
5195
5518
5827
6059
6268
6557
6951
7378
7759
8105
8479
8904
9324
9691
10032
10418
10876
11359
11804
12192
12544
12891
13237
13565
13838
14007
14041
13946
13741
13413
12915
12210
11298
10181
8817
7187
5353
3415
1401
-746
-3009
-5175
-6952
-8236
-9218
-10162
-11117
-11935
-12542
-13147
-14103
-15577
-17387
-19148
-20530
-21381
-21675
-21421
-20637
-19360
-17665
-15684
-13610
-11674
-10075
-8904
-8124
-7609
-7202
-6768
-6243
-5637
-5019
-4451
-3940
-3472
-3071
-2788
-2662
-2673
-2773
-2917
-3080
-3259
-3461
-3729
-4130
-4708
-5452
-6290
-7136
-7913
-8558
-9029
-9328
-9504
-9616
-9675
-9653
-9535
-9366
-9218
-9113
-9007
-8846
-8607
-8309
-7978
-7632
-7285
-6951
-6628
-6303
-5977
-5689
-5478
-5336
-5201
-5001
-4724
-4422
-4139
-3858
-3535
-3164
-2804
-2524
-2331
-2169
-1999
-1832
-1706
-1617
-1512
-1361
-1195
-1067
-970
-842
-648
-441
-307
-270
-248
-154
11
164
240
263
298
365
424
437
420
423
474
556
641
714
775
829
890
977
1092
1200
1254
1248
1236
1280
1372
1423
1349
1172
1015
1012
1193
1460
1682
1807
1906
2081
2367
2667
2832
2801
2644
2504
2472
2531
2596
2594
2530
2462
2451
2515
2614
2687
2699
2648
2569
2510
2507
2570
2671
2752
2759
2680
2552
2437
2355
2260
2082
1819
1578
1480
1512
1496
1278
936
756
944
1382
1773
1982
2199
2704
3501
4295
4781
4930
4930
4925
4878
4688
4354
3968
3604
3254
2894
2565
2330
2199
2099
1939
1691
1411
1191
1083
1049
1001
888
731
579
454
334
202
63
-63
-179
-292
-375
-376
-280
-141
-44
-27
-62
-99
-134
-190
-266
-332
-358
-345
-317
-269
-178
-48
67
111
80
17
-38
-87
-153
-236
-306
-345
-360
-362
-344
-309
-291
-346
-481
-628
-697
-668
-620
-641
-737
-813
-787
-684
-621
-684
-851
-1025
-1127
-1148
-1118
-1059
-982
-897
-818
-744
-663
-584
-538
-542
-570
-574
-531
-467
-417
-381
-331
-258
-188
-148
-130
-97
-16
107
236
337
419
527
699
922
1128
1249
1271
1262
1293
1374
1449
1475
1480
1521
1615
1713
1761
1749
1718
1713
1745
1785
1810
1815
1814
1843
1932
2085
2253
2367
2398
2380
2367
2375
2363
2284
2146
1998
1895
1852
1843
1829
1798
1781
1813
1904
2011
2082
2100
2111
2166
2259
2328
2315
2235
2154
2114
2086
2009
1877
1754
1714
1746
1770
1717
1599
1474
1368
1264
1139
994
840
660
427
165
-56
-185
-240
-280
-330
-364
-350
-304
-252
-179
-43
142
302
379
411
488
633
774
838
847
880
953
1012
1049
1187
1551
2084
2531
2677
2573
2474
2540
2643
2487
1926
1114
358
-147
-435
-678
-1001
-1388
-1714
-1858
-1794
-1619
-1500
-1561
-1787
-2050
-2212
-2247
-2258
-2368
-2602
-2857
-3001
-3017
-3005
-3066
-3184
-3239
-3133
-2907
-2702
-2607
-2579
-2502
-2332
-2157
-2111
-2224
-2386
-2448
-2375
-2272
-2232
-2211
-2044
-1614
-987
-334
237
762
1322
1916
2461
2902
3273
3622
3931
4138
4227
4274
4366
4495
4547
4428
4154
3843
3620
3514
3457
3364
3219
3109
3126
3273
3438
3495
3419
3305
3266
3295
3280
3134
2884
2656
2533
2474
2346
2068
1694
1358
1157
1063
982
870
787
830
1010
1225
1362
1399
1382
1339
1224
991
680
393
184
23
-123
-210
-174
-67
-63
-290
-685
-1046
-1249
-1374
-1602
-2006
-2483
-2879
-3155
-3395
-3688
-4039
-4374
-4646
-4868
-5073
-5253
-5356
-5334
-5191
-4976
-4745
-4507
-4232
-3892
-3508
-3145
-2862
-2646
-2406
-2049
-1568
-1047
-589
-228
84
400
723
992
1138
1146
1064
953
835
680
462
195
-65
-265
-407
-536
-687
-848
-979
-1049
-1069
-1074
-1073
-1028
-891
-668
-432
-253
-126
12
194
374
481
509
527
596
699
779
815
846
924
1059
1213
1348
1446
1512
1569
1639
1721
1793
1828
1828
1808
1779
1739
1693
1650
1621
1586
1516
1419
1325
1257
1195
1111
995
856
691
494
299
170
132
141
110
9
-102
-143
-108
-59
-43
-41
-14
39
74
75
88
166
282
345
316
263
280
374
465
495
496
541
636
715
725
701
720
809
926
1007
1036
1065
1154
1300
1436
1487
1447
1381
1353
1357
1343
1300
1270
1297
1355
1378
1340
1299
1327
1428
1530
1544
1459
1344
1308
1392
1521
1577
1505
1367
1278
1288
1338
1347
1293
1209
1137
1106
1126
1201
1297
1362
1362
1305
1226
1157
1118
1118
1132
1108
1028
942
930
988
1010
905
729
611
596
571
416
162
-36
-64
28
116
170
296
602
1055
1501
1841
2120
2467
2931
3409
3734
3858
3878
3929
4019
4018
3807
3404
2940
2525
2165
1808
1453
1161
974
856
761
715
793
980
1145
1149
1009
868
831
831
743
549
368
326
416
490
432
279
160
142
162
108
-40
-185
-223
-165
-124
-182
-298
-358
-327
-287
-334
-449
-524
-496
-425
-414
-478
-533
-504
-417
-362
-388
-465
-522
-524
-484
-448
-448
-487
-549
-593
-601
-594
-604
-641
-666
-646
-602
-584
-590
-567
-487
-425
-500
-719
-914
-918
-759
-653
-756
-988
-1123
-1045
-876
-844
-1030
-1304
-1486
-1520
-1489
-1500
-1562
-1615
-1610
-1553
-1477
-1415
-1392
-1429
-1512
-1576
-1553
-1461
-1378
-1343
-1288
-1106
-797
-486
-291
-178
-14
239
479
574
534
481
508
581
610
567
517
520
570
628
658
665
673
689
690
650
563
471
434
467
510
469
332
195
159
208
234
165
51
-12
-10
-20
-91
-168
-167
-109
-107
-220
-372
-437
-401
-371
-440
-578
-683
-706
-704
-738
-805
-857
-866
-853
-853
-868
-873
-835
-736
-604
-503
-484
-514
-482
-323
-121
-32
-97
-181
-129
51
193
175
69
46
165
313
351
278
217
254
351
407
387
344
350
411
475
496
479
457
462
500
548
571
547
498
479
526
612
662
636
589
609
705
790
786
718
685
731
796
815
807
832
888
903
842
770
770
821
809
675
498
404
420
453
409
299
213
206
246
275
272
251
229
199
156
113
79
38
-29
-113
-193
-261
-335
-428
-515
-553
-554
-574
-630
-643
-495
-164
236
559
779
1000
1330
1761
2182
2491
2677
2795
2895
2988
3044
3022
2889
2645
2339
2038
1788
1585
1394
1207
1052
962
929
919
908
899
889
852
764
656
590
577
551
462
368
391
563
752
793
672
546
548
637
658
550
403
340
368
409
417
429
479
537
549
518
493
487
448
334
196
128
155
208
200
134
98
142
213
203
64
-144
-310
-363
-308
-193
-61
61
161
249
354
485
604
646
595
512
477
511
563
578
562
557
567
544
451
316
191
83
-43
-189
-305
-337
-312
-312
-377
-457
-492
-498
-547
-662
-785
-831
-778
-661
-512
-355
-241
-225
-295
-376
-400
-390
-420
-501
-567
-569
-542
-540
-553
-527
-453
-404
-450
-565
-644
-599
-420
-172
52
198
286
397
547
610
392
-140
-742
-1066
-987
-697
-481
-404
-279
73
589
1020
1175
1065
847
651
509
413
385
462
625
790
902
989
1132
1331
1469
1426
1241
1096
1124
1274
1402
1471
1606
1899
2220
2307
2053
1641
1368
1335
1355
1194
830
456
268
276
323
270
131
26
54
205
401
585
791
1085
1491
1966
2466
2990
3574
4228
4913
5597
6288
7017
7805
8639
9443
10187
10933
11722
12468
13040
13450
13890
14475
15034
15340
15522
15978
16727
17083
16275
14477
12957
12917
14301
15961
16998
17670
18884
21065
23743
26095
27511
27588
25942
22465
17757
12968
8978
5781
2811
-141
-2431
-3143
-2036
171
2315
3544
3625
2674
835
-1748
-4794
-7951
-11039
-14118
-17274
-20319
-22776
-24238
-24661
-24367
-23811
-23316
-22930
-22437
-21558
-20195
-18527
-16869
-15416
-14134
-12863
-11517
-10149
-8882
-7772
-6759
-5715
-4552
-3305
-2105
-1079
-225
578
1457
2446
3500
4571
5648
6738
7852
8994
10148
11260
12211
12875
13175
13104
12677
11855
10558
8726
6412
3774
1022
-1673
-4209
-6516
-8463
-10202
-11531
-12551
-13294
-13792
-14118
-14382
-14665
-14946
-15127
-15141
-15028
-14876
-14715
-14508
-14233
-13935
-13681
-13473
-13249
-12956
-12629
-12326
-12057
-11750
-11331
-10818
-10298
-9858
-9506
-9195
-8875
-8532
-8197
-7894
-7635
-7408
-7167
-6845
-6414
-5931
-5503
-5177
-4888
-4538
-4114
-3720
-3458
-3298
-3121
-2850
-2524
-2215
-1928
-1615
-1260
-913
-631
-402
-191
-9
84
80
59
98
183
229
202
187
286
490
684
778
812
884
1018
1147
1204
1215
1247
1309
1350
1319
1245
1202
1221
1273
1322
1366
1417
1467
1495
1504
1522
1566
1612
1630
1629
1630
1633
1619
1588
1578
1619
1678
1688
1625
1540
1515
1553
1595
1595
1568
1565
1593
1605
1568
1518
1510
1555
1596
1578
1514
1475
1502
1557
1575
1544
1506
1490
1480
1434
1350
1277
1255
1276
1293
1264
1199
1126
1051
951
812
662
551
490
443
367
259
176
155
176
174
104
-15
-135
-227
-293
-350
-407
-456
-469
-420
-318
-213
-156
-154
-163
-138
-82
-40
-37
-43
-19
36
92
134
185
275
396
512
593
627
620
597
605
665
728
699
533
322
223
302
451
499
402
274
250
337
423
417
335
250
198
154
81
-17
-114
-195
-268
-331
-364
-354
-304
-250
-216
-203
-186
-150
-114
-124
-209
-345
-467
-514
-483
-432
-428
-469
-474
-335
-20
401
823
1205
1593
2064
2638
3261
3839
4290
4588
4755
4852
4917
4930
4832
4595
4274
3959
3703
3491
3292
3109
2964
2863
2782
2709
2659
2633
2608
2557
2500
2474
2466
2416
2307
2199
2177
2235
2272
2200
2054
1921
1830
1733
1602
1505
1522
1631
1726
1754
1800
1970
2235
2431
2460
2416
2490
2755
3078
3268
3260
3158
3096
3099
3083
2950
2675
2305
1921
1596
1365
1218
1110
978
784
532
267
36
-156
-338
-552
-792
-1004
-1125
-1144
-1114
-1093
-1106
-1146
-1218
-1334
-1491
-1645
-1761
-1863
-2008
-2216
-2438
-2615
-2749
-2900
-3104
-3322
-3485
-3562
-3577
-3561
-3514
-3424
-3306
-3201
-3135
-3092
-3038
-2966
-2913
-2937
-3056
-3220
-3331
-3313
-3179
-3026
-2947
-2936
-2897
-2735
-2467
-2202
-2031
-1950
-1886
-1794
-1695
-1623
-1581
-1546
-1509
-1483
-1467
-1426
-1329
-1193
-1065
-957
-835
-671
-484
-319
-176
-20
152
292
363
395
455
556
633
633
610
670
853
1088
1277
1405
1544
1750
2001
2218
2342
2370
2350
2347
2394
2465
2506
2490
2450
2450
2508
2593
2666
2713
2728
2690
2580
2423
2271
2143
2003
1799
1545
1307
1145
1082
1109
1191
1291
1368
1420
1495
1633
1797
1889
1867
1804
1826
1969
2170
2345
2473
2583
2683
2760
2825
2892
2930
2890
2792
2745
2835
2985
3013
2835
2560
2357
2240
2076
1777
1418
1141
979
841
657
468
343
238
23
-372
-884
-1397
-1858
-2287
-2706
-3111
-3509
-3906
-4251
-4445
-4437
-4305
-4196
-4152
-4052
-3766
-3328
-2908
-2620
-2410
-2172
-1919
-1760
-1749
-1776
-1708
-1569
-1503
-1584
-1718
-1760
-1702
-1666
-1722
-1758
-1606
-1248
-830
-484
-191
169
643
1168
1654
2061
2380
2579
2646
2666
2763
2946
3058
2944
2648
2361
2206
2114
1962
1752
1601
1565
1577
1556
1539
1610
1742
1805
1731
1624
1629
1746
1818
1734
1577
1527
1636
1780
1806
1708
1606
1594
1647
1672
1626
1548
1494
1477
1465
1423
1347
1270
1237
1263
1314
1327
1272
1183
1114
1087
1075
1045
991
917
815
681
548
482
502
540
497
359
217
171
217
256
214
120
58
52
40
-24
-97
-103
-47
-33
-128
-264
-324
-291
-285
-409
-606
-717
-683
-607
-624
-736
-805
-752
-651
-640
-747
-862
-877
-813
-781
-827
-878
-838
-709
-594
-571
-613
-640
-620
-602
-642
-724
-771
-742
-675
-632
-606
-540
-407
-269
-213
-229
-222
-122
18
75
18
-38
36
227
391
417
353
355
500
716
856
860
790
747
781
848
883
872
844
833
850
878
909
966
1070
1181
1213
1119
986
956
1054
1136
1034
782
586
607
773
870
815
734
778
915
987
936
865
886
959
957
839
693
631
646
680
697
676
598
465
353
377
536
657
579
359
224
312
503
555
400
202
145
225
295
257
168
140
167
158
48
-109
-218
-246
-240
-261
-317
-375
-409
-423
-444
-476
-508
-529
-548
-578
-618
-640
-602
-495
-356
-245
-198
-221
-284
-342
-362
-338
-305
-316
-387
-461
-453
-339
-201
-136
-182
-282
-363
-419
-519
-711
-939
-1086
-1091
-1018
-971
-985
-984
-886
-718
-599
-627
-782
-984
-1195
-1438
-1726
-2010
-2235
-2405
-2560
-2697
-2737
-2606
-2330
-2005
-1703
-1416
-1098
-739
-357
30
422
792
1067
1193
1198
1170
1142
1051
811
434
47
-234
-425
-634
-908
-1167
-1297
-1310
-1316
-1392
-1505
-1580
-1623
-1713
-1878
-2067
-2208
-2297
-2381
-2487
-2590
-2663
-2720
-2789
-2869
-2945
-3009
-3070
-3138
-3209
-3288
-3388
-3507
-3610
-3664
-3678
-3688
-3718
-3742
-3717
-3635
-3549
-3511
-3520
-3521
-3466
-3370
-3287
-3246
-3212
-3120
-2972
-2830
-2743
-2688
-2602
-2481
-2397
-2424
-2534
-2608
-2553
-2397
-2255
-2222
-2268
-2284
-2193
-2034
-1923
-1937
-2035
-2110
-2103
-2055
-2039
-2077
-2123
-2126
-2083
-2036
-2012
-2004
-1996
-1977
-1954
-1935
-1927
-1924
-1914
-1884
-1843
-1815
-1815
-1831
-1835
-1821
-1812
-1821
-1821
-1784
-1728
-1715
-1771
-1842
-1848
-1776
-1703
-1694
-1731
-1725
-1632
-1505
-1428
-1422
-1431
-1391
-1303
-1211
-1150
-1112
-1075
-1041
-1021
-1016
-990
-917
-831
-797
-851
-939
-969
-899
-785
-728
-761
-830
-862
-846
-824
-827
-848
-873
-912
-980
-1051
-1064
-991
-877
-801
-795
-817
-792
-695
-575
-515
-548
-635
-702
-714
-705
-721
-766
-784
-733
-635
-555
-526
-523
-496
-444
-408
-420
-462
-501
-531
-569
-618
-643
-608
-537
-497
-530
-608
-660
-651
-609
-599
-653
-749
-834
-870
-855
-824
-821
-858
-911
-928
-891
-827
-790
-802
-826
-812
-744
-655
-585
-544
-516
-483
-445
-419
-420
-447
-480
-490
-470
-441
-427
-434
-440
-420
-382
-359
-373
-415
-453
-469
-466
-457
-438
-397
-338
-301
-342
-479
-652
-764
-766
-715
-700
-735
-735
-621
-432
-312
-368
-565
-783
-957
-1122
-1342
-1602
-1806
-1891
-1886
-1855
-1786
-1576
-1140
-547
4
362
585
877
1358
1900
2245
2271
2140
2114
2279
2446
2379
2053
1689
1516
1542
1563
1388
1024
658
469
482
577
623
589
539
562
691
878
1048
1108
964
562
-15
-540
-799
-810
-846
-1187
-1789
-2289
-2371
-2092
-1828
-1869
-2143
-2360
-2351
-2204
-2095
-2064
-2004
-1827
-1579
-1370
-1231
-1112
-949
-759
-622
-592
-650
-707
-679
-535
-314
-83
128
343
600
916
1280
1676
2096
2526
2951
3350
3708
4034
4341
4660
5004
5360
5713
6078
6499
7024
7631
8238
8776
9269
9775
10292
10726
10981
11083
11166
11298
11421
11480
11543
11748
12149
12674
13254
13918
14695
15504
16237
16952
17813
18786
19513
19640
19236
18761
18537
18392
17938
17152
16525
16573
17309
18260
19041
19685
20440
21357
22189
22628
22539
21903
20674
18811
16475
14043
11836
9885
7980
5937
3780
1669
-303
-2177
-4062
-6030
-8091
-10179
-12115
-13653
-14645
-15154
-15372
-15422
-15263
-14814
-14112
-13301
-12473
-11589
-10564
-9439
-8346
-7367
-6461
-5559
-4696
-4025
-3716
-3854
-4438
-5410
-6663
-8027
-9325
-10478
-11557
-12672
-13841
-14978
-16000
-16904
-17732
-18475
-19048
-19364
-19395
-19159
-18679
-17974
-17053
-15895
-14450
-12703
-10801
-9043
-7721
-6915
-6486
-6281
-6319
-6780
-7775
-9178
-10674
-11967
-12941
-13649
-14188
-14599
-14860
-14947
-14870
-14668
-14386
-14063
-13717
-13357
-12990
-12613
-12205
-11729
-11169
-10569
-10006
-9525
-9112
-8715
-8313
-7921
-7546
-7151
-6714
-6268
-5881
-5585
-5348
-5115
-4858
-4561
-4196
-3743
-3239
-2751
-2297
-1821
-1274
-712
-265
-3
134
258
401
499
507
476
493
575
654
667
639
639
685
720
671
537
395
322
320
341
357
413
598
946
1381
1779
2072
2318
2625
3024
3433
3740
3920
4038
4150
4231
4217
4103
3946
3776
3553
3227
2833
2476
2227
2070
1941
1813
1711
1655
1633
1624
1618
1603
1547
1434
1300
1218
1228
1293
1341
1352
1359
1398
1457
1496
1503
1491
1474
1439
1384
1344
1346
1377
1382
1335
1278
1273
1321
1365
1368
1361
1392
1454
1478
1414
1312
1266
1311
1383
1392
1333
1285
1322
1439
1554
1587
1536
1463
1415
1384
1330
1237
1143
1085
1057
1032
1005
998
1033
1079
1079
1031
979
962
956
905
789
647
538
481
441
375
277
191
171
215
256
229
155
147
281
492
621
572
423
338
389
487
491
369
215
149
189
266
295
249
178
155
208
311
395
401
334
248
201
208
232
226
167
77
3
-22
7
74
156
231
295
349
407
486
590
696
756
743
672
592
540
511
480
436
377
300
208
132
137
265
470
642
729
787
912
1115
1301
1373
1333
1272
1266
1313
1373
1416
1436
1438
1441
1484
1592
1735
1843
1879
1879
1903
1954
1981
1969
1969
2035
2137
2200
2196
2176
2202
2261
2288
2256
2212
2206
2217
2192
2127
2084
2123
2225
2323
2363
2345
2299
2245
2195
2140
2067
1962
1839
1744
1718
1751
1791
1805
1804
1831
1889
1932
1922
1871
1826
1815
1836
1864
1869
1841
1796
1774
1809
1887
1943
1918
1820
1733
1719
1747
1716
1563
1347
1193
1152
1154
1089
939
784
702
663
572
379
119
-149
-422
-725
-1041
-1301
-1476
-1634
-1868
-2179
-2466
-2640
-2750
-2929
-3236
-3558
-3711
-3623
-3406
-3218
-3105
-2976
-2726
-2354
-1961
-1647
-1452
-1366
-1360
-1382
-1384
-1362
-1389
-1561
-1874
-2194
-2393
-2464
-2521
-2647
-2797
-2862
-2792
-2645
-2503
-2380
-2215
-1935
-1518
-1002
-471
-16
337
636
968
1358
1722
1945
2006
2015
2111
2335
2612
2849
3022
3172
3341
3538
3734
3904
4048
4177
4306
4449
4609
4794
5015
5265
5499
5648
5682
5664
5704
5850
6029
6118
6084
6026
6063
6202
6325
6319
6195
6055
5977
5943
5877
5741
5567
5407
5275
5144
4999
4855
4727
4586
4370
4066
3752
3522
3386
3258
3045
2761
2503
2339
2224
2049
1742
1332
922
602
378
188
-33
-289
-517
-667
-763
-890
-1094
-1335
-1528
-1653
-1764
-1910
-2055
-2102
-2011
-1852
-1738
-1723
-1765
-1780
-1752
-1740
-1803
-1943
-2103
-2228
-2323
-2433
-2573
-2713
-2832
-2949
-3106
-3313
-3529
-3706
-3828
-3911
-3973
-4030
-4082
-4103
-4037
-3844
-3554
-3254
-2995
-2732
-2372
-1887
-1363
-903
-514
-122
313
743
1076
1288
1424
1514
1548
1519
1463
1428
1417
1384
1324
1302
1381
1528
1636
1643
1594
1573
1605
1637
1624
1580
1544
1519
1478
1422
1400
1434
1485
1477
1390
1287
1234
1237
1232
1173
1078
997
957
938
914
882
856
847
846
835
824
834
867
897
893
862
834
834
855
873
861
802
714
648
652
720
785
775
717
720
833
968
983
882
826
948
1168
1270
1162
995
998
1216
1475
1588
1522
1400
1338
1363
1453
1580
1695
1734
1679
1615
1660
1838
2016
2045
1904
1727
1665
1739
1829
1813
1690
1561
1507
1503
1460
1348
1235
1249
1450
1764
2050
2242
2413
2688
3128
3640
4066
4301
4360
4333
4303
4307
4314
4256
4074
3770
3423
3143
2968
2836
2650
2399
2172
2064
2078
2117
2082
1969
1851
1783
1753
1715
1651
1596
1577
1586
1613
1663
1737
1793
1771
1661
1565
1591
1725
1825
1791
1690
1653
1732
1846
1904
1912
1931
1950
1913
1832
1790
1842
1915
1898
1791
1712
1750
1856
1908
1864
1792
1770
1812
1853
1848
1811
1773
1733
1670
1582
1525
1536
1560
1501
1328
1152
1117
1233
1332
1240
990
798
825
988
1055
917
692
586
663
799
836
744
610
524
499
491
453
385
303
217
155
139
175
227
249
227
205
237
324
409
422
366
297
275
324
431
548
609
602
586
635
749
828
774
623
514
531
622
667
635
613
662
744
785
785
808
877
930
914
871
897
989
1051
1000
878
790
760
715
594
453
384
382
339
218
118
152
295
397
352
232
208
354
562
676
648
570
557
640
756
807
751
630
542
558
648
720
708
638
596
605
607
559
486
450
436
376
267
187
209
245
147
-89
-279
-274
-171
-214
-482
-765
-812
-651
-571
-774
-1127
-1329
-1253
-1053
-931
-909
-855
-701
-506
-355
-243
-108
49
152
156
112
95
138
211
282
342
380
405
418
452
504
535
526
504
517
575
632
664
699
773
868
915
883
816
786
807
843
855
842
834
843
861
875
869
837
783
704
598
473
351
261
208
148
50
-47
-24
174
480
754
923
1058
1278
1622
2023
2384
2649
2811
2881
2889
2882
2891
2884
2776
2511
2127
1747
1472
1308
1182
1021
823
648
554
546
577
592
568
507
421
325
243
202
209
235
240
214
180
171
203
259
318
360
379
376
361
353
361
389
441
505
550
552
522
512
560
629
634
538
405
337
365
420
421
371
340
374
445
501
524
527
514
463
375
297
286
339
397
407
387
402
489
610
694
703
663
632
639
665
662
609
534
490
503
545
571
578
602
671
748
761
690
599
563
584
594
554
500
496
555
626
658
652
651
685
740
783
783
738
675
642
668
726
755
729
689
692
752
816
830
794
762
783
850
907
900
832
764
761
823
876
854
775
730
794
933
1042
1060
1034
1055
1149
1240
1241
1161
1092
1107
1178
1221
1209
1190
1215
1265
1290
1310
1379
1484
1516
1397
1202
1087
1090
1089
981
829
753
719
545
157
-274
-524
-568
-571
-632
-659
-518
-219
109
388
627
799
797
565
210
-101
-308
-483
-655
-727
-598
-301
9
233
413
618
808
837
611
209
-163
-335
-301
-194
-139
-128
-65
109
355
582
747
869
959
987
938
858
817
842
921
1048
1233
1448
1632
1774
1969
2322
2803
3239
3483
3584
3736
4053
4444
4717
4792
4792
4910
5229
5671
6105
6480
6908
7540
8394
9326
10204
11070
12029
13031
13845
14342
14687
15100
15398
14938
13412
11431
10051
9618
9388
8550
7392
7037
8008
9583
10857
12056
14149
17149
19450
19349
16942
13963
11688
9514
5921
525
-5297
-9805
-12455
-13926
-15034
-15978
-16572
-16767
-16723
-16551
-16231
-15794
-15403
-15173
-14955
-14508
-13690
-12499
-11023
-9421
-7931
-6770
-6000
-5516
-5217
-5126
-5282
-5536
-5568
-5171
-4477
-3799
-3257
-2630
-1608
-147
1501
3066
4477
5806
7081
8257
9339
10445
11675
12989
14239
15324
16277
17164
17963
18579
18989
19277
19519
19639
19432
18761
17693
16419
15033
13417
11390
8944
6308
3798
1596
-322
-2077
-3741
-5297
-6717
-8009
-9217
-10358
-11399
-12303
-13073
-13747
-14348
-14841
-15171
-15344
-15436
-15529
-15627
-15667
-15609
-15490
-15364
-15216
-14957
-14546
-14082
-13732
-13552
-13415
-13141
-12700
-12226
-11861
-11588
-11273
-10838
-10345
-9915
-9590
-9308
-8999
-8661
-8341
-8069
-7838
-7626
-7428
-7257
-7127
-7030
-6918
-6718
-6381
-5920
-5404
-4885
-4358
-3787
-3166
-2546
-2008
-1605
-1342
-1177
-1057
-946
-834
-732
-646
-567
-489
-421
-368
-312
-221
-89
39
111
119
114
156
254
371
454
482
472
460
469
502
539
570
605
651
697
721
712
687
659
626
584
541
516
502
472
431
413
439
487
512
503
487
485
481
453
413
393
402
414
411
411
444
504
545
539
504
482
491
516
524
512
495
506
565
663
761
818
809
763
732
745
788
817
802
770
779
858
982
1071
1079
1031
1012
1068
1148
1157
1078
1010
1055
1191
1279
1216
1064
987
1066
1210
1275
1243
1224
1312
1468
1572
1564
1484
1394
1306
1197
1068
953
864
770
651
538
488
507
521
450
312
228
312
556
843
1069
1249
1484
1836
2251
2617
2877
3045
3150
3196
3187
3159
3141
3090
2917
2594
2211
1902
1720
1608
1484
1336
1202
1108
1048
1022
1038
1081
1088
1005
854
719
659
652
630
563
496
468
455
397
280
157
85
49
-14
-126
-244
-303
-300
-285
-290
-282
-206
-54
118
257
355
430
484
504
488
457
426
385
321
250
207
197
193
167
124
89
73
52
15
-13
-2
39
68
53
-2
-52
-63
-42
-33
-77
-160
-217
-188
-76
41
95
79
45
34
29
-5
-69
-128
-165
-181
-175
-130
-51
18
21
-47
-139
-212
-271
-334
-387
-402
-380
-357
-357
-361
-333
-291
-293
-380
-525
-664
-767
-850
-931
-994
-1005
-966
-933
-957
-1024
-1063
-1027
-941
-871
-838
-785
-629
-357
-52
171
280
363
541
845
1180
1433
1617
1881
2347
2947
3451
3679
3660
3569
3506
3386
3053
2470
1774
1137
620
184
-215
-575
-882
-1162
-1449
-1743
-2023
-2304
-2636
-3031
-3426
-3747
-3996
-4242
-4502
-4690
-4711
-4587
-4460
-4436
-4469
-4423
-4238
-3992
-3811
-3735
-3697
-3615
-3469
-3297
-3140
-3003
-2854
-2660
-2417
-2165
-1957
-1827
-1748
-1681
-1615
-1578
-1605
-1706
-1851
-2002
-2122
-2190
-2217
-2220
-2176
-2001
-1609
-1012
-324
340
974
1653
2394
3076
3553
3817
4021
4310
4668
4973
5183
5405
5758
6222
6656
6978
7244
7532
7825
8019
8069
8041
8027
8050
8090
8157
8279
8422
8487
8416
8278
8185
8158
8112
7980
7801
7656
7557
7434
7221
6929
6609
6303
6025
5765
5490
5151
4742
4349
4114
4103
4238
4374
4437
4474
4581
4821
5182
5578
5882
5983
5877
5698
5604
5612
5564
5289
4787
4232
3798
3519
3301
3063
2807
2557
2314
2080
1872
1694
1516
1304
1077
920
878
894
859
720
537
397
315
217
26
-251
-538
-776
-962
-1134
-1307
-1460
-1584
-1715
-1905
-2150
-2387
-2548
-2637
-2729
-2883
-3056
-3132
-3037
-2814
-2596
-2471
-2404
-2286
-2067
-1813
-1619
-1515
-1446
-1349
-1246
-1205
-1267
-1401
-1551
-1695
-1850
-2045
-2273
-2489
-2643
-2717
-2727
-2714
-2706
-2684
-2595
-2403
-2138
-1886
-1717
-1631
-1567
-1460
-1300
-1135
-1031
-1013
-1044
-1067
-1049
-1009
-972
-929
-845
-686
-458
-204
34
232
375
461
498
504
485
417
273
76
-92
-164
-148
-130
-161
-203
-179
-85
2
12
-50
-136
-221
-300
-359
-367
-335
-324
-358
-373
-297
-168
-109
-164
-211
-96
171
406
465
415
432
590
784
858
800
731
759
854
911
882
838
882
1023
1156
1176
1109
1079
1150
1241
1225
1099
1001
1036
1128
1114
955
770
666
596
448
237
116
188
362
449
413
393
513
705
779
665
487
420
493
582
568
476
447
562
765
925
981
971
978
1031
1081
1073
1020
988
1008
1044
1057
1051
1078
1160
1240
1247
1208
1230
1384
1592
1696
1618
1462
1397
1476
1591
1612
1539
1479
1499
1554
1568
1538
1534
1584
1616
1581
1530
1562
1688
1812
1852
1831
1807
1775
1685
1599
1660
1909
2113
1947
1357
675
321
383
533
396
-67
-539
-695
-479
-118
126
154
25
-138
-245
-240
-108
121
364
539
664
834
1144
1602
2094
2491
2725
2811
2796
2734
2685
2681
2682
2578
2297
1877
1452
1129
903
706
520
384
334
331
294
205
137
157
218
207
76
-81
-141
-106
-111
-249
-435
-493
-375
-219
-174
-219
-212
-89
31
-9
-219
-459
-579
-546
-423
-287
-183
-125
-89
-29
72
167
173
54
-126
-257
-271
-186
-56
66
153
209
256
321
394
438
430
375
313
292
338
442
559
634
647
650
707
817
904
907
845
799
809
833
800
683
518
379
311
319
352
333
235
110
45
56
72
15
-115
-246
-331
-377
-429
-506
-587
-674
-779
-891
-971
-992
-991
-1028
-1098
-1112
-1020
-885
-838
-912
-981
-907
-716
-591
-651
-797
-819
-646
-428
-360
-452
-545
-503
-354
-227
-203
-248
-285
-280
-246
-223
-230
-261
-288
-266
-184
-76
19
84
152
248
354
439
506
578
664
738
774
787
824
904
995
1041
1023
972
944
964
1008
1030
1005
951
903
878
870
865
845
806
752
690
623
560
511
497
533
587
594
509
372
299
353
461
480
348
170
101
186
316
362
319
276
292
335
340
312
310
361
416
405
329
269
301
406
498
498
421
359
385
465
511
476
408
386
433
496
514
487
463
475
507
534
547
541
505
451
433
505
648
763
775
717
694
757
839
839
738
616
555
549
534
481
422
404
423
428
381
288
191
121
66
-10
-114
-195
-173
-6
265
553
800
1020
1281
1622
2011
2363
2603
2708
2723
2713
2718
2710
2622
2407
2090
1758
1488
1297
1141
975
783
592
444
378
392
430
416
322
211
174
227
280
248
156
115
195
346
460
498
502
524
551
548
519
501
493
446
323
170
71
55
69
43
-17
-55
-32
23
59
55
25
-11
-43
-74
-99
-125
-162
-206
-233
-228
-210
-222
-294
-416
-563
-721
-869
-964
-974
-923
-881
-882
-865
-734
-486
-250
-165
-240
-367
-451
-500
-585
-735
-908
-1046
-1140
-1210
-1261
-1278
-1256
-1212
-1192
-1225
-1300
-1374
-1380
-1291
-1170
-1134
-1240
-1417
-1542
-1586
-1647
-1816
-2059
-2236
-2245
-2119
-1971
-1885
-1887
-1984
-2170
-2405
-2610
-2746
-2839
-2919
-2921
-2722
-2267
-1651
-1057
-610
-318
-136
-52
-88
-239
-446
-633
-762
-824
-792
-622
-311
57
364
580
781
1056
1419
1825
2273
2852
3628
4536
5434
6256
7081
7992
8922
9703
10274
10789
11468
12364
13320
14161
14898
15677
16570
17443
18115
18563
18973
19509
20110
20567
20806
21019
21462
22196
23125
24267
25803
27683
29299
29749
28545
26010
22840
19328
15136
9869
3781
-2170
-6941
-10046
-11729
-12625
-13284
-13883
-14261
-14213
-13797
-13408
-13478
-14112
-14982
-15637
-15816
-15563
-15061
-14477
-13937
-13553
-13391
-13407
-13471
-13463
-13334
-13098
-12762
-12335
-11867
-11436
-11083
-10776
-10450
-10104
-9816
-9642
-9496
-9194
-8630
-7903
-7238
-6798
-6576
-6457
-6352
-6265
-6249
-6337
-6527
-6771
-6986
-7090
-7049
-6893
-6689
-6482
-6284
-6078
-5850
-5576
-5225
-4795
-4304
-3764
-3141
-2398
-1529
-563
491
1636
2814
3873
4673
5238
5749
6353
6976
7387
7432
7172
6785
6370
5871
5178
4269
3228
2163
1133
149
-786
-1642
-2375
-2953
-3384
-3708
-3960
-4148
-4274
-4351
-4421
-4512
-4629
-4750
-4848
-4897
-4883
-4825
-4779
-4786
-4822
-4825
-4761
-4682
-4642
-4630
-4578
-4465
-4349
-4301
-4311
-4309
-4261
-4204
-4182
-4190
-4185
-4150
-4110
-4080
-4044
-3984
-3918
-3881
-3863
-3810
-3686
-3526
-3404
-3347
-3316
-3256
-3170
-3111
-3100
-3105
-3075
-3009
-2944
-2894
-2829
-2725
-2618
-2574
-2616
-2690
-2732
-2737
-2752
-2811
-2892
-2948
-2954
-2933
-2929
-2963
-3017
-3052
-3048
-3024
-3028
-3076
-3125
-3122
-3070
-3031
-3065
-3147
-3204
-3194
-3148
-3124
-3143
-3171
-3169
-3121
-3042
-2967
-2926
-2925
-2933
-2912
-2863
-2822
-2808
-2790
-2722
-2614
-2521
-2479
-2460
-2412
-2333
-2251
-2182
-2107
-2017
-1935
-1887
-1844
-1750
-1592
-1424
-1304
-1231
-1158
-1069
-985
-927
-888
-837
-765
-685
-597
-490
-363
-243
-153
-86
-22
39
79
92
112
166
251
338
407
466
540
619
678
697
683
661
660
689
745
810
851
861
876
938
1047
1132
1119
1016
917
898
950
997
981
939
938
999
1071
1095
1055
992
964
985
1025
1026
954
840
765
788
903
1040
1146
1226
1331
1486
1661
1806
1891
1913
1892
1852
1832
1853
1891
1895
1839
1750
1685
1665
1642
1566
1428
1268
1125
1008
907
818
736
646
547
450
377
326
270
200
135
90
51
6
-24
-6
59
121
116
40
-51
-112
-142
-167
-193
-204
-189
-147
-76
43
235
516
887
1319
1764
2175
2538
2891
3270
3665
4014
4248
4368
4432
4490
4534
4501
4338
4061
3736
3428
3159
2917
2677
2436
2216
2036
1897
1791
1706
1623
1529
1427
1336
1274
1230
1183
1117
1048
997
947
848
687
517
412
392
402
396
416
518
668
769
778
768
819
889
874
769
701
761
892
986
1091
1390
1922
2430
2570
2279
1824
1478
1194
692
-187
-1285
-2288
-3029
-3573
-4058
-4518
-4890
-5134
-5278
-5385
-5478
-5542
-5572
-5586
-5619
-5701
-5832
-5984
-6105
-6165
-6200
-6281
-6441
-6615
-6674
-6543
-6239
-5823
-5307
-4674
-3980
-3356
-2888
-2517
-2120
-1681
-1321
-1134
-1048
-888
-584
-238
21
209
463
833
1201
1407
1449
1476
1626
1897
2191
2444
2686
2961
3265
3570
3866
4148
4380
4501
4523
4548
4684
4927
5163
5298
5366
5462
5614
5738
5743
5646
5545
5508
5500
5445
5331
5227
5213
5296
5415
5492
5493
5425
5311
5183
5061
4964
4885
4805
4709
4602
4511
4447
4391
4311
4205
4106
4022
3905
3676
3327
2959
2703
2600
2571
2501
2350
2186
2105
2115
2131
2046
1832
1551
1298
1123
1019
963
938
920
887
813
714
624
544
412
176
-130
-397
-541
-568
-537
-479
-377
-213
-9
194
405
655
926
1143
1239
1239
1244
1318
1420
1435
1280
973
619
309
56
-206
-557
-1008
-1484
-1875
-2131
-2298
-2468
-2670
-2840
-2903
-2871
-2832
-2834
-2827
-2749
-2634
-2579
-2602
-2594
-2449
-2210
-2037
-2013
-2054
-2019
-1895
-1804
-1848
-1988
-2103
-2130
-2105
-2074
-2016
-1854
-1551
-1147
-717
-304
94
514
979
1486
1997
2452
2802
3045
3219
3365
3483
3525
3426
3165
2793
2405
2081
1853
1709
1625
1570
1528
1511
1542
1623
1702
1703
1600
1446
1306
1195
1086
966
869
832
831
798
696
552
424
333
258
172
71
-40
-142
-214
-253
-304
-422
-614
-809
-920
-948
-997
-1129
-1280
-1341
-1293
-1242
-1275
-1361
-1390
-1323
-1232
-1199
-1229
-1262
-1255
-1224
-1214
-1260
-1364
-1500
-1596
-1594
-1517
-1466
-1527
-1657
-1704
-1567
-1321
-1149
-1157
-1265
-1304
-1197
-1036
-976
-1059
-1171
-1192
-1132
-1090
-1120
-1159
-1128
-1044
-1014
-1073
-1125
-1082
-1008
-1068
-1300
-1519
-1517
-1325
-1205
-1331
-1579
-1648
-1414
-1066
-871
-879
-912
-794
-544
-308
-180
-122
-51
53
136
150
122
124
203
332
432
452
433
466
577
686
712
695
738
871
981
961
880
910
1098
1275
1270
1127
1045
1119
1228
1231
1171
1219
1409
1575
1558
1419
1358
1448
1565
1550
1403
1267
1232
1266
1296
1300
1307
1319
1308
1283
1287
1309
1288
1204
1116
1105
1148
1145
1049
926
881
913
930
865
740
632
584
589
624
657
648
567
444
361
362
397
382
298
209
192
255
333
377
398
425
461
482
471
455
461
475
486
476
467
475
495
501
484
457
443
441
431
387
319
260
247
287
332
325
267
223
256
328
347
277
193
170
153
23
-260
-573
-755
-778
-763
-816
-926
-994
-961
-867
-799
-834
-987
-1221
-1466
-1665
-1770
-1726
-1487
-1078
-618
-246
29
347
830
1403
1828
1933
1810
1714
1821
2047
2151
1982
1612
1262
1069
989
852
561
194
-71
-138
-75
-39
-99
-197
-266
-322
-427
-580
-709
-773
-831
-958
-1113
-1164
-1063
-937
-976
-1225
-1520
-1657
-1617
-1562
-1639
-1818
-1960
-1982
-1943
-1952
-2054
-2196
-2306
-2369
-2412
-2456
-2497
-2524
-2530
-2509
-2440
-2316
-2190
-2140
-2174
-2220
-2197
-2110
-2057
-2099
-2183
-2196
-2090
-1927
-1794
-1702
-1600
-1458
-1310
-1199
-1149
-1151
-1180
-1205
-1195
-1158
-1144
-1195
-1283
-1315
-1224
-1056
-935
-933
-999
-1025
-957
-853
-806
-835
-865
-839
-784
-766
-806
-837
-776
-632
-506
-487
-556
-618
-609
-557
-539
-594
-695
-772
-789
-760
-712
-661
-609
-545
-481
-435
-416
-417
-414
-388
-340
-299
-287
-310
-339
-324
-254
-166
-111
-103
-119
-129
-119
-95
-59
-18
12
-3
-63
-121
-123
-61
18
59
57
47
62
102
141
155
132
84
44
41
81
132
152
126
86
59
48
27
-23
-76
-93
-66
-31
-31
-62
-72
-26
40
46
-58
-237
-412
-535
-623
-707
-773
-778
-699
-567
-421
-270
-100
80
218
272
252
208
178
150
94
8
-72
-110
-94
-40
28
86
121
141
172
220
262
265
235
217
237
270
264
209
152
134
139
118
62
11
-5
-13
-60
-148
-234
-281
-298
-316
-336
-339
-324
-324
-362
-415
-443
-450
-480
-571
-701
-815
-890
-954
-1033
-1114
-1156
-1154
-1144
-1157
-1160
-1078
-889
-652
-453
-318
-193
-1
280
591
850
1022
1147
1291
1478
1657
1738
1666
1458
1177
881
581
266
-61
-363
-596
-732
-781
-767
-710
-625
-547
-526
-570
-631
-669
-715
-849
-1080
-1296
-1357
-1265
-1193
-1273
-1460
-1596
-1604
-1577
-1633
-1751
-1808
-1747
-1655
-1643
-1730
-1853
-1968
-2081
-2177
-2210
-2184
-2187
-2258
-2271
-2025
-1525
-1042
-845
-875
-822
-535
-270
-403
-951
-1487
-1609
-1370
-1184
-1316
-1577
-1611
-1318
-940
-777
-881
-1072
-1163
-1111
-973
-817
-684
-584
-490
-355
-164
48
223
341
421
487
550
635
781
995
1231
1422
1550
1657
1793
1984
2216
2465
2719
2991
3316
3701
4103
4444
4689
4877
5062
5238
5363
5454
5609
5894
6248
6569
7210
7192
6910
7127
8353
9425
10178
10652
12135
15016
17932
19883
20147
22086
26241
30994
29835
18047
718
-12712
-14846
-9105
-5256
-8057
-9468
-1791
12443
19892
12131
-3832
-11036
-4586
5551
6602
-1273
-6954
-3543
4859
8281
3507
-4168
-8310
-7519
-4031
-1408
-592
-1241
-1201
233
2165
1251
-3642
-9037
-9039
-907
9473
15481
13176
4795
-3863
-6798
-4042
1659
4669
1752
-5189
-9156
-5796
5603
18511
24014
16985
-352
-18021
-26781
-21350
-6076
9715
18237
18341
11656
3176
-3627
-6467
-4680
-322
3867
4032
721
-4280
-8678
-10901
-10652
-8712
-6338
-4613
-3980
-4163
-4477
-4310
-3490
-2267
-1074
-268
-13
-298
-1002
-1975
-3069
-4155
-5135
-5966
-6689
-7409
-8195
-8977
-9563
-9787
-9667
-9393
-9184
-9140
-9217
-9320
-9393
-9420
-9409
-9375
-9333
-9268
-9119
-8809
-8316
-7703
-7051
-6379
-5623
-4731
-3741
-2792
-2028
-1493
-1105
-742
-332
104
487
755
904
969
988
974
916
793
581
278
-79
-411
-640
-755
-823
-916
-1046
-1160
-1198
-1158
-1095
-1065
-1079
-1113
-1140
-1157
-1175
-1211
-1274
-1376
-1505
-1619
-1668
-1640
-1570
-1513
-1492
-1480
-1440
-1363
-1275
-1209
-1193
-1237
-1321
-1392
-1404
-1351
-1287
-1254
-1239
-1181
-1047
-870
-709
-601
-549
-542
-566
-592
-576
-495
-367
-250
-193
-195
-205
-176
-105
-58
-107
-258
-440
-565
-598
-571
-539
-525
-513
-484
-435
-394
-396
-452
-536
-601
-636
-671
-731
-792
-799
-741
-670
-642
-668
-713
-760
-816
-875
-912
-927
-955
-1018
-1082
-1080
-1005
-903
-816
-730
-616
-494
-427
-457
-558
-672
-758
-809
-845
-897
-977
-1059
-1100
-1080
-1026
-984
-978
-997
-1017
-1026
-1021
-998
-954
-896
-830
-762
-689
-608
-512
-413
-359
-401
-538
-675
-703
-606
-503
-525
-670
-813
-829
-729
-633
-639
-741
-869
-964
-1027
-1096
-1199
-1326
-1437
-1488
-1477
-1442
-1443
-1486
-1528
-1524
-1482
-1448
-1463
-1516
-1569
-1595
-1587
-1564
-1545
-1555
-1611
-1691
-1739
-1729
-1698
-1716
-1795
-1865
-1859
-1802
-1781
-1825
-1854
-1781
-1631
-1517
-1494
-1480
-1375
-1189
-1037
-986
-978
-898
-721
-524
-390
-326
-272
-175
-34
113
238
319
368
406
458
524
580
616
660
726
799
842
850
865
920
995
1054
1089
1136
1211
1278
1291
1264
1267
1337
1424
1446
1371
1248
1158
1142
1184
1231
1216
1110
962
887
941
1039
1037
903
798
919
1281
1702
2001
2192
2426
2785
3201
3557
3818
4019
4158
4193
4132
4060
4042
4029
3927
3771
3748
3997
4403
4669
4597
4253
3851
3482
3026
2306
1292
155
-869
-1616
-2056
-2288
-2460
-2677
-2929
-3160
-3378
-3690
-4200
-4906
-5707
-6521
-7327
-8087
-8679
-8990
-9063
-9075
-9165
-9313
-9412
-9422
-9386
-9312
-9163
-8953
-8812
-8865
-9039
-9089
-8823
-8296
-7724
-7250
-6821
-6281
-5544
-4632
-3621
-2595
-1637
-828
-167
427
1039
1657
2183
2535
2730
2848
2955
3062
3161
3244
3298
3304
3272
3242
3262
3339
3439
3548
3679
3826
3960
4041
4086
4143
4222
4263
4191
4014
3828
3708
3623
3502
3362
3323
3472
3737
3946
4011
4019
4112
4313
4521
4664
4802
5036
5366
5692
5939
6133
6324
6494
6574
6544
6467
6386
6279
6116
5942
5834
5777
5672
5471
5263
5161
5136
5030
4763
4448
4276
4292
4328
4198
3891
3557
3324
3167
2972
2669
2301
1941
1586
1181
721
292
-14
-222
-493
-938
-1456
-1830
-1978
-2059
-2295
-2720
-3164
-3471
-3672
-3881
-4105
-4230
-4192
-4070
-3963
-3855
-3651
-3339
-3038
-2846
-2735
-2606
-2432
-2265
-2132
-1970
-1695
-1322
-939
-601
-287
44
372
658
892
1109
1316
1461
1494
1450
1408
1406
1408
1352
1228
1095
1005
949
885
787
671
569
499
467
455
435
388
329
299
326
396
480
564
662
786
923
1043
1123
1157
1157
1141
1130
1138
1161
1190
1226
1285
1379
1497
1601
1649
1620
1523
1402
1305
1235
1144
986
792
659
642
684
676
596
559
691
983
1287
1475
1577
1745
2072
2473
2767
2861
2820
2777
2799
2830
2770
2571
2269
1941
1652
1425
1237
1032
792
556
391
310
261
185
91
40
37
19
-70
-185
-227
-174
-115
-142
-241
-320
-327
-285
-243
-217
-210
-230
-259
-235
-117
34
108
73
19
34
85
72
-19
-84
-43
45
65
7
-27
40
159
237
244
242
255
235
136
-10
-117
-156
-180
-243
-326
-365
-329
-248
-176
-145
-157
-185
-205
-213
-213
-223
-247
-269
-272
-258
-250
-256
-253
-210
-145
-113
-154
-221
-232
-142
-1
84
72
15
-3
43
94
92
51
24
47
106
159
208
275
371
477
563
593
577
548
544
598
690
753
739
683
684
797
974
1112
1160
1136
1080
999
901
824
816
856
872
826
777
809
925
1033
1052
986
908
855
806
697
519
346
260
268
310
314
273
250
267
282
229
104
-21
-79
-76
-57
-42
-14
48
122
175
209
254
311
349
326
252
184
173
217
256
229
150
94
135
251
340
311
183
77
82
155
172
57
-136
-276
-295
-247
-228
-272
-318
-292
-193
-79
-7
9
-27
-95
-161
-177
-131
-76
-75
-119
-117
-12
137
216
197
177
269
453
602
617
540
489
523
603
652
639
599
572
567
566
562
556
547
527
488
436
380
325
263
192
113
29
-74
-218
-396
-557
-660
-737
-856
-1038
-1189
-1179
-985
-718
-515
-394
-260
-32
272
568
789
923
1000
1050
1099
1144
1135
1005
742
434
187
22
-131
-334
-557
-704
-733
-691
-656
-662
-670
-637
-570
-516
-537
-653
-806
-901
-884
-789
-697
-657
-643
-607
-537
-454
-370
-300
-280
-343
-451
-506
-446
-332
-291
-359
-442
-432
-345
-291
-330
-394
-397
-346
-327
-369
-392
-322
-190
-103
-120
-183
-205
-180
-172
-222
-290
-312
-282
-252
-265
-292
-283
-248
-246
-307
-389
-427
-420
-432
-511
-622
-692
-704
-697
-706
-730
-742
-741
-742
-750
-747
-729
-720
-739
-770
-784
-778
-774
-782
-777
-735
-670
-626
-625
-635
-602
-512
-407
-336
-316
-316
-301
-260
-209
-163
-132
-116
-101
-79
-39
26
103
171
207
215
229
282
372
458
503
514
542
622
735
826
868
876
877
863
815
744
691
675
672
661
666
732
862
991
1055
1060
1059
1080
1096
1077
1047
1054
1109
1168
1191
1188
1194
1218
1237
1227
1180
1106
1025
964
944
949
926
836
713
636
630
636
584
501
483
578
716
793
797
810
879
948
922
801
690
676
726
741
679
609
614
693
758
737
652
593
627
720
787
774
715
684
708
738
715
646
590
583
590
567
528
537
614
698
714
658
594
576
575
536
448
359
325
342
353
307
222
177
237
374
480
459
325
183
128
153
183
153
55
-70
-176
-225
-218
-200
-223
-283
-302
-212
-40
123
227
319
476
711
996
1322
1668
1965
2150
2240
2322
2411
2374
2078
1601
1179
929
707
292
-290
-768
-925
-818
-679
-642
-652
-614
-522
-419
-326
-260
-283
-442
-646
-694
-465
-65
257
365
366
482
814
1242
1549
1622
1534
1470
1549
1734
1898
1975
2044
2232
2560
2905
3140
3274
3440
3752
4168
4555
4856
5146
5518
5954
6320
6515
6573
6622
6755
6955
7148
7308
7489
7782
8227
8784
9374
9966
10586
11615
11921
11767
11724
12778
15101
16436
15680
15691
18595
22752
23882
21680
21977
28864
-29321
32219
14222
-5748
-11077
-2494
4966
-325
-12245
-16426
-7615
2301
2746
-2882
-3277
3856
8421
1803
-10993
-17075
-10857
1348
9901
13248
13861
12633
8216
1925
470
8293
19610
23890
15251
-1788
-16618
-21386
-15064
-1289
14675
26225
28113
16892
-2340
-20484
-29335
-26554
-14985
-2154
6703
8170
2184
-8131
-18015
-23605
-23335
-18180
-10915
-4726
-1769
-2397
-5380
-8823
-11164
-11728
-10737
-8981
-7395
-6662
-6980
-8083
-9442
-10551
-11125
-11133
-10716
-10080
-9431
-8940
-8691
-8657
-8713
-8745
-8746
-8810
-9013
-9314
-9571
-9692
-9719
-9772
-9930
-10171
-10438
-10706
-10935
-11025
-10854
-10416
-9850
-9319
-8853
-8347
-7735
-7106
-6630
-6381
-6259
-6107
-5872
-5640
-5516
-5495
-5464
-5321
-5067
-4773
-4499
-4250
-3997
-3715
-3419
-3140
-2898
-2690
-2475
-2218
-1942
-1716
-1597
-1555
-1492
-1351
-1180
-1070
-1037
-1008
-909
-759
-634
-568
-534
-503
-489
-512
-536
-500
-385
-244
-139
-87
-71
-80
-127
-209
-303
-411
-566
-775
-982
-1102
-1110
-1050
-963
-820
-564
-188
240
643
1009
1380
1771
2153
2479
2732
2929
3087
3199
3241
3205
3109
2984
2846
2678
2445
2154
1872
1687
1615
1585
1511
1382
1259
1197
1178
1136
1043
939
872
847
837
829
840
881
934
964
959
928
886
832
769
719
702
721
752
777
801
837
883
921
922
887
846
827
825
812
773
730
723
761
809
825
799
745
677
607
568
595
680
758
784
784
823
909
968
930
812
681
558
411
232
81
10
-14
-56
-100
-59
102
284
356
302
235
233
256
207
57
-116
-225
-267
-302
-374
-468
-518
-475
-354
-233
-190
-234
-301
-319
-293
-297
-384
-522
-616
-611
-542
-489
-489
-499
-450
-324
-164
-28
73
182
337
521
669
750
796
866
987
1110
1175
1173
1160
1192
1275
1367
1428
1467
1523
1621
1733
1820
1882
1958
2075
2203
2283
2303
2326
2415
2556
2668
2683
2626
2572
2568
2599
2622
2610
2573
2538
2531
2569
2643
2734
2803
2843
2874
2921
2976
3002
2969
2882
2792
2746
2751
2771
2755
2684
2590
2528
2521
2552
2573
2561
2534
2535
2586
2666
2740
2795
2861
2968
3098
3214
3326
3503
3802
4177
4495
4659
4683
4655
4607
4478
4176
3684
3087
2489
1944
1432
917
376
-187
-737
-1216
-1593
-1882
-2125
-2354
-2539
-2639
-2638
-2584
-2542
-2534
-2540
-2539
-2540
-2577
-2678
-2808
-2885
-2836
-2656
-2433
-2285
-2269
-2342
-2404
-2405
-2395
-2473
-2695
-3024
-3350
-3572
-3675
-3730
-3829
-3997
-4142
-4127
-3895
-3541
-3226
-3024
-2852
-2573
-2142
-1640
-1174
-796
-496
-262
-97
20
130
220
201
-17
-395
-740
-854
-723
-532
-468
-532
-549
-380
-83
147
200
135
85
93
104
77
66
144
306
473
590
675
782
925
1075
1210
1342
1503
1694
1878
2015
2089
2137
2224
2402
2689
3076
3538
4040
4533
4982
5399
5827
6273
6655
6875
6926
6902
6911
6972
7019
6999
6920
6810
6670
6479
6252
6033
5862
5736
5634
5539
5434
5306
5163
5052
5015
5031
5003
4853
4607
4397
4341
4409
4447
4307
3968
3521
3050
2536
1902
1135
324
-423
-1111
-1860
-2767
-3796
-4818
-5736
-6571
-7403
-8255
-9061
-9716
-10143
-10330
-10330
-10232
-10102
-9934
-9670
-9265
-8760
-8249
-7783
-7321
-6798
-6210
-5627
-5096
-4598
-4092
-3587
-3132
-2752
-2422
-2090
-1733
-1378
-1064
-797
-550
-289
-10
245
427
548
678
868
1083
1235
1283
1273
1275
1297
1298
1263
1238
1275
1369
1467
1526
1548
1559
1563
1553
1521
1465
1389
1308
1238
1183
1133
1074
1010
972
978
1006
1020
1010
986
970
965
968
975
968
918
820
721
688
734
796
796
720
630
588
598
625
628
585
489
362
278
300
397
445
362
216
167
266
370
311
92
-108
-127
14
179
283
334
389
460
523
569
618
663
652
530
318
131
81
179
301
306
187
82
131
297
420
410
327
303
361
409
392
389
490
649
733
678
566
517
535
537
480
419
400
376
289
191
238
509
890
1176
1288
1361
1584
1987
2427
2773
3026
3235
3384
3424
3400
3425
3517
3526
3286
2823
2365
2117
2046
1941
1666
1273
923
752
762
852
889
784
577
418
417
508
525
399
259
269
409
503
461
378
400
510
558
494
418
427
467
430
325
265
325
439
499
489
470
506
582
604
494
285
124
174
436
671
609
269
-13
63
390
544
271
-203
-446
-295
-21
27
-193
-412
-397
-187
-8
-12
-131
-177
-71
72
77
-97
-309
-384
-324
-253
-300
-467
-647
-727
-658
-506
-423
-519
-728
-829
-689
-444
-379
-595
-891
-999
-901
-796
-843
-999
-1134
-1200
-1230
-1211
-1094
-921
-817
-850
-915
-844
-617
-377
-282
-321
-383
-372
-296
-199
-114
-76
-104
-168
-214
-214
-177
-131
-76
1
96
166
179
131
55
-5
-34
-27
5
29
36
53
129
261
377
389
281
125
6
-57
-94
-119
-106
-65
-74
-195
-370
-454
-385
-281
-332
-558
-775
-784
-569
-308
-174
-191
-253
-257
-193
-136
-162
-277
-430
-542
-541
-426
-275
-207
-291
-486
-654
-681
-596
-569
-726
-1017
-1243
-1265
-1133
-1031
-1072
-1200
-1288
-1277
-1197
-1090
-959
-809
-678
-589
-514
-405
-276
-201
-223
-284
-300
-284
-321
-435
-523
-480
-340
-258
-322
-439
-438
-296
-165
-167
-254
-290
-235
-179
-198
-250
-257
-249
-319
-470
-576
-541
-429
-400
-510
-640
-655
-560
-494
-553
-698
-833
-920
-984
-1028
-998
-845
-608
-384
-207
-9
292
685
1094
1453
1746
1961
2068
2073
2041
2020
1955
1732
1334
915
649
547
447
219
-73
-249
-223
-103
-68
-184
-355
-445
-416
-349
-347
-429
-526
-555
-516
-473
-470
-490
-488
-464
-456
-485
-507
-464
-369
-288
-269
-302
-339
-360
-370
-365
-330
-273
-244
-278
-351
-402
-393
-352
-337
-373
-433
-474
-475
-450
-429
-430
-448
-462
-460
-447
-439
-438
-428
-403
-382
-394
-429
-441
-395
-321
-278
-289
-312
-293
-222
-143
-103
-115
-159
-202
-212
-166
-64
48
118
138
157
222
315
360
309
199
116
104
130
143
133
145
205
290
350
361
334
289
238
182
132
100
106
171
299
456
592
698
814
975
1138
1220
1194
1125
1093
1095
1070
1015
1001
1062
1119
1067
945
925
1095
1309
1328
1100
841
790
939
1075
1042
910
848
905
995
1039
1063
1125
1201
1204
1114
1022
1029
1123
1188
1144
1026
950
980
1052
1042
888
646
425
288
219
165
87
-42
-223
-403
-463
-308
11
300
410
365
325
388
499
556
513
382
172
-83
-250
-187
62
233
120
-157
-253
-18
304
329
-23
-443
-593
-446
-248
-201
-259
-249
-98
96
179
77
-156
-390
-503
-423
-154
236
656
1033
1312
1469
1509
1482
1462
1481
1502
1466
1382
1371
1583
2047
2603
3006
3140
3094
3041
3062
3067
2924
2622
2298
2096
2034
2017
1961
1857
1728
1562
1341
1116
1007
1121
1468
1974
2555
3119
3543
3728
3728
3744
3914
4120
4088
3722
3270
3065
3160
3295
3233
3025
2881
2888
2955
3005
3101
3321
3600
3795
3915
4141
4607
5238
5835
6306
6732
7228
7814
8435
9048
9602
10053
10412
10799
11359
12093
12855
13548
14296
15297
16590
18089
19783
21763
23945
25863
26931
26976
26377
25560
24428
22392
18976
14309
9014
3744
-1115
-5406
-9079
-12173
-14779
-16907
-18385
-18997
-18766
-18076
-17476
-17300
-17490
-17712
-17637
-17179
-16534
-16011
-15777
-15725
-15586
-15157
-14464
-13668
-12868
-12037
-11124
-10175
-9286
-8464
-7574
-6486
-5270
-4184
-3460
-3108
-2937
-2761
-2533
-2305
-2122
-1974
-1836
-1691
-1521
-1312
-1087
-909
-828
-823
-813
-753
-671
-615
-594
-592
-614
-684
-781
-857
-927
-1086
-1429
-1925
-2452
-2963
-3533
-4240
-5025
-5736
-6317
-6875
-7525
-8239
-8873
-9351
-9733
-10106
-10464
-10723
-10844
-10881
-10895
-10890
-10846
-10790
-10773
-10798
-10807
-10757
-10679
-10629
-10602
-10526
-10349
-10091
-9814
-9562
-9339
-9131
-8924
-8701
-8462
-8229
-8059
-7968
-7905
-7801
-7654
-7527
-7467
-7447
-7376
-7197
-6929
-6629
-6341
-6070
-5790
-5470
-5105
-4722
-4381
-4121
-3921
-3712
-3451
-3163
-2908
-2695
-2486
-2255
-2026
-1844
-1703
-1555
-1386
-1238
-1162
-1131
-1066
-906
-673
-436
-225
-16
211
439
643
806
915
957
917
824
737
696
686
671
645
644
698
798
901
961
963
916
855
817
812
795
723
617
550
564
615
622
573
548
612
714
746
668
559
513
514
463
308
123
26
40
85
96
119
266
586
1005
1398
1705
1947
2178
2435
2711
2971
3170
3279
3314
3323
3340
3354
3320
3196
2962
2662
2362
2106
1889
1677
1458
1271
1168
1146
1160
1188
1261
1402
1542
1588
1533
1482
1502
1514
1365
1045
726
592
642
717
701
631
628
736
901
1038
1111
1125
1081
988
888
829
832
878
914
910
868
824
805
792
745
636
494
373
295
249
209
148
52
-86
-255
-403
-482
-480
-442
-430
-453
-460
-391
-255
-129
-97
-170
-272
-316
-284
-242
-250
-286
-273
-185
-73
-19
-35
-73
-86
-70
-56
-51
-45
-20
44
157
295
403
431
401
397
464
551
566
499
447
504
652
786
842
855
909
1031
1174
1291
1400
1531
1671
1775
1834
1907
2044
2214
2334
2364
2360
2402
2500
2591
2621
2614
2645
2745
2871
2964
3021
3097
3242
3433
3587
3654
3668
3701
3782
3844
3798
3625
3401
3231
3150
3115
3056
2944
2824
2768
2818
2922
2973
2915
2803
2743
2762
2764
2662
2510
2474
2623
2836
2935
2895
2860
2942
3077
3094
2913
2602
2279
1995
1746
1549
1420
1325
1201
1040
907
840
762
535
122
-363
-790
-1135
-1478
-1848
-2171
-2364
-2442
-2488
-2567
-2660
-2730
-2788
-2884
-3040
-3236
-3441
-3646
-3836
-3970
-4031
-4055
-4116
-4242
-4365
-4398
-4340
-4308
-4426
-4691
-4950
-5036
-4917
-4722
-4601
-4562
-4469
-4195
-3768
-3364
-3130
-3059
-3024
-2931
-2781
-2630
-2492
-2330
-2108
-1833
-1562
-1346
-1204
-1117
-1063
-1054
-1126
-1280
-1431
-1447
-1234
-798
-224
404
1023
1598
2130
2681
3300
3929
4398
4580
4547
4513
4618
4773
4784
4586
4313
4142
4126
4186
4249
4310
4390
4475
4545
4598
4652
4713
4758
4780
4817
4893
4977
5011
4990
4982
5040
5121
5110
4947
4702
4502
4411
4398
4432
4554
4841
5314
5904
6547
7252
8064
8966
9848
10586
11133
11538
11863
12089
12114
11835
11238
10406
9405
8236
6884
5404
3902
2425
915
-687
-2315
-3784
-4974
-5937
-6806
-7629
-8343
-8886
-9258
-9460
-9451
-9215
-8850
-8516
-8277
-8035
-7654
-7137
-6631
-6273
-6055
-5850
-5552
-5170
-4781
-4458
-4213
-4018
-3846
-3692
-3571
-3485
-3412
-3323
-3209
-3088
-2985
-2889
-2772
-2616
-2427
-2229
-2048
-1895
-1769
-1648
-1501
-1316
-1114
-945
-832
-740
-613
-427
-215
-36
81
169
286
457
654
834
978
1094
1191
1273
1343
1408
1473
1522
1542
1532
1508
1478
1447
1413
1376
1339
1297
1241
1176
1117
1073
1024
948
835
713
628
591
565
513
431
371
376
439
517
581
649
744
852
940
1010
1078
1145
1188
1177
1145
1150
1212
1279
1291
1250
1226
1262
1327
1350
1299
1207
1132
1103
1100
1091
1081
1103
1175
1277
1359
1373
1310
1216
1169
1214
1303
1322
1217
1079
1078
1267
1481
1522
1377
1243
1293
1467
1577
1546
1502
1582
1753
1861
1849
1802
1821
1886
1888
1778
1625
1519
1504
1538
1571
1577
1564
1570
1634
1735
1792
1739
1620
1546
1558
1574
1501
1359
1256
1225
1172
1003
764
626
661
730
646
423
292
467
912
1384
1675
1788
1900
2176
2632
3133
3489
3582
3464
3335
3357
3484
3494
3220
2738
2310
2102
2042
1932
1688
1425
1298
1321
1356
1277
1112
999
1016
1066
991
752
490
381
446
534
485
307
145
108
163
211
211
188
165
115
26
-56
-83
-64
-58
-99
-150
-160
-108
-20
53
61
-24
-178
-337
-450
-511
-547
-547
-486
-372
-274
-237
-237
-196
-100
-38
-110
-326
-606
-878
-1122
-1323
-1416
-1338
-1121
-883
-696
-506
-227
111
329
288
31
-273
-511
-706
-902
-1052
-1080
-1016
-983
-1048
-1125
-1085
-981
-1002
-1254
-1617
-1882
-1958
-1927
-1876
-1806
-1689
-1555
-1458
-1381
-1269
-1132
-1074
-1158
-1301
-1349
-1247
-1092
-1017
-1046
-1088
-1062
-963
-848
-780
-781
-833
-913
-1010
-1116
-1225
-1314
-1366
-1387
-1388
-1372
-1326
-1238
-1120
-1001
-886
-771
-688
-686
-763
-838
-823
-732
-668
-702
-779
-781
-660
-487
-364
-311
-283
-260
-271
-332
-404
-420
-370
-319
-314
-334
-323
-268
-219
-215
-256
-317
-380
-453
-523
-561
-546
-509
-500
-530
-561
-551
-511
-493
-528
-573
-565
-508
-470
-502
-560
-563
-497
-439
-461
-539
-597
-599
-570
-535
-472
-367
-271
-255
-314
-346
-278
-158
-104
-155
-229
-226
-141
-42
15
33
36
27
2
-20
-25
-18
-26
-59
-88
-75
-17
52
95
105
109
136
169
160
76
-57
-188
-292
-382
-467
-537
-600
-693
-826
-928
-884
-693
-506
-473
-568
-583
-351
52
387
513
524
616
882
1232
1528
1729
1881
2022
2139
2199
2201
2157
2064
1898
1655
1375
1105
881
709
587
515
498
519
543
552
551
564
593
606
565
466
352
274
243
241
249
267
298
324
316
272
228
226
268
313
314
266
217
224
305
411
469
454
406
374
362
326
251
176
163
207
246
241
222
234
259
240
165
86
39
0
-69
-136
-124
-29
45
-4
-137
-211
-156
-73
-102
-233
-301
-189
12
117
78
52
178
368
386
138
-177
-264
-55
233
356
304
278
432
707
921
971
897
797
709
613
525
489
519
544
468
281
89
18
74
139
87
-80
-237
-285
-260
-283
-387
-447
-296
82
516
801
896
941
1091
1328
1460
1321
929
481
176
59
38
27
35
119
278
434
530
591
680
801
873
819
680
597
657
790
840
742
589
511
497
391
83
-339
-664
-760
-667
-489
-274
-9
295
581
800
969
1126
1269
1340
1298
1175
1058
1038
1161
1395
1647
1838
1960
2093
2305
2585
2856
3062
3234
3434
3678
3933
4172
4401
4631
4806
4826
4632
4285
3949
3795
3870
4083
4295
4430
4519
4649
4849
5071
5226
5263
5183
5014
4792
4514
4339
4185
4125
4164
4284
4460
4692
5000
5381
5782
6132
6421
6735
7159
7664
8188
8744
9423
10242
11107
11958
12873
13922
15004
15963
16934
18399
20659
23331
25583
26923
27672
28451
29300
29490
28301
25877
23171
21092
19801
18829
17773
16730
16023
15571
14658
12431
8666
3996
-696
-5075
-9444
-14084
-18553
-21832
-23176
-22755
-21440
-20015
-18669
-17172
-15342
-13302
-11356
-9705
-8318
-7053
-5812
-4614
-3532
-2616
-1899
-1462
-1412
-1771
-2409
-3149
-3893
-4644
-5381
-5995
-6393
-6672
-7102
-7903
-9050
-10309
-11487
-12599
-13787
-15116
-16469
-17631
-18448
-18901
-19073
-19062
-18930
-18709
-18414
-18026
-17501
-16798
-15914
-14884
-13751
-12516
-11137
-9596
-7959
-6392
-5078
-4126
-3539
-3249
-3204
-3391
-3804
-4409
-5133
-5912
-6708
-7495
-8237
-8899
-9473
-9969
-10379
-10665
-10797
-10808
-10773
-10751
-10738
-10694
-10595
-10449
-10257
-10008
-9706
-9397
-9130
-8899
-8640
-8297
-7881
-7460
-7094
-6795
-6532
-6268
-5979
-5655
-5300
-4921
-4512
-4055
-3532
-2958
-2392
-1906
-1525
-1225
-975
-773
-636
-571
-543
-491
-387
-254
-140
-54
47
216
447
668
791
802
773
808
954
1158
1313
1356
1327
1330
1432
1601
1743
1797
1779
1760
1790
1873
1982
2065
2071
1982
1841
1727
1677
1647
1572
1459
1380
1391
1459
1508
1507
1484
1466
1438
1373
1295
1245
1227
1190
1116
1053
1067
1162
1266
1304
1260
1184
1140
1151
1190
1187
1096
952
867
933
1119
1299
1385
1427
1547
1780
2024
2150
2141
2082
2049
2030
1980
1910
1872
1883
1893
1845
1759
1707
1742
1820
1861
1829
1760
1724
1746
1808
1872
1915
1932
1918
1870
1795
1707
1619
1546
1511
1535
1616
1714
1775
1780
1752
1732
1729
1714
1642
1499
1315
1148
1038
975
915
838
796
891
1179
1600
2005
2275
2426
2581
2846
3190
3458
3522
3408
3261
3208
3224
3172
2960
2625
2276
1989
1735
1458
1145
839
580
366
176
5
-130
-224
-284
-330
-374
-419
-463
-501
-523
-533
-537
-535
-519
-489
-467
-484
-538
-600
-626
-608
-594
-631
-728
-840
-913
-928
-898
-842
-781
-715
-638
-542
-431
-327
-266
-261
-279
-268
-204
-119
-67
-57
-49
-2
79
160
227
289
355
429
516
628
764
888
969
1024
1106
1232
1340
1349
1270
1204
1242
1358
1445
1439
1382
1356
1391
1449
1501
1555
1629
1713
1783
1837
1891
1949
1988
1996
1982
1962
1916
1813
1653
1486
1356
1276
1248
1278
1366
1478
1566
1632
1725
1876
2036
2104
2046
1933
1870
1887
1932
1951
1947
1965
2029
2131
2267
2431
2598
2727
2814
2905
3049
3210
3307
3301
3278
3372
3620
3923
4155
4322
4565
4992
5526
5943
6085
6006
5886
5793
5581
5057
4245
3389
2699
2149
1564
897
302
-91
-386
-813
-1450
-2139
-2698
-3146
-3656
-4316
-5011
-5563
-5902
-6088
-6197
-6262
-6299
-6333
-6378
-6410
-6408
-6404
-6460
-6605
-6798
-6953
-7003
-6921
-6709
-6409
-6081
-5780
-5495
-5146
-4636
-3937
-3141
-2412
-1850
-1415
-983
-478
36
417
588
617
660
829
1128
1491
1835
2125
2395
2721
3139
3579
3887
3972
3911
3881
3979
4127
4179
4105
4028
4080
4263
4461
4558
4525
4399
4239
4122
4119
4245
4406
4473
4412
4320
4307
4366
4373
4243
4017
3811
3670
3521
3285
2993
2779
2745
2859
2999
3072
3103
3205
3479
3933
4465
4919
5197
5312
5357
5397
5392
5239
4891
4416
3926
3483
3084
2727
2432
2201
1985
1737
1466
1210
976
722
440
204
96
100
99
7
-124
-177
-131
-114
-262
-570
-895
-1124
-1282
-1461
-1679
-1855
-1923
-1930
-1983
-2107
-2212
-2213
-2153
-2156
-2282
-2449
-2539
-2525
-2485
-2491
-2534
-2560
-2561
-2569
-2587
-2571
-2501
-2434
-2438
-2498
-2538
-2527
-2528
-2602
-2699
-2703
-2585
-2455
-2404
-2350
-2113
-1646
-1132
-797
-657
-522
-246
98
315
320
204
97
26
-29
-44
29
169
280
287
242
270
398
522
519
372
189
99
131
211
237
194
164
230
374
482
471
390
374
485
636
703
677
673
790
996
1175
1260
1279
1284
1284
1262
1222
1211
1255
1313
1327
1283
1223
1221
1289
1359
1366
1305
1235
1208
1204
1177
1113
1062
1068
1110
1125
1078
995
924
875
840
798
734
639
518
403
328
291
238
115
-73
-281
-459
-575
-621
-605
-572
-581
-619
-597
-443
-216
-68
-64
-113
-78
43
132
137
141
232
353
360
240
154
230
395
442
311
154
160
336
531
627
642
656
700
741
754
761
787
830
872
912
969
1037
1080
1043
939
834
782
750
649
455
277
271
459
681
749
637
501
490
596
680
642
512
381
315
336
451
635
818
921
936
940
1011
1114
1136
1029
880
792
767
709
556
392
327
352
340
223
112
192
512
920
1230
1422
1625
1953
2375
2775
3087
3331
3543
3693
3731
3666
3563
3474
3369
3157
2787
2312
1883
1622
1527
1470
1364
1056
834
800
951
1130
1155
985
751
604
582
598
561
473
403
405
458
501
506
492
505
558
607
595
511
419
396
459
537
547
487
434
455
516
530
465
391
392
453
493
462
418
450
556
644
638
568
527
559
624
650
618
553
496
478
518
604
677
669
589
510
491
513
499
416
311
249
243
247
232
203
168
102
-4
-111
-168
-176
-197
-274
-372
-422
-410
-404
-462
-574
-688
-784
-891
-1022
-1129
-1170
-1152
-1123
-1079
-956
-743
-536
-455
-510
-595
-636
-669
-754
-859
-877
-762
-588
-425
-241
34
355
567
596
535
539
630
677
580
395
260
250
332
412
426
363
273
242
334
509
648
664
607
615
748
914
978
896
754
671
661
638
522
342
227
275
444
570
528
384
319
432
606
625
435
213
159
263
317
170
-66
-156
-18
191
267
189
114
159
279
339
284
180
107
67
32
12
38
99
142
140
127
156
237
318
363
390
424
465
512
568
640
709
746
747
739
742
740
713
674
660
678
695
688
670
675
710
740
742
724
711
713
719
718
715
716
720
717
699
658
597
533
472
409
335
260
201
153
85
-26
-149
-234
-285
-381
-570
-774
-831
-640
-265
129
442
716
1060
1521
2030
2460
2720
2800
2755
2660
2561
2446
2262
1976
1625
1289
1018
801
597
407
279
232
223
186
119
82
113
172
181
119
33
-22
-36
-23
18
103
213
301
333
333
350
407
482
531
528
479
430
442
542
692
807
828
778
733
736
769
786
764
718
678
664
675
697
715
733
761
793
798
751
672
621
633
672
674
614
534
493
514
564
594
590
572
575
609
644
640
584
498
411
324
236
174
179
254
356
443
520
608
689
697
600
440
292
180
73
-26
-64
-23
32
16
-53
-73
-1
72
19
-145
-255
-204
-86
-101
-308
-526
-538
-340
-148
-138
-244
-255
-84
146
280
321
386
516
615
608
582
684
908
1078
1066
957
932
1021
1062
927
707
603
663
718
608
406
308
365
402
245
-40
-222
-192
-85
-81
-154
-118
115
386
468
341
214
259
413
458
295
65
-23
91
291
453
588
798
1128
1517
1864
2115
2271
2350
2376
2386
2411
2426
2381
2270
2187
2228
2375
2492
2471
2370
2331
2392
2427
2278
1967
1703
1651
1736
1721
1474
1123
944
1098
1507
1967
2359
2732
3207
3847
4595
5311
5866
6249
6570
6960
7449
7967
8453
8940
9471
10010
10477
10867
11218
11429
11250
10590
9764
9378
9822
10895
12011
12800
13480
14603
16390
18383
19795
20253
20145
20159
20439
20283
18776
15743
11961
8402
5373
2456
-757
-4026
-6612
-7948
-8091
-7561
-6877
-6251
-5625
-4875
-3995
-3141
-2514
-2189
-2080
-1981
-1741
-1358
-907
-492
-250
-343
-864
-1757
-2839
-3952
-5049
-6131
-7152
-8023
-8714
-9323
-9973
-10653
-11189
-11398
-11233
-10782
-10143
-9353
-8430
-7416
-6347
-5227
-4070
-2940
-1927
-1047
-229
594
1413
2179
2870
3531
4209
4889
5498
5946
6174
6159
5909
5457
4803
3912
2766
1437
68
-1220
-2415
-3583
-4758
-5896
-6937
-7883
-8780
-9648
-10454
-11153
-11754
-12290
-12764
-13143
-13410
-13606
-13790
-13971
-14110
-14180
-14201
-14198
-14145
-13984
-13702
-13368
-13056
-12786
-12531
-12276
-12055
-11881
-11710
-11496
-11262
-11067
-10916
-10724
-10402
-9979
-9570
-9246
-8961
-8626
-8245
-7904
-7666
-7490
-7288
-7037
-6793
-6618
-6495
-6347
-6132
-5870
-5630
-5439
-5258
-5046
-4812
-4610
-4470
-4352
-4195
-3995
-3817
-3709
-3627
-3477
-3233
-2975
-2806
-2732
-2653
-2484
-2257
-2082
-2023
-2021
-1965
-1805
-1608
-1483
-1458
-1463
-1418
-1322
-1243
-1218
-1202
-1123
-987
-858
-782
-713
-575
-358
-157
-66
-82
-128
-130
-95
-73
-90
-129
-162
-201
-260
-319
-322
-260
-217
-281
-429
-508
-394
-156
3
-43
-220
-357
-384
-390
-472
-611
-729
-789
-814
-809
-707
-489
-240
-81
-31
-7
53
116
111
60
50
102
128
47
-89
-151
-80
24
32
-77
-220
-323
-375
-390
-355
-259
-155
-113
-141
-172
-142
-73
-47
-96
-178
-242
-268
-288
-315
-336
-342
-334
-312
-265
-203
-144
-114
-128
-191
-304
-446
-548
-568
-540
-539
-577
-545
-307
155
688
1120
1408
1642
1940
2321
2706
2984
3091
3054
2980
2972
3023
3014
2812
2422
2001
1697
1512
1318
1040
738
554
533
599
645
642
633
651
672
663
626
595
594
620
656
697
752
830
923
1018
1108
1193
1270
1324
1349
1367
1412
1492
1576
1613
1598
1582
1612
1677
1731
1749
1758
1798
1850
1859
1794
1694
1622
1602
1604
1598
1592
1609
1660
1726
1787
1842
1896
1958
2039
2138
2237
2288
2259
2175
2105
2095
2110
2067
1931
1748
1606
1541
1509
1432
1282
1091
920
794
699
602
490
377
288
238
221
229
264
319
380
422
439
454
493
546
579
580
585
631
718
812
885
949
1031
1141
1266
1392
1518
1643
1766
1884
2009
2146
2284
2394
2461
2505
2552
2605
2640
2634
2593
2536
2471
2393
2308
2238
2212
2233
2274
2306
2335
2411
2604
2948
3394
3816
4089
4183
4165
4120
4039
3827
3400
2789
2134
1566
1113
714
314
-76
-405
-656
-878
-1132
-1419
-1687
-1898
-2073
-2268
-2487
-2660
-2723
-2702
-2703
-2801
-2959
-3068
-3082
-3085
-3203
-3476
-3786
-3962
-3932
-3776
-3641
-3613
-3647
-3632
-3497
-3273
-3055
-2917
-2859
-2824
-2753
-2626
-2442
-2212
-1956
-1714
-1533
-1417
-1302
-1121
-868
-615
-447
-379
-351
-274
-89
194
492
698
768
760
799
941
1124
1234
1232
1186
1195
1279
1384
1455
1485
1501
1518
1539
1572
1619
1657
1637
1525
1336
1137
979
835
617
285
-84
-340
-415
-392
-401
-460
-448
-257
101
524
961
1444
1988
2531
3002
3396
3739
3996
4080
3966
3742
3497
3218
2826
2339
1897
1620
1466
1295
1041
782
626
555
448
232
-33
-232
-322
-379
-498
-684
-869
-1001
-1108
-1274
-1539
-1871
-2204
-2518
-2839
-3191
-3560
-3914
-4245
-4555
-4826
-5016
-5107
-5122
-5110
-5082
-5010
-4877
-4721
-4610
-4575
-4590
-4605
-4593
-4552
-4487
-4398
-4298
-4208
-4131
-4037
-3893
-3711
-3540
-3419
-3331
-3223
-3075
-2902
-2728
-2562
-2422
-2346
-2354
-2403
-2403
-2318
-2209
-2159
-2167
-2155
-2063
-1931
-1842
-1840
-1898
-1985
-2112
-2287
-2471
-2612
-2695
-2750
-2811
-2864
-2882
-2872
-2869
-2888
-2898
-2861
-2779
-2686
-2603
-2515
-2398
-2263
-2148
-2089
-2088
-2111
-2123
-2113
-2096
-2094
-2104
-2104
-2085
-2053
-2022
-1998
-1976
-1961
-1979
-2041
-2126
-2195
-2221
-2214
-2211
-2251
-2333
-2423
-2469
-2436
-2345
-2260
-2237
-2257
-2239
-2126
-1946
-1802
-1775
-1846
-1915
-1896
-1779
-1629
-1533
-1533
-1592
-1609
-1504
-1303
-1135
-1112
-1203
-1256
-1171
-1009
-916
-951
-1026
-1031
-966
-913
-905
-901
-848
-773
-741
-734
-673
-524
-367
-306
-350
-425
-462
-457
-435
-415
-410
-442
-506
-542
-508
-453
-492
-641
-767
-742
-614
-571
-696
-845
-809
-576
-354
-321
-425
-482
-410
-311
-301
-370
-430
-433
-431
-453
-432
-304
-134
-57
-117
-200
-160
14
181
193
57
-79
-78
41
122
48
-129
-226
-117
111
250
191
55
44
219
422
449
272
59
-21
34
64
-71
-338
-558
-589
-476
-414
-528
-701
-701
-431
-44
224
303
367
628
1088
1564
1882
2022
2080
2123
2141
2106
2013
1868
1649
1327
921
545
322
261
221
47
-249
-493
-558
-510
-531
-692
-881
-965
-962
-913
-1133
-1233
-1197
-1077
-1020
-1082
-1169
-1178
-1132
-1133
-1232
-1387
-1509
-1540
-1474
-1342
-1214
-1157
-1161
-1134
-1003
-817
-727
-824
-1043
-1241
-1354
-1419
-1468
-1465
-1370
-1231
-1149
-1146
-1117
-984
-825
-801
-963
-1192
-1342
-1402
-1472
-1616
-1776
-1867
-1882
-1897
-1941
-1982
-1980
-1945
-1909
-1862
-1777
-1679
-1650
-1747
-1914
-2029
-2026
-1975
-1986
-2084
-2178
-2166
-2035
-1859
-1700
-1552
-1399
-1280
-1262
-1342
-1436
-1460
-1425
-1427
-1531
-1683
-1776
-1755
-1659
-1571
-1540
-1570
-1617
-1624
-1566
-1489
-1474
-1543
-1632
-1664
-1643
-1639
-1686
-1740
-1736
-1704
-1725
-1812
-1879
-1842
-1751
-1740
-1863
-2030
-2101
-2044
-1942
-1885
-1878
-1874
-1829
-1737
-1607
-1454
-1317
-1234
-1206
-1194
-1159
-1111
-1078
-1064
-1044
-1004
-955
-921
-907
-894
-865
-818
-773
-754
-758
-769
-775
-782
-803
-832
-845
-835
-818
-812
-812
-799
-773
-747
-726
-693
-651
-637
-677
-728
-711
-615
-531
-541
-610
-626
-543
-434
-389
-394
-368
-288
-222
-219
-233
-186
-70
23
39
24
61
164
273
331
347
372
433
517
598
656
689
703
719
751
791
811
802
796
836
919
982
986
967
982
1033
1068
1047
998
977
997
1010
989
962
966
996
1005
966
899
848
815
766
670
537
416
344
307
269
206
154
182
333
585
869
1132
1380
1642
1937
2248
2553
2831
3057
3197
3226
3159
3059
2954
2798
2527
2145
1752
1465
1312
1223
1129
1041
1017
1066
1122
1122
1077
1038
1027
1004
931
830
770
780
823
841
820
787
765
749
717
668
625
613
640
685
709
692
648
622
637
667
665
623
590
608
670
725
733
691
619
515
374
219
105
65
84
115
147
212
334
486
601
636
617
606
636
681
679
619
559
569
652
726
712
618
537
532
564
546
445
320
246
230
223
190
140
99
75
62
52
29
-29
-118
-188
-187
-144
-143
-219
-309
-313
-228
-161
-198
-300
-338
-249
-90
31
63
41
53
178
438
778
1082
1254
1318
1410
1646
1988
2237
2212
1948
1681
1624
1770
1898
1818
1557
1349
1392
1656
1916
1963
1780
1528
1385
1393
1442
1380
1148
835
592
496
505
511
443
297
114
-46
-125
-89
33
150
197
213
297
496
749
952
1062
1120
1176
1255
1360
1500
1665
1805
1885
1924
1971
2030
2059
2023
1944
1870
1801
1678
1470
1225
1022
878
750
590
426
322
295
299
289
275
313
414
511
537
517
544
664
800
838
778
756
896
1191
1530
1849
2171
2535
2937
3351
3788
4277
4818
5417
6071
6769
7454
8071
8634
9204
9779
10258
10564
10633
10411
9917
9213
8438
7759
7361
7444
8070
8990
9859
10835
12804
16458
20942
23789
22883
18601
13605
10167
7900
4525
-1221
-7883
-12629
-13916
-12586
-10614
-9268
-8606
-8202
-7844
-7604
-7592
-7881
-8508
-9458
-10500
-11296
-11670
-11657
-11432
-11209
-11189
-11534
-12283
-13260
-14131
-14581
-14507
-14054
-13489
-13007
-12658
-12391
-12148
-11893
-11566
-11082
-10394
-9536
-8620
-7770
-7036
-6365
-5657
-4863
-4033
-3278
-2655
-2089
-1444
-667
133
764
1128
1297
1407
1500
1486
1253
818
323
-94
-413
-706
-1001
-1204
-1172
-898
-584
-496
-725
-1106
-1415
-1642
-1995
-2665
-3580
-4462
-5103
-5544
-5957
-6429
-6892
-7239
-7455
-7618
-7790
-7982
-8167
-8326
-8448
-8533
-8587
-8621
-8636
-8618
-8557
-8471
-8384
-8293
-8172
-8007
-7817
-7628
-7452
-7288
-7139
-7017
-6917
-6811
-6685
-6557
-6445
-6338
-6198
-6016
-5837
-5707
-5609
-5474
-5260
-5005
-4790
-4666
-4608
-4567
-4515
-4450
-4383
-4321
-4269
-4216
-4134
-3996
-3804
-3596
-3415
-3270
-3147
-3028
-2893
-2725
-2508
-2275
-2083
-1957
-1860
-1732
-1561
-1407
-1316
-1268
-1215
-1134
-1057
-996
-916
-777
-589
-407
-274
-177
-69
71
220
336
404
442
482
538
594
623
629
651
720
807
846
812
770
794
887
968
973
936
946
1026
1108
1115
1057
1019
1057
1154
1247
1299
1320
1345
1413
1536
1688
1795
1802
1722
1640
1621
1642
1633
1563
1482
1470
1545
1667
1784
1869
1919
1942
1951
1962
1974
1982
2002
2071
2192
2309
2357
2348
2366
2464
2578
2591
2473
2324
2265
2311
2367
2355
2283
2227
2230
2266
2273
2223
2150
2119
2177
2302
2404
2413
2346
2295
2319
2380
2387
2296
2154
2026
1928
1847
1790
1781
1799
1785
1723
1699
1835
2158
2546
2855
3058
3264
3581
4003
4409
4675
4755
4693
4572
4458
4352
4200
3921
3503
3041
2675
2452
2295
2102
1873
1711
1689
1757
1797
1768
1734
1769
1862
1940
1967
1970
1991
2034
2074
2102
2130
2160
2166
2132
2078
2048
2084
2198
2368
2546
2679
2741
2746
2727
2720
2744
2808
2902
3009
3109
3201
3330
3526
3758
3933
3994
3960
3901
3854
3809
3755
3738
3808
3923
3973
3910
3833
3891
4090
4245
4172
3892
3629
3577
3714
3853
3864
3795
3774
3853
3974
4052
4050
3976
3846
3677
3504
3382
3328
3329
3345
3351
3343
3347
3400
3526
3699
3837
3858
3754
3620
3596
3750
4025
4286
4453
4559
4701
4919
5149
5311
5402
5494
5639
5811
5968
6122
6323
6582
6862
7146
7483
7904
8319
8577
8623
8555
8478
8320
7883
7074
6042
5025
4120
3239
2296
1373
646
195
-51
-212
-336
-410
-433
-460
-533
-645
-761
-873
-999
-1148
-1299
-1438
-1595
-1827
-2175
-2614
-3065
-3451
-3744
-3970
-4167
-4337
-4434
-4411
-4277
-4106
-3968
-3851
-3691
-3472
-3274
-3195
-3238
-3313
-3335
-3321
-3332
-3368
-3356
-3228
-2988
-2665
-2277
-1839
-1414
-1082
-852
-651
-422
-217
-131
-163
-174
-4
372
833
1237
1540
1794
2068
2353
2593
2743
2823
2910
3057
3242
3405
3524
3643
3809
3995
4126
4193
4285
4482
4753
4984
5108
5184
5290
5405
5419
5265
4988
4657
4274
3813
3332
2982
2875
2973
3133
3272
3428
3684
4034
4363
4544
4528
4374
4190
4073
4047
4053
4023
3984
4066
4379
4878
5371
5700
5884
6079
6365
6666
6842
6823
6612
6176
5432
4348
3018
1602
152
-1378
-2965
-4403
-5413
-5872
-5904
-5727
-5467
-5141
-4754
-4351
-3955
-3537
-3103
-2766
-2627
-2615
-2498
-2110
-1533
-1011
-681
-450
-149
263
661
942
1132
1316
1508
1641
1669
1646
1633
1618
1539
1400
1290
1276
1312
1300
1215
1136
1127
1137
1046
809
532
370
361
392
344
227
162
235
398
533
583
599
649
731
796
817
812
816
846
899
949
944
851
713
629
653
709
666
482
263
139
123
110
4
-190
-395
-548
-648
-720
-798
-903
-1021
-1105
-1115
-1083
-1077
-1126
-1181
-1175
-1116
-1067
-1062
-1047
-950
-780
-625
-546
-518
-454
-303
-101
83
207
294
393
528
690
865
1042
1207
1343
1449
1553
1701
1916
2171
2410
2566
2625
2639
2691
2825
2983
3061
3022
2933
2897
2940
2996
3007
2990
3003
3048
3063
3007
2938
2935
2996
3034
2981
2869
2788
2788
2836
2879
2906
2931
2941
2909
2843
2793
2788
2798
2760
2662
2549
2471
2454
2487
2541
2577
2548
2446
2328
2269
2280
2300
2257
2163
2082
2035
2018
2022
2053
2097
2104
2044
1986
2015
2119
2185
2124
1983
1899
1948
2080
2179
2172
2081
1987
1962
2013
2073
2062
1955
1808
1711
1709
1770
1816
1796
1722
1670
1690
1751
1763
1673
1552
1507
1533
1530
1423
1272
1214
1278
1346
1287
1116
960
896
889
872
856
868
873
787
587
360
218
194
225
240
242
272
358
526
808
1197
1606
1881
1942
1921
2072
2508
3046
3354
3297
3057
2926
2988
3047
2887
2523
2152
1900
1704
1429
1073
791
699
736
710
499
180
-57
-83
43
167
191
127
44
-20
-82
-159
-235
-317
-450
-641
-835
-929
-885
-778
-714
-724
-760
-787
-841
-954
-1088
-1149
-1096
-995
-949
-981
-1022
-1002
-929
-863
-840
-841
-834
-813
-810
-820
-805
-739
-645
-576
-573
-619
-664
-677
-665
-669
-730
-843
-968
-1071
-1133
-1169
-1221
-1323
-1480
-1646
-1772
-1835
-1866
-1901
-1955
-1999
-2003
-1964
-1911
-1870
-1853
-1841
-1809
-1745
-1664
-1598
-1556
-1494
-1366
-1189
-1064
-1062
-1125
-1119
-980
-800
-725
-793
-891
-880
-740
-569
-474
-453
-449
-411
-335
-241
-150
-67
-10
28
51
79
128
191
238
257
267
300
367
442
490
508
523
567
621
640
613
568
550
569
598
615
625
641
660
675
695
742
798
817
775
708
687
729
776
772
730
704
705
688
635
596
646
759
845
847
806
797
839
889
902
893
898
900
870
822
808
858
928
936
859
756
709
728
745
706
623
552
537
566
595
597
584
572
575
592
603
600
598
616
681
775
852
885
900
936
987
1013
981
925
912
961
1018
1023
980
944
959
1009
1043
1023
964
919
923
959
969
916
836
811
876
975
1023
1001
968
1003
1107
1204
1233
1184
1094
1000
923
856
772
648
482
332
249
220
174
83
30
134
413
760
1061
1311
1595
1966
2392
2811
3193
3513
3704
3717
3600
3485
3438
3375
3144
2715
2226
1849
1631
1489
1334
1155
1001
903
856
848
863
881
878
836
763
667
553
452
410
443
497
478
349
172
42
2
19
42
51
57
60
52
32
20
13
-15
-99
-229
-359
-449
-506
-564
-630
-670
-663
-642
-681
-805
-935
-967
-879
-770
-752
-825
-893
-871
-761
-630
-538
-513
-568
-702
-859
-938
-886
-778
-736
-807
-898
-879
-741
-590
-538
-603
-730
-852
-928
-934
-858
-716
-559
-425
-323
-220
-96
31
106
69
-104
-378
-679
-934
-1105
-1200
-1256
-1325
-1469
-1704
-1971
-2147
-2155
-2029
-1842
-1626
-1331
-905
-384
150
635
1020
1231
1201
972
733
675
795
919
920
870
956
1247
1622
1893
1989
1995
2020
2094
2164
2187
2196
2268
2438
2650
2814
2895
2953
3058
3217
3376
3498
3608
3743
3903
4084
4283
4452
4473
4250
3888
3694
3899
4403
4856
5024
5029
5189
5637
6176
6480
6398
6033
5591
5240
5046
4990
4987
4950
4881
4875
5023
5291
5545
5678
5699
5670
5632
5594
5588
5668
5853
6095
6333
6554
6789
7056
7358
7687
8035
8382
8732
9113
9564
10073
10585
11062
11533
12018
12471
12842
13197
13673
14212
14427
13895
12638
11234
10318
10004
9867
9515
9049
8935
9491
10599
11904
13086
13885
13991
13107
11192
8535
5492
2179
-1527
-5634
-9807
-13496
-16279
-18109
-19227
-19886
-20205
-20201
-19907
-19395
-18697
-17792
-16687
-15506
-14422
-13478
-12541
-11415
-10036
-8552
-7182
-6049
-5136
-4363
-3682
-3111
-2733
-2623
-2746
-2939
-3056
-3139
-3402
-4012
-4874
-5702
-6314
-6818
-7474
-8420
-9564
-10728
-11854
-13016
-14289
-15632
-16913
-18031
-18969
-19777
-20484
-21059
-21435
-21569
-21493
-21295
-21032
-20693
-20236
-19655
-19017
-18404
-17842
-17281
-16659
-15980
-15310
-14684
-14059
-13368
-12618
-11893
-11271
-10732
-10188
-9603
-9027
-8529
-8103
-7675
-7191
-6680
-6217
-5844
-5524
-5191
-4810
-4419
-4089
-3860
-3685
-3463
-3138
-2760
-2437
-2232
-2078
-1851
-1517
-1168
-903
-736
-596
-430
-261
-126
-9
138
322
492
609
701
827
993
1124
1160
1140
1171
1315
1518
1661
1694
1695
1785
1996
2231
2367
2383
2357
2375
2443
2516
2575
2631
2693
2742
2769
2793
2846
2929
2993
3009
3006
3033
3099
3165
3203
3232
3285
3369
3446
3492
3517
3558
3627
3702
3750
3770
3775
3773
3761
3746
3749
3763
3756
3711
3661
3669
3745
3820
3816
3744
3695
3724
3784
3781
3689
3570
3497
3472
3443
3384
3306
3231
3156
3076
3003
2965
2953
2923
2846
2732
2628
2567
2518
2429
2276
2102
1992
1984
2042
2080
2050
1975
1886
1785
1667
1560
1518
1551
1611
1659
1715
1830
1999
2150
2241
2304
2367
2383
2260
2001
1735
1588
1548
1501
1381
1230
1142
1137
1138
1069
935
794
693
626
559
469
382
342
354
377
358
289
217
180
169
160
168
225
313
358
319
251
250
350
481
560
570
549
526
494
447
408
384
329
202
43
-46
-14
97
214
347
579
946
1364
1712
1971
2235
2570
2931
3225
3435
3624
3841
4039
4145
4143
4079
3978
3809
3559
3287
3073
2936
2815
2667
2529
2474
2521
2604
2644
2625
2591
2576
2575
2560
2508
2432
2353
2278
2204
2120
2027
1935
1855
1801
1783
1795
1820
1836
1840
1839
1836
1823
1779
1713
1669
1693
1792
1929
2058
2153
2228
2302
2364
2373
2302
2169
2015
1869
1731
1608
1522
1498
1514
1518
1476
1411
1355
1307
1237
1132
1015
904
786
653
541
492
480
421
277
119
52
88
145
160
162
201
246
215
102
4
-9
3
-78
-250
-371
-322
-159
-53
-92
-204
-273
-280
-311
-435
-640
-871
-1088
-1264
-1370
-1405
-1418
-1484
-1620
-1759
-1830
-1844
-1880
-1975
-2073
-2091
-2025
-1952
-1931
-1922
-1837
-1658
-1464
-1350
-1322
-1293
-1183
-1001
-833
-745
-721
-682
-569
-393
-224
-118
-69
-21
73
208
340
423
467
518
620
773
936
1067
1173
1297
1480
1731
2025
2316
2562
2729
2806
2802
2748
2655
2509
2293
2031
1799
1662
1634
1651
1651
1643
1691
1825
1967
1986
1829
1604
1490
1563
1728
1855
1948
2157
2596
3189
3730
4081
4281
4457
4659
4824
4882
4857
4836
4879
4984
5150
5406
5782
6244
6713
7142
7564
8032
8523
8943
9224
9400
9564
9753
9890
9855
9596
9151
8588
7924
7144
6256
5300
4320
3331
2349
1404
539
-238
-967
-1707
-2473
-3222
-3873
-4389
-4806
-5186
-5534
-5782
-5868
-5822
-5751
-5718
-5682
-5564
-5356
-5137
-4971
-4823
-4591
-4224
-3757
-3267
-2817
-2435
-2122
-1833
-1492
-1062
-592
-196
41
146
228
354
505
579
480
189
-198
-526
-693
-738
-805
-985
-1221
-1378
-1396
-1337
-1289
-1257
-1186
-1051
-877
-685
-468
-230
-25
82
86
56
43
10
-84
-209
-275
-239
-163
-134
-165
-187
-159
-148
-248
-451
-657
-794
-887
-991
-1100
-1161
-1169
-1189
-1259
-1315
-1265
-1128
-1022
-1015
-1024
-932
-745
-587
-542
-539
-448
-259
-109
-103
-169
-165
-50
67
69
-15
-59
18
166
274
294
261
218
162
70
-47
-133
-146
-120
-124
-179
-206
-109
98
294
340
236
135
164
284
341
272
184
220
376
502
512
470
489
550
523
369
225
253
430
564
545
468
509
698
889
951
909
891
960
1055
1094
1082
1086
1139
1216
1278
1319
1343
1325
1268
1233
1279
1369
1400
1330
1251
1276
1400
1496
1465
1339
1237
1219
1244
1248
1216
1173
1131
1109
1133
1195
1234
1182
1067
981
973
991
949
841
749
724
744
760
760
752
716
620
494
421
442
479
417
246
89
43
64
27
-125
-308
-392
-350
-281
-293
-387
-470
-500
-521
-625
-810
-941
-880
-633
-375
-261
-260
-187
59
365
529
474
335
288
365
459
483
472
496
551
576
550
513
483
404
215
-34
-191
-163
-19
82
69
18
32
121
168
116
12
-64
-106
-182
-323
-472
-542
-532
-543
-669
-907
-1156
-1299
-1314
-1275
-1291
-1427
-1657
-1870
-1952
-1862
-1643
-1385
-1155
-961
-749
-446
-33
426
829
1127
1347
1528
1654
1661
1537
1337
1135
923
640
259
-142
-456
-658
-790
-898
-1013
-1138
-1282
-1418
-1492
-1485
-1483
-1602
-1842
-2046
-2045
-1843
-1637
-1608
-1714
-1744
-1556
-1258
-1094
-1177
-1373
-1458
-1361
-1224
-1227
-1386
-1551
-1575
-1478
-1395
-1412
-1473
-1462
-1358
-1236
-1200
-1257
-1325
-1334
-1302
-1292
-1332
-1390
-1420
-1413
-1382
-1324
-1228
-1109
-1028
-1020
-1048
-1026
-916
-778
-714
-772
-891
-968
-950
-884
-865
-951
-1103
-1214
-1207
-1110
-1040
-1074
-1173
-1240
-1240
-1228
-1263
-1325
-1345
-1297
-1244
-1251
-1300
-1316
-1263
-1178
-1140
-1169
-1225
-1248
-1223
-1180
-1149
-1130
-1099
-1048
-1016
-1033
-1075
-1074
-1005
-923
-909
-958
-966
-851
-653
-489
-433
-447
-445
-391
-316
-259
-231
-222
-214
-178
-92
29
132
179
185
216
302
401
452
447
439
473
543
600
607
572
525
506
529
581
627
640
634
646
697
770
820
822
788
750
728
722
717
703
681
669
681
714
737
720
667
622
616
631
620
563
494
465
485
511
503
473
464
493
528
529
504
496
521
529
455
302
165
146
242
347
366
307
269
330
464
576
597
547
498
499
539
570
566
545
534
539
538
517
491
484
487
456
368
263
216
251
308
312
249
186
189
240
268
227
138
64
40
46
39
1
-51
-84
-85
-74
-95
-179
-319
-483
-647
-825
-1028
-1221
-1330
-1296
-1118
-841
-496
-88
350
761
1115
1453
1846
2266
2572
2654
2570
2499
2543
2598
2483
2160
1769
1446
1172
834
426
103
12
94
148
73
-17
67
337
584
582
321
4
-143
-62
110
206
153
1
-109
-70
81
165
0
-414
-839
-972
-733
-374
-232
-359
-459
-221
292
666
577
136
-270
-433
-507
-702
-933
-909
-514
-6
278
305
331
530
772
803
570
284
145
169
262
372
524
725
919
1054
1150
1237
1276
1216
1090
1009
1035
1104
1115
1048
980
972
1001
1006
950
830
654
439
249
154
150
141
34
-157
-349
-490
-568
-545
-361
-36
287
491
664
1042
1740
2599
3321
3774
4089
4486
5009
5517
5856
6011
6100
6207
6322
6450
6646
6904
7113
7199
7275
7553
8064
8554
8771
8890
9340
10150
10684
10339
9496
9427
11039
13763
16110
17346
18309
20248
23010
24766
23715
19835
14738
9954
5694
1370
-3071
-6752
-8724
-8932
-8092
-6862
-5475
-4092
-3202
-3403
-4796
-6800
-8657
-10041
-11087
-11935
-12464
-12439
-11842
-10981
-10275
-10005
-10213
-10808
-11655
-12631
-13633
-14577
-15385
-15998
-16377
-16500
-16360
-15993
-15449
-14737
-13804
-12598
-11149
-9609
-8148
-6829
-5577
-4289
-2949
-1639
-444
607
1475
2049
2238
2087
1755
1314
653
-301
-1339
-2053
-2273
-2343
-2856
-4075
-5712
-7313
-8777
-10400
-12423
-14657
-16607
-17899
-18522
-18695
-18605
-18325
-17892
-17384
-16889
-16447
-16047
-15696
-15424
-15243
-15086
-14859
-14503
-14046
-13564
-13136
-12792
-12513
-12276
-12071
-11876
-11618
-11210
-10608
-9869
-9110
-8424
-7819
-7243
-6661
-6084
-5544
-5047
-4594
-4218
-3966
-3829
-3722
-3564
-3390
-3320
-3413
-3586
-3703
-3705
-3665
-3687
-3780
-3850
-3794
-3578
-3264
-2952
-2714
-2552
-2401
-2207
-1995
-1841
-1779
-1762
-1720
-1646
-1585
-1537
-1431
-1226
-995
-860
-835
-797
-631
-401
-285
-364
-535
-621
-580
-503
-464
-420
-289
-75
135
277
388
528
679
753
704
580
471
421
407
399
404
446
523
605
661
681
661
598
502
408
369
397
457
497
517
565
658
747
758
685
599
568
590
606
592
581
613
685
765
834
907
987
1050
1066
1036
1009
1029
1108
1196
1242
1239
1239
1285
1360
1400
1376
1333
1341
1410
1478
1482
1438
1410
1437
1483
1483
1414
1314
1246
1219
1191
1121
1029
1002
1107
1307
1483
1554
1559
1616
1789
2006
2121
2063
1902
1777
1766
1827
1850
1768
1616
1494
1470
1514
1533
1464
1324
1209
1188
1242
1273
1211
1077
966
944
973
964
876
772
737
771
799
757
665
590
553
519
453
368
296
259
254
293
390
528
665
770
849
934
1031
1118
1174
1199
1205
1182
1126
1049
985
940
886
812
739
708
739
821
928
1047
1181
1329
1489
1649
1789
1877
1901
1903
1959
2089
2223
2270
2234
2227
2343
2555
2753
2871
2948
3051
3182
3272
3284
3263
3279
3339
3387
3375
3321
3279
3276
3300
3329
3355
3374
3380
3359
3311
3250
3180
3098
3014
2945
2887
2802
2671
2546
2523
2619
2754
2837
2888
3026
3327
3746
4166
4515
4801
5057
5275
5426
5483
5439
5292
5043
4710
4324
3917
3533
3234
3072
3034
3040
3012
2956
2931
2972
3030
3021
2908
2741
2607
2541
2517
2489
2450
2413
2367
2275
2114
1923
1758
1618
1457
1279
1167
1195
1300
1318
1165
926
733
583
324
-159
-798
-1412
-1882
-2225
-2517
-2790
-3049
-3300
-3543
-3747
-3878
-3963
-4062
-4200
-4331
-4420
-4502
-4624
-4739
-4742
-4595
-4397
-4292
-4304
-4304
-4148
-3821
-3434
-3113
-2906
-2766
-2614
-2395
-2119
-1848
-1642
-1495
-1331
-1074
-722
-328
44
364
614
778
869
945
1050
1159
1201
1150
1070
1057
1145
1284
1419
1541
1657
1750
1791
1786
1799
1890
2051
2218
2351
2479
2674
2979
3375
3802
4189
4486
4701
4889
5116
5400
5679
5867
5942
5951
5956
5980
6017
6056
6078
6039
5909
5722
5565
5495
5470
5384
5172
4886
4657
4564
4564
4518
4308
3945
3563
3299
3165
3037
2769
2321
1787
1305
945
684
450
170
-180
-550
-845
-1008
-1075
-1174
-1403
-1745
-2090
-2348
-2518
-2644
-2760
-2876
-3007
-3157
-3291
-3340
-3285
-3184
-3113
-3074
-2977
-2740
-2384
-2004
-1647
-1263
-789
-264
179
437
536
617
798
1063
1298
1418
1460
1553
1784
2102
2382
2542
2610
2670
2764
2876
2973
3044
3076
3036
2915
2774
2692
2670
2618
2480
2307
2190
2158
2157
2138
2115
2126
2163
2186
2193
2234
2327
2421
2452
2418
2379
2355
2294
2150
1954
1805
1763
1786
1781
1713
1666
1775
2080
2463
2740
2835
2851
2963
3243
3593
3864
3985
4003
4005
4011
3981
3872
3667
3362
2954
2481
2030
1670
1425
1258
1113
979
874
822
823
858
890
882
824
771
797
926
1091
1207
1259
1316
1438
1596
1696
1684
1587
1477
1380
1288
1210
1189
1264
1409
1545
1628
1687
1767
1860
1907
1873
1787
1687
1574
1435
1305
1260
1321
1383
1324
1153
1011
1002
1072
1070
947
818
800
861
867
742
562
449
428
415
332
180
39
-9
56
192
322
380
361
318
313
353
390
361
254
132
69
104
203
290
323
317
332
423
595
774
871
839
714
595
542
525
481
385
283
229
229
251
295
388
526
643
670
619
589
651
774
855
838
775
756
817
905
951
930
885
878
908
937
930
905
920
995
1079
1090
1006
892
840
876
935
942
889
839
851
916
970
963
904
848
828
828
807
737
623
517
471
497
557
576
526
446
406
428
434
353
202
92
94
162
193
144
90
135
290
446
485
402
314
321
396
419
338
241
245
343
402
352
298
378
534
536
253
-144
-362
-332
-250
-306
-407
-323
-6
347
545
630
758
936
983
778
445
206
111
15
-187
-378
-361
-112
182
338
372
434
603
800
895
862
776
699
632
581
598
720
865
896
778
624
564
568
483
222
-127
-411
-590
-734
-858
-848
-606
-210
149
378
559
833
1220
1609
1883
2010
2018
1933
1800
1683
1603
1494
1257
872
440
88
-141
-288
-405
-506
-597
-702
-800
-829
-748
-611
-543
-619
-793
-945
-998
-990
-1010
-1101
-1201
-1214
-1102
-923
-781
-704
-628
-465
-237
-82
-83
-186
-252
-225
-186
-244
-381
-474
-454
-387
-373
-407
-401
-315
-221
-213
-283
-335
-319
-277
-279
-327
-366
-365
-340
-325
-323
-319
-312
-311
-316
-317
-337
-390
-469
-526
-506
-433
-370
-355
-362
-349
-308
-280
-302
-374
-455
-513
-547
-565
-578
-581
-570
-548
-517
-476
-421
-357
-298
-262
-256
-276
-303
-312
-286
-229
-174
-157
-177
-188
-148
-58
28
63
62
76
135
215
282
327
368
415
455
478
497
542
613
682
725
744
762
793
831
860
872
868
847
819
796
794
811
827
823
803
798
835
911
993
1038
1035
1002
971
962
967
969
953
919
877
845
840
868
914
948
959
958
963
977
985
977
967
967
970
942
877
810
790
815
821
757
653
607
684
842
968
997
973
988
1071
1153
1145
1035
910
858
889
930
925
895
910
1005
1141
1254
1316
1349
1376
1390
1371
1332
1305
1304
1304
1288
1275
1293
1338
1366
1353
1321
1307
1305
1279
1220
1171
1178
1231
1280
1290
1259
1195
1111
1043
1031
1056
1020
848
601
466
563
803
970
950
826
757
775
768
645
446
273
154
43
-49
-16
243
679
1097
1343
1453
1603
1918
2328
2646
2761
2733
2691
2680
2621
2438
2181
1970
1829
1623
1219
696
319
274
446
516
292
-83
-272
-120
177
272
35
-320
-474
-306
5
205
210
136
145
275
434
520
500
383
156
-193
-589
-853
-837
-581
-299
-176
-165
-25
410
1010
1449
1519
1328
1175
1248
1486
1697
1785
1825
1944
2181
2457
2688
2871
3043
3231
3417
3577
3727
3902
4110
4330
4542
4750
4940
5065
5087
5049
5065
5200
5394
5528
5558
5567
5653
5812
5952
6009
6019
6072
6212
6396
6556
6645
6636
6513
6308
6092
5924
5767
5530
5202
4902
4755
4714
4586
4263
3888
3727
3878
4173
4403
4569
4861
5394
6060
6646
7040
7269
7408
7470
7400
7169
6852
6615
6610
6850
7227
7703
8487
9918
12059
14505
16654
18224
19388
20332
20851
20500
19147
17171
15065
12953
10632
8041
5516
3513
2169
1251
488
-191
-709
-1024
-1208
-1350
-1512
-1762
-2149
-2632
-3086
-3449
-3817
-4385
-5260
-6357
-7489
-8555
-9596
-10655
-11668
-12497
-13062
-13422
-13677
-13826
-13788
-13524
-13128
-12739
-12416
-12116
-11824
-11637
-11667
-11855
-11982
-11877
-11580
-11305
-11222
-11339
-11579
-11898
-12304
-12800
-13351
-13921
-14513
-15147
-15810
-16458
-17052
-17593
-18125
-18700
-19328
-19933
-20382
-20583
-20560
-20423
-20247
-19990
-19555
-18912
-18157
-17416
-16731
-16048
-15310
-14518
-13711
-12908
-12096
-11275
-10475
-9724
-9028
-8382
-7809
-7337
-6946
-6556
-6093
-5545
-4974
-4451
-3996
-3577
-3161
-2737
-2334
-2010
-1817
-1744
-1700
-1583
-1374
-1145
-953
-745
-405
113
711
1245
1656
1994
2321
2662
3019
3384
3716
3932
3987
3964
4014
4182
4322
4248
3942
3572
3293
3091
2849
2529
2222
2025
1913
1798
1663
1583
1595
1628
1584
1467
1367
1335
1323
1254
1147
1078
1077
1072
988
857
785
820
899
931
896
844
806
757
679
606
592
628
646
606
560
583
691
811
871
866
835
808
772
719
673
655
661
672
699
747
801
820
806
815
883
959
943
816
689
693
820
931
901
752
604
532
510
478
441
445
496
550
581
610
659
693
654
541
418
339
278
169
14
-123
-177
-165
-161
-197
-250
-286
-318
-397
-537
-674
-716
-641
-534
-501
-564
-619
-555
-381
-238
-246
-364
-442
-378
-234
-149
-186
-280
-343
-369
-415
-512
-622
-699
-734
-753
-782
-812
-819
-799
-756
-718
-708
-721
-737
-738
-727
-729
-761
-803
-827
-818
-775
-719
-669
-634
-612
-585
-542
-485
-427
-364
-276
-161
-61
-21
-27
-25
16
60
60
33
45
133
266
404
569
809
1119
1420
1645
1802
1947
2092
2201
2249
2259
2289
2370
2485
2612
2735
2867
3018
3188
3369
3542
3690
3817
3937
4065
4199
4317
4399
4467
4554
4668
4772
4813
4797
4799
4887
5020
5076
4990
4845
4787
4858
4942
4925
4845
4845
4985
5169
5274
5294
5320
5400
5476
5467
5382
5307
5297
5322
5330
5321
5348
5457
5653
5918
6212
6462
6573
6504
6343
6285
6472
6818
7037
6890
6424
5947
5735
5756
5715
5360
4714
4026
3522
3241
3065
2855
2536
2101
1590
1066
582
140
-316
-849
-1459
-2076
-2614
-3026
-3335
-3611
-3898
-4178
-4409
-4579
-4725
-4858
-4918
-4813
-4512
-4089
-3648
-3239
-2840
-2418
-1977
-1556
-1176
-820
-472
-138
156
403
625
867
1167
1524
1892
2201
2423
2600
2813
3090
3364
3533
3571
3562
3608
3716
3796
3779
3698
3644
3659
3702
3736
3785
3889
4020
4103
4102
4061
4023
3957
3809
3594
3405
3298
3221
3086
2897
2755
2734
2786
2786
2668
2468
2267
2106
1964
1805
1621
1418
1214
1020
846
688
532
370
222
116
50
-10
-94
-171
-181
-122
-88
-185
-423
-699
-906
-1044
-1217
-1518
-1930
-2355
-2716
-3010
-3276
-3527
-3740
-3886
-3963
-3991
-3985
-3954
-3912
-3877
-3854
-3829
-3783
-3708
-3606
-3477
-3324
-3173
-3064
-3009
-2980
-2949
-2946
-3028
-3202
-3393
-3510
-3532
-3513
-3507
-3498
-3437
-3310
-3163
-3051
-2986
-2937
-2870
-2751
-2558
-2289
-1968
-1594
-1125
-520
167
798
1289
1702
2152
2644
3050
3260
3326
3410
3592
3805
3964
4096
4292
4545
4741
4803
4797
4843
4959
5035
4980
4842
4738
4722
4729
4685
4597
4532
4504
4465
4360
4211
4087
4030
4016
3991
3925
3827
3717
3609
3510
3420
3334
3237
3116
2990
2897
2846
2806
2738
2646
2568
2521
2486
2432
2361
2303
2278
2271
2250
2201
2139
2078
2019
1954
1877
1783
1665
1534
1414
1324
1243
1132
991
876
827
806
718
518
257
27
-155
-358
-630
-929
-1179
-1357
-1489
-1580
-1562
-1369
-1052
-754
-569
-422
-163
271
743
1061
1168
1191
1275
1434
1575
1621
1577
1467
1295
1096
973
1004
1122
1163
1062
942
961
1121
1252
1237
1139
1076
1061
1013
914
856
908
991
982
881
811
864
961
985
909
816
776
778
776
766
768
747
648
493
364
319
323
306
249
188
161
170
210
297
421
518
529
489
481
530
565
521
441
427
518
625
657
646
685
791
869
789
563
348
289
363
439
432
401
459
608
743
787
784
786
739
540
213
-35
-25
181
357
390
394
523
785
1036
1161
1140
973
676
358
218
355
617
760
727
693
839
1109
1305
1338
1294
1247
1157
987
834
839
1005
1171
1190
1109
1075
1146
1238
1250
1178
1079
1001
967
1015
1155
1300
1321
1191
1042
1036
1154
1197
1020
719
539
597
767
839
757
668
727
923
1110
1167
1100
1001
947
946
935
843
650
417
257
224
261
253
170
99
122
208
231
119
-62
-191
-254
-338
-507
-693
-757
-648
-467
-361
-369
-390
-309
-139
-23
-80
-264
-412
-407
-320
-321
-488
-695
-731
-536
-281
-182
-274
-387
-346
-167
-33
-63
-178
-221
-162
-127
-223
-393
-470
-400
-318
-383
-571
-700
-645
-479
-385
-433
-503
-435
-217
10
115
104
80
119
199
266
287
268
233
203
201
233
258
205
40
-196
-433
-650
-889
-1180
-1495
-1757
-1928
-2033
-2085
-2021
-1742
-1262
-733
-321
-26
321
841
1430
1836
1937
1870
1868
1985
2051
1894
1555
1217
974
746
426
60
-201
-299
-342
-464
-654
-761
-678
-475
-336
-369
-513
-623
-617
-541
-504
-543
-603
-590
-490
-375
-320
-312
-291
-236
-187
-192
-230
-254
-255
-261
-291
-317
-321
-331
-385
-453
-466
-403
-342
-366
-463
-533
-508
-422
-352
-325
-312
-287
-261
-255
-258
-250
-235
-235
-262
-293
-302
-282
-253
-233
-231
-253
-290
-331
-363
-383
-402
-425
-452
-481
-504
-511
-492
-460
-439
-446
-469
-488
-491
-482
-470
-460
-457
-466
-474
-452
-387
-308
-269
-286
-312
-286
-203
-118
-89
-108
-118
-84
-23
27
64
113
187
257
286
281
292
354
437
479
467
457
511
622
727
779
802
847
927
999
1020
983
921
867
844
855
892
928
943
944
967
1039
1140
1215
1221
1159
1076
1018
1006
1019
1013
956
857
756
692
658
615
533
424
319
230
149
71
12
-18
-32
-55
-93
-125
-130
-125
-139
-173
-198
-184
-137
-95
-83
-85
-71
-32
10
28
5
-57
-147
-243
-325
-391
-443
-481
-483
-446
-407
-417
-485
-560
-587
-585
-637
-781
-939
-978
-856
-659
-497
-376
-211
36
276
394
372
292
211
86
-129
-357
-425
-239
111
450
712
975
1323
1685
1890
1828
1595
1404
1381
1457
1471
1366
1253
1277
1455
1645
1705
1628
1495
1334
1078
718
393
259
304
362
334
358
672
1332
2117
2735
3089
3331
3658
4114
4574
4863
4890
4685
4363
4035
3730
3376
2881
2249
1576
974
494
129
-134
-293
-337
-258
-59
241
590
909
1137
1273
1329
1254
961
455
-107
-524
-717
-781
-832
-851
-687
-217
505
1274
1903
2360
2742
3144
3531
3765
3760
3604
3507
3617
3883
4129
4272
4408
4696
5167
5692
6112
6400
6660
6997
7383
7679
7768
7665
7515
7472
7572
7735
7869
7968
8105
8336
8618
8838
8921
8880
8793
8751
8817
9011
9299
9611
9881
10090
10286
10522
10799
11060
11235
11305
11327
11380
11487
11583
11575
11430
11193
10922
10608
10202
9713
9242
8897
8737
8782
9019
9429
9938
10436
10855
11208
11532
11802
11920
11857
11707
11568
11374
10927
10196
9530
9432
10042
10861
11119
10439
9095
7592
6062
4172
1618
-1413
-4340
-6631
-8089
-8734
-8629
-7926
-6984
-6250
-5967
-6066
-6393
-6982
-8016
-9520
-11230
-12785
-13974
-14771
-15174
-15186
-14918
-14630
-14572
-14783
-15091
-15333
-15517
-15760
-16109
-16496
-16846
-17172
-17525
-17900
-18221
-18430
-18531
-18552
-18501
-18393
-18302
-18330
-18539
-18898
-19329
-19772
-20214
-20648
-21056
-21399
-21610
-21610
-21347
-20858
-20255
-19647
-19056
-18425
-17712
-16934
-16152
-15403
-14689
-13990
-13293
-12583
-11826
-11007
-10168
-9393
-8726
-8123
-7495
-6798
-6075
-5417
-4867
-4386
-3890
-3332
-2748
-2210
-1743
-1315
-881
-443
-58
235
464
696
962
1220
1398
1489
1567
1721
1966
2226
2419
2533
2624
2757
2933
3101
3203
3217
3165
3091
3030
2993
2962
2905
2832
2786
2784
2781
2717
2602
2540
2626
2844
3088
3286
3479
3739
4057
4362
4608
4823
5028
5174
5191
5092
4965
4870
4765
4578
4299
3992
3720
3502
3341
3241
3177
3083
2911
2700
2558
2532
2542
2460
2257
2032
1911
1933
2026
2095
2118
2146
2211
2279
2272
2172
2050
1989
1973
1904
1737
1560
1496
1559
1631
1603
1478
1342
1255
1201
1145
1085
1035
992
938
883
850
846
840
814
789
807
896
1044
1209
1339
1392
1372
1328
1305
1284
1189
964
660
401
269
226
169
43
-103
-186
-198
-214
-300
-434
-536
-561
-560
-620
-762
-906
-980
-994
-1036
-1177
-1387
-1582
-1718
-1827
-1956
-2101
-2207
-2246
-2260
-2319
-2431
-2525
-2534
-2469
-2399
-2379
-2402
-2416
-2386
-2321
-2267
-2268
-2329
-2392
-2374
-2238
-2035
-1855
-1734
-1607
-1402
-1118
-838
-634
-512
-425
-339
-254
-169
-64
74
225
377
550
778
1057
1319
1487
1556
1597
1682
1813
1922
1956
1950
1997
2158
2402
2627
2761
2810
2836
2889
2959
2997
2979
2927
2895
2903
2929
2946
2964
3025
3152
3303
3395
3388
3331
3308
3331
3331
3239
3086
2976
2979
3046
3078
3039
2985
2983
3033
3070
3049
2979
2881
2751
2585
2401
2228
2062
1881
1683
1503
1366
1247
1107
949
814
732
673
593
500
444
438
436
395
354
398
557
756
888
921
925
960
986
894
649
355
178
183
299
420
536
733
1085
1581
2127
2594
2860
2841
2543
2087
1615
1154
598
-127
-907
-1497
-1751
-1751
-1685
-1628
-1522
-1313
-1073
-907
-815
-706
-550
-442
-487
-655
-804
-828
-740
-624
-541
-495
-475
-494
-557
-656
-776
-922
-1107
-1323
-1542
-1744
-1925
-2058
-2081
-1943
-1682
-1405
-1180
