1842
2153
2503
2835
3095
3245
3289
3279
3263
3231
3122
2902
2620
2374
2235
2200
2216
2236
2242
2243
2254
2278
2296
2290
2249
2187
2129
2083
2044
2018
2024
2069
2125
2148
2123
2080
2057
2062
2075
2082
2088
2111
2148
2178
2184
2174
2161
2150
2131
2104
2083
2084
2099
2101
2074
2034
2005
1990
1971
1936
1899
1877
1867
1849
1817
1791
1787
1794
1786
1755
1724
1710
1706
1688
1654
1622
1609
1610
1606
1593
1582
1573
1552
1511
1469
1453
1460
1457
1426
1381
1354
1350
1339
1300
1255
1238
1250
1256
1228
1182
1161
1181
1213
1222
1208
1195
1199
1210
1212
1209
1220
1250
1289
1321
1341
1357
1373
1392
1416
1450
1493
1543
1594
1643
1681
1704
1721
1749
1794
1839
1857
1841
1818
1821
1857
1904
1939
1966
1995
2023
2037
2031
2024
2040
2075
2102
2097
2075
2065
2081
2110
2128
2131
2133
2138
2129
2099
2067
2058
2069
2071
2046
2018
2020
2048
2066
2053
2036
2053
2100
2130
2118
2092
2096
2126
2143
2124
2098
2104
2139
2160
2141
2105
2090
2099
2107
2098
2086
2092
2112
2112
2079
2037
2027
2062
2112
2131
2108
2074
2064
2087
2117
2132
2128
2118
2108
2101
2099
2103
2099
2081
2060
2057
2074
2070
2016
1942
1915
1967
2051
2099
2095
2086
2103
2137
2162
2175
2189
2184
2134
2055
2013
2054
2137
2173
2130
2065
2056
2105
2141
2106
2017
1939
1916
1930
1941
1934
1935
1972
2039
2091
2095
2060
2027
2029
2060
2083
2078
2060
2060
2093
2148
2196
2215
2197
2153
2102
2066
2050
2045
2037
2027
2023
2034
2061
2099
2145
2193
2232
2256
2277
2315
2374
2430
2453
2444
2434
2444
2456
2436
2386
2350
2370
2428
2469
2467
2450
2472
2535
2587
2585
2541
2501
2491
2493
2482
2461
2454
2471
2491
2494
2485
2489
2515
2545
2555
2538
2518
2511
2509
2493
2452
2406
2377
2371
2361
2317
2232
2136
2055
1979
1849
1631
1377
1195
1148
1187
1211
1195
1218
1364
1622
1915
2213
2552
2943
3292
3484
3515
3500
3524
3532
3400
3106
2773
2547
2467
2462
2462
2460
2476
2509
2536
2547
2560
2577
2569
2509
2405
2300
2237
2229
2260
2295
2305
2280
2231
2179
2140
2119
2116
2128
2149
2164
2156
2120
2072
2039
2031
2038
2040
2031
2025
2032
2044
2045
2032
2010
1984
1948
1903
1862
1838
1826
1810
1793
1788
1796
1797
1773
1742
1732
1746
1754
1734
1703
1684
1665
1610
1512
1419
1375
1365
1336
1271
1209
1196
1223
1244
1232
1204
1180
1158
1125
1081
1040
1001
956
912
888
892
904
893
858
828
822
835
843
835
819
805
795
785
777
777
790
810
829
839
850
873
914
964
1010
1049
1088
1130
1166
1191
1211
1243
1289
1337
1375
1408
1448
1499
1555
1609
1667
1734
1807
1879
1943
1992
2026
2047
2068
2106
2155
2192
2200
2187
2183
2202
2226
2229
2208
2186
2184
2191
2187
2168
2156
2166
2188
2193
2171
2138
2121
2125
2126
2107
2080
2070
2090
2121
2136
2125
2105
2094
2097
2100
2091
2062
2019
1974
1941
1930
1936
1949
1963
1976
1991
2004
2008
2004
2010
2038
2078
2103
2094
2066
2053
2077
2120
2145
2136
2111
2104
2125
2155
2164
2143
2109
2087
2081
2077
2064
2045
2028
2018
2012
2012
2020
2035
2045
2045
2037
2034
2039
2046
2044
2038
2035
2039
2043
2044
2044
2044
2044
2041
2035
2033
2030
2024
2014
2003
1998
1998
2005
2018
2032
2042
2045
2047
2061
2088
2114
2123
2113
2093
2074
2060
2046
2028
2009
1989
1969
1949
1928
1906
1885
1870
1861
1859
1857
1850
1842
1839
1844
1853
1860
1871
1900
1952
2017
2076
2116
2145
2175
2209
2237
2241
2223
2200
2193
2201
2216
2227
2237
2256
2286
2317
2337
2342
2333
2321
2316
2325
2341
2348
2333
2307
2296
2315
2348
2356
2321
2265
2230
2233
2250
2247
2220
2197
2197
2207
2198
2163
2127
2117
2116
2077
1976
1843
1725
1614
1444
1184
911
758
774
864
902
886
937
1157
1509
1877
2213
2559
2944
3287
3475
3494
3448
3425
3395
3256
2989
2690
2483
2409
2416
2440
2464
2494
2530
2566
2598
2626
2639
2620
2566
2499
2450
2432
2443
2473
2512
2542
2544
2518
2481
2461
2461
2464
2462
2460
2474
2494
2494
2461
2410
2369
2353
2349
2341
2326
2312
2307
2301
2277
2230
2174
2132
2113
2100
2066
2006
1945
1920
1934
1958
1953
1913
1868
1848
1854
1857
1832
1779
1721
1681
1665
1667
1670
1664
1647
1619
1591
1570
1555
1539
1512
1474
1437
1408
1389
1376
1363
1352
1341
1324
1300
1275
1261
1258
1256
1247
1238
1243
1268
1297
1311
1306
1303
1319
1352
1381
1393
1391
1396
1420
1456
1490
1517
1544
1583
1637
1694
1741
1772
1799
1836
1890
1950
1995
2011
2008
2014
2051
2109
2156
2171
2169
2188
2237
2289
2306
2289
2271
2281
2315
2342
2342
2323
2308
2313
2336
2365
2385
2384
2363
2337
2327
2338
2355
2359
2343
2325
2321
2333
2345
2344
2332
2323
2320
2318
2308
2294
2286
2286
2284
2270
2250
2241
2247
2249
2231
2202
2187
2189
2176
2127
2061
2025
2033
2048
2025
1974
1944
1961
1994
1998
1972
1955
1973
2005
2016
2004
2003
2031
2069
2085
2071
2048
2035
2029
2022
2011
2009
2014
2011
1995
1974
1968
1984
2006
2009
1984
1947
1927
1935
1960
1978
1978
1969
1969
1983
1999
2002
1986
1966
1961
1977
2001
2012
1999
1974
1958
1968
1995
2012
2001
1973
1957
1969
1992
1994
1961
1914
1883
1880
1886
1878
1855
1832
1827
1840
1857
1863
1855
1842
1834
1840
1859
1887
1918
1957
2001
2043
2069
2080
2089
2103
2116
2112
2086
2056
2039
2041
2054
2073
2094
2115
2132
2140
2140
2131
2108
2078
2057
2056
2071
2082
2075
2063
2070
2096
2121
2125
2108
2089
2074
2052
2018
1986
1971
1965
1942
1897
1858
1852
1873
1869
1798
1675
1556
1469
1369
1201
979
806
779
873
985
1052
1123
1297
1583
1900
2177
2433
2714
2987
3148
3149
3057
2978
2922
2804
2573
2291
2080
1994
1982
1974
1954
1953
1989
2038
2074
2093
2103
2099
2066
2005
1940
1907
1922
1961
1990
1990
1974
1966
1964
1951
1920
1893
1900
1942
1987
2005
1990
1962
1946
1950
1963
1970
1964
1954
1948
1950
1947
1933
1912
1894
1879
1858
1825
1790
1771
1767
1761
1738
1709
1691
1688
1681
1656
1625
1607
1608
1603
1569
1511
1460
1442
1447
1450
1437
1420
1417
1425
1426
1411
1394
1390
1392
1378
1341
1299
1273
1264
1255
1234
1204
1178
1158
1142
1131
1125
1119
1110
1097
1090
1094
1109
1129
1156
1187
1217
1233
1240
1256
1298
1355
1402
1426
1445
1490
1565
1647
1710
1752
1792
1840
1885
1912
1923
1937
1967
2004
2031
2046
2068
2109
2161
2202
2227
2247
2271
2291
2295
2286
2287
2308
2335
2343
2329
2316
2321
2337
2344
2339
2337
2349
2365
2364
2349
2339
2350
2374
2386
2374
2351
2340
2346
2360
2366
2360
2351
2346
2347
2352
2360
2366
2363
2349
2333
2330
2342
2356
2357
2348
2343
2351
2361
2363
2359
2360
2367
2371
2367
2358
2354
2355
2353
2351
2355
2364
2367
2355
2338
2332
2344
2361
2368
2362
2352
2349
2353
2361
2370
2376
2377
2373
2368
2366
2366
2364
2358
2350
2344
2335
2316
2285
2255
2242
2252
2270
2279
2271
2262
2267
2285
2296
2285
2262
2247
2251
2260
2255
2237
2224
2229
2240
2236
2216
2195
2185
2177
2152
2108
2069
2058
2073
2090
2091
2077
2064
2065
2082
2108
2137
2165
2192
2223
2264
2310
2347
2370
2381
2389
2397
2397
2385
2363
2344
2337
2342
2355
2367
2377
2386
2394
2397
2397
2396
2400
2407
2413
2411
2404
2402
2408
2415
2413
2404
2399
2399
2399
2387
2367
2357
2367
2383
2379
2348
2310
2291
2289
2273
2213
2116
2026
1971
1919
1806
1618
1429
1343
1391
1499
1573
1602
1660
1813
2050
2315
2583
2858
3120
3301
3356
3316
3267
3240
3179
3016
2762
2515
2367
2328
2341
2348
2336
2325
2328
2343
2357
2358
2340
2301
2252
2208
2185
2187
2209
2238
2261
2274
2278
2274
2255
2227
2209
2219
2257
2299
2323
2322
2309
2294
2273
2241
2209
2194
2200
2208
2201
2184
2172
2174
2176
2162
2133
2103
2080
2060
2037
2014
1996
1983
1963
1935
1908
1891
1881
1866
1841
1818
1803
1793
1775
1746
1717
1697
1684
1670
1653
1638
1623
1600
1570
1548
1541
1541
1528
1497
1462
1437
1422
1403
1377
1354
1340
1330
1315
1295
1282
1289
1310
1331
1342
1348
1356
1372
1391
1407
1423
1441
1461
1478
1496
1522
1561
1604
1637
1661
1692
1738
1789
1828
1854
1886
1934
1990
2034
2066
2096
2128
2153
2163
2170
2191
2225
2253
2267
2276
2297
2324
2339
2333
2324
2329
2344
2344
2320
2288
2274
2293
2331
2363
2373
2362
2343
2330
2328
2333
2332
2321
2303
2295
2304
2323
2339
2339
2330
2323
2323
2326
2323
2312
2299
2290
2289
2296
2311
2329
2335
2320
2291
2273
2278
2292
2290
2268
2253
2265
2295
2310
2294
2270
2267
2285
2297
2286
2262
2252
2263
2281
2289
2287
2286
2290
2290
2281
2268
2258
2257
2258
2257
2257
2261
2266
2265
2254
2244
2247
2259
2266
2260
2246
2241
2250
2262
2266
2259
2251
2249
2249
2250
2249
2244
2238
2237
2245
2261
2273
2266
2241
2216
2206
2210
2217
2254
2207
2201
2204
2217
2237
2257
2265
2257
2241
2228
2227
2232
2230
2216
2198
2187
2183
2176
2156
2127
2099
2078
2061
2039
2015
1994
1983
1985
1999
2027
2071
2127
2185
2232
2262
2284
2308
2336
2357
2362
2354
2346
2346
2354
2363
2371
2386
2407
2424
2428
2426
2435
2456
2471
2463
2441
2433
2452
2480
2489
2477
2459
2451
2444
2432
2422
2425
2435
2430
2405
2379
2369
2366
2345
2301
2257
2228
2198
2141
2056
1973
1918
1872
1793
1661
1515
1420
1413
1481
1573
1646
1697
1762
1891
2113
2408
2711
2948
3075
3110
3108
3113
3109
3039
2862
2608
2360
2197
2141
2155
2183
2195
2192
2195
2218
2253
2280
2275
2235
2174
2111
2057
2022
2019
2050
2101
2142
2150
2129
2097
2066
2036
2014
2009
2023
2040
2035
2005
1972
1960
1963
1964
1954
1946
1953
1963
1949
1905
1850
1817
1814
1816
1785
1716
1642
1606
1615
1631
1614
1566
1524
1507
1490
1443
1378
1344
1366
1414
1434
1412
1384
1389
1422
1449
1444
1417
1380
1344
1308
1278
1260
1252
1249
1244
1231
1207
1175
1149
1138
1140
1130
1092
1039
1003
997
1006
1003
981
957
950
958
971
981
992
1010
1033
1057
1078
1093
1106
1122
1143
1167
1192
1222
1262
1311
1358
1389
1405
1420
1450
1491
1526
1548
1566
1594
1632
1667
1690
1704
1724
1750
1772
1783
1793
1814
1844
1867
1876
1881
1900
1933
1959
1964
1958
1959
1973
1990
2000
2004
2013
2027
2040
2046
2047
2048
2048
2048
2052
2061
2076
2090
2096
2092
2080
2067
2060
2065
2076
2082
2072
2051
2034
2033
2050
2076
2098
2105
2090
2060
2035
2032
2055
2087
2110
2119
2123
2133
2156
2189
2223
2244
2243
2221
2196
2185
2195
2211
2217
2213
2212
2219
2228
2230
2227
2229
2237
2240
2228
2212
2210
2222
2225
2205
2174
2159
2171
2189
2187
2163
2142
2147
2173
2196
2202
2196
2191
2190
2187
2180
2176
2178
2182
2185
2189
2200
2215
2222
2214
2203
2205
2221
2234
2232
2220
2213
2216
2220
2219
2218
2222
2225
2219
2206
2197
2201
2212
2218
2214
2209
2209
2212
2207
2189
2169
2163
2172
2184
2180
2163
2152
2165
2192
2208
2199
2180
2176
2189
2198
2185
2156
2131
2124
2120
2103
2074
2051
2044
2041
2027
1996
1967
1955
1961
1975
1990
2009
2035
2066
2097
2131
2176
2228
2272
2286
2267
2235
2218
2224
2236
2230
2204
2175
2163
2172
2191
2206
2217
2227
2234
2234
2229
2226
2229
2235
2239
2236
2224
2203
2175
2151
2140
2141
2141
2129
2115
2115
2129
2135
2112
2069
2029
2008
1984
1927
1826
1712
1621
1551
1458
1314
1155
1062
1076
1163
1252
1312
1378
1500
1699
1967
2284
2616
2891
3042
3070
3052
3057
3065
2988
2779
2496
2254
2120
2078
2072
2074
2084
2103
2125
2142
2158
2175
2185
2173
2137
2087
2038
2008
2005
2024
2052
2072
2072
2052
2017
1979
1955
1956
1981
2014
2039
2043
2025
1995
1966
1953
1955
1961
1960
1950
1936
1923
1908
1884
1853
1828
1814
1800
1774
1730
1681
1645
1627
1613
1588
1554
1528
1525
1541
1556
1554
1531
1499
1473
1460
1458
1459
1454
1438
1419
1411
1421
1443
1460
1458
1434
1400
1370
1352
1344
1333
1311
1281
1252
1232
1222
1214
1207
1203
1205
1211
1214
1211
1211
1219
1236
1254
1266
1275
1289
1312
1339
1364
1389
1423
1465
1508
1544
1573
1603
1641
1681
1723
1767
1812
1855
1895
1934
1974
2011
2045
2078
2117
2159
2194
2212
2216
2222
2239
2264
2285
2296
2297
2295
2298
2309
2323
2332
2326
2308
2286
2270
2258
2247
2231
2217
2213
2219
2232
2245
2255
2263
2271
2279
2282
2278
2268
2260
2260
2267
2269
2258
2240
2229
2231
2246
2263
2271
2266
2251
2234
2226
2231
2240
2243
2229
2199
2169
2153
2150
2147
2133
2116
2114
2134
2160
2168
2159
2151
2157
2170
2169
2152
2133
2124
2120
2117
2123
2147
2177
2188
2170
2145
2143
2164
2178
2165
2138
2129
2144
2161
2157
2138
2131
2143
2156
2151
2131
2119
2128
2145
2152
2147
2143
2148
2154
2149
2131
2113
2108
2116
2124
2125
2121
2118
2120
2121
2116
2103
2095
2098
2110
2117
2113
2108
2110
2113
2103
2083
2071
2085
2115
2127
2103
2068
2061
2097
2145
2162
2138
2097
2077
2086
2108
2115
2100
2077
2075
2109
2161
2186
2158
2098
2071
2112
2174
2165
2055
1926
1897
1992
2110
2129
2033
1923
1901
1961
2006
1954
1827
1719
1699
1764
1854
1921
1959
1998
2058
2132
2189
2201
2168
2111
2054
2015
1991
1979
1979
1993
2023
2059
2091
2116
2142
2166
2168
2135
2085
2060
2081
2123
2134
2104
2086
2127
2209
2259
2243
2200
2202
2256
2302
2284
2223
2183
2191
2205
2176
2103
2043
2035
2054
2038
1956
1836
1712
1578
1398
1170
968
878
906
971
1007
1047
1184
1452
1785
2102
2397
2703
2997
3195
3243
3194
3151
3133
3054
2839
2525
2250
2114
2098
2103
2066
2013
2015
2099
2210
2270
2253
2210
2193
2201
2182
2109
2021
1982
2011
2072
2119
2133
2124
2093
2044
1995
1976
1993
2012
1990
1920
1850
1834
1883
1941
1943
1884
1829
1847
1931
2002
1987
1889
1777
1714
1704
1711
1701
1670
1630
1597
1584
1589
1598
1588
1553
1516
1502
1511
1517
1492
1436
1367
1307
1264
1237
1211
1181
1152
1138
1144
1148
1127
1082
1037
1006
978
933
880
841
819
795
763
751
790
860
902
882
828
792
790
796
789
780
776
771
756
751
791
871
941
957
927
902
915
959
1011
1057
1097
1125
1139
1153
1188
1247
1312
1360
1389
1410
1433
1461
1493
1522
1533
1528
1539
1596
1681
1731
1702
1634
1613
1673
1751
1764
1701
1633
1617
1640
1652
1633
1610
1598
1563
1470
1337
1243
1253
1353
1464
1505
1471
1418
1416
1479
1568
1631
1647
1628
1593
1546
1486
1428
1401
1422
1476
1527
1539
1504
1449
1418
1438
1492
1532
1527
1491
1462
1459
1469
1480
1493
1505
1499
1466
1447
1508
1651
1793
1829
1739
1614
1561
1615
1729
1827
1860
1815
1716
1611
1558
1577
1638
1689
1698
1669
1622
1575
1545
1544
1565
1579
1559
1511
1466
1445
1446
1451
1457
1470
1500
1542
1582
1606
1614
1617
1625
1633
1631
1613
1593
1587
1591
1586
1567
1550
1555
1567
1561
1532
1510
1523
1565
1607
1628
1637
1642
1639
1619
1592
1577
1584
1603
1614
1607
1584
1550
1509
1479
1474
1497
1531
1553
1553
1540
1528
1525
1530
1536
1562
1576
1610
1702
1677
1469
1100
998
1268
1466
1265
929
946
1389
1451
796
525
1992
4860
6824
5532
1458
-2572
-4337
-3992
-3454
-3949
-4928
-5572
-5734
-5767
-5726
-4962
-3299
-1586
-913
-1772
-3732
-5633
-6607
-6281
-4899
-3492
-2815
-3280
-4543
-5517
-5586
-4958
-4182
-4009
-4401
-4629
-4568
-4654
-5156
-5601
-4548
-1907
348
258
-2120
-4418
-4309
-2397
-1034
-1756
-4068
-5806
-5946
-5109
-4628
-5400
-5632
-3862
-1332
-1025
-4230
-7115
-5378
-1136
-1258
-7120
-9991
-1707
12478
17555
6593
-6214
-2839
15731
26382
14127
-9665
-19589
-6659
11964
13796
-1356
-14126
-11846
-1563
2922
-2358
-7813
-4982
3182
7024
2253
-6312
-10910
-10093
-7494
-6516
-6925
-6523
-3819
-1205
-542
-837
-344
700
-2391
-10822
-19626
-20764
-11286
1515
7109
1617
-6667
-8598
-4021
-1349
-4356
-8637
-6759
1667
8704
6314
-3614
-11909
-11859
-5351
816
1601
-2855
-8205
-9104
-6942
-8589
-17193
-25818
-23731
-7224
10267
10094
-8721
-27430
-27227
-10851
4798
6386
-688
-4396
-1660
-906
-7663
-15611
-16221
-9954
-6063
-7985
-10848
-7443
1855
8852
7770
1768
-1198
2911
9993
12644
9864
6089
5630
9660
13211
13759
12845
13394
15334
16998
19379
23131
26689
27674
25079
19294
15839
14077
11615
7639
4683
5014
5516
3073
-1519
-5276
-8964
-14024
-19324
-18765
-8495
5236
10106
600
-12904
-16510
-7076
5569
10922
7103
-846
-5152
-5350
-4355
-4353
-5849
-7294
-6803
-4628
-2149
-1463
-2736
-4340
-5685
-6674
-8030
-10188
-12005
-11673
-7227
3386
16254
25797
26391
18107
8622
6316
11806
16637
11644
-1991
-13886
-13356
-1941
7702
6294
-491
-10
10207
20162
16117
372
-12142
-9615
1317
9816
9511
9079
14865
24883
29707
26962
22317
18942
16093
9400
2729
1144
5107
8553
7285
2835
-689
-2479
-5056
-7209
-5281
553
4950
5503
5949
11092
16577
13321
1940
-4315
2702
17568
21535
7402
-13738
-22237
-13079
4755
14683
10659
-2501
-13314
-11606
41
11056
11428
5103
4127
12610
18680
9007
-11984
-23251
-12920
6576
15049
6003
-8142
-13927
-11567
-8252
-3902
5505
15552
14621
-415
-15686
-13997
858
11323
4185
-12142
-19630
-11815
1614
8746
9300
10632
15368
14819
6428
-3038
-2984
5906
11909
4896
-9326
-16819
-10771
-627
4168
4861
8858
18169
21994
11933
-3804
-8656
826
10361
7786
-1785
-3429
5900
13350
8885
843
4779
20191
27771
14965
-6831
-14242
-4265
6333
-440
-18263
-27305
-16054
4782
17710
14840
3736
-6242
-11528
-13708
-11871
-6330
1029
5525
4783
-715
-8990
-17693
-23447
-20776
-7955
6518
9272
-4383
-22758
-26914
-9520
15521
27563
20364
6260
93
5147
10284
7199
-1706
-5243
3754
18679
29154
28640
19498
9584
3029
2981
8925
17131
21205
14567
-1810
-15816
-16500
-3586
8087
6216
-6193
-14034
-7077
6135
11239
4300
-3873
-2869
6228
10536
4109
-6247
-9462
-2124
5736
6746
1306
-3206
-2232
132
-1302
-8048
-14168
-14498
-11515
-7652
-4433
808
7026
9915
6962
3734
5169
10025
10811
5247
-1536
-2438
3302
7092
8352
11144
17592
22309
17992
6009
-1622
2511
10703
12076
2786
-6942
-7805
452
8911
10895
5795
-612
-4654
-5507
-4749
-2457
-320
1537
1246
548
-1591
-3753
-6248
-9186
-11638
-11076
-7146
-2945
-1643
-2791
395
8361
16915
17712
8802
-1735
-4110
3598
11988
13366
6443
-2525
-7900
-8409
-6234
-2528
1232
4563
4428
1010
-2757
-4881
-3752
-583
1229
1660
668
-90
-129
-101
-874
-3228
-9361
-17297
-21906
-18619
-8999
-2456
-5365
-14918
-17270
-5220
12713
20556
10221
-8147
-18510
-14682
-4079
2130
172
-1650
4041
18172
29788
30098
17234
-1078
-13832
-17322
-16805
-16603
-17580
-17827
-17522
-16828
-15063
-8958
-533
4120
1689
-4427
-6597
-4143
-1699
-865
2440
8753
11038
5261
-3544
-2048
9784
16427
5891
-13213
-21805
-15048
-8959
-14725
-25039
-20422
84
18047
17816
5210
-3145
-475
3756
-179
-6792
-2883
12246
27420
31984
26100
19256
18233
23905
28271
25284
12911
-3154
-13028
-10954
681
8858
8298
2157
-553
721
622
-5441
-10862
-7965
1071
5375
-1491
-12137
-13343
-3162
8091
12204
12589
15645
17994
12677
-395
-9146
-2681
12619
18337
8040
-8347
-17491
-18713
-18892
-20167
-17642
-10012
-2948
-865
-1501
510
2782
206
-6755
-8512
-3056
2031
-3395
-16816
-24172
-17461
-3989
2507
-4308
-17324
-26402
-25382
-14774
1406
14543
13436
-1013
-16636
-19913
-9212
2513
3423
-2477
-2327
7667
17783
14187
634
-8050
-316
16465
26300
19436
3948
-6941
-9923
-10661
-13395
-12941
-3273
11097
18262
10307
-3594
-8783
208
14368
19694
12315
1412
-3728
-2244
1295
3492
5094
8527
9670
5781
-64
-125
9475
20421
21219
9234
-7884
-17567
-18185
-14860
-13122
-9854
-2411
5697
10080
6461
-2
-4727
-5875
-5521
-4763
-719
4561
6058
2246
-3935
-4299
4761
15995
20141
13371
1049
-8352
-8601
-4124
562
2188
1257
-743
-3751
-7301
-9299
-8238
-4381
-2326
-6260
-14826
-20736
-17252
-6406
3606
4634
500
-1773
-711
-1818
-7588
-11368
-3643
11824
21200
15008
262
-7981
-4590
2451
4297
3686
7877
15910
15417
3193
-10660
-12723
-3456
4046
1034
-3887
-2787
3116
2661
-6732
-12162
-1988
16939
25007
13136
-5412
-9787
5434
20641
17605
-3908
-23380
-22865
-3975
17098
25599
17425
3475
-4658
-3235
2521
3402
-5587
-14865
-13197
1563
17901
21404
11707
1228
761
6434
7170
-1092
-11793
-15258
-9742
-1175
3175
2969
1334
-1378
-5010
-8869
-9906
-5280
2858
10033
10119
2453
-8981
-14986
-9902
2985
12240
11072
2379
-4666
-4245
2824
7047
2535
-9112
-19826
-18736
-4733
13474
20981
15059
3959
-60
2597
2821
-5651
-17755
-23429
-21068
-20181
-22330
-22654
-13964
-1211
3625
-3328
-11081
-8667
2691
8892
1918
-11564
-18021
-12428
-4481
-1260
-1150
3289
12526
17586
8996
-7630
-17720
-13235
223
7768
4836
-2609
-5614
-2660
1383
438
-5401
-12172
-15493
-13431
-5980
1390
3703
691
-3657
-5537
-5692
-8838
-12794
-15091
-13242
-8952
-4425
1700
7380
10092
7258
2180
2936
9061
11448
4246
-7916
-12780
-8005
-3057
-4236
-7877
-5738
2491
9039
8580
5926
5305
4424
-518
-6805
-8417
-3039
2116
-81
-7651
-13159
-13932
-12134
-11474
-7642
752
8909
9617
508
-9901
-10549
-2025
6269
3741
-6728
-13720
-7292
8337
18641
14400
575
-9043
-5472
6174
11227
2959
-10069
-15373
-9456
-822
1403
-3212
-5169
-939
6194
8639
4229
-1096
-2143
16
2932
4967
4648
493
-9210
-18772
-17929
-3546
15304
23427
15057
-2551
-14815
-14667
-6574
3227
9235
10535
7967
3687
-2166
-8654
-16834
-23028
-25022
-23019
-20284
-19699
-18392
-11111
1095
9274
7844
2237
1595
8759
13598
8468
-3184
-8378
-3972
1333
-3213
-13156
-15437
-4270
10106
13476
5615
1084
6813
17070
16223
1067
-16516
-21668
-14959
-5497
-1492
2105
9974
22267
28503
22858
11351
3672
173
-4081
-12803
-20863
-21037
-12055
-1053
7098
11209
12263
9629
4577
423
2937
9199
9510
770
-8528
-5713
10530
25685
27263
15405
4248
5851
19195
29076
24250
5201
-12373
-16807
-6310
6193
9628
3377
-3057
-41
10664
17550
14287
5895
2390
6882
12768
11808
3736
-3275
-1531
5223
10666
9318
4764
3159
4491
3772
-1234
-5012
-1483
10121
21327
22978
14196
1682
-5872
-6190
-3862
-1896
424
3643
4522
-1339
-11603
-15113
-6035
8327
12060
-435
-15354
-14523
3788
20105
17254
456
-9821
-2688
11859
14528
2499
-12763
-17895
-11477
-2408
4085
7619
10161
8231
-949
-13098
-19395
-13928
-1856
8053
11504
9130
3753
-1918
-6450
-5773
2673
12447
15457
7801
-3969
-9361
-4703
4025
6573
721
-7615
-10940
-7778
-3677
-3573
-7092
-8597
-4064
2113
409
-11423
-23465
-21592
-5584
10464
11341
-1820
-12956
-10443
1619
8405
3512
-3734
-675
8655
12368
3536
-8254
-9402
1216
9685
4206
-9408
-13953
-793
19003
26741
16740
1404
-3143
5274
14915
15103
7416
1215
848
819
-2828
-5762
-562
14643
28739
-32124
28716
22454
18269
14670
11529
12411
18998
23464
16987
17
-10385
-2709
18310
30277
19040
-5634
-19917
-9856
13045
26402
20437
4952
-1575
4115
9381
2721
-10337
-14155
-3939
10736
15441
8470
-203
-3665
-4741
-5792
-6344
-1807
5181
5775
-2227
-11053
-9457
3518
15040
15242
4610
-8414
-14709
-13368
-9816
-6307
-372
8713
14199
8653
-9592
-28902
-32331
-16241
6080
17749
10711
-5567
-19112
-20631
-13409
-3057
5045
6555
1862
-3256
-3126
4141
12247
13700
9237
5451
6617
8582
6136
1566
2038
10973
19783
17328
3217
-8837
-6783
4862
13400
11159
2518
-2020
-704
-1085
-6558
-11903
-11436
-3720
4450
9269
9957
8491
5770
-1012
-11084
-19625
-22002
-16359
-5105
5014
8051
4096
-288
327
6505
9033
4395
-2733
-5794
-4934
-6644
-13071
-18076
-12889
274
8776
4709
-5868
-8441
589
14390
17824
7172
-8512
-16935
-13347
-3344
4443
7024
5046
742
-6782
-16360
-22366
-17984
-5626
4974
5285
-2284
-4809
4473
16564
18019
6605
-3220
3224
20404
30439
21660
4035
-6822
-6639
-3676
-6049
-8116
-2811
9115
17419
16516
10974
8125
8748
8478
5238
5388
12518
23952
29195
21556
3203
-13797
-18793
-11313
-24
5033
2632
-2525
-3296
1315
7088
10638
11189
10251
9448
7061
3293
-1130
-5012
-5940
-3393
1760
5656
7314
10390
17320
24897
26136
19688
11745
8331
6351
-4136
-23080
30404
-26276
-2092
15939
13260
-467
-4201
7940
19690
12991
-8309
-21763
-11082
14815
30586
22739
-1321
-21108
-23212
-13711
-6560
-9443
-18353
-23956
-21951
-15663
-13831
-17161
-19613
-14590
-3731
2769
-60
-7598
-11218
-9037
-5399
-7849
-12584
-13359
-7931
-1159
558
-5118
-14667
-19914
-16434
-5510
5536
8646
4119
-564
54
4211
3165
-6142
-16102
-17892
-12819
-8828
-9730
-9203
-1516
10517
14305
4486
-10446
-17383
-12023
-1682
3027
2160
1561
3876
7322
6286
3625
5260
12614
16727
7666
-12330
-28875
-28813
-15701
-5288
-5933
-8473
932
19902
29981
19429
-3425
-16539
-8079
10464
19795
10988
-5700
-15436
-13686
-5420
2605
8518
14971
22534
27431
25859
15041
-1373
-15040
-18096
-7997
7335
17607
15252
3035
-9720
-16410
-18480
-19715
-22715
-24391
-20959
-12012
-838
8610
14676
16262
15126
12087
5025
-5368
-17017
-22944
-18656
-7438
2860
6805
6362
6469
6011
761
-7893
-11794
-4616
8597
16808
16279
13131
14992
18291
14796
1911
-12516
-18383
-13660
-6749
-4433
-8078
-13436
-16441
-16202
-12653
-7240
-1560
1438
-324
-5648
-12063
-16441
-17056
-14116
-9376
-5098
-2980
-3544
-6130
-9370
-11854
-12704
-11848
-9935
-7940
-6690
-6529
-7275
-8423
-9441
-9987
-9974
-9535
-8921
-8400
-8136
-8110
-8436
-9031
-9579
-9566
-9069
-8814
-9124
-9459
-9232
-8615
-8642
-9625
-10123
-8970
-7546
-8915
-14257
-20719
-23569
-21111
-16455
-14232
-16412
-20959
-24254
-24368
-22100
-19772
-19285
-20490
-21263
-19500
-15156
-10415
-7619
-7127
-7715
-8167
-8357
-8257
-7379
-5459
-3439
-2937
-4302
-5918
-6098
-4470
-1752
979
2924
3353
1756
-1173
-3367
-3359
-1833
-1031
-2543
-5495
-7590
-7528
-5947
-4385
-3671
-3315
-2468
-968
661
1707
1734
757
-886
-2602
-3665
-3573
-2354
-560
1043
1854
1673
730
-468
-1386
-1679
-1305
-489
407
1040
1223
971
468
-30
-311
-287
-6
396
763
977
996
867
702
613
648
771
911
1020
1091
1131
1138
1119
1108
1141
1222
1317
1383
1422
1458
1498
1523
1516
1499
1516
1591
1703
1805
1854
1840
1802
1793
1853
1975
2101
2159
2116
2002
1900
1882
1966
2105
2236
2322
2358
2352
2306
2239
2206
2260
2389
2506
2525
2438
2321
2256
2262
2313
2394
2508
2637
2725
2722
2645
2584
2618
2743
2877
2925
2854
2706
2557
2477
2488
2572
2681
2754
2759
2703
2640
2635
2718
2850
2959
2985
2932
2862
2834
2852
2864
2812
2701
2620
2665
2839
3024
3089
3018
2915
2862
2828
2756
2764
3104
3830
4522
4511
3536
2182
1541
2285
4024
5550
5828
4816
3420
2704
3111
4292
5544
6315
6401
5890
5069
4386
4341
5164
6549
7702
7830
6772
5152
3904
3578
4057
4854
5552
5936
5901
5507
5173
5517
6659
7694
7210
4672
1257
-937
-702
1262
3103
3488
2542
1358
887
1345
2356
3358
3863
3595
2629
1423
587
529
1224
2284
3209
3620
3411
2778
2084
1648
1606
1898
2357
2799
3075
3099
2886
2557
2288
2212
2342
2584
2815
2950
2971
2906
2803
2717
2690
2738
2839
2943
2995
2981
2927
2884
2888
2932
2988
3037
3082
3137
3192
3214
3193
3165
3187
3285
3412
3492
3495
3461
3464
3541
3667
3787
3870
3920
3954
3978
3980
3962
3945
3962
4030
4125
4197
4211
4181
4152
4161
4205
4258
4298
4316
4308
4267
4206
4167
4191
4276
4370
4409
4378
4305
4218
4121
4006
3888
3803
3768
3750
3688
3554
3395
3291
3286
3345
3394
3383
3326
3264
3219
3189
3171
3177
3217
3277
3319
3313
3257
3179
3120
3112
3173
3285
3396
3446
3413
3328
3249
3217
3234
3272
3294
3276
3216
3134
3071
3065
3129
3239
3350
3422
3440
3418
3389
3390
3439
3533
3645
3744
3807
3823
3798
3756
3730
3741
3785
3827
3829
3779
3697
3621
3581
3593
3649
3728
3798
3829
3813
3773
3753
3785
3869
3974
4060
4107
4117
4102
4069
4026
3997
4012
4074
4136
4124
4007
3834
3702
3676
3742
3830
3877
3868
3819
3754
3697
3675
3708
3781
3843
3844
3774
3672
3591
3558
3577
3641
3731
3803
3810
3738
3636
3586
3624
3715
3791
3815
3801
3773
3736
3688
3653
3668
3739
3806
3790
3669
3511
3422
3457
3573
3683
3727
3714
3681
3648
3617
3601
3626
3694
3764
3776
3719
3649
3627
3662
3714
3753
3790
3837
3866
3839
3768
3725
3768
3875
3969
3998
3982
3964
3950
3914
3845
3777
3749
3757
3755
3710
3630
3557
3523
3539
3595
3671
3742
3787
3796
3770
3728
3693
3681
3699
3733
3759
3758
3732
3702
3686
3692
3719
3761
3805
3825
3798
3725
3632
3566
3560
3602
3653
3679
3682
3682
3679
3644
3570
3512
3552
3699
3856
3905
3829
3742
3776
3982
4311
4674
4994
5214
5305
5282
5206
5143
5112
5076
4962
4706
4301
3833
3455
3296
3344
3469
3536
3531
3543
3644
3812
3981
4111
4207
4271
4279
4219
4125
4053
4034
4059
4102
4141
4159
4146
4114
4102
4140
4220
4293
4316
4286
4232
4186
4163
4170
4208
4271
4335
4367
4348
4293
4239
4225
4261
4326
4386
4410
4386
4328
4274
4261
4304
4389
4481
4547
4573
4568
4553
4544
4550
4576
4617
4660
4681
4667
4628
4598
4609
4660
4723
4769
4800
4832
4870
4894
4892
4876
4877
4907
4945
4964
4959
4949
4954
4966
4970
4973
4997
5054
5119
5150
5134
5094
5073
5091
5129
5153
5146
5116
5087
5072
5072
5081
5093
5101
5102
5096
5081
5058
5020
4965
4901
4848
4823
4815
4795
4741
4665
4600
4567
4554
4532
4481
4410
4345
4300
4274
4254
4230
4205
4180
4157
4131
4092
4043
3997
3968
3954
3940
3916
3887
3871
3875
3885
3886
3873
3861
3865
3879
3885
3873
3852
3838
3835
3833
3828
3824
3833
3856
3876
3879
3864
3845
3837
3845
3860
3866
3853
3825
3797
3788
3803
3830
3857
3876
3885
3882
3873
3873
3889
3911
3918
3903
3884
3883
3899
3904
3889
3872
3881
3919
3954
3960
3946
3938
3952
3979
4001
4011
4016
4022
4024
4014
3996
3983
3987
4008
4029
4041
4043
4040
4038
4038
4043
4059
4080
4090
4072
4032
3990
3971
3977
3992
3996
3982
3965
3962
3982
4019
4052
4060
4043
4020
4012
4019
4030
4034
4037
4050
4075
4101
4125
4152
4184
4202
4187
4144
4106
4102
4125
4142
4130
4109
4118
4171
4237
4274
4271
4255
4250
4247
4219
4162
4110
4096
4120
4146
4150
4145
4162
4208
4261
4293
4302
4305
4313
4321
4319
4312
4309
4312
4319
4329
4346
4364
4368
4350
4313
4274
4244
4216
4180
4129
4065
3999
3947
3924
3932
3957
3981
3998
4010
4022
4037
4050
4057
4050
4027
3996
3974
3970
3978
3980
3973
3964
3970
3990
4010
4021
4022
4020
4018
4018
4023
4038
4057
4064
4050
4026
4016
4037
4079
4121
4153
4185
4237
4313
4400
4480
4560
4668
4821
5001
5148
5213
5190
5120
5046
4972
4867
4695
4443
4120
3758
3423
3190
3093
3086
3091
3082
3114
3253
3488
3735
3916
4018
4073
4098
4087
4049
4016
4013
4017
3994
3944
3911
3928
3980
4030
4057
4064
4054
4026
3992
3983
4023
4094
4150
4161
4143
4131
4136
4141
4130
4117
4120
4140
4155
4150
4144
4159
4195
4221
4218
4200
4204
4239
4283
4305
4309
4319
4344
4373
4386
4391
4408
4446
4491
4521
4533
4538
4547
4562
4577
4590
4602
4615
4628
4634
4632
4630
4643
4680
4731
4769
4779
4777
4796
4844
4892
4913
4913
4926
4965
5008
5023
5011
5002
5019
5049
5067
5068
5065
5073
5086
5091
5082
5064
5050
5042
5034
5008
4960
4900
4851
4827
4819
4811
4790
4763
4735
4702
4655
4595
4531
4475
4426
4376
4322
4264
4210
4162
4122
4087
4055
4025
4000
3981
3964
3943
3928
3935
3968
4002
4005
3971
3925
3898
3892
3884
3856
3819
3796
3793
3796
3797
3800
3813
3830
3840
3839
3833
3826
3821
3822
3834
3850
3855
3841
3820
3812
3822
3832
3828
3815
3811
3824
3843
3854
3852
3845
3838
3833
3830
3829
3832
3835
3835
3826
3810
3803
3822
3864
3905
3922
3915
3908
3920
3941
3945
3925
3902
3901
3917
3928
3922
3916
3930
3966
4001
4016
4013
4007
4010
4015
4007
3986
3969
3975
4003
4029
4033
4020
4019
4048
4095
4132
4142
4132
4120
4112
4105
4096
4091
4091
4091
4084
4071
4065
4071
4083
4091
4098
4113
4134
4137
4110
4069
4052
4072
4103
4107
4085
4073
4102
4158
4197
4195
4168
4146
4141
4144
4142
4132
4116
4101
4094
4109
4147
4192
4223
4234
4234
4230
4224
4210
4197
4199
4215
4229
4230
4227
4241
4279
4325
4361
4383
4400
4416
4426
4422
4403
4380
4359
4334
4294
4236
4170
4114
4084
4078
4082
4084
4078
4072
4071
4074
4076
4073
4067
4062
4058
4051
4042
4038
4047
4069
4095
4108
4103
4087
4076
4071
4059
4029
3996
3987
4013
4050
4066
4063
4073
4114
4154
4153
4116
4097
4132
4189
4203
4161
4133
4201
4370
4554
4686
4805
4996
5279
5543
5654
5602
5508
5474
5464
5347
5067
4701
4359
4054
3723
3361
3072
2957
2985
3033
3044
3098
3303
3641
3959
4117
4110
4047
4023
4038
4038
3989
3910
3847
3822
3837
3879
3942
4026
4112
4170
4171
4124
4072
4064
4111
4180
4222
4222
4205
4208
4235
4256
4241
4205
4196
4242
4312
4353
4346
4324
4324
4343
4348
4326
4308
4329
4378
4410
4399
4365
4353
4380
4425
4461
4483
4504
4537
4570
4589
4588
4578
4579
4596
4620
4633
4632
4629
4642
4681
4740
4800
4847
4870
4872
4869
4882
4915
4953
4972
4962
4942
4936
4949
4972
4996
5025
5062
5096
5110
5105
5106
5128
5158
5159
5120
5067
5036
5032
5027
5001
4962
4939
4943
4959
4961
4939
4901
4863
4837
4820
4800
4762
4707
4651
4609
4579
4537
4477
4411
4359
4323
4290
4250
4207
4171
4143
4119
4103
4096
4089
4070
4041
4021
4016
4003
3959
3904
3882
3907
3933
3907
3837
3795
3827
3906
3957
3944
3899
3874
3880
3892
3890
3878
3872
3872
3875
3879
3886
3894
3900
3905
3917
3930
3928
3906
3879
3873
3893
3919
3926
3918
3921
3949
3984
3996
3981
3962
3966
3994
4014
4000
3956
3916
3909
3930
3948
3943
3925
3926
3956
3994
4009
4000
3990
3999
4013
4011
3992
3977
3981
3992
3989
3980
3990
4028
4067
4077
4054
4027
4020
4027
4032
4031
4033
4042
4049
4048
4045
4053
4072
4092
4097
4087
4073
4072
4084
4093
4082
4052
4027
4031
4061
4087
4081
4054
4041
4064
4110
4141
4141
4126
4120
4132
4149
4160
4162
4156
4147
4144
4155
4179
4202
4208
4205
4209
4227
4244
4248
4245
4256
4288
4314
4306
4263
4212
4174
4140
4086
4008
3930
3889
3898
3935
3967
3975
3965
3959
3974
4006
4034
4039
4014
3973
3941
3934
3950
3972
3986
3989
3991
4000
4011
4014
4012
4011
4018
4028
4033
4030
4033
4044
4055
4059
4058
4061
4068
4079
4094
4120
4150
4162
4143
4121
4149
4255
4403
4533
4638
4782
5015
5289
5475
5496
5412
5344
5329
5271
5066
4735
4389
4092
3798
3459
3130
2939
2929
3004
3052
3084
3209
3469
3763
3951
3992
3971
3972
3992
3979
3927
3877
3860
3858
3849
3849
3891
3968
4037
4053
4020
3973
3938
3917
3910
3925
3965
4007
4022
4004
3973
3949
3941
3949
3972
4005
4031
4033
4012
3986
3972
3970
3972
3973
3980
3993
4007
4016
4024
4037
4053
4062
4057
4044
4041
4055
4079
4099
4110
4121
4146
4183
4211
4220
4219
4227
4254
4289
4312
4317
4318
4330
4356
4386
4410
4420
4423
4429
4447
4475
4499
4511
4519
4539
4576
4615
4640
4648
4650
4658
4673
4685
4687
4684
4682
4675
4654
4617
4573
4540
4526
4525
4522
4504
4470
4432
4403
4383
4365
4337
4297
4249
4197
4144
4094
4054
4024
3998
3966
3925
3881
3837
3786
3725
3663
3617
3592
3576
3555
3528
3507
3502
3506
3510
3509
3502
3485
3456
3422
3396
3385
3377
3360
3338
3325
3327
3334
3329
3312
3302
3315
3342
3360
3357
3342
3334
3337
3338
3326
3306
3292
3291
3293
3285
3268
3252
3252
3273
3301
3317
3307
3279
3257
3257
3274
3285
3275
3253
3238
3239
3246
3249
3250
3258
3275
3294
3309
3331
3366
3400
3408
3387
3361
3357
3375
3381
3358
3323
3306
3317
3336
3339
3336
3345
3367
3383
3379
3364
3364
3385
3413
3430
3431
3424
3415
3411
3414
3420
3420
3406
3386
3378
3391
3408
3408
3393
3384
3399
3425
3436
3421
3402
3406
3431
3449
3438
3410
3396
3406
3413
3395
3361
3350
3381
3427
3445
3431
3424
3451
3491
3497
3460
3428
3452
3523
3577
3571
3530
3520
3572
3651
3692
3672
3615
3562
3527
3498
3464
3426
3392
3361
3331
3308
3305
3321
3339
3341
3330
3321
3322
3319
3292
3247
3216
3219
3245
3261
3252
3239
3248
3274
3285
3261
3222
3202
3209
3210
3185
3152
3149
3182
3220
3236
3245
3275
3317
3328
3292
3253
3266
3327
3372
3360
3332
3366
3488
3639
3745
3820
3942
4157
4407
4573
4597
4534
4478
4454
4409
4280
4065
3799
3496
3155
2813
2558
2453
2459
2477
2462
2478
2619
2879
3150
3323
3382
3386
3385
3381
3355
3310
3269
3249
3249
3263
3291
3332
3382
3430
3461
3463
3433
3387
3353
3352
3382
3421
3454
3479
3499
3512
3505
3477
3447
3440
3465
3499
3512
3501
3491
3505
3535
3553
3547
3536
3545
3570
3589
3593
3596
3617
3650
3674
3683
3699
3738
3790
3824
3829
3826
3844
3884
3920
3931
3926
3935
3972
4016
4039
4036
4035
4062
4114
4163
4188
4193
4199
4217
4235
4241
4231
4220
4226
4255
4290
4310
4311
4314
4345
4408
4471
4493
4465
4417
4386
4382
4386
4378
4362
4354
4361
4373
4378
4375
4372
4370
4362
4338
4296
4241
4180
4121
4067
4016
3965
3915
3868
3831
3796
3759
3719
3685
3662
3642
3611
3567
3523
3492
3465
3433
3397
3376
3380
3395
3401
3393
3382
3376
3369
3356
3343
3339
3338
3324
3295
3276
3288
3320
3340
3336
3324
3329
3346
3347
3320
3287
3287
3319
3344
3329
3293
3282
3317
3363
3372
3340
3305
3302
3318
3318
3294
3274
3286
3323
3357
3375
3386
3399
3411
3411
3402
3395
3394
3390
3375
3356
3349
3359
3374
3388
3400
3417
3437
3447
3442
3429
3423
3431
3450
3467
3477
3478
3472
3463
3453
3446
3441
3434
3421
3406
3401
3405
3405
3392
3379
3386
3422
3462
3477
3459
3434
3429
3443
3455
3451
3439
3434
3437
3438
3433
3433
3450
3475
3489
3482
3471
3472
3483
3488
3479
3462
3456
3462
3470
3470
3468
3475
3498
3524
3537
3532
3519
3510
3506
3502
3490
3475
3464
3464
3474
3488
3504
3519
3533
3546
3564
3591
3621
3640
3643
3637
3636
3644
3658
3674
3694
3715
3723
3705
3671
3641
3626
3611
3573
3512
3451
3414
3399
3385
3363
3344
3342
3359
3379
3386
3377
3360
3348
3344
3347
3349
3346
3340
3330
3316
3296
3279
3275
3288
3303
3298
3276
3263
3280
3322
3357
3359
3338
3324
3335
3357
3359
3337
3314
3322
3362
3409
3446
3481
3542
3640
3760
3876
3983
4100
4244
4393
4497
4513
4447
4344
4259
4211
4164
4050
3815
3470
3103
2820
2677
2639
2621
2575
2533
2572
2741
3004
3275
3470
3551
3546
3509
3486
3487
3490
3469
3430
3401
3406
3441
3488
3536
3585
3625
3633
3598
3538
3497
3497
3525
3553
3566
3575
3593
3614
3619
3605
3591
3601
3636
3670
3682
3675
3668
3669
3667
3654
3644
3660
3704
3750
3776
3786
3804
3838
3876
3899
3910
3926
3956
3986
3996
3990
3989
4010
4045
4067
4068
4067
4088
4130
4167
4183
4190
4213
4256
4297
4317
4324
4339
4362
4376
4368
4355
4363
4398
4436
4458
4465
4475
4503
4540
4573
4594
4605
4608
4602
4582
4553
4529
4522
4529
4535
4527
4509
4495
4491
4490
4480
4455
4418
4369
4306
4237
4174
4127
4090
4049
3999
3944
3891
3837
3780
3724
3678
3642
3607
3568
3533
3514
3512
3512
3501
3479
3458
3445
3431
3403
3365
3327
3304
3297
3302
3314
3329
3340
3344
3340
3333
3326
3319
3313
3309
3314
3324
3325
3311
3292
3287
1734
1808
1858
1896
1921
1915
1886
1878
1917
1963
1941
1825
1677
1594
1605
1638
1609
1515
1443
1462
1539
1577
1517
1403
1323
1296
1265
1184
1074
995
969
969
965
962
969
973
949
910
889
898
908
895
885
922
1015
1112
1174
1222
1297
1390
1437
1407
1367
1407
1526
1623
1635
1649
1831
2223
2655
2872
2780
2515
2280
2143
2009
1767
1443
1181
1099
1196
1369
1503
1539
1453
1236
900
519
208
51
34
72
89
105
201
401
605
653
458
69
-384
-795
-1118
-1357
-1534
-1678
-1807
-1903
-1941
-1933
-1953
-2089
-2348
-2621
-2780
-2803
-2785
-2846
-2999
-3157
-3227
-3222
-3232
-3319
-3452
-3540
-3531
-3464
-3419
-3415
-3421
-3409
-3401
-3439
-3525
-3618
-3679
-3720
-3766
-3822
-3880
-3936
-4001
-4063
-4092
-4079
-4064
-4101
-4195
-4303
-4394
-4470
-4552
-4645
-4732
-4804
-4864
-4929
-5013
-5124
-5255
-5381
-5483
-5582
-5718
-5894
-6061
-6157
-6191
-6231
-6338
-6491
-6618
-6680
-6701
-6735
-6805
-6894
-6976
-7028
-7043
-7026
-7003
-7008
-7049
-7090
-7085
-7015
-6920
-6854
-6809
-6710
-6488
-6189
-5956
-5892
-5944
-5960
-5879
-5825
-5971
-6340
-6778
-7157
-7511
-7948
-8455
-8874
-9077
-9114
-9133
-9181
-9151
-8957
-8677
-8489
-8477
-8556
-8600
-8590
-8611
-8706
-8820
-8863
-8831
-8796
-8794
-8781
-8696
-8552
-8445
-8449
-8533
-8590
-8546
-8430
-8322
-8266
-8232
-8168
-8068
-7986
-7967
-7999
-8025
-8012
-7985
-7990
-8027
-8056
-8029
-7952
-7884
-7865
-7873
-7851
-7768
-7653
-7567
-7550
-7584
-7608
-7576
-7505
-7455
-7463
-7488
-7454
-7347
-7247
-7241
-7315
-7357
-7294
-7185
-7159
-7260
-7382
-7392
-7285
-7184
-7186
-7250
-7255
-7146
-7000
-6922
-6926
-6934
-6871
-6754
-6664
-6645
-6665
-6657
-6590
-6497
-6430
-6407
-6412
-6411
-6386
-6342
-6296
-6271
-6272
-6281
-6276
-6252
-6234
-6243
-6272
-6288
-6267
-6226
-6197
-6188
-6172
-6127
-6062
-6006
-5975
-5957
-5935
-5914
-5904
-5902
-5892
-5858
-5805
-5755
-5724
-5706
-5670
-5598
-5498
-5405
-5348
-5314
-5254
-5140
-4998
-4878
-4803
-4744
-4664
-4565
-4479
-4415
-4347
-4254
-4154
-4085
-4051
-4003
-3895
-3748
-3629
-3578
-3557
-3505
-3402
-3290
-3215
-3175
-3132
-3056
-2947
-2825
-2710
-2615
-2543
-2481
-2404
-2301
-2194
-2120
-2084
-2045
-1959
-1831
-1704
-1605
-1513
-1396
-1268
-1170
-1118
-1074
-974
-812
-656
-575
-567
-553
-467
-323
-199
-156
-173
-172
-104
10
119
209
306
430
558
649
699
747
835
957
1064
1122
1135
1137
1168
1239
1338
1438
1516
1577
1649
1761
1910
2066
2201
2317
2419
2511
2581
2636
2704
2797
2895
2966
3000
3034
3112
3231
3347
3425
3478
3542
3626
3691
3691
3634
3575
3550
3550
3532
3479
3404
3327
3258
3206
3186
3196
3200
3147
3026
2882
2781
2745
2738
2693
2581
2438
2341
2341
2414
2481
2487
2475
2553
2769
3033
3200
3217
3176
3176
3204
3151
2950
2657
2364
2072
1717
1298
934
743
709
704
654
632
760
1044
1351
1544
1599
1590
1568
1534
1483
1441
1440
1470
1498
1511
1542
1619
1730
1840
1915
1945
1935
1904
1880
1893
1955
2050
2146
2214
2251
2270
2294
2330
2365
2387
2398
2427
2487
2558
2600
2601
2605
2658
2750
2822
2837
2833
2872
2964
3056
3110
3146
3202
3267
3294
3267
3246
3294
3392
3446
3405
3318
3275
3313
3371
3383
3345
3312
3321
3363
3406
3444
3486
3527
3553
3557
3563
3598
3660
3723
3753
3743
3714
3697
3712
3749
3774
3758
3706
3646
3610
3605
3608
3594
3563
3537
3535
3551
3559
3541
3500
3455
3415
3374
3312
3226
3133
3048
2973
2898
2817
2733
2660
2605
2562
2523
2474
2414
2352
2307
2286
2274
2250
2221
2217
2255
2312
2340
2319
2276
2246
2234
2220
2192
2161
2144
2144
2150
2164
2198
2257
2323
2372
2397
2419
2467
2548
2640
2714
2761
2804
2868
2951
3025
3077
3114
3152
3185
3204
3229
3292
3393
3479
3508
3499
3500
3510
3488
3426
3392
3444
3547
3603
3588
3595
3706
3877
3976
3950
3881
3878
3950
4029
4081
4141
4243
4361
4437
4465
4500
4587
4696
4765
4770
4758
4795
4896
5007
5068
5069
5066
5116
5215
5292
5294
5256
5266
5362
5491
5571
5593
5608
5639
5645
5600
5558
5600
5701
5735
5620
5444
5373
5462
5595
5620
5522
5409
5389
5468
5574
5647
5661
5611
5523
5459
5469
5531
5582
5571
5525
5505
5522
5531
5491
5399
5267
5133
5036
4986
4933
4791
4551
4327
4261
4363
4473
4426
4215
3978
3818
3713
3575
3383
3207
3120
3120
3145
3153
3160
3207
3321
3476
3613
3681
3666
3620
3609
3623
3570
3362
3019
2641
2286
1890
1373
778
265
-41
-178
-266
-346
-336
-148
176
489
664
691
645
602
594
617
658
704
747
771
761
724
692
702
750
786
763
691
631
622
640
633
598
577
597
619
579
468
350
305
347
403
385
282
166
115
137
174
184
179
199
250
317
397
507
629
705
695
641
627
686
772
828
859
908
972
1018
1018
1001
1004
1029
1048
1055
1059
1081
1142
1262
1436
1611
1715
1730
1739
1826
1954
2006
1922
1797
1782
1912
2075
2153
2153
2170
2248
2345
2407
2430
2449
2463
2449
2402
2357
2365
2426
2511
2567
2551
2458
2345
2297
2351
2446
2470
2378
2246
2187
2234
2322
2358
2310
2217
2126
2066
2049
2059
2060
2021
1961
1932
1968
2035
2069
2046
2006
1979
1959
1907
1836
1795
1805
1837
1852
1848
1859
1897
1935
1938
1911
1882
1871
1869
1870
1883
1924
1974
2004
2012
2024
2055
2082
2065
1994
1904
1844
1833
1857
1874
1869
1863
1893
1967
2045
2075
2040
1974
1919
1893
1895
1919
1962
1999
2010
2003
2033
2128
2241
2291
2253
2175
2132
2142
2170
2180
2172
2169
2169
2169
2178
2212
2273
2323
2315
2250
2190
2211
2322
2447
2471
2367
2233
2198
2284
2371
2347
2223
2126
2154
2270
2352
2325
2221
2122
2088
2110
2140
2130
2066
1982
1946
2014
2165
2304
2339
2274
2210
2251
2390
2500
2470
2316
2188
2210
2356
2463
2416
2275
2198
2271
2405
2451
2379
2308
2356
2490
2578
2555
2475
2446
2509
2620
2723
2782
2791
2778
2805
2950
3185
3380
3448
3495
3705
4104
4475
4585
4480
4408
4501
4599
4466
4087
3666
3355
3085
2747
2389
2179
2181
2297
2412
2548
2788
3124
3429
3633
3779
3935
4080
4139
4110
4101
4201
4368
4477
4469
4411
4420
4542
4718
4851
4888
4864
4868
4963
5128
5284
5365
5379
5379
5391
5386
5327
5226
5133
5096
5100
5115
5122
5125
5139
5157
5174
5198
5250
5325
5404
5460
5492
5524
5599
5713
5808
5818
5741
5674
5724
5886
6027
6033
5930
5865
5942
6094
6178
6140
6070
6091
6196
6273
6242
6152
6126
6208
6312
6325
6226
6110
6071
6091
6073
5968
5839
5777
5791
5796
5742
5670
5665
5725
5746
5633
5419
5222
5127
5115
5101
5039
4951
4892
4904
4987
5108
5208
5230
5156
5020
4877
4768
4688
4608
4509
4383
4261
4174
4130
4109
4073
4006
3920
3849
3793
3724
3617
3498
3406
3351
3301
3230
3155
3116
3126
3154
3157
3134
3115
3120
3126
3102
3038
2967
2922
2915
2923
2921
2897
2860
2836
2837
2857
2873
2867
2839
2799
2764
2753
2792
2868
2937
2958
2933
2925
2988
3097
3172
3168
3121
3109
3162
3230
3249
3214
3183
3225
3346
3489
3587
3627
3655
3718
3825
3932
3995
4009
3996
3981
3983
4010
4063
4123
4160
4175
4200
4264
4352
4415
4415
4364
4307
4278
4279
4289
4281
4250
4215
4200
4211
4218
4190
4137
4102
4108
4119
4075
3970
3864
3809
3795
3766
3700
3643
3659
3755
3862
3908
3897
3903
3986
4115
4193
4156
4040
3953
3960
4022
4053
4017
3965
3966
4032
4103
4116
4061
3985
3940
3934
3934
3910
3872
3857
3875
3888
3856
3793
3754
3763
3778
3735
3644
3599
3669
3816
3932
3989
4084
4317
4638
4879
4932
4870
4851
4906
4887
4643
4201
3727
3339
2991
2587
2136
1764
1574
1556
1630
1746
1908
2105
2288
2414
2495
2572
2631
2607
2460
2254
2101
2045
2015
1918
1772
1709
1832
2079
2252
2227
2089
2025
2093
2137
1959
1555
1140
923
906
923
832
647
486
432
462
474
367
106
-248
-573
-780
-891
-1026
-1256
-1516
-1682
-1735
-1788
-1954
-2207
-2426
-2557
-2673
-2838
-2996
-3035
-2961
-2910
-2982
-3104
-3131
-3033
-2935
-2953
-3052
-3109
-3082
-3043
-3078
-3177
-3271
-3326
-3358
-3392
-3433
-3473
-3498
-3496
-3462
-3438
-3503
-3691
-3921
-4069
-4115
-4170
-4354
-4650
-4946
-5173
-5365
-5597
-5886
-6186
-6475
-6777
-7116
-7479
-7834
-8170
-8507
-8865
-9239
-9617
-9981
-10312
-10595
-10817
-10987
-11121
-11246
-11391
-11568
-11748
-11883
-11968
-12073
-12268
-12520
-12687
-12660
-12488
-12330
-12276
-12259
-12162
-11981
-11843
-11865
-12026
-12216
-12351
-12430
-12489
-12539
-12566
-12557
-12505
-12389
-12210
-12021
-11908
-11918
-12008
-12100
-12146
-12151
-12128
-12080
-12009
-11943
-11886
-11798
-11633
-11402
-11196
-11093
-11082
-11071
-10988
-10843
-10687
-10554
-10439
-10315
-10183
-10070
-9986
-9909
-9806
-9679
-9581
-9582
-9691
-9825
-9878
-9821
-9750
-9779
-9919
-10060
-10097
-10048
-10033
-10132
-10298
-10430
-10499
-10564
-10689
-10849
-10968
-11001
-10992
811
942
965
877
753
686
703
742
717
609
483
431
485
587
649
620
527
474
534
671
755
696
555
482
554
690
745
704
716
922
1280
1591
1715
1712
1751
1898
2015
1911
1551
1085
678
342
-30
-474
-872
-1060
-1015
-864
-730
-609
-415
-107
230
478
585
585
542
490
431
362
284
205
142
118
152
235
346
456
534
561
549
539
546
553
535
502
482
467
404
268
126
84
171
296
347
300
227
199
214
233
247
264
269
239
179
141
169
253
336
370
347
294
240
235
311
451
585
635
599
535
513
566
667
751
752
660
554
547
681
866
969
949
898
925
1044
1167
1222
1204
1163
1142
1163
1212
1250
1234
1174
1152
1244
1413
1519
1488
1389
1363
1453
1554
1544
1439
1372
1416
1500
1502
1413
1358
1440
1602
1680
1587
1413
1317
1344
1384
1317
1163
1048
1048
1098
1089
1012
957
993
1070
1084
1000
894
846
862
868
814
734
709
778
901
1009
1071
1111
1180
1288
1387
1425
1414
1419
1488
1596
1677
1706
1736
1824
1954
2064
2120
2163
2241
2339
2398
2406
2437
2554
2712
2809
2798
2758
2809
2971
3151
3254
3277
3303
3408
3594
3788
3916
3957
3958
3985
4058
4148
4205
4229
4262
4336
4438
4535
4617
4706
4817
4927
5005
5050
5078
5108
5144
5198
5278
5365
5423
5437
5455
5533
5663
5762
5761
5687
5639
5677
5749
5761
5674
5558
5507
5549
5622
5655
5627
5581
5573
5616
5680
5728
5750
5764
5782
5796
5790
5771
5769
5807
5861
5875
5827
5770
5792
5914
6064
6128
6061
5923
5817
5801
5846
5864
5792
5653
5537
5530
5625
5732
5752
5691
5639
5667
5751
5821
5854
5903
6010
6161
6311
6451
6608
6754
6806
6714
6540
6395
6303
6174
5927
5586
5239
4922
4591
4230
3915
3736
3685
3677
3669
3717
3899
4194
4489
4692
4789
4823
4811
4753
4676
4623
4600
4571
4514
4465
4486
4592
4729
4824
4848
4826
4796
4779
4774
4781
4800
4829
4867
4904
4921
4902
4852
4798
4770
4770
4769
4738
4680
4633
4634
4687
4758
4811
4836
4855
4890
4949
5022
5086
5117
5093
5020
4945
4928
4994
5105
5190
5215
5211
5242
5327
5425
5474
5452
5400
5373
5395
5432
5444
5423
5404
5423
5476
5530
5557
5564
5568
5574
5569
5549
5527
5514
5505
5480
5426
5359
5300
5253
5203
5135
5051
4969
4904
4856
4807
4745
4673
4605
4541
4480
4425
4393
4396
4406
4379
4304
4213
4142
4072
3947
3755
3568
3470
3451
3408
3269
3090
2996
3031
3094
3052
2886
2695
2568
2485
2373
2210
2057
1973
1944
1917
1866
1815
1796
1791
1744
1616
1431
1261
1162
1123
1075
965
826
738
730
724
623
426
242
159
152
132
61
-3
-7
19
-1
-101
-262
-457
-692
-987
-1342
-1728
-2104
-2424
-2656
-2806
-2940
-3123
-3359
-3592
-3777
-3934
-4121
-4357
-4615
-4847
-5029
-5170
-5294
-5428
-5579
-5736
-5870
-5971
-6049
-6122
-6212
-6333
-6487
-6665
-6840
-7017
-7252
-7596
-8012
-8390
-8658
-8873
-9170
-9595
-10041
-10369
-10561
-10719
-10945
-11228
-11497
-11713
-11909
-12125
-12350
-12544
-12700
-12864
-13081
-13333
-13547
-13676
-13743
-13822
-13951
-14078
-14136
-14124
-14122
-14189
-14294
-14360
-14354
-14340
-14380
-14461
-14495
-14426
-14304
-14217
-14191
-14169
-14079
-13940
-13844
-13850
-13896
-13857
-13693
-13504
-13395
-13323
-13117
-12704
-12241
-11981
-11983
-12046
-11970
-11824
-11861
-12197
-12662
-13013
-13226
-13473
-13846
-14194
-14296
-14137
-13900
-13756
-13705
-13621
-13417
-13108
-12798
-12608
-12585
-12646
-12628
-12463
-12281
-12278
-12467
-12612
-12483
-12127
-11801
-11664
-11610
-11458
-11188
-10944
-10834
-10812
-10783
-10739
-10722
-10711
-10634
-10480
-10328
-10248
-10195
-10075
-9867
-9657
-9527
-9462
-9408
-9352
-9311
-9269
-9162
-8963
-8731
-8551
-8423
-8279
-8091
-7922
-7845
-7826
-7753
-7568
-7350
-7226
-7212
-7207
-7117
-6960
-6821
-6743
-6692
-6626
-6554
-6502
-6456
-6372
-6245
-6131
-6081
-6071
-6026
-5919
-5806
-5753
-5758
-5756
-5687
-5569
-5472
-5436
-5434
-5407
-5330
-5239
-5185
-5178
-5177
-5122
-5010
-4893
-4817
-4775
-4717
-4615
-4500
-4429
-4412
-4404
-4367
-4316
-4292
-4297
-4281
-4211
-4118
-4067
-4082
-4122
-4132
-4112
-4105
-4133
-4176
-4202
-4202
-4191
-4184
-4177
-4165
-4151
-4137
-4110
-4063
-4008
-3975
-3975
-3981
-3957
-3898
-3826
-3770
-3731
-3694
-3647
-3587
-3513
-3429
-3343
-3268
-3210
-3163
-3106
-3025
-2930
-2853
-2825
-2839
-2848
-2807
-2715
-2620
-2564
-2539
-2504
-2443
-2384
-2345
-2306
-2240
-2156
-2097
-2087
-2088
-2050
-1963
-1862
-1776
-1701
-1629
-1564
-1492
-1383
-1225
-1062
-964
-941
-927
-845
-698
-567
-514
-509
-463
-328
-130
59
196
298
420
590
780
931
1012
1053
1117
1232
1364
1450
1480
1504
1567
1644
1672
1618
1516
1450
1458
1512
1558
1572
1568
1585
1653
1777
1932
2062
2121
2113
2097
2133
2228
2335
2409
2465
2557
2714
2910
3088
3226
3336
3434
3517
3572
3597
3612
3634
3677
3754
3881
4048
4223
4389
4543
4700
4852
4965
5038
5125
5285
5481
5612
5637
5665
5838
6134
6334
6235
5862
5424
5048
4646
4084
3411
2859
2574
2474
2398
2342
2441
2749
3112
3322
3343
3297
3291
3305
3271
3201
3151
3135
3111
3066
3059
3130
3230
3264
3209
3134
3123
3195
3301
3375
3385
3351
3329
3356
3398
3374
3244
3083
3004
3042
3115
3131
3105
3119
3196
3266
3265
3218
3196
3216
3230
3208
3173
3156
3148
3112
3052
3014
3022
3050
3060
3053
3057
3084
3119
3145
3158
3152
3121
3068
3038
3063
3129
3179
3183
3169
3192
3273
3378
3455
3487
3492
3503
3536
3585
3628
3652
3668
3704
3774
3853
3909
3937
3968
4024
4089
4126
4122
4102
4102
4133
4178
4212
4224
4221
4213
4214
4224
4231
4222
4199
4177
4163
4152
4132
4101
4072
4054
4043
4027
3997
3945
3874
3801
3748
3725
3712
3679
3623
3580
3582
3616
3635
3613
3569
3544
3540
3526
3477
3411
3359
3333
3317
3304
3304
3324
3348
3355
3346
3344
3358
3370
3362
3335
3308
3283
3251
3204
3159
3139
3139
3134
3101
3059
3049
3094
3181
3269
3313
3287
3204
3112
3062
3064
3076
3048
2985
2943
2975
3074
3190
3286
3357
3407
3423
3396
3350
3328
3353
3410
3467
3508
3543
3596
3686
3809
3915
3950
3902
3839
3837
3906
3980
4014
4046
4138
4268
4337
4307
4258
4286
4365
4380
4288
4178
4152
4197
4226
4237
4322
4520
4711
4750
4668
4650
4818
5062
5172
5100
5001
5046
5244
5482
5684
5850
5978
6037
6033
6065
6222
6445
6552
6447
6256
6205
6372
6615
6742
6731
6733
6877
7116
7293
7331
7318
7382
7526
7642
7663
7681
7848
8196
8559
8746
8752
8751
8888
9105
9182
8990
8621
8260
7976
7674
7259
6794
6457
6344
6371
6382
6341
6346
6476
6670
6784
6752
6644
6567
6537
6474
6335
6187
6150
6262
6418
6471
6378
6254
6247
6357
6399
6192
5786
5457
5434
5643
5784
5652
5352
5164
5219
5378
5432
5331
5192
5134
5154
5188
5220
5283
5367
5410
5372
5291
5256
5325
5476
5627
5699
5662
5557
5475
5498
5615
5720
5697
5532
5344
5274
5356
5490
5544
5478
5364
5287
5282
5301
5291
5251
5219
5216
5239
5259
5243
5180
5087
5002
4958
4947
4918
4831
4697
4574
4514
4515
4524
4482
4365
4207
4065
3982
3941
3883
3783
3669
3597
3585
3585
3548
3468
3378
3301
3234
3174
3122
3066
2980
2856
2726
2634
2590
2542
2438
2287
2145
2054
1998
1933
1844
1757
1694
1643
1568
1466
1376
1337
1330
1292
1186
1052
965
958
976
941
846
758
732
753
756
712
654
631
648
665
645
591
531
480
438
399
363
333
306
270
227
187
168
179
208
208
137
0
-143
-215
-194
-146
-171
-296
-442
-485
-387
-254
-236
-363
-513
-549
-470
-406
-454
-567
-628
-604
-576
-612
-685
-710
-669
-627
-648
-712
-750
-735
-689
-650
-639
-662
-709
-768
-817
-836
-835
-847
-889
-956
-1018
-1044
-1038
-1042
-1100
-1214
-1337
-1417
-1456
-1507
-1593
-1672
-1689
-1671
-1699
-1804
-1910
-1909
-1808
-1737
-1816
-2012
-2179
-2213
-2161
-2157
-2275
-2456
-2601
-2655
-2636
-2594
-2580
-2622
-2705
-2773
-2760
-2661
-2571
-2578
-2669
-2724
-2661
-2530
-2453
-2473
-2492
-2401
-2201
-1983
-1790
-1575
-1307
-1041
-876
-831
-832
-823
-844
-972
-1229
-1574
-1971
-2411
-2851
-3181
-3332
-3349
-3342
-3342
-3265
-3015
-2633
-2280
-2086
-2042
-2055
-2060
-2051
-2038
-2028
-2032
-2050
-2056
-1991
-1829
-1631
-1494
-1446
-1416
-1333
-1228
-1189
-1240
-1283
-1206
-1024
-863
-811
-824
-799
-709
-623
-596
-597
-555
-459
-357
-282
-216
-132
-52
-2
36
116
245
376
483
586
710
839
938
1018
1134
1307
1485
1608
1685
1791
1953
2129
2273
2391
2515
2648
2762
2857
2976
3131
3275
3367
3431
3527
3669
3812
3921
4029
4185
4377
4515
4530
4444
4368
4399
4523
4633
4622
4503
4417
4502
4742
4973
5061
5026
5001
5052
5110
5076
4959
4853
4819
4812
4753
4632
4509
4448
4444
4434
4366
4239
4104
4020
4011
4040
4043
4004
3962
3949
3946
3909
3838
3788
3786
3801
3775
3696
3612
3580
3599
3608
3561
3473
3402
3405
3468
3528
3545
3540
3564
3632
3700
3718
3690
3650
3615
3568
3510
3475
3488
3519
3514
3466
3420
3412
3425
3421
3397
3384
3389
3386
3354
3315
3301
3321
3340
3340
3330
3340
3376
3433
3489
3540
3584
3631
3673
3691
3667
3616
3585
3609
3660
3677
3634
3581
3588
3670
3771
3830
3842
3846
3879
3938
3999
4047
4083
4116
4155
4205
4269
4342
4407
4452
4479
4505
4541
4594
4655
4705
4730
4736
4740
4752
4765
4758
4728
4689
4657
4633
4606
4572
4548
4556
4593
4633
4660
4676
4693
4707
4706
4692
4679
4680
4681
4660
4626
4611
4632
4674
4708
4728
4747
4773
4793
4795
4790
4794
4808
4817
4807
4776
4735
4700
4694
4725
4767
4768
4710
4642
4644
4749
4914
5085
5269
5512
5801
6041
6149
6147
6122
6112
6044
5836
5500
5126
4762
4374
3939
3536
3280
3189
3160
3092
3021
3077
3317
3642
3871
3909
3817
3720
3682
3668
3609
3489
3362
3290
3287
3324
3369
3417
3474
3515
3507
3449
3378
3342
3347
3367
3372
3341
3258
3132
3028
3037
3184
3383
3523
3598
3714
3964
4287
4506
4489
4276
4033
3893
3861
3848
3787
3686
3610
3598
3631
3663
3693
3755
3835
3840
3683
3409
3192
3163
3241
3195
2901
2485
2170
2020
1888
1623
1271
1020
973
1035
1043
962
893
921
983
932
697
366
104
-7
-52
-208
-569
-1052
-1441
-1595
-1591
-1651
-1914
-2293
-2603
-2747
-2793
-2869
-3041
-3278
-3520
-3720
-3851
-3922
-4003
-4158
-4370
-4543
-4626
-4674
-4766
-4873
-4908
-4861
-4864
-5040
-5338
-5596
-5740
-5868
-6097
-6402
-6662
-6825
-6959
-7140
-7334
-7466
-7554
-7688
-7923
-8205
-8479
-8760
-9082
-9384
-9558
-9578
-9564
-9662
-9866
-10018
-10007
-9903
-9882
-10012
-10193
-10285
-10282
-10281
-10348
-10426
-10420
-10329
-10248
-10250
-10303
-10307
-10209
-10055
-9948
-9943
-10000
-10027
-9969
-9854
-9768
-9772
-9836
-9885
-9875
-9835
-9822
-9842
-9850
-9811
-9751
-9713
-9700
-9669
-9593
-9497
-9435
-9408
-9370
-9293
-9217
-9197
-9218
-9190
-9046
-8817
-8603
-8469
-8385
-8290
-8169
-8067
-8010
-7966
-7890
-7785
-7700
-7671
-7663
-7604
-7456
-7274
-7155
-7161
-7236
-7250
-7129
-6929
-6794
-6799
-6862
-6846
-6717
-6569
-6494
-6460
-6371
-6209
-6080
-6067
-6108
-6070
-5932
-5826
-5877
-6048
-6165
-6129
-6007
-5939
-5953
-5958
-5866
-5713
-5597
-5569
-5591
-5594
-5545
-5474
-5422
-5422
-5472
-5518
-5484
-5328
-5107
-4926
-4819
-4699
-4467
-4155
-3918
-3865
-3937
-3978
-3936
-3919
-4054
-4333
-4634
-4873
-5082
-5327
-5576
-5726
-5720
-5619
-5516
-5420
-5251
-4950
-4577
-4259
-4075
-4000
-3950
-3876
-3796
-3750
-3752
-3777
-3777
-3720
-3603
-3461
-3336
-3241
-3163
-3083
-3010
-2971
-2969
-2955
-2882
-2753
-2631
-2567
-2554
-2546
-2510
-2458
-2409
-2357
-2298
-2250
-2229
-2211
-2144
-2022
-1893
-1809
-1754
-1666
-1519
-1357
-1237
-1161
-1085
-986
-882
-805
-759
-714
-642
-535
-412
-299
-208
-120
-12
120
248
342
416
512
647
797
923
1029
1146
1287
1431
1543
1629
1718
1832
1961
2089
2212
2336
2457
2575
2695
2813
2923
3025
3118
3209
3293
3366
3441
3538
3654
3766
3861
3954
4065
4174
4243
4277
4336
4467
4627
4731
4752
4773
4903
5146
5385
5510
5527
5550
5678
5891
6072
6126
6077
6036
6096
6242
6379
6436
6434
6449
6512
6581
6614
6627
6658
6696
6688
6628
6586
6623
6700
6702
6583
6419
6315
6271
6200
6051
5876
5753
5685
5611
5496
5376
5281
5173
4996
4756
4520
4334
4173
3992
3796
3646
3564
3503
3400
3241
3085
2980
2918
2839
2709
2551
2422
2357
2341
2327
2284
2216
2148
2092
2049
2007
1955
1895
1839
1799
1785
1786
1786
1784
1800
1852
1928
1988
2004
2003
2034
2106
2177
2200
2180
2169
2212
2301
2399
2480
2546
2603
2643
2669
2700
2753
2815
2855
2864
2875
2921
3004
3090
3156
3212
3288
3390
3495
3589
3675
3762
3844
3909
3954
3999
4062
4132
4183
4207
4232
4298
4418
4556
4667
4740
4817
4941
5100
5230
5297
5335
5414
5554
5700
5801
5877
6001
6199
6402
6531
6610
6762
7057
7412
7653
7709
7688
7750
7915
8045
8010
7823
7592
7370
7114
6795
6492
6317
6276
6269
6235
6246
6422
6765
7133
7387
7513
7595
7690
7768
7786
7752
7720
7726
7756
7783
7807
7854
7947
8085
8232
8345
8402
8422
8448
8505
8583
8660
8717
8746
8740
8703
8661
8651
8684
8726
8739
8722
8716
8750
8806
8848
8855
8837
8817
8806
8809
8828
8848
8838
8780
8692
8611
8556
8514
8472
8437
8423
8426
8427
8422
8436
8480
8514
8477
8354
8208
8114
8090
8090
8068
8029
8012
8024
8031
8006
7959
7908
7841
7728
7580
7460
7428
7469
7502
7462
7367
7289
7274
7286
7246
7112
6915
6741
6658
6664
6691
6682
6643
6633
6684
6748
6736
6616
6454
6339
6293
6253
6154
6013
5913
5919
5995
6040
5972
5811
5652
5572
5561
5548
5470
5349
5254
5221
5204
5137
5018
4922
4919
4989
5030
4966
4830
4734
4736
4805
4850
4816
4725
4625
4540
4462
4389
4333
4287
4222
4132
4062
4074
4167
4263
4286
4234
4165
4128
4113
4094
4076
4055
3987
3827
3599
3409
3345
3379
3402
3347
3264
3239
3274
3281
3194
3049
2937
2895
2854
2739
2577
2479
2512
2597
2584
2427
2256
2249
2419
2600
2630
2533
2458
2497
2585
2620
2584
2542
2524
2493
2434
2398
2428
2485
2488
2435
2409
2461
2529
2505
2372
2233
2181
2202
2212
2177
2138
2144
2178
2177
2104
1984
1872
1789
1717
1630
1529
1445
1411
1427
1462
1473
1439
1378
1320
1284
1274
1271
1253
1208
1138
1066
1022
1018
1029
1017
971
923
910
929
940
919
897
930
1029
1131
1178
1215
1357
1654
1990
2186
2187
2120
2139
2222
2200
1951
1536
1093
673
220
-279
-723
-986
-1058
-1038
-1008
-950
-810
-580
-317
-101
14
1
-114
-249
-326
-341
-364
-444
-550
-601
-571
-512
-475
-458
-439
-431
-471
-558
-643
-685
-702
-739
-798
-836
-838
-848
-910
-990
-998
-891
-746
-696
-774
-865
-839
-719
-655
-753
-927
-1005
-920
-780
-719
-749
-773
-729
-659
-647
-692
-725
-703
-660
-653
-684
-713
-710
-691
-675
-644
-583
-520
-506
-545
-576
-540
-457
-422
-502
-639
-720
-693
-625
-604
-645
-681
-667
-628
-602
-572
-491
-370
-299
-344
-451
-490
-421
-338
-357
-475
-591
-631
-636
-685
-787
-888
-949
-1000
-1071
-1140
-1166
-1158
-1167
-1227
-1306
-1359
-1392
-1436
-1493
-1541
-1599
-1708
-1869
-2012
-2066
-2059
-2083
-2174
-2262
-2264
-2190
-2138
-2169
-2247
-2297
-2297
-2277
-2274
-2298
-2344
-2395
-2420
-2385
-2297
-2211
-2173
-2166
-2134
-2051
-1960
-1905
-1893
-1901
-1906
-1905
-1895
-1870
-1842
-1831
-1844
-1851
-1828
-1777
-1712
-1638
-1550
-1472
-1444
-1474
-1515
-1508
-1455
-1411
-1422
-1473
-1512
-1502
-1442
-1360
-1291
-1265
-1286
-1317
-1298
-1214
-1129
-1118
-1189
-1259
-1246
-1152
-1045
-983
-959
-921
-831
-687
-523
-384
-297
-248
-182
-56
112
249
301
303
346
475
636
740
761
755
788
858
928
977
1021
1087
1164
1223
1267
1330
1425
1519
1576
1597
1619
1665
1723
1759
1763
1756
1761
1776
1788
1793
1797
1794
1772
1738
1716
1720
1729
1703
1637
1569
1543
1557
1564
1521
1445
1389
1401
1473
1549
1583
1579
1587
1645
1742
1843
1946
2100
2324
2552
2676
2666
2615
2625
2673
2633
2419
2082
1737
1413
1043
594
158
-123
-214
-218
-232
-222
-81
217
559
791
866
860
867
893
887
829
768
756
781
793
784
791
842
903
909
855
793
763
746
703
653
654
720
777
745
627
510
461
462
455
419
390
400
436
458
448
426
421
441
465
476
481
497
533
577
610
619
609
601
610
637
670
690
690
686
704
764
852
930
974
1000
1041
1109
1176
1213
1224
1243
1290
1349
1393
1426
1478
1565
1670
1756
1804
1825
1845
1880
1932
1998
2069
2133
2183
2226
2271
2319
2347
2344
2324
2324
2358
2404
2438
2477
2568
2724
2883
2965
2945
2885
2852
2857
2862
2845
2823
2815
2812
2799
2792
2820
2872
2892
2832
2717
2625
2605
2624
2623
2586
2550
2555
2595
2633
2646
2639
2635
2646
2678
2723
2756
2757
2734
2731
2775
2838
2861
2825
2779
2785
2841
2886
2893
2898
2931
2964
2939
2860
2801
2814
2858
2856
2796
2737
2722
2715
2665
2590
2553
2570
2563
2461
2295
2174
2169
2238
2276
2233
2146
2101
2129
2197
2235
2212
2165
2154
2185
2206
2175
2112
2078
2089
2087
2021
1934
1916
2005
2140
2244
2312
2395
2504
2596
2623
2586
2500
2369
2207
2075
2037
2066
2045
1889
1653
1482
1453
1498
1493
1383
1225
1109
1071
1082
1080
998
804
520
207
-83
-332
-549
-746
-933
-1126
-1327
-1515
-1665
-1791
-1942
-2149
-2386
-2602
-2787
-2967
-3142
-3269
-3329
-3373
-3498
-3728
-3991
-4196
-4341
-4474
-4610
-4687
-4654
-4573
-4548
-4615
-4694
-4671
-4537
-4409
-4403
-4481
-4489
-4329
-4095
-3990
-4109
-4341
-4524
-4651
-4861
-5234
-5674
-6038
-6344
-6729
-7213
-7605
-7710
-7583
-7484
-7556
-7679
-7644
-7444
-7284
-7336
-7568
-7824
-8038
-8258
-8546
-8879
-9185
-9441
-9669
-9879
-10050
-10181
-10316
-10496
-10716
-10928
-11085
-11190
-11271
-11350
-11422
-11466
-11475
-11463
-11464
-11486
-11506
-11492
-11430
-11335
-11240
-11157
-11079
-11001
-10934
-10895
-10879
-10845
-10751
-10594
-10409
-10248
-10131
-10040
-9952
-9872
-9837
-9874
-9972
-10090
-10197
-10298
-10412
-10525
-10583
-10552
-10475
-10439
-10478
-10539
-10552
-10525
-10545
-10665
-10824
-10914
-10903
-10854
-10843
-10865
-10858
-10790
-10697
-10633
-10611
-10607
-10614
-10648
-10718
-10800
-10854
-10870
-10871
-10886
-10926
-10971
-10995
-10996
-10996
-11011
-11039
-11060
-11061
-11037
-10997
-10941
-10869
-10792
-10738
-10740
-10796
-10870
-10921
-10937
-10946
-10982
-11045
-11105
-11128
-11110
-11081
-11071
-11090
-11127
-11169
-11203
-11217
-11202
-11166
-11137
-11134
-11146
-11149
-11136
-11135
-11169
-11225
-11255
-11232
-11188
-11179
-11215
-11239
-11196
-11094
-11002
-10974
-11003
-11046
-11068
-11064
-11042
-11007
-10980
-10986
-11026
-11049
-10998
-10883
-10772
-10717
-10700
-10669
-10610
-10552
-10501
-10430
-10319
-10206
-10142
-10105
-10022
-9852
-9658
-9530
-9474
-9419
-9321
-9218
-9170
-9155
-9094
-8959
-8818
-8748
-8731
-8667
-8498
-8278
-8109
-8029
-7985
-7901
-7761
-7608
-7486
-7408
-7362
-7318
-7249
-7140
-7002
-6863
-6744
-6636
-6516
-6365
-6203
-6060
-5947
-5843
-5719
-5578
-5448
-5341
-5229
-5065
-4842
-4612
-4426
-4291
-4160
-3995
-3811
-3647
-3513
-3382
-3227
-3046
-2850
-2646
-2448
-2284
-2166
-2064
-1925
-1746
-1603
-1550
-1539
-1455
-1253
-1021
-874
-802
-707
-529
-326
-178
-74
65
246
370
394
423
626
1009
1400
1654
1850
2197
2747
3294
3597
3655
3690
3876
4136
4266
4189
4031
3943
3924
3877
3790
3781
3944
4224
4483
4671
4890
5257
5753
6230
6570
6785
6965
7152
7323
7460
7571
7688
7810
7913
8001
8108
8262
8429
8536
8529
8421
8278
8175
8130
8095
8001
7820
7591
7388
7234
7086
6889
6652
6426
6235
6052
5849
5655
5521
5440
5341
5174
4995
4910
4952
5039
5058
4979
4863
4785
4778
4825
4876
4874
4794
4680
4616
4652
4746
4811
4806
4777
4771
4787
4785
4758
4738
4722
4672
4564
4449
4392
4384
4356
4257
4112
3997
3947
3915
3830
3681
3520
3406
3341
3271
3150
3003
2897
2862
2847
2776
2643
2529
2504
2544
2566
2530
2488
2506
2578
2644
2668
2655
2644
2660
2708
2784
2862
2904
2902
2915
3001
3147
3261
3277
3236
3225
3276
3347
3399
3454
3560
3711
3842
3925
3995
4112
4265
4382
4408
4373
4365
4439
4574
4697
4766
4799
4845
4932
5046
5146
5201
5218
5228
5251
5276
5280
5251
5222
5227
5267
5300
5302
5291
5312
5376
5439
5454
5427
5411
5443
5495
5521
5510
5491
5494
5517
5543
5564
5579
5581
5566
5546
5544
5559
5561
5533
5490
5470
5481
5490
5471
5434
5409
5406
5403
5380
5347
5337
5356
5380
5371
5324
5273
5254
5269
5288
5281
5247
5214
5203
5218
5236
5230
5194
5145
5108
5091
5078
5054
5019
4998
4997
5000
4989
4967
4945
4916
4864
4791
4725
4685
4658
4611
4546
4495
4484
4496
4497
4483
4473
4475
4465
4426
4376
4353
4354
4336
4277
4210
4191
4226
4270
4277
4269
4299
4365
4392
4327
4228
4221
4348
4514
4583
4548
4548
4701
4957
5161
5243
5321
5549
5928
6293
6510
6620
6761
6978
7162
7193
7079
6920
6752
6497
6099
5670
5423
5423
5476
5332
5003
4812
5062
5678
6252
6438
6298
6192
6368
6723
6959
6908
6649
6364
6150
6010
5928
5895
5881
5837
5753
5670
5637
5644
5636
5591
5540
5535
5580
5629
5630
5574
5517
5520
5580
5606
5496
5264
5051
4981
5027
5068
5046
5031
5114
5265
5352
5287
5127
4987
4919
4891
4848
4776
4705
4666
4666
4693
4708
4674
4576
4436
4282
4127
3978
3873
3844
3881
3927
3926
3878
3827
3799
3782
3745
3654
3499
3312
3159
3104
3159
3250
3272
3180
3029
2913
2871
2867
2841
2786
2747
2751
2768
2741
2665
2602
2598
2605
2540
2401
2297
2326
2441
2500
2422
2284
2220
2263
2313
2255
2079
1860
1666
1510
1380
1261
1148
1030
912
818
766
731
664
560
462
404
360
270
119
-43
-161
-241
-333
-455
-554
-580
-554
-545
-574
-592
-551
-495
-533
-686
-846
-878
-788
-721
-785
-936
-1046
-1060
-1029
-1022
-1035
-1042
-1063
-1149
-1279
-1336
-1254
-1116
-1077
-1195
-1357
-1412
-1347
-1289
-1364
-1542
-1680
-1677
-1557
-1449
-1437
-1490
-1523
-1495
-1455
-1480
-1591
-1725
-1802
-1818
-1828
-1866
-1883
-1813
-1668
-1550
-1537
-1587
-1586
-1484
-1364
-1340
-1418
-1493
-1478
-1408
-1371
-1387
-1403
-1388
-1400
-1498
-1643
-1739
-1747
-1757
-1847
-1973
-2027
-1986
-1953
-2041
-2208
-2301
-2242
-2134
-2157
-2346
-2548
-2584
-2450
-2332
-2391
-2589
-2747
-2765
-2721
-2762
-2910
-3032
-3010
-2890
-2828
-2901
-3021
-3045
-2953
-2857
-2864
-2962
-3048
-3049
-2982
-2907
-2860
-2837
-2832
-2846
-2853
-2804
-2691
-2554
-2431
-2288
-2075
-1809
-1602
-1526
-1527
-1498
-1432
-1461
-1689
-2069
-2461
-2804
-3167
-3606
-4049
-4348
-4463
-4496
-4538
-4549
-4419
-4123
-3773
-3507
-3378
-3344
-3350
-3367
-3378
-3364
-3343
-3369
-3459
-3535
-3481
-3279
-3045
-2927
-2947
-2988
-2945
-2837
-2768
-2792
-2849
-2839
-2739
-2615
-2540
-2528
-2545
-2540
-2493
-2411
-2315
-2239
-2188
-2132
-2042
-1927
-1824
-1746
-1666
-1556
-1426
-1320
-1255
-1204
-1135
-1046
-958
-885
-827
-796
-795
-802
-772
-693
-605
-566
-581
-588
-540
-450
-367
-310
-252
-164
-59
32
104
182
285
406
520
602
642
651
659
702
793
899
980
1029
1077
1156
1259
1367
1466
1558
1628
1664
1680
1692
1724
1770
1827
1907
1997
2061
2074
2068
2110
2225
2360
2433
2426
2389
2381
2422
2493
2568
2617
2623
2600
2584
2613
2676
2726
2740
2745
2773
2817
2853
2886
2954
3063
3160
3181
3131
3094
3124
3180
3182
3106
3025
3016
3071
3109
3075
3006
2972
2985
2989
2933
2841
2776
2762
2748
2683
2593
2545
2577
2627
2618
2553
2507
2522
2564
2564
2508
2455
2452
2467
2428
2333
2260
2273
2343
2379
2334
2256
2223
2258
2313
2335
2317
2276
2218
2139
2057
2012
2018
2035
2007
1930
1867
1869
1931
1997
2028
2033
2043
2057
2053
2033
2023
2058
2109
2109
2035
1930
1871
1893
1954
1980
1942
1878
1840
1839
1835
1804
1761
1738
1730
1706
1650
1591
1576
1606
1637
1630
1589
1538
1504
1496
1507
1517
1494
1435
1396
1434
1532
1601
1574
1493
1465
1534
1624
1633
1549
1458
1443
1502
1574
1616
1629
1636
1653
1687
1732
1772
1790
1792
1808
1860
1936
2009
2090
2234
2474
2747
2945
3022
3034
3073
3139
3134
2976
2683
2336
1973
1567
1114
695
420
316
308
319
361
501
759
1059
1294
1404
1413
1379
1342
1307
1257
1178
1089
1027
1018
1060
1119
1165
1189
1203
1204
1183
1147
1108
1087
1085
1094
1101
1100
1092
1067
1014
941
882
868
887
900
888
900
1004
1206
1432
1599
1698
1789
1920
2067
2166
2179
2124
2044
1981
1953
1970
2015
2056
2068
2057
2046
2044
2039
2020
1997
1987
1987
1966
1913
1862
1862
1926
1998
1989
1879
1740
1668
1666
1609
1396
1109
975
1114
1366
1417
1157
837
825
1187
1593
1669
1400
1122
1127
1345
1460
1281
937
697
679
774
823
803
819
957
1171
1315
1284
1116
947
870
818
641
275
-168
-514
-704
-846
-1066
-1367
-1648
-1836
-1968
-2135
-2379
-2670
-2947
-3171
-3354
-3555
-3829
-4160
-4448
-4610
-4667
-4718
-4801
-4837
-4743
-4575
-4475
-4471
-4431
-4251
-4038
-4033
-4327
-4761
-5135
-5435
-5794
-6270
-6746
-7081
-7279
-7429
-7559
-7584
-7463
-7310
-7299
-7476
-7726
-7915
-8041
-8198
-8420
-8645
-8798
-8895
-9004
-9141
-9247
-9270
-9250
-9289
-9435
-9627
-9759
-9773
-9687
-9559
-9444
-9383
-9389
-9437
-9479
-9479
-9437
-9378
-9330
-9300
-9289
-9276
-9225
-9119
-8987
-8894
-8878
-8904
-8912
-8896
-8916
-9012
-9148
-9248
-9281
-9284
-9301
-9333
-9345
-9324
-9298
-9320
-9431
-9646
-9935
-10228
-10448
-10555
-10570
-10546
-10534
-10571
-10670
-10814
-10943
-11012
-11059
-11195
-11481
-11849
-12135
-12247
-12249
-12262
-12346
-12452
-12518
-12554
-12614
-12710
-12798
-12821
-12783
-12734
-12712
-12712
-12688
-12582
-12375
-12119
-11913
-11805
-11715
-11487
-11065
-10577
-10235
-10103
-10046
-9898
-9675
-9554
-9650
-9889
-10105
-10240
-10382
-10616
-10881
-11024
-10983
-10826
-10650
-10463
-10202
-9853
-9487
-9188
-8974
-8807
-8659
-8540
-8467
-8435
-8434
-8457
-8491
-8498
-8446
-8352
-8277
-8265
-8298
-8306
-8239
-8125
-8043
-8026
-8028
-7977
-7858
-7742
-7700
-7721
-7723
-7655
-7557
-7486
-7440
-7356
-7193
-7005
-6876
-6824
-6779
-6667
-6502
-6353
-6271
-6235
-6189
-6107
-6009
-5924
-5858
-5794
-5719
-5638
-5564
-5500
-5436
-5368
-5301
-5247
-5209
-5167
-5097
-5001
-4906
-4828
-4757
-4671
-4567
-4456
-4360
-4284
-4213
-4136
-4042
-3926
-3799
-3684
-3600
-3538
-3463
-3354
-3228
-3133
-3091
-3076
-3052
-2998
-2934
-2888
-2864
-2837
-2781
-2696
-2612
-2557
-2536
-2527
-2496
-2428
-2350
-2299
-2276
-2238
-2145
-2013
-1916
-1894
-1900
-1871
-1814
-1793
-1833
-1879
-1868
-1816
-1808
-1865
-1903
-1848
-1748
-1721
-1795
-1864
-1824
-1708
-1632
-1648
-1672
-1612
-1485
-1378
-1332
-1299
-1234
-1161
-1120
-1100
-1050
-953
-850
-796
-808
-846
-859
-823
-748
-655
-566
-487
-399
-277
-130
22
143
211
239
264
317
390
464
532
608
697
780
847
921
1036
1165
1229
1191
1157
1291
1612
1941
2046
1894
1666
1574
1649
1734
1691
1524
1347
1268
1329
1509
1748
1951
2037
1987
1868
1801
1850
1987
2112
2156
2124
2094
2150
2296
2453
2532
2506
2408
2270
2116
1979
1911
1938
2012
2021
1911
1735
1604
1544
1465
1290
1055
878
817
808
749
639
571
611
710
764
728
647
615
660
744
804
812
794
796
854
947
1008
991
929
905
954
1018
1022
983
994
1119
1294
1393
1401
1452
1671
1994
2208
2198
2084
2086
2249
2375
2249
1874
1455
1155
940
674
316
-19
-208
-242
-193
-109
32
233
443
580
628
646
693
761
793
768
729
740
814
900
948
960
976
1017
1051
1035
972
931
965
1062
1154
1205
1239
1301
1387
1445
1450
1433
1440
1471
1486
1464
1442
1467
1525
1554
1530
1507
1548
1654
1762
1827
1860
1894
1934
1962
1980
2011
2060
2104
2133
2170
2232
2289
2296
2258
2235
2268
2324
2339
2309
2308
2398
2555
2692
2759
2783
2815
2867
2909
2924
2928
2951
3008
3091
3185
3279
3360
3404
3399
3353
3300
3270
3263
3260
3247
3240
3266
3333
3417
3475
3484
3451
3402
3355
3316
3280
3248
3211
3164
3111
3063
3031
3005
2960
2875
2760
2654
2585
2552
2526
2482
2430
2387
2353
2312
2243
2161
2106
2089
2075
2014
1909
1817
1787
1799
1772
1660
1506
1397
1376
1403
1413
1390
1372
1390
1422
1424
1370
1274
1161
1050
953
889
874
910
973
1041
1108
1182
1262
1327
1348
1314
1250
1209
1238
1332
1434
1477
1456
1431
1477
1610
1768
1873
1894
1874
1896
2008
2188
2340
2364
2251
2090
2003
2027
2094
2133
2169
2291
2514
2754
2940
3105
3314
3511
3527
3300
3006
2903
3041
3210
3215
3130
3192
3490
3851
4056
4090
4113
4216
4312
4292
4186
4139
4223
4363
4453
4477
4487
4518
4570
4636
4711
4762
4747
4689
4694
4820
4999
5094
5039
4893
4759
4675
4628
4612
4630
4625
4518
4337
4230
4317
4503
4550
4327
3988
3805
3874
4022
4036
3892
3749
3726
3793
3840
3827
3797
3789
3809
3849
3908
3959
3954
3861
3707
3534
3327
3035
2639
2182
1701
1192
659
179
-147
-316
-436
-588
-717
-711
-555
-346
-180
-67
12
33
-42
-176
-280
-293
-252
-219
-197
-151
-70
31
141
267
382
407
296
115
7
56
198
297
277
181
91
28
-33
-102
-156
-192
-249
-358
-484
-548
-519
-466
-480
-563
-639
-643
-607
-602
-655
-720
-743
-747
-772
-818
-843
-836
-839
-888
-932
-898
-800
-744
-809
-921
-926
-776
-614
-618
-777
-895
-798
-543
-342
-320
-392
-390
-261
-115
-72
-122
-167
-122
-15
68
70
27
22
101
228
312
308
257
246
305
393
446
454
460
494
554
623
695
760
792
776
734
713
713
713
697
693
735
811
874
904
926
959
983
955
888
843
852
876
852
794
782
858
972
1041
1047
1046
1085
1140
1155
1121
1089
1101
1147
1184
1185
1160
1135
1135
1170
1224
1254
1225
1164
1152
1220
1312
1321
1228
1122
1095
1135
1155
1100
1021
1007
1077
1163
1194
1164
1126
1111
1103
1070
1019
999
1031
1073
1079
1065
1104
1223
1347
1378
1325
1303
1383
1496
1518
1461
1485
1690
1983
2154
2145
2121
2268
2544
2730
2682
2492
2367
2389
2480
2530
2511
2483
2484
2514
2574
2651
2707
2690
2592
2486
2444
2473
2498
2454
2373
2338
2388
2469
2477
2373
2229
2171
2225
2308
2314
2241
2197
2260
2373
2428
2386
2317
2288
2266
2195
2087
2016
2013
2013
1959
1895
1894
1955
1984
1921
1834
1834
1936
2037
2030
1932
1863
1921
2074
2204
2266
2351
2579
2941
3273
3422
3418
3422
3506
3549
3384
3006
2569
2194
1843
1431
1008
738
703
806
898
960
1111
1430
1843
2198
2402
2484
2534
2603
2692
2782
2850
2889
2908
2944
3036
3180
3339
3478
3572
3626
3664
3717
3799
3897
3976
4017
4053
4124
4223
4293
4284
4217
4181
4243
4371
4472
4482
4422
4366
4352
4352
4330
4286
4250
4242
4257
4276
4294
4304
4298
4257
4196
4146
4124
4104
4065
4005
3943
3894
3878
3905
3958
3979
3914
3794
3721
3763
3862
3880
3767
3640
3636
3759
3861
3820
3668
3551
3548
3592
3563
3422
3253
3158
3144
3119
3006
2822
2672
2617
2623
2606
2536
2444
2377
2336
2295
2241
2179
2108
2011
1889
1769
1686
1632
1570
1489
1405
1329
1266
1204
1143
1084
1005
901
795
727
698
657
567
455
395
414
452
429
337
259
266
337
387
370
319
299
317
332
312
285
290
315
317
283
272
331
425
479
474
471
538
651
731
749
757
811
885
912
893
910
1029
1206
1333
1369
1384
1467
1619
1753
1795
1764
1734
1758
1822
1883
1919
1944
1985
2051
2129
2194
2230
2245
2255
2272
2283
2274
2246
2222
2228
2266
2324
2388
2454
2514
2561
2602
2658
2748
2858
2942
2965
2949
2949
2998
3076
3135
3148
3121
3074
3029
3003
3004
3016
2987
2893
2784
2742
2791
2856
2849
2766
2685
2659
2655
2616
2535
2469
2449
2440
2395
2316
2244
2203
2179
2147
2084
1985
1849
1694
1559
1463
1386
1295
1194
1123
1118
1156
1183
1165
1118
1090
1098
1112
1087
1013
943
947
1044
1167
1236
1273
1391
1652
1950
2099
2042
1920
1911
2003
2004
1762
1337
909
562
214
-219
-682
-1026
-1183
-1228
-1261
-1271
-1156
-873
-522
-274
-223
-323
-453
-532
-570
-629
-761
-955
-1131
-1201
-1150
-1082
-1124
-1296
-1467
-1486
-1372
-1325
-1506
-1819
-1972
-1787
-1415
-1199
-1326
-1661
-1925
-1983
-1947
-2006
-2245
-2575
-2847
-2977
-2992
-2988
-3041
-3150
-3254
-3312
-3346
-3412
-3532
-3675
-3793
-3867
-3897
-3902
-3916
-3969
-4044
-4060
-3979
-3869
-3859
-3996
-4182
-4289
-4312
-4354
-4488
-4668
-4805
-4898
-5016
-5184
-5338
-5397
-5376
-5369
-5430
-5514
-5526
-5430
-5281
-5163
-5103
-5047
-4927
-4739
-4543
-4413
-4361
-4337
-4282
-4188
-4099
-4067
-4104
-4154
-4171
-4172
-4221
-4351
-4520
-4643
-4709
-4805
-5012
-5289
-5490
-5529
-5487
-5526
-5710
-5948
-6117
-6211
-6332
-6569
-6888
-7190
-7423
-7613
-7799
-7978
-8119
-8221
-8328
-8471
-8634
-8769
-8865
-8960
-9086
-9230
-9349
-9423
-9465
-9493
-9502
-9482
-9455
-9462
-9511
-9569
-9601
-9613
-9637
-9681
-9723
-9729
-9706
-9690
-9698
-9708
-9687
-9633
-9565
-9487
-9382
-9250
-9111
-8990
-8885
-8769
-8627
-8476
-8342
-8228
-8094
-7909
-7689
-7484
-7321
-7180
-7023
-6837
-6656
-6515
-6405
-6293
-6161
-6025
-5908
-5789
-5636
-5447
-5265
-5123
-4995
-4836
-4644
-4468
-4346
-4266
-4192
-4118
-4074
-4083
-4126
-4178
-4247
-4353
-4468
-4533
-4506
-4426
-4372
-4377
-4404
-4386
-4293
-4160
-4059
-4030
-4051
-4071
-4048
-3990
-3931
-3897
-3896
-3915
-3940
-3955
-3940
-3893
-3838
-3802
-3804
-3819
-3821
-3791
-3741
-3690
-3656
-3649
-3663
-3675
-3656
-3607
-3564
-3569
-3627
-3688
-3691
-3624
-3538
-3482
-3437
-3333
-3140
-2918
-2747
-2615
-2424
-2115
-1772
-1546
-1495
-1515
-1457
-1300
-1169
-1202
-1425
-1745
-2061
-2325
-2538
-2711
-2841
-2915
-2911
-2814
-2630
-2393
-2141
-1888
-1639
-1419
-1275
-1236
-1262
-1257
-1153
-988
-874
-896
-1005
-1066
-987
-800
-630
-564
-581
-601
-578
-527
-467
-397
-309
-233
-211
-247
-281
-248
-149
-51
-17
-27
-5
93
221
290
272
219
213
292
426
561
657
707
737
793
897
1014
1061
997
886
846
925
1054
1133
1146
1168
1264
1418
1542
1567
1511
1471
1523
1642
1704
1627
1479
1445
1638
1964
2198
2224
2146
2149
2296
2471
2536
2476
2379
2330
2349
2393
2435
2459
2463
2452
2426
2379
2314
2244
2191
2169
2174
2180
2163
2112
2039
1978
1964
1992
2008
1941
1770
1578
1477
1498
1565
1563
1458
1313
1219
1172
1110
995
853
728
610
459
284
146
73
12
-121
-334
-545
-693
-810
-956
-1132
-1279
-1365
-1431
-1533
-1680
-1826
-1942
-2027
-2106
-2205
-2340
-2510
-2685
-2817
-2901
-2974
-3078
-3199
-3294
-3328
-3321
-3310
-3318
-3337
-3357
-3373
-3377
-3385
-3418
-3495
-3606
-3709
-3780
-3823
-3861
-3914
-3973
-4003
-3972
-3900
-3846
-3859
-3933
-4001
-4009
-3966
-3927
-3928
-3955
-3962
-3925
-3854
-3772
-3693
-3625
-3566
-3502
-3423
-3342
-3283
-3253
-3219
-3151
-3065
-3002
-2970
-2934
-2862
-2767
-2697
-2665
-2644
-2596
-2511
-2420
-2348
-2299
-2249
-2174
-2064
-1937
-1835
-1772
-1716
-1615
-1466
-1347
-1331
-1399
-1441
-1377
-1247
-1159
-1166
-1198
-1150
-1003
-838
-739
-706
-677
-608
-524
-472
-464
-472
-466
-444
-412
-373
-317
-240
-160
-90
-22
62
164
263
347
445
607
837
1067
1211
1248
1246
1272
1321
1319
1221
1047
842
612
344
69
-136
-220
-220
-215
-229
-209
-95
105
322
492
597
648
659
650
657
709
786
841
843
821
834
907
1010
1096
1140
1148
1133
1109
1099
1122
1175
1230
1257
1255
1251
1275
1326
1385
1422
1441
1480
1567
1685
1773
1797
1784
1802
1872
1958
2014
2044
2090
2162
2235
2283
2308
2331
2355
2383
2433
2517
2598
2618
2579
2563
2638
2760
2816
2766
2699
2735
2901
3115
3287
3393
3472
3569
3699
3849
3971
4003
3920
3802
3777
3897
4068
4156
4144
4161
4317
4578
4795
4865
4795
4680
4611
4648
4786
4944
5004
4944
4903
5068
5440
5771
5819
5625
5481
5573
5762
5761
5511
5250
5221
5375
5456
5332
5148
5121
5265
5397
5373
5239
5144
5158
5216
5239
5206
5151
5099
5054
5005
4941
4857
4762
4674
4604
4518
4370
4163
3957
3812
3708
3574
3382
3204
3116
3093
3023
2853
2646
2516
2477
2435
2305
2121
1989
1962
1976
1922
1772
1589
1440
1326
1208
1073
953
861
775
689
645
690
798
867
831
734
679
711
760
736
645
581
617
723
815
853
854
850
838
811
805
864
974
1067
1093
1094
1166
1328
1485
1520
1420
1291
1247
1281
1290
1195
1021
864
789
780
769
709
604
490
400
346
317
280
209
98
-29
-131
-199
-247
-315
-421
-537
-617
-644
-647
-670
-724
-790
-865
-970
-1091
-1162
-1123
-1020
-989
-1112
-1306
-1381
-1256
-1077
-1051
-1225
-1426
-1469
-1354
-1246
-1257
-1325
-1311
-1178
-1039
-1005
-1016
-893
-556
-164
39
-6
-118
-87
68
129
-52
-391
-716
-1009
-1387
-1883
-2320
-2496
-2459
-2462
-2640
-2821
-2725
-2307
-1831
-1594
-1626
-1728
-1733
-1664
-1636
-1684
-1755
-1797
-1835
-1882
-1897
-1833
-1711
-1624
-1629
-1700
-1772
-1814
-1837
-1849
-1834
-1789
-1744
-1752
-1819
-1904
-1950
-1950
-1949
-1985
-2053
-2108
-2103
-2039
-1968
-1938
-1953
-1979
-1987
-1982
-1975
-1952
-1900
-1830
-1793
-1809
-1842
-1835
-1770
-1690
-1647
-1655
-1689
-1714
-1709
-1681
-1650
-1632
-1633
-1636
-1612
-1549
-1461
-1375
-1307
-1244
-1183
-1134
-1114
-1116
-1104
-1056
-996
-976
-1006
-1024
-958
-819
-700
-680
-741
-777
-731
-662
-666
-754
-835
-817
-723
-668
-713
-792
-801
-724
-643
-642
-711
-764
-748
-688
-646
-650
-683
-715
-734
-737
-718
-685
-679
-721
-779
-800
-768
-741
-781
-883
-974
-989
-941
-890
-874
-889
-897
-860
-783
-700
-661
-685
-739
-767
-744
-697
-640
-563
-459
-351
-287
-284
-288
-236
-124
-22
0
-50
-83
-18
122
240
273
236
184
155
154
187
273
380
426
366
285
347
579
812
856
743
688
833
1083
1216
1154
1040
1050
1198
1338
1369
1311
1268
1323
1464
1622
1734
1789
1824
1899
2028
2161
2238
2245
2231
2258
2346
2464
2541
2557
2555
2601
2698
2715
2558
2313
2195
2321
2552
2624
2464
2285
2327
2571
2773
2777
2686
2675
2766
2828
2762
2662
2674
2786
2853
2775
2631
2573
2657
2773
2785
2662
2498
2401
2385
2392
2360
2309
2292
2304
2272
2162
2046
2042
2163
2274
2240
2081
1957
1998
2181
2367
2448
2443
2472
2628
2882
3111
3195
3135
3041
2992
2943
2785
2502
2180
1875
1518
1023
473
80
-26
33
45
-32
-37
152
475
731
822
813
780
731
639
529
456
415
367
296
248
258
299
323
307
265
207
127
42
-13
-26
-37
-79
-141
-184
-203
-236
-306
-368
-381
-367
-385
-451
-513
-524
-514
-528
-553
-537
-462
-386
-367
-373
-327
-204
-82
-37
-44
-13
105
263
374
422
466
562
698
820
904
985
1110
1288
1485
1660
1801
1944
2124
2347
2572
2757
2891
3017
3188
3404
3615
3780
3916
4074
4278
4493
4670
4797
4920
5073
5251
5427
5588
5732
5848
5926
5990
6098
6283
6493
6635
6682
6714
6826
7021
7198
7272
7269
7285
7365
7466
7522
7530
7546
7611
7695
7744
7738
7718
7730
7786
7847
7869
7845
7812
7808
7843
7883
7890
7858
7819
7795
7778
7734
7658
7571
7499
7438
7377
7322
7290
7278
7253
7199
7141
7114
7107
7068
6962
6822
6717
6673
6648
6586
6482
6385
6337
6328
6311
6252
6146
6014
5882
5775
5700
5632
5537
5399
5257
5170
5163
5188
5181
5119
5042
4990
4964
4922
4834
4716
4605
4520
4455
4399
4352
4325
4322
4329
4323
4285
4208
4097
3964
3822
3684
3569
3497
3465
3440
3369
3224
3038
2881
2788
2710
2576
2386
2232
2211
2317
2434
2459
2404
2366
2389
2404
2316
2122
1923
1800
1738
1661
1537
1384
1227
1046
844
678
588
497
276
-88
-446
-626
-651
-716
-941
-1205
-1294
-1178
-1049
-1073
-1188
-1201
-1071
-981
-1112
-1410
-1642
-1684
-1631
-1621
-1626
-1524
-1313
-1159
-1195
-1349
-1455
-1512
-1685
-2100
-2646
-3095
-3387
-3660
-4026
-4430
-4725
-4871
-4965
-5076
-5165
-5162
-5070
-4927
-4728
-4460
-4192
-4037
-4004
-3962
-3794
-3561
-3432
-3474
-3549
-3493
-3305
-3134
-3094
-3156
-3237
-3296
-3357
-3435
-3496
-3514
-3486
-3427
-3369
-3333
-3327
-3346
-3355
-3335
-3310
-3328
-3405
-3492
-3519
-3451
-3324
-3222
-3187
-3192
-3163
-3067
-2962
-2957
-3100
-3319
-3480
-3515
-3476
-3484
-3606
-3787
-3893
-3839
-3684
-3598
-3707
-3958
-4127
-4034
-3729
-3463
-3430
-3570
-3643
-3499
-3232
-3054
-3075
-3218
-3340
-3384
-3386
-3383
-3351
-3265
-3153
-3073
-3033
-2990
-2908
-2828
-2830
-2928
-3031
-3030
-2921
-2806
-2776
-2815
-2828
-2750
-2623
-2547
-2577
-2690
-2806
-2850
-2788
-2638
-2479
-2401
-2442
-2538
-2575
-2491
-2333
-2217
-2205
-2258
-2292
-2272
-2240
-2254
-2319
-2397
-2460
-2533
-2647
-2773
-2833
-2798
-2739
-2767
-2917
-3110
-3242
-3302
-3379
-3538
-3749
-3928
-4014
-4032
-4039
-4072
-4131
-4200
-4272
-4354
-4454
-4574
-4700
-4815
-4898
-4950
-4982
-4996
-4992
-4992
-5031
-5126
-5231
-5279
-5262
-5244
-5294
-5396
-5467
-5459
-5421
-5435
-5516
-5601
-5634
-5632
-5648
-5690
-5707
-5678
-5633
-5625
-5659
-5673
-5622
-5533
-5477
-5489
-5520
-5500
-5413
-5325
-5302
-5332
-5348
-5309
-5236
-5177
-5128
-5054
-4952
-4873
-4856
-4867
-4833
-4743
-4676
-4691
-4833
-4760
-4674
-4551
-4474
-4453
-4425
-4341
-4216
-4105
-4031
-3980
-3924
-3853
-3768
-3671
-3565
-3468
-3393
-3341
-3306
-3284
-3269
-3258
-3239
-3195
-3127
-3054
-2998
-2957
-2896
-2782
-2628
-2499
-2449
-2465
-2472
-2411
-2295
-2181
-2106
-2043
-1949
-1815
-1645
-1416
-1100
-736
-443
-317
-335
-376
-361
-343
-426
-640
-930
-1239
-1561
-1898
-2190
-2359
-2401
-2400
-2425
-2440
-2362
-2163
-1901
-1652
-1449
-1298
-1213
-1208
-1235
-1208
-1100
-992
-996
-1117
-1223
-1173
-963
-728
-596
-581
-593
-562
-499
-451
-421
-370
-294
-247
-281
-368
-407
-324
-153
-13
14
-52
-105
-55
89
235
298
282
275
359
538
733
862
913
931
946
944
910
856
817
817
851
911
982
1044
1072
1074
1098
1167
1226
1192
1057
922
891
948
985
948
904
943
1049
1110
1058
961
944
1034
1127
1117
1005
898
878
932
981
973
926
889
884
906
935
963
988
1000
977
922
872
856
866
857
802
729
689
697
727
745
755
767
791
814
833
872
936
997
1011
980
946
949
977
984
951
906
887
892
891
871
858
876
918
956
966
955
950
962
988
1007
1000
965
927
925
958
985
966
910
876
902
971
1029
1035
1004
974
984
1033
1093
1123
1108
1077
1079
1124
1161
1143
1080
1038
1055
1093
1085
1023
968
974
1019
1035
1000
966
984
1037
1055
1005
930
896
897
873
797
721
717
782
845
851
833
859
933
993
989
948
926
928
914
873
845
865
905
905
852
802
804
839
842
794
743
755
829
908
944
938
931
954
996
1025
1025
1009
1014
1061
1134
1183
1175
1128
1099
1130
1200
1253
1263
1273
1331
1432
1526
1586
1634
1684
1697
1638
1560
1567
1682
1814
1855
1834
1882
2078
2344
2523
2570
2595
2732
2982
3217
3308
3263
3208
3231
3286
3259
3117
2941
2802
2628
2281
1793
1407
1339
1524
1662
1567
1420
1578
2168
2917
3400
3441
3230
3113
3250
3533
3720
3691
3534
3448
3563
3806
4000
4047
4011
4006
4036
3994
3812
3587
3500
3601
3717
3661
3454
3323
3422
3641
3729
3555
3257
3066
3061
3149
3223
3254
3254
3219
3133
3041
3006
3030
3059
3038
2945
2791
2622
2507
2497
2535
2480
2279
2072
2054
2212
2328
2238
2065
2025
2140
2190
2014
1754
1659
1737
1749
1562
1328
1281
1453
1633
1678
1691
1828
2042
2138
2034
1865
1801
1805
1723
1514
1336
1341
1476
1541
1429
1238
1147
1216
1329
1349
1242
1090
996
1008
1078
1109
1043
908
804
787
812
785
674
554
505
507
466
314
108
-46
-130
-214
-358
-540
-675
-721
-728
-778
-883
-980
-1001
-972
-987
-1104
-1264
-1338
-1281
-1199
-1227
-1376
-1509
-1497
-1382
-1330
-1435
-1621
-1739
-1729
-1670
-1668
-1739
-1828
-1888
-1926
-1964
-1999
-2019
-2024
-2027
-2035
-2024
-1984
-1955
-1976
-2033
-2064
-2040
-2006
-2019
-2093
-2179
-2211
-2181
-2129
-2101
-2113
-2151
-2201
-2242
-2254
-2234
-2205
-2180
-2157
-2133
-2121
-2150
-2218
-2269
-2252
-2203
-2203
-2298
-2423
-2467
-2399
-2310
-2321
-2456
-2599
-2628
-2558
-2544
-2696
-2937
-3079
-3019
-2900
-2951
-3200
-3421
-3377
-3099
-2867
-2896
-3157
-3426
-3503
-3377
-3228
-3246
-3468
-3747
-3856
-3727
-3532
-3499
-3635
-3756
-3705
-3565
-3541
-3676
-3835
-3886
-3864
-3851
-3843
-3794
-3735
-3756
-3828
-3822
-3685
-3550
-3596
-3817
-3989
-3952
-3767
-3564
-3379
-3158
-2893
-2653
-2462
-2245
-1981
-1814
-1899
-2232
-2629
-2955
-3279
-3762
-4383
-4937
-5223
-5226
-5102
-5001
-4977
-4958
-4846
-4605
-4287
-4055
-4043
-4240
-4442
-4445
-4266
-4097
-4098
-4236
-4327
-4246
-4044
-3865
-3797
-3814
-3843
-3820
-3756
-3719
-3759
-3845
-3868
-3768
-3618
-3541
-3574
-3623
-3586
-3471
-3361
-3287
-3205
-3088
-2989
-2963
-2973
-2938
-2834
-2710
-2619
-2559
-2499
-2424
-2379
-2377
-2386
-2366
-2310
-2255
-2221
-2176
-2089
-1960
-1837
-1744
-1676
-1604
-1518
-1451
-1415
-1343
-1190
-1001
-923
-1001
-1099
-1030
-806
-638
-688
-872
-951
-827
-636
-539
-543
-531
-439
-304
-175
-36
99
160
116
41
58
177
275
260
190
203
325
452
504
512
560
656
701
661
609
632
706
730
675
633
700
857
996
1037
1017
1015
1049
1064
1038
1021
1053
1104
1097
1047
1068
1209
1364
1373
1216
1053
1041
1167
1287
1314
1280
1246
1227
1240
1329
1506
1669
1693
1593
1533
1630
1810
1900
1846
1770
1774
1828
1839
1805
1793
1814
1799
1711
1634
1669
1795
1895
1893
1847
1836
1857
1862
1842
1829
1830
1801
1736
1685
1689
1700
1623
1447
1296
1278
1361
1411
1360
1287
1311
1439
1571
1604
1553
1508
1528
1586
1616
1587
1504
1427
1430
1535
1686
1785
1797
1799
1891
2070
2200
2173
2055
2010
2096
2191
2155
2014
1938
2032
2215
2315
2283
2245
2326
2508
2665
2699
2645
2603
2624
2680
2707
2683
2662
2689
2767
2852
2892
2893
2902
2950
3001
3010
2985
2980
3014
3032
2991
2952
3026
3231
3448
3561
3620
3804
4196
4650
4930
4962
4899
4927
5042
5071
4907
4620
4341
4095
3800
3425
3095
2958
3030
3176
3266
3311
3428
3679
3990
4227
4314
4285
4250
4272
4330
4362
4353
4356
4424
4531
4603
4617
4630
4703
4803
4833
4758
4663
4655
4745
4856
4917
4939
4963
4984
4970
4928
4905
4934
5001
5057
5071
5060
5048
5055
5092
5167
5271
5373
5446
5496
5565
5676
5793
5858
5843
5790
5773
5817
5897
5959
5979
5976
5972
5970
5975
5998
6048
6113
6167
6200
6245
6336
6472
6607
6692
6701
6654
6589
6541
6525
6528
6530
6529
6555
6643
6781
6907
6951
6896
6797
6717
6672
6629
6558
6488
6476
6539
6607
6581
6440
6271
6186
6196
6195
6078
5867
5687
5642
5707
5755
5696
5551
5408
5315
5240
5131
5005
4932
4931
4934
4861
4739
4682
4731
4789
4732
4562
4417
4398
4446
4443
4383
4374
4476
4618
4697
4700
4691
4691
4666
4623
4634
4727
4793
4705
4480
4287
4226
4182
3965
3549
3117
2862
2765
2642
2385
2090
1933
1947
1955
1767
1388
1024
863
888
909
790
584
430
396
435
472
498
525
503
363
131
-42
-22
154
293
243
38
-153
-223
-239
-347
-595
-882
-1098
-1245
-1403
-1590
-1725
-1747
-1738
-1830
-2037
-2224
-2291
-2316
-2456
-2740
-3032
-3204
-3282
-3373
-3513
-3635
-3699
-3752
-3826
-3885
-3875
-3838
-3886
-4049
-4207
-4223
-4100
-3987
-3999
-4104
-4178
-4155
-4083
-4043
-4068
-4122
-4156
-4159
-4152
-4149
-4141
-4113
-4065
-4035
-4068
-4176
-4322
-4455
-4549
-4618
-4681
-4727
-4718
-4637
-4519
-4438
-4443
-4514
-4600
-4684
-4822
-5073
-5422
-5786
-6101
-6386
-6693
-7003
-7201
-7196
-7017
-6801
-6649
-6541
-6381
-6127
-5843
-5633
-5545
-5540
-5544
-5516
-5451
-5364
-5263
-5149
-5022
-4876
-4704
-4500
-4270
-4049
-3877
-3777
-3734
-3701
-3632
-3516
-3374
-3244
-3147
-3073
-3000
-2910
-2813
-2729
-2664
-2598
-2515
-2422
-2354
-2321
-2290
-2222
-2122
-2043
-2029
-2066
-2093
-2095
-2120
-2219
-2373
-2492
-2505
-2430
-2355
-2340
-2366
-2364
-2299
-2208
-2163
-2206
-2311
-2401
-2415
-2356
-2288
-2267
-2286
-2283
-2219
-2131
-2091
-2116
-2159
-2163
-2138
-2122
-2134
-2146
-2132
-2103
-2082
-2078
-2089
-2125
-2192
-2258
-2273
-2242
-2233
-2303
-2413
-2466
-2428
-2373
-2394
-2495
-2592
-2613
-2578
-2554
-2570
-2606
-2642
-2691
-2770
-2856
-2903
-2903
-2898
-2934
-3002
-3048
-3035
-2980
-2937
-2938
-2981
-3043
-3108
-3164
-3202
-3215
-3215
-3219
-3225
-3212
-3170
-3118
-3082
-3063
-3043
-3013
-2983
-2960
-2932
-2890
-2844
-2815
-2808
-2803
-2787
-2768
-2758
-2747
-2714
-2652
-2586
-2549
-2547
-2555
-2533
-2465
-2375
-2296
-2255
-2235
-2197
-2118
-2030
-1988
-2009
-2042
-2021
-1935
-1848
-1829
-1867
-1871
-1776
-1617
-1507
-1511
-1567
-1562
-1458
-1327
-1267
-1290
-1323
-1306
-1247
-1186
-1137
-1101
-1091
-1127
-1192
-1224
-1184
-1096
-1029
-1009
-1011
-1004
-982
-956
-925
-882
-841
-823
-814
-783
-716
-644
-611
-603
-569
-476
-362
-300
-306
-312
-245
-107
23
69
43
33
109
249
373
438
475
545
651
744
798
838
909
999
1057
1052
1035
1066
1160
1270
1345
1370
1397
1496
1696
1947
2147
2222
2196
2157
2169
2196
2155
2001
1763
1481
1179
876
618
446
358
308
271
271
346
495
680
858
1005
1094
1108
1069
1041
1051
1079
1076
1034
1003
1033
1107
1172
1189
1175
1166
1171
1169
1137
1067
990
957
995
1076
1129
1094
986
884
860
921
1006
1059
1072
1088
1136
1198
1224
1194
1149
1144
1190
1240
1257
1260
1306
1419
1559
1656
1690
1698
1726
1781
1826
1835
1819
1811
1839
1900
1969
2021
2047
2062
2080
2111
2152
2197
2232
2251
2269
2318
2409
2504
2540
2499
2444
2452
2529
2596
2585
2516
2475
2499
2537
2525
2464
2410
2398
2415
2426
2426
2432
2437
2410
2337
2242
2154
2080
2006
1940
1910
1925
1939
1898
1807
1725
1704
1717
1684
1559
1387
1256
1213
1220
1216
1175
1118
1076
1059
1057
1062
1063
1049
1012
967
939
940
950
932
881
827
806
825
862
886
905
950
1037
1140
1213
1233
1213
1184
1152
1116
1087
1095
1147
1200
1203
1164
1147
1191
1270
1323
1326
1311
1311
1319
1318
1307
1300
1292
1271
1251
1269
1332
1398
1427
1436
1482
1580
1669
1679
1603
1512
1490
1553
1657
1730
1742
1723
1725
1768
1820
1846
1846
1832
1787
1675
1509
1375
1349
1395
1407
1359
1320
1355
1412
1394
1321
1333
1501
1709
1764
1635
1489
1476
1564
1603
1509
1357
1258
1243
1275
1315
1367
1427
1459
1435
1385
1367
1394
1409
1363
1289
1253
1264
1247
1158
1061
1079
1204
1277
1173
963
885
1057
1341
1516
1538
1558
1687
1856
1933
1897
1826
1738
1552
1236
876
568
282
-89
-536
-905
-1103
-1230
-1437
-1696
-1798
-1628
-1340
-1191
-1258
-1362
-1299
-1080
-900
-913
-1075
-1243
-1330
-1374
-1424
-1462
-1446
-1398
-1391
-1457
-1536
-1540
-1453
-1363
-1349
-1393
-1434
-1429
-1416
-1431
-1453
-1441
-1393
-1358
-1358
-1350
-1273
-1143
-1034
-997
-1010
-992
-915
-837
-834
-930
-1054
-1109
-1060
-956
-892
-924
-1003
-1020
-914
-736
-619
-645
-771
-868
-854
-762
-715
-783
-934
-1060
-1088
-1024
-943
-915
-940
-965
-933
-847
-768
-758
-807
-829
-774
-691
-680
-752
-812
-765
-648
-577
-610
-661
-629
-535
-496
-576
-702
-758
-737
-720
-759
-802
-767
-681
-652
-734
-853
-878
-807
-753
-804
-933
-1022
-1025
-1002
-1030
-1114
-1184
-1194
-1164
-1147
-1165
-1184
-1158
-1092
-1046
-1066
-1128
-1161
-1124
-1057
-1047
-1145
-1295
-1403
-1414
-1356
-1301
-1306
-1382
-1482
-1533
-1500
-1417
-1374
-1414
-1478
-1467
-1347
-1237
-1276
-1448
-1599
-1594
-1477
-1426
-1559
-1785
-1908
-1849
-1721
-1707
-1850
-2015
-2056
-1974
-1881
-1853
-1872
-1892
-1948
-2072
-2192
-2196
-2070
-1941
-1943
-2043
-2080
-1965
-1784
-1680
-1691
-1734
-1733
-1697
-1688
-1732
-1803
-1831
-1766
-1622
-1468
-1389
-1426
-1534
-1620
-1629
-1588
-1563
-1594
-1649
-1655
-1576
-1444
-1341
-1331
-1389
-1421
-1359
-1221
-1101
-1058
-1053
-1021
-942
-850
-781
-754
-775
-836
-899
-911
-868
-823
-824
-848
-817
-724
-667
-711
-763
-675
-453
-293
-333
-456
-407
-112
218
368
395
546
889
1183
1188
996
942
1165
1393
1257
753
247
33
-9
-211
-674
-1136
-1303
-1176
-991
-897
-797
-538
-163
137
265
309
383
474
481
388
284
256
287
302
300
359
526
740
895
947
937
929
940
967
1012
1069
1117
1137
1131
1138
1175
1220
1245
1277
1350
1463
1583
1663
1699
1730
1781
1849
1920
1994
2086
2207
2352
2491
2592
2637
2663
2733
2860
2973
2990
2912
2845
2890
3016
3097
3056
2977
3021
3230
3456
3514
3384
3243
3266
3451
3622
3650
3570
3528
3611
3767
3889
3932
3917
3873
3827
3797
3793
3793
3757
3670
3587
3573
3623
3669
3663
3627
3612
3610
3567
3470
3381
3363
3389
3381
3303
3219
3192
3205
3193
3129
3058
3018
2991
2952
2921
2931
2955
2919
2817
2736
2747
2778
2703
2505
2319
2256
2246
2140
1932
1788
1836
1980
2009
1876
1752
1782
1895
1886
1691
1471
1393
1449
1472
1375
1252
1235
1348
1473
1513
1482
1452
1443
1415
1345
1273
1245
1256
1252
1213
1172
1173
1218
1258
1270
1269
1285
1329
1381
1425
1468
1515
1559
1579
1571
1561
1584
1638
1700
1739
1767
1819
1892
1952
1968
1965
1993
2067
2133
2137
2095
2074
2114
2183
2222
2221
2208
2203
2205
2213
2254
2346
2456
2533
2563
2589
2649
2720
2752
2736
2718
2739
2792
2850
2910
2981
3049
3080
3063
3040
3049
3084
3099
3089
3097
3174
3305
3433
3516
3551
3555
3547
3538
3537
3535
3512
3476
3484
3601
3819
4037
4160
4219
4346
4612
4918
5083
5050
4949
4942
5036
5076
4938
4661
4374
4120
3819
3425
3042
2845
2871
2982
3024
3013
3105
3384
3753
4031
4132
4129
4141
4212
4296
4336
4321
4283
4258
4264
4298
4335
4358
4376
4426
4522
4624
4666
4630
4575
4576
4640
4687
4648
4547
4471
4461
4464
4412
4336
4336
4461
4622
4690
4649
4616
4696
4836
4891
4799
4666
4638
4733
4833
4851
4834
4891
5061
5265
5407
5452
5413
5303
5131
4926
4729
4556
4402
4298
4330
4555
4917
5263
5482
5585
5648
5693
5651
5461
5154
4818
4520
4264
4035
3841
3697
3592
3490
3371
3239
3098
2918
2669
2379
2123
1954
1845
1738
1609
1488
1411
1377
1321
1189
973
708
452
258
152
113
76
-18
-160
-286
-330
-304
-294
-384
-580
-812
-1007
-1156
-1291
-1440
-1587
-1709
-1807
-1905
-2002
-2070
-2098
-2113
-2158
-2230
-2282
-2283
-2258
-2268
-2345
-2436
-2482
-2479
-2471
-2491
-2528
-2557
-2576
-2594
-2606
-2591
-2556
-2546
-2589
-2646
-2640
-2548
-2442
-2415
-2478
-2562
-2594
-2575
-2557
-2579
-2634
-2692
-2748
-2805
-2868
-2927
-2986
-3062
-3167
-3284
-3389
-3466
-3526
-3588
-3650
-3700
-3747
-3833
-3991
-4194
-4370
-4477
-4555
-4675
-4850
-5018
-5119
-5172
-5232
-5330
-5442
-5546
-5651
-5766
-5866
-5923
-5946
-5967
-5990
-5983
-5933
-5886
-5886
-5909
-5882
-5780
-5671
-5633
-5653
-5637
-5518
-5327
-5150
-5033
-4948
-4847
-4723
-4601
-4486
-4369
-4242
-4123
-4047
-4018
-3992
-3926
-3810
-3680
-3591
-3563
-3574
-3573
-3521
-3422
-3322
-3280
-3306
-3351
-3350
-3285
-3212
-3191
-3203
-3165
-3038
-2905
-2889
-3008
-3150
-3210
-3223
-3337
-3643
-4072
-4487
-4839
-5176
-5528
-5832
-6000
-6026
-5994
-5960
-5889
-5716
-5455
-5209
-5086
-5109
-5209
-5299
-5336
-5344
-5376
-5467
-5591
-5691
-5721
-5689
-5643
-5626
-5643
-5678
-5731
-5809
-5896
-5955
-5974
-5981
-6022
-6110
-6210
-6271
-6283
-6288
-6327
-6402
-6473
-6492
-6446
-6369
-6304
-6275
-6270
-6255
-6196
-6085
-5951
-5844
-5791
-5782
-5775
-5736
-5660
-5568
-5478
-5404
-5353
-5318
-5282
-5217
-5115
-5002
-4920
-4876
-4832
-4745
-4612
-4479
-4396
-4366
-4344
-4280
-4172
-4069
-4012
-3984
-3925
-3803
-3646
-3516
-3436
-3364
-3264
-3158
-3097
-3094
-3097
-3062
-3004
-2956
-2903
-2794
-2614
-2422
-2295
-2239
-2192
-2122
-2055
-2025
-2027
-2026
-2005
-1981
-1950
-1879
-1739
-1560
-1411
-1332
-1294
-1235
-1138
-1044
-1003
-1022
-1047
-1019
-934
-837
-775
-749
-715
-646
-563
-510
-500
-500
-467
-391
-302
-240
-218
-222
-212
-151
-40
88
180
206
186
171
203
285
376
426
415
380
384
458
569
647
665
657
678
734
782
792
784
801
854
906
921
904
893
909
927
909
849
794
783
806
806
759
716
757
891
1018
1032
940
861
892
996
1054
998
880
794
765
755
737
731
749
755
706
615
542
515
498
446
366
305
285
280
271
276
325
396
437
428
408
421
462
489
485
485
527
599
656
678
700
762
856
931
957
952
965
1020
1098
1162
1201
1230
1275
1348
1431
1495
1533
1564
1622
1719
1836
1950
2083
2282
2559
2851
3070
3187
3258
3340
3409
3393
3259
3045
2789
2474
2073
1637
1289
1109
1053
1015
966
984
1148
1426
1709
1911
2022
2072
2078
2052
2021
2011
2010
1978
1904
1840
1853
1947
2054
2105
2089
2042
2002
1971
1933
1888
1859
1866
1905
1951
1977
1971
1936
1881
1820
1777
1769
1785
1791
1765
1725
1720
1776
1869
1938
1943
1900
1859
1863
1915
1978
2007
1979
1920
1896
1964
2118
2290
2410
2467
2505
2566
2647
2699
2695
2654
2603
2547
2479
2412
2383
2410
2459
2478
2463
2458
2501
2571
2602
2566
2488
2412
2356
2304
2265
2293
2400
2521
2564
2520
2482
2522
2588
2554
2385
2197
2132
2180
2199
2084
1894
1762
1710
1648
1510
1354
1283
1297
1304
1249
1188
1208
1307
1382
1346
1183
942
701
533
477
509
558
571
576
617
692
761
784
751
641
449
239
136
204
355
436
428
467
645
857
920
819
757
882
1078
1103
907
721
779
1031
1202
1127
945
937
1175
1457
1561
1494
1452
1568
1748
1831
1782
1706
1678
1661
1617
1630
1812
2119
2338
2320
2160
2070
2137
2244
2251
2165
2106
2136
2215
2290
2363
2450
2543
2606
2623
2596
2518
2409
2337
2380
2523
2635
2601
2481
2426
2528
2712
2832
2839
2816
2864
2987
3103
3152
3149
3166
3244
3345
3404
3382
3312
3271
3324
3461
3601
3648
3579
3460
3403
3450
3532
3558
3519
3485
3503
3538
3536
3518
3538
3593
3593
3507
3441
3536
3771
3977
4067
4156
4418
4811
5075
5028
4787
4625
4643
4642
4393
3910
3417
3061
2750
2340
1870
1529
1427
1443
1408
1338
1401
1669
1993
2174
2171
2120
2116
2113
2023
1865
1745
1709
1692
1647
1616
1656
1755
1829
1822
1762
1690
1612
1527
1456
1445
1504
1593
1647
1626
1544
1449
1392
1390
1403
1378
1311
1247
1242
1300
1378
1433
1470
1508
1544
1538
1473
1384
1321
1295
1259
1197
1160
1206
1327
1435
1470
1463
1485
1541
1543
1442
1304
1244
1279
1320
1294
1233
1246
1375
1547
1665
1723
1777
1873
1996
2110
2196
2263
2288
2271
2255
2314
2436
2503
2415
2239
2156
2260
2424
2465
2353
2251
2295
2405
2406
2272
2176
2242
2374
2361
2165
1963
1932
2026
2039
1857
1592
1454
1516
1652
1652
1444
1160
1013
1070
1166
1068
748
439
376
530
660
594
421
327
362
388
296
164
114
139
120
-12
-173
-230
-190
-173
-280
-477
-658
-739
-729
-705
-735
-832
-930
-963
-918
-877
-926
-1064
-1209
-1282
-1276
-1243
-1218
-1212
-1214
-1236
-1272
-1292
-1279
-1267
-1289
-1347
-1418
-1454
-1417
-1327
-1227
-1170
-1189
-1250
-1275
-1206
-1073
-973
-970
-1034
-1048
-948
-794
-710
-752
-852
-904
-876
-828
-835
-904
-969
-962
-872
-727
-584
-488
-457
-466
-448
-352
-223
-155
-192
-263
-252
-128
32
110
83
40
78
203
349
452
507
547
599
677
766
844
905
954
998
1037
1054
1055
1071
1096
1105
1086
1083
1192
1429
1701
1920
2108
2354
2666
2907
2968
2913
2879
2881
2777
2471
2080
1799
1655
1492
1196
868
714
794
975
1093
1137
1208
1362
1572
1771
1903
1937
1865
1729
1614
1559
1529
1486
1449
1485
1607
1719
1742
1729
1791
1928
1992
1857
1605
1452
1498
1631
1658
1548
1455
1495
1597
1604
1480
1372
1431
1617
1736
1662
1476
1367
1429
1575
1656
1629
1561
1538
1564
1583
1576
1573
1601
1628
1613
1563
1533
1565
1650
1735
1785
1781
1731
1665
1624
1646
1715
1770
1775
1755
1764
1824
1908
1981
2040
2106
2173
2217
2221
2201
2192
2215
2259
2299
2320
2339
2388
2459
2511
2522
2525
2562
2619
2609
2482
2318
2272
2394
2558
2592
2478
2380
2449
2657
2820
2813
2689
2583
2562
2580
2569
2531
2509
2519
2535
2540
2561
2616
2677
2692
2658
2626
2641
2690
2735
2768
2817
2889
2951
2970
2968
3006
3098
3192
3232
3225
3239
3310
3406
3471
3488
3491
3507
3530
3545
3556
3593
3661
3722
3726
3666
3595
3572
3610
3654
3639
3558
3471
3449
3503
3575
3601
3580
3561
3576
3600
3592
3563
3561
3603
3633
3599
3530
3516
3587
3655
3608
3459
3352
3403
3560
3659
3611
3488
3431
3491
3590
3617
3541
3409
3291
3225
3216
3241
3252
3196
3065
2914
2816
2793
2795
2765
2698
2628
2582
2558
2555
2588
2650
2675
2591
2405
2227
2162
2201
2224
2145
2007
1934
1989
2114
2198
2188
2113
2046
2023
2036
2054
2057
2044
2026
2016
2025
2060
2122
2188
2210
2157
2088
2130
2358
2687
2933
2989
2918
2872
2915
2975
2949
2805
2576
2284
1932
1564
1270
1116
1083
1094
1101
1123
1195
1304
1413
1510
1623
1764
1889
1934
1895
1856
1913
2064
2197
2200
2066
1898
1794
1754
1710
1603
1436
1244
1036
802
568
404
372
446
505
428
200
-66
-224
-247
-252
-375
-631
-904
-1084
-1174
-1248
-1342
-1423
-1455
-1457
-1468
-1494
-1543
-1645
-1834
-2067
-2239
-2299
-2307
-2361
-2468
-2554
-2584
-2614
-2712
-2859
-2989
-3091
-3201
-3292
-3262
-3058
-2806
-2685
-2723
-2741
-2580
-2315
-2178
-2277
-2464
-2526
-2425
-2309
-2299
-2354
-2360
-2303
-2272
-2317
-2379
-2366
-2270
-2163
-2107
-2098
-2082
-2018
-1904
-1778
-1695
-1694
-1763
-1845
-1899
-1943
-2018
-2105
-2162
-2192
-2275
-2472
-2718
-2883
-2929
-2962
-3108
-3360
-3603
-3761
-3883
-4055
-4281
-4496
-4661
-4811
-4995
-5214
-5431
-5611
-5736
-5817
-5888
-5992
-6130
-6239
-6240
-6138
-6033
-6025
-6124
-6259
-6369
-6439
-6481
-6487
-6457
-6426
-6434
-6458
-6427
-6306
-6171
-6136
-6232
-6374
-6450
-6435
-6393
-6402
-6466
-6520
-6497
-6387
-6243
-6127
-6057
-6003
-5922
-5806
-5691
-5615
-5577
-5549
-5504
-5439
-5374
-5323
-5282
-5234
-5161
-5060
-4945
-4843
-4772
-4730
-4708
-4706
-4715
-4719
-4701
-4681
-4695
-4749
-4802
-4807
-4777
-4782
-4870
-4996
-5081
-5104
-5118
-5179
-5262
-5310
-5315
-5317
-5344
-5367
-5350
-5308
-5285
-5285
-5268
-5219
-5182
-5210
-5309
-5442
-5592
-5743
-5839
-5809
-5689
-5648
-5817
-6088
-6167
-5884
-5427
-5173
-5287
-5538
-5562
-5257
-4886
-4767
-4943
-5185
-5271
-5198
-5100
-5030
-4910
-4683
-4431
-4304
-4320
-4330
-4211
-4041
-4019
-4240
-4601
-4943
-5235
-5553
-5911
-6197
-6307
-6282
-6255
-6266
-6210
-5986
-5649
-5358
-5212
-5167
-5122
-5041
-4970
-4944
-4944
-4926
-4878
-4813
-4739
-4643
-4524
-4408
-4322
-4270
-4215
-4128
-4032
-3972
-3949
-3899
-3768
-3596
-3485
-3492
-3551
-3552
-3455
-3314
-3186
-3055
-2880
-2680
-2515
-2417
-2343
-2240
-2123
-2044
-2015
-1979
-1871
-1704
-1553
-1470
-1438
-1408
-1368
-1355
-1407
-1500
-1570
-1573
-1529
-1486
-1458
-1406
-1290
-1130
-983
-897
-848
-772
-637
-475
-347
-285
-261
-220
-120
12
106
115
79
94
211
380
510
567
599
656
722
741
707
667
666
693
708
709
728
782
846
897
939
979
1002
986
931
885
885
917
930
901
860
846
860
854
796
714
661
648
634
579
504
482
547
661
743
769
785
842
923
966
933
855
784
738
690
617
527
449
408
405
416
411
363
269
165
89
36
-21
-100
-193
-276
-344
-411
-484
-560
-640
-717
-766
-774
-759
-778
-846
-901
-859
-733
-631
-650
-749
-800
-735
-618
-562
-590
-630
-614
-554
-502
-474
-442
-393
-345
-326
-332
-337
-330
-317
-299
-271
-233
-202
-197
-210
-212
-185
-144
-126
-154
-218
-285
-327
-341
-331
-311
-297
-291
-284
-258
-205
-137
-81
-56
-64
-91
-117
-117
-82
-23
27
43
34
35
73
144
219
267
285
292
310
345
389
429
460
477
483
475
472
503
582
691
795
891
1037
1287
1623
1944
2158
2263
2322
2379
2413
2382
2271
2084
1808
1423
964
547
280
171
130
67
-17
-27
121
411
732
949
1000
936
873
888
958
993
948
878
861
909
956
955
936
957
1003
998
911
816
814
915
1035
1108
1147
1188
1209
1160
1046
950
939
989
1031
1053
1099
1179
1239
1225
1167
1145
1177
1186
1115
1007
967
1041
1170
1272
1340
1425
1561
1712
1817
1846
1819
1765
1709
1669
1662
1699
1770
1838
1873
1871
1867
1897
1956
1995
1974
1916
1874
1843
1750
1544
1297
1154
1191
1329
1450
1529
1648
1873
2139
2321
2357
2285
2170
2033
1872
1724
1641
1618
1577
1456
1281
1147
1099
1084
1025
916
815
754
714
666
628
642
698
741
708
582
390
181
18
-56
-37
17
18
-56
-148
-179
-141
-93
-87
-119
-153
-175
-219
-304
-379
-359
-229
-88
-72
-212
-362
-333
-91
175
245
84
-129
-193
-70
128
282
363
395
402
396
399
413
389
271
82
-82
-156
-165
-170
-176
-127
-12
83
59
-71
-186
-204
-170
-194
-310
-437
-464
-386
-307
-327
-437
-537
-541
-465
-398
-413
-485
-527
-493
-420
-402
-464
-559
-617
-626
-624
-629
-608
-532
-432
-373
-374
-389
-344
-227
-84
25
72
64
33
22
68
161
235
207
79
-40
-31
102
230
239
165
155
286
478
585
560
502
511
573
597
563
567
686
877
1033
1145
1323
1638
1991
2189
2168
2062
2036
2089
2060
1834
1462
1069
703
332
-44
-342
-480
-466
-388
-321
-252
-110
139
458
752
917
903
759
613
581
674
787
804
712
601
582
677
815
908
917
875
850
868
926
1008
1123
1264
1358
1326
1170
1012
980
1073
1143
1068
906
844
978
1202
1319
1255
1125
1086
1168
1273
1320
1321
1327
1338
1315
1259
1243
1309
1391
1385
1269
1151
1153
1265
1371
1382
1323
1291
1333
1396
1404
1359
1329
1366
1436
1468
1445
1434
1487
1564
1573
1482
1372
1342
1399
1449
1422
1351
1325
1368
1413
1403
1370
1367
1385
1373
1310
1245
1223
1214
1145
1020
914
884
893
867
793
724
695
688
662
613
562
509
435
344
278
244
195
84
-58
-153
-172
-175
-248
-392
-506
-529
-502
-527
-637
-755
-800
-763
-721
-763
-875
-965
-951
-858
-788
-817
-907
-962
-932
-894
-954
-1127
-1302
-1359
-1281
-1173
-1153
-1243
-1334
-1304
-1148
-997
-1002
-1167
-1342
-1373
-1281
-1250
-1383
-1575
-1624
-1481
-1320
-1323
-1464
-1537
-1414
-1212
-1128
-1206
-1309
-1310
-1234
-1191
-1210
-1234
-1214
-1198
-1225
-1253
-1212
-1112
-1061
-1125
-1236
-1282
-1247
-1215
-1259
-1332
-1335
-1246
-1138
-1089
-1105
-1134
-1135
-1097
-1034
-976
-955
-966
-960
-887
-771
-686
-663
-635
-538
-413
-362
-400
-399
-242
10
165
143
83
186
466
721
763
642
581
702
916
1053
1069
1088
1226
1459
1663
1771
1863
2050
2324
2545
2581
2452
2302
2244
2247
2187
2001
1743
1497
1273
1024
751
543
470
481
473
422
436
627
956
1271
1458
1527
1555
1582
1601
1609
1629
1660
1654
1582
1496
1492
1595
1736
1818
1817
1771
1717
1666
1625
1628
1690
1757
1761
1714
1706
1796
1913
1924
1802
1699
1761
1955
2087
2025
1860
1799
1915
2067
2086
1969
1880
1939
2081
2150
2095
2014
2016
2084
2115
2061
1993
2000
2068
2109
2073
2015
2007
2039
2056
2031
2004
2029
2084
2092
2019
1921
1883
1941
2043
2113
2119
2089
2078
2111
2159
2158
2077
1949
1851
1833
1867
1881
1841
1782
1761
1795
1834
1830
1767
1687
1624
1573
1511
1438
1386
1370
1365
1333
1265
1204
1189
1201
1175
1081
962
893
892
911
895
846
806
801
804
784
744
723
741
770
778
767
766
788
804
797
789
812
860
896
908
930
1002
1111
1194
1217
1205
1207
1238
1284
1331
1390
1461
1523
1561
1597
1663
1760
1848
1896
1921
1955
2010
2072
2127
2186
2258
2337
2407
2468
2524
2580
2628
2669
2709
2750
2792
2835
2890
2964
3049
3131
3202
3259
3291
3292
3270
3251
3261
3295
3316
3293
3233
3175
3156
3176
3189
3151
3062
2970
2921
2912
2896
2832
2740
2674
2652
2645
2618
2569
2522
2494
2482
2480
2489
2504
2515
2531
2574
2632
2650
2578
2448
2373
2415
2501
2493
2360
2227
2251
2453
2698
2858
2948
3076
3292
3529
3694
3773
3820
3858
3846
3766
3703
3797
4095
4478
4760
4871
4919
5066
5324
5527
5487
5208
4869
4612
4378
4027
3576
3242
3186
3286
3248
2975
2728
2842
3316
3803
3988
3930
3941
4202
4566
4760
4673
4420
4167
3976
3841
3772
3791
3878
3971
4021
4021
3981
3908
3819
3756
3741
3715
3596
3374
3160
3077
3122
3170
3102
2925
2734
2614
2548
2457
2289
2083
1943
1942
2067
2215
2292
2288
2278
2325
2399
2396
2262
2050
1875
1795
1763
1689
1540
1370
1247
1198
1189
1173
1123
1026
892
732
565
402
245
100
-12
-67
-68
-50
-47
-68
-93
-119
-155
-209
-258
-287
-307
-346
-404
-434
-393
-298
-211
-162
-133
-103
-86
-114
-191
-267
-294
-266
-229
-227
-255
-263
-219
-158
-165
-296
-511
-728
-922
-1143
-1429
-1727
-1954
-2105
-2257
-2463
-2686
-2875
-3057
-3315
-3666
-4030
-4323
-4574
-4861
-5191
-5474
-5640
-5731
-5854
-6054
-6290
-6498
-6667
-6816
-6956
-7087
-7216
-7345
-7445
-7469
-7418
-7352
-7339
-7389
-7447
-7463
-7436
-7401
-7382
-7375
-7362
-7324
-7258
-7170
-7083
-7016
-6976
-6934
-6861
-6750
-6626
-6509
-6380
-6202
-5974
-5753
-5603
-5532
-5480
-5372
-5193
-4991
-4832
-4739
-4678
-4587
-4434
-4235
-4055
-3949
-3916
-3891
-3817
-3702
-3601
-3556
-3548
-3526
-3468
-3395
-3339
-3300
-3265
-3230
-3216
-3234
-3266
-3286
-3282
-3280
-3304
-3353
-3396
-3417
-3435
-3492
-3597
-3712
-3782
-3793
-3788
-3813
-3864
-3895
-3876
-3827
-3800
-3820
-3856
-3852
-3802
-3750
-3747
-3794
-3831
-3805
-3722
-3636
-3590
-3568
-3526
-3449
-3358
-3280
-3209
-3104
-2925
-2681
-2433
-2260
-2187
-2167
-2130
-2083
-2122
-2321
-2621
-2874
-3037
-3254
-3686
-4275
-4748
-4892
-4787
-4701
-4780
-4889
-4789
-4421
-3968
-3662
-3572
-3587
-3571
-3493
-3420
-3416
-3472
-3527
-3540
-3524
-3516
-3514
-3472
-3370
-3249
-3174
-3155
-3140
-3093
-3045
-3046
-3077
-3070
-3001
-2945
-2988
-3107
-3179
-3122
-2981
-2870
-2832
-2810
-2735
-2620
-2533
-2511
-2516
-2479
-2374
-2238
-2129
-2083
-2082
-2073
-2017
-1917
-1817
-1746
-1695
-1635
-1572
-1550
-1590
-1652
-1680
-1667
-1663
-1704
-1748
-1718
-1584
-1397
-1237
-1133
-1061
-995
-931
-876
-828
-790
-779
-806
-849
-861
-815
-736
-664
-607
-550
-469
-381
-316
-280
-261
-251
-267
-324
-398
-439
-421
-384
-390
-455
-517
-508
-436
-383
-412
-491
-541
-543
-561
-633
-702
-692
-629
-646
-815
-1039
-1154
-1136
-1132
-1257
-1455
-1561
-1509
-1406
-1388
-1467
-1556
-1597
-1627
-1706
-1832
-1951
-2020
-2036
-2023
-2004
-1988
-1978
-1957
-1916
-1877
-1874
-1916
-1962
-1977
-1976
-2011
-2092
-2169
-2193
-2191
-2230
-2330
-2440
-2507
-2544
-2606
-2706
-2790
-2818
-2806
-2805
-2831
-2851
-2836
-2806
-2808
-2857
-2906
-2910
-2872
-2838
-2832
-2831
-2791
-2711
-2641
-2627
-2657
-2676
-2647
-2589
-2552
-2564
-2605
-2628
-2603
-2533
-2452
-2397
-2375
-2356
-2296
-2191
-2097
-2070
-2108
-2143
-2113
-2010
-1879
-1759
-1661
-1576
-1503
-1442
-1378
-1302
-1236
-1218
-1247
-1272
-1237
-1144
-1046
-991
-980
-965
-910
-814
-706
-626
-595
-602
-596
-544
-455
-372
-321
-285
-234
-171
-134
-122
-79
53
254
457
639
861
1174
1521
1774
1872
1880
1893
1911
1858
1692
1456
1191
880
500
118
-150
-258
-277
-297
-301
-204
19
284
505
668
804
903
914
839
767
779
845
869
814
760
809
962
1120
1194
1192
1181
1204
1241
1248
1221
1205
1243
1332
1418
1453
1430
1379
1339
1322
1324
1336
1358
1387
1422
1468
1531
1617
1723
1832
1916
1935
1875
1771
1699
1700
1736
1727
1639
1546
1562
1729
1977
2191
2301
2312
2271
2230
2222
2255
2297
2311
2284
2246
2243
2300
2417
2559
2679
2724
2701
2683
2751
2903
3055
3136
3163
3195
3241
3252
3203
3133
3101
3102
3102
3090
3107
3170
3247
3308
3366
3433
3473
3427
3297
3175
3177
3321
3518
3661
3707
3687
3661
3668
3709
3736
3691
3553
3375
3254
3222
3214
3158
3064
3031
3096
3165
3110
2931
2775
2785
2935
3086
3136
3114
3104
3136
3185
3225
3253
3242
3151
2994
2865
2847
2908
2918
2807
2658
2625
2759
2954
3046
2984
2857
2795
2808
2784
2617
2325
2072
1990
2067
2167
2195
2191
2241
2346
2415
2382
2287
2213
2196
2200
2177
2136
2117
2144
2211
2298
2379
2424
2400
2301
2178
2109
2147
2254
2345
2353
2303
2268
2283
2301
2256
2152
2077
2083
2128
2122
2062
2054
2187
2395
2497
2400
2205
2103
2165
2272
2269
2150
2051
2092
2253
2415
2486
2474
2427
2382
2338
2292
2254
2213
2156
2086
2039
2049
2111
2178
2203
2182
2152
2136
2133
2127
2118
2129
2191
2332
2546
2778
2933
2943
2847
2754
2735
2732
2614
2330
1971
1665
1437
1194
875
545
320
230
195
154
163
303
552
788
919
958
969
975
949
892
852
847
831
760
670
657
746
862
907
850
739
621
533
513
601
785
970
1050
1021
960
943
951
925
848
766
730
736
759
819
948
1118
1231
1222
1140
1098
1146
1208
1185
1102
1092
1219
1387
1443
1374
1324
1409
1557
1587
1433
1229
1151
1223
1321
1335
1300
1292
1334
1362
1328
1266
1249
1297
1337
1305
1219
1168
1227
1362
1460
1432
1293
1155
1115
1175
1242
1212
1072
908
833
884
988
1037
988
885
798
772
800
843
839
758
630
521
467
432
365
270
213
201
156
27
-125
-160
-47
50
-12
-192
-306
-240
-92
-47
-168
-326
-367
-298
-234
-277
-388
-433
-352
-231
-207
-308
-409
-380
-252
-157
-189
-285
-331
-293
-247
-258
-310
-363
-385
-372
-334
-304
-327
-395
-435
-412
-371
-390
-491
-594
-612
-558
-496
-464
-448
-434
-430
-417
-365
-294
-283
-356
-416
-380
-293
-272
-333
-327
-147
95
168
19
-126
-54
178
308
179
-59
-131
40
265
334
249
210
333
531
621
558
496
561
690
721
602
498
564
750
864
813
692
652
727
815
838
817
801
816
871
969
1105
1206
1226
1183
1138
1142
1149
1129
1113
1147
1208
1246
1248
1278
1354
1397
1356
1295
1352
1543
1731
1806
1831
1975
2249
2451
2388
2139
1968
2003
2100
2030
1761
1478
1314
1213
1054
829
647
579
577
594
668
873
1149
1354
1429
1478
1603
1737
1719
1530
1354
1358
1512
1643
1660
1670
1793
1998
2129
2092
1952
1827
1764
1743
1766
1838
1944
2016
2021
2025
2091
2193
2235
2188
2131
2159
2279
2381
2405
2402
2453
2541
2584
2543
2506
2584
2750
2857
2802
2644
2556
2630
2772
2833
2788
2758
2855
3065
3292
3455
3540
3577
3600
3636
3703
3790
3823
3764
3673
3674
3836
4090
4293
4344
4278
4206
4215
4306
4414
4455
4392
4280
4224
4288
4425
4516
4488
4381
4298
4289
4305
4290
4241
4205
4201
4204
4194
4183
4178
4171
4140
4088
4046
4033
4017
3958
3865
3795
3790
3817
3812
3760
3715
3741
3837
3916
3901
3794
3674
3616
3631
3676
3699
3696
3693
3720
3795
3905
4013
4071
4071
4055
4074
4135
4186
4182
4148
4135
4153
4149
4089
4018
4003
4059
4132
4167
4183
4223
4302
4393
4483
4570
4642
4652
4590
4528
4548
4644
4713
4692
4638
4662
4789
4921
4952
4891
4860
4946
5111
5233
5232
5150
5102
5147
5243
5299
5257
5169
5123
5159
5219
5224
5174
5147
5215
5343
5430
5401
5314
5285
5364
5466
5467
5348
5211
5162
5203
5257
5257
5210
5160
5140
5141
5150
5150
5126
5065
4986
4930
4917
4921
4907
4861
4802
4734
4661
4600
4573
4563
4526
4458
4418
4471
4590
4679
4684
4647
4627
4603
4520
4397
4336
4389
4460
4411
4271
4244
4469
4824
5039
4981
4806
4762
4899
5026
4944
4677
4412
4259
4138
3887
3486
3058
2730
2507
2297
2069
1907
1943
2226
2661
3082
3330
3374
3343
3428
3678
3898
3841
3498
3149
3065
3183
3165
2833
2376
2131
2158
2201
2046
1800
1725
1868
1980
1827
1446
1066
831
668
467
228
23
-126
-235
-269
-155
67
221
126
-172
-460
-576
-562
-573
-678
-841
-1003
-1139
-1232
-1218
-1081
-945
-978
-1193
-1372
-1283
-949
-643
-616
-856
-1138
-1280
-1286
-1275
-1349
-1480
-1600
-1666
-1694
-1706
-1727
-1770
-1837
-1920
-2005
-2079
-2137
-2173
-2188
-2182
-2170
-2174
-2209
-2270
-2330
-2351
-2330
-2282
-2245
-2239
-2265
-2295
-2285
-2213
-2101
-1997
-1924
-1859
-1763
-1627
-1493
-1399
-1356
-1339
-1325
-1317
-1325
-1342
-1345
-1324
-1283
-1239
-1205
-1186
-1184
-1181
-1168
-1155
-1175
-1244
-1332
-1408
-1470
-1556
-1701
-1866
-1992
-2052
-2092
-2170
-2269
-2309
-2251
-2161
-2142
-2215
-2285
-2245
-2112
-2015
-2052
-2182
-2278
-2286
-2293
-2405
-2616
-2816
-2945
-3056
-3224
-3420
-3540
-3553
-3553
-3665
-3893
-4109
-4194
-4175
-4176
-4286
-4484
-4659
-4733
-4709
-4666
-4685
-4786
-4912
-5000
-5053
-5126
-5254
-5390
-5460
-5459
-5462
-5533
-5639
-5695
-5675
-5656
-5718
-5842
-5926
-5921
-5894
-5940
-6070
-6201
-6254
-6249
-6257
-6324
-6414
-6464
-6472
-6482
-6528
-6595
-6649
-6687
-6738
-6819
-6902
-6936
-6911
-6863
-6851
-6888
-6934
-6939
-6891
-6822
-6766
-6739
-6739
-6760
-6789
-6798
-6776
-6747
-6758
-6820
-6879
-6858
-6739
-6584
-6449
-6328
-6168
-5958
-5751
-5591
-5467
-5347
-5243
-5199
-5226
-5267
-5271
-5254
-5290
-5416
-5614
-5836
-6052
-6249
-6424
-6574
-6692
-6764
-6742
-6576
-6307
-6055
-5918
-5853
-5728
-5494
-5261
-5202
-5338
-5493
-5475
-5284
-5105
-5088
-5189
-5235
-5133
-4970
-4890
-4923
-4964
-4921
-4828
-4776
-4784
-4774
-4696
-4595
-4545
-4536
-4502
-4418
-4353
-4370
-4413
-4372
-4215
-4028
-3907
-3860
-3824
-3751
-3629
-3473
-3304
-3181
-3172
-3269
-3355
-3294
-3108
-2949
-2915
-2934
-2852
-2637
-2415
-2295
-2246
-2178
-2102
-2117
-2235
-2322
-2240
-2030
-1864
-1828
-1837
-1758
-1595
-1464
-1423
-1392
-1269
-1089
-991
-1038
-1129
-1116
-990
-879
-894
-994
-1047
-1002
-932
-914
-928
-897
-809
-745
-776
-856
-901
-902
-945
-1093
-1304
-1488
-1583
-1595
-1557
-1498
-1471
-1514
-1602
-1647
-1605
-1551
-1601
-1762
-1913
-1946
-1898
-1890
-1973
-2070
-2084
-2018
-1945
-1922
-1944
-1983
-2033
-2102
-2185
-2270
-2352
-2437
-2528
-2608
-2651
-2646
-2610
-2568
-2546
-2556
-2591
-2623
-2634
-2628
-2627
-2655
-2721
-2805
-2858
-2854
-2817
-2804
-2853
-2941
-2997
-2976
-2877
-2748
-2626
-2524
-2437
-2348
-2243
-2129
-2030
-1972
-1960
-1975
-1983
-1955
-1875
-1748
-1602
-1488
-1431
-1396
-1330
-1213
-1101
-1068
-1117
-1169
-1137
-1002
-822
-677
-614
-629
-661
-645
-570
-491
-480
-549
-618
-603
-499
-378
-302
-275
-253
-215
-168
-123
-78
-38
-25
-49
-71
-43
52
155
198
178
152
171
221
257
264
269
292
324
350
392
482
579
605
549
499
559
709
817
807
767
848
1075
1295
1361
1319
1358
1584
1878
2022
1936
1765
1703
1784
1861
1791
1581
1346
1151
951
691
411
214
136
112
64
10
39
197
438
663
795
821
776
719
701
724
738
697
612
548
549
592
627
643
663
697
715
680
599
529
520
565
610
604
550
497
481
497
510
510
508
515
526
543
587
666
743
761
713
673
714
828
928
940
882
839
869
953
1031
1062
1058
1073
1136
1214
1264
1285
1330
1441
1600
1752
1856
1906
1913
1896
1899
1971
2093
2161
2100
1973
1932
2027
2128
2094
1966
1935
2097
2336
2476
2516
2596
2791
2988
3067
3057
3074
3137
3136
3014
2908
3000
3257
3456
3447
3325
3294
3399
3502
3493
3424
3407
3451
3478
3471
3525
3693
3879
3935
3831
3658
3508
3414
3393
3470
3623
3730
3689
3543
3451
3503
3621
3656
3587
3495
3449
3438
3433
3459
3544
3665
3736
3684
3521
3334
3234
3290
3456
3584
3531
3321
3157
3212
3428
3551
3412
3115
2914
2932
3040
3029
2859
2674
2609
2633
2618
2497
2342
2246
2225
2234
2241
2272
2337
2398
2405
2378
2377
2441
2542
2610
2597
2522
2460
2476
2573
2673
2676
2559
2429
2405
2478
2495
2329
2054
1877
1925
2096
2181
2082
1915
1873
2014
2228
2345
2293
2141
2012
1986
2055
2113
2067
1920
1777
1740
1781
1759
1597
1415
1413
1616
1805
1753
1495
1300
1362
1575
1673
1547
1338
1249
1298
1357
1346
1325
1373
1464
1488
1402
1299
1302
1444
1651
1841
2002
2183
2391
2575
2669
2665
2615
2562
2504
2390
2168
1863
1540
1259
1043
872
717
573
459
421
500
704
980
1238
1399
1442
1403
1326
1243
1176
1151
1174
1210
1224
1235
1322
1531
1778
1899
1809
1611
1492
1532
1627
1640
1560
1515
1611
1781
1867
1803
1677
1614
1642
1661
1592
1477
1442
1542
1680
1717
1644
1586
1654
1816
1932
1915
1811
1742
1759
1825
1877
1875
1822
1747
1706
1742
1841
1928
1947
1942
1995
2101
2153
2073
1936
1893
1991
2108
2118
2040
2027
2173
2397
2550
2584
2596
2680
2796
2836
2775
2710
2741
2852
2922
2872
2762
2711
2772
2892
2985
3021
3016
2999
2993
3019
3095
3191
3229
3171
3064
3010
3059
3151
3193
3169
3151
3202
3284
3313
3264
3204
3200
3220
3176
3047
2926
2924
3034
3139
3148
3102
3113
3219
3344
3394
3354
3298
3303
3367
3424
3425
3395
3405
3487
3587
3617
3568
3525
3565
3675
3757
3755
3720
3733
3804
3860
3848
3808
3806
3857
3911
3930
3936
3970
4039
4136
4238
4321
4365
4374
4398
4472
4580
4642
4600
4500
4460
4540
4683
4781
4799
4806
4883
5031
5165
5217
5215
5255
5381
5532
5612
5610
5616
5721
5894
6012
6007
5931
5900
5962
6049
6069
6000
5909
5901
6033
6285
6554
6712
6712
6635
6605
6643
6638
6492
6261
6103
6090
6161
6241
6341
6512
6729
6896
6984
7069
7217
7375
7442
7428
7448
7564
7692
7725
7697
7741
7901
8061
8106
8088
8195
8485
8766
8797
8553
8294
8281
8504
8693
8638
8419
8318
8499
8835
9065
9057
8894
8742
8652
8532
8275
7859
7372
6942
6677
6591
6597
6591
6552
6582
6762
7042
7253
7271
7141
7018
7005
7048
7151
6898
6726
6613
6601
6666
6749
6811
6827
6805
6771
6753
6743
6704
6610
6498
6446
6497
6611
6696
6704
6654
6604
6571
6543
6527
6557
6670
6824
6922
6898
6804
6768
6867
7026
7093
7000
6844
6782
6867
6997
7047
7001
6953
6978
7038
7058
7035
7036
7099
7176
7193
7153
7143
7228
7361
7438
7411
7348
7342
7410
7489
7515
7493
7478
7507
7582
7680
7774
7838
7854
7830
7803
7810
7842
7870
7860
7816
7770
7754
7781
7832
7875
7879
7844
7803
7780
7771
7751
7707
7649
7600
7579
7582
7596
7605
7600
7583
7566
7551
7522
7470
7416
7396
7417
7448
7448
7414
7383
7381
7387
7365
7300
7221
7171
7159
7157
7131
7076
7015
6984
6990
7000
6975
6911
6846
6807
6778
6716
6603
6476
6384
6331
6280
6203
6127
6094
6114
6157
6187
6195
6185
6159
6121
6087
6069
6047
5974
5842
5704
5635
5648
5681
5661
5579
5480
5412
5378
5357
5341
5327
5290
5197
5058
4946
4932
5004
5045
4945
4732
4562
4566
4697
4790
4727
4564
4448
4444
4473
4422
4276
4128
4064
4068
4048
3945
3794
3680
3653
3669
3636
3510
3346
3251
3272
3344
3366
3301
3209
3172
3209
3271
3308
3302
3260
3184
3095
3028
3007
3011
2967
2838
2674
2565
2547
2562
2529
2455
2435
2519
2616
2563
2315
2030
1936
2070
2249
2279
2195
2224
2505
2915
3220
3362
3518
3835
4203
4384
4335
4282
4429
4675
4728
4460
4055
3740
3492
3114
2558
2034
1746
1647
1529
1341
1271
1481
1864
2133
2110
1876
1619
1427
1258
1037
763
485
253
68
-97
-275
-461
-622
-739
-829
-917
-1001
-1056
-1078
-1087
-1078
-995
-820
-647
-613
-752
-947
-1062
-1086
-1110
-1189
-1272
-1307
-1321
-1385
-1514
-1654
-1782
-1951
-2229
-2608
-3000
-3349
-3669
-4002
-4342
-4634
-4840
-4978
-5080
-5132
-5094
-4958
-4772
-4606
-4480
-4351
-4194
-4045
-3948
-3881
-3773
-3585
-3369
-3185
-3022
-2810
-2531
-2269
-2105
-2021
-1928
-1787
-1667
-1641
-1688
-1699
-1607
-1454
-1327
-1249
-1174
-1066
-951
-883
-870
-868
-835
-786
-789
-885
-1032
-1139
-1164
-1173
-1270
-1477
-1697
-1814
-1821
-1823
-1913
-2076
-2217
-2272
-2273
-2298
-2397
-2562
-2745
-2895
-2984
-3036
-3115
-3262
-3440
-3559
-3563
-3501
-3471
-3522
-3609
-3657
-3645
-3618
-3626
-3662
-3679
-3654
-3611
-3589
-3607
-3639
-3647
-3620
-3584
-3571
-3587
-3615
-3629
-3612
-3570
-3527
-3518
-3575
-3704
-3876
-4053
-4193
-4266
-4267
-4219
-4184
-4214
-4296
-4346
-4302
-4212
-4221
-4430
-4783
-5112
-5295
-5370
-5488
-5749
-6103
-6411
-6582
-6664
-6780
-7001
-7273
-7489
-7607
-7689
-7833
-8061
-8296
-8451
-8528
-8618
-8806
-9090
-9382
-9593
-9716
-9817
-9973
-10190
-10417
-10600
-10734
-10845
-10956
-11068
-11181
-11296
-11406
-11489
-11542
-11598
-11700
-11850
-11991
-12062
-12067
-12075
-12130
-12206
-12252
-12254
-12249
-12269
-12302
-12322
-12324
-12330
-12367
-12425
-12473
-12490
-12482
-12469
-12460
-12445
-12411
