-2785
-2828
-2817
-2765
-2730
-2739
-2764
-2770
-2759
-2754
-2758
-2753
-2747
-2769
-2819
-2860
-2858
-2837
-2849
-2905
-2959
-2959
-2912
-2879
-2895
-2931
-2948
-2948
-2959
-2992
-3022
-3024
-3010
-3005
-3017
-3032
-3035
-3026
-3016
-3012
-3022
-3056
-3107
-3150
-3156
-3134
-3128
-3156
-3176
-3136
-3043
-2969
-2957
-2967
-2926
-2827
-2740
-2723
-2754
-2759
-2700
-2610
-2528
-2448
-2341
-2205
-2070
-1967
-1900
-1845
-1780
-1692
-1598
-1528
-1503
-1506
-1486
-1416
-1310
-1205
-1115
-1043
-1007
-1016
-1040
-1008
-894
-764
-714
-756
-792
-734
-613
-539
-567
-650
-699
-684
-653
-668
-738
-809
-826
-774
-687
-618
-592
-588
-570
-526
-480
-460
-467
-493
-528
-567
-592
-589
-558
-511
-466
-433
-414
-410
-407
-388
-356
-345
-378
-430
-437
-374
-278
-220
-220
-237
-229
-209
-219
-273
-337
-376
-389
-396
-393
-353
-268
-172
-112
-95
-84
-42
21
53
28
-16
-20
28
62
14
-103
-201
-213
-172
-172
-250
-333
-313
-175
-18
58
60
73
144
220
222
148
72
52
60
40
-13
-40
-6
50
54
-7
-67
-62
0
44
22
-51
-107
-102
-43
20
39
6
-38
-41
13
81
92
23
-97
-218
-320
-407
-491
-583
-695
-832
-972
-1104
-1254
-1462
-1715
-1928
-2011
-1978
-1919
-1895
-1862
-1754
-1589
-1462
-1422
-1398
-1277
-1034
-753
-528
-363
-214
-71
13
-24
-188
-430
-692
-934
-1138
-1281
-1357
-1375
-1350
-1285
-1179
-1049
-949
-940
-1033
-1172
-1282
-1335
-1362
-1392
-1408
-1382
-1334
-1334
-1430
-1585
-1721
-1797
-1833
-1866
-1897
-1905
-1895
-1900
-1936
-1976
-1976
-1934
-1891
-1877
-1889
-1904
-1909
-1908
-1908
-1920
-1951
-1999
-2042
-2051
-2023
-1990
-1980
-1979
-1954
-1899
-1849
-1842
-1870
-1893
-1891
-1878
-1883
-1908
-1937
-1959
-1976
-1987
-1981
-1950
-1912
-1892
-1897
-1911
-1911
-1890
-1853
-1812
-1778
-1760
-1765
-1778
-1770
-1727
-1665
-1617
-1593
-1566
-1504
-1415
-1331
-1264
-1182
-1050
-893
-783
-763
-792
-784
-702
-594
-533
-536
-552
-516
-417
-299
-206
-147
-101
-46
16
70
103
122
146
199
286
387
472
523
556
596
651
701
718
701
674
656
646
639
635
642
653
659
658
671
705
730
707
636
565
538
537
508
429
346
314
336
357
329
264
212
202
210
197
156
115
103
112
117
103
89
89
98
90
62
35
33
54
75
83
93
110
116
89
42
12
15
20
-5
-53
-77
-52
-9
2
-25
-48
-40
-24
-35
-73
-100
-95
-69
-42
-21
-13
-38
-106
-182
-201
-140
-57
-25
-49
-62
-8
92
171
199
199
206
215
209
197
207
239
263
250
212
181
174
174
163
140
113
85
63
59
82
124
163
175
155
117
84
71
86
114
127
97
16
-91
-186
-241
-267
-306
-393
-513
-616
-686
-771
-938
-1158
-1320
-1334
-1243
-1179
-1207
-1254
-1208
-1067
-937
-896
-881
-753
-457
-83
228
411
515
617
727
773
668
404
66
-225
-406
-493
-525
-520
-464
-368
-271
-198
-138
-73
-34
-77
-212
-364
-441
-421
-360
-323
-321
-320
-304
-300
-334
-382
-391
-333
-246
-201
-238
-335
-432
-490
-515
-539
-573
-598
-593
-567
-552
-575
-625
-675
-714
-754
-814
-886
-941
-963
-968
-986
-1026
-1066
-1084
-1091
-1120
-1191
-1285
-1365
-1410
-1433
-1462
-1512
-1576
-1637
-1676
-1689
-1687
-1694
-1719
-1746
-1744
-1710
-1673
-1666
-1680
-1677
-1640
-1596
-1581
-1595
-1601
-1574
-1529
-1497
-1477
-1439
-1374
-1306
-1268
-1253
-1226
-1167
-1096
-1039
-1002
-964
-919
-877
-848
-823
-784
-730
-675
-632
-598
-571
-553
-546
-535
-504
-453
-407
-391
-406
-432
-448
-443
-419
-390
-370
-374
-399
-425
-434
-423
-410
-409
-423
-437
-444
-457
-484
-515
-522
-491
-444
-420
-436
-466
-470
-437
-398
-390
-416
-441
-442
-429
-431
-457
-486
-496
-492
-500
-535
-583
-616
-621
-611
-607
-615
-623
-620
-613
-627
-675
-747
-807
-833
-833
-845
-891
-956
-993
-973
-917
-873
-868
-887
-897
-882
-859
-851
-860
-875
-887
-895
-900
-903
-904
-909
-920
-930
-933
-934
-943
-968
-1000
-1026
-1036
-1031
-1020
-1008
-1002
-1005
-1010
-1000
-962
-900
-835
-784
-745
-704
-648
-584
-529
-493
-469
-447
-421
-401
-400
-425
-464
-502
-530
-549
-566
-579
-593
-612
-638
-659
-659
-635
-613
-622
-680
-780
-899
-1002
-1066
-1097
-1136
-1210
-1298
-1353
-1381
-1446
-1587
-1736
-1773
-1661
-1500
-1403
-1364
-1287
-1128
-970
-911
-928
-888
-703
-424
-177
-25
73
180
295
361
314
140
-129
-422
-663
-800
-831
-803
-764
-725
-660
-550
-414
-312
-301
-387
-522
-631
-675
-660
-623
-589
-560
-534
-521
-528
-555
-578
-575
-538
-480
-426
-396
-396
-422
-461
-502
-535
-554
-550
-523
-483
-449
-437
-435
-416
-373
-334
-343
-407
-492
-544
-541
-506
-486
-509
-566
-618
-634
-614
-593
-606
-648
-683
-692
-693
-718
-763
-790
-778
-752
-761
-819
-891
-939
-958
-974
-1002
-1025
-1024
-1000
-977
-969
-970
-963
-942
-925
-922
-933
-943
-943
-932
-916
-886
-824
-732
-637
-572
-538
-504
-445
-375
-327
-315
-309
-276
-215
-157
-121
-97
-67
-30
2
20
28
30
28
26
36
64
99
119
119
112
111
115
120
125
130
128
109
79
60
67
88
103
110
124
148
161
143
103
73
73
94
106
96
72
57
62
84
112
132
136
122
96
65
33
0
-35
-67
-89
-94
-81
-59
-37
-26
-28
-37
-47
-55
-63
-76
-96
-122
-147
-157
-142
-102
-59
-41
-56
-82
-87
-58
-17
8
16
28
62
104
124
116
101
98
93
59
-10
-92
-154
-183
-193
-193
-185
-167
-141
-111
-75
-34
9
45
77
112
154
189
206
205
201
209
235
268
296
310
311
303
297
295
292
279
253
225
204
190
174
162
174
213
248
237
172
85
2
-85
-192
-304
-385
-427
-464
-532
-621
-712
-821
-980
-1161
-1260
-1184
-949
-656
-382
-127
129
358
507
588
672
793
901
922
876
872
984
1151
1227
1123
878
607
390
236
119
26
-38
-59
-31
47
170
315
431
466
399
262
114
13
-14
27
111
198
252
252
203
129
60
13
-12
-18
-15
-18
-39
-81
-127
-154
-162
-166
-180
-196
-195
-177
-165
-179
-211
-238
-248
-254
-273
-305
-340
-370
-393
-410
-414
-408
-404
-416
-439
-458
-467
-479
-514
-576
-652
-723
-785
-842
-900
-950
-980
-983
-967
-948
-941
-951
-972
-996
-1018
-1037
-1056
-1081
-1117
-1155
-1181
-1184
-1166
-1144
-1120
-1087
-1041
-996
-972
-968
-962
-936
-896
-859
-829
-800
-764
-729
-698
-664
-615
-553
-500
-470
-451
-428
-394
-359
-329
-299
-263
-226
-206
-208
-220
-223
-210
-187
-169
-161
-162
-166
-170
-174
-172
-160
-142
-129
-138
-169
-199
-206
-189
-171
-174
-195
-210
-204
-183
-167
-170
-188
-204
-210
-209
-214
-233
-266
-300
-326
-343
-353
-359
-359
-357
-363
-384
-415
-442
-456
-460
-469
-493
-530
-569
-602
-624
-639
-653
-671
-691
-703
-701
-685
-667
-653
-639
-613
-574
-541
-539
-565
-591
-586
-556
-528
-526
-542
-551
-540
-520
-512
-520
-537
-555
-577
-606
-636
-659
-666
-657
-633
-597
-555
-515
-478
-439
-398
-362
-339
-323
-299
-260
-225
-214
-231
-252
-253
-232
-210
-206
-219
-238
-256
-269
-274
-262
-237
-220
-226
-242
-247
-243
-256
-302
-365
-424
-486
-567
-658
-733
-785
-840
-916
-997
-1078
-1201
-1406
-1644
-1784
-1735
-1550
-1356
-1213
-1063
-849
-617
-462
-391
-305
-113
150
370
482
535
612
728
815
789
619
351
69
-160
-313
-410
-480
-525
-519
-450
-340
-233
-164
-149
-182
-254
-343
-415
-433
-391
-318
-268
-275
-329
-396
-447
-479
-500
-510
-504
-484
-461
-449
-449
-456
-464
-472
-481
-487
-486
-477
-460
-443
-433
-436
-457
-491
-530
-569
-601
-626
-648
-671
-703
-745
-790
-833
-867
-890
-903
-914
-932
-962
-999
-1029
-1048
-1059
-1073
-1091
-1107
-1118
-1130
-1153
-1187
-1217
-1222
-1200
-1174
-1169
-1187
-1206
-1200
-1168
-1131
-1109
-1097
-1081
-1058
-1040
-1037
-1033
-1007
-957
-909
-884
-876
-859
-822
-778
-743
-713
-671
-616
-568
-543
-530
-504
-458
-414
-392
-385
-369
-339
-319
-325
-340
-328
-283
-235
-216
-217
-204
-165
-128
-120
-139
-152
-148
-145
-162
-194
-222
-242
-263
-288
-300
-297
-297
-322
-363
-387
-381
-368
-373
-394
-405
-400
-403
-434
-479
-499
-478
-436
-402
-390
-389
-390
-383
-363
-332
-306
-305
-330
-354
-351
-324
-300
-298
-305
-298
-285
-293
-341
-409
-468
-505
-528
-549
-566
-583
-606
-634
-649
-630
-589
-561
-561
-563
-531
-467
-414
-401
-413
-407
-371
-339
-347
-400
-467
-514
-535
-541
-544
-550
-563
-581
-596
-597
-577
-538
-492
-449
-413
-386
-371
-368
-366
-352
-322
-295
-294
-325
-359
-368
-349
-328
-329
-342
-351
-356
-374
-413
-460
-498
-526
-546
-563
-582
-619
-684
-761
-835
-910
-998
-1089
-1157
-1196
-1239
-1319
-1427
-1543
-1682
-1879
-2115
-2285
-2290
-2149
-1974
-1842
-1721
-1546
-1330
-1154
-1056
-974
-821
-594
-377
-240
-162
-74
49
147
132
-32
-297
-567
-767
-881
-943
-990
-1021
-1011
-941
-826
-701
-608
-577
-625
-741
-881
-986
-1015
-977
-911
-857
-834
-848
-904
-999
-1103
-1170
-1178
-1148
-1125
-1129
-1144
-1148
-1143
-1151
-1177
-1200
-1198
-1179
-1174
-1201
-1248
-1285
-1300
-1306
-1318
-1339
-1356
-1365
-1376
-1399
-1428
-1444
-1442
-1435
-1440
-1458
-1477
-1495
-1522
-1566
-1614
-1647
-1662
-1681
-1722
-1776
-1814
-1819
-1803
-1785
-1779
-1782
-1795
-1820
-1857
-1894
-1915
-1922
-1927
-1940
-1955
-1962
-1959
-1955
-1949
-1930
-1894
-1851
-1822
-1814
-1812
-1799
-1773
-1743
-1711
-1676
-1639
-1613
-1606
-1608
-1597
-1562
-1513
-1466
-1427
-1392
-1353
-1315
-1280
-1240
-1186
-1120
-1060
-1026
-1020
-1025
-1016
-988
-956
-941
-946
-956
-952
-937
-928
-934
-942
-932
-899
-865
-854
-866
-880
-883
-880
-884
-895
-903
-904
-905
-920
-946
-965
-964
-952
-948
-962
-987
-1009
-1026
-1039
-1049
-1053
-1050
-1049
-1061
-1088
-1119
-1144
-1157
-1163
-1170
-1176
-1177
-1176
-1180
-1192
-1203
-1206
-1197
-1183
-1175
-1175
-1178
-1182
-1191
-1203
-1206
-1197
-1182
-1182
-1206
-1245
-1278
-1292
-1289
-1276
-1260
-1248
-1245
-1246
-1238
-1208
-1165
-1127
-1111
-1108
-1102
-1086
-1074
-1087
-1131
-1186
-1226
-1235
-1225
-1221
-1239
-1270
-1288
-1276
-1240
-1200
-1164
-1126
-1079
-1030
-991
-962
-929
-887
-847
-826
-830
-849
-875
-894
-897
-876
-839
-811
-812
-836
-854
-843
-810
-790
-800
-828
-849
-858
-878
-927
-991
-1052
-1113
-1191
-1279
-1348
-1391
-1441
-1529
-1630
-1701
-1765
-1909
-2161
-2410
-2486
-2338
-2090
-1887
-1738
-1549
-1287
-1049
-926
-874
-753
-505
-233
-75
-41
-14
102
259
318
191
-81
-371
-579
-688
-745
-799
-857
-882
-834
-719
-583
-488
-466
-510
-596
-699
-794
-847
-837
-768
-677
-618
-623
-686
-778
-865
-918
-929
-905
-873
-862
-881
-918
-953
-978
-996
-1011
-1028
-1048
-1070
-1083
-1073
-1042
-1017
-1028
-1077
-1132
-1166
-1180
-1195
-1223
-1245
-1244
-1229
-1229
-1256
-1290
-1304
-1298
-1301
-1331
-1374
-1404
-1414
-1421
-1441
-1462
-1462
-1440
-1421
-1433
-1473
-1516
-1546
-1571
-1609
-1657
-1698
-1720
-1728
-1738
-1753
-1765
-1759
-1732
-1685
-1628
-1574
-1532
-1503
-1481
-1457
-1431
-1409
-1393
-1379
-1362
-1341
-1322
-1305
-1286
-1252
-1196
-1124
-1055
-1012
-997
-993
-974
-934
-887
-855
-840
-829
-813
-799
-790
-782
-760
-723
-692
-689
-706
-716
-703
-676
-663
-668
-675
-670
-660
-669
-707
-751
-776
-774
-762
-759
-767
-778
-783
-779
-773
-772
-780
-798
-821
-844
-865
-887
-905
-908
-884
-836
-784
-757
-760
-778
-787
-782
-771
-769
-778
-791
-800
-805
-801
-783
-754
-726
-716
-730
-758
-784
-804
-825
-849
-868
-877
-877
-880
-895
-918
-937
-941
-931
-918
-915
-927
-944
-957
-964
-969
-974
-971
-953
-924
-899
-887
-887
-885
-875
-859
-851
-860
-895
-952
-1014
-1065
-1095
-1108
-1119
-1126
-1122
-1099
-1064
-1031
-1005
-978
-939
-892
-847
-812
-786
-763
-744
-731
-723
-718
-714
-716
-732
-763
-801
-832
-847
-850
-844
-838
-841
-856
-875
-881
-870
-860
-876
-925
-994
-1078
-1180
-1285
-1368
-1424
-1483
-1574
-1685
-1786
-1889
-2047
-2274
-2484
-2559
-2479
-2344
-2253
-2191
-2077
-1892
-1717
-1619
-1541
-1358
-1028
-656
-389
-266
-197
-77
93
201
132
-127
-473
-770
-949
-1029
-1067
-1086
-1074
-1014
-927
-843
-778
-738
-732
-782
-885
-1001
-1072
-1072
-1018
-946
-893
-876
-901
-955
-1021
-1076
-1107
-1112
-1103
-1096
-1100
-1117
-1138
-1153
-1157
-1158
-1162
-1170
-1172
-1157
-1131
-1120
-1141
-1190
-1246
-1284
-1300
-1304
-1315
-1343
-1384
-1432
-1477
-1512
-1527
-1520
-1504
-1502
-1528
-1578
-1627
-1654
-1663
-1675
-1708
-1758
-1808
-1842
-1853
-1846
-1830
-1816
-1813
-1818
-1822
-1822
-1828
-1854
-1893
-1923
-1922
-1892
-1858
-1849
-1861
-1868
-1852
-1824
-1807
-1806
-1804
-1785
-1756
-1738
-1734
-1721
-1674
-1599
-1527
-1478
-1450
-1426
-1402
-1377
-1349
-1311
-1271
-1244
-1235
-1227
-1200
-1155
-1114
-1090
-1076
-1057
-1027
-992
-959
-937
-928
-928
-921
-895
-854
-828
-832
-850
-854
-834
-815
-811
-814
-806
-793
-803
-840
-879
-891
-884
-882
-900
-923
-938
-943
-946
-941
-922
-901
-900
-923
-944
-936
-910
-899
-919
-950
-958
-941
-924
-931
-960
-995
-1019
-1028
-1026
-1022
-1025
-1044
-1073
-1092
-1091
-1072
-1049
-1031
-1020
-1013
-1014
-1028
-1048
-1057
-1050
-1035
-1029
-1040
-1060
-1071
-1064
-1045
-1028
-1020
-1016
-1010
-1005
-999
-997
-996
-993
-986
-977
-973
-975
-986
-1013
-1061
-1125
-1187
-1227
-1242
-1250
-1273
-1305
-1323
-1303
-1251
-1190
-1135
-1082
-1017
-947
-897
-873
-855
-813
-746
-686
-663
-675
-691
-691
-679
-670
-666
-663
-669
-695
-737
-765
-757
-737
-742
-776
-799
-781
-753
-772
-856
-955
-1028
-1080
-1143
-1220
-1290
-1350
-1421
-1504
-1566
-1603
-1670
-1818
-2003
-2102
-2044
-1892
-1762
-1693
-1623
-1498
-1354
-1255
-1189
-1070
-838
-537
-271
-98
11
111
208
249
174
-28
-302
-564
-755
-858
-893
-889
-864
-816
-742
-642
-534
-463
-471
-567
-708
-822
-867
-844
-784
-716
-665
-650
-682
-744
-803
-829
-822
-806
-798
-798
-803
-815
-841
-880
-916
-936
-937
-931
-928
-931
-939
-953
-969
-980
-986
-1002
-1041
-1098
-1148
-1169
-1166
-1162
-1175
-1202
-1224
-1237
-1251
-1276
-1303
-1321
-1326
-1329
-1344
-1374
-1407
-1427
-1434
-1437
-1446
-1463
-1474
-1471
-1460
-1462
-1485
-1511
-1512
-1484
-1458
-1464
-1504
-1544
-1557
-1540
-1512
-1484
-1458
-1433
-1415
-1407
-1395
-1363
-1314
-1267
-1239
-1230
-1221
-1201
-1169
-1129
-1078
-1015
-951
-900
-865
-831
-789
-745
-716
-707
-701
-680
-642
-605
-587
-585
-578
-545
-491
-442
-419
-422
-430
-425
-412
-409
-418
-421
-405
-381
-376
-402
-435
-446
-430
-410
-412
-432
-453
-468
-488
-524
-566
-595
-605
-613
-639
-681
-715
-719
-694
-657
-631
-625
-633
-649
-658
-654
-638
-621
-615
-618
-614
-595
-567
-547
-544
-550
-547
-531
-511
-505
-521
-552
-574
-575
-562
-560
-583
-624
-657
-669
-672
-683
-703
-713
-702
-684
-684
-706
-730
-734
-718
-697
-680
-658
-622
-578
-542
-527
-527
-530
-530
-529
-532
-550
-591
-648
-704
-735
-739
-733
-731
-734
-730
-716
-701
-693
-680
-645
-591
-543
-528
-539
-543
-512
-456
-407
-389
-397
-406
-402
-389
-383
-391
-411
-434
-449
-451
-446
-456
-489
-531
-558
-557
-551
-567
-622
-711
-815
-906
-962
-993
-1036
-1125
-1238
-1327
-1391
-1488
-1663
-1851
-1922
-1812
-1596
-1398
-1262
-1133
-969
-812
-719
-658
-532
-300
-37
147
231
296
424
595
702
655
445
153
-117
-302
-395
-433
-450
-450
-413
-329
-221
-123
-67
-62
-104
-184
-283
-366
-394
-354
-274
-206
-187
-217
-272
-330
-385
-434
-461
-451
-411
-372
-360
-378
-405
-420
-423
-431
-445
-449
-431
-401
-390
-417
-464
-496
-499
-492
-500
-528
-554
-567
-581
-613
-658
-692
-699
-693
-704
-742
-795
-843
-878
-900
-916
-931
-956
-997
-1043
-1073
-1074
-1057
-1047
-1054
-1070
-1083
-1096
-1118
-1149
-1172
-1178
-1171
-1164
-1162
-1156
-1143
-1130
-1123
-1112
-1087
-1051
-1021
-1011
-1008
-994
-963
-925
-893
-859
-815
-761
-714
-684
-664
-635
-588
-532
-477
-427
-382
-347
-323
-308
-283
-242
-196
-162
-148
-143
-134
-121
-113
-112
-108
-93
-71
-58
-64
-82
-97
-95
-76
-50
-32
-32
-46
-58
-56
-46
-42
-50
-66
-79
-95
-125
-169
-205
-215
-203
-189
-187
-191
-187
-173
-165
-171
-181
-177
-164
-165
-197
-249
-287
-290
-269
-253
-260
-282
-298
-297
-287
-284
-293
-301
-296
-282
-275
-288
-311
-324
-318
-307
-311
-330
-348
-359
-369
-394
-433
-466
-473
-457
-438
-433
-440
-444
-437
-423
-417
-423
-429
-418
-393
-374
-376
-391
-390
-357
-312
-291
-317
-382
-457
-519
-555
-566
-562
-560
-570
-584
-583
-553
-503
-458
-429
-412
-395
-374
-350
-324
-295
-265
-242
-227
-215
-205
-205
-226
-261
-287
-288
-277
-272
-280
-288
-289
-293
-311
-338
-360
-378
-409
-469
-563
-685
-816
-921
-983
-1023
-1086
-1193
-1307
-1390
-1466
-1604
-1809
-1974
-1964
-1761
-1480
-1242
-1064
-884
-679
-496
-367
-252
-88
115
275
345
373
451
595
718
707
525
237
-49
-258
-376
-440
-487
-527
-534
-486
-391
-285
-212
-198
-245
-338
-452
-554
-613
-607
-543
-456
-392
-382
-429
-514
-608
-688
-737
-749
-728
-692
-665
-664
-686
-714
-730
-727
-709
-682
-651
-624
-608
-603
-599
-588
-574
-567
-572
-584
-593
-604
-626
-659
-690
-702
-696
-687
-691
-716
-757
-800
-838
-872
-903
-936
-966
-990
-1012
-1039
-1071
-1099
-1116
-1126
-1147
-1182
-1219
-1244
-1254
-1258
-1262
-1257
-1242
-1224
-1219
-1226
-1232
-1228
-1222
-1218
-1214
-1194
-1160
-1128
-1112
-1104
-1079
-1025
-951
-880
-828
-794
-771
-749
-719
-677
-631
-594
-577
-574
-569
-548
-517
-490
-474
-460
-436
-406
-385
-383
-387
-379
-352
-317
-284
-253
-229
-215
-217
-227
-226
-207
-186
-185
-211
-252
-287
-305
-312
-322
-344
-376
-402
-405
-382
-353
-340
-342
-341
-327
-312
-318
-348
-385
-413
-432
-450
-461
-457
-438
-421
-420
-435
-451
-455
-446
-425
-399
-379
-375
-387
-397
-392
-372
-354
-348
-351
-357
-367
-385
-401
-396
-366
-331
-321
-341
-367
-381
-384
-389
-399
-403
-398
-397
-411
-430
-438
-431
-428
-437
-448
-447
-445
-462
-493
-503
-470
-413
-379
-385
-406
-410
-398
-397
-427
-474
-514
-539
-557
-575
-590
-595
-586
-565
-532
-488
-444
-410
-390
-377
-359
-334
-306
-277
-246
-216
-196
-194
-206
-215
-206
-182
-167
-180
-214
-250
-274
-291
-312
-338
-360
-375
-387
-402
-430
-473
-526
-580
-643
-738
-870
-1002
-1091
-1147
-1230
-1369
-1509
-1583
-1629
-1763
-2024
-2269
-2291
-2039
-1667
-1355
-1138
-932
-698
-493
-364
-254
-86
118
241
231
181
228
381
501
443
198
-117
-380
-552
-666
-764
-857
-930
-956
-918
-823
-703
-623
-635
-746
-909
-1051
-1122
-1126
-1091
-1041
-990
-959
-974
-1040
-1126
-1191
-1223
-1246
-1282
-1323
-1341
-1328
-1314
-1329
-1375
-1423
-1450
-1459
-1470
-1491
-1512
-1522
-1525
-1536
-1563
-1602
-1646
-1688
-1723
-1745
-1757
-1771
-1806
-1865
-1929
-1971
-1983
-1984
-1996
-2020
-2036
-2034
-2031
-2055
-2110
-2172
-2216
-2242
-2268
-2309
-2354
-2389
-2409
-2422
-2430
-2431
-2420
-2407
-2408
-2430
-2458
-2469
-2452
-2419
-2392
-2382
-2380
-2369
-2341
-2308
-2285
-2276
-2269
-2246
-2205
-2157
-2120
-2096
-2074
-2040
-1987
-1917
-1850
-1803
-1780
-1767
-1744
-1703
-1651
-1597
-1541
-1481
-1421
-1376
-1351
-1328
-1278
-1198
-1115
-1069
-1063
-1071
-1063
-1037
-1010
-995
-985
-967
-944
-929
-922
-905
-869
-824
-792
-777
-765
-748
-738
-746
-762
-759
-730
-699
-692
-702
-703
-683
-658
-646
-641
-624
-590
-559
-546
-547
-542
-528
-516
-511
-509
-501
-492
-496
-510
-514
-493
-454
-419
-399
-393
-395
-404
-417
-427
-426
-417
-410
-411
-415
-413
-403
-391
-382
-375
-368
-364
-367
-380
-401
-430
-460
-478
-473
-452
-438
-445
-462
-466
-449
-427
-421
-430
-442
-452
-467
-494
-516
-507
-463
-405
-364
-352
-355
-360
-362
-371
-397
-442
-501
-560
-604
-626
-625
-608
-581
-546
-506
-474
-453
-436
-411
-376
-345
-328
-315
-285
-235
-186
-163
-164
-170
-167
-159
-157
-157
-154
-154
-176
-221
-262
-265
-232
-201
-209
-249
-290
-314
-338
-377
-433
-505
-600
-716
-833
-929
-1009
-1095
-1187
-1262
-1330
-1453
-1665
-1892
-1985
-1864
-1604
-1346
-1153
-968
-743
-521
-371
-272
-126
120
387
554
605
641
752
900
955
828
550
237
-14
-177
-285
-373
-446
-476
-432
-316
-172
-57
-16
-54
-146
-257
-353
-408
-409
-359
-284
-219
-195
-214
-258
-305
-344
-372
-393
-407
-418
-432
-457
-489
-521
-542
-549
-546
-540
-534
-526
-514
-502
-497
-504
-526
-556
-586
-608
-623
-637
-658
-688
-726
-767
-812
-858
-899
-923
-927
-926
-938
-967
-1005
-1039
-1069
-1098
-1117
-1118
-1107
-1110
-1139
-1175
-1186
-1167
-1150
-1173
-1227
-1269
-1273
-1258
-1260
-1278
-1274
-1223
-1146
-1092
-1084
-1100
-1104
-1085
-1060
-1050
-1049
-1043
-1025
-1001
-975
-943
-900
-851
-807
-773
-748
-727
-710
-697
-685
-664
-631
-594
-569
-557
-549
-531
-502
-473
-449
-426
-397
-363
-336
-326
-324
-316
-292
-264
-247
-250
-269
-297
-328
-355
-374
-380
-377
-372
-371
-378
-393
-410
-417
-402
-367
-327
-309
-321
-353
-375
-367
-333
-295
-277
-284
-301
-308
-301
-287
-280
-283
-290
-293
-295
-304
-319
-332
-338
-337
-340
-352
-368
-379
-384
-391
-405
-415
-407
-380
-357
-354
-371
-389
-394
-388
-382
-379
-374
-369
-371
-381
-390
-385
-372
-368
-374
-376
-362
-345
-352
-384
-410
-402
-371
-360
-396
-463
-519
-543
-543
-535
-524
-511
-502
-507
-523
-537
-541
-538
-534
-533
-534
-538
-550
-565
-580
-595
-619
-661
-721
-787
-845
-889
-919
-937
-945
-938
-915
-879
-843
-814
-784
-746
-703
-676
-671
-672
-656
-623
-598
-608
-643
-670
-671
-661
-667
-693
-724
-752
-787
-834
-879
-897
-888
-881
-898
-933
-962
-978
-995
-1027
-1084
-1168
-1274
-1385
-1480
-1563
-1653
-1749
-1832
-1909
-2039
-2275
-2570
-2783
-2803
-2669
-2516
-2424
-2347
-2215
-2032
-1859
-1697
-1472
-1131
-737
-414
-223
-108
14
152
221
131
-129
-474
-782
-984
-1088
-1144
-1180
-1179
-1111
-987
-853
-756
-715
-730
-809
-945
-1099
-1206
-1228
-1177
-1108
-1064
-1057
-1071
-1096
-1131
-1174
-1212
-1231
-1232
-1233
-1247
-1272
-1292
-1298
-1299
-1308
-1323
-1330
-1317
-1292
-1272
-1266
-1270
-1274
-1283
-1305
-1340
-1373
-1388
-1382
-1372
-1383
-1425
-1493
-1567
-1630
-1674
-1701
-1725
-1757
-1802
-1851
-1889
-1902
-1895
-1884
-1882
-1892
-1910
-1935
-1969
-2005
-2035
-2054
-2064
-2072
-2087
-2106
-2125
-2133
-2130
-2122
-2110
-2093
-2070
-2043
-2017
-1992
-1966
-1934
-1897
-1860
-1830
-1815
-1820
-1842
-1866
-1870
-1848
-1812
-1780
-1756
-1730
-1700
-1670
-1649
-1631
-1606
-1573
-1547
-1532
-1517
-1494
-1470
-1453
-1439
-1408
-1358
-1313
-1303
-1326
-1352
-1358
-1349
-1340
-1330
-1307
-1274
-1257
-1276
-1315
-1335
-1314
-1273
-1253
-1282
-1346
-1402
-1408
-1367
-1318
-1307
-1333
-1356
-1341
-1302
-1289
-1316
-1353
-1361
-1350
-1357
-1392
-1414
-1393
-1355
-1348
-1379
-1402
-1382
-1339
-1321
-1350
-1396
-1423
-1432
-1441
-1464
-1489
-1503
-1507
-1509
-1513
-1514
-1500
-1467
-1422
-1383
-1366
-1375
-1397
-1416
-1429
-1435
-1436
-1432
-1432
-1448
-1475
-1489
-1470
-1425
-1387
-1387
-1420
-1460
-1484
-1493
-1505
-1528
-1554
-1565
-1558
-1548
-1554
-1573
-1590
-1592
-1590
-1597
-1608
-1604
-1579
-1555
-1554
-1572
-1579
-1557
-1517
-1491
-1497
-1532
-1578
-1619
-1641
-1632
-1598
-1564
-1551
-1556
-1551
-1514
-1458
-1412
-1390
-1381
-1363
-1329
-1293
-1269
-1258
-1239
-1198
-1138
-1084
-1060
-1073
-1101
-1119
-1121
-1113
-1107
-1107
-1110
-1113
-1116
-1114
-1108
-1104
-1114
-1139
-1173
-1212
-1264
-1344
-1454
-1570
-1652
-1678
-1679
-1709
-1789
-1875
-1919
-1944
-2031
-2205
-2387
-2456
-2386
-2275
-2225
-2225
-2189
-2079
-1946
-1845
-1745
-1559
-1263
-936
-677
-500
-344
-169
-17
24
-102
-366
-675
-932
-1084
-1141
-1154
-1165
-1175
-1153
-1078
-962
-846
-775
-774
-845
-967
-1093
-1173
-1171
-1096
-1004
-955
-970
-1019
-1053
-1063
-1070
-1090
-1109
-1102
-1073
-1056
-1079
-1135
-1193
-1233
-1250
-1246
-1222
-1185
-1154
-1149
-1170
-1199
-1218
-1222
-1220
-1228
-1257
-1306
-1363
-1401
-1408
-1395
-1387
-1401
-1431
-1463
-1495
-1530
-1558
-1574
-1588
-1616
-1668
-1717
-1733
-1716
-1705
-1724
-1758
-1778
-1776
-1775
-1800
-1842
-1876
-1889
-1888
-1883
-1875
-1867
-1866
-1880
-1894
-1890
-1865
-1838
-1828
-1828
-1818
-1796
-1787
-1806
-1835
-1834
-1790
-1731
-1698
-1696
-1691
-1648
-1572
-1501
-1460
-1440
-1405
-1343
-1286
-1272
-1297
-1304
-1239
-1117
-1007
-971
-998
-1014
-970
-890
-843
-862
-909
-927
-905
-881
-886
-897
-874
-815
-762
-758
-787
-797
-760
-710
-696
-724
-751
-737
-693
-664
-673
-697
-698
-672
-649
-652
-671
-678
-662
-646
-651
-673
-693
-692
-673
-660
-670
-705
-751
-784
-787
-763
-738
-735
-755
-775
-771
-748
-730
-735
-750
-747
-722
-702
-705
-717
-704
-656
-606
-587
-589
-578
-550
-545
-590
-652
-663
-603
-535
-532
-596
-650
-636
-577
-545
-568
-607
-618
-612
-632
-681
-711
-684
-627
-603
-636
-674
-661
-599
-545
-537
-552
-538
-487
-445
-457
-514
-568
-588
-590
-603
-629
-645
-633
-598
-560
-532
-509
-485
-453
-410
-356
-307
-286
-301
-328
-322
-265
-189
-142
-141
-159
-161
-147
-134
-131
-123
-109
-105
-128
-162
-170
-148
-127
-141
-181
-212
-228
-261
-342
-462
-582
-663
-699
-718
-760
-842
-937
-996
-1009
-1035
-1141
-1315
-1459
-1492
-1435
-1374
-1345
-1306
-1212
-1094
-1015
-965
-859
-632
-325
-31
200
384
548
681
745
717
597
398
148
-96
-267
-328
-309
-271
-244
-213
-141
-18
110
176
139
18
-119
-208
-232
-221
-205
-187
-161
-139
-154
-217
-294
-329
-300
-237
-198
-214
-265
-316
-346
-359
-368
-384
-403
-419
-424
-418
-413
-417
-423
-411
-382
-370
-412
-499
-574
-594
-578
-587
-644
-710
-729
-705
-697
-744
-823
-873
-869
-843
-841
-879
-932
-967
-969
-952
-935
-933
-943
-955
-969
-989
-1016
-1036
-1032
-1005
-984
-996
-1037
-1072
-1065
-1014
-949
-902
-881
-876
-865
-840
-807
-785
-787
-808
-824
-809
-768
-724
-691
-657
-596
-506
-423
-383
-385
-393
-372
-332
-307
-318
-345
-343
-283
-192
-130
-130
-162
-157
-81
21
76
57
8
-16
-2
17
19
17
32
61
80
79
74
90
132
177
202
202
185
175
181
200
213
206
189
185
204
229
236
220
203
211
248
294
319
319
316
332
370
410
427
422
414
423
442
451
440
419
413
432
468
495
491
454
407
380
381
393
390
364
331
312
310
312
311
310
314
319
313
294
270
254
242
233
229
237
250
255
240
222
224
250
276
279
273
288
329
365
366
344
345
394
457
483
449
383
325
290
266
243
228
222
216
201
185
194
237
298
354
394
421
444
466
490
516
543
568
582
583
573
560
555
565
587
605
614
613
608
600
584
552
514
485
482
502
523
520
488
440
381
305
207
108
24
-49
-127
-213
-280
-330
-401
-522
-650
-695
-628
-520
-456
-425
-336
-158
23
108
129
233
510
876
1164
1309
1399
1542
1730
1842
1779
1559
1287
1059
903
805
751
744
782
853
942
1040
1143
1230
1267
1232
1138
1032
958
936
959
1008
1062
1097
1096
1050
975
909
889
924
987
1034
1039
1013
986
972
966
957
951
960
983
1003
1003
989
982
989
999
990
960
922
889
861
834
810
790
774
758
737
714
691
664
632
614
624
648
651
609
539
486
467
462
442
398
352
328
326
328
326
325
333
344
346
336
324
320
318
307
292
303
361
443
491
474
429
426
494
579
609
569
511
500
553
629
684
701
702
724
786
866
923
933
919
931
993
1072
1117
1124
1127
1153
1194
1227
1253
1298
1371
1442
1483
1500
1521
1555
1581
1581
1566
1559
1560
1546
1507
1468
1462
1488
1521
1538
1540
1537
1530
1521
1511
1507
1509
1511
1510
1504
1495
1485
1476
1478
1488
1497
1492
1477
1464
1455
1443
1425
1410
1408
1408
1389
1351
1317
1307
1312
1311
1295
1280
1283
1300
1309
1300
1275
1253
1241
1236
1232
1219
1197
1168
1141
1125
1113
1096
1067
1031
994
958
920
883
861
864
887
910
918
914
920
942
964
966
957
968
1009
1051
1055
1016
973
965
986
993
955
885
816
774
759
756
754
753
756
764
775
785
787
788
802
838
885
919
928
927
938
967
996
1009
1011
1020
1036
1042
1024
993
969
955
939
913
889
879
874
858
831
824
851
882
871
798
684
550
408
267
145
53
-29
-126
-219
-278
-320
-412
-581
-730
-712
-484
-169
82
244
401
602
790
897
958
1062
1215
1314
1288
1211
1234
1389
1536
1505
1271
963
719
571
468
370
289
257
282
344
421
502
575
618
606
530
413
299
238
254
332
429
495
511
489
450
407
364
328
314
326
350
365
359
337
312
291
278
280
304
340
366
363
335
302
280
263
241
213
184
157
125
85
44
11
-14
-37
-62
-88
-116
-155
-203
-249
-279
-294
-311
-342
-380
-413
-434
-450
-467
-481
-487
-488
-493
-509
-535
-566
-590
-599
-588
-567
-548
-544
-555
-572
-581
-578
-561
-534
-507
-489
-480
-467
-437
-390
-342
-306
-281
-257
-230
-209
-194
-178
-150
-112
-77
-51
-30
-9
7
10
6
17
52
97
127
138
148
173
208
234
247
259
283
307
309
281
249
245
274
311
324
309
283
270
271
273
267
252
236
221
207
194
181
164
142
124
124
140
149
126
73
20
2
24
61
81
69
42
26
37
64
80
69
45
31
34
34
10
-30
-53
-43
-13
4
-7
-37
-64
-73
-64
-48
-41
-48
-60
-64
-60
-67
-100
-150
-185
-194
-195
-218
-261
-293
-286
-250
-212
-190
-180
-176
-186
-215
-247
-260
-248
-234
-239
-253
-247
-215
-183
-186
-225
-269
-300
-327
-366
-411
-436
-430
-413
-409
-416
-408
-374
-335
-325
-346
-370
-370
-347
-315
-283
-247
-208
-182
-184
-203
-207
-179
-136
-117
-136
-168
-176
-155
-132
-134
-150
-161
-159
-155
-159
-168
-177
-188
-207
-247
-321
-435
-566
-683
-770
-843
-918
-977
-995
-999
-1060
-1187
-1262
-1137
-788
-353
9
263
473
674
823
884
900
935
967
916
770
641
640
747
825
767
597
410
261
139
18
-97
-183
-230
-233
-184
-85
28
101
99
39
-40
-117
-190
-248
-263
-217
-138
-84
-83
-120
-161
-190
-222
-260
-288
-290
-281
-294
-343
-398
-422
-412
-399
-409
-424
-415
-373
-325
-300
-305
-327
-358
-390
-415
-418
-402
-387
-394
-419
-441
-445
-446
-462
-494
-526
-550
-577
-617
-665
-707
-736
-758
-784
-812
-837
-863
-898
-944
-990
-1015
-1012
-996
-987
-993
-1006
-1015
-1017
-1018
-1016
-1002
-980
-967
-982
-1017
-1037
-1018
-978
-955
-962
-973
-957
-922
-900
-901
-893
-841
-751
-674
-644
-647
-639
-602
-556
-528
-514
-492
-450
-404
-372
-356
-343
-326
-305
-284
-263
-245
-235
-236
-238
-223
-190
-155
-135
-133
-139
-145
-148
-150
-150
-144
-132
-125
-126
-138
-154
-167
-173
-170
-154
-123
-79
-39
-20
-21
-21
4
50
83
73
27
-19
-35
-21
-2
5
4
3
3
-1
-8
-13
-11
-1
15
35
56
70
78
86
99
117
132
144
159
182
199
192
164
143
156
198
236
240
216
191
186
194
202
205
208
208
188
145
105
97
126
161
170
153
130
112
94
76
75
101
138
156
148
137
148
177
194
179
140
97
65
45
34
29
23
18
26
59
108
141
142
126
130
164
204
223
221
227
257
297
317
315
317
343
382
399
377
332
297
286
285
279
262
239
211
186
185
215
254
256
199
103
3
-96
-208
-329
-442
-540
-637
-729
-790
-821
-881
-1026
-1206
-1265
-1090
-741
-386
-134
52
244
429
544
599
684
845
996
1018
919
846
914
1064
1119
981
707
435
240
105
-10
-107
-162
-163
-119
-45
48
145
211
215
151
48
-48
-99
-92
-40
29
83
107
100
66
9
-60
-107
-109
-68
-19
-1
-21
-56
-84
-101
-121
-147
-167
-168
-150
-128
-120
-127
-137
-131
-105
-77
-71
-94
-125
-138
-134
-141
-177
-233
-281
-309
-326
-348
-383
-425
-469
-514
-552
-580
-606
-641
-679
-706
-719
-733
-763
-803
-830
-839
-852
-885
-930
-957
-954
-945
-955
-979
-991
-975
-946
-929
-939
-960
-968
-954
-933
-921
-918
-903
-861
-801
-754
-733
-718
-684
-624
-564
-523
-498
-470
-429
-387
-352
-317
-278
-248
-241
-254
-262
-247
-209
-159
-107
-62
-31
-21
-18
-3
35
73
81
54
17
1
12
32
40
37
40
58
82
92
77
41
9
-1
11
24
17
-10
-40
-54
-43
-17
13
39
52
43
17
-12
-26
-20
-3
7
2
-16
-34
-41
-41
-44
-55
-64
-61
-47
-39
-46
-56
-47
-12
37
75
92
92
83
69
55
50
61
82
93
82
57
32
16
2
-22
-57
-96
-131
-159
-179
-186
-185
-188
-203
-221
-225
-214
-215
-251
-304
-322
-275
-197
-148
-154
-176
-169
-135
-116
-139
-191
-247
-305
-368
-428
-455
-441
-414
-401
-401
-380
-323
-256
-213
-199
-189
-153
-92
-26
24
51
66
78
94
117
148
176
184
162
120
86
79
89
91
80
70
75
85
83
70
70
85
82
30
-64
-167
-264
-358
-450
-532
-600
-656
-698
-718
-739
-815
-972
-1138
-1191
-1067
-831
-600
-427
-285
-146
-27
66
190
409
697
942
1059
1091
1158
1315
1484
1525
1359
1028
657
365
201
137
113
87
67
91
175
295
398
436
388
263
103
-38
-118
-131
-96
-43
-1
17
9
-26
-83
-146
-188
-185
-138
-85
-65
-89
-130
-157
-167
-184
-218
-238
-211
-143
-82
-72
-100
-121
-110
-87
-88
-115
-137
-134
-123
-134
-170
-202
-205
-195
-204
-247
-303
-345
-365
-378
-401
-436
-471
-496
-509
-518
-535
-568
-614
-655
-675
-675
-679
-705
-748
-783
-787
-768
-752
-754
-767
-767
-748
-725
-719
-728
-724
-688
-635
-595
-583
-581
-564
-535
-512
-501
-488
-461
-431
-418
-424
-420
-383
-319
-257
-217
-197
-183
-166
-147
-123
-87
-42
0
28
46
69
105
140
159
168
186
218
243
236
204
170
153
140
116
86
74
85
92
72
38
27
55
98
117
104
79
65
60
50
38
35
50
73
85
78
60
46
45
56
72
80
74
58
46
45
53
58
55
49
46
47
44
34
24
27
52
87
110
101
64
27
19
41
65
66
49
46
70
98
101
78
60
69
92
92
52
-8
-49
-51
-23
11
34
44
52
65
78
81
70
55
47
48
49
48
47
51
57
63
69
74
77
65
27
-38
-112
-172
-196
-187
-172
-175
-198
-216
-207
-171
-125
-83
-48
-17
3
8
8
23
62
105
126
117
88
53
18
-17
-42
427
317
199
132
145
200
226
192
145
149
177
117
-92
-339
-429
-282
-22
168
252
353
560
796
925
937
961
1090
1253
1307
1229
1151
1190
1298
1312
1142
856
600
449
368
297
233
209
246
337
463
601
717
764
724
638
571
543
510
425
315
262
309
395
416
332
220
195
299
465
583
608
566
501
414
288
136
5
-68
-97
-116
-119
-73
24
108
107
14
-111
-209
-287
-401
-570
-749
-867
-891
-852
-808
-788
-778
-742
-668
-578
-504
-455
-418
-389
-393
-443
-503
-495
-377
-197
-61
-18
-24
-14
5
-42
-217
-512
-867
-1229
-1558
-1810
-1933
-1923
-1841
-1753
-1656
-1489
-1235
-984
-865
-918
-1050
-1120
-1068
-939
-813
-726
-665
-606
-540
-456
-329
-143
67
211
205
50
-159
-284
-254
-123
-24
-51
-175
-283
-291
-212
-129
-115
-194
-353
-549
-717
-782
-711
-552
-393
-274
-166
-21
145
286
402
576
895
1330
1730
1940
1918
1763
1599
1444
1198
758
148
-448
-813
-834
-562
-151
281
671
994
1218
1341
1399
1423
1405
1314
1167
1041
992
1008
1051
1132
1291
1483
1571
1481
1319
1286
1443
1620
1594
1319
954
669
516
473
535
712
973
1247
1508
1792
2094
2316
2326
2100
1759
1478
1361
1408
1558
1712
1797
1837
1937
2182
2510
2731
2709
2488
2245
2126
2138
2206
2261
2273
2238
2177
2149
2196
2270
2267
2141
1977
1897
1906
1883
1735
1521
1377
1350
1363
1346
1324
1348
1395
1379
1267
1135
1075
1084
1094
1064
1011
955
885
805
783
882
1087
1311
1487
1629
1785
1952
2064
2070
1977
1820
1626
1414
1201
1001
832
714
685
755
877
972
1021
1080
1203
1342
1388
1307
1196
1177
1254
1318
1278
1166
1072
1016
938
813
732
813
1063
1338
1481
1461
1375
1326
1316
1264
1112
899
742
724
826
944
1002
1021
1084
1231
1417
1586
1751
1968
2223
2388
2326
2039
1684
1424
1278
1123
851
501
236
199
380
650
897
1102
1312
1524
1657
1641
1507
1363
1297
1310
1356
1419
1534
1707
1885
1991
2003
1958
1896
1824
1731
1629
1562
1582
1698
1853
1950
1919
1782
1649
1617
1677
1712
1631
1475
1402
1533
1823
2100
2225
2214
2210
2334
2571
2781
2817
2643
2377
2180
2121
2135
2092
1932
1712
1544
1494
1569
1750
2007
2271
2449
2495
2476
2509
2618
2699
2640
2461
2298
2257
2303
2318
2250
2144
2070
2045
2032
1994
1933
1879
1872
1952
2116
2299
2387
2319
2163
2050
2038
2057
2014
1927
1906
2006
2135
2153
2051
1963
1989
2038
1917
1566
1167
957
996
1122
1154
1081
1036
1108
1249
1361
1413
1447
1488
1490
1423
1331
1318
1437
1632
1791
1845
1808
1748
1721
1725
1713
1638
1499
1345
1235
1200
1227
1292
1371
1449
1503
1515
1502
1504
1531
1526
1414
1195
971
841
805
784
741
727
803
932
992
908
736
602
563
552
466
303
171
169
261
282
120
-160
-366
-372
-247
-166
-229
-358
-413
-348
-230
-137
-67
42
220
427
602
728
834
946
1043
1063
954
730
464
244
117
72
76
115
187
288
414
568
726
826
812
702
601
594
650
674
633
603
644
700
653
491
349
369
539
711
775
759
756
778
746
600
388
222
171
211
275
330
394
499
642
788
892
931
912
866
823
795
778
771
778
809
861
913
946
968
1003
1077
1190
1321
1446
1545
1599
1582
1478
1303
1108
942
819
725
652
615
641
731
858
981
1082
1159
1217
1255
1270
1269
1272
1294
1333
1370
1395
1413
1438
1476
1514
1532
1525
1509
1507
1529
1573
1626
1678
1727
1771
1805
1827
1837
1839
1844
1861
1895
1941
1982
2004
2009
2017
2045
2091
2130
2147
2142
2127
2104
2062
2007
1963
1953
1969
1975
1945
1890
1838
1797
1748
1686
1638
1636
1681
1747
1814
1892
1995
2102
2168
2171
2135
2098
2059
1990
1889
1799
1766
1778
1787
1781
1805
1905
2048
2145
2145
2092
2061
2052
1990
1836
1660
1556
1509
1388
1110
766
562
612
826
1016
1094
1129
1232
1427
1646
1830
1980
2098
2148
2096
1973
1870
1842
1842
1781
1636
1481
1401
1397
1381
1272
1062
814
595
459
430
515
696
939
1205
1466
1707
1915
2074
2167
2187
2128
2006
1863
1751
1702
1721
1786
1857
1876
1796
1633
1479
1401
1350
1209
952
710
634
692
685
475
152
-82
-149
-153
-202
-255
-199
-37
112
179
259
471
796
1071
1186
1198
1246
1381
1510
1520
1390
1201
1049
975
959
945
888
787
702
706
809
945
1022
1007
945
897
869
822
740
667
658
703
731
675
542
398
304
269
271
272
259
241
240
258
253
174
27
-107
-146
-107
-86
-146
-251
-322
-338
-342
-367
-400
-424
-453
-495
-521
-507
-489
-531
-623
-680
-650
-593
-596
-647
-653
-598
-584
-690
-838
-877
-790
-730
-819
-978
-1027
-920
-804
-830
-968
-1066
-1056
-1010
-1016
-1055
-1049
-990
-955
-991
-1046
-1030
-934
-848
-856
-939
-989
-947
-863
-839
-914
-1012
-1028
-955
-878
-866
-890
-869
-786
-705
-689
-724
-761
-792
-849
-922
-927
-784
-504
-173
147
461
786
1089
1306
1427
1495
1535
1500
1345
1144
1072
1238
1550
1789
1810
1683
1606
1689
1837
1863
1678
1382
1154
1085
1110
1102
1012
921
950
1135
1374
1522
1543
1526
1573
1703
1843
1930
1962
1949
1874
1752
1662
1697
1826
1896
1799
1622
1562
1702
1922
2039
1989
1868
1806
1853
1972
2096
2190
2245
2274
2294
2306
2298
2268
2246
2259
2289
2280
2211
2145
2162
2232
2247
2146
2014
1998
2142
2340
2455
2464
2448
2484
2581
2710
2854
2978
2998
2859
2644
2528
2599
2760
2819
2720
2618
2693
2919
3079
3014
2807
2669
2703
2799
2769
2559
2290
2139
2190
2384
2565
2573
2363
2048
1815
1759
1784
1691
1396
1045
871
965
1209
1422
1544
1640
1779
1959
2168
2420
2736
3064
3286
3349
3333
3349
3398
3339
3078
2689
2361
2229
2262
2330
2353
2350
2380
2465
2574
2651
2652
2558
2384
2193
2067
2050
2111
2183
2208
2170
2088
1996
1915
1853
1807
1769
1747
1754
1782
1803
1795
1774
1759
1740
1693
1618
1562
1559
1577
1561
1511
1489
1522
1553
1504
1386
1296
1296
1344
1363
1333
1300
1293
1284
1258
1265
1354
1484
1547
1498
1416
1394
1422
1396
1266
1093
952
825
652
459
372
456
606
644
516
355
315
388
427
341
193
102
86
77
32
16
101
250
346
318
221
160
170
214
244
261
286
322
351
372
401
454
522
574
589
563
510
467
486
590
724
786
735
640
603
638
655
575
441
365
395
464
483
454
468
584
752
864
857
760
653
603
615
649
658
626
581
559
579
627
672
691
682
657
628
591
544
509
520
581
645
630
509
348
263
288
338
310
190
70
37
73
97
65
15
4
32
42
-5
-69
-67
31
154
202
142
53
39
117
202
197
92
-35
-103
-93
-49
-21
-29
-46
-31
28
96
125
113
109
143
198
231
231
224
223
224
234
283
366
421
392
309
267
311
372
349
238
130
87
74
6
-144
-319
-445
-496
-498
-496
-523
-575
-625
-666
-733
-875
-1082
-1259
-1324
-1307
-1321
-1435
-1581
-1627
-1524
-1351
-1213
-1114
-960
-675
-304
15
183
222
230
256
241
93
-196
-521
-760
-870
-903
-917
-921
-884
-788
-655
-538
-495
-554
-685
-812
-870
-864
-854
-881
-927
-935
-893
-872
-936
-1063
-1169
-1204
-1216
-1282
-1427
-1601
-1772
-1955
-2157
-2286
-2203
-1853
-1345
-851
-453
-126
156
326
285
33
-323
-681
-1031
-1389
-1710
-1912
-1980
-1963
-1872
-1639
-1231
-781
-499
-426
-362
-112
239
397
211
-141
-366
-404
-470
-745
-1131
-1381
-1409
-1351
-1347
-1332
-1133
-727
-320
-161
-289
-504
-572
-451
-302
-354
-715
-1294
-1862
-2203
-2247
-2078
-1837
-1612
-1379
-1058
-617
-140
207
273
34
-396
-833
-1136
-1265
-1281
-1276
-1305
-1347
-1333
-1216
-1032
-892
-911
-1162
-1642
-2263
-2851
-3211
-3238
-3006
-2728
-2565
-2489
-2335
-1998
-1561
-1240
-1218
-1495
-1879
-2138
-2177
-2074
-1982
-1975
-2004
-1994
-1930
-1828
-1681
-1477
-1281
-1227
-1361
-1542
-1564
-1359
-1066
-870
-831
-879
-955
-1087
-1311
-1570
-1721
-1647
-1386
-1146
-1159
-1469
-1803
-1744
-1108
-150
628
958
1044
1326
1990
2774
3241
3185
2750
2219
1770
1468
1349
1406
1505
1410
1006
493
256
491
980
1285
1190
916
855
1144
1566
1823
1845
1795
1803
1804
1662
1389
1193
1264
1548
1782
1765
1573
1450
1512
1633
1612
1422
1234
1202
1307
1406
1401
1310
1193
1085
993
931
898
868
842
845
867
824
645
386
213
239
405
561
657
762
905
1001
952
793
695
774
980
1161
1220
1192
1207
1388
1747
2128
2285
2100
1739
1528
1639
1904
1993
1781
1480
1396
1599
1859
1898
1684
1416
1296
1312
1304
1172
999
953
1059
1138
996
650
337
266
406
548
550
484
494
582
611
506
354
284
298
282
181
100
158
322
430
399
326
362
512
624
589
463
392
416
435
376
294
296
380
436
409
381
455
587
619
481
293
236
334
443
433
341
303
379
502
568
551
514
508
525
524
487
434
399
396
426
471
505
521
532
575
672
794
878
887
848
827
856
908
923
888
850
868
957
1097
1264
1438
1599
1718
1789
1841
1905
1980
2040
2060
2038
1984
1904
1797
1686
1599
1539
1465
1333
1167
1056
1079
1211
1341
1383
1366
1390
1496
1614
1650
1588
1487
1399
1306
1179
1038
925
847
770
680
608
584
592
592
584
607
681
755
765
712
672
700
763
783
737
687
697
750
760
672
532
429
400
394
365
336
372
484
605
672
708
781
896
983
990
954
948
977
977
919
866
903
1022
1119
1122
1074
1072
1148
1235
1257
1224
1210
1263
1355
1419
1424
1400
1393
1421
1459
1476
1469
1461
1479
1516
1540
1527
1481
1428
1388
1357
1316
1251
1172
1104
1052
985
874
732
609
530
454
318
104
-147
-411
-724
-1102
-1463
-1667
-1660
-1538
-1428
-1343
-1200
-958
-707
-562
-512
-431
-230
43
279
437
578
771
1000
1177
1214
1085
827
512
219
10
-113
-179
-201
-168
-74
71
245
403
488
462
349
236
193
214
245
290
412
619
779
735
497
260
208
311
379
294
137
63
121
230
312
364
409
427
378
277
196
180
194
173
100
24
-1
35
98
145
149
115
62
2
-84
-197
-310
-375
-379
-375
-437
-568
-680
-678
-569
-466
-491
-654
-835
-909
-870
-831
-903
-1079
-1238
-1263
-1167
-1080
-1107
-1223
-1310
-1297
-1229
-1203
-1240
-1263
-1211
-1117
-1063
-1077
-1102
-1072
-996
-945
-964
-1029
-1084
-1127
-1211
-1356
-1499
-1539
-1456
-1343
-1294
-1291
-1213
-978
-650
-374
-226
-154
-70
28
55
-73
-373
-784
-1207
-1525
-1634
-1513
-1253
-972
-707
-400
-8
409
721
844
786
584
263
-130
-498
-753
-924
-1131
-1440
-1769
-1965
-1989
-1956
-1997
-2092
-2097
-1918
-1630
-1387
-1262
-1203
-1142
-1106
-1190
-1447
-1828
-2226
-2563
-2815
-2978
-3068
-3131
-3232
-3401
-3592
-3722
-3759
-3756
-3797
-3904
-4034
-4135
-4203
-4274
-4378
-4515
-4674
-4833
-4949
-4973
-4904
-4794
-4694
-4595
-4458
-4310
-4259
-4367
-4555
-4661
-4639
-4620
-4734
-4926
-4994
-4831
-4575
-4444
-4476
-4503
-4377
-4166
-4057
-4121
-4238
-4249
-4143
-4046
-4059
-4143
-4184
-4128
-4030
-3962
-3935
-3897
-3803
-3671
-3558
-3500
-3482
-3465
-3424
-3366
-3320
-3319
-3361
-3395
-3371
-3319
-3375
-3645
-4037
-4281
-4187
-3865
-3602
-3528
-3457
-3135
-2590
-2126
-1957
-1947
-1769
-1283
-678
-206
107
442
918
1454
1869
2056
2037
1896
1703
1523
1414
1412
1518
1723
2011
2315
2510
2540
2484
2475
2521
2442
2091
1606
1338
1490
1874
2103
1999
1774
1746
1940
2076
1917
1537
1209
1102
1140
1137
1019
872
815
878
998
1100
1165
1219
1258
1240
1142
1016
952
982
1038
1024
929
830
779
763
766
807
882
896
750
511
404
548
777
806
584
365
392
598
697
550
346
352
533
629
488
260
216
444
760
937
896
750
662
710
842
909
792
528
314
332
564
803
884
861
911
1112
1339
1427
1377
1332
1410
1583
1713
1701
1569
1447
1489
1730
2001
2073
1865
1573
1513
1793
2173
2295
2056
1728
1649
1872
2145
2204
2077
2036
2261
2614
2788
2662
2455
2455
2648
2722
2439
1961
1709
1874
2211
2342
2190
2036
2155
2467
2672
2617
2443
2354
2369
2367
2294
2248
2301
2374
2347
2226
2132
2141
2187
2160
2061
1988
1989
2012
2010
2008
2056
2122
2114
1998
1849
1769
1760
1741
1675
1631
1679
1788
1869
1895
1951
2079
2175
2098
1866
1691
1738
1934
2033
1936
1807
1857
2084
2239
2142
1912
1818
1965
2154
2135
1931
1805
1961
2260
2390
2225
1973
1936
2163
2400
2376
2103
1822
1734
1824
1934
1958
1903
1823
1766
1786
1922
2130
2277
2252
2088
1933
1861
1799
1597
1241
881
641
511
401
302
279
332
352
249
137
217
515
827
977
1085
1451
2157
2892
3290
3330
3303
3415
3548
3454
3092
2670
2390
2276
2253
2290
2401
2567
2738
2905
3076
3211
3204
2993
2693
2479
2419
2424
2386
2280
2164
2130
2225
2402
2533
2496
2318
2197
2309
2567
2662
2408
1997
1802
1957
2203
2184
1881
1597
1580
1746
1819
1630
1287
1036
996
1108
1232
1289
1320
1407
1575
1748
1824
1785
1705
1648
1573
1375
1068
818
752
806
806
701
633
736
926
966
760
503
448
595
696
556
265
89
144
272
272
127
-26
-75
-52
-44
-60
-34
33
46
-60
-194
-208
-65
108
165
111
74
146
286
394
437
453
487
526
537
536
587
690
777
789
766
809
956
1103
1127
1025
920
929
1026
1084
1034
966
989
1095
1181
1181
1156
1173
1211
1192
1114
1061
1088
1117
1023
817
653
678
866
1034
1055
968
924
983
1077
1092
987
833
726
690
664
586
470
386
387
433
457
430
385
398
503
641
712
655
529
453
462
470
387
229
115
136
247
331
311
231
211
314
498
628
571
313
31
-44
142
367
333
9
-321
-369
-148
52
-15
-304
-548
-559
-398
-264
-264
-348
-399
-373
-320
-289
-286
-306
-354
-435
-502
-503
-475
-534
-718
-875
-840
-665
-616
-831
-1099
-1117
-887
-747
-951
-1332
-1532
-1484
-1487
-1784
-2249
-2579
-2727
-2972
-3505
-4118
-4458
-4452
-4356
-4396
-4485
-4382
-4048
-3729
-3671
-3825
-3911
-3704
-3265
-2827
-2527
-2237
-1719
-896
-22
508
537
286
77
-56
-384
-1078
-1874
-2283
-2163
-1976
-2334
-3282
-4190
-4403
-3932
-3386
-3283
-3517
-3581
-3197
-2594
-2160
-2004
-1982
-2043
-2371
-3118
-4087
-4864
-5208
-5271
-5343
-5501
-5608
-5560
-5428
-5326
-5243
-5125
-5060
-5261
-5806
-6463
-6844
-6807
-6629
-6761
-7428
-8430
-9273
-9539
-9170
-8465
-7831
-7474
-7296
-7013
-6484
-5908
-5701
-6147
-7129
-8250
-9165
-9766
-10107
-10241
-10191
-10032
-9864
-9700
-9440
-9032
-8628
-8501
-8777
-9305
-9791
-10017
-9933
-9620
-9256
-9052
-9132
-9392
-9541
-9393
-9075
-8913
-9075
-9393
-9563
-9464
-9265
-9195
-9299
-9449
-9508
-9469
-9423
-9429
-9465
-9436
-9277
-9045
-8873
-8874
-9066
-9379
-9716
-9959
-10017
-9883
-9669
-9524
-9489
-9459
-9315
-9062
-8827
-8704
-8654
-8589
-8505
-8480
-8521
-8502
-8307
-8009
-7814
-7830
-7956
-7984
-7828
-7618
-7546
-7705
-8024
-8311
-8376
-8159
-7816
-7605
-7646
-7749
-7600
-7106
-6501
-6106
-6034
-6133
-6199
-6155
-6032
-5903
-5879
-6057
-6398
-6676
-6657
-6361
-6095
-6129
-6409
-6624
-6533
-6211
-5907
-5740
-5638
-5506
-5357
-5273
-5300
-5358
-5343
-5214
-5061
-5026
-5176
-5407
-5535
-5455
-5262
-5186
-5349
-5600
-5666
-5446
-5115
-4936
-4945
-4920
-4686
-4352
-4182
-4265
-4400
-4350
-4135
-3964
-3911
-3816
-3516
-3106
-2823
-2737
-2643
-2375
-2063
-1970
-2137
-2299
-2198
-1880
-1596
-1454
-1312
-1011
-621
-342
-222
-117
82
288
325
150
-69
-161
-152
-210
-405
-619
-682
-598
-568
-741
-1022
-1132
-906
-493
-188
-118
-88
148
599
1032
1263
1359
1538
1904
2357
2739
3012
3269
3583
3914
4124
4091
3820
3466
3228
3202
3308
3372
3330
3291
3387
3575
3693
3651
3518
3418
3360
3253
3086
2988
3083
3320
3495
3484
3355
3248
3191
3079
2822
2485
2227
2139
2175
2202
2123
1992
1936
1984
1989
1760
1305
902
838
1058
1175
900
409
167
393
764
761
249
-406
-774
-789
-736
-860
-1116
-1332
-1445
-1535
-1658
-1734
-1706
-1677
-1832
-2226
-2682
-2956
-3010
-3037
-3230
-3566
-3841
-3904
-3817
-3763
-3833
-3935
-3931
-3785
-3605
-3529
-3608
-3784
-3962
-4069
-4097
-4112
-4208
-4429
-4708
-4887
-4841
-4606
-4366
-4288
-4376
-4489
-4504
-4422
-4342
-4339
-4411
-4521
-4664
-4835
-4987
-5045
-4974
-4862
-4846
-4966
-5113
-5130
-5000
-4880
-4910
-5035
-5057
-4883
-4667
-4633
-4785
-4883
-4738
-4458
-4334
-4484
-4729
-4810
-4691
-4537
-4485
-4495
-4460
-4384
-4361
-4435
-4545
-4625
-4673
-4743
-4861
-4993
-5072
-5061
-4982
-4918
-4959
-5086
-5164
-5068
-4859
-4753
-4875
-5096
-5165
-5001
-4789
-4762
-4920
-5043
-4945
-4654
-4331
-4085
-3914
-3763
-3628
-3539
-3521
-3572
-3658
-3721
-3711
-3641
-3574
-3575
-3605
-3542
-3303
-2974
-2764
-2837
-3144
-3442
-3509
-3354
-3200
-3230
-3403
-3537
-3513
-3387
-3282
-3244
-3261
-3333
-3457
-3553
-3508
-3320
-3141
-3111
-3186
-3201
-3113
-3052
-3141
-3331
-3493
-3567
-3602
-3654
-3718
-3761
-3764
-3707
-3571
-3430
-3424
-3597
-3787
-3799
-3664
-3641
-3890
-4239
-4402
-4320
-4214
-4269
-4410
-4468
-4483
-4674
-5115
-5563
-5719
-5581
-5425
-5442
-5494
-5298
-4810
-4330
-4169
-4280
-4318
-4046
-3599
-3307
-3310
-3393
-3257
-2864
-2450
-2259
-2338
-2566
-2794
-2917
-2891
-2794
-2811
-3057
-3369
-3395
-2985
-2460
-2319
-2675
-3103
-3145
-2846
-2662
-2856
-3162
-3140
-2748
-2367
-2309
-2455
-2500
-2385
-2336
-2484
-2659
-2647
-2482
-2392
-2484
-2602
-2573
-2437
-2361
-2396
-2438
-2419
-2429
-2540
-2670
-2668
-2560
-2534
-2669
-2801
-2734
-2526
-2433
-2575
-2795
-2876
-2816
-2794
-2900
-3024
-3038
-2974
-2977
-3083
-3181
-3158
-3048
-2994
-3076
-3235
-3351
-3337
-3231
-3150
-3172
-3255
-3298
-3277
-3259
-3302
-3383
-3445
-3508
-3663
-3913
-4113
-4129
-3994
-3867
-3825
-3775
-3603
-3330
-3054
-2805
-2565
-2370
-2310
-2394
-2476
-2430
-2316
-2307
-2463
-2653
-2717
-2632
-2458
-2210
-1887
-1578
-1429
-1432
-1346
-943
-339
80
87
-118
-149
105
336
204
-245
-635
-679
-463
-279
-255
-254
-88
234
535
684
710
724
739
677
514
373
429
697
961
972
723
456
365
358
161
-298
-769
-957
-827
-585
-374
-129
231
576
687
539
312
161
8
-293
-730
-1120
-1336
-1418
-1451
-1438
-1385
-1397
-1554
-1716
-1636
-1312
-1097
-1321
-1839
-2128
-1868
-1368
-1240
-1698
-2311
-2483
-2117
-1656
-1538
-1749
-1939
-1890
-1749
-1778
-1972
-2077
-1940
-1715
-1663
-1794
-1834
-1574
-1151
-909
-1013
-1259
-1302
-1051
-746
-693
-914
-1135
-1101
-856
-667
-704
-847
-880
-761
-654
-677
-707
-578
-344
-249
-397
-568
-494
-259
-214
-522
-952
-1147
-1041
-870
-842
-953
-1113
-1285
-1419
-1396
-1161
-889
-833
-969
-962
-572
-15
273
178
60
328
958
1542
1781
1782
1870
2194
2588
2835
2908
2911
2914
2889
2811
2775
2884
3068
3162
3098
3014
3090
3293
3399
3271
3040
2936
2998
3074
3091
3164
3427
3787
4000
3978
3895
3942
4073
4070
3858
3617
3559
3666
3726
3591
3357
3234
3294
3410
3403
3243
3074
3054
3205
3437
3665
3875
4084
4277
4411
4439
4342
4127
3827
3543
3390
3390
3439
3412
3329
3384
3727
4243
4612
4631
4420
4276
4339
4486
4522
4397
4229
4127
4086
4047
4003
3966
3914
3818
3712
3674
3745
3872
3969
4002
3998
3999
4040
4117
4152
4049
3792
3533
3474
3636
3790
3701
3421
3261
3422
3766
3964
3889
3740
3786
4062
4349
4447
4390
4381
4550
4786
4834
4578
4217
4092
4318
4632
4654
4323
4015
4114
4575
4954
4888
4468
4117
4116
4351
4484
4333
4024
3821
3854
4017
4113
4072
4005
4040
4153
4175
4016
3794
3732
3897
4093
4087
3870
3668
3673
3850
3990
3957
3791
3619
3514
3462
3429
3422
3442
3455
3422
3364
3343
3366
3350
3216
2992
2799
2743
2776
2758
2626
2476
2479
2696
2983
3117
3025
2841
2764
2828
2889
2825
2662
2521
2463
2440
2408
2386
2388
2348
2212
2052
2002
2066
2100
2035
2000
2141
2383
2482
2351
2188
2220
2366
2344
2073
1800
1775
1926
1972
1831
1747
1950
2326
2534
2411
2156
2075
2221
2383
2373
2215
2048
1933
1823
1707
1659
1716
1774
1671
1418
1219
1228
1359
1365
1123
783
594
676
931
1210
1420
1516
1478
1343
1258
1386
1734
2129
2405
2588
2849
3281
3773
4113
4172
3966
3569
3040
2418
1772
1215
874
850
1149
1629
2089
2447
2797
3261
3739
3930
3644
3053
2566
2437
2568
2705
2722
2680
2658
2640
2583
2523
2528
2597
2624
2527
2330
2130
2015
1992
1985
1875
1598
1228
951
894
1013
1168
1261
1308
1371
1450
1482
1414
1258
1074
948
947
1066
1221
1287
1256
1254
1390
1595
1659
1460
1103
813
719
756
782
740
687
662
613
489
334
271
339
418
331
65
-182
-208
-24
138
85
-133
-295
-265
-120
-15
28
109
277
414
386
204
34
9
74
77
-40
-133
-36
230
451
464
336
268
350
469
469
379
373
539
766
892
923
997
1193
1399
1459
1345
1201
1169
1262
1389
1466
1460
1396
1336
1358
1472
1583
1571
1433
1294
1268
1317
1318
1245
1209
1311
1484
1561
1487
1394
1439
1617
1756
1729
1596
1529
1621
1779
1840
1748
1622
1612
1741
1891
1943
1907
1887
1928
1978
1966
1927
1939
2004
2025
1943
1844
1857
1966
2037
1994
1921
1944
2031
2041
1932
1835
1883
2030
2109
2046
1940
1909
1955
1989
1964
1900
1806
1667
1499
1385
1381
1438
1443
1353
1258
1254
1355
1482
1556
1555
1493
1412
1356
1343
1352
1345
1313
1299
1326
1376
1398
1349
1243
1153
1142
1195
1205
1078
860
708
725
825
811
604
327
162
130
84
-85
-326
-529
-690
-901
-1211
-1541
-1767
-1849
-1838
-1779
-1652
-1416
-1081
-733
-473
-346
-318
-308
-252
-110
100
312
444
452
375
290
222
122
-5
-1
354
1078
1852
2252
2140
1784
1529
1402
1094
322
-824
-1898
-2437
-2268
-1562
-657
159
783
1272
1705
2032
2070
1666
886
2
-698
-1097
-1246
-1209
-973
-525
5
329
179
-445
-1213
-1665
-1542
-976
-340
93
377
784
1489
2362
3071
3339
3135
2630
2058
1591
1302
1193
1221
1323
1458
1618
1811
2025
2186
2198
2005
1626
1167
755
469
318
261
241
203
105
-49
-221
-364
-466
-522
-509
-407
-262
-192
-287
-502
-695
-768
-764
-790
-878
-953
-931
-829
-739
-718
-739
-734
-658
-528
-403
-338
-341
-337
-232
-3
263
422
425
366
373
468
544
502
362
233
199
252
337
434
570
741
877
898
809
723
736
799
781
608
365
228
263
361
365
253
146
147
217
243
173
67
16
26
28
-25
-105
-148
-133
-91
-51
-3
53
91
83
34
-24
-78
-139
-209
-258
-254
-226
-236
-291
-345
-343
-297
-275
-295
-316
-339
-428
-607
-770
-756
-560
-368
-360
-487
-522
-341
-89
1
-110
-251
-290
-287
-373
-557
-730
-811
-827
-818
-780
-729
-736
-843
-954
-926
-772
-694
-837
-1106
-1256
-1182
-1021
-955
-1002
-1057
-1060
-1044
-1058
-1094
-1138
-1207
-1304
-1402
-1479
-1541
-1596
-1619
-1597
-1575
-1617
-1716
-1795
-1845
-1993
-2320
-2683
-2845
-2778
-2735
-2927
-3243
-3391
-3298
-3224
-3427
-3813
-4046
-3963
-3744
-3652
-3706
-3719
-3571
-3346
-3182
-3103
-3032
-2920
-2781
-2629
-2467
-2326
-2247
-2230
-2234
-2257
-2377
-2660
-3037
-3345
-3478
-3477
-3455
-3452
-3423
-3338
-3222
-3123
-3071
-3102
-3245
-3491
-3749
-3919
-3975
-3972
-3967
-3974
-3988
-4025
-4111
-4212
-4266
-4248
-4214
-4218
-4243
-4229
-4151
-4071
-4061
-4126
-4215
-4287
-4350
-4427
-4503
-4524
-4465
-4368
-4306
-4299
-4297
-4245
-4162
-4136
-4245
-4480
-4740
-4924
-5007
-5029
-5054
-5125
-5236
-5326
-5319
-5189
-5019
-4948
-5039
-5205
-5314
-5324
-5297
-5283
-5223
-5063
-4866
-4767
-4812
-4895
-4898
-4868
-4955
-5197
-5429
-5441
-5193
-4843
-4582
-4483
-4506
-4568
-4587
-4496
-4315
-4191
-4313
-4726
-5237
-5570
-5622
-5560
-5643
-5956
-6319
-6465
-6272
-5851
-5426
-5136
-4946
-4725
-4404
-4052
-3809
-3724
-3709
-3654
-3559
-3525
-3591
-3638
-3490
-3137
-2782
-2639
-2714
-2825
-2806
-2669
-2536
-2467
-2415
-2319
-2187
-2067
-1965
-1842
-1684
-1544
-1473
-1455
-1429
-1381
-1380
-1495
-1687
-1814
-1756
-1538
-1307
-1191
-1189
-1214
-1226
-1277
-1440
-1706
-1982
-2190
-2317
-2382
-2382
-2307
-2195
-2128
-2149
-2217
-2268
-2315
-2428
-2627
-2832
-2930
-2906
-2843
-2823
-2840
-2845
-2830
-2836
-2885
-2945
-2969
-2960
-2976
-3046
-3135
-3180
-3159
-3118
-3119
-3182
-3267
-3315
-3294
-3229
-3167
-3134
-3125
-3124
-3121
-3119
-3115
-3099
-3070
-3028
-2969
-2889
-2797
-2730
-2714
-2736
-2752
-2728
-2685
-2665
-2695
-2761
-2830
-2884
-2919
-2924
-2901
-2868
-2857
-2883
-2920
-2924
-2886
-2838
-2825
-2874
-2980
-3110
-3214
-3245
-3220
-3235
-3376
-3610
-3771
-3712
-3461
-3192
-3042
-2976
-2866
-2664
-2449
-2302
-2184
-1984
-1669
-1332
-1082
-909
-703
-410
-133
-34
-164
-397
-568
-631
-674
-757
-831
-799
-654
-500
-421
-377
-283
-145
-68
-130
-269
-352
-311
-192
-67
31
98
119
82
17
-23
-16
15
33
42
68
121
174
181
109
-35
-202
-336
-436
-575
-809
-1058
-1111
-785
-92
778
1625
2365
2990
3441
3601
3403
2930
2355
1787
1218
632
122
-132
-34
302
628
755
677
507
325
92
-271
-783
-1365
-1858
-2096
-1963
-1446
-645
277
1181
2019
2810
3596
4396
5163
5768
6023
5813
5242
4592
4093
3718
3269
2668
2124
1970
2311
2905
3370
3497
3361
3168
3049
2994
2904
2704
2433
2229
2237
2479
2810
3077
3279
3558
4000
4488
4802
4838
4697
4540
4405
4222
3965
3730
3634
3675
3745
3760
3740
3749
3798
3815
3709
3447
3076
2681
2324
2034
1819
1697
1685
1774
1909
2033
2122
2175
2176
2088
1888
1613
1348
1170
1103
1113
1145
1153
1117
1050
980
916
847
767
701
690
732
767
726
607
474
395
372
349
282
191
136
152
224
296
316
264
167
93
100
182
251
216
77
-73
-156
-183
-232
-336
-449
-506
-496
-460
-418
-343
-227
-105
-30
-14
-26
-53
-110
-196
-273
-295
-269
-256
-296
-358
-378
-324
-249
-235
-314
-431
-492
-452
-355
-284
-281
-324
-357
-366
-378
-437
-557
-693
-776
-774
-741
-794
-1025
-1410
-1817
-2117
-2265
-2287
-2201
-1972
-1539
-893
-107
674
1284
1614
1662
1538
1396
1341
1399
1526
1669
1785
1866
1962
2130
2361
2540
2510
2237
1874
1659
1714
1967
2254
2497
2729
2971
3162
3214
3126
3013
2973
2986
2956
2860
2801
2886
3081
3227
3199
3007
2753
2508
2290
2128
2075
2137
2221
2223
2151
2110
2176
2321
2472
2610
2777
2981
3156
3236
3219
3137
2990
2762
2479
2214
2007
1832
1652
1511
1501
1638
1811
1897
1892
1903
2018
2199
2349
2407
2384
2302
2169
1999
1825
1671
1531
1382
1230
1105
1039
1036
1093
1196
1302
1366
1376
1375
1410
1466
1478
1427
1381
1414
1506
1566
1561
1572
1698
1923
2115
2180
2173
2230
2409
2619
2724
2673
2534
2399
2311
2259
2224
2206
2211
2232
2249
2262
2277
2286
2261
2208
2186
2245
2346
2375
2288
2199
2272
2504
2693
2649
2434
2293
2356
2480
2446
2261
2153
2272
2470
2489
2276
2072
2129
2403
2590
2459
2124
1913
2009
2255
2321
2099
1813
1756
1954
2155
2146
2003
1970
2131
2309
2313
2158
2014
1982
2000
1972
1884
1758
1590
1393
1265
1316
1522
1704
1738
1673
1672
1793
1913
1899
1781
1687
1676
1677
1601
1476
1436
1550
1733
1832
1785
1697
1729
1931
2191
2349
2341
2228
2138
2166
2310
2490
2613
2650
2664
2757
2972
3251
3477
3573
3555
3503
3503
3571
3626
3583
3439
3293
3263
3378
3542
3648
3678
3673
3664
3637
3568
3479
3421
3420
3441
3421
3327
3199
3099
3024
2889
2627
2296
2060
2025
2129
2222
2248
2279
2368
2450
2450
2440
2600
2986
3430
3737
3924
4175
4569
4927
5016
4811
4494
4212
3932
3566
3191
3012
3134
3424
3656
3742
3775
3849
3903
3789
3447
2990
2601
2379
2295
2261
2226
2198
2211
2270
2324
2299
2182
2044
1982
2019
2080
2085
2050
2044
2091
2129
2093
2001
1923
1890
1861
1795
1728
1732
1809
1878
1863
1780
1708
1690
1680
1617
1516
1452
1466
1496
1456
1347
1262
1264
1307
1294
1211
1137
1131
1154
1134
1068
1003
946
871
796
786
849
873
740
513
414
558
770
757
462
149
118
350
561
538
372
301
418
586
636
546
403
253
90
-57
-104
-19
109
174
192
288
523
797
951
949
907
940
1050
1143
1156
1133
1154
1252
1387
1484
1511
1502
1524
1584
1612
1564
1511
1573
1756
1923
1962
1940
1998
2139
2195
2059
1866
1837
1980
2074
1953
1740
1701
1924
2206
2302
2191
2063
2085
2225
2316
2245
2072
1949
1969
2067
2108
2024
1900
1868
1946
2023
1993
1895
1854
1918
2006
2041
2047
2108
2219
2287
2247
2144
2080
2096
2126
2094
2000
1899
1844
1845
1858
1837
1753
1640
1569
1565
1583
1590
1622
1725
1836
1824
1690
1627
1809
2122
2233
2000
1675
1651
2001
2382
2443
2219
2037
2104
2304
2401
2336
2245
2235
2269
2248
2155
2075
2096
2210
2326
2339
2223
2077
2025
2100
2209
2209
2070
1880
1764
1779
1882
1966
1892
1580
1122
747
635
734
819
763
656
666
828
1028
1170
1313
1561
1896
2203
2429
2661
3004
3425
3759
3861
3712
3404
3069
2815
2684
2620
2495
2260
2033
2008
2242
2559
2702
2582
2347
2200
2185
2171
2055
1896
1841
1943
2100
2184
2167
2113
2069
2007
1901
1792
1746
1766
1786
1751
1678
1620
1593
1576
1561
1565
1597
1610
1547
1423
1324
1300
1308
1251
1098
922
833
867
942
919
714
352
-49
-339
-419
-277
31
427
833
1194
1467
1635
1701
1680
1581
1431
1280
1182
1162
1223
1374
1618
1917
2171
2275
2200
1987
1698
1396
1171
1149
1411
1901
2452
2933
3345
3742
4091
4243
4076
3634
3105
2671
2393
2248
2215
2288
2440
2597
2707
2818
3036
3388
3747
3909
3779
3450
3110
2875
2734
2631
2568
2575
2633
2654
2575
2444
2375
2403
2421
2288
1986
1648
1428
1367
1381
1385
1360
1342
1349
1366
1358
1293
1143
917
689
573
630
782
875
820
682
599
644
768
865
892
915
1050
1355
1768
2141
2357
2412
2378
2321
2253
2165
2050
1893
1652
1310
947
708
660
698
649
472
291
225
225
133
-107
-364
-462
-373
-229
-152
-112
11
264
553
753
815
763
622
408
184
63
103
218
265
214
198
354
629
805
720
432
149
17
20
66
115
180
284
417
546
643
672
618
491
322
132
-66
-245
-361
-397
-406
-450
-497
-457
-331
-298
-551
-1037
-1441
-1490
-1240
-1001
-974
-1034
-891
-445
92
419
448
339
296
365
442
442
399
400
456
467
365
217
165
231
271
147
-80
-197
-110
42
70
-30
-93
-32
41
-20
-189
-303
-274
-190
-176
-227
-240
-179
-125
-155
-244
-317
-317
-230
-70
121
263
286
213
147
175
261
302
261
207
213
269
317
334
355
406
446
436
408
442
563
708
788
785
763
775
810
827
814
802
810
821
805
761
703
640
572
512
484
497
528
546
553
581
647
720
749
712
638
576
556
569
585
587
582
593
630
679
716
734
750
784
840
902
959
1010
1067
1135
1205
1265
1315
1370
1441
1525
1601
1657
1705
1771
1858
1937
1970
1958
1948
1979
2038
2077
2083
2107
2219
2434
2693
2921
3066
3111
3065
2954
2818
2675
2509
2297
2066
1896
1853
1932
2079
2254
2451
2652
2804
2851
2782
2640
2465
2274
2082
1916
1804
1751
1747
1788
1877
1982
2044
2026
1947
1870
1838
1851
1881
1906
1918
1914
1901
1903
1940
2009
2076
2114
2119
2111
2115
2137
2168
2195
2222
2261
2309
2334
2297
2198
2086
2019
2007
2018
2020
2029
2076
2155
2222
2255
2283
2345
2430
2485
2473
2423
2385
2371
2345
2285
2217
2187
2202
2228
2231
2212
2205
2227
2265
2292
2295
2293
2305
2329
2337
2293
2195
2068
1930
1779
1622
1497
1442
1442
1441
1411
1381
1366
1300
1106
820
605
593
740
893
984
1096
1324
1621
1850
1957
2041
2211
2442
2608
2646
2613
2603
2629
2628
2533
2324
2023
1678
1366
1168
1116
1161
1221
1262
1315
1420
1569
1694
1726
1640
1468
1278
1135
1070
1072
1109
1156
1190
1197
1161
1085
1002
947
930
926
907
874
849
844
844
829
792
745
701
671
663
675
681
643
555
457
403
397
383
310
189
84
34
13
-33
-117
-191
-206
-170
-135
-130
-127
-87
-20
25
15
-25
-49
-58
-94
-169
-239
-245
-199
-168
-187
-216
-197
-135
-96
-116
-152
-142
-82
-31
-31
-51
-31
44
128
170
170
168
193
234
263
271
272
281
295
304
311
335
388
454
511
548
584
641
722
803
855
869
865
863
875
894
906
902
892
900
943
1010
1063
1069
1044
1046
1118
1241
1343
1360
1303
1222
1143
1034
861
651
477
366
277
171
85
96
215
345
376
318
283
355
494
592
594
541
511
546
631
734
826
883
892
863
836
844
891
956
1018
1077
1147
1233
1334
1445
1557
1652
1707
1717
1703
1692
1693
1689
1660
1613
1579
1594
1659
1753
1851
1949
2049
2136
2176
2164
2135
2152
2236
2347
2426
2457
2483
2558
2680
2799
2878
2921
2960
2997
2996
2938
2857
2801
2782
2757
2691
2601
2537
2508
2469
2367
2201
2004
1808
1635
1506
1419
1328
1175
962
761
622
473
209
-155
-449
-520
-402
-254
-157
-33
212
516
715
744
714
769
908
1006
983
895
847
863
865
763
524
172
-236
-642
-996
-1273
-1485
-1638
-1720
-1719
-1665
-1628
-1656
-1749
-1863
-1976
-2108
-2273
-2435
-2529
-2522
-2447
-2372
-2340
-2339
-2347
-2360
-2373
-2371
-2350
-2336
-2367
-2432
-2471
-2441
-2374
-2339
-2337
-2291
-2142
-1940
-1799
-1774
-1809
-1824
-1824
-1878
-1999
-2110
-2129
-2057
-1962
-1891
-1822
-1724
-1603
-1500
-1449
-1456
-1498
-1535
-1523
-1454
-1370
-1330
-1335
-1315
-1234
-1145
-1140
-1234
-1340
-1370
-1324
-1282
-1296
-1351
-1399
-1409
-1383
-1341
-1318
-1340
-1399
-1440
-1403
-1276
-1105
-944
-811
-684
-540
-386
-251
-161
-114
-73
5
122
239
318
374
452
563
668
731
772
838
943
1046
1114
1169
1268
1418
1563
1648
1691
1764
1904
2060
2150
2166
2190
2306
2501
2674
2744
2725
2699
2727
2792
2837
2841
2820
2815
2845
2902
2970
3038
3109
3184
3235
3220
3142
3082
3121
3236
3308
3260
3154
3114
3182
3260
3238
3112
2978
2928
2963
3015
3017
2952
2866
2837
2889
2950
2903
2716
2504
2423
2495
2581
2531
2354
2196
2182
2287
2380
2360
2240
2111
2043
2042
2081
2144
2230
2331
2416
2455
2457
2471
2532
2604
2594
2439
2179
1939
1829
1848
1899
1884
1814
1791
1897
2101
2279
2338
2300
2264
2271
2273
2206
2085
1993
1985
2017
1984
1825
1582
1361
1246
1224
1212
1154
1069
1028
1046
1027
846
506
169
-12
-52
-97
-225
-327
-237
58
385
572
646
765
1015
1311
1501
1523
1443
1350
1276
1197
1082
892
607
279
37
-8
123
287
372
398
464
616
787
871
825
683
500
324
196
143
149
161
130
65
9
-22
-57
-134
-230
-278
-257
-217
-230
-309
-400
-443
-440
-461
-567
-765
-1020
-1279
-1475
-1528
-1395
-1130
-863
-679
-527
-260
183
651
885
763
431
174
149
266
320
228
103
94
197
256
144
-93
-302
-402
-462
-585
-764
-896
-910
-843
-779
-755
-768
-834
-981
-1184
-1341
-1354
-1225
-1034
-842
-625
-321
81
520
900
1142
1233
1237
1229
1221
1131
904
623
455
460
509
448
301
264
440
685
771
643
474
441
529
603
596
582
653
806
961
1058
1086
1048
951
838
779
801
856
860
779
668
618
681
809
885
839
735
719
852
1009
1015
862
747
833
1011
1006
708
330
174
275
388
296
82
14
221
564
794
806
683
564
513
498
467
396
316
269
277
313
338
366
441
558
634
542
525
521
642
791
827
741
653
658
712
694
566
419
370
432
524
573
586
619
682
739
754
746
748
758
732
649
571
587
708
835
853
750
619
557
554
537
458
360
318
341
355
304
216
176
214
251
169
-48
-293
-448
-503
-546
-631
-736
-835
-960
-1143
-1313
-1333
-1173
-985
-948
-1056
-1129
-1052
-925
-928
-1079
-1179
-1053
-753
-471
-314
-194
18
305
509
496
269
-57
-377
-644
-857
-1014
-1100
-1110
-1045
-923
-776
-637
-524
-450
-452
-577
-808
-1034
-1128
-1073
-992
-997
-1066
-1074
-972
-874
-917
-1086
-1213
-1183
-1082
-1087
-1256
-1462
-1558
-1529
-1479
-1475
-1483
-1456
-1428
-1483
-1633
-1786
-1860
-1884
-1959
-2123
-2286
-2340
-2278
-2196
-2177
-2206
-2217
-2184
-2148
-2154
-2210
-2297
-2391
-2452
-2424
-2288
-2109
-1997
-1994
-2040
-2072
-2127
-2314
-2682
-3135
-3524
-3781
-3942
-4046
-4068
-3953
-3705
-3415
-3207
-3146
-3202
-3283
-3339
-3423
-3630
-3954
-4241
-4313
-4154
-3927
-3759
-3568
-3171
-2564
-2027
-1895
-2279
-3018
-3856
-4627
-5246
-5657
-5825
-5787
-5593
-5200
-4502
-3499
-2402
-1523
-1051
-934
-996
-1120
-1305
-1584
-1960
-2408
-2902
-3399
-3806
-4006
-3955
-3743
-3547
-3485
-3496
-3398
-3074
-2601
-2216
-2123
-2357
-2795
-3297
-3807
-4311
-4761
-5054
-5111
-4952
-4674
-4388
-4163
-4022
-3965
-3986
-4060
-4149
-4214
-4219
-4139
-3966
-3713
-3403
-3053
-2683
-2348
-2130
-2102
-2261
-2536
-2849
-3165
-3463
-3702
-3813
-3760
-3562
-3271
-2931
-2584
-2294
-2128
-2092
-2119
-2130
-2104
-2086
-2106
-2131
-2096
-1978
-1811
-1637
-1454
-1240
-1007
-819
-728
-722
-737
-729
-721
-770
-896
-1054
-1172
-1219
-1215
-1194
-1173
-1149
-1128
-1128
-1164
-1226
-1279
-1306
-1328
-1384
-1484
-1590
-1666
-1742
-1885
-2108
-2340
-2516
-2667
-2867
-3116
-3323
-3446
-3586
-3870
-4245
-4496
-4488
-4353
-4326
-4467
-4603
-4566
-4409
-4319
-4362
-4410
-4301
-4032
-3734
-3522
-3419
-3392
-3420
-3492
-3602
-3783
-4085
-4498
-4902
-5141
-5174
-5122
-5127
-5196
-5213
-5099
-4923
-4842
-4945
-5177
-5415
-5597
-5748
-5910
-6052
-6117
-6103
-6093
-6190
-6398
-6605
-6711
-6719
-6723
-6778
-6845
-6857
-6801
-6738
-6721
-6749
-6793
-6840
-6869
-6824
-6654
-6399
-6205
-6195
-6349
-6506
-6537
-6484
-6504
-6693
-6975
-7179
-7204
-7098
-6987
-6930
-6883
-6779
-6628
-6515
-6494
-6522
-6518
-6453
-6393
-6398
-6443
-6441
-6353
-6239
-6194
-6252
-6346
-6387
-6342
-6253
-6174
-6102
-5989
-5804
-5581
-5373
-5182
-4956
-4671
-4402
-4262
-4271
-4320
-4288
-4193
-4173
-4308
-4503
-4576
-4451
-4225
-4051
-3979
-3948
-3891
-3803
-3723
-3684
-3690
-3731
-3784
-3809
-3765
-3659
-3538
-3439
-3349
-3230
-3084
-2955
-2879
-2833
-2754
-2615
-2478
-2431
-2492
-2589
-2643
-2665
-2729
-2856
-2960
-2936
-2792
-2660
-2643
-2702
-2717
-2660
-2647
-2808
-3112
-3381
-3483
-3470
-3502
-3646
-3803
-3836
-3738
-3650
-3717
-3948
-4230
-4461
-4636
-4814
-5032
-5248
-5381
-5390
-5316
-5233
-5175
-5113
-5018
-4922
-4898
-4958
-5010
-4920
-4648
-4290
-3986
-3793
-3690
-3663
-3760
-4031
-4450
-4927
-5390
-5817
-6181
-6382
-6295
-5896
-5315
-4758
-4377
-4188
-4110
-4069
-4051
-4085
-4189
-4320
-4383
-4290
-4007
-3575
-3088
-2649
-2344
-2197
-2161
-2159
-2151
-2158
-2223
-2344
-2446
-2453
-2353
-2209
-2106
-2077
-2102
-2155
-2239
-2364
-2506
-2588
-2536
-2348
-2108
-1929
-1881
-1986
-2217
-2501
-2746
-2891
-2976
-3105
-3307
-3445
-3323
-2903
-2389
-2029
-1861
-1682
-1274
-642
-7
406
558
586
655
816
970
966
738
374
45
-143
-217
-266
-315
-309
-204
-33
114
164
115
-2
-159
-333
-494
-606
-649
-630
-601
-635
-774
-983
-1170
-1266
-1282
-1296
-1359
-1439
-1484
-1493
-1524
-1618
-1753
-1865
-1917
-1956
-2048
-2201
-2342
-2398
-2380
-2382
-2463
-2582
-2642
-2618
-2595
-2678
-2854
-3005
-3048
-3024
-3040
-3137
-3260
-3326
-3319
-3286
-3282
-3326
-3405
-3486
-3535
-3534
-3503
-3481
-3497
-3546
-3605
-3648
-3663
-3663
-3678
-3734
-3822
-3892
-3892
-3822
-3735
-3676
-3645
-3618
-3590
-3575
-3580
-3592
-3612
-3646
-3697
-3750
-3791
-3822
-3851
-3868
-3841
-3751
-3618
-3479
-3354
-3225
-3068
-2887
-2750
-2737
-2874
-3094
-3296
-3440
-3583
-3804
-4107
-4398
-4560
-4531
-4310
-3928
-3433
-2903
-2424
-2040
-1729
-1454
-1249
-1223
-1456
-1881
-2309
-2583
-2734
-2948
-3366
-3934
-4435
-4701
-4778
-4866
-5136
-5570
-5985
-6168
-6010
-5554
-4944
-4319
-3733
-3165
-2598
-2106
-1833
-1882
-2231
-2746
-3268
-3693
-3995
-4200
-4337
-4404
-4375
-4251
-4099
-4004
-3988
-3984
-3926
-3844
-3839
-3957
-4103
-4132
-3977
-3709
-3472
-3353
-3344
-3385
-3417
-3413
-3376
-3316
-3240
-3130
-2980
-2817
-2692
-2635
-2624
-2620
-2608
-2607
-2626
-2636
-2617
-2589
-2589
-2613
-2619
-2595
-2582
-2622
-2699
-2760
-2788
-2829
-2930
-3070
-3185
-3256
-3352
-3562
-3895
-4255
-4511
-4599
-4549
-4435
-4328
-4255
-4207
-4153
-4091
-4080
-4226
-4582
-5060
-5457
-5616
-5540
-5355
-5156
-4950
-4717
-4501
-4369
-4315
-4259
-4159
-4068
-4055
-4099
-4088
-3950
-3729
-3540
-3479
-3582
-3828
-4134
-4394
-4547
-4622
-4681
-4705
-4602
-4336
-4020
-3823
-3787
-3807
-3772
-3697
-3682
-3764
-3862
-3863
-3741
-3569
-3412
-3265
-3066
-2778
-2455
-2216
-2129
-2125
-2030
-1719
-1255
-830
-592
-493
-343
-4
473
891
1081
1016
806
606
520
557
656
759
881
1083
1400
1769
2059
2180
2140
1994
1782
1516
1248
1093
1146
1401
1744
2036
2226
2353
2482
2611
2668
2563
2311
2052
1931
1950
1951
1793
1500
1221
1039
880
648
391
302
523
1017
1619
2177
2633
2999
3287
3472
3490
3281
2859
2361
1972
1789
1778
1838
1913
2007
2114
2205
2271
2334
2386
2368
2229
2019
1882
1914
2088
2308
2510
2689
2851
2977
3045
3065
3054
3005
2894
2737
2588
2483
2422
2387
2378
2417
2514
2637
2719
2717
2652
2600
2628
2706
2725
2617
2459
2421
2599
2887
3059
2992
2765
2547
2414
2292
2063
1704
1321
1051
961
998
1048
1048
1049
1170
1435
1710
1804
1651
1395
1239
1259
1359
1420
1438
1501
1678
1960
2295
2627
2903
3066
3080
2973
2820
2684
2573
2466
2377
2361
2446
2595
2754
2935
3190
3524
3837
3992
3964
3875
3861
3926
3961
3879
3723
3610
3610
3694
3791
3838
3807
3693
3533
3381
3276
3214
3175
3156
3185
3289
3439
3541
3517
3372
3205
3123
3125
3083
2890
2620
2506
2707
3107
3383
3335
3081
2906
2934
2992
2843
2487
2170
2111
2267
2431
2479
2462
2452
2376
2074
1510
860
361
124
93
174
330
571
873
1138
1250
1153
890
571
304
119
-35
-203
-326
-280
-13
351
574
499
171
-218
-526
-749
-957
-1187
-1408
-1601
-1786
-1979
-2159
-2296
-2403
-2539
-2718
-2856
-2836
-2629
-2350
-2163
-2157
-2334
-2653
-3064
-3482
-3796
-3919
-3867
-3742
-3609
-3418
-3093
-2680
-2377
-2384
-2702
-3120
-3428
-3607
-3793
-4061
-4287
-4268
-3969
-3596
-3369
-3297
-3184
-2897
-2578
-2493
-2743
-3136
-3386
-3398
-3324
-3351
-3491
-3592
-3554
-3428
-3334
-3312
-3308
-3305
-3368
-3574
-3904
-4241
-4484
-4623
-4681
-4654
-4520
-4297
-4040
-3770
-3448
-3048
-2632
-2339
-2258
-2317
-2323
-2132
-1797
-1521
-1445
-1500
-1496
-1353
-1199
-1207
-1391
-1596
-1699
-1740
-1833
-1977
-2041
-1915
-1614
-1209
-730
-192
290
533
430
51
-441
-931
-1393
-1834
-2233
-2545
-2710
-2679
-2429
-2026
-1603
-1258
-995
-785
-649
-630
-682
-672
-568
-545
-815
-1323
-1705
-1628
-1146
-660
-465
-439
-210
411
1208
1789
1973
1909
1824
1769
1619
1296
916
695
738
942
1114
1167
1190
1315
1574
1860
2018
1977
1782
1531
1322
1217
1204
1199
1106
917
766
824
1120
1479
1686
1675
1543
1410
1268
1041
733
458
341
429
677
1014
1358
1622
1746
1751
1721
1713
1692
1589
1434
1346
1424
1619
1766
1755
1629
1507
1416
1275
1030
752
561
494
476
448
449
531
645
652
487
276
233
446
824
1202
1496
1745
2001
2215
2227
1868
1149
326
-229
-295
27
423
682
866
1174
1685
2238
2588
2606
2342
1929
1499
1163
1000
1005
1079
1119
1106
1121
1234
1415
1552
1545
1380
1138
928
831
862
959
1010
932
730
497
331
270
285
325
365
393
387
325
223
124
62
25
-14
-59
-87
-92
-96
-116
-129
-104
-56
-47
-111
-215
-306
-372
-447
-546
-665
-811
-1030
-1330
-1618
-1745
-1644
-1364
-1022
-712
-496
-417
-475
-602
-699
-749
-836
-1044
-1319
-1488
-1375
-919
-200
571
1138
1314
1122
752
371
-70
-746
-1736
-2919
-4111
-5216
-6134
-6636
-6468
-5641
-4511
-3469
-2568
-1541
-246
1011
1685
1464
535
-642
-1729
-2688
-3601
-4391
-4780
-4550
-3819
-3005
-2484
-2268
-2069
-1667
-1217
-1076
-1391
-1908
-2247
-2293
-2269
-2426
-2746
-3006
-3055
-2977
-2942
-2965
-2868
-2482
-1841
-1162
-684
-484
-477
-551
-641
-749
-870
-943
-881
-626
-199
304
771
1138
1407
1614
1749
1750
1580
1311
1090
1018
1073
1145
1141
1066
990
966
990
1025
1049
1072
1104
1145
1202
1283
1398
1546
1720
1919
2139
2363
2565
2729
2867
3010
3173
3350
3524
3680
3809
3899
3954
3996
4059
4155
4261
4336
4373
4414
4509
4653
4785
4859
4890
4931
5007
5098
5174
5227
5247
5220
5156
5105
5107
5139
5127
5025
4862
4679
4465
4214
3990
3906
3991
4147
4262
4344
4489
4716
4911
4962
4915
4935
5113
5363
5537
5597
5648
5780
5947
6006
5862
5550
5190
4873
4617
4399
4217
4096
4060
4098
4173
4248
4300
4305
4247
4129
3971
3802
3642
3515
3453
3472
3533
3559
3494
3363
3238
3175
3164
3164
3144
3098
3024
2921
2803
2691
2592
2480
2339
2185
2056
1961
1875
1768
1648
1544
1458
1368
1272
1202
1173
1142
1046
878
707
611
593
594
568
524
503
528
588
660
713
715
652
544
439
375
353
346
345
356
389
438
498
567
640
694
711
696
679
684
711
753
814
906
1024
1134
1207
1245
1269
1287
1296
1300
1332
1421
1562
1714
1851
1984
2129
2270
2363
2380
2341
2294
2267
2251
2235
2235
2275
2357
2443
2499
2522
2532
2543
2541
2504
2435
2360
2306
2287
2298
2325
2356
2379
2384
2368
2337
2304
2281
2273
2272
2264
2241
2208
2181
2158
2123
2057
1975
1911
1888
1897
1899
1875
1846
1850
1896
1937
1929
1891
1902
2016
2206
2399
2560
2720
2908
3083
3169
3130
3008
2849
2657
2422
2178
2001
1932
1940
1964
1990
2048
2152
2270
2348
2376
2383
2400
2431
2466
2522
2633
2795
2961
3078
3150
3232
3358
3483
3541
3525
3510
3558
3640
3668
3613
3545
3537
3573
3575
3521
3475
3507
3604
3691
3712
3683
3642
3618
3619
3644
3669
3666
3636
3615
3614
3581
3458
3274
3145
3140
3191
3176
3075
3004
3062
3198
3273
3239
3209
3318
3573
3847
4021
4092
4138
4206
4262
4232
4066
3790
3478
3219
3053
2969
2924
2895
2892
2936
3018
3100
3129
3078
2952
2779
2596
2433
2308
2222
2158
2093
2011
1923
1850
1789
1714
1601
1470
1373
1345
1361
1348
1254
1107
985
930
922
898
828
729
638
570
518
476
442
408
359
286
221
199
231
274
268
198
111
70
89
132
158
176
225
319
419
482
514
558
634
688
650
519
380
319
335
349
308
242
217
244
266
228
153
116
161
263
362
427
490
592
743
902
1006
1014
938
841
789
799
834
842
821
825
893
997
1070
1075
1047
1035
1051
1066
1066
1064
1072
1090
1115
1139
1126
1031
852
675
606
677
818
951
1086
1295
1596
1915
2138
2224
2215
2163
2083
1948
1745
1511
1305
1167
1092
1050
1028
1029
1036
1010
925
817
750
732
700
596
451
357
374
471
573
622
603
537
478
492
586
661
604
431
285
299
443
571
601
585
617
712
798
832
841
863
896
904
883
871
903
979
1072
1163
1247
1320
1394
1488
1614
1756
1862
1882
1829
1768
1762
1808
1841
1817
1777
1812
1971
2204
2408
2525
2584
2645
2722
2775
2759
2673
2556
2433
2304
2168
2060
2007
1977
1900
1756
1607
1517
1436
1253
948
664
565
648
760
791
800
904
1085
1196
1155
1060
1074
1223
1377
1429
1408
1412
1460
1470
1380
1204
990
745
455
164
-32
-81
-50
-41
-79
-88
7
174
291
265
123
-29
-104
-102
-66
-24
31
107
187
246
268
258
232
210
200
181
100
-81
-333
-562
-673
-644
-515
-324
-60
298
716
1114
1431
1659
1800
1811
1645
1342
1039
865
833
851
851
857
938
1101
1277
1401
1471
1514
1533
1507
1443
1399
1429
1515
1577
1558
1472
1384
1324
1269
1196
1126
1105
1144
1204
1248
1286
1366
1499
1631
1697
1699
1710
1793
1922
2024
2071
2116
2198
2242
2092
1692
1199
888
925
1238
1624
1959
2290
2718
3249
3766
4128
4270
4218
4045
3827
3633
3514
3491
3554
3682
3850
4029
4187
4298
4360
4375
4338
4242
4104
3973
3904
3918
3995
4090
4149
4129
4024
3873
3746
3691
3694
3705
3691
3662
3635
3597
3521
3425
3374
3401
3443
3394
3222
3022
2904
2867
2798
2614
2382
2263
2346
2554
2734
2802
2798
2814
2866
2885
2784
2548
2258
2029
1932
1959
2047
2136
2219
2330
2472
2594
2611
2479
2241
1982
1760
1573
1393
1220
1089
1028
1025
1038
1032
999
944
867
768
664
587
550
536
514
468
416
373
334
276
194
103
27
-24
-54
-76
-103
-143
-192
-262
-374
-528
-682
-792
-875
-996
-1190
-1404
-1560
-1668
-1821
-2058
-2279
-2344
-2233
-2077
-2006
-2034
-2117
-2253
-2466
-2669
-2664
-2315
-1705
-1068
-546
-78
467
1083
1572
1716
1453
907
281
-265
-659
-902
-1031
-1081
-1057
-954
-783
-586
-429
-382
-484
-730
-1060
-1371
-1562
-1584
-1470
-1323
-1249
-1301
-1453
-1631
-1745
-1741
-1627
-1471
-1351
-1284
-1230
-1147
-1057
-1037
-1136
-1315
-1487
-1576
-1562
-1462
-1315
-1177
-1095
-1076
-1075
-1040
-975
-942
-995
-1119
-1238
-1280
-1238
-1161
-1109
-1119
-1179
-1255
-1326
-1414
-1556
-1747
-1905
-1928
-1802
-1629
-1525
-1507
-1501
-1462
-1446
-1540
-1754
-1998
-2188
-2329
-2480
-2651
-2775
-2780
-2666
-2487
-2295
-2097
-1872
-1606
-1309
-1021
-797
-673
-636
-631
-612
-590
-607
-678
-761
-798
-774
-720
-678
-665
-671
-681
-686
-672
-625
-557
-495
-462
-456
-450
-420
-369
-341
-370
-443
-509
-523
-482
-410
-339
-305
-333
-405
-450
-402
-299
-291
-488
-804
-1007
-941
-692
-488
-460
-519
-486
-296
-62
53
-23
-231
-468
-657
-783
-869
-941
-999
-1023
-999
-937
-871
-831
-799
-767
-772
-875
-1083
-1305
-1419
-1393
-1322
-1328
-1416
-1455
-1333
-1112
-990
-1105
-1394
-1668
-1811
-1878
-1985
-2144
-2256
-2221
-2039
-1783
-1514
-1260
-1054
-934
-906
-935
-982
-1047
-1152
-1293
-1398
-1399
-1290
-1154
-1091
-1122
-1166
-1140
-1061
-1033
-1125
-1278
-1355
-1302
-1208
-1191
-1251
-1295
-1299
-1347
-1488
-1632
-1652
-1568
-1536
-1646
-1801
-1880
-1950
-2182
-2577
-2879
-2831
-2487
-2150
-2004
-1925
-1699
-1321
-981
-797
-667
-430
-91
207
404
601
917
1295
1549
1569
1431
1269
1134
997
858
776
782
839
911
1026
1231
1480
1642
1641
1550
1509
1548
1574
1519
1453
1501
1667
1812
1814
1701
1589
1540
1528
1518
1530
1593
1665
1675
1612
1547
1548
1591
1591
1511
1400
1335
1348
1405
1452
1460
1429
1390
1368
1378
1396
1378
1311
1217
1144
1131
1158
1181
1169
1126
1100
1123
1163
1153
1061
929
842
821
799
704
551
443
447
509
514
414
275
202
215
232
169
21
-149
-290
-403
-495
-560
-591
-620
-705
-855
-1008
-1097
-1109
-1092
-1087
-1081
-1053
-1023
-1021
-1028
-987
-863
-706
-610
-624
-699
-733
-673
-553
-453
-436
-504
-594
-614
-498
-284
-134
-225
-564
-943
-1106
-1024
-944
-1138
-1569
-1884
-1758
-1233
-665
-355
-292
-268
-168
-94
-208
-535
-941
-1270
-1420
-1344
-1042
-589
-134
192
387
540
706
821
772
533
225
27
25
152
257
240
138
85
159
300
359
260
78
-37
-15
75
120
91
47
24
-31
-188
-432
-653
-751
-739
-723
-783
-899
-998
-1042
-1058
-1081
-1094
-1062
-991
-943
-970
-1056
-1135
-1188
-1264
-1426
-1653
-1855
-1954
-1951
-1919
-1919
-1944
-1943
-1901
-1860
-1875
-1955
-2067
-2194
-2358
-2560
-2738
-2826
-2854
-2921
-3078
-3256
-3374
-3478
-3701
-4075
-4443
-4612
-4564
-4461
-4442
-4459
-4381
-4189
-4030
-4049
-4217
-4361
-4343
-4180
-4006
-3913
-3859
-3726
-3473
-3198
-3073
-3199
-3509
-3834
-4047
-4148
-4219
-4305
-4370
-4344
-4216
-4043
-3897
-3808
-3774
-3798
-3896
-4041
-4152
-4154
-4061
-3963
-3939
-3968
-3980
-3958
-3962
-4042
-4169
-4257
-4265
-4208
-4125
-4045
-3987
-3966
-3974
-3974
-3934
-3880
-3883
-3991
-4182
-4381
-4515
-4555
-4523
-4453
-4361
-4234
-4067
-3889
-3752
-3675
-3628
-3583
-3582
-3694
-3919
-4147
-4242
-4169
-4020
-3918
-3906
-3932
-3932
-3893
-3862
-3897
-4020
-4203
-4394
-4553
-4678
-4782
-4867
-4918
-4935
-4931
-4916
-4879
-4807
-4716
-4644
-4608
-4591
-4575
-4580
-4634
-4721
-4786
-4792
-4756
-4720
-4700
-4668
-4594
-4492
-4404
-4357
-4345
-4352
-4361
-4377
-4406
-4457
-4523
-4579
-4588
-4525
-4400
-4246
-4091
-3948
-3821
-3712
-3625
-3565
-3549
-3593
-3693
-3803
-3860
-3847
-3806
-3794
-3820
-3838
-3804
-3734
-3684
-3697
-3763
-3846
-3903
-3919
-3895
-3849
-3794
-3744
-3712
-3712
-3758
-3845
-3950
-4042
-4102
-4127
-4129
-4114
-4084
-4043
-3995
-3949
-3911
-3896
-3914
-3973
-4067
-4183
-4299
-4386
-4428
-4427
-4410
-4410
-4427
-4430
-4384
-4307
-4267
-4308
-4395
-4445
-4433
-4443
-4588
-4867
-5153
-5338
-5479
-5734
-6152
-6548
-6630
-6252
-5535
-4728
-3978
-3261
-2486
-1640
-812
-133
299
470
446
335
206
11
-385
-1058
-1934
-2839
-3680
-4541
-5539
-6618
-7503
-7912
-7774
-7239
-6493
-5638
-4747
-3938
-3319
-2872
-2515
-2264
-2268
-2613
-3127
-3467
-3438
-3166
-2931
-2872
-2874
-2721
-2305
-1706
-1147
-861
-958
-1359
-1871
-2379
-2969
-3779
-4773
-5660
-6112
-6037
-5613
-5103
-4643
-4239
-3865
-3529
-3259
-3096
-3087
-3256
-3531
-3732
-3680
-3332
-2835
-2416
-2225
-2250
-2386
-2545
-2728
-2985
-3325
-3678
-3924
-3979
-3868
-3711
-3642
-3716
-3872
-4006
-4079
-4141
-4253
-4391
-4465
-4436
-4378
-4396
-4501
-4587
-4574
-4507
-4489
-4537
-4537
-4401
-4197
-4088
-4176
-4404
-4630
-4764
-4810
-4813
-4821
-4869
-4957
-5036
-5046
-5008
-5040
-5219
-5446
-5516
-5342
-5085
-4997
-5134
-5284
-5188
-4816
-4380
-4103
-4015
-3979
-3864
-3662
-3453
-3314
-3278
-3349
-3516
-3726
-3893
-3979
-4039
-4162
-4349
-4475
-4414
-4177
-3896
-3675
-3502
-3327
-3186
-3175
-3293
-3388
-3299
-3034
-2770
-2656
-2668
-2662
-2549
-2371
-2223
-2152
-2120
-2066
-1951
-1790
-1664
-1668
-1830
-2041
-2113
-1936
-1569
-1170
-844
-562
-244
121
449
659
746
745
654
429
90
-233
-393
-350
-185
2
189
431
790
1291
1896
2454
2703
2434
1712
895
330
0
-448
-1278
-2304
-2997
-2960
-2279
-1418
-801
-510
-301
110
756
1356
1542
1214
681
422
636
1067
1308
1226
1031
918
769
294
-569
-1530
-2235
-2616
-2900
-3256
-3546
-3449
-2815
-1870
-1054
-652
-611
-681
-722
-815
-1114
-1611
-2124
-2516
-2813
-3073
-3214
-3098
-2802
-2665
-2942
-3476
-3827
-3743
-3411
-3205
-3241
-3315
-3224
-3005
-2832
-2777
-2763
-2730
-2730
-2832
-3023
-3217
-3340
-3352
-3229
-3012
-2892
-3117
-3743
-4478
-4865
-4649
-3985
-3272
-2777
-2442
-2029
-1412
-758
-416
-634
-1347
-2213
-2856
-3115
-3089
-2960
-2834
-2690
-2501
-2322
-2248
-2311
-2467
-2670
-2931
-3262
-3602
-3852
-3951
-3938
-3883
-3802
-3687
-3602
-3686
-4007
-4447
-4774
-4843
-4698
-4467
-4206
-3886
-3515
-3192
-3006
-2924
-2842
-2725
-2672
-2797
-3079
-3371
-3536
-3564
-3535
-3515
-3508
-3485
-3424
-3327
-3234
-3209
-3308
-3519
-3762
-3936
-4006
-4022
-4053
-4097
-4080
-3953
-3771
-3656
-3672
-3753
-3782
-3738
-3735
-3875
-4094
-4187
-4017
-3673
-3374
-3224
-3098
-2801
-2303
-1809
-1554
-1578
-1719
-1792
-1759
-1701
-1667
-1606
-1451
-1245
-1112
-1101
-1095
-914
-519
-75
217
331
437
688
1048
1328
1389
1263
1085
946
844
750
685
698
800
946
1078
1183
1292
1432
1581
1676
1659
1530
1353
1213
1146
1129
1133
1158
1231
1358
1505
1627
1711
1779
1851
1918
1946
1909
1824
1753
1777
1942
2228
2555
2848
3086
3281
3428
3501
3483
3395
3274
3129
2960
2789
2667
2634
2665
2668
2558
2327
2069
1927
1981
2203
2489
2743
2946
3122
3267
3339
3303
3182
3043
2939
2876
2852
2889
3036
3309
3650
3931
4037
3971
3863
3837
3864
3789
3510
3142
2923
2954
3066
3009
2738
2470
2423
2576
2726
2737
2669
2650
2727
2835
2894
2849
2662
2318
1880
1467
1131
819
466
122
-71
-47
102
240
324
408
522
625
691
779
977
1290
1631
1924
2178
2455
2766
3026
3122
3004
2727
2421
2197
2067
1950
1759
1519
1364
1405
1630
1930
2212
2460
2685
2833
2804
2565
2212
1910
1754
1700
1651
1568
1497
1500
1599
1771
1987
2206
2359
2381
2278
2136
2033
1962
1860
1705
1543
1416
1297
1140
950
784
666
572
518
616
972
1536
2095
2450
2583
2614
2625
2590
2465
2274
2073
1867
1631
1402
1284
1311
1362
1255
957
651
553
694
889
941
835
721
735
865
995
1028
953
806
617
416
268
246
356
529
682
786
864
923
949
968
1058
1271
1550
1762
1843
1878
2006
2255
2504
2595
2486
2274
2086
1979
1926
1858
1726
1526
1310
1153
1094
1094
1058
912
668
409
225
147
139
140
122
111
146
219
264
213
72
-69
-116
-65
6
32
34
100
291
576
875
1122
1303
1442
1563
1667
1751
1823
1883
1901
1835
1687
1516
1402
1356
1318
1228
1123
1098
1204
1388
1561
1679
1755
1784
1723
1542
1285
1025
814
676
653
796
1081
1391
1616
1764
1931
2146
2302
2271
2055
1797
1633
1567
1526
1473
1431
1421
1420
1405
1404
1451
1509
1492
1377
1256
1242
1313
1337
1253
1167
1225
1414
1549
1477
1244
1032
938
879
722
454
213
108
89
-8
-276
-622
-848
-849
-727
-678
-793
-976
-1084
-1096
-1125
-1222
-1243
-971
-356
397
1031
1498
1935
2429
2852
2993
2820
2516
2252
1980
1547
977
545
533
914
1365
1606
1664
1789
2120
2499
2635
2396
1940
1543
1372
1407
1522
1608
1615
1537
1385
1200
1029
896
776
630
449
269
144
103
145
267
454
645
741
686
524
373
323
353
392
410
459
602
825
1009
1052
958
822
714
619
491
348
275
324
420
428
313
185
177
289
381
326
144
-26
-69
7
103
119
35
-89
-183
-225
-242
-278
-345
-425
-487
-488
-402
-262
-176
-236
-414
-549
-492
-288
-132
-150
-265
-299
-204
-103
-104
-155
-122
29
183
232
207
225
332
462
526
509
455
409
388
397
411
376
263
116
33
55
109
90
-2
-73
-59
4
31
-1
-34
-30
-14
-38
-101
-165
-211
-264
-343
-427
-487
-520
-542
-567
-594
-630
-675
-714
-712
-660
-594
-562
-571
-585
-568
-533
-529
-583
-651
-652
-573
-500
-531
-655
-742
-685
-523
-416
-466
-612
-703
-673
-581
-515
-484
-434
-345
-262
-242
-295
-403
-533
-653
-712
-662
-529
-382
-246
-62
224
531
680
576
341
195
226
343
473
735
1331
2265
3263
4011
4429
4626
4622
4234
3305
1969
596
-523
-1365
-2032
-2536
-2791
-2780
-2611
-2373
-2035
-1521
-883
-296
120
398
637
853
974
969
926
969
1114
1294
1457
1636
1897
2258
2668
3057
3360
3527
3537
3439
3332
3296
3318
3310
3222
3117
3113
3247
3405
3420
3219
2876
2530
2272
2111
2042
2065
2147
2199
2140
1986
1848
1821
1874
1893
1809
1660
1532
1456
1384
1257
1075
889
756
695
698
735
768
762
705
626
560
511
469
421
353
258
145
60
61
147
239
243
158
85
110
202
247
199
136
161
252
278
150
-71
-239
-289
-296
-376
-558
-767
-894
-892
-804
-714
-698
-760
-838
-870
-849
-835
-881
-977
-1066
-1108
-1116
-1125
-1152
-1179
-1187
-1180
-1179
-1200
-1255
-1334
-1405
-1438
-1439
-1455
-1526
-1636
-1719
-1734
-1704
-1685
-1693
-1697
-1675
-1650
-1660
-1703
-1740
-1740
-1721
-1723
-1755
-1789
-1802
-1802
-1809
-1825
-1836
-1836
-1848
-1895
-1971
-2042
-2073
-2065
-2038
-1998
-1937
-1845
-1734
-1626
-1526
-1424
-1318
-1236
-1210
-1237
-1270
-1262
-1210
-1151
-1116
-1096
-1069
-1025
-974
-917
-847
-761
-683
-631
-597
-544
-458
-364
-296
-258
-223
-177
-137
-123
-118
-82
-3
84
134
151
179
252
350
431
478
513
562
626
693
757
820
875
915
944
978
1022
1059
1075
1082
1105
1150
1187
1193
1185
1203
1262
1324
1326
1248
1135
1061
1045
1022
918
742
594
542
521
396
150
-60
-57
136
309
316
259
355
653
951
1033
939
923
1163
1580
1944
2127
2197
2287
2434
2566
2598
2512
2352
2172
2012
1907
1870
1891
1936
1974
2005
2051
2122
2185
2185
2117
2046
2063
2195
2383
2550
2672
2777
2875
2909
2811
2588
2336
2171
2142
2208
2293
2364
2445
2572
2746
2919
3033
3069
3058
3041
3025
2993
2940
2882
2839
2815
2814
2847
2922
3025
3126
3199
3242
3266
3272
3267
3268
3286
3299
3271
3203
3142
3142
3207
3305
3413
3535
3668
3769
3787
3727
3657
3625
3612
3561
3451
3336
3289
3328
3399
3432
3406
3360
3334
3332
3326
3301
3283
3311
3383
3459
3506
3525
3540
3555
3548
3496
3404
3308
3244
3233
3277
3355
3444
3531
3615
3699
3761
3754
3658
3513
3384
3302
3246
3173
3078
3002
2980
3000
3019
3015
3003
3013
3044
3069
3073
3082
3142
3267
3408
3492
3482
3412
3343
3302
3266
3191
3060
2894
2747
2662
2644
2669
2696
2711
2729
2773
2840
2902
2927
2907
2862
2823
2801
2796
2795
2790
2780
2773
2777
2791
2799
2788
2764
2749
2758
2786
2807
2798
2771
2759
2780
2813
2821
2796
2770
2782
2832
2883
2907
2920
2952
3003
3045
3059
3058
3069
3095
3114
3109
3085
3058
3032
2998
2943
2867
2782
2704
2628
2532
2413
2302
2223
2164
2088
1995
1908
1830
1730
1602
1515
1525
1551
1417
1031
503
7
-431
-925
-1484
-1883
-1855
-1399
-787
-230
388
1354
2734
4195
5268
5731
5691
5361
4848
4156
3311
2401
1517
737
161
-113
-72
147
353
458
498
499
364
-41
-683
-1340
-1781
-1958
-1994
-1975
-1825
-1426
-809
-185
246
475
639
804
859
652
244
-89
-141
-46
-173
-742
-1592
-2365
-2876
-3240
-3645
-4109
-4525
-4846
-5114
-5286
-5191
-4716
-4030
-3517
-3446
-3735
-4049
-4140
-4046
-3980
-4072
-4254
-4343
-4236
-3990
-3767
-3688
-3749
-3861
-3955
-4041
-4163
-4317
-4434
-4457
-4412
-4381
-4406
-4449
-4448
-4409
-4399
-4469
-4595
-4711
-4779
-4810
-4811
-4758
-4626
-4445
-4296
-4255
-4334
-4466
-4559
-4549
-4440
-4301
-4211
-4187
-4174
-4110
-3992
-3881
-3831
-3829
-3809
-3726
-3592
-3449
-3326
-3230
-3158
-3118
-3112
-3123
-3127
-3133
-3178
-3286
-3430
-3542
-3576
-3544
-3483
-3408
-3293
-3119
-2910
-2713
-2562
-2451
-2371
-2342
-2379
-2458
-2521
-2530
-2508
-2504
-2528
-2524
-2430
-2257
-2079
-1959
-1906
-1877
-1840
-1797
-1753
-1695
-1604
-1490
-1392
-1332
-1292
-1239
-1164
-1102
-1085
-1100
-1098
-1039
-918
-772
-648
-569
-522
-483
-430
-367
-315
-292
-295
-303
-304
-297
-276
-217
-83
150
450
730
906
970
1013
1141
1354
1515
1484
1299
1177
1324
1735
2194
2508
2677
2845
3101
3377
3530
3486
3256
2869
2364
1875
1605
1663
1928
2146
2180
2139
2200
2354
2394
2166
1774
1482
1434
1553
1685
1803
1994
2287
2567
2698
2692
2701
2854
3106
3305
3370
3377
3475
3703
3945
4035
3910
3645
3343
3039
2721
2427
2302
2501
3044
3776
4486
5061
5516
5874
6052
5905
5383
4624
3876
3298
2882
2548
2297
2231
2418
2791
3178
3439
3556
3603
3639
3651
3588
3424
3206
3044
3048
3252
3571
3844
3945
3867
3713
3596
3534
3459
3309
3117
2988
2994
3100
3189
3179
3101
3062
3117
3204
3213
3102
2944
2842
2829
2848
2835
2783
2717
2644
2539
2394
2251
2167
2156
2171
2163
2141
2169
2287
2462
2619
2706
2719
2684
2610
2499
2375
2282
2245
2233
2202
2149
2109
2113
2142
2151
2122
2074
2031
1983
1912
1820
1739
1686
1655
1632
1630
1674
1784
1949
2152
2377
2612
2835
3008
3097
3093
3029
2960
2913
2871
2784
2640
2490
2422
2474
2607
2730
2788
2799
2805
2812
2781
2683
2539
2403
2297
2196
2089
2021
2076
2270
2515
2686
2744
2758
2799
2831
2747
2505
2223
2087
2177
2399
2602
2729
2835
2966
3056
2982
2709
2340
2027
1843
1755
1706
1694
1767
1966
2267
2577
2785
2831
2758
2673
2645
2644
2574
2404
2228
2176
2274
2430
2529
2536
2503
2488
2512
2565
2613
2606
2525
2410
2350
2388
2453
2432
2285
2077
1885
1730
1594
1505
1510
1621
1787
1950
2079
2148
2127
2012
1847
1668
1423
1041
578
241
188
349
495
500
491
686
1124
1592
1822
1744
1537
1434
1516
1651
1644
1441
1157
919
727
508
273
164
285
551
777
918
1122
1511
1960
2196
2093
1811
1602
1562
1594
1600
1577
1577
1600
1603
1583
1591
1649
1694
1635
1446
1177
886
618
406
286
261
278
291
308
369
465
519
491
458
545
775
1012
1098
1034
964
987
1045
993
773
463
187
10
-75
-85
-35
47
132
206
272
317
295
162
-86
-390
-660
-825
-875
-856
-823
-766
-614
-323
20
237
212
9
-196
-283
-297
-359
-513
-677
-726
-622
-426
-235
-99
-9
48
67
53
26
2
-45
-170
-371
-571
-699
-789
-940
-1144
-1234
-1033
-579
-130
112
235
489
926
1254
1097
387
-531
-1189
-1365
-1157
-787
-376
96
691
1414
2172
2809
3154
3106
2717
2182
1704
1383
1198
1087
1024
1008
1026
1041
1040
1040
1042
1009
909
780
723
805
995
1206
1396
1583
1761
1855
1800
1621
1426
1283
1156
979
764
591
504
467
441
463
605
861
1121
1288
1360
1404
1460
1505
1508
1486
1469
1454
1412
1344
1298
1310
1357
1383
1369
1344
1352
1415
1507
1589
1633
1629
1583
1506
1410
1306
1212
1123
1021
901
800
758
762
745
666
571
516
459
285
-36
-349
-452
-319
-129
-64
-105
-89
87
360
607
782
930
1094
1269
1429
1566
1680
1770
1830
1853
1811
1668
1445
1236
1139
1144
1142
1052
918
857
905
975
961
849
701
565
432
291
182
169
252
348
374
327
296
343
422
433
330
173
74
79
126
128
56
-44
-96
-79
-46
-85
-247
-510
-790
-1014
-1162
-1263
-1356
-1438
-1483
-1486
-1480
-1516
-1638
-1855
-2149
-2503
-2911
-3367
-3812
-4120
-4148
-3842
-3298
-2693
-2146
-1654
-1155
-661
-285
-129
-187
-358
-565
-817
-1168
-1633
-2151
-2640
-3061
-3421
-3734
-4004
-4234
-4434
-4623
-4819
-5025
-5232
-5416
-5527
-5523
-5416
-5269
-5133
-4997
-4809
-4571
-4384
-4389
-4630
-4994
-5312
-5494
-5582
-5674
-5777
-5775
-5519
-4981
-4296
-3684
-3292
-3112
-3044
-3006
-2987
-3010
-3075
-3142
-3177
-3176
-3154
-3112
-3052
-2997
-2979
-3010
-3065
-3108
-3133
-3154
-3174
-3178
-3151
-3101
-3038
-2968
-2902
-2863
-2868
-2905
-2938
-2946
-2955
-3000
-3074
-3136
-3162
-3171
-3183
-3180
-3131
-3041
-2956
-2896
-2829
-2714
-2568
-2449
-2385
-2346
-2295
-2249
-2248
-2289
-2317
-2301
-2275
-2298
-2373
-2442
-2463
-2462
-2497
-2589
-2695
-2768
-2802
-2824
-2862
-2913
-2956
-2976
-2983
-3010
-3074
-3167
-3268
-3372
-3519
-3717
-3893
-3930
-3803
-3640
-3620
-3787
-4000
-4092
-4053
-4061
-4297
-4761
-5260
-5604
-5773
-5898
-6093
-6339
-6530
-6635
-6742
-6937
-7156
-7247
-7154
-6997
-6922
-6914
-6828
-6596
-6335
-6202
-6188
-6132
-5930
-5658
-5465
-5393
-5350
-5244
-5099
-5019
-5082
-5298
-5615
-5944
-6185
-6286
-6282
-6261
-6262
-6243
-6138
-5954
-5767
-5655
-5645
-5708
-5801
-5883
-5922
-5911
-5870
-5827
-5789
-5747
-5703
-5689
-5734
-5822
-5891
-5887
-5806
-5704
-5641
-5631
-5636
-5608
-5540
-5473
-5458
-5497
-5546
-5557
-5528
-5491
-5471
-5470
-5471
-5466
-5443
-5393
-5326
-5274
-5258
-5256
-5220
-5142
-5065
-5033
-5028
-4987
-4895
-4809
-4789
-4816
-4821
-4771
-4715
-4720
-4778
-4820
-4802
-4751
-4725
-4734
-4739
-4712
-4677
-4670
-4697
-4719
-4715
-4702
-4704
-4715
-4714
-4709
-4738
-4810
-4872
-4868
-4814
-4789
-4842
-4931
-4967
-4933
-4896
-4924
-4997
-5049
-5052
-5049
-5082
-5134
-5156
-5139
-5125
-5141
-5165
-5148
-5088
-5034
-5028
-5058
-5078
-5062
-5025
-5003
-5005
-5017
-5019
-5003
-4979
-4963
-4958
-4954
-4932
-4884
-4824
-4780
-4757
-4728
-4664
-4570
-4496
-4487
-4539
-4605
-4651
-4696
-4777
-4894
-4997
-5049
-5058
-5056
-5034
-4936
-4736
-4500
-4337
-4289
-4295
-4258
-4144
-4008
-3925
-3922
-3963
-3998
-3986
-3927
-3850
-3803
-3805
-3816
-3764
-3610
-3388
-3159
-2950
-2745
-2530
-2330
-2179
-2085
-2030
-2010
-2039
-2118
-2212
-2279
-2307
-2310
-2298
-2265
-2212
-2159
-2119
-2073
-1992
-1879
-1774
-1694
-1596
-1435
-1232
-1081
-1048
-1096
-1143
-1155
-1165
-1217
-1297
-1360
-1372
-1346
-1317
-1348
-1498
-1757
-2015
-2140
-2112
-2048
-2065
-2123
-2077
-1861
-1591
-1420
-1343
-1202
-885
-462
-106
107
250
421
621
749
716
513
210
-102
-353
-517
-607
-658
-677
-641
-527
-361
-207
-128
-151
-260
-421
-589
-722
-795
-807
-780
-747
-735
-761
-826
-912
-990
-1030
-1027
-1001
-975
-950
-915
-867
-833
-842
-887
-935
-959
-975
-1016
-1098
-1185
-1230
-1224
-1207
-1229
-1291
-1352
-1373
-1366
-1374
-1430
-1514
-1572
-1573
-1535
-1504
-1503
-1507
-1479
-1422
-1385
-1401
-1447
-1465
-1438
-1409
-1432
-1499
-1550
-1550
-1521
-1506
-1515
-1520
-1502
-1471
-1444
-1422
-1404
-1397
-1407
-1421
-1423
-1419
-1440
-1491
-1537
-1536
-1495
-1456
-1435
-1404
-1340
-1268
-1239
-1267
-1303
-1292
-1229
-1152
-1089
-1039
-993
-959
-953
-970
-987
-995
-1022
-1100
-1222
-1330
-1361
-1307
-1224
-1171
-1157
-1138
-1079
-996
-935
-923
-943
-979
-1048
-1168
-1292
-1323
-1203
-977
-766
-658
-632
-593
-490
-387
-402
-602
-961
-1416
-1936
-2510
-3048
-3353
-3258
-2778
-2125
-1532
-1050
-551
101
892
1632
2093
2162
1930
1643
1534
1626
1690
1449
867
199
-258
-428
-480
-598
-797
-967
-1044
-1073
-1123
-1216
-1369
-1619
-1974
-2354
-2620
-2676
-2523
-2226
-1825
-1345
-854
-457
-251
-258
-443
-766
-1187
-1642
-2033
-2284
-2395
-2442
-2498
-2571
-2636
-2699
-2809
-2977
-3166
-3328
-3459
-3585
-3702
-3778
-3827
-3923
-4098
-4275
-4334
-4282
-4265
-4373
-4490
-4403
-4072
-3723
-3603
-3687
-3711
-3481
-3099
-2842
-2847
-2975
-3003
-2873
-2734
-2750
-2919
-3097
-3174
-3163
-3138
-3123
-3092
-3034
-2992
-3012
-3079
-3146
-3187
-3200
-3176
-3089
-2944
-2787
-2635
-2430
-2116
-1765
-1566
-1632
-1854
-1986
-1905
-1710
-1581
-1569
-1556
-1432
-1227
-1053
-976
-966
-973
-983
-989
-954
-839
-661
-480
-330
-183
-1
195
332
371
362
390
494
633
743
809
865
957
1096
1245
1362
1431
1478
1504
1452
1240
880
543
464
742
1251
1751
2120
2458
2955
3667
4434
5000
5215
5142
4973
4874
4876
4893
4844
4728
4616
4575
4616
4704
4801
4881
4925
4920
4876
4833
4834
4879
4935
4963
4949
4870
4683
4354
3917
3492
3234
3246
3518
3929
4321
4607
4837
5136
5544
5906
5966
5607
4997
4475
4282
4384
4576
4729
4903
5230
5710
6174
6444
6477
6353
6122
5741
5188
4589
4178
4088
4227
4394
4509
4683
5050
5584
6095
6414
6517
6498
6452
6404
6316
6147
5901
5654
5513
5520
5602
5642
5621
5652
5844
6152
6412
6515
6521
6565
6708
6904
7078
7183
7199
7144
7097
7161
7363
7611
7779
7837
7848
7827
7695
7400
7060
6891
6984
7207
7359
7400
7495
7823
8367
8900
9156
9034
8661
8285
8076
8020
7966
7788
7489
7190
7019
7012
7090
7127
7044
6845
6592
6337
6094
5873
5722
5690
5751
5801
5776
5743
5820
6020
6216
6296
6299
6367
6553
6755
6844
6818
6785
6823
6906
6950
6915
6808
6655
6476
6311
6201
6158
6143
6114
6083
6096
6176
6275
6301
6206
6024
5840
5721
5673
5657
5638
5603
5558
5514
5473
5415
5319
5200
5112
5103
5158
5193
5131
4968
4753
4507
4200
3827
3481
3318
3415
3674
3893
3951
3909
3937
4104
4288
4279
3973
3464
2961
2631
2515
2559
2679
2781
2781
2658
2490
2388
2366
2292
2013
1540
1067
810
817
975
1132
1209
1181
1043
836
650
575
606
640
610
579
668
904
1165
1292
1232
1041
778
455
74
-301
-578
-729
-809
-865
-863
-718
-405
-18
272
334
166
-98
-280
-298
-236
-272
-478
-718
-752
-484
-78
190
215
145
202
427
646
679
528
353
281
281
241
131
45
72
174
232
185
120
148
266
356
335
272
303
458
614
638
545
481
544
679
756
720
644
618
645
656
615
567
585
671
756
785
779
793
830
831
746
613
507
470
475
476
452
413
364
302
225
128
0
-164
-335
-477
-576
-659
-720
-702
-559
-352
-220
-246
-358
-409
-350
-282
-334
-507
-664
-672
-538
-388
-340
-400
-471
-475
-434
-438
-531
-655
-725
-725
-725
-773
-834
-851
-840
-884
-1033
-1253
-1495
-1764
-2076
-2374
-2540
-2499
-2287
-1995
-1686
-1383
-1118
-922
-772
-607
-408
-240
-165
-147
-73
116
344
490
508
439
336
208
58
-75
-145
-166
-183
-204
-166
-15
222
439
545
539
476
395
307
231
212
279
388
448
413
322
255
241
245
226
192
182
223
311
422
517
539
451
292
175
180
256
258
104
-125
-271
-282
-253
-309
-463
-618
-693
-714
-756
-837
-903
-910
-876
-861
-879
-895
-892
-899
-961
-1065
-1143
-1165
-1187
-1253
-1313
-1271
-1127
-1009
-1033
-1162
-1247
-1229
-1201
-1271
-1392
-1419
-1323
-1231
-1252
-1310
-1236
-1007
-809
-820
-977
-1040
-895
-699
-652
-731
-687
-364
86
367
365
261
270
360
318
54
-285
-503
-578
-635
-724
-738
-581
-338
-187
-176
-184
-113
-34
-80
-250
-387
-379
-279
-199
-117
104
514
953
1204
1217
1125
1057
987
814
532
249
65
-47
-153
-221
-131
147
474
676
723
755
895
1098
1210
1167
1081
1129
1388
1769
2112
2326
2417
2440
2433
2413
2415
2475
2578
2619
2494
2220
1951
1833
1845
1810
1598
1265
995
896
914
937
923
912
939
1005
1128
1396
1862
2442
2941
3217
3295
3295
3281
3193
2951
2567
2142
1770
1503
1363
1373
1535
1814
2156
2507
2810
3006
3089
3136
3259
3522
3877
4199
4348
4205
3724
2988
2193
1505
912
271
-454
-1066
-1299
-1115
-755
-486
-344
-176
110
420
605
644
643
678
700
611
388
99
-178
-417
-643
-874
-1105
-1310
-1452
-1505
-1472
-1395
-1335
-1351
-1470
-1677
-1932
-2185
-2399
-2557
-2666
-2746
-2819
-2890
-2962
-3054
-3201
-3411
-3640
-3824
-3938
-4026
-4147
-4317
-4498
-4653
-4774
-4871
-4941
-4977
-4991
-5017
-5069
-5123
-5148
-5147
-5155
-5190
-5223
-5204
-5116
-4997
-4890
-4800
-4698
-4574
-4462
-4404
-4398
-4389
-4324
-4214
-4124
-4093
-4097
-4069
-3985
-3889
-3843
-3850
-3847
-3782
-3686
-3632
-3641
-3654
-3598
-3481
-3389
-3381
-3429
-3464
-3455
-3440
-3467
-3527
-3572
-3570
-3537
-3516
-3523
-3534
-3515
-3465
-3423
-3426
-3466
-3495
-3467
-3382
-3286
-3219
-3187
-3174
-3167
-3151
-3108
-3044
-2994
-3003
-3078
-3163
-3185
-3128
-3036
-2970
-2954
-2965
-2962
-2930
-2885
-2860
-2873
-2920
-2978
-3037
-3097
-3161
-3222
-3270
-3314
-3373
-3447
-3513
-3542
-3538
-3531
-3543
-3569
-3589
-3587
-3561
-3530
-3511
-3517
-3543
-3566
-3561
-3530
-3490
-3445
-3377
-3268
-3132
-3013
-2935
-2893
-2868
-2863
-2903
-3008
-3154
-3277
-3307
-3214
-3034
-2836
-2674
-2539
-2390
-2206
-2026
-1924
-1940
-2037
-2112
-2063
-1869
-1594
-1324
-1103
-922
-776
-709
-802
-1089
-1516
-1973
-2348
-2557
-2546
-2298
-1854
-1310
-757
-230
265
677
894
827
516
110
-260
-606
-1003
-1443
-1783
-1909
-1897
-1940
-2131
-2323
-2321
-2139
-2017
-2129
-2355
-2420
-2224
-1969
-1927
-2109
-2260
-2157
-1854
-1595
-1535
-1593
-1579
-1418
-1238
-1242
-1507
-1891
-2175
-2308
-2501
-3009
-3825
-4588
-4874
-4621
-4192
-3974
-3952
-3732
-2995
-1877
-863
-319
-190
-161
-24
165
240
135
-76
-281
-421
-480
-469
-424
-404
-426
-442
-399
-321
-279
-293
-309
-285
-269
-351
-553
-808
-1028
-1181
-1292
-1373
-1390
-1306
-1115
-843
-539
-254
-35
102
164
158
69
-124
-406
-718
-1007
-1253
-1452
-1587
-1620
-1537
-1373
-1190
-1031
-883
-709
-509
-331
-222
-177
-140
-76
2
77
183
371
622
828
906
902
941
1075
1215
1250
1185
1130
1161
1239
1278
1257
1235
1265
1347
1453
1574
1714
1858
1978
2072
2174
2316
2487
2649
2776
2871
2955
3050
3159
3268
3348
3382
3385
3399
3444
3504
3547
3555
3539
3515
3489
3464
3448
3448
3454
3452
3452
3475
3519
3543
3510
3436
3374
3353
3338
3278
3179
3099
3074
3068
3022
2924
2827
2779
2764
2730
2662
2591
2546
2518
2475
2419
2378
2368
2362
2321
2243
2164
2120
2102
2079
2028
1965
1923
1924
1960
2000
2011
1990
1960
1945
1950
1955
1940
1906
1871
1850
1840
1829
1813
1800
1792
1789
1786
1778
1759
1727
1695
1678
1688
1709
1711
1680
1614
1519
1407
1302
1221
1157
1071
949
829
757
716
640
506
384
368
460
565
626
693
834
1014
1128
1150
1200
1411
1754
2066
2235
2321
2458
2669
2846
2877
2755
2554
2338
2132
1965
1882
1895
1952
2005
2070
2209
2440
2677
2795
2751
2620
2514
2465
2403
2267
2086
1941
1865
1827
1813
1887
2093
2344
2474
2445
2437
2667
3113
3495
3569
3388
3198
3122
3029
2762
2397
2191
2293
2578
2818
2955
3143
3522
4014
4365
4387
4113
3736
3398
3081
2683
2186
1736
1541
1658
1939
2190
2359
2536
2757
2853
2575
1880
1045
471
366
609
939
1215
1496
1895
2407
2896
3198
3241
3055
2723
2325
1922
1559
1268
1074
982
975
1011
1048
1057
1024
932
768
548
343
228
218
255
273
247
190
103
-22
-168
-273
-284
-212
-128
-89
-94
-107
-119
-159
-252
-371
-458
-487
-488
-510
-565
-614
-624
-596
-575
-591
-632
-651
-630
-602
-623
-709
-820
-896
-930
-971
-1061
-1173
-1247
-1253
-1231
-1242
-1301
-1364
-1390
-1388
-1402
-1459
-1545
-1628
-1681
-1693
-1664
-1618
-1604
-1649
-1723
-1773
-1774
-1767
-1814
-1929
-2066
-2168
-2225
-2278
-2364
-2465
-2524
-2522
-2518
-2592
-2753
-2912
-2969
-2916
-2835
-2783
-2707
-2483
-2054
-1477
-851
-225
396
962
1349
1424
1162
670
110
-411
-880
-1333
-1758
-2031
-1972
-1480
-657
192
754
924
843
699
525
222
-271
-862
-1391
-1781
-2054
-2196
-2113
-1752
-1228
-745
-406
-132
198
580
911
1153
1402
1767
2238
2699
3069
3368
3655
3932
4131
4185
4084
3876
3635
3427
3305
3288
3352
3441
3514
3577
3659
3784
3929
4032
4043
3962
3831
3701
3620
3626
3727
3882
4003
4022
3957
3884
3852
3846
3822
3787
3795
3876
3989
4067
4085
4070
4064
4082
4116
4163
4217
4258
4256
4216
4187
4216
4284
4321
4282
4198
4141
4141
4159
4148
4129
4166
4279
4403
4450
4418
4390
4429
4484
4444
4266
4038
3896
3891
3944
3942
3840
3692
3577
3529
3523
3524
3513
3485
3449
3424
3443
3511
3568
3524
3366
3192
3120
3142
3129
2997
2825
2771
2875
3012
3060
3059
3133
3306
3453
3446
3306
3161
3079
3012
2876
2668
2450
2278
2160
2089
2064
2081
2116
2152
2181
2205
2232
2265
2308
2350
2372
2372
2381
2434
2525
2614
2668
2692
2706
2714
2716
2718
2734
2770
2819
2862
2870
2821
2741
2723
2851
3106
3341
3403
3266
3028
2800
2600
2374
2086
1755
1449
1242
1197
1331
1585
1851
2035
2116
2138
2150
2172
2187
2168
2092
1978
1900
1940
2108
2316
2463
2531
2568
2595
2570
2466
2350
2329
2416
2501
2475
2360
2290
2355
2499
2597
2591
2540
2524
2554
2584
2580
2555
2542
2546
2553
2550
2545
2562
2613
2672
2686
2624
2512
2401
2313
2223
2091
1904
1652
1299
824
302
-102
-267
-226
-133
-106
-123
-93
30
215
419
634
865
1094
1295
1475
1670
1895
2109
2233
2201
1996
1673
1342
1110
1013
993
962
900
881
985
1202
1431
1567
1575
1489
1369
1260
1201
1200
1239
1283
1304
1299
1278
1244
1195
1148
1130
1151
1189
1218
1242
1270
1285
1241
1127
994
906
871
838
766
677
626
631
644
602
495
373
296
276
260
190
54
-98
-194
-200
-160
-144
-190
-277
-368
-447
-526
-611
-691
-761
-846
-972
-1117
-1203
-1172
-1058
-954
-928
-965
-1005
-1028
-1061
-1121
-1190
-1246
-1316
-1438
-1579
-1646
-1573
-1410
-1281
-1264
-1320
-1352
-1313
-1249
-1230
-1278
-1354
-1405
-1406
-1376
-1341
-1317
-1304
-1293
-1276
-1247
-1215
-1193
-1188
-1184
-1161
-1110
-1044
-995
-981
-991
-993
-968
-922
-878
-858
-867
-886
-894
-891
-902
-950
-1022
-1081
-1104
-1105
-1117
-1139
-1131
-1061
-959
-891
-894
-947
-1000
-1035
-1068
-1121
-1186
-1242
-1269
-1268
-1248
-1229
-1218
-1219
-1218
-1206
-1190
-1175
-1153
-1103
-1026
-954
-919
-910
-878
-818
-790
-861
-1005
-1111
-1104
-1027
-998
-1057
-1113
-1042
-847
-658
-579
-582
-564
-474
-351
-260
-208
-158
-89
-17
27
23
-21
-85
-137
-149
-131
-123
-145
-172
-162
-104
-28
35
77
100
103
93
81
63
14
-64
-123
-129
-130
-208
-362
-480
-452
-325
-251
-287
-285
-48
423
894
1119
1090
1023
1124
1374
1572
1555
1359
1166
1095
1105
1073
933
747
609
557
583
682
857
1098
1357
1563
1656
1590
1377
1092
819
582
355
159
124
392
940
1572
2092
2440
2637
2639
2335
1706
903
135
-494
-1001
-1392
-1605
-1586
-1354
-970
-464
121
669
1025
1124
1043
902
741
521
237
-49
-268
-420
-515
-502
-345
-122
-18
-143
-411
-613
-625
-515
-409
-328
-175
137
584
1072
1512
1849
2036
2035
1863
1597
1315
1048
797
587
475
494
615
789
997
1253
1551
1801
1889
1770
1524
1312
1241
1294
1373
1384
1311
1212
1150
1146
1180
1220
1236
1237
1256
1329
1468
1640
1787
1861
1849
1788
1733
1713
1696
1624
1480
1336
1293
1371
1466
1463
1357
1249
1210
1170
995
654
270
13
-57
-23
-3
-48
-146
-262
-382
-499
-607
-693
-756
-800
-829
-858
-905
-977
-1064
-1142
-1197
-1234
-1244
-1197
-1072
-890
-720
-619
-593
-611
-652
-731
-865
-1046
-1243
-1444
-1649
-1846
-1985
-2021
-1954
-1849
-1785
-1789
-1821
-1819
-1766
-1703
-1691
-1742
-1804
-1802
-1714
-1590
-1512
-1521
-1590
-1673
-1764
-1891
-2052
-2200
-2293
-2337
-2354
-2333
-2240
-2089
-1960
-1915
-1931
-1940
-1940
-2007
-2175
-2368
-2473
-2491
-2532
-2661
-2793
-2794
-2667
-2580
-2694
-2973
-3211
-3233
-3060
-2871
-2809
-2842
-2820
-2653
-2414
-2262
-2249
-2257
-2121
-1813
-1450
-1141
-869
-552
-189
111
228
115
-191
-606
-1007
-1270
-1340
-1274
-1180
-1091
-929
-618
-198
185
380
349
186
35
10
126
280
350
319
308
437
674
861
894
838
830
895
936
905
899
1046
1303
1467
1417
1278
1292
1511
1734
1737
1540
1373
1413
1597
1723
1682
1549
1466
1479
1531
1546
1523
1517
1562
1656
1762
1871
2022
2240
2448
2486
2265
1891
1571
1387
1218
928
626
635
1159
2044
2895
3397
3509
3374
3114
2744
2226
1544
764
54
-366
-349
57
631
1142
1478
1643
1692
1708
1822
2148
2665
3182
3469
3435
3178
2868
2589
2269
1763
1005
149
-490
-620
-189
598
1451
2172
2683
2934
2885
2576
2157
1768
1426
1088
800
748
1080
1723
2405
2851
2945
2736
2350
1910
1516
1244
1157
1300
1692
2258
2795
3060
2953
2602
2219
1879
1456
843
131
-432
-652
-523
-153
361
948
1490
1847
1979
1986
2000
2052
2095
2108
2123
2137
2083
1915
1695
1523
1391
1188
855
502
309
336
469
557
567
556
537
457
298
157
188
464
917
1386
1726
1875
1858
1747
1603
1424
1162
796
387
66
-70
-11
176
408
620
765
818
773
643
463
275
119
2
-94
-192
-289
-360
-416
-523
-732
-1000
-1197
-1226
-1105
-927
-738
-513
-233
54
280
449
633
873
1118
1285
1364
1428
1548
1700
1788
1738
1558
1323
1104
942
844
802
796
811
854
953
1118
1315
1472
1534
1504
1425
1325
1207
1076
972
926
915
877
773
634
518
453
422
400
385
384
377
340
274
210
181
190
231
300
384
445
432
326
158
-25
-218
-453
-736
-1014
-1205
-1276
-1262
-1209
-1135
-1046
-970
-941
-944
-923
-864
-830
-892
-1025
-1126
-1137
-1111
-1151
-1288
-1450
-1562
-1626
-1690
-1774
-1846
-1867
-1829
-1750
-1649
-1537
-1442
-1401
-1436
-1529
-1633
-1719
-1782
-1837
-1888
-1913
-1882
-1784
-1641
-1496
-1373
-1265
-1168
-1105
-1103
-1155
-1210
-1230
-1226
-1245
-1287
-1293
-1216
-1083
-964
-885
-796
-644
-471
-379
-401
-437
-349
-104
185
387
459
432
337
178
-30
-245
-448
-675
-949
-1195
-1272
-1108
-788
-479
-280
-159
-38
107
232
295
296
256
200
164
193
310
480
624
694
705
704
713
715
695
669
684
769
904
1035
1112
1124
1109
1120
1177
1253
1301
1291
1231
1156
1106
1106
1140
1166
1155
1134
1166
1282
1452
1613
1732
1815
1870
1891
1888
1907
1977
2051
2043
1938
1833
1838
1951
2058
2067
2000
1947
1948
1965
1950
1920
1917
1937
1910
1787
1618
1514
1510
1514
1417
1222
1033
906
755
475
113
-146
-180
-72
11
37
135
391
700
881
889
873
984
1214
1434
1554
1600
1651
1736
1811
1814
1703
1470
1158
843
601
448
347
256
178
149
188
266
312
255
85
-149
-375
-559
-718
-866
-987
-1048
-1063
-1094
-1196
-1361
-1533
-1668
-1763
-1837
-1907
-1984
-2076
-2193
-2338
-2502
-2671
-2829
-2959
-3053
-3132
-3230
-3363
-3503
-3612
-3680
-3741
-3829
-3939
-4035
-4089
-4114
-4138
-4163
-4174
-4166
-4157
-4170
-4200
-4225
-4225
-4210
-4209
-4240
-4297
-4349
-4369
-4352
-4327
-4326
-4349
-4356
-4305
-4212
-4142
-4135
-4158
-4143
-4069
-3994
-3979
-4016
-4026
-3958
-3848
-3779
-3784
-3813
-3801
-3746
-3707
-3724
-3764
-3762
-3695
-3609
-3545
-3489
-3391
-3245
-3115
-3063
-3067
-3049
-2965
-2864
-2823
-2851
-2872
-2812
-2671
-2516
-2420
-2394
-2389
-2342
-2228
-2086
-1978
-1931
-1899
-1825
-1705
-1587
-1510
-1460
-1408
-1357
-1336
-1333
-1287
-1170
-1047
-1016
-1089
-1170
-1153
-1037
-920
-882
-913
-943
-924
-859
-763
-640
-502
-388
-343
-351
-327
-189
47
255
333
303
293
388
546
663
690
685
706
730
707
670
725
914
1135
1232
1172
1080
1108
1278
1480
1598
1607
1562
1535
1567
1659
1776
1859
1871
1826
1776
1761
1778
1811
1856
1904
1912
1847
1747
1712
1805
1961
2040
1967
1811
1702
1698
1740
1735
1656
1549
1470
1414
1318
1125
854
598
467
488
585
647
652
679
802
979
1091
1079
1023
1063
1238
1460
1623
1721
1825
1977
2125
2172
2036
1696
1199
673
292
166
255
416
564
759
1100
1559
1959
2133
2076
1913
1750
1596
1429
1276
1194
1183
1181
1147
1104
1068
980
763
456
227
232
443
679
794
823
934
1222
1597
1854
1870
1704
1527
1467
1530
1638
1728
1799
1871
1926
1930
1879
1805
1739
1676
1591
1477
1364
1265
1174
1098
1071
1106
1146
1105
962
791
690
671
667
633
593
572
541
454
320
205
149
117
48
-51
-107
-66
37
109
94
25
-18
-1
39
42
3
-11
67
231
404
519
579
638
716
779
785
748
711
680
630
561
521
547
608
627
571
485
442
463
508
526
502
463
451
481
524
528
479
415
384
394
405
386
353
336
337
327
283
209
113
-7
-139
-256
-344
-418
-491
-536
-528
-495
-500
-568
-637
-650
-644
-721
-894
-1045
-1059
-977
-945
-1038
-1163
-1183
-1086
-995
-1004
-1078
-1122
-1106
-1087
-1116
-1170
-1203
-1223
-1288
-1419
-1565
-1643
-1636
-1585
-1535
-1496
-1461
-1438
-1432
-1415
-1359
-1285
-1267
-1349
-1479
-1546
-1492
-1386
-1345
-1411
-1516
-1562
-1525
-1476
-1503
-1617
-1745
-1812
-1816
-1815
-1850
-1896
-1891
-1828
-1762
-1748
-1777
-1812
-1878
-2040
-2310
-2587
-2734
-2723
-2667
-2682
-2759
-2784
-2675
-2483
-2325
-2255
-2209
-2096
-1887
-1627
-1383
-1193
-1069
-1006
-984
-995
-1058
-1218
-1484
-1786
-2013
-2096
-2063
-1988
-1906
-1811
-1709
-1644
-1641
-1652
-1639
-1646
-1759
-1975
-2148
-2127
-1935
-1766
-1776
-1930
-2072
-2111
-2095
-2105
-2139
-2132
-2071
-2021
-2036
-2086
-2087
-2023
-1980
-2049
-2219
-2376
-2435
-2430
-2457
-2528
-2550
-2466
-2348
-2335
-2442
-2537
-2513
-2429
-2446
-2617
-2801
-2830
-2703
-2564
-2519
-2531
-2518
-2483
-2504
-2613
-2738
-2797
-2804
-2845
-2959
-3080
-3109
-3027
-2907
-2821
-2790
-2800
-2854
-2953
-3043
-3048
-2978
-2953
-3058
-3203
-3187
-2946
-2668
-2599
-2779
-2990
-3028
-2943
-2954
-3174
-3470
-3627
-3567
-3397
-3272
-3234
-3212
-3129
-2983
-2835
-2749
-2730
-2733
-2722
-2706
-2720
-2774
-2841
-2894
-2937
-2977
-2985
-2911
-2764
-2608
-2480
-2344
-2158
-1953
-1827
-1816
-1834
-1789
-1719
-1755
-1944
-2178
-2338
-2463
-2704
-3114
-3530
-3745
-3719
-3561
-3328
-2945
-2348
-1650
-1065
-691
-438
-229
-176
-465
-1091
-1761
-2143
-2173
-2054
-1992
-1959
-1781
-1413
-1031
-851
-917
-1134
-1514
-2242
-3416
-4756
-5711
-5944
-5654
-5315
-5108
-4715
-3729
-2168
-502
791
1577
1987
2120
1948
1503
964
503
128
-261
-675
-987
-1071
-942
-730
-566
-514
-600
-812
-1070
-1262
-1344
-1388
-1502
-1733
-2056
-2432
-2836
-3208
-3468
-3616
-3771
-4064
-4482
-4890
-5219
-5558
-6019
-6542
-6936
-7093
-7090
-7065
-7029
-6878
-6597
-6329
-6214
-6215
-6165
-5984
-5773
-5689
-5743
-5780
-5653
-5396
-5186
-5165
-5321
-5532
-5696
-5793
-5859
-5899
-5889
-5802
-5643
-5453
-5260
-5062
-4844
-4624
-4456
-4398
-4452
-4525
-4486
-4282
-4002
-3798
-3732
-3718
-3647
-3536
-3491
-3547
-3610
-3571
-3469
-3433
-3502
-3553
-3463
-3276
-3152
-3157
-3191
-3130
-2990
-2907
-2963
-3100
-3193
-3198
-3173
-3193
-3260
-3309
-3279
-3178
-3070
-3005
-2967
-2904
-2801
-2701
-2644
-2590
-2465
-2275
-2127
-2113
-2174
-2144
-1953
-1714
-1593
-1611
-1629
-1516
-1291
-1083
-981
-950
-905
-814
-703
-604
-512
-409
-305
-230
-190
-152
-72
49
151
189
188
222
319
422
462
449
455
507
543
491
378
308
340
422
470
476
519
658
857
1032
1142
1210
1258
1274
1246
1185
1122
1074
1022
956
895
863
864
882
906
926
917
854
754
683
694
757
789
749
693
701
782
858
855
792
746
764
813
825
777
705
651
616
568
493
416
381
411
487
568
638
711
811
924
1007
1024
983
927
874
807
711
600
508
443
385
323
289
325
423
513
541
532
571
700
856
937
907
833
795
803
800
746
669
620
599
567
508
459
461
494
497
440
365
342
391
468
503
454
338
219
154
135
109
37
-63
-164
-297
-527
-820
-994
-852
-395
138
494
622
678
794
937
987
909
807
821
1018
1383
1873
2442
3027
3539
3896
4066
4062
3931
3724
3490
3263
3063
2916
2853
2897
3038
3226
3397
3499
3492
3366
3142
2879
2657
2527
2475
2442
2368
2241
2092
1960
1871
1832
1834
1838
1798
1697
1564
1431
1289
1106
892
718
641
629
602
525
453
443
472
466
402
354
399
514
599
596
554
553
596
603
530
432
395
434
490
514
524
562
624
659
642
612
616
649
656
601
500
402
333
281
218
114
-25
-163
-245
-248
-210
-202
-260
-348
-405
-413
-413
-453
-534
-618
-676
-721
-778
-851
-913
-930
-906
-872
-860
-866
-852
-791
-697
-608
-549
-509
-467
-418
-375
-347
-328
-311
-300
-302
-312
-307
-278
-238
-212
-205
-194
-157
-104
-65
-51
-47
-30
1
30
47
65
101
149
193
225
248
263
264
247
221
207
211
225
240
257
278
301
316
318
316
317
317
312
307
323
377
447
486
468
422
399
414
434
423
383
352
348
354
353
349
355
363
353
328
306
304
315
329
340
339
298
203
89
10
-29
-79
-183
-294
-333
-284
-212
-202
-263
-328
-334
-313
-342
-443
-540
-552
-501
-498
-610
-786
-940
-1100
-1379
-1791
-2153
-2268
-2166
-2065
-2093
-2109
-1889
-1446
-1077
-1044
-1307
-1597
-1733
-1755
-1796
-1875
-1867
-1639
-1199
-697
-285
-8
228
544
930
1199
1155
822
449
276
294
267
10
-416
-777
-898
-794
-607
-447
-327
-227
-143
-88
-68
-77
-129
-271
-546
-935
-1335
-1632
-1785
-1852
-1932
-2062
-2174
-2173
-2055
-1916
-1861
-1906
-1965
-1976
-1976
-2046
-2200
-2361
-2458
-2509
-2591
-2730
-2862
-2919
-2929
-2989
-3151
-3355
-3497
-3553
-3598
-3717
-3895
-4035
-4057
-3990
-3942
-3983
-4077
-4135
-4118
-4084
-4110
-4191
-4240
-4202
-4128
-4113
-4180
-4252
-4249
-4183
-4137
-4147
-4163
-4140
-4101
-4105
-4154
-4191
-4190
-4196
-4260
-4350
-4371
-4289
-4168
-4097
-4077
-4037
-3933
-3799
-3684
-3595
-3511
-3425
-3357
-3315
-3274
-3208
-3124
-3046
-2967
-2868
-2742
-2615
-2517
-2436
-2345
-2235
-2140
-2076
-2011
-1880
-1671
-1442
-1264
-1142
-1019
-849
-659
-524
-476
-471
-441
-359
-254
-157
-67
40
178
346
511
640
725
787
842
852
756
553
351
294
426
649
837
977
1164
1468
1838
2162
2368
2461
2482
2474
2476
2523
2613
2703
2757
2795
2864
2973
3065
3080
3016
2933
2876
2841
2800
2758
2745
2777
2840
2905
2944
2925
2808
2574
2267
1999
1870
1897
2019
2171
2350
2588
2878
3148
3319
3372
3361
3344
3325
3266
3150
3019
2942
2942
2963
2940
2869
2790
2721
2637
2524
2405
2298
2163
1954
1726
1623
1720
1908
1997
1935
1854
1887
2015
2126
2194
2325
2606
2981
3302
3492
3596
3695
3815
3936
4026
4050
3983
3859
3801
3920
4186
4412
4440
4317
4252
4390
4667
4891
4943
4883
4874
5037
5358
5723
6003
6125
6114
6054
6012
5967
5846
5634
5421
5322
5356
5426
5429
5357
5283
5257
5243
5191
5101
5018
4972
4949
4921
4877
4813
4709
4560
4401
4295
4270
4296
4324
4349
4402
4494
4583
4619
4591
4534
4484
4452
4436
4429
4404
4327
4209
4117
4102
4125
4092
3975
3861
3848
3923
3972
3942
3911
3975
4100
4143
4029
3849
3748
3748
3742
3651
3524
3459
3478
3519
3549
3608
3724
3828
3811
3679
3577
3639
3818
3929
3860
3697
3617
3702
3869
3991
4032
4050
4096
4160
4199
4199
4161
4070
3916
3750
3671
3733
3867
3955
3977
4040
4249
4565
4816
4860
4719
4541
4449
4437
4422
4342
4215
4114
4100
4191
4354
4532
4697
4869
5062
5236
5336
5369
5424
5562
5708
5692
5452
5142
4986
5039
5120
5037
4816
4656
4681
4800
4845
4789
4754
4806
4835
4701
4445
4273
4304
4411
4368
4112
3827
3735
3859
4031
4075
3949
3732
3536
3436
3444
3517
3584
3631
3739
4007
4436
4893
5237
5437
5545
5574
5469
5215
4918
4721
4650
4585
4427
4234
4149
4215
4302
4249
4046
3820
3682
3625
3561
3437
3294
3219
3227
3233
3106
2799
2403
2082
1930
1911
1938
2000
2153
2381
2563
2615
2618
2739
3017
3286
3376
3342
3416
3693
4001
4100
3948
3707
3499
3270
2933
2542
2258
2135
2047
1864
1636
1531
1613
1763
1805
1694
1516
1365
1260
1174
1104
1070
1063
1043
995
938
908
921
972
1041
1092
1114
1130
1149
1184
1230
1251
1194
1034
839
756
877
1127
1295
1264
1138
1123
1268
1404
1372
1231
1174
1264
1369
1359
1287
1288
1384
1459
1432
1368
1353
1364
1298
1151
1053
1109
1257
1316
1213
1096
1164
1446
1769
1936
1919
1872
1948
2125
2252
2265
2268
2390
2613
2797
2874
2925
3050
3223
3342
3366
3318
3184
2893
2482
2180
2214
2537
2847
2917
2843
2903
3200
3525
3583
3275
2755
2270
1994
1936
1979
1981
1908
1872
1977
2172
2281
2212
2073
2030
2079
2062
1908
1749
1753
1895
1980
1883
1693
1568
1547
1523
1405
1244
1152
1169
1236
1281
1281
1254
1217
1153
1046
914
815
781
781
751
669
594
589
632
629
524
389
357
464
614
678
631
557
535
556
580
620
721
877
995
981
845
675
521
335
36
-378
-809
-1152
-1369
-1472
-1492
-1457
-1390
-1306
-1201
-1080
-978
-949
-1021
-1155
-1294
-1416
-1536
-1639
-1667
-1598
-1510
-1517
-1646
-1789
-1833
-1795
-1796
-1906
-2073
-2214
-2317
-2423
-2543
-2630
-2641
-2591
-2533
-2542
-2706
-3073
-3564
-3959
-4078
-3969
-3871
-3923
-3977
-3768
-3235
-2615
-2167
-1897
-1600
-1153
-687
-435
-483
-730
-1046
-1412
-1885
-2466
-3044
-3441
-3532
-3314
-2898
-2453
-2137
-2026
-2138
-2445
-2895
-3436
-4036
-4692
-5374
-5967
-6293
-6224
-5802
-5217
-4694
-4358
-4206
-4165
-4151
-4110
-4019
-3873
-3673
-3410
-3062
-2632
-2147
-1665
-1271
-1066
-1130
-1462
-1955
-2452
-2858
-3202
-3574
-3982
-4326
-4475
-4402
-4198
-3989
-3839
-3731
-3624
-3517
-3446
-3451
-3523
-3603
-3616
-3526
-3355
-3151
-2956
-2790
-2657
-2562
-2498
-2450
-2411
-2405
-2455
-2545
-2603
-2579
-2505
-2464
-2513
-2621
-2704
-2699
-2615
-2505
-2415
-2367
-2377
-2448
-2546
-2600
-2566
-2473
-2412
-2453
-2567
-2652
-2630
-2539
-2495
-2582
-2775
-2959
-3033
-3000
-2951
-2976
-3084
-3195
-3227
-3188
-3165
-3235
-3363
-3433
-3394
-3321
-3328
-3421
-3479
-3420
-3313
-3297
-3397
-3486
-3470
-3404
-3396
-3442
-3434
-3332
-3248
-3299
-3437
-3501
-3442
-3391
-3492
-3720
-3924
-4019
-4056
-4123
-4230
-4318
-4357
-4352
-4306
-4231
-4183
-4228
-4352
-4427
-4355
-4190
-4081
-4093
-4128
-4073
-3955
-3889
-3914
-3941
-3897
-3850
-3918
-4073
-4140
-4001
-3765
-3654
-3749
-3889
-3875
-3699
-3543
-3550
-3661
-3707
-3612
-3456
-3359
-3333
-3303
-3223
-3115
-3038
-3020
-3040
-3055
-3034
-2968
-2886
-2836
-2843
-2869
-2858
-2805
-2757
-2737
-2712
-2640
-2547
-2513
-2575
-2674
-2738
-2770
-2823
-2910
-2980
-2988
-2961
-2960
-3010
-3099
-3220
-3379
-3544
-3655
-3693
-3711
-3753
-3775
-3677
-3454
-3237
-3152
-3157
-3087
-2838
-2501
-2269
-2221
-2262
-2253
-2172
-2112
-2166
-2343
-2588
-2846
-3077
-3239
-3294
-3260
-3192
-3129
-3057
-2944
-2816
-2743
-2768
-2864
-2975
-3075
-3176
-3269
-3307
-3248
-3105
-2947
-2836
-2795
-2791
-2770
-2687
-2550
-2424
-2383
-2425
-2475
-2466
-2417
-2386
-2371
-2292
-2063
-1668
-1174
-697
-380
-338
-574
-953
-1315
-1645
-2078
-2696
-3352
-3764
-3785
-3550
-3323
-3256
-3318
-3446
-3647
-3959
-4350
-4709
-4938
-5018
-4968
-4806
-4534
-4161
-3725
-3290
-2943
-2754
-2719
-2726
-2621
-2351
-2009
-1704
-1426
-1067
-571
-52
303
413
358
275
241
269
359
514
706
889
1071
1333
1727
2167
2475
2540
2429
2311
2283
2285
2225
2116
2083
2240
2566
2946
3319
3753
4337
5003
5495
5574
5227
4659
4086
3556
3004
2425
1923
1618
1542
1662
1959
2430
3014
3577
3993
4229
4327
4348
4330
4284
4212
4104
3968
3861
3854
3952
4079
4160
4199
4252
4326
4356
4297
4198
4151
4156
4110
3943
3729
3610
3630
3691
3677
3595
3540
3555
3564
3462
3234
2965
2743
2585
2463
2375
2337
2346
2359
2329
2256
2178
2129
2093
2026
1900
1738
1607
1550
1549
1545
1498
1422
1361
1328
1294
1231
1148
1079
1033
987
916
823
730
657
606
581
569
532
440
322
252
263
293
251
132
21
-39
-123
-312
-551
-674
-605
-457
-400
-446
-442
-282
-45
110
155
229
444
761
1049
1244
1406
1599
1783
1856
1774
1593
1394
1204
1000
797
661
651
748
865
940
980
1041
1130
1185
1128
947
727
577
541
577
608
600
577
565
553
518
458
405
380
365
322
249
158
42
-127
-339
-526
-616
-622
-618
-634
-620
-529
-422
-416
-526
-625
-588
-463
-424
-560
-729
-678
-301
253
738
1011
1119
1189
1291
1395
1430
1352
1179
966
774
628
520
433
384
415
549
730
866
930
1016
1271
1733
2245
2574
2617
2511
2505
2725
3062
3293
3301
3156
2976
2764
2427
1953
1482
1178
1046
943
772
630
693
990
1369
1643
1745
1714
1589
1377
1124
930
855
862
874
888
965
1128
1304
1408
1431
1426
1412
1351
1231
1114
1071
1097
1124
1111
1083
1065
1038
967
877
845
907
1002
1016
892
691
513
401
311
177
-3
-163
-247
-276
-321
-421
-546
-642
-699
-757
-846
-946
-1015
-1045
-1065
-1099
-1137
-1147
-1118
-1070
-1040
-1047
-1085
-1133
-1170
-1190
-1194
-1192
-1189
-1195
-1212
-1223
-1205
-1143
-1064
-1012
-1007
-1012
-976
-885
-780
-714
-680
-624
-511
-379
-299
-293
-303
-254
-140
-40
-28
-90
-133
-83
37
141
171
148
110
66
12
-27
-14
43
93
112
143
229
317
315
223
171
270
489
703
856
1006
1209
1427
1600
1763
2002
2313
2580
2734
2881
3199
3716
4256
4618
4771
4835
4912
4986
4990
4907
4783
4664
4572
4540
4611
4790
5013
5179
5236
5223
5214
5237
5260
5251
5234
5264
5348
5415
5392
5282
5153
5060
4997
4940
4882
4838
4814
4803
4802
4815
4839
4853
4840
4802
4748
4687
4628
4592
4575
4534
4421
4253
4106
4036
4006
3941
3834
3759
3778
3847
3861
3780
3672
3624
3641
3640
3559
3424
3318
3288
3306
3314
3275
3194
3103
3021
2948
2875
2785
2678
2578
2526
2555
2666
2802
2889
2894
2850
2821
2835
2864
2867
2844
2848
2933
3103
3307
3496
3660
3818
3974
4104
4189
4246
4303
4362
4388
4364
4333
4375
4537
4784
5031
5222
5378
5560
5788
6013
6159
6203
6181
6145
6105
6027
5902
5770
5693
5679
5673
5625
5557
5531
5582
5661
5677
5589
5454
5359
5348
5390
5411
5361
5250
5136
5087
5114
5154
5115
4961
4748
4559
4396
4183
3867
3502
3215
3066
3015
2993
3006
3102
3274
3436
3505
3491
3461
3427
3310
3031
2618
2227
2035
2096
2306
2510
2639
2759
2981
3312
3633
3817
3832
3736
3582
3375
3123
2875
2677
2497
2291
2106
2078
2289
2652
2965
3118
3153
3153
3106
2930
2599
2209
1867
1596
1336
1053
805
685
681
658
489
198
-56
-154
-176
-303
-589
-882
-989
-877
-666
-452
-247
-87
-105
-378
-757
-944
-781
-413
-108
52
215
547
1032
1504
1795
1821
1560
1074
534
155
14
-12
-103
-269
-357
-256
-53
46
-65
-282
-456
-578
-777
-1123
-1497
-1696
-1657
-1544
-1600
-1904
-2286
-2499
-2432
-2183
-1935
-1774
-1635
