-1541
-1504
-1424
-1280
-1101
-944
-860
-870
-952
-1047
-1106
-1130
-1168
-1260
-1367
-1394
-1301
-1155
-1076
-1115
-1187
-1169
-1035
-902
-904
-1044
-1188
-1202
-1088
-953
-897
-930
-997
-1039
-1029
-980
-933
-926
-944
-914
-789
-615
-503
-503
-545
-518
-411
-318
-334
-442
-551
-612
-682
-852
-1112
-1353
-1488
-1585
-1814
-2219
-2607
-2706
-2449
-2060
-1800
-1674
-1449
-948
-275
285
564
626
627
622
573
460
324
200
66
-104
-286
-419
-499
-608
-837
-1164
-1475
-1658
-1711
-1730
-1800
-1918
-1982
-1930
-1805
-1710
-1701
-1740
-1758
-1750
-1757
-1795
-1834
-1847
-1841
-1837
-1832
-1811
-1784
-1780
-1810
-1847
-1859
-1848
-1842
-1864
-1905
-1934
-1941
-1936
-1928
-1924
-1928
-1939
-1947
-1948
-1953
-1977
-2025
-2085
-2138
-2187
-2241
-2309
-2382
-2444
-2486
-2514
-2543
-2586
-2642
-2689
-2710
-2702
-2683
-2679
-2699
-2724
-2733
-2721
-2705
-2704
-2702
-2660
-2563
-2467
-2458
-2533
-2569
-2446
-2202
-2013
-1993
-2045
-1979
-1756
-1546
-1500
-1552
-1508
-1330
-1200
-1286
-1492
-1562
-1388
-1137
-1037
-1102
-1155
-1069
-913
-827
-836
-846
-790
-708
-679
-707
-724
-691
-650
-644
-668
-674
-653
-644
-669
-693
-662
-572
-496
-508
-594
-680
-726
-774
-864
-954
-952
-839
-715
-697
-764
-778
-647
-454
-367
-440
-562
-609
-595
-630
-760
-897
-937
-898
-885
-944
-1019
-1045
-1046
-1081
-1115
-1035
-808
-597
-630
-941
-1304
-1474
-1450
-1464
-1700
-2081
-2343
-2308
-2036
-1718
-1477
-1307
-1146
-977
-823
-703
-625
-601
-638
-718
-793
-824
-817
-802
-802
-819
-849
-889
-929
-948
-938
-911
-896
-902
-905
-883
-847
-829
-856
-917
-977
-1010
-1003
-967
-918
-882
-885
-934
-996
-1038
-1030
-982
-945
-983
-1141
-1394
-1633
-1764
-1824
-1972
-2285
-2615
-2681
-2368
-1875
-1500
-1300
-1044
-525
161
707
938
961
975
1007
947
766
584
515
487
332
8
-324
-489
-505
-563
-792
-1134
-1420
-1556
-1603
-1668
-1774
-1852
-1834
-1739
-1637
-1570
-1518
-1450
-1381
-1365
-1420
-1503
-1548
-1549
-1552
-1587
-1627
-1615
-1534
-1431
-1364
-1344
-1356
-1413
-1542
-1709
-1817
-1810
-1744
-1727
-1769
-1768
-1648
-1483
-1428
-1537
-1698
-1779
-1768
-1760
-1817
-1903
-1955
-1943
-1884
-1813
-1777
-1825
-1950
-2088
-2170
-2201
-2252
-2335
-2372
-2306
-2201
-2180
-2257
-2307
-2233
-2102
-2058
-2128
-2186
-2128
-1999
-1924
-1934
-1937
-1866
-1771
-1740
-1764
-1748
-1634
-1475
-1372
-1341
-1302
-1198
-1074
-1027
-1082
-1160
-1168
-1094
-1008
-974
-990
-995
-949
-855
-739
-616
-492
-385
-311
-262
-192
-71
66
121
19
-207
-448
-628
-771
-954
-1196
-1421
-1530
-1510
-1420
-1291
-1090
-790
-473
-282
-277
-357
-373
-309
-302
-453
-688
-818
-767
-625
-527
-489
-425
-299
-203
-248
-430
-630
-734
-741
-737
-822
-1020
-1251
-1388
-1364
-1250
-1194
-1278
-1421
-1464
-1370
-1258
-1251
-1305
-1281
-1149
-1046
-1100
-1252
-1321
-1240
-1154
-1226
-1403
-1466
-1302
-1041
-904
-937
-949
-750
-380
-89
-69
-272
-475
-520
-460
-476
-667
-946
-1148
-1207
-1198
-1198
-1190
-1116
-1003
-972
-1091
-1264
-1336
-1288
-1268
-1392
-1588
-1673
-1571
-1382
-1262
-1228
-1160
-978
-767
-711
-888
-1184
-1395
-1457
-1535
-1810
-2206
-2405
-2167
-1615
-1127
-910
-770
-374
318
982
1301
1291
1197
1159
1081
861
582
402
315
132
-257
-697
-926
-884
-806
-944
-1297
-1626
-1718
-1610
-1493
-1484
-1529
-1524
-1459
-1404
-1400
-1409
-1385
-1358
-1393
-1504
-1631
-1714
-1740
-1716
-1645
-1549
-1475
-1466
-1514
-1560
-1567
-1547
-1539
-1573
-1644
-1729
-1793
-1811
-1799
-1833
-1988
-2277
-2619
-2907
-3085
-3162
-3170
-3114
-2975
-2733
-2398
-2027
-1707
-1515
-1465
-1504
-1561
-1611
-1667
-1738
-1813
-1869
-1895
-1890
-1857
-1808
-1795
-1868
-2026
-2201
-2316
-2339
-2295
-2238
-2215
-2230
-2246
-2207
-2092
-1971
-1941
-2009
-2050
-1917
-1615
-1324
-1213
-1260
-1277
-1133
-908
-802
-905
-1094
-1178
-1101
-984
-965
-1057
-1152
-1163
-1107
-1062
-1055
-1036
-954
-832
-747
-743
-772
-750
-656
-567
-584
-711
-868
-958
-961
-928
-934
-1008
-1116
-1184
-1167
-1094
-1061
-1141
-1314
-1473
-1530
-1498
-1466
-1494
-1538
-1500
-1335
-1105
-921
-838
-825
-824
-829
-878
-994
-1156
-1316
-1440
-1510
-1518
-1477
-1440
-1467
-1536
-1557
-1460
-1294
-1193
-1222
-1306
-1315
-1219
-1112
-1093
-1145
-1163
-1077
-932
-833
-845
-932
-1007
-1016
-999
-1050
-1216
-1443
-1621
-1698
-1728
-1827
-2048
-2318
-2488
-2447
-2206
-1900
-1686
-1609
-1572
-1456
-1254
-1089
-1087
-1228
-1383
-1446
-1439
-1453
-1517
-1579
-1609
-1662
-1805
-2003
-2110
-2018
-1799
-1639
-1655
-1764
-1748
-1506
-1179
-1032
-1217
-1614
-1958
-2112
-2191
-2401
-2783
-3132
-3187
-2900
-2466
-2083
-1738
-1267
-598
131
693
1003
1155
1260
1277
1064
568
-62
-581
-866
-998
-1126
-1293
-1386
-1295
-1073
-914
-978
-1220
-1459
-1593
-1685
-1854
-2097
-2271
-2257
-2110
-1990
-1990
-2045
-2013
-1848
-1635
-1492
-1443
-1411
-1321
-1201
-1150
-1215
-1333
-1412
-1437
-1477
-1582
-1704
-1749
-1697
-1626
-1607
-1632
-1653
-1673
-1756
-1906
-2018
-2003
-1914
-1913
-2071
-2256
-2275
-2114
-1956
-1961
-2069
-2088
-1954
-1811
-1834
-2009
-2156
-2162
-2116
-2182
-2394
-2621
-2723
-2685
-2595
-2521
-2455
-2363
-2264
-2189
-2149
-2130
-2123
-2140
-2185
-2207
-2148
-2020
-1917
-1927
-2011
-2012
-1805
-1459
-1191
-1146
-1242
-1263
-1109
-920
-917
-1149
-1447
-1607
-1574
-1446
-1305
-1132
-883
-598
-375
-269
-247
-253
-301
-451
-712
-983
-1115
-1056
-892
-756
-704
-658
-533
-379
-365
-605
-1007
-1337
-1438
-1379
-1351
-1452
-1597
-1646
-1552
-1374
-1169
-931
-647
-370
-169
-70
-41
-57
-140
-336
-627
-927
-1146
-1251
-1269
-1237
-1165
-1049
-888
-719
-607
-592
-659
-757
-851
-947
-1055
-1127
-1079
-893
-662
-511
-505
-602
-722
-833
-949
-1074
-1188
-1259
-1284
-1288
-1285
-1261
-1197
-1117
-1070
-1075
-1114
-1168
-1260
-1425
-1624
-1751
-1731
-1626
-1582
-1651
-1722
-1625
-1321
-942
-653
-498
-395
-245
-19
236
427
467
329
65
-189
-334
-387
-451
-586
-745
-842
-860
-858
-887
-929
-931
-917
-983
-1213
-1581
-1949
-2187
-2311
-2456
-2706
-2939
-2903
-2481
-1871
-1438
-1342
-1344
-1046
-312
565
1151
1292
1234
1325
1644
1972
2053
1839
1479
1124
800
472
155
-99
-289
-479
-701
-899
-983
-952
-925
-1010
-1183
-1331
-1385
-1385
-1396
-1415
-1379
-1264
-1127
-1050
-1063
-1130
-1192
-1220
-1218
-1211
-1221
-1251
-1289
-1324
-1349
-1363
-1355
-1303
-1210
-1121
-1081
-1093
-1109
-1078
-1009
-966
-1001
-1101
-1207
-1253
-1231
-1192
-1224
-1392
-1671
-1943
-2071
-2009
-1862
-1783
-1846
-1994
-2119
-2165
-2133
-2033
-1872
-1695
-1574
-1513
-1401
-1120
-709
-375
-323
-558
-876
-1068
-1082
-1034
-1081
-1264
-1472
-1517
-1306
-949
-667
-589
-660
-742
-794
-878
-1001
-1046
-909
-660
-496
-526
-646
-680
-580
-454
-410
-431
-408
-243
78
501
924
1222
1327
1297
1271
1318
1360
1267
1007
698
482
404
395
375
320
250
195
174
188
205
175
74
-65
-179
-238
-258
-269
-289
-338
-439
-579
-677
-639
-459
-264
-208
-330
-519
-623
-582
-457
-359
-347
-414
-516
-606
-637
-596
-524
-499
-577
-731
-853
-862
-801
-801
-936
-1130
-1245
-1257
-1290
-1455
-1678
-1750
-1550
-1194
-908
-786
-705
-491
-129
211
349
248
16
-231
-456
-684
-925
-1145
-1312
-1428
-1515
-1571
-1567
-1494
-1408
-1386
-1444
-1528
-1564
-1535
-1490
-1474
-1482
-1469
-1407
-1311
-1225
-1181
-1190
-1228
-1235
-1154
-1001
-880
-894
-1028
-1131
-1072
-898
-797
-891
-1094
-1206
-1142
-1022
-1015
-1134
-1227
-1183
-1041
-945
-980
-1119
-1296
-1472
-1633
-1780
-1957
-2232
-2591
-2865
-2830
-2446
-1936
-1560
-1338
-1038
-456
323
997
1327
1346
1264
1243
1267
1203
952
573
241
97
109
84
-133
-486
-759
-801
-690
-624
-672
-723
-646
-456
-284
-207
-191
-190
-237
-386
-608
-801
-901
-959
-1060
-1198
-1292
-1288
-1239
-1234
-1300
-1394
-1478
-1560
-1658
-1754
-1823
-1879
-1958
-2055
-2091
-2014
-1900
-1911
-2121
-2412
-2580
-2539
-2398
-2314
-2320
-2313
-2214
-2074
-2011
-2062
-2143
-2165
-2147
-2183
-2318
-2477
-2548
-2491
-2375
-2299
-2299
-2343
-2387
-2412
-2422
-2431
-2459
-2515
-2578
-2596
-2550
-2490
-2478
-2497
-2450
-2275
-2038
-1889
-1928
-2115
-2321
-2415
-2319
-2025
-1628
-1292
-1118
-1013
-767
-287
252
558
498
225
-11
-113
-153
-226
-341
-437
-479
-471
-414
-305
-179
-95
-91
-157
-270
-425
-608
-773
-878
-929
-966
-991
-945
-769
-481
-173
81
288
489
682
782
698
416
41
-258
-360
-294
-200
-172
-188
-167
-104
-106
-251
-446
-514
-430
-378
-547
-884
-1114
-1057
-837
-738
-869
-1034
-968
-637
-263
-73
-68
-73
35
200
275
206
78
14
44
106
134
118
78
39
2
-43
-125
-280
-503
-720
-845
-878
-909
-1012
-1159
-1279
-1375
-1529
-1762
-1945
-1904
-1603
-1184
-806
-504
-203
146
487
714
769
671
485
285
122
7
-88
-205
-350
-485
-559
-551
-485
-399
-325
-292
-320
-411
-527
-608
-633
-655
-746
-920
-1117
-1268
-1375
-1484
-1578
-1583
-1495
-1464
-1652
-1999
-2220
-2055
-1532
-926
-467
-154
160
565
995
1274
1236
829
191
-391
-674
-645
-511
-423
-289
98
777
1516
2025
2222
2244
2231
2199
2085
1848
1512
1134
792
571
502
496
407
171
-96
-246
-280
-322
-456
-611
-670
-643
-646
-729
-807
-793
-748
-803
-964
-1072
-1005
-852
-817
-942
-1020
-861
-548
-380
-524
-837
-1054
-1085
-1064
-1114
-1171
-1100
-919
-802
-840
-904
-819
-620
-528
-682
-953
-1082
-961
-720
-564
-577
-716
-923
-1157
-1354
-1435
-1396
-1329
-1307
-1285
-1145
-877
-643
-620
-837
-1187
-1550
-1874
-2119
-2215
-2122
-1903
-1687
-1535
-1379
-1126
-803
-574
-563
-738
-916
-926
-751
-524
-392
-393
-441
-443
-392
-344
-343
-394
-498
-697
-1021
-1389
-1611
-1536
-1201
-808
-547
-426
-298
-22
391
782
982
941
762
611
592
681
783
833
835
823
810
767
670
539
406
287
177
75
3
-13
26
90
138
135
62
-79
-261
-425
-512
-504
-439
-384
-366
-364
-358
-367
-420
-502
-550
-518
-442
-403
-442
-511
-537
-496
-432
-390
-377
-371
-364
-369
-401
-451
-508
-561
-595
-600
-580
-551
-541
-552
-561
-549
-527
-537
-604
-696
-735
-674
-602
-461
-472
-554
-619
-626
-621
-677
-792
-887
-894
-836
-793
-808
-839
-820
-749
-696
-726
-822
-907
-921
-881
-846
-850
-863
-844
-789
-739
-731
-760
-802
-846
-896
-943
-960
-935
-910
-933
-997
-1041
-1022
-973
-972
-1037
-1096
-1087
-1030
-1010
-1057
-1105
-1088
-1036
-1048
-1158
-1273
-1295
-1244
-1218
-1271
-1360
-1452
-1595
-1832
-2090
-2253
-2337
-2499
-2812
-3090
-3044
-2620
-2085
-1728
-1517
-1171
-541
182
675
829
816
827
864
803
592
319
86
-103
-304
-541
-777
-970
-1118
-1244
-1365
-1500
-1647
-1780
-1861
-1869
-1840
-1833
-1867
-1912
-1927
-1906
-1875
-1850
-1840
-1850
-1888
-1945
-1989
-1989
-1956
-1926
-1922
-1937
-1954
-1969
-1979
-1974
-1952
-1936
-1953
-1993
-2015
-1993
-1962
-1976
-2041
-2101
-2107
-2067
-2038
-2058
-2113
-2163
-2185
-2183
-2183
-2207
-2265
-2349
-2430
-2478
-2497
-2519
-2570
-2635
-2678
-2680
-2661
-2653
-2664
-2679
-2678
-2660
-2635
-2615
-2600
-2581
-2550
-2503
-2443
-2382
-2335
-2305
-2271
-2208
-2113
-2007
-1922
-1866
-1810
-1721
-1602
-1500
-1454
-1447
-1418
-1324
-1192
-1082
-1022
-989
-944
-879
-816
-775
-753
-739
-726
-711
-688
-660
-633
-609
-580
-549
-533
-543
-570
-583
-577
-571
-581
-596
-601
-591
-585
-589
-591
-587
-597
-635
-677
-684
-651
-617
-628
-678
-723
-735
-728
-737
-776
-817
-826
-796
-754
-734
-741
-754
-756
-745
-737
-741
-758
-781
-807
-822
-812
-776
-739
-734
-759
-783
-777
-756
-754
-775
-784
-759
-722
-717
-758
-804
-806
-762
-719
-725
-782
-843
-860
-829
-792
-798
-849
-911
-943
-943
-941
-961
-991
-1005
-998
-986
-989
-1004
-1009
-995
-971
-954
-940
-910
-854
-788
-738
-714
-709
-707
-701
-696
-706
-740
-785
-808
-784
-723
-663
-640
-649
-654
-633
-605
-605
-643
-689
-709
-700
-693
-711
-745
-766
-757
-740
-760
-811
-850
-853
-874
-1007
-1254
-1487
-1589
-1624
-1769
-2069
-2310
-2220
-1784
-1288
-988
-818
-490
133
846
1326
1463
1416
1378
1373
1315
1150
914
653
374
90
-148
-301
-401
-527
-708
-868
-930
-889
-820
-802
-838
-891
-937
-997
-1101
-1238
-1363
-1441
-1488
-1541
-1592
-1583
-1481
-1343
-1274
-1311
-1372
-1354
-1264
-1221
-1308
-1472
-1570
-1539
-1450
-1412
-1449
-1496
-1496
-1465
-1450
-1461
-1485
-1509
-1540
-1575
-1595
-1596
-1603
-1643
-1710
-1767
-1791
-1796
-1811
-1846
-1891
-1936
-1978
-2017
-2045
-2057
-2064
-2082
-2116
-2139
-2124
-2075
-2036
-2042
-2073
-2068
-1994
-1885
-1811
-1797
-1790
-1726
-1602
-1483
-1433
-1448
-1464
-1427
-1340
-1246
-1177
-1131
-1082
-1015
-936
-868
-819
-775
-716
-646
-593
-569
-547
-488
-393
-310
-281
-292
-288
-249
-204
-195
-217
-238
-242
-239
-240
-233
-205
-176
-178
-207
-224
-202
-167
-162
-201
-253
-285
-295
-304
-325
-355
-386
-416
-435
-437
-433
-447
-479
-503
-492
-466
-468
-517
-569
-576
-535
-492
-486
-512
-537
-544
-546
-551
-551
-539
-520
-508
-503
-493
-475
-456
-441
-433
-434
-449
-480
-511
-527
-533
-544
-563
-578
-576
-562
-556
-567
-593
-628
-667
-699
-717
-730
-758
-801
-827
-801
-725
-652
-631
-657
-673
-638
-563
-500
-478
-473
-444
-383
-326
-316
-342
-355
-324
-283
-292
-364
-440
-452
-397
-337
-323
-343
-354
-340
-328
-345
-379
-407
-426
-454
-488
-501
-474
-429
-400
-411
-449
-480
-493
-516
-612
-810
-1050
-1223
-1291
-1348
-1510
-1737
-1823
-1605
-1175
-790
-573
-364
70
721
1320
1620
1648
1618
1653
1675
1550
1268
942
669
441
213
-13
-196
-321
-427
-544
-665
-753
-786
-793
-812
-855
-888
-873
-829
-815
-865
-935
-946
-889
-840
-877
-982
-1062
-1053
-991
-961
-995
-1053
-1081
-1078
-1075
-1092
-1113
-1118
-1113
-1118
-1138
-1171
-1214
-1264
-1310
-1334
-1336
-1335
-1355
-1396
-1435
-1447
-1431
-1408
-1405
-1440
-1510
-1590
-1646
-1668
-1674
-1699
-1760
-1837
-1883
-1874
-1832
-1801
-1806
-1825
-1823
-1791
-1759
-1751
-1753
-1733
-1682
-1633
-1613
-1600
-1542
-1423
-1293
-1216
-1199
-1187
-1123
-1017
-929
-900
-906
-888
-818
-726
-657
-624
-596
-547
-477
-409
-350
-290
-223
-163
-131
-120
-100
-53
6
44
41
10
-11
1
39
65
44
-16
-63
-56
-12
6
-42
-122
-164
-141
-96
-85
-114
-136
-124
-99
-100
-132
-169
-185
-186
-188
-201
-213
-217
-213
-207
-205
-202
-199
-196
-195
-198
-209
-226
-246
-262
-271
-275
-277
-281
-286
-283
-268
-250
-251
-279
-320
-347
-343
-321
-308
-319
-350
-377
-381
-365
-346
-347
-370
-400
-417
-421
-428
-450
-480
-500
-506
-511
-518
-513
-483
-437
-405
-404
-415
-403
-351
-281
-236
-230
-234
-214
-170
-135
-138
-163
-171
-143
-112
-121
-170
-215
-223
-209
-208
-228
-241
-226
-203
-199
-213
-215
-192
-168
-175
-214
-257
-275
-282
-305
-340
-361
-366
-419
-587
-836
-1041
-1131
-1191
-1365
-1640
-1791
-1601
-1126
-645
-336
-77
379
1061
1711
2061
2105
2048
2035
2015
1873
1607
1314
1057
811
546
300
132
36
-66
-222
-401
-533
-586
-595
-614
-660
-712
-740
-738
-732
-746
-776
-801
-803
-791
-787
-809
-847
-873
-871
-850
-838
-853
-882
-903
-905
-897
-895
-899
-899
-894
-905
-951
-1018
-1072
-1094
-1095
-1105
-1139
-1177
-1192
-1175
-1146
-1141
-1178
-1243
-1300
-1323
-1329
-1355
-1419
-1494
-1538
-1544
-1541
-1561
-1604
-1641
-1656
-1651
-1639
-1630
-1622
-1605
-1574
-1527
-1473
-1427
-1396
-1368
-1329
-1282
-1243
-1217
-1188
-1139
-1076
-1023
-984
-941
-872
-778
-682
-602
-535
-468
-397
-329
-269
-216
-173
-143
-125
-99
-53
11
68
106
128
149
176
201
212
205
195
191
199
216
234
247
248
240
228
215
205
190
163
127
96
90
114
148
155
123
79
60
69
66
24
-36
-66
-49
-14
1
0
7
21
21
-2
-18
-1
26
13
-45
-94
-80
-20
14
-16
-72
-91
-56
-13
-10
-47
-82
-90
-78
-71
-70
-67
-60
-62
-82
-112
-131
-133
-134
-153
-189
-224
-245
-257
-273
-295
-308
-298
-274
-263
-275
-287
-260
-182
-89
-30
-15
-12
21
82
132
138
107
77
72
82
83
69
56
57
70
84
88
82
67
50
35
28
27
26
23
15
6
-9
-19
-8
14
16
-11
-51
-79
-133
-280
-518
-743
-869
-942
-1078
-1266
-1313
-1048
-554
-97
189
460
945
1629
2226
2500
2499
2452
2476
2479
2331
2042
1727
1452
1192
916
656
458
305
133
-75
-260
-366
-399
-425
-481
-540
-552
-513
-470
-469
-507
-541
-540
-522
-527
-571
-633
-678
-689
-677
-660
-647
-645
-657
-681
-706
-723
-728
-726
-721
-720
-729
-744
-757
-768
-789
-823
-854
-861
-846
-848
-906
-1003
-1072
-1071
-1031
-1028
-1094
-1182
-1228
-1224
-1218
-1251
-1308
-1347
-1356
-1357
-1371
-1385
-1382
-1364
-1354
-1359
-1361
-1341
-1305
-1275
-1264
-1257
-1231
-1178
-1117
-1064
-1022
-977
-917
-845
-780
-730
-691
-650
-597
-536
-478
-425
-374
-317
-254
-188
-131
-87
-58
-32
9
80
175
261
306
310
310
344
411
470
478
433
378
354
369
396
404
386
361
351
358
367
357
329
303
296
298
282
238
192
183
218
259
273
257
237
231
235
239
238
235
226
205
176
149
123
94
68
64
88
113
111
87
80
113
163
184
158
115
93
100
115
122
126
135
150
161
160
154
147
138
116
71
6
-57
-91
-93
-90
-114
-163
-196
-179
-124
-76
-70
-90
-85
-27
65
145
190
211
229
249
260
257
252
253
254
244
224
203
194
193
197
202
209
208
193
175
171
186
196
172
117
70
62
75
64
16
-44
-64
-15
72
127
61
-144
-393
-539
-546
-559
-744
-1059
-1227
-1009
-482
34
333
546
950
1604
2260
2633
2695
2636
2609
2587
2465
2218
1913
1616
1331
1045
771
522
292
66
-141
-301
-418
-506
-572
-600
-589
-568
-571
-590
-599
-589
-585
-606
-641
-662
-660
-654
-666
-694
-716
-716
-700
-690
-701
-727
-752
-758
-749
-745
-761
-792
-822
-842
-858
-885
-927
-968
-989
-984
-964
-951
-956
-974
-995
-1018
-1058
-1122
-1201
-1268
-1305
-1326
-1358
-1410
-1462
-1480
-1457
-1422
-1411
-1431
-1452
-1450
-1430
-1417
-1418
-1417
-1397
-1367
-1341
-1312
-1256
-1176
-1107
-1080
-1086
-1076
-1019
-936
-869
-840
-828
-793
-714
-604
-498
-429
-404
-395
-364
-293
-202
-124
-71
-28
23
83
142
191
224
238
232
224
240
279
309
306
286
288
326
363
356
310
276
284
308
302
259
222
229
262
269
223
156
125
149
193
213
200
178
162
150
137
130
135
133
100
47
23
61
129
159
124
72
68
115
160
156
122
111
141
179
186
159
132
128
139
140
112
69
36
27
36
42
27
-9
-47
-70
-80
-92
-119
-154
-172
-158
-123
-95
-87
-88
-71
-28
25
72
109
146
183
211
225
234
245
248
228
189
160
171
214
253
258
237
221
231
253
254
226
187
163
155
148
132
112
98
95
108
125
123
95
55
20
-36
-161
-346
-518
-631
-747
-952
-1187
-1243
-979
-524
-149
61
317
857
1615
2255
2539
2552
2544
2605
2614
2442
2124
1796
1520
1257
973
706
504
351
186
-8
-188
-309
-371
-415
-464
-511
-543
-562
-589
-631
-664
-655
-610
-580
-613
-694
-760
-760
-712
-679
-694
-741
-778
-788
-781
-779
-788
-803
-816
-823
-818
-806
-806
-831
-877
-917
-936
-938
-944
-965
-996
-1032
-1067
-1089
-1094
-1097
-1126
-1188
-1249
-1269
-1251
-1241
-1282
-1357
-1409
-1410
-1391
-1404
-1460
-1517
-1530
-1499
-1464
-1456
-1465
-1449
-1380
-1283
-1210
-1187
-1191
-1171
-1112
-1045
-1010
-1000
-976
-915
-831
-756
-698
-642
-576
-506
-441
-377
-308
-231
-152
-72
4
69
120
162
206
249
277
286
290
310
349
392
421
433
439
451
469
478
460
408
346
315
329
352
333
270
218
230
287
314
270
200
177
212
243
220
167
152
193
242
242
200
169
184
221
233
210
179
169
182
198
203
200
198
197
193
182
172
166
159
140
108
77
68
86
111
119
99
63
33
25
35
41
19
-35
-98
-134
-123
-80
-46
-43
-55
-48
-5
51
84
83
70
83
130
186
222
233
240
253
262
250
219
193
187
190
183
165
156
173
209
234
228
198
166
148
142
140
134
126
113
97
91
98
105
99
79
46
-33
-188
-389
-554
-636
-712
-879
-1091
-1150
-907
-461
-66
174
441
962
1684
2292
2551
2542
2513
2558
2540
2319
1955
1624
1396
1184
905
605
396
294
196
24
-191
-358
-429
-445
-463
-505
-554
-589
-604
-597
-575
-555
-556
-583
-619
-647
-664
-677
-687
-682
-665
-655
-657
-665
-674
-689
-720
-751
-764
-760
-766
-797
-823
-808
-765
-754
-807
-885
-914
-876
-840
-883
-1005
-1122
-1159
-1127
-1104
-1143
-1221
-1275
-1273
-1241
-1232
-1268
-1327
-1371
-1381
-1372
-1368
-1374
-1379
-1370
-1343
-1304
-1270
-1243
-1216
-1180
-1132
-1079
-1035
-1009
-996
-980
-941
-872
-781
-691
-622
-578
-542
-493
-426
-352
-290
-250
-224
-189
-129
-49
32
94
141
190
248
300
326
329
337
367
406
430
426
413
425
468
511
523
497
460
440
442
448
437
406
365
333
321
328
341
340
319
291
281
298
322
322
290
245
216
210
212
205
191
185
194
217
244
268
282
286
280
266
254
249
250
247
228
193
166
175
222
270
281
259
241
257
290
301
272
229
199
180
148
95
48
33
40
30
-10
-52
-54
-12
29
30
0
-18
6
61
108
125
126
142
191
255
308
334
339
338
334
325
314
308
312
319
314
289
261
250
266
292
304
290
263
246
255
283
307
297
244
178
136
125
131
127
95
6
-156
-355
-502
-554
-590
-736
-983
-1124
-950
-496
-23
284
531
964
1630
2288
2672
2759
2731
2717
2658
2455
2132
1803
1519
1235
924
643
460
355
235
63
-98
-184
-204
-223
-274
-328
-352
-356
-372
-412
-445
-441
-412
-401
-431
-482
-519
-525
-517
-517
-529
-540
-542
-541
-548
-558
-555
-536
-518
-518
-539
-566
-588
-608
-633
-666
-699
-722
-736
-746
-758
-772
-790
-818
-864
-925
-989
-1037
-1061
-1071
-1087
-1128
-1185
-1226
-1227
-1198
-1174
-1187
-1227
-1252
-1232
-1181
-1141
-1134
-1141
-1125
-1079
-1026
-988
-960
-918
-858
-804
-770
-749
-717
-667
-615
-576
-540
-491
-426
-359
-296
-229
-146
-55
31
104
166
212
232
236
249
294
355
393
395
391
421
484
539
556
549
554
576
587
561
517
499
519
545
537
492
447
439
461
476
454
402
361
361
395
430
432
406
383
388
411
421
403
375
363
372
383
384
380
385
396
395
373
343
322
308
294
283
291
322
354
362
347
336
346
367
374
359
335
317
307
300
301
316
334
327
280
212
158
135
127
104
60
15
-9
-4
24
61
93
110
110
102
105
139
203
274
324
342
341
352
395
453
483
455
385
323
312
346
382
382
351
323
328
357
379
369
333
301
290
291
285
269
263
270
273
251
199
146
130
148
146
52
-146
-360
-483
-515
-583
-780
-1007
-1032
-741
-285
89
336
654
1218
1920
2464
2684
2694
2700
2746
2703
2478
2143
1832
1581
1328
1037
759
557
422
278
97
-79
-195
-246
-275
-311
-345
-361
-367
-385
-422
-451
-449
-432
-440
-489
-551
-584
-580
-572
-581
-597
-599
-592
-601
-629
-651
-640
-612
-601
-621
-644
-642
-622
-617
-637
-658
-656
-642
-658
-718
-796
-852
-878
-900
-942
-993
-1024
-1024
-1017
-1032
-1069
-1101
-1108
-1105
-1124
-1177
-1230
-1247
-1221
-1193
-1200
-1235
-1255
-1231
-1177
-1134
-1118
-1112
-1093
-1057
-1010
-950
-873
-793
-739
-719
-705
-658
-575
-491
-439
-410
-369
-298
-217
-154
-113
-69
-3
75
136
166
184
221
289
367
421
434
422
417
434
459
471
468
465
470
476
474
465
459
464
473
471
457
445
447
457
459
450
444
459
488
500
479
452
457
494
515
478
404
359
377
422
426
379
328
329
375
421
431
417
407
403
389
364
351
369
392
381
339
312
339
405
455
456
427
404
396
381
356
344
361
376
354
301
267
290
340
355
308
231
166
130
110
100
97
87
53
10
4
60
145
194
181
144
136
172
226
267
287
296
305
318
339
361
374
374
371
372
372
368
369
392
427
444
425
389
368
375
385
377
353
333
323
314
307
310
318
306
261
192
139
139
176
182
69
-164
-404
-516
-511
-549
-752
-1006
-1037
-717
-221
165
389
682
1251
1984
2559
2795
2813
2833
2897
2871
2658
2326
1999
1713
1418
1098
811
612
475
323
138
-30
-132
-166
-181
-210
-249
-281
-300
-314
-334
-356
-364
-359
-359
-386
-437
-482
-495
-483
-477
-496
-523
-533
-521
-21846
-5167
-5108
-5082
-5152
-5167
-4992
-4680
-4395
-4212
-4068
-3879
-3647
-3435
-3289
-3182
-3073
-2953
-2841
-2766
-2719
-2677
-2623
-2565
-2532
-2540
-2571
-2591
-2583
-2559
-2539
-2533
-2542
-2560
-2574
-2568
-2537
-2497
-2467
-2457
-2451
-2433
-2405
-2388
-2393
-2406
-2405
-2385
-2357
-2337
-2326
-2316
-2308
-2304
-2295
-2267
-2223
-2189
-2186
-2199
-2184
-2117
-2017
-1926
-1873
-1852
-1847
-1849
-1845
-1821
-1773
-1723
-1706
-1725
-1752
-1758
-1742
-1729
-1738
-1763
-1797
-1845
-1910
-1980
-2032
-2057
-2070
-2096
-2144
-2199
-2246
-2287
-2339
-2411
-2491
-2559
-2606
-2644
-2697
-2770
-2854
-2933
-3000
-3057
-3097
-3118
-3127
-3142
-3170
-3204
-3240
-3284
-3340
-3390
-3409
-3397
-3392
-3424
-3476
-3493
-3450
-3382
-3339
-3338
-3353
-3365
-3383
-3420
-3449
-3427
-3355
-3282
-3255
-3262
-3257
-3214
-3159
-3136
-3157
-3194
-3210
-3202
-3188
-3180
-3174
-3156
-3121
-3064
-2998
-2950
-2938
-2962
-2995
-3003
-2979
-2946
-2933
-2951
-2976
-2986
-2971
-2947
-2927
-2912
-2890
-2870
-2882
-2943
-3014
-3024
-2951
-2861
-2853
-2939
-3023
-3012
-2922
-2857
-2874
-2928
-2937
-2893
-2853
-2850
-2852
-2816
-2763
-2756
-2798
-2826
-2785
-2702
-2647
-2652
-2678
-2673
-2626
-2570
-2539
-2542
-2572
-2618
-2662
-2688
-2689
-2672
-2653
-2648
-2666
-2712
-2767
-2805
-2814
-2810
-2819
-2842
-2859
-2856
-2846
-2844
-2843
-2823
-2787
-2764
-2773
-2793
-2786
-2749
-2719
-2721
-2735
-2720
-2672
-2630
-2634
-2686
-2747
-2778
-2769
-2728
-2683
-2665
-2672
-2671
-2647
-2614
-2593
-2548
-2416
-2202
-2021
-1971
-1992
-1917
-1701
-1535
-1653
-2054
-2482
-2736
-2906
-3234
-3783
-4329
-4621
-4648
-4596
-4588
-4559
-4406
-4142
-3876
-3659
-3449
-3212
-2999
-2876
-2825
-2752
-2611
-2451
-2331
-2266
-2217
-2162
-2128
-2134
-2162
-2171
-2145
-2107
-2094
-2106
-2112
-2083
-2027
-1979
-1958
-1954
-1946
-1937
-1950
-1990
-2019
-2003
-1958
-1939
-1965
-1990
-1963
-1902
-1879
-1926
-1984
-1967
-1866
-1763
-1732
-1769
-1804
-1787
-1725
-1653
-1592
-1551
-1537
-1550
-1566
-1543
-1470
-1389
-1359
-1393
-1433
-1409
-1315
-1222
-1201
-1251
-1301
-1295
-1250
-1233
-1282
-1375
-1460
-1517
-1559
-1602
-1640
-1668
-1707
-1785
-1897
-2000
-2054
-2071
-2099
-2172
-2269
-2340
-2371
-2399
-2458
-2538
-2594
-2610
-2624
-2681
-2771
-2847
-2883
-2897
-2910
-2919
-2908
-2896
-2915
-2969
-3017
-3026
-3013
-3017
-3049
-3076
-3081
-3079
-3086
-3085
-3045
-2969
-2907
-2889
-2900
-2906
-2904
-2910
-2920
-2902
-2844
-2788
-2775
-2791
-2779
-2715
-2643
-2620
-2644
-2662
-2647
-2629
-2645
-2677
-2677
-2631
-2582
-2573
-2599
-2617
-2603
-2579
-2577
-2606
-2642
-2662
-2652
-2623
-2603
-2615
-2661
-2702
-2692
-2620
-2535
-2497
-2518
-2558
-2562
-2520
-2468
-2452
-2477
-2511
-2525
-2524
-2528
-2544
-2551
-2525
-2481
-2450
-2450
-2454
-2423
-2359
-2298
-2272
-2270
-2259
-2222
-2190
-2198
-2257
-2331
-2380
-2392
-2387
-2399
-2439
-2493
-2536
-2554
-2556
-2553
-2557
-2562
-2563
-2557
-2558
-2576
-2611
-2636
-2624
-2569
-2506
-2482
-2508
-2547
-2555
-2533
-2518
-2539
-2584
-2613
-2609
-2595
-2599
-2612
-2603
-2551
-2476
-2421
-2404
-2397
-2366
-2326
-2315
-2339
-2316
-2167
-1932
-1759
-1732
-1754
-1659
-1447
-1330
-1507
-1920
-2322
-2570
-2784
-3163
-3706
-4190
-4421
-4428
-4381
-4366
-4317
-4151
-3883
-3598
-3346
-3110
-2874
-2669
-2542
-2484
-2433
-2334
-2183
-2022
-1919
-1902
-1948
-1992
-1978
-1909
-1840
-1824
-1860
-1902
-1910
-1889
-1865
-1856
-1849
-1828
-1803
-1804
-1837
-1872
-1869
-1824
-1778
-1766
-1781
-1785
-1763
-1735
-1725
-1726
-1712
-1676
-1639
-1624
-1627
-1626
-1612
-1592
-1571
-1544
-1513
-1483
-1456
-1424
-1380
-1338
-1313
-1303
-1281
-1226
-1154
-1099
-1088
-1112
-1145
-1162
-1156
-1132
-1111
-1122
-1173
-1242
-1290
-1305
-1318
-1365
-1442
-1510
-1540
-1551
-1586
-1654
-1730
-1782
-1810
-1839
-1888
-1956
-2041
-2144
-2252
-2331
-2360
-2353
-2363
-2424
-2510
-2569
-2574
-2555
-2559
-2598
-2643
-2665
-2670
-2688
-2727
-2762
-2764
-2740
-2727
-2749
-2793
-2819
-2804
-2763
-2726
-2711
-2707
-2693
-2664
-2633
-2615
-2613
-2610
-2586
-2536
-2482
-2459
-2482
-2525
-2548
-2532
-2499
-2476
-2469
-2455
-2417
-2362
-2320
-2313
-2336
-2364
-2366
-2335
-2292
-2277
-2308
-2364
-2398
-2373
-2302
-2231
-2202
-2217
-2240
-2241
-2218
-2198
-2203
-2219
-2217
-2193
-2179
-2207
-2262
-2295
-2272
-2216
-2177
-2177
-2192
-2187
-2159
-2130
-2112
-2099
-2082
-2068
-2071
-2092
-2119
-2133
-2125
-2093
-2039
-1981
-1942
-1939
-1965
-1991
-1986
-1947
-1898
-1879
-1906
-1963
-2004
-2012
-2009
-2037
-2098
-2150
-2154
-2131
-2149
-2246
-2375
-2435
-2370
-2219
-2082
-2029
-2051
-2088
-2091
-2057
-2019
-2011
-2042
-2089
-2125
-2144
-2157
-2170
-2172
-2153
-2116
-2084
-2071
-2078
-2094
-2110
-2122
-2113
-2065
-1995
-1938
-1912
-1879
-1771
-1580
-1388
-1272
-1214
-1116
-947
-822
-905
-1222
-1612
-1901
-2101
-2388
-2885
-3491
-3965
-4155
-4117
-4015
-3944
-3869
-3717
-3471
-3187
-2926
-2706
-2519
-2358
-2219
-2093
-1969
-1855
-1764
-1702
-1661
-1618
-1567
-1526
-1508
-1511
-1522
-1534
-1546
-1547
-1522
-1470
-1422
-1416
-1447
-1476
-1472
-1442
-1408
-1376
-1334
-1281
-1239
-1228
-1239
-1253
-1265
-1287
-1316
-1328
-1308
-1275
-1259
-1256
-1227
-1145
-1037
-966
-973
-1031
-1073
-1063
-1019
-980
-958
-926
-868
-800
-759
-754
-752
-715
-646
-588
-583
-638
-712
-756
-748
-714
-695
-715
-757
-787
-797
-816
-867
-940
-999
-1033
-1064
-1120
-1198
-1283
-1373
-1478
-1589
-1670
-1696
-1690
-1712
-1796
-1915
-2012
-2048
-2034
-2008
-2012
-2067
-2164
-2268
-2336
-2353
-2346
-2352
-2387
-2432
-2464
-2476
-2477
-2470
-2457
-2439
-2428
-2424
-2415
-2396
-2381
-2388
-2407
-2396
-2334
-2248
-2198
-2214
-2267
-2300
-2288
-2250
-2213
-2180
-2149
-2136
-2163
-2219
-2250
-2217
-2147
755
-3148
-3094
-3038
-2976
-2908
-2838
-2767
-2681
-2570
-2462
-2401
-2402
-2414
-2373
-2271
-2171
-2123
-2115
-2094
-2042
-1994
-1986
-1986
-1943
-1857
-1801
-1836
-1928
-1982
-1944
-1854
-1794
-1792
-1815
-1818
-1797
-1770
-1747
-1730
-1729
-1754
-1795
-1830
-1852
-1870
-1890
-1896
-1870
-1829
-1814
-1849
-1905
-1935
-1929
-1923
-1954
-2010
-2045
-2034
-1997
-1979
-1990
-2002
-1984
-1939
-1904
-1913
-1964
-2021
-2045
-2020
-1971
-1942
-1961
-2009
-2038
-2014
-1966
-1962
-2032
-2122
-2143
-2064
-1961
-1933
-1994
-2069
-2084
-2045
-2021
-2047
-2089
-2097
-2081
-2096
-2156
-2203
-2168
-2060
-1966
-1962
-2038
-2111
-2116
-2067
-2024
-2025
-2050
-2062
-2050
-2036
-2043
-2068
-2097
-2129
-2169
-2215
-2249
-2261
-2265
-2287
-2328
-2351
-2321
-2252
-2195
-2181
-2195
-2206
-2214
-2230
-2245
-2224
-2160
-2098
-2089
-2125
-2135
-2073
-1974
-1921
-1952
-2030
-2087
-2086
-2038
-1978
-1945
-1958
-1994
-1998
-1932
-1833
-1789
-1850
-1972
-2059
-2056
-1994
-1947
-1956
-2005
-2060
-2087
-2071
-2024
-1988
-2016
-2110
-2207
-2254
-2283
-2393
-2614
-2836
-2928
-2914
-2958
-3141
-3304
-3183
-2714
-2125
-1697
-1450
-1153
-639
-20
427
553
464
366
328
263
61
-274
-640
-938
-1157
-1346
-1557
-1781
-1972
-2106
-2212
-2340
-2476
-2542
-2497
-2413
-2408
-2505
-2597
-2583
-2495
-2457
-2523
-2604
-2592
-2506
-2464
-2537
-2655
-2685
-2597
-2491
-2472
-2546
-2623
-2621
-2549
-2477
-2459
-2492
-2525
-2519
-2489
-2482
-2535
-2628
-2706
-2731
-2718
-2718
-2759
-2826
-2881
-2901
-2893
-2885
-2900
-2942
-2985
-3006
-3007
-3019
-3062
-3119
-3148
-3135
-3115
-3130
-3173
-3198
-3172
-3118
-3081
-3069
-3057
-3024
-2986
-2967
-2960
-2928
-2860
-2778
-2711
-2653
-2591
-2524
-2474
-2442
-2394
-2300
-2175
-2074
-2026
-2002
-1951
-1861
-1766
-1696
-1649
-1600
-1549
-1521
-1536
-1574
-1586
-1533
-1427
-1326
-1292
-1331
-1382
-1375
-1306
-1237
-1226
-1261
-1290
-1288
-1276
-1280
-1290
-1285
-1271
-1275
-1302
-1323
-1311
-1286
-1291
-1335
-1393
-1426
-1426
-1409
-1397
-1408
-1448
-1503
-1541
-1537
-1497
-1465
-1479
-1534
-1593
-1617
-1596
-1554
-1527
-1536
-1569
-1600
-1615
-1625
-1637
-1639
-1617
-1583
-1571
-1595
-1630
-1642
-1631
-1624
-1644
-1676
-1702
-1710
-1707
-1691
-1660
-1624
-1600
-1592
-1579
-1554
-1540
-1562
-1615
-1669
-1699
-1696
-1663
-1611
-1561
-1541
-1555
-1566
-1544
-1511
-1523
-1593
-1666
-1693
-1694
-1736
-1836
-1924
-1925
-1841
-1754
-1729
-1756
-1785
-1784
-1756
-1714
-1658
-1593
-1546
-1533
-1543
-1547
-1525
-1489
-1469
-1475
-1500
-1529
-1551
-1563
-1565
-1554
-1524
-1475
-1428
-1415
-1440
-1477
-1491
-1479
-1478
-1511
-1555
-1566
-1532
-1495
-1499
-1541
-1579
-1589
-1595
-1646
-1735
-1803
-1813
-1809
-1885
-2054
-2204
-2219
-2142
-2155
-2349
-2561
-2508
-2106
-1580
-1204
-995
-718
-225
333
686
749
693
688
694
562
256
-94
-360
-556
-766
-1003
-1196
-1310
-1411
-1574
-1779
-1933
-1983
-1961
-1951
-1988
-2045
-2086
-2101
-2108
-2120
-2130
-2119
-2085
-2049
-2043
-2084
-2149
-2190
-2168
-2092
-2020
-2016
-2089
-2174
-2195
-2139
-2077
-2079
-2140
-2187
-2172
-2130
-2131
-2189
-2239
-2222
-2161
-2132
-2177
-2266
-2343
-2389
-2430
-2485
-2530
-2538
-2516
-2509
-2548
-2614
-2655
-2651
-2631
-2644
-2700
-2754
-2771
-2760
-2758
-2772
-2765
-2704
-2608
-2533
-2514
-2519
-2504
-2452
-2390
-2339
-2297
-2255
-2217
-2189
-2162
-2111
-2025
-1925
-1836
-1766
-1699
-1624
-1557
-1516
-1494
-1453
-1368
-1260
-1182
-1168
-1193
-1195
-1138
-1046
-974
-946
-944
-934
-912
-893
-887
296
318
364
422
482
549
630
698
718
689
653
638
616
541
422
330
315
342
344
313
312
388
502
581
617
660
723
758
727
673
688
792
900
921
860
798
814
917
1064
1209
1322
1377
1363
1300
1192
992
626
95
-453
-830
-993
-1103
-1325
-1584
-1579
-1103
-315
362
654
703
888
1385
2002
2410
2491
2403
2369
2437
2517
2524
2451
2299
2037
1658
1247
938
790
740
693
637
646
790
1019
1179
1140
910
615
364
155
-85
-379
-655
-810
-819
-740
-649
-576
-516
-460
-410
-361
-316
-291
-310
-351
-351
-267
-138
-59
-68
-106
-91
-34
-25
-108
-207
-202
-86
13
-15
-139
-226
-213
-179
-225
-334
-395
-343
-253
-247
-361
-521
-655
-771
-913
-1077
-1200
-1233
-1197
-1150
-1111
-1052
-951
-837
-764
-756
-780
-781
-740
-692
-687
-727
-757
-704
-543
-325
-126
12
109
204
305
377
390
351
294
236
169
98
66
114
222
317
358
391
493
664
805
823
736
661
695
819
931
958
912
863
868
932
1018
1083
1105
1092
1063
1028
975
892
794
718
684
670
633
569
525
556
649
724
717
644
583
579
604
612
617
677
801
906
899
792
703
719
782
752
565
317
165
163
213
186
46
-145
-301
-390
-423
-417
-379
-322
-266
-220
-171
-107
-34
18
24
-21
-96
-164
-187
-145
-48
66
152
190
193
187
183
172
150
139
161
214
272
309
335
385
459
508
488
401
307
264
272
286
273
246
242
279
333
368
364
331
288
256
247
266
305
340
345
311
276
297
378
444
380
157
-118
-295
-356
-436
-654
-917
-968
-659
-130
329
596
825
1213
1725
2119
2203
2024
1778
1590
1438
1272
1089
922
773
632
518
452
406
323
180
32
-79
-173
-275
-353
-347
-274
-236
-313
-455
-543
-534
-496
-496
-509
-464
-347
-225
-159
-145
-138
-125
-122
-134
-149
-164
-203
-287
-399
-490
-505
-407
-206
21
159
133
-9
-147
-210
-250
-382
-641
-934
-1124
-1146
-1025
-851
-719
-687
-749
-838
-878
-862
-873
-989
-1200
-1396
-1487
-1475
-1421
-1360
-1274
-1156
-1066
-1079
-1189
-1289
-1269
-1131
-974
-897
-902
-917
-886
-820
-765
-734
-703
-659
-620
-595
-565
-502
-414
-357
-366
-409
-417
-339
-168
62
314
548
707
765
773
801
849
839
710
531
470
617
887
1105
1182
1164
1131
1099
1032
919
789
652
488
305
187
217
380
556
632
595
518
469
456
460
467
467
459
446
452
498
569
607
568
477
391
351
355
376
402
441
490
520
506
449
379
318
264
213
172
164
210
295
388
458
492
509
539
591
630
611
519
398
314
295
310
310
289
285
335
426
506
538
530
516
512
513
510
509
522
545
562
568
573
598
640
675
688
682
684
702
721
721
702
684
678
678
677
676
677
678
677
702
766
847
915
950
962
933
824
635
446
322
199
-47
-390
-595
-445
-26
330
424
413
608
1077
1569
1821
1844
1840
1917
1997
1991
1942
1938
1949
1864
1657
1443
1328
1263
1110
834
547
368
297
242
161
102
132
240
346
387
367
336
330
340
325
254
136
17
-55
-68
-48
-24
-11
-15
-46
-109
-178
-213
-204
-194
-231
-300
-328
-271
-176
-139
-197
-283
-309
-269
-248
-316
-447
-552
-575
-544
-526
-560
-630
-710
-791
-867
-922
-935
-934
-973
-1080
-1209
-1276
-1249
-1178
-1136
-1146
-1159
-1135
-1087
-1060
-1069
-1081
-1054
-1001
-965
-973
-997
-986
-920
-827
-744
-683
-617
-530
-428
-333
-254
-188
-123
-60
-11
22
56
109
178
231
232
199
190
247
340
395
377
331
344
442
570
661
698
712
724
727
712
689
667
627
549
453
408
451
546
608
591
529
494
505
514
464
349
217
112
32
-46
-111
-113
-14
156
318
405
429
453
520
597
600
464
231
42
27
184
375
461
439
429
520
660
707
596
388
211
115
70
17
-52
-86
-29
128
299
341
179
-109
-331
-371
-299
-264
-299
-282
-105
176
399
484
503
565
670
724
650
479
316
257
331
485
621
671
656
654
714
788
796
722
642
631
683
744
792
848
932
1003
1003
901
728
549
405
297
220
174
150
121
41
-89
-206
-261
-319
-508
-844
-1134
-1138
-837
-485
-325
-286
-67
494
1198
1685
1820
1790
1839
2000
2114
2059
1887
1715
1584
1463
1342
1250
1194
1112
954
757
609
551
532
478
384
306
277
263
202
98
21
28
76
53
-99
-308
-437
-424
-347
-331
-404
-478
-449
-320
-194
-171
-253
-355
-406
-405
-398
-420
-447
-443
-404
-362
-355
-388
-422
-421
-383
-330
-299
-319
-397
-516
-645
-753
-834
-906
-988
-1082
-1175
-1243
-1260
-1216
-1141
-1106
-1163
-1291
-1398
-1426
-1413
-1444
-1542
-1621
-1593
-1469
-1339
-1260
-1203
-1111
-994
-907
-867
-824
-728
-601
-507
-461
-404
-293
-156
-57
-8
40
131
245
336
399
471
556
617
623
608
630
696
755
773
785
853
985
1116
1185
1189
1164
1137
1100
1049
1003
984
984
981
974
988
1045
1127
1180
1160
1078
981
914
887
877
855
812
763
727
721
743
771
778
753
704
648
596
547
506
483
485
491
471
423
376
366
382
380
329
246
184
170
189
198
167
106
54
52
105
173
202
176
140
154
226
301
315
269
222
232
299
384
448
484
508
534
570
613
657
687
691
669
630
589
558
543
538
527
505
479
465
465
456
409
324
241
207
238
304
357
372
375
410
476
543
591
625
639
567
352
50
-188
-304
-433
-745
-1170
-1386
-1166
-682
-340
-308
-316
7
679
1328
1623
1624
1633
1812
2043
2134
2044
1881
1740
1628
1520
1415
1309
1175
995
808
661
551
443
319
214
161
147
120
56
-17
-56
-42
3
47
73
69
29
-38
-100
-117
-84
-38
-14
-2
37
95
100
7
-132
-208
-194
-182
-260
-389
-448
-399
-342
-380
-481
-529
-497
-486
-587
-749
-836
-795
-711
-696
-769
-854
-889
-890
-917
-1006
-1155
-1325
-1468
-1545
-1555
-1528
-1489
-1438
-1371
-1305
-1278
-1296
-1324
-1323
-1294
-1265
-1247
-1216
-1144
-1037
-923
-829
-773
-759
-780
-811
-816
-783
-726
-652
-541
-367
-152
39
163
237
318
429
532
581
577
570
605
677
759
831
891
930
932
903
881
893
921
933
924
924
959
1019
1068
1097
1114
1115
1077
995
900
829
783
746
727
747
797
824
799
765
795
886
951
913
802
714
706
748
779
778
776
810
868
907
888
804
679
560
486
456
442
414
368
330
328
367
429
475
484
461
425
395
371
344
321
324
358
400
414
381
313
242
196
175
158
127
89
76
107
165
206
206
175
138
98
44
-16
-66
-93
-108
-112
-75
33
195
339
408
411
400
409
413
370
282
198
166
190
239
275
284
262
211
139
73
38
33
35
15
-24
-46
-19
57
148
234
335
454
549
563
491
375
227
-24
-430
-905
-1273
-1468
-1626
-1885
-2152
-2164
-1810
-1315
-1001
-910
-772
-354
247
739
976
1080
1231
1451
1637
1721
1725
1669
1514
1255
987
837
820
812
689
462
256
175
197
196
92
-83
-232
-304
-333
-365
-396
-416
-469
-611
-813
-964
-990
-948
-958
-1058
-1174
-1226
-1199
-1117
-994
-857
-783
-835
-967
-1018
-876
-610
-405
-367
-423
-416
-264
-33
131
121
-37
-220
-322
-354
-422
-592
-818
-995
-1089
-1174
-1355
-1673
-2096
-2555
-2964
-3256
-3442
-3624
-3878
-4122
-4148
-3838
-3311
-2808
-2433
-2076
-1609
-1093
-695
-481
-347
-179
-10
28
-112
-318
-443
-447
-394
-347
-301
-219
-89
72
234
362
430
436
397
338
265
179
107
87
129
197
245
271
304
368
452
526
583
632
681
710
696
631
523
389
266
205
244
375
548
717
869
1020
1176
1314
1402
1420
1361
1217
1001
769
604
548
558
556
528
544
675
897
1092
1165
1113
1011
928
881
840
758
604
401
226
151
177
228
246
244
259
256
144
-101
-372
-529
-543
-493
-436
-317
-48
360
773
1058
1195
1237
1221
1114
885
577
311
184
193
242
240
189
165
223
330
393
364
274
177
96
32
-2
23
102
184
214
190
162
175
234
305
343
327
266
201
172
176
168
114
43
24
89
203
309
386
454
516
539
492
391
291
213
126
-4
-162
-289
-332
-305
-280
-287
-298
-277
-261
-353
-598
-900
-1123
-1269
-1487
-1850
-2167
-2111
-1589
-895
-434
-277
-107
385
1101
1630
1710
1509
1400
1538
1733
1730
1513
1281
1185
1174
1098
905
674
482
311
105
-144
-359
-460
-460
-434
-444
-481
-491
-449
-391
-378
-424
-486
-502
-442
-342
-280
-314
-430
-546
-575
-503
-407
-374
-418
-463
-438
-356
-277
-233
-202
-179
-219
-391
-673
-959
-1159
-1282
-1399
-1542
-1665
-1721
-1711
-1665
-1605
-1540
-1494
-1508
-1596
-1707
-1758
-1717
-1633
-1583
-1597
-1631
-1620
-1557
-1511
-1538
-1608
-1620
-1518
-1375
-1324
-1407
-1518
-1517
-1402
-1315
-1384
-1574
-1708
-1660
-1479
-1315
-1243
-1199
-1092
-931
-820
-827
-899
-945
-949
-971
-1041
-1093
-1027
-821
-566
-362
-225
-103
41
191
312
400
477
546
594
622
662
749
864
950
970
957
981
1058
1123
1108
1030
980
1019
1101
1123
1058
985
984
1033
1033
929
785
694
678
672
628
581
598
697
819
884
870
818
771
729
662
549
412
293
226
223
272
343
397
412
402
402
418
418
360
261
207
264
401
523
558
524
479
440
385
312
267
296
372
425
427
420
454
517
544
500
409
322
251
188
144
161
263
414
551
637
703
795
914
1001
1000
924
847
832
878
928
938
921
916
937
954
946
921
905
894
862
810
779
804
865
894
861
802
777
795
812
792
737
659
581
527
513
505
415
193
-81
-256
-303
-365
-572
-827
-862
-538
-42
317
452
580
927
1440
1859
2012
1982
1965
2036
2117
2122
2053
1963
1857
1715
1554
1417
1315
1185
966
697
463
324
261
224
196
196
218
221
182
136
140
199
255
244
162
61
4
19
95
187
238
232
214
242
316
365
328
231
164
166
177
114
-14
-120
-134
-89
-73
-141
-276
-406
-472
-470
-454
-497
-618
-759
-826
-791
-721
-695
-722
-739
-703
-640
-606
-618
-646
-680
-745
-849
-954
-1013
-1031
-1052
-1105
-1169
-1203
-1187
-1133
-1057
-956
-841
-740
-678
-658
-655
-632
-563
-445
-339
-327
-420
-513
-456
-217
79
256
257
181
178
302
467
526
395
135
-78
-77
163
495
731
812
829
908
1070
1235
1332
1345
1271
1119
950
872
941
1080
1120
992
802
710
728
719
585
404
338
421
523
514
434
439
589
774
827
712
546
463
475
509
521
536
602
711
800
808
723
586
462
408
434
493
522
497
449
438
488
564
596
531
371
181
49
30
113
222
276
271
255
285
359
424
443
420
378
336
321
366
497
683
831
859
767
638
544
495
439
333
209
152
215
366
519
608
641
675
745
826
870
862
830
813
822
848
872
880
864
839
841
896
973
994
893
711
579
556
556
404
34
-393
-641
-660
-661
-867
-1219
-1403
-1198
-734
-361
-263
-272
-93
360
892
1274
1458
1551
1640
1712
1736
1736
1750
1764
1716
1568
1367
1200
1125
1111
1083
972
762
524
357
314
375
449
453
371
254
174
166
192
167
43
-122
-208
-147
-5
81
46
-43
-80
-41
-16
-86
-221
-315
-303
-227
-166
-136
-94
-4
92
114
32
-90
-168
-182
-190
-252
-363
-459
-493
-492
-510
-568
-632
-664
-667
-682
-727
-777
-799
-810
-860
-986
-1163
-1313
-1375
-1350
-1295
-1265
-1260
-1235
-1156
-1039
-930
-863
-837
-835
-839
-835
-812
-761
-681
-584
-497
-436
-383
-302
-166
-3
124
184
228
334
513
681
757
759
775
852
948
1003
1017
1039
1085
1119
1123
1125
1153
1180
1153
1079
1022
1031
1081
1110
1108
1119
1171
1236
1274
1280
1293
1337
1396
1418
1364
1242
1103
1014
1002
1027
1020
951
878
886
993
1116
1151
1074
954
885
890
914
894
820
742
718
761
839
905
934
932
917
896
872
847
828
817
811
814
846
915
997
1037
1009
937
864
807
740
653
574
529
500
446
375
351
417
527
588
577
565
633
771
883
898
845
816
874
979
1037
990
887
834
886
983
1018
968
918
946
1031
1083
1075
1060
1080
1102
1078
1034
1044
1120
1179
1138
1028
968
1010
1058
959
664
309
80
3
-108
-450
-940
-1213
-983
-383
135
289
282
552
1239
2017
2459
2488
2390
2434
2593
2683
2627
2528
2487
2471
2381
2188
1968
1799
1674
1533
1330
1091
893
800
820
911
1018
1106
1164
1186
1181
1165
1154
1149
1122
1034
879
703
576
542
592
655
662
600
528
520
582
640
622
539
477
501
579
617
566
469
402
376
337
247
148
107
134
165
133
50
-18
-38
-39
-77
-171
-285
-372
-418
-448
-495
-564
-638
-690
-721
-752
-802
-863
-911
-924
-917
-921
-942
-960
-943
-891
-835
-815
-837
-869
-863
-788
-653
-494
-353
-245
-157
-70
29
139
246
338
408
465
529
612
705
783
829
860
915
1021
1145
1227
1238
1219
1242
1341
1471
1547
1532
1468
1427
1430
1438
1408
1342
1282
1253
1251
1263
1295
1361
1442
1496
1499
1468
1444
1427
1379
1281
1165
1085
1049
1024
987
960
968
996
1007
1001
1024
1096
1138
1041
818
634
647
828
987
984
868
798
839
903
880
786
725
741
767
732
671
682
793
909
908
762
550
377
287
260
268
289
324
389
497
640
781
874
896
853
749
577
362
193
168
302
502
674
816
988
1199
1356
1371
1266
1142
1060
973
828
656
541
516
536
538
521
524
570
652
740
803
826
811
798
843
945
1026
1009
916
835
822
848
843
771
625
388
78
-212
-398
-535
-789
-1213
-1582
-1577
-1156
-637
-363
-310
-139
374
1057
1555
1730
1763
1875
2067
2177
2139
2037
1970
1911
1779
1577
1399
1303
1240
1138
1000
884
826
793
727
603
446
295
190
151
156
155
115
74
108
230
345
334
191
34
-27
-10
-13
-75
-136
-147
-152
-214
-295
-283
-144
14
63
1
-72
-96
-106
-152
-221
-289
-383
-560
-779
-907
-866
-743
-692
-741
-772
-694
-570
-551
-693
-904
-1071
-1187
-1313
-1466
-1582
-1578
-1438
-1223
-1027
-918
-914
-976
-1061
-1155
-1280
-1445
-1596
-1652
-1576
-1402
-1183
-946
-707
-505
-378
-315
-258
-172
-94
-74
-95
-67
67
264
432
529
583
627
654
643
617
640
736
851
912
917
933
1016
1129
1183
1133
1030
959
948
958
943
915
906
914
903
849
773
720
709
727
758
789
809
809
797
802
841
889
895
846
777
740
749
769
763
727
682
660
669
687
676
603
475
331
202
72
-95
-296
-462
-509
-416
-228
-9
221
481
764
1027
1212
1285
1256
1160
1033
897
757
615
486
394
364
389
432
463
476
482
492
493
479
450
419
393
377
378
396
415
410
370
323
310
341
386
417
436
463
495
493
429
337
276
274
289
268
208
156
156
207
269
314
340
347
326
273
200
127
66
23
-4
-6
16
33
29
21
39
52
-51
-358
-798
-1165
-1337
-1428
-1647
-2001
-2198
-1944
-1303
-664
-335
-221
23
567
1208
1616
1675
1556
1481
1512
1565
1553
1460
1318
1169
1046
948
848
705
516
330
180
52
-85
-222
-315
-349
-364
-404
-452
-456
-404
-349
-345
-387
-414
-396
-360
-358
-400
-442
-438
-396
-360
-353
-353
-325
-280
-273
-347
-472
-568
-580
-528
-485
-499
-558
-610
-627
-616
-607
-628
-702
-823
-960
-1062
-1100
-1090
-1077
-1103
-1172
-1243
-1276
-1256
-1216
-1206
-1253
-1333
-1391
-1399
-1372
-1362
-1420
-1550
-1698
-1786
-1779
-1725
-1706
-1741
-1759
-1679
-1522
-1400
-1372
-1363
-1246
-999
-736
-586
-556
-552
-506
-448
-454
-555
-704
-822
-856
-799
-689
-577
-479
-351
-139
144
397
515
487
409
381
421
470
480
460
449
467
512
576
655
743
819
867
886
888
881
867
850
839
830
814
792
796
864
991
1127
1213
1218
1161
1091
1040
1001
936
831
742
745
844
943
953
912
934
1056
1158
1098
898
741
756
872
921
856
792
833
925
922
772
560
394
267
107
-104
-287
-359
-335
-297
-287
-268
-184
-40
98
167
156
110
76
66
61
42
12
11
77
199
317
375
373
365
396
448
472
448
407
380
362
334
300
290
326
398
469
510
518
508
498
505
527
554
572
579
579
572
554
529
509
501
495
482
466
467
501
548
566
546
524
530
504
333
-17
-418
-691
-805
-918
-1168
-1447
-1477
-1123
-577
-159
25
181
550
1104
1584
1786
1759
1701
1732
1816
1871
1871
1819
1711
1536
1323
1146
1046
985
889
733
551
414
360
373
388
344
225
71
-44
-77
-39
5
9
-19
-24
23
84
92
22
-73
-118
-92
-46
-38
-69
-86
-54
2
41
38
11
-11
-26
-48
-82
-128
-185
-254
-332
-414
-500
-595
-687
-757
-797
-827
-863
-883
-849
-770
-728
-798
-946
-1065
-1096
-1087
-1109
-1163
-1181
-1146
-1132
-1204
-1324
-1400
-1404
-1406
-1469
-1578
-1666
-1698
-1667
-1571
-1410
-1234
-1125
-1094
-1050
-907
-701
-554
-510
-492
-413
-293
-213
-186
-127
13
167
229
211
244
400
586
649
558
456
512
727
930
960
819
657
614
696
785
769
636
476
410
482
630
747
774
732
676
601
476
325
262
362
542
631
566
482
542
722
826
704
418
162
45
26
14
-6
14
114
276
459
607
665
635
581
563
552
459
257
70
66
239
383
318
101
-41
19
169
206
99
9
61
183
211
102
-27
-71
-69
-127
-235
-267
-154
11
72
11
-43
24
165
248
226
165
162
226
305
371
448
547
623
620
528
394
275
202
161
127
106
126
206
326
442
515
545
543
500
402
271
177
171
242
326
371
386
410
467
531
565
553
505
409
234
-32
-341
-594
-740
-840
-1005
-1236
-1382
-1271
-918
-539
-336
-281
-157
192
679
1072
1235
1231
1225
1294
1394
1445
1413
1331
1247
1180
1130
1086
1042
990
936
867
754
583
389
241
185
190
188
140
77
60
105
171
203
179
121
62
13
-31
-80
-124
-139
-108
-54
-31
-83
-190
-284
-315
-305
-306
-327
-339
-323
-304
-307
-324
-315
-274
-258
-311
-415
-499
-514
-492
-495
-557
-660
-763
-835
-867
-881
-913
-996
-1123
-1240
-1288
-1261
-1217
-1218
-1270
-1317
-1304
-1243
-1205
-1242
-1331
-1402
-1401
-1332
-1235
-1157
-1113
-1080
-1006
-858
-658
-492
-430
-446
-428
-298
-100
47
85
66
82
161
260
337
387
422
437
425
420
472
593
730
817
838
848
913
1057
1222
1319
1301
1213
1148
1155
1182
1132
977
798
699
701
746
767
759
765
816
893
952
971
964
962
975
990
988
967
939
916
892
857
810
760
717
681
653
638
638
654
678
696
693
669
645
646
670
678
639
579
569
637
717
722
643
563
550
572
547
452
355
332
369
399
394
388
412
453
487
505
517
514
479
432
430
507
623
705
721
708
720
773
844
902
911
842
713
608
613
720
815
800
706
660
723
820
841
781
730
747
788
771
687
596
548
529
523
555
641
725
740
706
727
831
865
636
156
-318
-573
-687
-912
-1297
-1547
-1357
-803
-290
-82
-1
340
1033
1747
2101
2078
1990
2085
2303
2419
2333
2139
1959
1813
1655
1479
1332
1234
1143
1033
922
845
798
743
668
597
547
501
430
340
271
246
250
247
226
202
200
226
262
288
295
299
317
354
385
374
313
234
187
194
230
250
231
182
127
75
20
-40
-94
-130
-156
-195
-249
-286
-281
-251
-257
-351
-525
-717
-866
-958
-1019
-1076
-1135
-1175
-1175
-1141
-1109
-1120
-1182
-1255
-1298
-1308
-1322
-1367
-1424
-1446
-1406
-1310
-1186
-1057
-942
-854
-789
-726
-649
-570
-520
-503
-487
-431
-331
-215
-111
-17
79
179
271
352
433
520
591
617
594
557
542
547
543
531
561
680
867
1034
1117
1135
1166
1247
1338
1364
1294
1169
1059
1011
1022
1056
1071
1042
984
940
941
974
1000
980
912
823
755
727
729
734
722
703
695
690
657
596
553
585
680
761
770
731
723
775
831
813
700
548
440
422
484
566
596
548
472
452
516
599
613
539
442
395
398
408
405
414
454
505
533
529
507
462
373
251
162
166
248
327
361
409
558
791
975
993
876
754
706
684
611
517
505
616
759
813
786
806
957
1156
1224
1085
843
672
645
686
689
644
625
677
752
772
735
720
771
825
778
604
410
340
417
490
374
34
-337
-503
-444
-412
-672
-1167
-1505
-1344
-763
-194
27
8
143
666
1407
2003
2268
2297
2287
2317
2345
2329
2278
2196
2059
1857
1637
1466
1360
1264
1129
960
801
683
601
535
483
459
464
474
440
335
192
95
105
186
218
125
-25
-90
-5
152
263
295
311
350
359
297
221
241
362
461
427
311
271
382
535
552
392
178
32
-73
-257
-541
-790
-868
-823
-845
-1027
-1216
-1187
-911
-619
-555
-727
-930
-994
-964
-1017
-1243
-1548
-1773
-1864
-1893
-1929
-1938
-1830
-1601
-1391
-1356
-1502
-1664
-1683
-1570
-1462
-1437
-1402
-1199
-788
-301
112
414
658
869
1005
1026
971
944
1009
1143
1290
1413
1507
1560
1560
1508
1435
1369
1308
1250
1231
1298
1458
1646
1775
1798
1718
1547
1281
955
660
496
490
570
647
687
723
795
899
982
984
879
707
555
500
549
645
721
760
785
816
836
825
780
713
640
569
517
508
542
588
606
584
547
528
541
569
594
608
626
657
696
722
714
676
631
603
592
581
560
536
525
526
524
511
490
464
415
325
209
127
126
185
234
237
234
288
407
529
588
591
590
605
609
578
535
522
544
565
563
560
581
603
581
513
448
427
430
404
337
274
256
270
270
245
232
261
311
336
329
322
350
393
395
347
299
288
251
60
-318
-732
-985
-1073
-1207
-1546
-1937
-2008
-1565
-848
-292
-69
65
441
1073
1651
1909
1876
1781
1767
1793
1771
1692
1595
1479
1305
1079
870
738
658
548
373
159
-25
-130
-156
-138
-122
-146
-214
-290
-340
-352
-329
-279
-216
-174
-185
-255
-338
-378
-357
-315
-304
-333
-370
-386
-382
-375
-377
-387
-397
-406
-423
-457
-509
-569
-620
-653
-673
-698
-734
-779
-831
-888
-948
-1001
-1045
-1096
-1174
-1277
-1370
-1415
-1425
-1451
-1535
-1659
-1767
-1827
-1858
-1900
-1962
-2013
-2026
-2002
-1957
-1897
-1812
-1710
-1626
-1597
-1612
-1624
-1593
-1532
-1482
-1467
-1462
-1433
-1365
-1264
-1139
-997
-871
-799
-777
-742
-637
-489
-387
-371
-377
-312
-174
-58
-30
-40
19
180
360
463
484
496
550
614
635
611
588
601
631
639
627
630
679
754
811
823
811
804
799
773
723
693
717
774
801
771
728
730
762
755
685
618
627
688
700
619
530
542
648
735
726
675
674
723
740
698
674
731
809
782
644
532
565
694
767
717
631
630
722
802
767
606
383
174
13
-115
-259
-432
-577
-606
-497
-337
-218
-144
-34
144
313
381
360
353
419
497
492
404
332
358
466
576
646
703
792
915
1033
1111
1142
1138
1117
1093
1071
1052
1023
971
899
838
817
849
919
995
1033
1010
937
839
765
745
752
707
538
266
20
-91
-109
-209
-478
-762
-780
-428
78
425
552
705
1120
1732
2253
2499
2564
2639
2767
2839
2784
2675
2603
2546
2411
2185
1956
1809
1711
1578
1393
1197
1021
854
689
563
521
538
548
518
477
466
476
469
444
423
407
363
269
166
125
172
257
320
345
361
381
391
376
338
294
248
200
163
147
155
173
185
188
178
131
29
-108
-223
-268
-263
-278
-374
-527
-646
-662
-604
-578
-671
-866
-1061
-1159
-1154
-1108
-1075
-1071
-1078
-1079
-1052
-991
-923
-900
-952
-1043
-1095
-1069
-996
-938
-912
-879
-796
-665
-529
-424
-352
-300
-258
-209
-138
-42
63
145
200
251
335
455
580
680
746
786
799
779
746
752
826
930
989
977
948
985
1095
1198
1201
1078
889
724
636
607
581
526
469
464
528
626
720
824
938
974
826
535
310
318
480
538
357
94
8
153
337
386
339
373
537
668
603
376
184
161
221
164
-96
-426
-595
-492
-222
1
66
51
103
225
269
114
-152
-322
-336
-337
-475
-658
-655
-412
-164
-162
-370
-510
-430
-282
-295
-445
-491
-272
97
375
452
417
397
418
425
354
191
-15
-177
-213
-130
-28
34
110
283
496
576
433
188
51
61
77
-16
-153
-184
-70
65
96
34
-11
1
3
-71
-184
-252
-285
-389
-601
-819
-913
-917
-1005
-1240
-1436
-1333
-902
-408
-125
-19
152
522
947
1189
1197
1128
1126
1163
1147
1094
1115
1239
1334
1241
957
643
442
330
202
15
-162
-225
-169
-77
-20
-9
-14
-25
-58
-127
-225
-324
-389
-390
-332
-276
-310
-449
-592
-621
-528
-434
-452
-554
-609
-541
-415
-348
-375
-431
-451
-455
-493
-575
-637
-632
-594
-591
-660
-759
-820
-821
-799
-811
-882
-983
-1049
-1028
-933
-848
-873
-1022
-1203
-1304
-1308
-1307
-1387
-1524
-1602
-1558
-1451
-1383
-1371
-1340
-1246
-1148
-1137
-1219
-1311
-1357
-1387
-1442
-1482
-1422
-1264
-1100
-991
-881
-683
-430
-263
-250
-284
-218
-48
80
85
52
117
278
407
424
386
408
512
617
655
640
626
626
617
594
589
626
676
685
636
581
593
686
799
860
847
798
757
741
735
723
691
623
528
448
431
468
494
450
358
287
263
254
235
233
280
345
355
293
223
213
245
243
175
91
53
62
57
-6
-96
-140
-107
-33
8
-25
-101
-142
-102
-19
19
-28
-120
-171
-142
-78
-52
-82
-125
-126
-71
7
88
172
257
324
347
336
330
358
400
419
413
419
452
475
443
378
350
402
477
480
401
314
294
333
380
403
412
425
434
424
401
386
374
339
284
242
219
160
7
-217
-403
-473
-502
-659
-992
-1308
-1324
-962
-455
-107
25
180
583
1176
1675
1874
1835
1759
1750
1742
1656
1514
1396
1333
1282
1209
1123
1035
913
741
564
443
378
303
176
41
5
82
164
142
39
-29
-1
58
47
-34
-99
-90
-54
-56
-74
-39
51
91
-7
-183
-291
-268
-212
-259
-420
-563
-562
-433
-306
-287
-371
-466
-501
-480
-460
-491
-564
-636
-669
-676
-702
-764
-821
-827
-801
-814
-924
-1093
-1217
-1236
-1180
-1142
-1167
-1225
-1262
-1257
-1228
-1189
-1130
-1068
-1045
-1073
-1108
-1081
-982
-886
-872
-931
-973
-938
-855
-787
-723
-603
-407
-219
-115
-65
25
186
333
385
362
354
384
393
364
371
487
646
714
654
593
662
823
897
795
626
578
705
879
949
904
848
865
938
1002
1034
1040
1011
924
786
681
686
779
850
821
732
689
748
858
933
946
906
810
651
483
398
446
548
583
531
491
549
668
741
730
691
679
654
557
427
369
422
495
477
376
315
371
477
502
405
291
282
391
534
619
629
626
667
749
819
816
730
611
528
530
628
767
877
920
922
948
1024
1118
1165
1141
1074
983
853
698
583
576
657
722
713
706
811
1003
1117
1053
926
928
1088
1217
1138
914
784
889
1119
1256
1207
1080
1020
1042
1027
873
613
367
183
-8
-277
-538
-581
-294
182
572
739
820
1062
1530
2023
2275
2209
1981
1825
1829
1905
1912
1825
1734
1729
1779
1781
1685
1552
1460
1383
1240
1020
832
774
819
854
818
761
749
769
765
732
720
743
758
715
622
523
465
465
500
524
490
405
332
325
359
354
290
248
315
478
621
670
658
668
724
754
673
486
287
167
143
152
106
-13
-138
-185
-147
-113
-162
-284
-395
-432
-421
-436
-495
-545
-550
-556
-623
-733
-799
-785
-757
-802
-891
-889
-738
-580
-611
-853
-1115
-1206
-1144
-1083
-1080
-1011
-732
-280
160
461
654
832
1012
1127
1134
1062
979
926
914
945
1008
1067
1101
1125
1162
1200
1195
1132
1051
986
919
804
632
450
302
179
40
-113
-237
-279
-219
-58
184
469
751
1018
1311
1650
1963
2119
2059
1874
1715
1624
1513
1293
1000
758
648
632
633
615
576
502
396
298
264
296
314
238
81
-59
-114
-100
-81
-96
-141
-202
-263
-301
-290
-232
-160
-110
-92
-95
-111
-133
-146
-142
-130
-131
-142
-137
-105
-78
-102
-168
-221
-222
-200
-194
-198
-159
-61
41
76
46
7
-4
-12
-57
-127
-175
-181
-166
-144
-104
-32
45
92
126
198
311
373
287
68
-161
-303
-385
-508
-705
-905
-1019
-1033
-996
-966
-984
-1091
-1281
-1471
-1574
-1629
-1790
-2127
-2452
-2462
-2082
-1580
-1280
-1200
-1066
-681
-172
185
287
275
307
367
358
283
246
286
308
216
46
-69
-59
-9
-51
-237
-501
-734
-874
-938
-982
-1048
-1128
-1188
-1215
-1238
-1289
-1344
-1350
-1290
-1223
-1231
-1318
-1407
-1417
-1349
-1284
-1296
-1373
-1440
-1447
-1421
-1425
-1469
-1494
-1441
-1344
-1288
-1311
-1351
-1319
-1224
-1164
-1214
-1338
-1447
-1509
-1575
-1690
-1817
-1895
-1927
-1993
-2136
-2300
-2382
-2362
-2327
-2366
-2470
-2565
-2605
-2617
-2643
-2670
-2660
-2621
-2605
-2619
-2590
-2451
-2262
-2175
-2260
-2398
-2398
-2217
-2015
-1957
-2027
-2049
-1906
-1670
-1514
-1500
-1527
-1467
-1315
-1180
-1149
-1188
-1185
-1091
-980
-970
-1085
-1230
-1298
-1296
-1322
-1419
-1502
-1465
-1328
-1221
-1222
-1253
-1180
-997
-833
-802
-864
-894
-842
-766
-731
-711
-653
-567
-523
-552
-605
-614
-575
-550
-575
-624
-639
-604
-571
-602
-715
-865
-1000
-1112
-1233
-1379
-1516
-1589
-1580
-1541
-1518
-1488
-1390
-1221
-1058
-987
-993
-964
-823
-612
-458
-432
-480
-491
-421
-345
-383
-577
-849
-1073
-1183
-1236
-1330
-1503
-1695
-1826
-1877
-1902
-1944
-1986
-1982
-1920
-1840
-1780
-1722
-1630
-1490
-1342
-1240
-1198
-1178
-1155
-1128
-1103
-1068
-1001
-903
-801
-734
-709
-701
-683
-642
-589
-544
-531
-556
-600
-614
-565
-466
-373
-334
-352
-382
-387
-367
-347
-350
-365
-374
-379
-391
-417
-442
-450
-457
-483
-530
-593
-699
-898
-1185
-1461
-1623
-1693
-1813
-2051
-2256
-2184
-1777
-1259
-900
-740
-579
-250
196
569
757
792
758
702
653
650
694
707
597
378
169
72
66
51
-36
-171
-308
-422
-509
-567
-602
-639
-700
-772
-823
-846
-864
-889
-892
-846
-770
-726
-763
-864
-967
-1025
-1033
-1025
-1041
-1094
-1154
-1169
-1111
-1004
-915
-888
-901
-903
-878
-858
-891
-977
-1070
-1131
-1157
-1167
-1175
-1180
-1178
-1181
-1207
-1260
-1329
-1392
-1441
-1491
-1556
-1632
-1698
-1733
-1734
-1713
-1679
-1640
-1613
-1617
-1650
-1683
-1692
-1690
-1718
-1778
-1822
-1802
-1733
-1673
-1654
-1626
-1530
-1381
-1252
-1186
-1152
-1101
-1045
-1026
-1025
-963
-806
-632
-551
-557
-533
-405
-247
-190
-255
-330
-316
-241
-201
-211
-190
-76
83
186
197
174
180
215
243
234
196
152
127
143
215
316
401
455
513
610
716
741
629
424
226
103
37
-17
-73
-101
-81
-25
41
103
151
158
98
-14
-123
-197
-255
-331
-397
-372
-227
-55
17
-31
-86
-42
63
95
7
-107
-131
-69
-34
-86
-175
-217
-206
-208
-266
-340
-356
-281
-155
-51
-25
-85
-182
-243
-233
-191
-193
-281
-402
-465
-430
-333
-245
-210
-231
-283
-316
-285
-172
-12
119
141
56
-36
-32
85
207
224
143
69
73
96
39
-88
-156
-84
34
41
-69
-151
-87
62
151
135
107
128
141
68
-54
-119
-109
-119
-231
-400
-529
-614
-733
-904
-1049
-1124
-1192
-1299
-1361
-1229
-873
-445
-97
172
465
813
1126
1321
1414
1475
1522
1505
1422
1338
1298
1274
1201
1076
953
867
799
708
592
463
301
85
-142
-286
-305
-285
-374
-600
-833
-927
-870
-775
-726
-698
-629
-533
-478
-476
-461
-395
-362
-463
-671
-830
-817
-667
-531
-497
-509
-465
-352
-266
-311
-482
-666
-750
-727
-699
-757
-865
-906
-816
-662
-582
-646
-808
-975
-1109
-1223
-1317
-1368
-1379
-1402
-1473
-1543
-1522
-1389
-1251
-1243
-1388
-1558
-1613
-1547
-1473
-1486
-1560
-1604
-1573
-1514
-1477
-1439
-1342
-1182
-1029
-927
-830
-654
-395
-174
-116
-216
-334
-337
-233
-138
-135
-187
-182
-59
136
319
447
530
589
620
621
622
645
682
695
684
702
785
901
966
931
844
788
794
805
761
672
605
610
667
720
729
704
674
656
646
631
609
590
581
576
580
607
676
780
868
881
804
686
589
533
489
422
335
281
307
412
540
612
587
494
410
392
424
442
404
330
273
266
304
358
402
420
408
376
343
322
303
273
233
203
198
207
219
225
222
226
251
306
376
428
449
469
524
595
617
557
474
461
531
583
533
423
377
448
559
605
580
569
622
699
737
732
728
743
749
723
687
683
719
763
779
767
735
688
614
534
487
483
466
335
73
-204
-342
-341
-386
-635
-973
-1070
-746
-198
199
318
418
805
1444
1997
2232
2252
2307
2473
2620
2633
2559
2493
2419
2255
2007
1779
1640
1528
1346
1109
915
821
789
739
665
617
605
588
525
437
382
382
405
404
373
336
312
301
295
293
288
264
210
136
63
-8
-98
-220
-336
-380
-317
-184
-58
19
68
124
189
218
171
50
-101
-240
-347
-416
-450
-459
-467
-501
-560
-620
-657
-681
-739
-859
-1013
-1142
-1213
-1245
-1275
-1303
-1303
-1269
-1229
-1206
-1183
-1132
-1052
-980
-944
-935
-923
-897
-860
-805
-709
-572
-432
-321
-228
-100
84
278
409
451
460
509
616
732
796
805
808
845
907
959
991
1028
1092
1169
1235
1287
1342
1403
1450
1457
1426
1376
1320
1269
1240
1263
1334
1399
1409
1383
1390
1464
1546
1541
1435
1318
1294
1353
1391
1332
1214
1140
1163
1231
1264
1245
1203
1164
1125
1078
1039
1017
993
939
866
815
812
830
828
808
808
837
846
788
687
628
664
759
823
812
768
774
856
956
988
924
805
698
634
603
587
595
632
687
730
751
776
828
882
881
805
706
652
665
713
750
774
813
871
920
936
938
964
1019
1057
1024
929
836
808
842
884
888
857
834
855
906
940
935
915
920
949
961
913
816
737
728
767
799
789
750
688
564
355
106
-107
-285
-529
-893
-1230
-1274
-918
-361
73
278
470
919
1625
2300
2669
2728
2682
2690
2733
2713
2604
2466
2347
2225
2061
1871
1705
1574
1429
1245
1036
830
640
474
373
367
403
366
203
6
-68
19
149
188
128
65
58
64
34
4
35
113
150
104
30
11
40
40
-26
-116
-174
-201
-234
-286
-341
-396
-466
-555
-622
-632
-620
-645
-717
-784
-806
-813
-868
-977
-1086
-1154
-1207
-1300
-1439
-1575
-1671
-1741
-1809
-1861
-1855
-1784
-1699
-1648
-1636
-1626
-1604
-1591
-1615
-1666
-1706
-1712
-1685
-1643
-1591
-1526
-1435
-1308
-1150
-983
-854
-794
-781
-751
-667
-571
-538
-579
-610
-537
-360
-180
-89
-73
-36
76
202
226
107
-88
-259
-357
-409
-461
-520
-551
-511
-379
-180
13
139
196
241
314
387
400
337
259
236
249
212
88
-65
-163
-186
-192
-225
-280
-341
-407
-481
-552
-602
-639
-681
-725
-747
-752
-793
-905
-1055
-1197
-1369
-1663
-2093
-2519
-2753
-2751
-2619
-2443
-2173
-1716
-1116
-565
-243
-161
-201
-267
-350
-466
-593
-699
-774
-813
-779
-641
-440
-296
-306
-459
-656
-798
-856
-869
-893
-953
-1030
-1068
-1026
-921
-836
-842
-924
-994
-972
-878
-801
-806
-879
-957
-999
-1023
-1066
-1135
-1201
-1242
-1259
-1271
-1283
-1284
-1275
-1281
-1323
-1378
-1389
-1328
-1231
-1164
-1152
-1168
-1176
-1177
-1218
-1315
-1425
-1492
-1536
-1665
-1967
-2366
-2671
-2790
-2857
-3086
-3472
-3715
-3516
-2925
-2315
-1991
-1864
-1576
-923
-86
573
870
916
925
975
987
857
572
198
-193
-561
-892
-1171
-1390
-1565
-1722
-1877
-2014
-2092
-2093
-2056
-2049
-2098
-2162
-2174
-2122
-2044
-1979
-1935
-1910
-1915
-1959
-2017
-2052
-2059
-2078
-2139
-2211
-2228
-2164
-2065
-2005
-2013
-2063
-2110
-2130
-2125
-2112
-2112
-2132
-2161
-2177
-2173
-2170
-2190
-2225
-2245
-2235
-2213
-2218
-2270
-2355
-2448
-2527
-2578
-2597
-2602
-2617
-2659
-2710
-2728
-2697
-2653
-2649
-2694
-2726
-2688
-2593
-2531
-2569
-2678
-2758
-2734
-2623
-2501
-2423
-2385
-2352
-2298
-2219
-2119
-2008
-1914
-1860
-1839
-1810
-1734
-1607
-1456
-1306
-1162
-1021
-902
-821
-773
-719
-623
-500
-410
-401
-451
-466
-366
-166
34
139
148
157
247
403
535
569
513
436
389
373
363
347
333
325
313
286
253
233
231
229
213
197
197
224
265
314
386
487
578
611
587
573
644
796
950
1028
1026
1002
991
973
910
801
690
625
615
640
686
754
849
963
1062
1111
1094
1032
973
953
965
966
930
883
889
978
1114
1221
1254
1236
1228
1270
1356
1454
1540
1607
1659
1695
1718
1744
1790
1859
1936
2001
2044
2073
2095
2116
2134
2147
2158
2166
2165
2151
2144
2176
2266
2390
2498
2555
2567
2556
2517
2428
2292
2160
2091
2098
2148
2201
2251
2317
2402
2477
2511
2484
2369
2133
1763
1341
1027
913
910
818
574
384
553
1141
1855
2320
2469
2607
3072
3859
4621
5025
5053
4957
4970
5110
5216
5129
4822
4405
4032
3778
3592
3355
3013
2629
2301
2040
1790
1548
1397
1404
1518
1626
1699
1804
1967
2090
2072
1953
1882
1921
1963
1888
1731
1649
1718
1841
1891
1881
1918
2041
2144
2115
1982
1880
1896
1974
2002
1923
1775
1634
1562
1567
1618
1660
1650
1586
1510
1463
1442
1410
1324
1178
1004
840
712
623
559
493
413
334
278
242
198
127
51
9
4
6
1
14
76
156
174
91
-24
-45
79
266
393
428
451
553
731
906
1014
1055
1057
1040
1024
1039
1112
1218
1300
1330
1352
1423
1537
1628
1642
1592
1538
1515
1515
1513
1507
1512
1539
1583
1627
1652
1646
1614
1579
1564
1566
1561
1536
1506
1497
1504
1505
1502
1518
1559
1582
1539
1442
1364
1360
1396
1389
1303
1193
1140
1160
1200
1209
1185
1153
1121
1079
1032
1001
993
979
930
861
818
820
839
834
810
802
825
854
846
790
707
630
584
571
578
586
582
569
552
525
475
403
321
224
100
-39
-130
-106
29
185
278
306
339
424
518
542
459
296
118
-8
-44
7
98
175
207
212
222
248
272
277
278
284
272
214
115
30
7
36
54
8
-83
-154
-167
-135
-99
-89
-92
-77
-39
-35
-169
-490
-886
-1152
-1198
-1193
-1395
-1798
-2044
-1782
-1088
-410
-88
-1
217
721
1281
1590
1607
1544
1565
1631
1626
1524
1391
1281
1193
1111
1017
871
618
261
-95
-334
-445
-523
-669
-890
-1073
-1100
-965
-774
-652
-641
-669
-646
-556
-454
-406
-443
-574
-784
-1016
-1156
-1130
-988
-868
-866
-940
-982
-949
-900
-900
-964
-1063
-1165
-1240
-1254
-1202
-1145
-1158
-1233
-1273
-1209
-1103
-1092
-1233
-1431
-1569
-1629
-1676
-1756
-1863
-1985
-2128
-2273
-2355
-2348
-2326
-2380
-2507
-2582
-2519
-2350
-2162
-2000
-1872
-1804
-1836
-1939
-2001
-1969
-1919
-1964
-2086
-2138
-2018
-1794
-1617
-1533
-1439
-1244
-977
-752
-648
-640
-664
-669
-634
-558
-455
-360
-294
-239
-149
-11
130
225
276
334
434
525
532
434
318
308
445
636
744
715
626
592
653
745
785
753
684
599
485
350
257
276
359
359
180
-79
-205
-98
117
229
175
78
73
149
194
159
100
77
57
-23
-139
-183
-95
56
144
118
39
-9
-24
-63
-146
-234
-282
-295
-315
-333
-299
-197
-92
-63
-105
-122
-36
109
180
83
-133
-316
-357
-276
-188
-179
-234
-247
-132
96
315
408
362
264
212
230
265
256
202
166
215
350
494
543
458
322
281
393
546
565
389
169
114
272
487
566
483
367
341
392
410
356
307
345
424
382
126
-221
-433
-450
-475
-741
-1202
-1501
-1334
-799
-304
-96
7
366
1047
1720
2039
2025
1991
2134
2326
2318
2069
1777
1617
1553
1445
1252
1070
979
929
806
597
412
363
431
493
459
362
323
403
533
585
501
338
209
175
205
219
172
83
27
69
202
341
396
344
247
181
163
145
95
33
10
33
69
94
120
173
230
239
185
105
51
18
-47
-174
-318
-400
-398
-365
-371
-432
-506
-556
-569
-561
-539
-521
-556
-666
-795
-841
-761
-626
-554
-580
-614
-555
-408
-277
-238
-265
-291
-283
-262
-265
-276
-251
-164
-46
49
104
157
272
458
651
765
778
758
790
888
1002
1087
1140
1176
1198
1204
1209
1240
1287
1291
1237
1193
1229
1329
1395
1367
1299
1289
1342
1378
1334
1253
1215
1229
1249
1244
1239
1256
1281
1280
1248
1220
1216
1211
1169
1079
972
891
866
887
910
888
815
735
692
689
706
732
765
790
771
708
658
665
694
666
554
432
386
421
466
468
446
452
507
577
620
632
628
628
642
650
625
555
466
405
408
481
604
743
851
908
946
1028
1170
1289
1274
1125
976
953
1027
1057
965
842
833
958
1091
1115
1054
1009
1033
1079
1082
1032
963
905
870
872
912
947
920
819
709
699
804
905
835
544
170
-83
-162
-245
-540
-1001
-1312
-1193
-713
-228
0
73
291
777
1333
1681
1759
1737
1786
1908
1990
1985
1942
1918
1897
1836
1729
1615
1516
1403
1239
1052
918
881
882
808
638
475
432
488
485
303
6
-209
-210
-64
43
25
-25
35
222
423
530
555
564
547
438
244
90
88
194
270
257
254
354
493
520
393
233
155
133
63
-75
-188
-194
-122
-69
-85
-156
-258
-384
-516
-611
-652
-673
-704
-718
-669
-577
-533
-604
-746
-826
-760
-598
-475
-481
-571
-602
-475
-244
-70
-63
-165
-217
-128
59
231
336
396
448
479
456
393
352
377
451
531
602
681
802
964
1120
1215
1219
1153
1077
1043
1065
1111
1143
1157
1189
1294
1476
1654
1724
1662
1567
1575
1705
1816
1758
1556
1405
1445
1601
1659
1535
1374
1370
1527
1659
1608
1422
1286
1314
1427
1473
1392
1260
1184
1203
1288
1380
1422
1383
1277
1169
1131
1148
1127
1006
849
789
884
1034
1102
1069
1038
1097
1228
1339
1367
1317
1207
1058
913
826
813
812
758
671
648
753
925
1043
1063
1046
1066
1107
1104
1043
991
1008
1074
1111
1094
1081
1133
1240
1330
1359
1344
1320
1285
1207
1100
1043
1109
1281
1448
1501
1441
1367
1379
1467
1519
1427
1207
1002
963
1103
1306
1454
1535
1608
1672
1633
1436
1164
946
771
491
55
-315
-295
181
810
1225
1386
1569
1991
2539
2914
2973
2845
2730
2683
2634
2538
2437
2377
2335
2252
2111
1933
1743
1550
1383
1271
1183
1056
856
651
556
605
715
762
707
620
592
643
721
769
777
775
788
806
811
797
784
801
857
929
984
1000
997
1005
1026
1032
994
922
854
807
764
703
627
563
521
488
449
405
354
278
166
45
-43
-90
-143
-255
-416
-562
-643
-677
-713
-766
-809
-818
-804
-793
-791
-780
-753
-725
-706
-680
-633
-589
-588
-623
-630
-556
-426
-323
-291
-280
-208
-61
96
201
259
322
416
513
574
599
623
671
737
802
858
918
987
1057
1115
1149
1163
1170
1176
1184
1195
1206
1216
1221
1229
1254
1300
1347
1359
1314
1236
1182
1195
1251
1273
1205
1067
955
950
1032
1099
1057
920
793
768
832
887
855
747
645
605
617
635
626
590
547
509
486
477
478
474
454
421
383
339
285
238
239
306
393
427
383
309
271
275
276
247
221
238
290
339
374
430
519
603
638
635
647
694
736
730
695
681
706
739
753
754
764
774
763
749
770
839
912
939
920
907
926
937
882
755
624
572
616
701
757
758
736
736
774
822
823
751
629
496
352
135
-203
-598
-912
-1085
-1212
-1407
-1600
-1558
-1147
-539
-63
152
317
721
1365
1949
2207
2175
2121
2225
2422
2530
2466
2310
2183
2114
2035
1882
1670
1461
1275
1076
828
573
397
309
225
65
-133
-258
-269
-243
-261
-292
-251
-141
-67
-105
-208
-269
-255
-227
-237
-269
-289
-317
-393
-515
-620
-654
-623
-565
-524
-525
-576
-646
-677
-638
-575
-576
-664
-769
-801
-749
-680
-651
-652
-652
-652
-682
-747
-812
-853
-898
-989
-1119
-1229
-1276
-1282
-1301
-1349
-1382
-1352
-1263
-1164
-1090
-1026
-948
-857
-780
-732
-692
-637
-576
-542
-537
-522
-450
-327
-193
-85
1
84
158
202
223
264
355
474
571
623
670
760
891
1014
1089
1124
1155
1200
1246
1274
1285
1292
1310
1350
1412
1469
1477
1411
1303
1227
1229
1281
1315
1298
1272
1296
1373
1448
1464
1425
1368
1311
1237
1132
1022
946
905
851
763
693
717
827
919
901
808
759
817
905
908
820
747
770
833
819
707
601
598
663
675
579
452
404
447
498
492
454
441
460
462
415
359
356
414
478
494
465
439
457
516
591
662
725
781
824
843
844
850
875
908
914
878
831
822
864
907
892
825
779
815
914
992
987
917
849
829
845
861
844
782
692
610
567
566
594
618
601
548
508
527
569
509
254
-113
-400
-530
-654
-965
-1388
-1580
-1288
-681
-185
-3
109
530
1292
2024
2370
2356
2294
2385
2527
2499
2239
1908
1683
1590
1525
1388
1184
988
859
792
721
589
416
277
233
260
273
213
108
25
-1
-4
-13
-8
41
112
124
44
-57
-77
1
91
118
97
90
103
87
30
-15
-1
25
-35
-183
-302
-277
-147
-73
-160
-339
-444
-414
-345
-367
-497
-632
-689
-671
-650
-669
-711
-747
-783
-859
-984
-1106
-1159
-1130
-1083
-1099
-1182
-1254
-1250
-1196
-1187
-1291
-1464
-1600
-1633
-1576
-1489
-1408
-1320
-1188
-993
-750
-506
-339
-288
-312
-315
-237
-150
-184
-365
-537
-505
-264
-4
119
158
292
566
805
823
648
483
458
499
459
327
233
282
438
602
724
803
828
764
619
470
394
386
392
395
443
556
667
679
582
493
530
660
716
578
341
229
350
543
563
358
134
104
242
317
189
-28
-107
38
263
362
272
117
66
160
281
279
125
-44
-63
69
178
89
-169
-390
-426
-352
-371
-565
-794
-853
-685
-425
-235
-164
-135
-77
20
123
205
254
257
212
145
100
105
145
185
197
181
162
169
214
277
329
347
344
349
365
365
320
246
186
157
129
82
40
57
129
191
196
180
215
320
413
423
373
359
389
324
33
-429
-849
-1097
-1296
-1656
-2154
-2474
-2335
-1830
-1358
-1163
-1057
-655
139
995
1504
1597
1547
1613
1775
1853
1764
1592
1428
1251
1014
772
649
667
690
568
294
7
-157
-180
-137
-117
-174
-297
-428
-484
-422
-293
-213
-255
-383
-496
-537
-527
-516
-517
-517
-518
-535
-570
-590
-573
-534
-506
-483
-433
-351
-298
-343
-475
-609
-675
-697
-760
-893
-1015
-1019
-891
-729
-631
-605
-603
-604
-652
-782
-962
-1120
-1229
-1330
-1457
-1574
-1610
-1547
-1453
-1418
-1467
-1546
-1585
-1575
-1563
-1583
-1621
-1623
-1563
-1467
-1379
-1326
-1292
-1246
-1159
-1030
-882
-750
-655
-595
-543
-468
-371
-275
-206
-168
-137
-78
20
132
228
298
357
430
514
588
630
645
659
691
739
775
766
711
650
631
667
717
737
727
734
797
898
982
1016
1010
999
991
964
900
821
773
776
802
799
752
702
701
742
758
689
559
470
491
584
635
580
478
436
490
569
583
523
451
418
406
374
319
280
279
292
297
312
360
419
427
355
253
183
144
75
-47
-149
-143
-38
56
69
47
97
242
385
416
330
225
191
230
273
272
232
196
198
232
267
272
243
193
135
76
33
38
105
196
232
184
114
123
230
342
349
249
142
124
189
239
217
169
162
189
144
-69
-399
-690
-861
-1011
-1297
-1690
-1926
-1757
-1255
-772
-568
-521
-277
323
1038
1492
1573
1521
1610
1850
2032
2008
1839
1681
1580
1459
1261
1046
904
826
725
555
380
300
312
308
199
15
-135
-197
-221
-288
-400
-481
-475
-421
-401
-440
-476
-435
-339
-294
-372
-519
-612
-597
-552
-592
-725
-838
-827
-711
-613
-622
-706
-767
-761
-741
-786
-902
-1018
-1069
-1072
-1094
-1173
-1278
-1335
-1318
-1267
-1243
-1281
-1370
-1481
-1584
-1658
-1705
-1751
-1831
-1927
-1985
-1980
-1958
-1978
-2024
-2021
-1950
-1899
-1944
-2033
-2038
-1922
-1795
-1755
-1737
-1605
-1360
-1162
-1120
-1145
-1081
-923
-812
-819
-829
-698
-452
-260
-208
-201
-92
128
321
375
327
316
415
566
652
613
505
446
492
583
613
547
452
412
441
485
503
500
491
464
410
355
344
376
405
409
423
480
552
568
503
406
351
359
383
374
338
314
329
372
408
403
353
281
217
188
195
214
216
195
156
103
50
23
34
42
-11
-134
-242
-226
-82
76
129
86
39
29
10
-45
-88
-51
43
105
112
145
274
442
515
442
322
270
298
336
340
344
382
426
430
403
406
472
554
571
496
384
329
382
500
586
574
481
387
366
421
479
458
366
300
351
498
594
528
355
235
230
217
29
-307
-590
-706
-792
-1045
-1412
-1572
-1305
-774
-361
-188
38
661
1627
2502
2939
3003
3008
3096
3108
2856
2377
1865
1432
1024
595
226
34
-3
-47
-192
-382
-528
-638
-777
-924
-958
-831
-652
-569
-580
-542
-362
-128
-16
-106
-316
-508
-618
-667
-697
-717
-719
-706
-695
-698
-719
-739
-745
-757
-818
-941
-1076
-1121
-1032
-863
-719
-651
-615
-535
-399
-264
-194
-213
-303
-438
-599
-773
-961
-1171
-1390
-1567
-1653
-1658
-1676
-1777
-1911
-1950
-1847
-1719
-1714
-1831
-1900
-1785
-1545
-1367
-1328
-1314
-1194
-981
-822
-800
-857
-883
-853
-819
-822
-841
-852
-869
-885
-838
-672
-423
-210
-113
-83
-6
164
349
443
430
394
423
510
589
621
653
764
950
1120
1184
1161
1135
1159
1203
1207
1168
1136
1146
1173
1185
1177
1163
1129
1054
961
922
981
1085
1143
1128
1117
1184
1293
1322
1215
1066
1015
1074
1109
1006
823
735
813
922
880
674
481
446
518
527
412
288
274
329
306
168
47
84
248
363
321
208
188
304
447
506
493
495
535
541
471
401
437
572
677
660
594
632
804
968
977
846
728
718
754
729
628
538
521
550
569
574
609
681
754
802
841
879
880
805
680
581
551
556
540
506
508
550
573
551
531
557
566
415
70
-313
-552
-666
-847
-1192
-1540
-1631
-1424
-1130
-919
-683
-194
554
1266
1650
1736
1798
1992
2171
2104
1767
1376
1135
1051
998
920
869
898
971
1006
979
910
826
709
545
376
267
227
194
117
13
-45
-13
69
112
64
-56
-181
-251
-247
-210
-191
-218
-274
-326
-364
-410
-472
-516
-514
-484
-469
-473
-448
-367
-280
-262
-313
-353
-337
-324
-401
-560
-706
-762
-770
-818
-922
-1008
-1026
-1004
-1005
-1036
-1060
-1057
-1052
-1076
-1123
-1185
-1282
-1435
-1619
-1743
-1735
-1615
-1492
-1462
-1526
-1585
-1545
-1401
-1237
-1156
-1188
-1263
-1283
-1192
-1024
-863
-770
-737
-706
-620
-478
-329
-221
-154
-89
11
141
269
372
439
463
439
376
313
289
304
333
371
444
544
619
627
594
586
613
604
506
370
300
332
393
408
398
440
547
629
601
492
410
409
436
416
349
314
358
450
532
590
650
716
746
700
599
509
478
482
463
386
283
235
292
418
514
507
431
392
455
564
589
469
290
196
237
328
351
281
193
162
200
260
305
332
343
326
281
239
240
301
390
454
469
456
453
468
484
480
457
438
444
476
518
543
539
512
492
493
484
416
288
161
99
103
121
119
131
211
349
470
524
530
526
482
316
16
-310
-544
-708
-936
-1281
-1574
-1563
-1196
-705
-364
-199
20
486
1110
1621
1855
1902
1957
2092
2219
2233
2128
1976
1822
1654
1457
1260
1089
928
746
553
406
349
371
408
425
437
467
496
485
423
349
305
280
228
117
-14
-93
-92
-54
-46
-90
-142
-146
-95
-46
-56
-114
-176
-223
-285
-402
-555
-677
-720
-722
-753
-815
-822
-698
-501
-377
-404
-511
-556
-509
-492
-642
-929
-1175
-1255
-1235
-1278
-1428
-1549
-1497
-1328
-1247
-1375
-1590
-1674
-1567
-1434
-1458
-1613
-1685
-1533
-1261
-1091
-1106
-1169
-1105
-905
-713
-638
-631
-589
-494
-424
-406
-361
-228
-82
-56
-142
-165
8
298
486
480
414
467
626
704
590
390
293
339
403
376
323
381
587
830
977
1010
1008
1025
1036
989
883
776
723
730
751
737
680
620
600
622
632
566
411
236
155
240
438
591
556
350
151
108
201
249
122
-104
-236
-174
1
128
134
56
-31
-84
-89
-47
10
35
14
3
61
173
259
255
186
119
76
34
-32
-97
-113
-69
8
83
138
172
187
179
152
106
65
70
152
312
499
623
620
500
357
293
331
386
369
287
248
336
511
645
666
617
598
637
671
655
612
595
606
583
496
397
379
448
496
386
78
-310
-598
-735
-856
-1126
-1521
-1789
-1696
-1287
-854
-619
-484
-172
430
1128
1639
1897
2063
2271
2466
2507
2380
2220
2139
2105
2001
1779
1516
1298
1131
963
760
548
381
279
206
123
30
-31
-27
15
28
-10
-46
-24
28
15
-101
-240
-291
-242
-193
-228
-316
-360
-329
-288
-307
-375
-429
-447
-462
-497
-523
-504
-465
-468
-527
-586
-585
-543
-543
-632
-764
-850
-856
-833
-868
-987
-1137
-1236
-1251
-1224
-1230
-1306
-1414
-1471
-1436
-1350
-1304
-1348
-1447
-1516
-1502
-1414
-1310
-1237
-1203
-1178
-1128
-1039
-935
-863
-847
-865
-871
-838
-774
-694
-594
-464
-313
-170
-54
47
151
255
340
401
457
523
593
659
724
802
894
982
1044
1081
1101
1112
1131
1181
1266
1345
1361
1312
1269
1308
1409
1457
1372
1214
1136
1209
1344
1385
1290
1166
1131
1188
1235
1191
1078
972
913
877
827
758
687
633
601
590
602
641
697
735
721
653
578
550
568
571
517
435
393
408
433
426
418
453
503
482
372
277
308
449
563
554
482
485
613
782
875
863
807
772
759
723
647
577
578
671
813
937
1019
1089
1175
1261
1298
1275
1227
1181
1107
964
785
663
662
746
825
853
864
902
957
987
983
952
900
819
692
526
315
65
-181
-361
-488
-686
-1032
-1380
-1423
-1027
-442
-71
-24
18
433
1192
1881
2173
2149
2133
2283
2455
2458
2299
2117
1978
1824
1612
1404
1272
1183
1040
826
623
510
474
437
368
300
257
212
126
16
-56
-48
16
72
76
43
12
13
39
63
73
73
76
79
73
58
48
44
34
0
-55
-107
-135
-144
-147
-154
-162
-177
-203
-231
-241
-232
-244
-319
-456
-604
-703
-746
-764
-800
-863
-938
-1014
-1085
-1150
-1197
-1214
-1214
-1223
-1265
-1321
-1335
-1273
-1168
-1104
-1131
-1210
-1237
-1155
-1017
-939
-966
-1024
-999
-862
-697
-597
-554
-490
-357
-198
-73
18
113
210
260
243
225
296
454
611
700
757
855
1004
1132
1185
1189
1196
1213
1201
1148
1102
1118
1205
1319
1408
1444
1433
1406
1399
1413
1397
1298
1134
1007
996
1075
1143
1135
1079
1042
1047
1062
1060
1038
1004
955
900
868
874
889
877
865
909
1003
1056
998
883
825
846
841
713
511
379
375
422
435
436
510
660
772
738
570
368
203
70
-64
-205
-333
-409
-387
-220
76
390
587
638
635
689
799
866
830
750
714
737
760
736
692
679
702
731
747
749
733
689
645
666
781
919
972
909
805
742
728
718
705
734
801
843
834
832
894
928
747
312
-179
-495
-643
-856
-1241
-1568
-1485
-948
-307
73
226
515
1165
1959
2480
2553
2400
2364
2548
2785
2875
2789
2626
2462
2287
2049
1736
1383
1034
728
481
282
124
22
13
101
218
274
241
174
144
164
181
149
89
46
35
24
-3
-17
19
80
92
13
-108
-167
-132
-88
-130
-238
-293
-242
-178
-225
-364
-451
-404
-330
-388
-568
-694
-641
-504
-477
-618
-790
-844
-793
-773
-867
-1019
-1130
-1173
-1188
-1209
-1227
-1222
-1219
-1262
-1353
-1432
-1428
-1332
-1202
-1099
-1031
-969
-887
-789
-693
-610
-567
-607
-744
-901
-953
-858
-726
-708
-818
-895
-774
-464
-140
31
28
-42
-75
-49
6
54
82
94
93
96
138
244
404
562
662
682
665
665
702
754
791
823
879
961
1040
1096
1145
1215
1296
1337
1286
1149
988
876
851
896
963
1013
1039
1080
1176
1309
1398
1373
1250
1116
1047
1022
953
797
613
503
513
583
613
554
436
314
216
137
88
87
126
161
151
104
71
82
111
113
75
31
25
68
151
263
392
513
597
633
646
681
749
816
838
816
788
787
804
801
761
712
690
699
709
697
682
694
732
765
769
749
728
705
657
584
523
521
577
634
636
566
471
421
440
452
323
-9
-428
-721
-812
-871
-1123
-1538
-1793
-1609
-1082
-600
-406
-327
4
691
1447
1915
2029
2014
2091
2260
2391
2394
2275
2073
1816
1549
1340
1216
1116
936
667
395
215
135
86
7
-95
-181
-233
-269
-311
-347
-350
-315
-270
-245
-242
-230
-189
-140
-117
-137
-173
-189
-190
-215
-297
-420
-533
-608
-666
-740
-827
-884
-891
-876
-876
-902
-932
-945
-941
-926
-901
-888
-923
-1030
-1172
-1273
-1299
-1287
-1309
-1394
-1511
-1612
-1680
-1721
-1753
-1790
-1840
-1895
-1935
-1948
-1942
-1934
-1923
-1892
-1842
-1804
-1799
-1803
-1766
-1669
-1548
-1449
-1375
-1284
-1157
-1027
-941
-903
-866
-790
-687
-603
-553
-510
-439
-331
-205
-85
11
72
103
108
92
46
-24
-75
-52
60
212
340
431
528
660
804
918
990
1047
1110
1161
1175
1133
1030
870
678
492
318
112
-166
-463
-655
-661
-541
-436
-420
-431
-366
-207
-43
32
-4
-102
-179
-176
-102
-37
-62
-165
-233
-161
31
217
315
383
521
725
865
823
610
325
16
-345
-776
-1192
-1470
-1576
-1583
-1565
-1516
-1386
-1183
-991
-880
-835
-795
-742
-717
-746
-780
-747
-642
-542
-509
-521
-497
-406
-310
-282
-314
-335
-302
-249
-234
-260
-284
-289
-306
-361
-418
-408
-313
-196
-130
-118
-107
-77
-55
-59
-64
-60
-128
-364
-739
-1071
-1226
-1292
-1472
-1783
-1954
-1718
-1153
-626
-382
-256
106
792
1495
1855
1846
1755
1816
1968
1993
1806
1535
1325
1171
968
680
401
221
112
-17
-197
-350
-390
-341
-302
-333
-388
-409
-414
-469
-578
-661
-658
-617
-640
-743
-834
-828
-757
-721
-766
-847
-888
-881
-870
-891
-944
-1011
-1071
-1098
-1081
-1042
-1028
-1069
-1143
-1212
-1272
-1361
-1499
-1647
-1731
-1717
-1650
-1611
-1653
-1740
-1794
-1770
-1711
-1716
-1846
-2048
-2211
-2278
-2287
-2311
-2379
-2464
-2537
-2602
-2665
-2725
-2792
-2884
-2997
-3081
-3081
-2997
-2887
-2793
-2713
-2650
-2631
-2663
-2686
-2630
-2520
-2460
-2494
-2517
-2403
-2168
-1980
-1957
-2016
-1985
-1806
-1597
-1491
-1480
-1440
-1292
-1098
-980
-992
-1078
-1140
-1129
-1079
-1063
-1114
-1192
-1225
-1176
-1080
-1009
-1001
-1023
-1017
-973
-935
-945
-995
-1040
-1059
-1078
-1127
-1192
-1225
-1210
-1194
-1230
-1307
-1361
-1349
-1293
-1246
-1236
-1251
-1276
-1325
-1406
-1487
-1513
-1468
-1391
-1359
-1410
-1492
-1494
-1353
-1141
-1020
-1096
-1292
-1405
-1336
-1227
-1307
-1624
-1971
-2102
-2003
-1874
-1871
-1943
-1930
-1790
-1628
-1533
-1484
-1414
-1337
-1335
-1427
-1534
-1574
-1526
-1435
-1349
-1306
-1324
-1392
-1446
-1415
-1296
-1146
-1026
-969
-987
-1068
-1127
-1065
-896
-804
-964
-1296
-1509
-1427
-1220
-1202
-1435
-1648
-1593
-1351
-1208
-1293
-1446
-1491
-1495
-1642
-1950
-2238
-2381
-2487
-2706
-2960
-2984
-2654
-2180
-1880
-1796
-1649
-1183
-482
136
452
531
568
669
783
826
766
605
361
87
-129
-249
-338
-497
-741
-975
-1121
-1191
-1249
-1328
-1401
-1443
-1469
-1485
-1477
-1424
-1339
-1275
-1272
-1325
-1386
-1416
-1406
-1376
-1340
-1284
-1192
-1088
-1029
-1064
-1181
-1318
-1424
-1500
-1574
-1658
-1744
-1812
-1831
-1760
-1589
-1390
-1292
-1358
-1506
-1586
-1546
-1488
-1545
-1717
-1880
-1929
-1895
-1886
-1941
-1997
-1986
-1934
-1923
-1994
-2099
-2166
-2180
-2200
-2274
-2380
-2440
-2403
-2292
-2170
-2084
-2036
-2006
-1982
-1961
-1939
-1912
-1881
-1844
-1792
-1706
-1576
-1417
-1256
-1118
-1005
-917
-868
-871
-909
-927
-882
-787
-696
-653
-636
-592
-503
-416
-384
-403
-412
-367
-287
-223
-198
-183
-138
-64
2
32
34
38
64
103
124
112
78
53
56
67
39
-36
-97
-61
65
169
151
50
17
134
304
351
216
26
-48
17
110
124
67
10
-14
-23
-36
-35
-6
29
38
33
51
109
177
211
192
141
95
78
90
121
164
217
280
348
406
451
511
609
721
788
775
728
718
758
798
797
784
816
892
937
912
869
891
982
1059
1064
1028
1020
1047
1046
981
899
869
893
905
865
821
842
937
1057
1155
1211
1203
1082
844
579
364
158
-157
-584
-917
-928
-644
-344
-235
-195
89
728
1460
1933
2073
2125
2332
2661
2884
2866
2690
2514
2394
2277
2122
1970
1861
1757
1586
1351
1135
1028
1026
1045
1017
954
919
962
1079
1228
1363
1453
1468
1401
1280
1143
1006
847
648
437
276
194
167
145
115
99
106
106
64
-15
-78
-95
-89
-116
-184
-247
-246
-183
-112
-85
-97
-114
-113
-122
-192
-332
-494
-611
-653
-652
-665
-717
-774
-782
-735
-683
-684
-747
-818
-848
-840
-840
-865
-875
-813
-680
-541
-457
-412
-344
-220
-81
10
32
25
47
119
232
375
538
693
787
791
743
724
779
865
899
861
827
893
1068
1260
1372
1401
1429
1514
1624
1688
1692
1690
1744
1841
1919
1946
1946
1952
1942
1872
1760
1703
1796
2013
2218
2308
2312
2342
2446
2536
2485
2265
1987
1782
1695
1686
1719
1791
1888
1962
1973
1947
1943
1969
1950
1813
1580
1364
1251
1222
1206
1180
1189
1263
1355
1390
1350
1302
1310
1359
1371
1305
1207
1169
1235
1366
1477
1529
1545
1568
1615
1658
1661
1617
1556
1502
1453
1410
1402
1468
1598
1714
1750
1711
1672
1693
1753
1781
1753
1717
1742
1830
1919
1956
1941
1909
1876
1823
1740
1647
1580
1546
1504
1444
1414
1463
1544
1504
1261
936
726
654
512
127
-342
-507
-183
366
708
737
793
1222
1944
2542
2734
2646
2606
2765
2998
3119
3096
3023
2968
2904
2786
2622
2455
2303
2149
1980
1804
1651
1554
1526
1564
1633
1682
1679
1636
1588
1568
1566
1547
1493
1429
1391
1382
1367
1317
1242
1172
1120
1085
1069
1076
1093
1088
1059
1057
1125
1233
1285
1228
1117
1041
1029
1029
987
906
809
698
574
477
445
450
407
277
133
77
122
174
154
82
24
4
-16
-66
-126
-169
-203
-253
-315
-364
-391
-421
-465
-491
-462
-392
-329
-295
-250
-140
33
210
328
365
358
360
397
476
583
718
876
1043
1198
1332
1445
1534
1583
1563
1471
1353
1275
1262
1295
1344
1399
1480
1582
1662
1677
1641
1628
1688
1785
1825
1749
1612
1548
1644
1839
1970
1916
1715
1528
1494
1597
1696
1678
1576
1508
1536
1607
1639
1629
1638
1688
1718
1661
1546
1491
1553
1664
1710
1654
1570
1557
1637
1745
1792
1729
1577
1390
1206
1026
817
568
323
133
10
-60
-82
-48
26
85
84
57
93
231
402
515
580
692
919
1216
1474
1649
1811
2050
2359
2636
2773
2748
2626
2490
2381
2287
2164
1968
1684
1350
1013
700
419
175
-12
-147
-273
-406
-482
-374
-38
396
698
732
603
559
732
971
990
675
246
87
370
884
1272
1413
1513
1831
2338
2744
2826
2653
2470
2413
2411
2350
2225
2104
2009
1905
1805
1792
1904
2040
2029
1804
1434
1021
586
99
-427
-905
-1246
-1432
-1503
-1501
-1431
-1284
-1072
-840
-634
-490
-422
-419
-446
-455
-408
-307
-182
-67
18
76
122
162
188
184
148
106
97
144
225
288
297
265
231
228
238
230
198
172
174
189
184
151
123
115
92
-7
-188
-379
-500
-542
-576
-670
-812
-914
-903
-783
-633
-545
-557
-633
-708
-743
-753
-778
-846
-940
-1005
-991
-881
-706
-532
-407
-325
-229
-80
106
268
377
463
566
671
734
742
749
800
850
825
746
757
982
1359
1687
1821
1810
1802
1842
1819
1619
1276
948
757
694
684
691
746
876
1058
1246
1393
1458
1420
1305
1193
1145
1144
1114
1030
956
968
1049
1102
1066
989
956
984
1018
1014
995
1020
1115
1261
1414
1539
1623
1673
1691
1663
1550
1337
1068
833
679
576
469
355
292
321
403
470
492
499
529
587
658
729
784
813
823
842
888
933
931
872
807
798
852
923
974
1015
1067
1110
1101
1033
953
907
890
864
816
786
804
842
840
785
709
658
642
632
582
436
173
-143
-403
-567
-745
-1068
-1471
-1682
-1492
-1012
-579
-375
-232
158
846
1561
1993
2095
2073
2118
2245
2358
2381
2308
2152
1933
1689
1483
1343
1234
1084
867
621
412
283
223
192
153
95
42
34
95
214
348
444
473
441
366
254
97
-85
-229
-270
-196
-75
5
12
-14
-23
-20
-58
-172
-335
-484
-577
-616
-622
-593
-509
-371
-230
-149
-151
-203
-255
-293
-349
-451
-582
-690
-737
-733
-722
-739
-775
-794
-783
-763
-772
-828
-915
-1000
-1052
-1062
-1048
-1036
-1043
-1061
-1061
-1012
-911
-792
-694
-629
-578
-514
-435
-366
-322
-290
-234
-142
-40
36
85
145
246
373
487
563
617
673
735
793
845
901
959
997
995
953
894
836
785
751
749
786
839
871
876
884
929
999
1039
1000
893
782
718
682
609
473
335
286
349
462
552
631
768
969
1127
1121
955
754
621
531
389
172
-32
-120
-93
-31
17
79
196
345
450
454
373
270
198
182
223
302
375
408
393
366
357
360
337
273
210
220
341
527
685
751
739
725
771
857
891
805
640
517
520
627
748
826
868
896
901
871
820
774
717
604
435
287
251
323
414
444
438
470
557
605
496
235
-24
-132
-123
-207
-526
-940
-1120
-887
-431
-109
-47
4
360
1018
1645
1942
1943
1905
1974
2056
2000
1821
1659
1570
1467
1256
996
832
814
815
687
428
191
106
161
248
282
247
160
29
-109
-188
-173
-132
-186
-354
-510
-508
-346
-166
-99
-148
-200
-166
-57
42
53
-37
-172
-269
-271
-196
-110
-54
-25
-19
-63
-168
-273
-291
-239
-267
-506
-900
-1221
-1314
-1249
-1213
-1294
-1393
-1360
-1176
-959
-841
-860
-965
-1095
-1230
-1384
-1554
-1697
-1751
-1691
-1555
-1410
-1298
-1218
-1164
-1133
-1100
-1032
-951
-954
-1132
-1420
-1600
-1505
-1227
-1040
-1109
-1294
-1307
-1042
-691
-514
-544
-564
-395
-98
122
182
207
320
454
427
224
73
210
589
911
947
768
634
689
852
970
978
913
815
704
624
644
757
848
791
599
421
388
471
529
475
349
266
289
392
513
613
687
736
743
684
564
433
357
358
390
375
291
232
324
574
825
894
773
637
638
731
735
566
354
272
326
355
246
73
-5
56
150
173
129
89
85
101
128
176
226
213
101
-41
-104
-44
75
170
226
298
420
562
662
686
648
584
517
443
351
248
177
167
192
207
195
170
127
12
-212
-462
-605
-623
-663
-862
-1128
-1204
-958
-558
-285
-209
-129
172
659
1103
1346
1436
1519
1652
1774
1818
1783
1693
1556
1371
1164
983
853
739
591
408
236
117
60
32
15
20
40
37
-25
-121
-171
-136
-75
-84
-177
-254
-220
-107
-31
-48
-92
-69
18
78
47
-33
-79
-73
-64
-90
-131
-145
-132
-141
-200
-287
-367
-433
-501
-575
-640
-675
-686
-686
-678
-667
-677
-731
-818
-889
-908
-905
-947
-1058
-1190
-1269
-1280
-1263
-1270
-1314
-1373
-1409
-1401
-1355
-1311
-1309
-1348
-1377
-1340
-1242
-1135
-1068
-1028
-970
-873
-767
-684
-621
-554
-474
-393
-326
-266
-201
-122
-23
108
266
416
503
512
498
527
606
673
671
625
610
662
743
810
870
955
1043
1064
989
899
898
984
1036
968
834
769
830
929
953
897
847
859
884
845
746
668
670
714
712
640
548
503
511
528
518
476
415
349
311
328
375
383
313
228
225
317
398
384
331
369
517
641
614
482
398
438
529
559
510
451
435
473
572
730
880
913
794
642
616
731
833
781
611
488
503
584
610
548
477
471
515
545
533
514
538
604
680
715
690
636
609
625
603
418
64
-288
-460
-501
-654
-1041
-1428
-1431
-975
-419
-164
-175
-33
538
1327
1886
2039
2013
2103
2320
2472
2447
2336
2260
2189
2015
1727
1443
1265
1144
959
668
365
187
193
303
391
380
294
221
221
267
289
255
200
170
161
134
82
48
76
148
187
140
41
-32
-28
15
14
-74
-198
-263
-231
-158
-140
-205
-296
-344
-347
-364
-425
-492
-523
-540
-602
-710
-783
-756
-657
-588
-614
-702
-772
-782
-765
-777
-844
-947
-1046
-1110
-1130
-1124
-1122
-1136
-1156
-1167
-1166
-1165
-1166
-1161
-1144
-1118
-1084
-1033
-951
-846
-739
-645
-555
-452
-337
-238
-178
-139
-68
62
225
357
421
444
483
572
691
789
835
842
854
910
1007
1117
1203
1258
1296
1324
1334
1307
1241
1160
1093
1065
1075
1103
1120
1121
1127
1158
1196
1195
1129
1022
924
856
802
755
739
773
825
833
775
700
672
690
696
654
591
562
584
623
654
686
739
779
743
607
435
324
311
335
304
206
125
146
251
353
400
440
547
705
815
817
769
779
865
941
925
850
805
819
839
819
787
783
774
688
532
407
378
385
348
294
357
591
874
1030
1027
994
1018
1023
902
687
509
410
265
-22
-334
-462
-406
-440
-794
-1318
-1588
-1371
-902
-606
-595
-547
-100
713
1498
1926
2026
2056
2166
2286
2283
2141
1952
1777
1604
1422
1272
1188
1130
1019
843
658
533
483
459
402
297
171
66
4
-41
-99
-172
-207
-151
-32
54
43
-18
-34
24
84
76
32
34
95
141
116
72
105
221
313
291
183
86
36
-7
-67
-94
-28
98
166
108
-30
-163
-279
-466
-783
-1181
-1542
-1805
-2000
-2167
-2284
-2289
-2185
-2061
-2007
-2023
-2022
-1935
-1795
-1691
-1682
-1724
-1725
-1617
-1411
-1175
-998
-937
-992
-1106
-1192
-1192
-1119
-1044
-1000
-928
-732
-382
49
442
722
867
864
705
457
244
134
35
-224
-668
-1067
-1142
-850
-442
-185
-92
41
357
762
1039
1082
972
834
700
543
382
289
305
382
448
496
576
706
832
879
842
785
765
768
736
656
583
583
663
762
827
862
898
946
993
1046
1130
1261
1404
1494
1503
1468
1441
1427
1384
1276
1113
942
802
701
617
520
398
261
150
110
158
262
358
408
424
456
517
565
552
483
413
402
457
550
663
816
1017
1219
1342
1361
1328
1321
1363
1406
1400
1356
1340
1396
1501
1585
1598
1542
1461
1369
1242
1095
986
967
983
895
645
346
149
37
-187
-638
-1148
-1385
-1220
-843
-507
-218
239
980
1828
2470
2757
2790
2737
2651
2487
2229
1919
1598
1280
979
741
594
514
435
337
264
264
344
468
589
679
723
716
666
593
520
465
426
386
316
216
126
88
112
157
177
159
128
108
105
104
100
89
62
10
-60
-133
-204
-274
-332
-354
-332
-296
-299
-361
-452
-527
-586
-660
-769
-885
-969
-1014
-1048
-1096
-1147
-1187
-1217
-1257
-1318
-1387
-1450
-1500
-1528
-1523
-1480
-1431
-1430
-1503
-1616
-1707
-1749
-1769
-1812
-1879
-1922
-1900
-1812
-1694
-1566
-1421
-1257
-1104
-1006
-971
-952
-892
-786
-689
-643
-626
-574
-449
-282
-133
-30
47
128
202
244
257
270
296
312
295
268
294
403
554
674
741
792
860
922
923
847
735
631
535
411
255
123
80
132
217
253
209
123
61
50
50
-6
-132
-266
-323
-263
-129
-1
85
140
186
204
148
2
-200
-410
-605
-789
-948
-1039
-1027
-921
-767
-586
-348
-15
381
733
927
927
775
536
241
-110
-504
-888
-1177
-1299
-1243
-1061
-832
-605
-385
-172
3
90
74
-1
-77
-139
-205
-266
-253
-123
74
220
244
203
217
329
438
445
375
345
380
327
21
-482
-931
-1169
-1316
-1596
-1986
-2160
-1843
-1149
-488
-113
138
592
1324
2053
2463
2525
2467
2488
2575
2600
2498
2312
2104
1884
1636
1379
1153
964
769
543
302
102
-6
-24
-4
-1
-30
-58
-43
14
62
55
2
-49
-73
-98
-163
-271
-371
-429
-455
-475
-486
-464
-416
-394
-430
-495
-520
-485
-439
-445
-520
-623
-706
-749
-762
-761
-757
-753
-746
-731
-714
-711
-735
-776
-814
-834
-846
-869
-919
-988
-1060
-1118
-1165
-1219
-1296
-1384
-1450
-1474
-1466
-1455
-1449
-1429
-1379
-1319
-1291
-1303
-1321
-1303
-1254
-1217
-1213
-1198
-1112
-949
-778
-673
-635
-597
-504
-374
-270
-234
-251
-267
-243
-155
-10
161
310
408
482
579
702
788
777
695
630
634
662
639
566
523
571
676
751
754
731
752
821
882
896
888
907
955
969
896
766
668
656
693
690
610
505
461
495
552
571
550
539
559
568
513
401
315
317
376
394
316
195
117
104
97
41
-36
-62
-11
70
124
155
207
297
389
433
419
387
390
447
532
587
569
493
425
422
480
540
548
511
467
437
420
425
473
561
629
618
528
437
412
445
482
478
450
427
396
348
326
384
473
435
175
-175
-374
-384
-464
-855
-1412
-1672
-1362
-736
-308
-258
-223
249
1152
2030
2474
2501
2407
2383
2363
2220
1961
1698
1482
1274
1057
897
874
960
1023
948
737
489
304
197
115
20
-70
-115
-115
-119
-150
-152
-64
85
174
115
-56
-223
-304
-333
-399
-530
-666
-737
-732
-699
-680
-681
-686
-684
-685
-688
-682
-663
-655
-702
-812
-935
-987
-917
-773
-668
-668
-732
-780
-795
-849
-1009
-1246
-1448
-1530
-1517
-1492
-1503
-1530
-1533
-1500
-1458
-1445
-1484
-1572
-1674
-1735
-1750
-1769
-1852
-1977
-2035
-1951
-1767
-1611
-1551
-1528
-1445
-1279
-1089
-935
-795
-618
-402
-234
-202
-301
-413
-416
-300
-180
-164
-209
-161
63
368
575
604
555
565
641
688
660
625
685
831
967
1030
1040
1051
1064
1056
1048
1069
1077
965
705
444
386
563
767
775
598
459
525
711
797
690
513
432
450
435
298
107
3
28
112
172
209
255
327
398
432
414
347
244
130
41
1
0
27
90
189
287
327
296
258
282
350
372
300
198
175
243
309
300
254
266
355
435
425
363
349
417
493
486
403
334
342
390
400
352
295
285
314
342
346
332
325
352
415
467
403
161
-167
-393
-456
-538
-867
-1387
-1719
-1562
-1056
-642
-547
-522
-154
617
1418
1873
1979
2006
2142
2313
2358
2247
2076
1919
1770
1613
1470
1363
1270
1151
1004
847
673
481
303
196
168
147
60
-70
-145
-102
20
126
163
154
139
119
68
-16
-100
-152
-171
-186
-215
-245
-243
-198
-146
-137
-181
-231
-228
-181
-166
-241
-364
-442
-439
-423
-480
-602
-699
-708
-675
-694
-793
-901
-939
-905
-873
-900
-973
-1048
-1098
-1139
-1186
-1235
-1277
-1320
-1370
-1416
-1429
-1403
-1368
-1347
-1331
-1303
-1266
-1246
-1233
-1181
-1072
-956
-905
-912
-891
-774
-603
-471
-412
-368
-275
-149
-52
3
78
224
404
527
562
574
651
800
937
985
955
918
925
955
969
962
966
999
1043
1071
1097
1146
1214
1264
1265
1228
1184
1145
1103
1057
1035
1058
1110
1155
1177
1195
1234
1281
1294
1239
1128
1010
934
898
846
740
625
595
688
814
830
694
530
493
586
662
599
441
338
373
487
566
571
557
570
601
623
643
677
703
682
622
590
634
718
753
711
662
694
801
899
917
872
826
822
841
852
842
824
812
807
812
828
846
858
874
901
913
894
877
914
988
970
750
402
125
-2
-142
-479
-911
-1098
-853
-400
-129
-121
-41
446
1246
1926
2202
2214
2297
2571
2860
2952
2836
2652
2493
2334
2126
1896
1708
1569
1425
1243
1048
898
822
793
760
700
616
527
448
387
357
370
415
454
452
412
372
359
368
367
335
284
249
243
248
227
169
103
72
82
91
52
-28
-91
-94
-54
-37
-79
-155
-205
-204
-187
-209
-292
-418
-546
-642
-703
-750
-807
-876
-940
-976
-991
-1008
-1044
-1082
-1094
-1084
-1092
-1145
-1212
-1224
-1148
-1030
-948
-944
-1001
-1070
-1116
-1125
-1091
-1035
-1007
-1039
-1088
-1051
-859
-568
-326
-220
-186
-90
117
340
458
464
453
486
523
514
503
587
775
942
988
967
1020
1174
1285
1229
1076
991
1033
1086
1046
977
1023
1189
1315
1287
1185
1162
1222
1215
1043
802
657
647
671
663
676
779
917
953
851
727
699
727
654
409
114
-47
-35
24
-3
-99
-152
-95
23
90
62
-2
-17
46
141
204
197
136
74
62
105
163
194
199
224
309
446
583
680
746
818
901
958
960
927
913
939
960
918
808
702
669
704
730
678
559
463
471
571
676
716
692
659
672
731
775
711
473
97
-275
-516
-652
-856
-1227
-1605
-1697
-1394
-922
-590
-430
-175
397
1165
1791
2082
2158
2257
2452
2632
2682
2611
2499
2381
2241
2065
1874
1690
1500
1289
1061
827
604
419
292
226
184
128
58
7
4
36
71
87
93
92
71
21
-45
-100
-137
-177
-233
-299
-363
-436
-543
-677
-785
-822
-801
-770
-745
-686
-557
-383
-197
33
405
963
1588
2067
2260
2192
1977
1667
1222
597
-173
-986
-1733
-2314
-2640
-2684
-2557
-2461
-2524
-2685
-2771
-2683
-2520
-2468
-2600
-2799
-2881
-2765
-2515
-2241
-1972
-1657
-1260
-847
-522
-294
-43
334
760
1010
947
709
576
663
798
750
509
295
300
499
746
963
1177
1392
1525
1484
1279
1000
699
359
-51
-535
-1061
-1568
-1964
-2145
-2065
-1765
-1342
-889
-464
-117
119
257
353
422
392
201
-85
-276
-224
25
276
387
383
385
453
523
503
374
200
47
-73
-200
-358
-527
-675
-790
-882
-956
-1000
-1004
-982
-948
-899
-824
-726
-635
-579
-556
-553
-577
-641
-727
-774
-735
-639
-569
-582
-645
-679
-647
-591
-589
-676
-815
-949
-1046
-1120
-1191
-1236
-1189
-1008
-738
-495
-379
-396
-452
-456
-395
-330
-322
-377
-457
-519
-533
-520
-523
-577
-704
-909
-1205
-1583
-1946
-2172
-2250
-2346
-2629
-3004
-3128
-2761
-2090
-1580
-1465
-1475
-1159
-422
364
795
858
865
1029
1240
1263
1042
739
517
373
196
-66
-370
-654
-902
-1116
-1300
-1466
-1634
-1808
-1950
-1994
-1916
-1778
-1672
-1653
-1691
-1715
-1666
-1546
-1402
-1296
-1269
-1321
-1398
-1429
-1400
-1368
-1416
-1555
-1705
-1782
-1777
-1761
-1791
-1859
-1913
-1937
-1972
-2057
-2177
-2284
-2356
-2417
-2505
-2613
-2700
-2733
-2729
-2732
-2772
-2843
-2918
-2971
-2996
-2998
-2986
-2981
-3008
-3077
-3169
-3250
-3318
-3403
-3528
-3660
-3738
-3740
-3711
-3708
-3724
-3701
-3621
-3544
-3540
-3600
-3640
-3605
-3529
-3471
-3433
-3371
-3270
-3167
-3093
-3022
-2910
-2771
-2660
-2613
-2596
-2558
-2488
-2402
-2295
-2140
-1929
-1701
-1510
-1380
-1303
-1269
-1279
-1340
-1453
-1599
-1739
-1826
-1840
-1809
-1780
-1774
-1765
-1731
-1700
-1717
-1785
-1854
-1877
-1879
-1922
-1998
-2028
-1970
-1872
-1809
-1794
-1756
-1615
-1355
-1017
-668
-386
-253
-285
-393
-474
-550
-793
-1322
-1999
-2491
-2584
-2407
-2299
-2464
-2775
-2952
-2870
-2672
-2590
-2701
-2881
-2956
-2862
-2663
-2451
-2268
-2114
-1989
-1888
-1809
-1752
-1706
-1645
-1544
-1404
-1260
-1160
-1114
-1084
-1049
-1043
-1111
-1223
-1283
-1239
-1140
-1068
-1021
-924
-750
-579
-518
-592
-741
-907
-1093
-1308
-1513
-1657
-1748
-1816
-1846
-1798
-1712
-1732
-1948
-2256
-2460
-2532
-2678
-3065
-3518
-3630
-3196
-2474
-1912
-1657
-1427
-894
-89
622
959
977
932
971
1034
1012
882
697
499
301
115
-38
-170
-321
-506
-684
-815
-895
-942
-967
-972
-981
-1026
-1111
-1197
-1249
-1274
-1298
-1325
-1328
-1301
-1280
-1299
-1342
-1361
-1339
-1307
-1309
-1348
-1393
-1432
-1476
-1537
-1592
-1604
-1569
-1518
-1484
-1477
-1485
-1491
-1491
-1491
-1507
-1552
-1630
-1726
-1809
-1854
-1861
-1859
-1881
-1936
-1996
-2023
-2017
-2029
-2107
-2238
-2353
-2402
-2403
-2411
-2453
-2507
-2543
-2571
-2610
-2649
-2658
-2648
-2665
-2720
-2752
-2677
-2491
-2282
-2144
-2084
-2034
-1930
-1783
-1656
-1594
-1577
-1553
-1489
-1392
-1289
-1191
-1094
-999
-915
-841
-774
-717
-678
-640
-575
-483
-418
-426
-463
-429
-303
-214
-292
-486
-585
-470
-270
-217
-353
-482
-422
-225
-106
-169
-301
-339
-271
-229
-308
-452
-526
-462
-325
-223
-192
-182
-130
-45
17
20
-23
-77
-135
-211
-284
-322
-323
-347
-443
-569
-621
-542
-404
-331
-370
-450
-454
-337
-166
-63
-114
-296
-487
-564
-503
-400
-368
-422
-481
-452
-323
-169
-67
-54
-126
-244
-328
-299
-158
-7
52
14
-20
34
145
201
110
-108
-350
-502
-496
-347
-136
31
101
117
140
166
130
-3
-186
-387
-631
-930
-1200
-1323
-1333
-1419
-1687
-1953
-1930
-1581
-1203
-1055
-1005
-687
10
764
1193
1293
1404
1740
2099
2131
1766
1278
940
738
482
111
-194
-235
-41
181
275
258
234
250
265
217
86
-122
-384
-640
-800
-806
-710
-637
-652
-700
-677
-575
-478
-473
-567
-684
-732
-684
-563
-423
-315
-255
-221
-200
-217
-303
-416
-465
-409
-317
-294
-362
-430
-420
-361
-337
-384
-476
-588
-714
-844
-934
-970
-1001
-1090
-1218
-1300
-1288
-1235
-1234
-1308
-1399
-1453
-1496
-1574
-1676
-1730
-1682
-1554
-1417
-1316
-1243
-1163
-1057
-925
-779
-643
-552
-521
-520
-479
-361
-215
-132
-144
-176
-119
61
292
474
577
653
761
905
1046
1136
1152
1091
975
846
763
767
837
899
888
821
799
905
1102
1244
1226
1102
1035
1112
1256
1334
1315
1292
1337
1386
1325
1127
909
793
788
800
750
658
597
601
629
606
491
312
134
-1
-90
-154
-187
-156
-48
91
190
230
256
309
373
394
371
364
408
464
467
431
445
566
732
826
819
808
910
1118
1320
1422
1435
1429
1430
1411
1367
1343
1366
1405
1411
1385
1374
1371
1301
1107
844
633
537
499
452
407
439
567
715
832
939
1057
1110
971
639
302
137
81
-118
-560
-991
-1043
-664
-200
-20
-81
19
552
1336
1940
2154
2167
2279
2540
2749
2737
2567
2412
2340
2263
2080
1808
1556
1414
1371
1355
1289
1156
1013
940
978
1069
1089
954
704
472
377
431
561
670
708
689
651
603
530
429
321
237
172
89
-9
-47
64
308
530
571
433
285
284
401
463
355
154
41
111
285
401
388
309
266
277
273
203
93
12
-23
-69
-176
-318
-417
-432
-424
-494
-662
-836
-908
-870
-816
-829
-875
-846
-699
-524
-445
-478
-507
-427
-267
-151
-153
-222
-247
-182
-66
40
120
201
301
410
496
546
576
614
685
777
852
888
913
986
1127
1278
1354
1333
1278
1261
1302
1361
1401
1421
1442
1474
1515
1564
1611
1643
1644
1619
1589
1567
1551
1527
1496
1471
1456
1435
1387
1308
1212
1103
986
883
831
850
906
944
948
965
1044
1167
1258
1253
1167
1078
1040
1039
1020
961
898
883
922
978
1015
1035
1056
1085
1112
1132
1159
1202
1250
1298
1353
1420
1484
1515
1509
1497
1512
1550
1580
1576
1551
1534
1541
1570
1604
1618
1591
1527
1458
1429
1453
1485
1471
1398
1323
1310
1374
1474
1546
1537
1474
1432
1468
1523
1441
1137
724
405
230
7
-437
-969
-1216
-979
-486
-133
-22
145
663
1446
2130
2486
2625
2770
2959
3059
3003
2876
2773
2662
2452
2154
1897
1784
1775
1746
1628
1441
1254
1120
1044
1006
979
935
871
826
846
940
1063
1146
1157
1121
1087
1072
1046
991
940
947
1021
1100
1109
1044
979
977
1007
960
776
545
434
517
698
811
789
707
663
659
628
557
505
509
516
458
351
288
302
306
189
-54
-325
-536
-678
-782
-855
-879
-867
-856
-855
-828
-735
-598
-487
-454
-479
-503
-483
-421
-354
-309
-281
-233
-147
-46
23
44
57
116
231
364
493
640
833
1030
1137
1113
1037
1040
1147
1243
1202
1038
904
926
1083
1239
1290
1254
1220
1246
1321
1393
1420
1400
1370
1369
1403
1440
1459
1477
1534
1629
1691
1641
1475
1272
1108
968
787
554
341
223
197
202
217
296
478
700
859
939
1027
1152
1199
1027
661
314
171
220
334
464
664
929
1132
1165
1113
1182
1456
1771
1906
1837
1770
1896
2196
2460
2494
2252
1836
1385
980
620
265
-93
-406
-596
-610
-439
-103
342
802
1151
1314
1332
1321
1345
1354
1248
1001
703
492
423
434
453
488
603
841
1155
1425
1550
1487
1263
959
654
354
-20
-529
-1069
-1400
-1357
-1047
-748
-585
-370
165
1002
1804
2243
2307
2231
2182
2105
1880
1522
1171
917
734
566
412
301
213
101
-22
-106
-144
-178
-235
-263
-186
-22
128
193
201
219
246
209
78
-59
-79
42
209
321
366
384
362
226
-70
-460
-828
-1118
-1353
-1562
-1707
-1725
-1611
-1438
-1284
-1175
-1104
-1074
-1092
-1135
-1153
-1119
-1059
-1015
-995
-983
-982
-1006
-1053
-1092
-1111
-1146
-1241
-1378
-1484
-1518
-1506
-1501
-1507
-1499
-1496
-1573
-1757
-1950
-1985
-1786
-1456
-1179
-1049
-1015
-978
-916
-903
-1025
-1277
-1570
-1801
-1913
-1900
-1779
-1574
-1325
-1080
-880
-733
-621
-540
-511
-537
-576
-564
-483
-380
-297
-207
-56
136
256
225
122
121
293
511
584
469
303
225
209
105
-159
-477
-673
-690
-625
-596
-606
-568
-436
-273
-177
-175
-218
-270
-350
-494
-686
-864
-980
-1024
-996
-905
-774
-653
-571
-507
-417
-310
-247
-273
-360
-444
-501
-561
-648
-745
-818
-854
-873
-890
-901
-911
-943
-1002
-1049
-1035
-970
-916
-913
-930
-892
-775
-649
-614
-699
-823
-875
-815
-712
-657
-678
-720
-717
-668
-637
-666
-729
-752
-687
-567
-472
-462
-524
-607
-687
-776
-911
-1106
-1317
-1485
-1593
-1699
-1886
-2140
-2340
-2399
-2402
-2549
-2877
-3142
-3049
-2599
-2119
-1876
-1735
-1326
-529
330
841
946
940
1066
1251
1276
1089
832
625
421
127
-222
-495
-637
-754
-969
-1269
-1511
-1568
-1459
-1337
-1329
-1437
-1552
-1586
-1553
-1528
-1534
-1505
-1372
-1175
-1032
-1009
-1061
-1095
-1080
-1076
-1142
-1240
-1257
-1122
-876
-649
-540
-547
-602
-685
-866
-1208
-1678
-2139
-2457
-2600
-2610
-2534
-2386
-2190
-1990
-1824
-1695
-1598
-1564
-1625
-1763
-1898
-1969
-1994
-2016
-2036
-2019
-1957
-1896
-1902
-1989
-2108
-2192
-2195
-2119
-2014
-1942
-1920
-1877
-1707
-1385
-1023
-788
-744
-808
-861
-898
-1016
-1282
-1634
-1914
-2012
-1935
-1759
-1533
-1254
-924
-579
-271
-23
160
259
242
132
15
-19
43
134
198
251
342
464
548
557
529
532
569
590
567
544
579
663
724
704
625
565
570
627
683
700
678
640
608
580
548
520
515
546
588
600
572
539
548
606
669
681
629
539
462
433
465
532
582
579
535
509
542
612
657
640
581
534
528
560
601
628
633
636
665
725
790
821
819
826
875
931
933
877
838
883
988
1061
1054
1014
1025
1097
1153
1122
1020
926
895
909
911
876
832
825
867
924
938
871
761
688
696
714
600
309
-26
-220
-254
-295
-473
-682
-675
-369
57
377
593
901
1406
1970
2371
2550
2631
2719
2787
2757
2642
2531
2472
2411
2280
2080
1884
1742
1633
1501
1327
1130
954
836
793
808
836
822
768
730
757
832
868
808
702
651
699
779
804
773
767
832
922
967
970
975
968
898
764
662
684
806
913
935
915
920
934
885
744
564
404
263
110
-46
-154
-185
-179
-189
-224
-258
-289
-339
-414
-487
-542
-605
-690
-744
-690
-528
-359
-278
-278
-274
-230
-195
-213
-256
-291
-348
-457
-560
-548
-398
-241
-203
-256
-261
-158
-35
6
-6
15
72
77
12
-3
158
448
680
744
716
749
889
1040
1098
1057
986
942
926
933
982
1090
1220
1299
1302
1293
1344
1434
1451
1327
1145
1058
1091
1101
965
756
679
811
982
980
812
699
798
1019
1149
1114
1038
1050
1120
1128
1051
985
992
1005
933
789
698
722
787
787
722
697
770
877
917
887
872
935
1033
1077
1046
996
989
1026
1066
1093
1141
1228
1327
1399
1431
1452
1499
1577
1652
1685
1669
1642
1679
1827
2039
2188
2176
2022
1835
1702
1612
1502
1345
1189
1087
1055
1072
1120
1194
1248
1210
1069
906
814
769
640
360
40
-144
-192
-309
-644
-1044
-1190
-969
-626
-488
-563
-518
-69
686
1385
1785
1963
2136
2385
2604
2666
2575
2418
2252
2072
1867
1667
1505
1357
1170
931
693
532
466
431
360
253
175
172
207
204
135
48
5
7
-6
-67
-142
-168
-119
-26
62
122
164
194
199
168
118
78
61
43
-2
-67
-120
-139
-143
-161
-205
-264
-328
-395
-464
-524
-574
-629
-705
-798
-886
-957
-1017
-1077
-1135
-1181
-1220
-1268
-1326
-1373
-1386
-1373
-1356
-1349
-1353
-1367
-1387
-1388
-1334
-1221
-1114
-1095
-1168
-1238
-1200
-1055
-907
-844
-843
-812
-698
-539
-407
-320
-243
-145
-43
31
81
152
262
363
399
377
388
505
689
823
839
797
817
934
1048
1050
944
844
837
890
913
868
807
795
834
871
875
866
878
899
883
813
733
698
712
721
676
596
557
598
675
701
646
573
561
611
638
577
458
378
393
469
526
530
515
531
583
629
628
582
532
522
555
600
620
621
648
739
875
987
1020
995
978
1015
1086
1136
1148
1147
1155
1173
1185
1189
1189
1183
1164
1137
1125
1144
1176
1192
1179
1157
1151
1160
1169
1170
1171
1181
1198
1198
1175
1167
1207
1270
1242
1017
640
296
110
-20
-309
-776
-1126
-1039
-546
-31
201
268
548
1201
1977
2503
2690
2745
2872
3050
3146
3115
3031
2941
2808
2598
2366
2189
2058
1883
1626
1347
1131
1007
928
841
752
690
659
642
626
614
623
652
687
711
718
710
690
659
630
614
614
611
599
587
583
577
547
499
467
486
545
588
574
516
466
450
442
400
322
259
244
259
243
166
58
-21
-47
-58
-106
-196
-290
-349
-379
-413
-473
-540
-586
-601
-607
-631
-675
-707
-692
-632
-568
-540
-546
-534
-454
-325
-214
-165
-150
-104
-7
100
168
207
268
370
469
519
540
607
752
922
1042
1106
1180
1304
1436
1515
1550
1618
1758
1914
1999
2002
1980
1965
1907
1735
1457
1171
960
823
711
601
531
549
657
800
910
957
960
962
980
981
931
850
807
851
941
996
991
990
1038
1089
1062
960
895
960
1127
1292
1410
1526
1688
1866
2002
2085
2148
2183
2123
1924
1631
1326
1030
693
291
-115
-426
-595
-646
-624
-547
-410
-213
43
343
656
920
1069
1096
1049
1005
1005
1039
1066
1055
1012
985
1039
1186
1357
1443
1412
1358
1417
1612
1810
1849
1709
1526
1424
1381
1295
1136
983
941
1007
1082
1058
887
605
311
95
-69
-327
-787
-1319
-1598
-1422
-973
-651
-612
-563
-102
787
1673
2145
2230
2287
2551
2905
3092
3031
2849
2669
2469
2177
1834
1560
1392
1244
1031
787
624
589
592
521
362
187
54
-46
-136
-183
-143
-37
37
11
-64
-79
-2
97
137
112
71
33
-30
-129
-227
-278
-291
-323
-393
-456
-451
-378
-274
-177
-93
-20
18
-11
-128
-327
-593
-898
-1211
-1512
-1787
-2012
-2145
-2155
-2071
-1983
-1973
-2042
-2119
-2154
-2176
-2231
-2297
-2288
-2162
-1980
-1845
-1788
-1746
-1647
-1508
-1409
-1408
-1483
-1562
-1598
-1582
-1526
-1456
-1414
-1429
-1470
-1440
-1273
-1047
-936
-1014
-1142
-1107
-871
-640
-627
-803
-960
-992
-1041
-1307
-1787
-2253
-2484
-2463
-2328
-2175
-1945
-1508
-833
-77
496
692
526
206
-70
-301
-645
-1189
-1781
-2134
-2117
-1865
-1600
-1419
-1268
-1095
-945
-895
-970
-1157
-1447
-1816
-2152
-2281
-2131
-1823
-1569
-1471
-1463
-1452
-1480
-1679
-2090
-2594
-3025
-3329
-3582
-3818
-3936
-3791
-3379
-2874
-2464
-2167
-1858
-1460
-1065
-840
-824
-866
-766
-489
-196
-75
-179
-434
-768
-1194
-1756
-2431
-3146
-3827
-4410
-4807
-4922
-4745
-4411
-4109
-3927
-3802
-3623
-3359
-3111
-2988
-3020
-3160
-3331
-3472
-3545
-3551
-3539
-3567
-3640
-3726
-3789
-3841
-3941
-4085
-4178
-4094
-3817
-3509
-3375
-3476
-3691
-3888
-4096
-4449
-4978
-5491
-5741
-5687
-5506
-5323
-5029
-4422
-3522
-2634
-2076
-1875
-1815
-1734
-1689
-1828
-2169
-2565
-2848
-2965
-2949
-2846
-2690
-2546
-2508
-2605
-2799
-3040
-3311
-3619
-3938
-4205
-4390
-4516
-4638
-4771
-4860
-4836
-4701
-4560
-4537
-4667
-4855
-4959
-4923
-4823
-4789
-4848
-4901
-4851
-4712
-4586
-4546
-4549
-4491
-4326
-4105
-3922
-3840
-3877
-4014
-4209
-4398
-4550
-4699
-4901
-5137
-5278
-5196
-4912
-4614
-4487
-4558
-4693
-4737
-4661
-4540
-4436
-4321
-4126
-3841
-3560
-3413
-3454
-3629
-3851
-4094
-4406
-4829
-5296
-5650
-5751
-5591
-5289
-4987
-4743
-4522
-4275
-4013
-3801
-3684
-3642
-3627
-3597
-3536
-3438
-3292
-3092
-2883
-2712
-2584
-2442
-2241
-2014
-1859
-1824
-1866
-1911
-1938
-1977
-2036
-2078
-2077
-2061
-2064
-2044
-1925
-1704
-1496
-1429
-1492
-1555
-1512
-1393
-1309
-1326
-1395
-1423
-1365
-1250
-1151
-1130
-1196
-1294
-1343
-1301
-1230
-1245
-1404
-1629
-1775
-1771
-1683
-1633
-1674
-1743
-1746
-1652
-1515
-1412
-1365
-1339
-1310
-1285
-1286
-1305
-1290
-1195
-1018
-803
-608
-481
-433
-435
-445
-455
-513
-673
-897
-1019
-872
-468
-31
181
105
-96
-220
-237
-288
-508
-885
-1267
-1497
-1508
-1317
-990
-625
-339
-204
-186
-168
-71
58
100
-4
-168
-244
-155
41
238
382
483
560
602
599
578
566
551
494
398
308
226
77
-190
-476
-563
-337
76
430
641
890
1393
2116
2791
3189
3341
3438
3589
3729
3748
3616
3376
3074
2762
2514
2376
2271
2040
1629
1189
932
921
1043
1195
1415
1802
2328
2829
3175
3385
3553
3689
3703
3531
3223
2903
2657
2512
2467
2515
2617
2706
2749
2771
2810
2842
2806
2686
2553
2486
2486
2487
2451
2413
2431
2497
2542
2515
2436
2367
2345
2359
2374
2369
2338
2288
2233
2186
2135
2055
1943
1843
1792
1774
1731
1640
1547
1507
1515
1518
1494
1488
1549
1656
1729
1727
1692
1696
1760
1836
1874
1876
1880
1905
1953
2013
2079
2139
2176
2191
2207
2252
2322
2384
2417
2436
2474
2540
2613
2669
2703
2723
2744
2773
2816
2881
2970
3076
3186
3292
3380
3437
3449
3424
3390
3359
3326
3273
3208
3165
3180
3252
3345
3416
3436
3413
3362
3291
3203
3107
3026
2973
2935
2889
2819
2746
2714
2740
2805
2852
2841
2775
2695
2647
2640
2654
2681
2743
2848
2948
2971
2912
2868
2935
3079
3146
3022
2779
2606
2600
2668
2660
2562
2505
2598
2788
2925
2929
2862
2832
2872
2919
2907
2836
2758
2724
2744
2793
2830
2825
2764
2676
2613
2600
2605
2586
2546
2548
2654
2850
3040
3132
3118
3068
3041
3034
2994
2875
2705
2568
2527
2546
2515
2377
2175
1983
1781
1475
1068
734
673
888
1162
1304
1366
1573
2046
2662
3184
3489
3632
3737
3866
4017
4157
4225
4148
3916
3629
3423
3324
3228
3030
2768
2580
2534
2545
2473
2261
1974
1709
1507
1341
1134
812
368
-81
-348
-317
-42
320
679
1075
1591
2208
2814
3306
3645
3811
3766
3496
3075
2658
2379
2271
2257
2229
2128
1985
1903
1958
2108
2193
2065
1728
1355
1129
1089
1106
1018
789
532
391
385
404
324
146
-11
-45
37
144
199
180
94
-29
-115
-94
41
201
285
304
357
503
680
781
778
731
703
695
681
659
654
660
649
624
640
748
919
1053
1075
1012
962
990
1068
1106
1056
964
918
971
1095
1220
1287
1283
1238
1200
1203
1256
1318
1346
1346
1368
1448
1548
1589
1529
1409
1300
1233
1202
1207
1242
1258
1187
1033
908
933
1075
1157
1038
786
615
656
819
911
850
726
657
652
643
599
558
547
530
475
432
474
593
670
611
457
338
326
366
368
322
305
375
512
652
760
837
880
885
867
871
924
997
1025
984
921
902
946
1002
1011
972
941
967
1030
1063
1033
975
954
988
1021
1002
939
900
922
978
1012
992
952
953
1018
1098
1084
888
546
206
-20
-193
-494
-963
-1368
-1410
-1071
-678
-531
-542
-324
328
1164
1742
1893
1854
1933
2172
2365
2338
2121
1864
1665
1524
1400
1263
1090
865
618
408
261
151
34
-93
-196
-258
-286
-291
-267
-207
-140
-114
-157
-248
-339
-402
-446
-508
-607
-711
-767
-733
-627
-510
-442
-451
-525
-631
-723
-770
-776
-785
-839
-913
-933
-864
-764
-728
-786
-881
-958
-1037
-1184
-1408
-1630
-1763
-1802
-1811
-1842
-1880
-1880
-1825
-1753
-1723
-1754
-1808
-1824
-1772
-1694
-1652
-1651
-1612
-1448
-1175
-918
-790
-791
-822
-807
-760
-751
-822
-943
-1049
-1096
-1077
-1016
-942
-869
-797
-728
-676
-655
-644
-606
-528
-446
-402
-382
-319
-164
43
213
290
304
317
354
382
362
294
213
152
131
150
197
236
232
181
122
92
86
64
5
-51
-50
26
143
268
394
517
604
598
486
316
159
28
-109
-275
-428
-497
-457
-355
-269
-235
-224
-187
-123
-83
-108
-179
-234
-228
-180
-143
-159
-217
-291
-358
-395
-376
-290
-164
-41
59
150
240
289
247
117
-34
-144
-216
-293
-386
-442
-409
-297
-179
-112
-91
-74
-38
-4
1
-21
-53
-85
-124
-169
-203
-201
-155
-98
-67
-70
-108
-153
-164
-96
28
86
-50
-361
-668
-834
-934
-1165
-1559
-1871
-1834
-1479
-1112
-937
-812
-436
245
954
1384
1524
1601
1770
1951
1981
1828
1617
1455
1344
1229
1093
969
865
734
548
326
123
-26
-131
-211
-274
-324
-381
-463
-565
-645
-668
-644
-628
-665
-730
-762
-727
-658
-620
-639
-688
-722
-735
-755
-810
-889
-956
-980
-966
-947
-959
-1017
-1108
-1202
-1272
-1317
-1348
-1373
-1387
-1375
-1338
-1291
-1254
-1241
-1258
-1308
-1390
-1497
-1615
-1721
-1796
-1839
-1864
-1896
-1945
-1996
-2027
-2032
-2039
-2076
-2136
-2176
-2158
-2098
-2042
-2020
-2008
-1962
-1878
-1808
-1803
-1860
-1917
-1927
-1904
-1891
-1903
-1912
-1886
-1832
-1776
-1726
-1655
-1549
-1432
-1350
-1312
-1283
-1231
-1161
-1104
-1079
-1075
-1069
-1049
-1021
-994
-974
-965
-964
-960
-941
-913
-892
-893
-911
-932
-945
-943
-924
-902
-901
-942
-1000
-1024
-1004
-983
-1019
-1106
-1178
-1185
-1145
-1117
-1126
-1149
-1157
-1153
-1153
-1156
-1146
-1124
-1121
-1162
-1234
-1303
-1343
-1360
-1380
-1420
-1472
-1515
-1526
-1506
-1471
-1438
-1399
-1343
-1276
-1226
-1202
-1187
-1152
-1101
-1077
-1116
-1207
-1303
-1359
-1374
-1374
-1383
-1403
-1413
-1392
-1349
-1311
-1293
-1279
-1242
-1182
-1135
-1141
-1198
-1271
-1333
-1388
-1451
-1507
-1516
-1461
-1369
-1283
-1213
-1122
-1000
-884
-817
-802
-823
-916
-1142
-1477
-1784
-1952
-2051
-2275
-2675
-3026
-3034
-2682
-2273
-2087
-2062
-1895
-1410
-770
-283
-89
-77
-64
8
69
33
-132
-403
-722
-1011
-1214
-1332
-1412
-1516
-1654
-1793
-1890
-1894
-1774
-1544
-1276
-1056
-914
-798
-638
-418
-208
-101
-135
-252
-338
-315
-203
-88
-49
-94
-182
-288
-429
-638
-914
-1220
-1515
-1762
-1922
-1965
-1904
-1816
-1781
-1814
-1863
-1890
-1943
-2103
-2362
-2579
-2576
-2312
-1899
-1487
-1124
-756
-349
59
398
639
787
819
669
322
-145
-621
-1055
-1476
-1894
-2238
-2408
-2380
-2225
-2031
-1824
-1594
-1366
-1225
-1238
-1370
-1523
-1641
-1742
-1851
-1914
-1818
-1503
-1039
-566
-181
116
374
605
787
898
942
940
908
858
817
805
800
744
590
354
119
-49
-141
-203
-262
-306
-304
-262
-234
-275
-370
-451
-484
-531
-721
-1120
-1649
-2137
-2465
-2644
-2753
-2824
-2805
-2647
-2367
-2037
-1691
-1303
-866
-451
-165
-54
-60
-84
-85
-89
-132
-222
-335
-441
-513
-529
-486
-424
-407
-472
-593
-698
-728
-686
-623
-584
-578
-583
-569
-517
-430
-335
-286
-329
-464
-626
-729
-725
-644
-568
-563
-618
-640
-544
-358
-228
-318
-662
-1124
-1512
-1723
-1773
-1721
-1578
-1324
-958
-517
-49
397
774
1027
1126
1080
915
672
395
131
-94
-300
-510
-690
-804
-884
-1005
-1132
-1070
-653
-6
480
531
300
201
438
791
893
672
405
374
563
751
795
749
706
646
494
257
16
-160
-303
-481
-692
-872
-941
-871
-702
-499
-323
-197
-77
92
292
426
434
384
428
620
824
844
655
437
366
430
473
403
291
241
242
196
69
-71
-182
-343
-668
-1146
-1613
-1910
-2019
-2035
-2019
-1940
-1729
-1376
-973
-647
-483
-492
-633
-848
-1105
-1372
-1598
-1719
-1716
-1651
-1612
-1617
-1598
-1476
-1272
-1104
-1077
-1181
-1307
-1350
-1288
-1179
-1063
-923
-745
-587
-568
-756
-1103
-1498
-1885
-2300
-2789
-3292
-3657
-3760
-3598
-3263
-2842
-2380
-1910
-1492
-1171
-948
-820
-803
-910
-1078
-1171
-1077
-794
-422
-67
214
406
508
520
444
272
-18
-401
-773
-1012
-1097
-1133
-1233
-1383
-1477
-1455
-1376
-1347
-1403
-1503
-1618
-1766
-1941
-2066
-2058
-1918
-1739
-1601
-1494
-1373
-1226
-1089
-986
-901
-810
-720
-659
-633
-611
-553
-468
-411
-437
-543
-682
-809
-911
-997
-1062
-1078
-1054
-1050
-1117
-1235
-1310
-1270
-1153
-1083
-1145
-1300
-1432
-1467
-1435
-1422
-1484
-1601
-1702
-1718
-1627
-1468
-1326
-1268
-1303
-1379
-1442
-1476
-1503
-1547
-1612
-1691
-1771
-1825
-1825
-1765
-1676
-1601
-1569
-1569
-1593
-1648
-1720
-1766
-1769
-1786
-1926
-2215
-2523
-2692
-2725
-2807
-3080
-3426
-3562
-3348
-2966
-2703
-2618
-2480
-2067
-1454
-937
-708
-683
-661
-576
-511
-514
-509
-426
-341
-400
-616
-824
-883
-867
-979
-1297
-1674
-1894
-1889
-1767
-1664
-1635
-1675
-1774
-1916
-2057
-2154
-2231
-2346
-2503
-2618
-2605
-2483
-2338
-2222
-2113
-1987
-1881
-1842
-1849
-1836
-1797
-1798
-1874
-1946
-1910
-1766
-1647
-1671
-1816
-1952
-1997
-1980
-1969
-1973
-1965
-1949
-1966
-2029
-2084
-2075
-2030
-2032
-2122
-2241
-2296
-2261
-2209
-2250
-2422
-2655
-2838
-2920
-2944
-2982
-3055
-3123
-3147
-3137
-3122
-3097
-3045
-2975
-2937
-2954
-2973
-2909
-2750
-2567
-2425
-2305
-2151
-1958
-1795
-1719
-1712
-1704
-1663
-1623
-1634
-1689
-1718
-1659
-1513
-1352
-1236
-1165
-1093
-995
-915
-930
-1046
-1184
-1269
-1311
-1371
-1445
-1460
-1369
-1240
-1184
-1208
-1202
-1088
-936
-889
-966
-1027
-941
-748
-613
-631
-723
-760
-735
-750
-861
-1002
-1069
-1038
-964
-866
-715
-523
-399
-444
-609
-720
-704
-694
-864
-1179
-1376
-1262
-956
-757
-791
-885
-807
-559
-351
-340
-475
-612
-686
-723
-744
-734
-707
-707
-734
-688
-505
-264
-131
-167
-251
-239
-158
-150
-280
-441
-486
-412
-323
-265
-169
8
184
246
221
270
441
554
411
89
-86
85
411
523
295
-23
-100
105
334
326
53
-303
-549
-635
-666
-804
-1105
-1426
-1525
-1281
-854
-504
-291
-28
466
1107
1622
1851
1896
1947
2055
2112
2017
1818
1637
1539
1477
1359
1139
862
602
409
258
75
-167
-387
-480
-429
-346
-354
-458
-548
-533
-444
-380
-398
-469
-527
-534
-499
-439
-383
-368
-420
-532
-661
-765
-832
-862
-841
-763
-654
-560
-491
-421
-330
-261
-283
-423
-624
-801
-909
-974
-1036
-1099
-1142
-1154
-1158
-1183
-1234
-1283
-1308
-1321
-1361
-1439
-1521
-1541
-1483
-1405
-1387
-1453
-1551
-1622
-1639
-1620
-1593
-1573
-1558
-1533
-1471
-1358
-1217
-1102
-1049
-1032
-987
-883
-757
-663
-612
-565
-476
-350
-233
-160
-123
-77
16
156
308
433
537
659
829
1028
1204
1308
1327
1281
1209
1151
1136
1154
1163
1137
1098
1096
1138
1173
1137
1026
890
788
732
695
650
603
587
629
716
800
838
823
794
793
825
864
894
920
951
972
972
959
952
945
903
812
721
716
836
1026
1174
1214
1171
1110
1056
969
795
547
298
117
16
-43
-80
-80
-19
98
248
409
561
687
776
852
952
1072
1163
1186
1164
1153
1164
1154
1087
1002
977
1045
1143
1187
1157
1117
1135
1206
1261
1235
1130
1016
974
1032
1129
1177
1153
1107
1088
1039
851
520
187
-22
-180
-486
-963
-1328
-1247
-728
-147
159
274
575
1256
2089
2672
2848
2808
2812
2919
3011
2984
2853
2681
2492
2286
2092
1949
1841
1685
1425
1108
837
680
615
565
497
436
425
462
503
519
523
536
543
510
438
383
388
425
419
343
254
225
255
258
173
36
-49
-33
33
66
41
10
19
46
26
-71
-206
-310
-348
-346
-357
-406
-470
-511
-527
-556
-642
-781
-913
-984
-1000
-1011
-1044
-1061
-1013
-903
-798
-753
-761
-778
-778
-779
-800
-825
-816
-756
-661
-558
-456
-360
-279
-214
-154
-87
-19
28
59
104
187
290
381
444
500
574
659
733
794
865
961
1065
1147
1189
1205
1220
1253
1307
1364
1395
1381
1340
1323
1357
1415
1436
1400
1343
1321
1339
1353
1323
1257
1195
1156
1126
1080
1013
953
914
895
875
845
824
827
846
853
835
800
764
724
669
605
557
539
539
538
540
555
574
560
492
398
333
322
334
321
274
233
243
303
374
411
407
392
400
438
493
550
603
643
655
643
641
681
746
782
761
717
708
731
729
669
593
575
625
679
685
659
663
724
800
843
848
860
902
936
928
899
902
928
869
646
334
94
-35
-198
-516
-856
-913
-562
-28
357
543
794
1317
1974
2441
2579
2542
2533
2573
2559
2468
2383
2337
2245
2031
1757
1551
1440
1313
1078
785
544
403
327
276
265
309
373
408
422
468
560
641
623
478
279
145
147
254
361
388
361
389
523
677
697
536
313
180
148
95
-52
-211
-252
-154
-22
40
32
13
12
12
1
-11
-42
-116
-218
-287
-275
-223
-208
-257
-312
-330
-335
-374
-442
-497
-524
-562
-637
-707
-714
-660
-592
-527
-429
-283
-144
-76
-66
-24
95
228
288
278
294
404
562
665
672
645
664
742
828
883
920
970
1042
1122
1206
1304
1405
1453
1402
1278
1175
1167
1232
1273
1240
1189
1225
1375
1538
1586
1507
1417
