4393
4393
4407
4435
4455
4453
4442
4450
4489
4541
4575
4578
4563
4555
4569
4603
4636
4646
4624
4588
4567
4576
4598
4602
4578
4553
4562
4604
4642
4641
4613
4600
4628
4670
4681
4652
4630
4663
4749
4841
4895
4928
4978
5050
5105
5113
5099
5117
5162
5164
5107
5070
5117
5181
5141
5023
5007
5167
5322
5262
5092
5124
5359
5279
4394
2960
1888
1782
2273
2479
2096
1764
2283
3670
5170
6086
6388
6471
6570
6573
6326
5901
5489
5179
4930
4720
4613
4649
4776
4913
5010
5019
4869
4553
4213
4039
4079
4202
4267
4276
4312
4357
4297
4104
3904
3779
3596
3166
2581
2241
2445
3039
3574
3807
3933
4284
4903
5490
5735
5595
5250
4892
4610
4419
4305
4241
4194
4158
4161
4216
4283
4303
4262
4190
4106
4004
3896
3825
3822
3870
3907
3887
3816
3735
3664
3588
3492
3396
3321
3265
3215
3180
3178
3207
3225
3208
3190
3231
3346
3466
3514
3479
3418
3383
3364
3324
3262
3228
3257
3313
3301
3180
3025
2964
3050
3207
3304
3293
3247
3277
3409
3582
3726
3806
3808
3730
3613
3549
3597
3682
3614
3274
2758
2303
2044
1880
1610
1169
718
491
559
785
993
1144
1322
1581
1851
2041
2169
2346
2617
2859
2908
2781
2699
2842
3150
3414
3523
3567
3670
3804
3861
3852
3899
4034
4087
3910
3623
3543
3817
4243
4510
4553
4597
4836
5205
5466
5486
5321
5111
4934
4808
4737
4716
4719
4728
4748
4783
4814
4821
4822
4845
4858
4791
4639
4513
4528
4668
4807
4857
4856
4893
4985
5074
5125
5160
5183
5144
5033
4947
5001
5165
5260
5178
5049
5091
5300
5397
5140
4643
4274
4235
4339
4283
4058
3952
4177
4594
4900
5003
5083
5297
5550
5638
5538
5416
5387
5372
5242
5012
4831
4762
4733
4677
4630
4635
4621
4462
4178
3986
4059
4303
4445
4350
4182
4186
4366
4454
4220
3736
3293
3084
3061
3072
3082
3199
3504
3943
4394
4766
5023
5129
5059
4855
4637
4505
4437
4329
4156
4038
4118
4390
4673
4782
4702
4567
4485
4441
4375
4290
4263
4325
4391
4336
4173
4064
4143
4350
4490
4444
4310
4268
4345
4384
4243
3987
3822
3858
4002
4092
4113
4191
4405
4665
4809
4774
4626
4442
4239
4033
3885
3850
3887
3895
3863
3894
4047
4199
4142
3851
3542
3431
3481
3478
3333
3211
3315
3595
3786
3725
3536
3456
3535
3615
3578
3505
3546
3705
3850
3911
3964
4098
4293
4454
4533
4536
4441
4199
3842
3495
3223
2907
2390
1713
1137
866
821
789
716
762
1048
1448
1723
1809
1881
2101
2398
2580
2598
2634
2881
3311
3719
3947
4018
4044
4083
4110
4104
4083
4069
4059
4047
4069
4190
4418
4666
4820
4838
4768
4695
4665
4678
4715
4746
4731
4656
4578
4604
4782
5000
5043
4815
4477
4294
4349
4447
4383
4218
4209
4460
4733
4699
4360
4074
4149
4490
4725
4658
4484
4533
4887
5322
5601
5713
5798
5920
5997
5943
5789
5655
5616
5629
5611
5519
5379
5256
5201
5215
5238
5189
5041
4862
4768
4802
4898
4953
4924
4843
4745
4621
4470
4338
4282
4283
4253
4157
4083
4153
4353
4509
4470
4280
4152
4231
4432
4549
4482
4339
4290
4362
4436
4413
4336
4295
4281
4195
3998
3793
3698
3696
3661
3542
3446
3500
3694
3892
3993
4018
4041
4083
4115
4126
4118
4040
3806
3433
3097
3006
3194
3481
3674
3769
3930
4275
4726
5080
5195
5099
4934
4805
4727
4660
4579
4495
4424
4377
4382
4471
4614
4711
4661
4473
4265
4143
4112
4089
4017
3916
3828
3769
3753
3826
4000
4205
4305
4232
4077
4005
4075
4179
4157
3945
3650
3454
3447
3554
3634
3633
3635
3748
3922
3972
3787
3502
3377
3511
3725
3781
3676
3636
3826
4139
4324
4285
4149
4085
4112
4132
4087
4043
4077
4178
4275
4313
4269
4118
3826
3406
2947
2523
2123
1686
1212
790
544
529
691
937
1203
1467
1740
2030
2327
2598
2806
2934
2989
3002
3009
3063
3220
3486
3777
3969
4013
3987
4010
4120
4251
4307
4247
4092
3908
3792
3839
4073
4392
4620
4670
4620
4616
4707
4820
4863
4821
4736
4643
4559
4509
4516
4556
4555
4488
4421
4430
4506
4566
4560
4540
4571
4637
4662
4622
4586
4630
4740
4830
4832
4758
4665
4614
4637
4725
4836
4918
4953
4977
5049
5175
5286
5303
5215
5080
4963
4890
4849
4817
4781
4744
4720
4724
4756
4790
4802
4784
4754
4720
4671
4598
4514
4451
4424
4414
4389
4340
4279
4233
4215
4209
4187
4131
4052
3997
3995
4025
4040
4017
3982
3976
4007
4054
4094
4119
4120
4084
4017
3956
3945
3988
4035
4033
3974
3902
3872
3893
3928
3939
3939
3961
3998
3997
3932
3882
3941
4071
4093
3880
3534
3300
3248
3171
2866
2452
2307
2634
3209
3634
3798
3952
4342
4875
5239
5265
5086
4927
4846
4753
4600
4466
4434
4490
4543
4539
4505
4481
4457
4391
4267
4116
3980
3889
3852
3854
3870
3875
3856
3804
3672
3383
2934
2480
2252
2353
2642
2877
2987
3149
3538
4052
4345
4186
3713
3297
3168
3224
3229
3114
3039
3195
3566
3930
4103
4110
4100
4107
4017
3787
3571
3559
3717
3817
3772
3795
4046
4217
3725
2448
1071
446
646
895
534
-170
-374
260
1105
1255
496
-546
-1115
-996
-475
125
741
1486
2419
3475
4513
5367
5894
6026
5804
5356
4844
4427
4207
4181
4266
4377
4492
4638
4813
4952
4959
4797
4544
4320
4173
4088
4080
4236
4579
4896
4827
4236
3458
3058
3255
3642
3606
3009
2338
2200
2717
3485
4072
4408
4710
5162
5756
6350
6787
6945
6783
6399
6000
5744
5624
5541
5461
5429
5454
5453
5368
5273
5276
5364
5418
5370
5291
5272
5281
5229
5153
5211
5436
5580
5315
4643
3978
3765
4052
4496
4758
4823
4930
5248
5694
6052
6173
6068
5837
5567
5290
5016
4765
4559
4406
4304
4258
4292
4397
4475
4381
4074
3697
3466
3442
3476
3420
3337
3440
3823
4314
4644
4719
4664
4641
4671
4667
4586
4503
4489
4531
4578
4606
4636
4689
4758
4815
4828
4772
4643
4498
4415
4411
4404
4284
4045
3822
3775
3920
4122
4217
4165
4087
4148
4400
4711
4858
4719
4387
4100
4022
4123
4256
4343
4429
4574
4754
4895
4953
4947
4888
4752
4526
4270
4070
3961
3922
3916
3925
3937
3928
3892
3858
3847
3825
3749
3642
3585
3620
3691
3702
3626
3503
3357
3178
3006
2944
3031
3119
2976
2584
2240
2290
2757
3294
3560
3578
3658
4023
4565
4982
5086
4947
4748
4606
4525
4460
4391
4328
4274
4199
4047
3772
3387
2976
2613
2282
1895
1408
913
585
537
726
1005
1252
1441
1621
1841
2098
2347
2537
2667
2778
2912
3073
3231
3363
3484
3622
3776
3920
4042
4159
4280
4382
4426
4418
4411
4447
4504
4521
4475
4414
4400
4446
4502
4526
4517
4506
4506
4503
4480
4443
4416
4412
4431
4459
4483
4485
4463
4442
4461
4532
4618
4661
4641
4591
4570
4604
4672
4737
4781
4810
4846
4904
4980
5051
5092
5095
5088
5104
5155
5209
5231
5217
5205
5226
5268
5289
5266
5218
5184
5177
5171
5139
5086
5044
5036
5045
5037
4991
4924
4871
4850
4851
4843
4803
4730
4643
4566
4508
4466
4423
4364
4291
4222
4175
4154
4138
4106
4056
4013
3997
3998
3979
3921
3844
3794
3793
3818
3839
3844
3848
3858
3868
3870
3870
3879
3894
3902
3896
3885
3874
3860
3837
3813
3806
3825
3856
3875
3875
3872
3888
3928
3981
4023
4033
4012
3981
3964
3964
3955
3921
3876
3861
3892
3940
3960
3944
3927
3943
3975
3984
3952
3907
3889
3900
3908
3891
3868
3874
3913
3945
3927
3858
3781
3743
3743
3739
3699
3635
3584
3567
3562
3539
3500
3481
3501
3535
3540
3507
3480
3495
3541
3571
3563
3542
3544
3566
3577
3558
3539
3552
3594
3623
3610
3578
3567
3582
3591
3573
3547
3549
3592
3666
3763
3885
4007
4092
4126
4140
4153
4103
3883
3458
2929
2441
2049
1694
1313
942
680
590
652
813
1030
1274
1511
1726
1939
2180
2427
2616
2710
2764
2882
3105
3373
3583
3705
3794
3918
4077
4206
4258
4246
4229
4239
4262
4269
4251
4232
4234
4266
4319
4377
4419
4432
4423
4424
4457
4510
4551
4562
4561
4572
4598
4623
4637
4647
2372
2362
2349
2325
2283
2224
2161
2109
2077
2064
2061
2051
2030
2014
2021
2058
2102
2118
2096
2062
2062
2107
2159
2164
2116
2067
2071
2127
2179
2185
2157
2146
2171
2200
2195
2172
2176
2217
2265
2287
2297
2334
2420
2532
2637
2728
2816
2902
2970
3014
3046
3086
3136
3178
3200
3206
3205
3205
3211
3228
3258
3297
3334
3359
3372
3378
3379
3374
3365
3364
3380
3402
3411
3392
3356
3319
3290
3268
3253
3252
3261
3263
3241
3198
3156
3144
3168
3213
3244
3226
3144
3031
2949
2947
3002
3039
3007
2939
2915
2972
3067
3133
3151
3151
3161
3168
3150
3116
3103
3119
3135
3128
3117
3146
3215
3273
3274
3245
3277
3420
3619
3766
3792
3727
3651
3601
3545
3435
3259
3057
2883
2776
2743
2768
2817
2864
2906
2954
3004
3030
3010
2953
2895
2866
2866
2886
2929
3000
3079
3120
3099
3042
3008
3016
3015
2932
2766
2603
2522
2516
2499
2431
2415
2612
3074
3663
4171
4510
4761
5042
5339
5516
5461
5203
4874
4588
4368
4189
4041
3933
3858
3775
3648
3491
3353
3272
3225
3146
2990
2778
2591
2501
2509
2543
2522
2424
2300
2219
2212
2245
2270
2268
2260
2268
2294
2313
2299
2251
2186
2139
2135
2177
2231
2261
2261
2257
2264
2262
2226
2165
2123
2133
2168
2170
2122
2059
2017
1993
1963
1936
1942
1981
2010
1990
1934
1898
1912
1954
1972
1941
1871
1788
1720
1684
1679
1692
1700
1701
1714
1760
1832
1894
1922
1921
1921
1933
1937
1900
1825
1749
1717
1737
1780
1816
1843
1882
1940
2005
2064
2120
2174
2222
2262
2304
2366
2439
2493
2516
2532
2573
2632
2669
2665
2639
2619
2611
2606
2617
2663
2738
2797
2802
2773
2763
2801
2862
2902
2903
2879
2857
2846
2838
2821
2794
2765
2745
2732
2712
2683
2664
2676
2706
2719
2701
2687
2713
2759
2757
2671
2557
2502
2525
2559
2536
2463
2412
2429
2491
2553
2592
2622
2654
2672
2656
2615
2584
2585
2609
2626
2620
2607
2633
2721
2837
2908
2894
2838
2828
2905
3014
3064
3034
2976
2959
2991
3029
3037
3015
2983
2952
2929
2927
2950
2989
3024
3047
3070
3097
3107
3081
3031
2993
2991
3016
3038
3044
3038
3038
3048
3069
3096
3115
3106
3051
2952
2842
2760
2719
2694
2650
2587
2564
2655
2880
3180
3483
3770
4082
4449
4831
5133
5296
5333
5293
5207
5068
4874
4650
4428
4205
3962
3720
3537
3468
3482
3485
3399
3231
3057
2940
2873
2808
2710
2596
2510
2472
2465
2451
2416
2378
2370
2392
2410
2381
2304
2225
2202
2244
2303
2330
2321
2320
2355
2399
2399
2335
2250
2203
2204
2216
2199
2159
2130
2126
2133
2134
2128
2135
2154
2162
2138
2078
2004
1944
1920
1930
1940
1908
1832
1757
1736
1772
1813
1802
1744
1694
1685
1698
1695
1680
1693
1756
1829
1859
1841
1823
1851
1908
1944
1940
1938
1987
2079
2161
2192
2183
2175
2192
2219
2238
2241
2230
2213
2208
2245
2335
2450
2543
2590
2615
2656
2710
2741
2728
2696
2684
2702
2722
2721
2710
2720
2760
2803
2821
2811
2801
2809
2827
2826
2787
2729
2694
2709
2753
2771
2730
2655
2618
2662
2757
2829
2823
2769
2728
2731
2752
2752
2725
2699
2695
2705
2706
2698
2693
2704
2732
2768
2799
2808
2781
2728
2684
2677
2691
2680
2630
2583
2590
2644
2696
2719
2742
2798
2877
2927
2937
2954
3013
3088
3105
3054
3005
3032
3132
3233
3269
3242
3198
3172
3167
3176
3198
3224
3236
3223
3197
3190
3220
3273
3319
3336
3324
3290
3244
3200
3173
3168
3176
3180
3172
3154
3129
3092
3041
2989
2945
2902
2850
2817
2878
3084
3402
3734
4007
4241
4513
4851
5170
5356
5364
5248
5100
4972
4851
4694
4473
4202
3935
3737
3630
3572
3496
3375
3237
3122
3028
2931
2825
2742
2699
2668
2604
2512
2446
2444
2476
2481
2443
2405
2408
2433
2428
2378
2312
2274
2271
2279
2287
2300
2324
2344
2334
2293
2245
2223
2233
2252
2246
2198
2125
2061
2031
2034
2055
2083
2105
2102
2069
2029
2015
2035
2048
2015
1941
1879
1863
1864
1842
1801
1775
1777
1775
1742
1703
1703
1746
1787
1805
1821
1857
1895
1898
1874
1870
1902
1930
1915
1876
1866
1899
1938
1948
1945
1964
2009
2051
2082
2128
2207
2297
2353
2366
2367
2393
2445
2498
2527
2523
2493
2458
2449
2485
2554
2615
2635
2613
2584
2579
2601
2624
2631
2624
2618
2617
2617
2619
2633
2662
2698
2715
2702
2672
2650
2641
2626
2594
2562
2565
2605
2650
2659
2627
2588
2571
2572
2566
2539
2504
2479
2468
2468
2482
2516
2564
2607
2634
2653
2672
2687
2685
2665
2647
2648
2665
2674
2667
2658
2669
2695
2713
2715
2723
2763
2839
2912
2948
2946
2937
2952
2987
3014
3013
2989
2957
2929
2906
2894
2901
2920
2936
2929
2907
2888
2889
2899
2905
2907
2919
2947
2969
2964
2943
2935
2953
2974
2968
2933
2892
2856
2808
2736
2661
2616
2610
2635
2710
2880
3153
3467
3751
4004
4294
4655
5013
5247
5304
5240
5146
5059
4961
4834
4672
4473
4223
3929
3643
3419
3253
3083
2856
2588
2350
2202
2143
2124
2097
2056
2023
2012
2014
2006
1983
1954
1928
1902
1872
1846
1842
1860
1872
1846
1785
1732
1726
1761
1795
1793
1758
1727
1735
1779
1835
1877
1896
1894
1875
1843
1812
1796
1798
1800
1776
1721
1664
1641
1651
1659
1632
1581
1543
1542
1557
1547
1499
1437
1393
1381
1393
1410
1423
1420
1399
1371
1356
1371
1413
1461
1496
1514
1520
1528
1551
1596
1653
1703
1731
1740
1750
1774
1810
1842
1864
1883
1911
1951
1990
2015
2034
2065
2120
2188
2247
2284
2303
2310
2310
2307
2316
2347
2399
2449
2479
2492
2508
2547
2599
2640
2650
2628
2594
2575
2571
2574
2568
2559
2568
2603
2643
2656
2637
2612
2604
2610
2607
2593
2593
2619
2656
2672
2666
2661
2670
2668
2638
2590
2553
2530
2494
2426
2359
2344
2392
2459
2499
2499
2490
2500
2523
2538
2537
2525
2514
2509
2509
2512
2520
2543
2591
2668
2753
2810
2817
2789
2776
2809
2874
2929
2938
2915
2901
2911
2926
2919
2886
2848
2829
2824
2817
2806
2800
2808
2826
2833
2824
2813
2821
2843
2842
2791
2707
2649
2656
2707
2746
2735
2679
2604
2527
2449
2384
2348
2347
2379
2470
2675
3022
3466
3908
4288
4628
4979
5324
5575
5646
5539
5342
5149
4982
4797
4547
4232
3911
3660
3514
3437
3361
3246
3107
2976
2862
2734
2567
2383
2223
2101
1995
1875
1747
1652
1627
1665
1718
1745
1738
1723
1727
1737
1715
1650
1586
1581
1638
1694
1685
1626
1594
1630
1691
1706
1665
1628
1650
1703
1726
1702
1669
1667
1688
1697
1685
1666
1649
1620
1575
1529
1506
1494
1458
1388
1316
1288
1306
1322
1294
1232
1189
1195
1223
1221
1169
1103
1076
1109
1171
1221
1248
1264
1284
1311
1344
1391
1457
1529
1584
1612
1634
1680
1753
1834
1902
1955
2009
2063
2097
2101
2097
2120
2185
2262
2307
2310
2305
2324
2366
2400
2414
2426
2455
2496
2518
2511
2498
2504
2525
2537
2528
2516
2517
2524
2515
2493
2485
2506
2540
2551
2530
2506
2505
2517
2509
2472
2440
2450
2499
2534
2520
2481
2469
2502
2541
2539
2492
2433
2386
2346
2307
2281
2285
2304
2304
2280
2264
2288
2336
2362
2348
2325
2331
2368
2401
2398
2365
2331
2322
2346
2394
2450
2495
2521
2532
2541
2560
2597
2652
2714
2757
2763
2739
2716
2721
2743
2750
2728
2698
2689
2696
2690
2663
2644
2667
2723
2766
2763
2729
2705
2702
2699
2673
2636
2623
2647
2685
2699
2686
2673
2675
2667
2615
2516
2412
2347
2323
2330
2394
2584
2935
3394
3854
4245
4593
4954
5322
5613
5738
5691
5543
5364
5166
4926
4633
4309
3999
3737
3536
3388
3264
3122
2940
2739
2563
2447
2375
2306
2207
2085
1969
1884
1835
1817
1821
1834
1833
1810
1775
1751
1751
1768
1780
1774
1753
1738
1740
1760
1777
1772
1749
1732
1737
1750
1738
1691
1643
1628
1636
1624
1568
1505
1481
1498
1504
1463
1403
1383
1412
1433
1391
1301
1224
1203
1214
1214
1195
1182
1194
1212
1205
1178
1164
1192
1244
1283
1293
1293
1312
1351
1397
1443
1501
1569
1626
1648
1643
1641
1661
1683
1688
1691
1725
1794
1859
1884
1884
1909
1982
2072
2142
2190
2241
2302
2350
2374
2402
2472
2565
2624
2614
2566
2541
2563
2595
2598
2580
2579
2617
2669
2696
2687
2665
2660
2674
2687
2678
2647
2612
2598
2608
2625
2629
2619
2612
2618
2625
2613
2581
2553
2549
2564
2574
2568
2557
2555
2566
2581
2589
2586
2572
2549
2527
2507
2480
2444
2404
2375
2371
2389
2412
2424
2419
2397
2370
2353
2361
2389
2413
2407
2376
2354
2376
2443
2522
2573
2586
2591
2619
2665
2696
2685
2649
2631
2657
2706
2727
2702
2659
2639
2653
2673
2676
2660
2647
2641
2627
2596
2562
2547
2554
2566
2568
2570
2590
2628
2666
2686
2688
2692
2706
2716
2691
2622
2529
2441
2369
2309
2262
2270
2382
2605
2894
3195
3499
3842
4243
4655
4986
5170
5211
5156
5046
4898
4718
4509
4270
3996
3703
3440
3260
3177
3140
3073
2939
2767
2611
2501
2428
2367
2295
2203
2099
2009
1961
1957
1965
1945
1892
1848
1852
1892
1906
1861
1784
1731
1728
1746
1744
1714
1685
1683
1705
1722
1715
1687
1653
1624
1603
1596
1606
1627
1642
1633
1611
1614
1676
1776
1846
1829
1738
1645
1613
1634
1650
1621
1562
1518
1507
1513
1508
1489
1474
1469
1463
1438
1391
1345
1330
1358
1413
1464
1486
1486
1492
1522
1568
1611
1652
1713
1796
1868
1889
1865
1851
1891
1975
2052
2092
2106
2121
2141
2160
2193
2264
2364
2446
2468
2447
2438
2473
2525
2551
2546
2537
2544
2552
2540
2516
2509
2528
2555
2565
2564
2568
2586
2606
2609
2594
2575
2562
2558
2554
2544
2530
2513
2493
2474
2455
2441
2433
2424
2398
2353
2301
2267
2266
2287
2305
2299
2264
2210
2164
2137
2132
2130
2112
2089
2089
2130
2191
2235
2243
2238
2253
2288
2311
2297
2256
2223
2224
2252
2286
2313
2334
2352
2366
2371
2379
2401
2435
2462
2469
2460
2457
2470
2485
2484
2462
2442
2446
2469
2485
2482
2467
2460
2472
2496
2517
2520
2498
2452
2398
2360
2351
2363
2383
2396
2403
2400
2377
2330
2279
2246
2225
2179
2083
1969
1920
2009
2229
2514
2802
3094
3430
3828
4227
4539
4716
4782
4782
4730
4610
4417
4185
3949
3713
3456
3189
2971
2855
2822
2787
2683
2515
2342
2216
2140
2082
2005
1893
1753
1627
1559
1572
1638
1704
1744
1772
1804
1831
1831
1805
1784
1785
1791
1783
1772
1785
1820
1842
1828
1806
1815
1850
1862
1819
1748
1706
1714
1742
1752
1735
1704
1678
1659
1647
1641
1629
1596
1548
1505
1483
1470
1447
1404
1354
1313
1291
1291
1306
1318
1310
1281
1254
1248
1263
1285
1308
1330
1345
1340
1322
1329
1387
1478
1549
1574
1574
1588
1623
1657
1677
1697
1731
1775
1813
1839
1863
1906
1969
2037
2085
2103
2104
2112
2138
2163
2163
2147
2152
2201
2271
2318
2321
2306
2308
2331
2353
2357
2343
2323
2303
2285
2275
2277
2287
2291
2284
2281
2298
2332
2350
2324
2264
2216
2216
2248
2255
2198
2104
2035
-22016
-17920
25856
6911
-19457
13054
-22786
9725
-13827
-27651
31741
-29955
-6658
-28161
8702
-13827
2810
27640
15607
27895
-19465
-1033
-23049
13047
-23815
20731
-25859
-29698
-21505
11007
30463
-7680
-29951
22529
-1534
4609
-30720
-19968
3327
-14593
-24321
19454
-18434
7677
-19715
-31235
-25347
-1026
-28673
4863
12030
-15362
2557
24316
-2052
-12036
-12804
-7939
6909
-31490
3838
29694
25341
-12035
6652
-15363
1789
-27139
-5635
-13315
-29955
-19458
-29185
-12032
-12544
-14081
23804
-8710
18424
-20232
-31751
15609
-1542
29435
22269
-30207
5124
-11257
19719
-10746
-3835
-27388
20995
9986
2305
10496
-13312
-6143
16897
-15358
-28925
-25084
-30460
-14076
17155
29186
-5886
-11774
-9726
-24830
5121
31489
6144
-9984
27903
-23554
-8706
-13057
-24832
31744
7678
7675
-26630
12794
29435
22011
-26885
11771
22013
7936
17155
25605
19205
-19451
4611
-3582
-21503
27392
21247
29182
-12034
-30210
-12801
-24320
-22271
20225
14848
-28673
-18434
-2050
19453
-20995
19453
27134
3838
-2561
-17664
2815
-18434
-6658
509
-26627
-5890
-19713
28671
-11520
4608
32257
7169
-26623
-19199
31488
-5377
-27396
-12296
-29196
241
240
-21262
32501
1271
23545
-2819
-18174
-14584
1804
1293
-3059
-10484
9737
-19193
-19705
18696
-23542
-25589
32266
32520
27142
-18683
-1019
23043
21503
23546
-30218
-1290
14072
8187
25086
-13566
3845
17928
9482
4618
-14838
32009
31239
-14587
-17148
20228
771
-21248
-1798
-4877
-23826
-13330
20208
-18189
9460
26869
-4103
-13824
18951
-23539
27664
3855
22028
13320
14084
-12030
-26879
7679
-21762
11517
18941
-32002
-26113
-5887
5378
18691
-19963
4869
-1530
16902
15366
20486
-29178
28933
14594
-29954
-10501
14584
-18185
-22537
-25352
3064
-16903
-15621
3324
28413
-13826
-9474
-11524
-27913
-3342
-23057
22511
26865
-18957
-1547
20215
1530
-7680
-4601
10251
17164
22795
6920
-9978
-27132
-22526
-7680
-5890
-22788
-25349
-24580
6141
-22017
-25599
-26109
-7418
-16375
-8180
23565
19724
-30454
-24568
18437
-11261
8703
-10245
-11017
-30989
-2318
25843
-28169
2043
13054
22783
-18689
-14337
-31745
26111
6654
9468
-22789
25851
14588
24830
25088
23809
-28159
-14591
19712
-22784
3327
19710
10748
-9476
4092
23549
-22017
15616
18432
28415
-5121
30463
-20736
-31231
11776
-6145
-7681
7679
19712
1536
26624
31233
9986
-28926
-13313
20983
-3601
-3605
-24596
-28432
-29452
10486
15352
-27139
-26619
32013
-8941
-27628
-1006
-19442
-15605
3080
22534
22788
29954
-28927
11264
-2302
1795
-11003
-25850
-16122
-506
20740
-5629
15617
-8191
21505
-16382
-11004
1284
-12028
-2044
-31741
-16381
7426
-3837
16387
-14076
16388
-32508
-28668
27908
5635
-22013
27139
-31229
-8444
9732
17412
-29947
16646
2566
9477
20484
18436
7429
5
-2299
-7164
-18429
25090
-25598
2048
-22018
5883
5624
-776
-22791
-5893
-7683
-18177
14336
-6653
26118
-23543
-23797
12298
-2295
-6391
24842
2827
29452
-20467
15117
10508
-10484
31756
267
18186
20233
18184
23303
-30970
-21499
-9979
29189
-9466
-4857
-11769
-20986
31236
-1789
-7677
5634
0
-26113
-20993
-7936
-17151
5120
29439
-17408
8961
-25854
-16126
21504
32766
-26371
-19459
-13058
16638
-20481
13055
-6656
-21503
26114
15619
25348
-28668
-1788
5122
19712
-15360
20480
-16639
13057
8704
-10496
-1791
-22526
21762
27649
-2303
32257
23297
19200
-7680
8703
26110
-9730
11516
-3333
15353
-20744
-7176
-9223
9977
-29190
22779
-9219
-8961
-27904
22784
10239
27390
31485
26108
16123
24827
15611
-4099
3326
510
-23297
18176
16641
20737
-22272
-16129
9470
15614
-5632
-28927
-25599
14080
17664
-30462
-19451
-23545
29703
13829
-26620
259
13570
-9214
6656
-30210
-23043
22013
3837
29693
-9474
2302
16126
-25858
-20482
11261
-28163
-6913
16384
12798
-3845
28407
-22283
-10250
23799
-13320
-13575
28666
-17155
12544
22531
30214
9992
9992
-2296
11014
14340
23811
32259
19202
-15103
-31232
20992
12801
13570
17410
16129
4095
-11777
-24064
24320
-13312
2046
-15106
-4351
-15098
-31989
8718
11535
28175
7692
-3576
21505
19448
-4368
-4630
-4376
4328
25322
-5650
-18700
20733
7688
29201
-23278
-14326
18173
17651
-25615
4082
-3596
20211
-24333
-6407
12292
23314
11805
-32222
16927
-31721
-15089
6408
-31228
31745
-16641
25853
-11523
-10753
27393
-16381
-2299
-31994
5
12035
21249
19200
5120
8449
17410
-3836
27652
-3580
19203
10242
-20989
4355
6913
31998
-23044
-19715
19711
-7934
24323
-28156
13573
-15352
-15604
-30704
16659
27413
25109
16146
-12017
23564
-17909
-32758
29192
252
491
636
456
-78
-687
-1019
-993
-860
-888
-1037
-994
-533
210
848
1110
1049
905
813
711
495
206
4
-5
127
262
329
368
438
513
502
350
111
-91
-155
-76
59
158
189
187
170
91
-115
-424
-670
-662
-365
45
339
454
530
730
1048
1310
1346
1153
889
724
707
767
805
803
831
966
1195
1409
1498
1443
1318
1199
1098
985
857
761
740
794
881
964
1035
1096
1135
1130
1081
1024
1001
1015
1029
996
893
723
509
279
67
-111
-277
-458
-641
-752
-736
-624
-532
-545
-617
-632
-543
-427
-399
-475
-578
-645
-698
-777
-849
-825
-677
-493
-372
-310
-203
-6
197
275
201
79
21
28
20
-42
-110
-121
-76
-23
17
66
132
177
160
104
69
76
81
27
-81
-177
-207
-187
-181
-227
-297
-316
-246
-138
-85
-139
-263
-377
-439
-476
-514
-530
-475
-333
-133
93
336
590
807
925
917
815
663
474
248
5
-211
-347
-360
-217
88
509
968
1416
1860
2335
2811
3184
3335
3230
2933
2549
2154
1764
1352
907
489
213
155
278
439
517
504
466
422
304
39
-345
-717
-959
-1050
-1046
-988
-867
-657
-377
-99
91
146
68
-96
-282
-437
-533
-571
-565
-540
-510
-483
-463
-459
-475
-514
-579
-673
-790
-899
-947
-902
-798
-724
-745
-847
-959
-1051
-1184
-1429
-1755
-2032
-2182
-2271
-2418
-2593
-2578
-2204
-1594
-1077
-824
-663
-345
24
-25
-808
-2036
-2986
-3166
-2746
-2287
-2097
-1946
-1412
-387
763
1532
1681
1354
865
443
133
-115
-320
-440
-426
-295
-119
47
203
359
470
445
241
-79
-361
-464
-347
-95
137
215
121
-41
-130
-94
-15
-13
-126
-276
-366
-378
-394
-491
-652
-774
-772
-644
-457
-268
-107
-20
-85
-363
-804
-1253
-1564
-1703
-1730
-1685
-1519
-1160
-617
4
569
986
1214
1255
1141
934
702
474
253
49
-103
-161
-120
-4
142
276
361
376
337
289
271
274
257
191
105
57
94
194
258
164
-126
-495
-742
-744
-567
-393
-328
-300
-157
159
554
892
1115
1232
1202
926
368
-300
-770
-837
-848
-824
-833
-865
-891
-892
-871
-832
-783
-737
-709
-695
-673
-636
-614
-641
-702
-742
-726
-679
-641
-607
-523
-364
-176
-34
42
89
141
175
151
86
46
71
126
145
119
112
183
308
400
399
331
272
269
308
352
394
443
489
494
440
371
347
351
272
38
-247
-396
-402
-525
-1026
-1834
-2526
-2723
-2472
-2151
-2060
-2179
-2379
-2732
-3429
-4387
-5087
-4953
-3915
-2476
-1190
-112
1155
2883
4759
6060
6261
5443
4153
2922
1955
1206
624
250
134
245
517
909
1387
1847
2083
1906
1343
667
218
165
416
731
933
1018
1052
999
718
168
-447
-815
-838
-727
-750
-904
-919
-600
-122
120
-63
-463
-720
-694
-535
-458
-482
-420
-67
609
1445
2183
2607
2658
2434
2076
1657
1188
726
401
318
462
723
1048
1506
2143
2819
3245
3221
2832
2374
2107
2063
2061
1904
1552
1148
858
707
563
263
-215
-703
-974
-938
-724
-549
-502
-453
-208
231
549
349
-481
-1603
-2485
-2818
-2718
-2522
-2401
-2212
-1688
-772
276
1042
1238
874
208
-458
-975
-1351
-1625
-1748
-1623
-1282
-933
-785
-831
-887
-896
-1138
-1998
-3465
-4919
-5546
-5013
-3748
-2519
-1739
-1178
-335
967
2351
3189
3118
2279
1148
173
-497
-971
-1399
-1769
-1909
-1678
-1143
-550
-119
96
169
147
-19
-378
-852
-1242
-1357
-1147
-731
-322
-99
-108
-241
-334
-331
-339
-488
-743
-908
-837
-614
-468
-512
-619
-576
-315
30
288
414
474
522
537
480
386
336
340
325
232
113
99
256
500
684
755
774
775
628
130
-735
-1658
-2198
-2141
-1653
-1071
-562
-12
776
1812
2832
3482
3541
3027
2162
1269
632
355
330
363
373
455
726
1144
1523
1703
1671
1498
1175
652
48
-322
-228
184
492
432
150
-2
97
239
201
49
-35
-126
-591
-1666
-3017
-3891
-3791
-2933
-1992
-1405
-965
-143
1256
2814
3868
4079
3633
2935
2235
1580
997
588
405
355
325
351
599
1100
1606
1775
1489
936
403
54
-82
4
290
624
773
610
284
66
60
104
3
-215
-321
-180
92
278
342
479
871
1444
1926
2118
2086
2071
2211
2401
2425
2198
1874
1711
1801
1959
1904
1546
1053
644
371
147
-63
-183
-149
-65
-65
-90
145
817
1658
2059
1577
369
-905
-1624
-1696
-1541
-1621
-1958
-2112
-1632
-519
716
1474
1540
1173
782
572
464
281
-28
-347
-514
-450
-209
55
187
134
-53
-285
-522
-753
-936
-992
-893
-682
-433
-196
-9
63
-23
-217
-392
-455
-428
-392
-371
-333
-299
-376
-614
-863
-851
-423
283
937
1290
1323
1183
984
717
286
-354
-1141
-1930
-2552
-2887
-2896
-2609
-2124
-1579
-1106
-780
-580
-446
-365
-370
-480
-643
-761
-773
-676
-479
-197
78
163
-58
-468
-756
-723
-503
-421
-621
-883
-878
-552
-182
-58
-185
-333
-336
-260
-277
-448
-677
-834
-883
-880
-872
-839
-728
-531
-324
-215
-248
-351
-415
-409
-383
-380
-387
-390
-443
-634
-956
-1269
-1419
-1386
-1290
-1238
-1210
-1087
-774
-301
177
471
485
279
17
-174
-304
-444
-612
-721
-661
-427
-98
223
462
579
564
457
314
165
17
-77
-29
180
405
433
202
-104
-241
-168
-86
-205
-503
-734
-660
-256
255
577
568
339
141
118
167
66
-270
-679
-918
-922
-819
-749
-705
-623
-539
-588
-836
-1175
-1419
-1484
-1430
-1306
-1034
-492
306
1144
1757
2048
2137
2203
2266
2178
1816
1256
744
501
529
629
605
439
271
234
316
374
281
41
-216
-343
-313
-226
-226
-389
-673
-953
-1131
-1222
-1346
-1609
-1975
-2266
-2298
-2058
-1721
-1494
-1436
-1444
-1388
-1226
-990
-731
-491
-363
-469
-817
-1203
-1346
-1169
-907
-876
-1094
-1221
-926
-288
264
397
196
19
57
158
47
-361
-904
-1361
-1656
-1850
-2025
-2192
-2293
-2231
-1954
-1526
-1129
-938
-979
-1110
-1164
-1097
-1002
-958
-916
-726
-324
123
312
78
-417
-814
-932
-967
-1273
-1925
-2593
-2848
-2596
-2121
-1765
-1622
-1553
-1409
-1198
-1041
-1034
-1154
-1253
-1173
-914
-653
-546
-503
-261
253
712
671
82
-574
-761
-462
-168
-308
-772
-1075
-897
-376
109
340
387
425
500
524
411
188
-43
-207
-292
-330
-331
-253
-69
182
404
513
495
390
241
77
-64
-141
-157
-191
-324
-524
-642
-543
-255
21
105
9
-90
-39
137
284
298
218
147
133
155
192
263
386
520
599
606
590
599
632
669
732
874
1067
1196
1179
1091
1121
1351
1606
1604
1244
742
425
392
428
277
-40
-243
-101
291
624
710
625
539
488
384
179
-50
-208
-298
-368
-410
-366
-246
-148
-120
-65
142
485
819
1070
1323
1696
2136
2468
2611
2655
2706
2717
2578
2341
2234
2400
2676
2741
2469
2056
1773
1655
1506
1156
647
153
-189
-334
-304
-185
-151
-373
-822
-1228
-1310
-1053
-731
-608
-668
-658
-397
36
384
444
204
-184
-542
-769
-869
-895
-854
-675
-309
175
592
794
784
667
497
244
-101
-438
-632
-646
-551
-423
-276
-117
2
15
-58
-163
-346
-773
-1540
-2457
-3106
-3171
-2749
-2240
-1931
-1709
-1200
-226
916
1696
1836
1511
1086
734
416
155
151
536
1092
1395
1282
1059
1109
1377
1379
747
-325
-1265
-1684
-1641
-1397
-1062
-583
22
564
861
925
890
800
601
302
62
52
239
427
488
510
648
865
910
560
-133
-831
-1163
-1053
-832
-1011
-1859
-3083
-3926
-3745
-2593
-1209
-359
-140
38
727
1820
2639
2610
1747
523
-577
-1315
-1622
-1479
-958
-289
257
567
743
910
1018
839
177
-908
-2084
-2919
-3119
-2696
-1933
-1155
-530
-78
203
286
216
186
391
810
1179
1257
1083
925
978
1176
1315
1280
1119
939
799
734
780
944
1134
1192
1024
715
485
498
706
902
934
869
924
1223
1645
1936
1940
1713
1426
1169
906
563
120
-381
-878
-1302
-1578
-1673
-1596
-1347
-881
-176
691
1568
2362
3095
3781
4289
4394
4007
3317
2647
2186
1892
1627
1335
1080
967
1061
1353
1742
2058
2128
1909
1541
1228
1068
969
769
396
-77
-510
-809
-963
-997
-933
-803
-675
-646
-804
-1146
-1536
-1787
-1810
-1689
-1570
-1484
-1295
-860
-218
417
843
1019
1026
933
756
513
250
-2
-239
-429
-492
-366
-92
192
373
435
407
270
-7
-368
-674
-833
-883
-927
-1002
-1055
-1046
-1032
-1106
-1280
-1469
-1578
-1597
-1600
-1646
-1718
-1721
-1569
-1268
-919
-634
-444
-276
-76
98
110
-97
-401
-597
-601
-524
-506
-527
-405
-17
520
931
1032
885
676
484
224
-198
-741
-1263
-1665
-1941
-2085
-2014
-1659
-1103
-578
-294
-291
-463
-679
-871
-1018
-1118
-1206
-1318
-1406
-1316
-930
-387
-72
-319
-1088
-1959
-2494
-2582
-2454
-2388
-2416
-2340
-1983
-1376
-712
-183
114
153
-65
-498
-1013
-1428
-1621
-1611
-1504
-1402
-1330
-1252
-1121
-924
-722
-626
-702
-880
-985
-902
-702
-571
-594
-668
-641
-518
-468
-609
-841
-922
-728
-393
-192
-296
-655
-1086
-1401
-1512
-1433
-1241
-1002
-719
-321
276
1088
2001
2808
3297
3360
3044
2523
2008
1628
1385
1213
1082
1033
1108
1286
1490
1650
1724
1673
1449
1071
707
610
904
1433
1898
2158
2350
2711
3253
3727
3885
3745
3546
3453
3400
3252
3028
2862
2751
2455
1745
759
-37
-311
-232
-301
-790
-1386
-1502
-890
95
865
1170
1238
1416
1773
2092
2153
1931
1543
1089
626
227
-16
-83
-62
-53
-61
-9
151
396
652
830
862
740
538
360
240
100
-133
-370
-394
-114
280
444
256
-56
-199
-166
-229
-589
-1123
-1532
-1696
-1749
-1819
-1814
-1582
-1241
-1204
-1784
-2822
-3762
-4136
-3934
-3501
-3144
-2855
-2377
-1497
-279
936
1754
1967
1646
1030
343
-296
-825
-1152
-1196
-979
-667
-435
-316
-199
-6
165
109
-294
-942
-1564
-1909
-1880
-1556
-1114
-745
-582
-627
-741
-723
-471
-78
240
331
222
58
-63
-163
-296
-427
-439
-285
-78
26
10
20
178
435
629
673
628
586
538
419
250
152
203
324
363
290
233
318
519
688
708
601
483
447
499
572
584
512
405
340
341
350
316
282
370
634
957
1135
1063
820
564
374
235
129
83
130
261
432
626
848
1077
1245
1289
1206
1050
880
717
562
412
269
150
77
64
97
144
175
199
228
238
171
-27
-339
-664
-893
-1013
-1108
-1260
-1465
-1628
-1697
-1732
-1833
-2010
-2149
-2138
-1984
-1767
-1501
-1089
-469
265
912
1319
1476
1465
1343
1130
856
575
325
110
-47
-91
11
196
311
239
-12
-333
-620
-843
-1006
-1095
-1097
-1038
-994
-1011
-1052
-1058
-1049
-1121
-1315
-1524
-1556
-1332
-987
-726
-633
-627
-611
-626
-795
-1106
-1357
-1354
-1127
-922
-923
-1029
-978
-658
-251
-47
-143
-353
-427
-311
-162
-142
-250
-361
-389
-393
-477
-669
-894
-1061
-1150
-1179
-1163
-1116
-1075
-1047
-966
-753
-459
-291
-409
-666
-702
-334
179
365
54
-423
-597
-364
-56
-63
-416
-785
-827
-482
29
427
580
564
536
570
608
551
380
195
112
177
383
700
1064
1362
1483
1410
1253
1122
1005
789
395
-134
-662
-1074
-1320
-1401
-1368
-1318
-1326
-1379
-1379
-1247
-1034
-889
-918
-1079
-1237
-1286
-1237
-1174
-1166
-1221
-1287
-1313
-1274
-1179
-1031
-837
-628
-469
-419
-483
-594
-674
-689
-655
-609
-592
-632
-726
-816
-823
-723
-593
-549
-629
-744
-754
-604
-367
-167
-78
-78
-82
-12
130
245
211
9
-224
-289
-110
191
419
492
479
490
540
554
470
307
140
40
30
83
144
171
170
192
276
383
431
389
326
337
422
459
330
63
-204
-369
-456
-541
-636
-664
-544
-263
143
640
1165
1605
1856
1952
2071
2349
2697
2874
2762
2527
2455
2619
2784
2664
2241
1764
1458
1299
1111
823
547
410
388
346
223
103
81
137
146
18
-204
-397
-495
-543
-637
-805
-980
-1040
-919
-689
-510
-505
-649
-813
-901
-936
-1009
-1170
-1378
-1548
-1600
-1481
-1168
-725
-342
-224
-414
-725
-922
-962
-1036
-1332
-1793
-2133
-2111
-1768
-1368
-1142
-1120
-1188
-1265
-1360
-1498
-1643
-1739
-1803
-1888
-1976
-1956
-1748
-1428
-1196
-1194
-1372
-1570
-1689
-1764
-1878
-2041
-2186
-2261
-2272
-2223
-2084
-1843
-1593
-1479
-1547
-1663
-1645
-1488
-1383
-1469
-1638
-1638
-1373
-1050
-968
-1186
-1463
-1527
-1361
-1200
-1257
-1508
-1718
-1660
-1308
-846
-505
-387
-394
-347
-193
-61
-120
-374
-661
-828
-872
-843
-715
-413
15
338
348
54
-323
-578
-697
-809
-1024
-1308
-1496
-1395
-959
-390
-28
-70
-370
-578
-508
-325
-320
-566
-839
-886
-667
-330
-28
168
225
131
-74
-289
-443
-545
-626
-650
-553
-344
-105
90
232
332
375
366
365
443
584
708
771
803
820
738
470
66
-290
-465
-492
-496
-524
-501
-347
-84
204
473
746
992
1090
948
651
440
491
718
872
832
757
850
1050
1059
739
393
493
1125
1823
2062
1823
1603
1820
2334
2622
2327
1579
815
390
372
634
1001
1339
1611
1857
2137
2412
2521
2333
1884
1341
851
434
45
-277
-393
-199
224
634
791
620
256
-85
-268
-313
-344
-464
-675
-884
-990
-949
-793
-586
-377
-203
-107
-117
-216
-307
-270
-95
51
-46
-419
-826
-967
-787
-543
-517
-715
-900
-893
-781
-779
-941
-1107
-1128
-1046
-1009
-1055
-1065
-926
-676
-461
-369
-378
-412
-425
-422
-428
-484
-632
-891
-1235
-1585
-1833
-1896
-1783
-1603
-1480
-1394
-1186
-754
-242
50
-7
-216
-288
-215
-274
-655
-1161
-1402
-1245
-961
-907
-1107
-1279
-1206
-964
-773
-706
-635
-444
-185
25
144
210
191
-16
-422
-812
-903
-638
-281
-144
-275
-445
-434
-284
-233
-421
-734
-932
-879
-630
-321
-38
194
353
416
404
394
408
376
226
20
-55
129
468
698
657
438
262
229
227
63
-303
-690
-821
-574
-116
190
62
-461
-1083
-1533
-1780
-1971
-2176
-2249
-1989
-1372
-580
185
844
1403
1836
2057
1993
1660
1158
633
257
164
354
661
894
979
1000
1075
1199
1227
1027
631
227
13
55
281
567
827
985
920
478
-381
-1470
-2428
-2944
-2943
-2583
-2074
-1502
-795
145
1264
2295
2878
2810
2212
1454
884
617
580
707
1021
1559
2244
2909
3432
3804
4039
4100
3940
3571
3088
2586
2131
1768
1539
1458
1485
1509
1425
1221
1039
1075
1395
1862
2236
2382
2322
2143
1888
1570
1209
817
356
-179
-586
-495
288
1460
2377
2629
2381
2106
1978
1671
802
-513
-1672
-2178
-2088
-1850
-1730
-1560
-1083
-408
12
-155
-784
-1466
-1925
-2180
-2347
-2401
-2215
-1762
-1172
-607
-167
48
-90
-591
-1189
-1473
-1249
-725
-306
-207
-305
-385
-443
-688
-1251
-2007
-2717
-3271
-3691
-3919
-3686
-2767
-1317
101
940
1092
855
549
185
-447
-1471
-2728
-3860
-4532
-4589
-4086
-3245
-2356
-1664
-1274
-1161
-1220
-1345
-1472
-1603
-1774
-1998
-2209
-2258
-2013
-1491
-867
-361
-104
-89
-228
-418
-580
-653
-612
-502
-423
-436
-437
-222
321
1048
1635
1830
1649
1325
1075
914
689
257
-292
-921
-1206
-1075
-611
-37
437
724
859
925
983
1054
1118
1106
953
677
405
290
387
624
854
962
905
753
705
987
1661
2507
3132
3285
3030
2626
2244
1856
1329
596
-261
-1036
-1490
-1492
-1118
-611
-180
164
528
924
1186
1162
937
730
631
501
209
-122
-231
-60
135
89
-146
-308
-302
-297
-345
-51
1108
3080
4998
5835
5323
4088
2900
1887
576
-1400
-3767
-5768
-6739
-6489
-5269
-3537
-1760
-263
862
1696
2312
2623
2491
1928
1169
523
172
127
311
640
1009
1284
1356
1188
834
407
47
-115
-41
155
285
236
50
-151
-285
-351
-365
-331
-277
-290
-451
-746
-1070
-1328
-1500
-1612
-1661
-1606
-1420
-1136
-831
-583
-450
-447
-531
-631
-696
-731
-760
-767
-699
-535
-310
-73
144
302
320
120
-251
-614
-817
-885
-969
-1139
-1278
-1222
-974
-728
-657
-729
-781
-745
-735
-894
-1195
-1449
-1507
-1423
-1371
-1447
-1563
-1568
-1405
-1168
-988
-921
-922
-920
-888
-866
-901
-973
-996
-910
-791
-860
-1304
-2074
-2840
-3199
-2983
-2389
-1803
-1463
-1232
-740
233
1465
2406
2630
2199
1580
1194
1065
926
610
257
132
302
602
871
1130
1462
1785
1876
1648
1289
1080
1103
1203
1207
1114
1046
1058
1104
1143
1192
1276
1375
1471
1568
1633
1523
1084
367
-312
-600
-412
4
341
521
726
1157
1798
2413
2747
2706
2406
2044
1758
1584
1498
1466
1469
1502
1588
1788
2139
2563
2857
2853
2567
2181
1880
1703
1557
1361
1142
994
980
1069
1165
1184
1115
1023
998
1058
1131
1123
1014
884
848
977
1252
1576
1844
2002
2055
2066
2098
2153
2163
2064
1872
1700
1677
1833
2007
1911
1325
302
-802
-1525
-1596
-1102
-377
278
841
1547
2629
4006
5226
5734
5296
4187
2968
2050
1460
977
446
-50
-313
-249
61
452
765
882
754
422
2
-371
-617
-715
-678
-563
-460
-456
-563
-679
-691
-612
-586
-717
-951
-1135
-1188
-1171
-1202
-1331
-1560
-1925
-2467
-3070
-3419
-3253
-2663
-2062
-1753
-1592
-1161
-305
584
900
409
-537
-1375
-1810
-1936
-1961
-1942
-1788
-1428
-903
-320
222
637
831
743
388
-125
-630
-979
-1120
-1110
-1050
-997
-945
-878
-825
-827
-869
-872
-800
-714
-708
-808
-952
-1087
-1233
-1430
-1646
-1783
-1782
-1690
-1597
-1524
-1403
-1188
-937
-780
-775
-842
-853
-759
-621
-515
-454
-406
-349
-301
-286
-288
-268
-197
-86
30
120
175
214
260
288
220
-12
-387
-800
-1122
-1280
-1276
-1155
-963
-730
-464
-177
66
131
-116
-668
-1329
-1845
-2080
-2071
-1929
-1716
-1421
-1000
-456
128
597
783
631
253
-153
-463
-697
-911
-1079
-1108
-980
-808
-715
-711
-705
-651
-620
-701
-871
-993
-935
-716
-488
-400
-475
-615
-735
-845
-1006
-1201
-1290
-1144
-829
-603
-701
-1108
-1566
-1833
-1881
-1848
-1819
-1705
-1370
-808
-159
428
912
1295
1526
1534
1365
1181
1093
1012
760
303
-169
-457
-579
-720
-992
-1291
-1420
-1289
-950
-480
99
762
1424
1986
2397
2645
2699
2522
2183
1859
1680
1571
1314
798
173
-274
-414
-375
-354
-366
-227
205
842
1453
1899
2210
2437
2495
2248
1726
1173
821
659
480
149
-226
-422
-322
-16
313
505
488
288
21
-158
-181
-123
-128
-252
-410
-476
-394
-204
20
208
308
306
253
231
262
249
79
-253
-612
-833
-860
-777
-718
-781
-973
-1231
-1468
-1624
-1701
-1747
-1826
-1963
-2133
-2278
-2350
-2364
-2391
-2494
-2649
-2758
-2747
-2655
-2585
-2557
-2474
-2244
-1940
-1753
-1787
-1932
-1999
-1951
-1936
-2086
-2329
-2453
-2349
-2113
-1910
-1782
-1645
-1442
-1243
-1157
-1196
-1272
-1304
-1281
-1222
-1123
-970
-792
-648
-560
-495
-413
-324
-266
-248
-235
-190
-120
-63
-23
19
61
63
-7
-120
-205
-216
-177
-153
-175
-221
-259
-273
-263
-216
-128
-47
-47
-151
-267
-284
-192
-109
-158
-329
-477
-483
-370
-275
-301
-408
-466
-416
-335
-341
-421
-432
-270
-9
154
124
31
69
245
363
252
-28
-248
-257
-104
69
183
260
321
329
252
119
-3
-100
-217
-371
-485
-462
-305
-117
17
139
339
596
728
573
199
-143
-272
-249
-284
-501
-818
-1055
-1096
-943
-681
-456
-411
-581
-812
-843
-546
-62
331
479
497
634
1031
1617
2163
2457
2434
2193
1916
1718
1570
1364
1051
720
521
525
655
765
759
636
448
229
-8
-256
-508
-756
-988
-1157
-1179
-1025
-793
-660
-715
-844
-839
-651
-471
-538
-866
-1202
-1297
-1153
-990
-985
-1093
-1142
-1047
-899
-840
-911
-1021
-1057
-1013
-988
-1070
-1220
-1298
-1209
-1018
-873
-837
-806
-652
-405
-241
-289
-491
-683
-791
-873
-1010
-1177
-1268
-1209
-1035
-838
-683
-572
-470
-343
-210
-128
-150
-274
-434
-556
-620
-650
-675
-698
-697
-630
-469
-233
-11
90
49
-32
-24
95
234
295
274
216
145
69
22
63
179
274
285
269
375
686
1140
1581
1872
1941
1794
1532
1325
1290
1371
1385
1199
879
647
683
963
1286
1435
1336
1106
944
960
1085
1154
1067
867
658
499
381
265
132
-24
-181
-259
-175
60
316
461
489
506
562
587
492
283
64
-70
-95
-34
66
140
118
23
-5
146
403
571
554
474
507
655
754
684
534
489
623
831
942
880
713
591
609
712
719
495
123
-142
-138
14
45
-127
-282
-173
146
373
319
142
149
434
774
889
732
489
314
177
-45
-371
-687
-893
-1012
-1120
-1170
-982
-447
290
897
1162
1176
1224
1478
1839
2065
2014
1763
1505
1371
1355
1372
1372
1380
1423
1445
1340
1080
796
640
597
445
11
-609
-1091
-1214
-1067
-930
-970
-1117
-1205
-1168
-1057
-951
-878
-827
-794
-790
-808
-834
-863
-896
-941
-1024
-1186
-1429
-1667
-1749
-1598
-1304
-1053
-941
-868
-670
-330
-46
-27
-283
-615
-830
-907
-945
-995
-998
-887
-713
-622
-691
-834
-886
-798
-714
-823
-1103
-1289
-1121
-637
-175
-54
-279
-575
-708
-715
-811
-1121
-1530
-1815
-1855
-1703
-1500
-1338
-1219
-1105
-980
-864
-800
-805
-856
-894
-852
-680
-373
-17
234
257
87
-94
-130
-75
-130
-390
-699
-795
-579
-214
58
154
172
223
297
307
214
68
-55
-115
-122
-97
-65
-50
-39
-11
14
-45
-276
-676
-1124
-1478
-1658
-1648
-1439
-1028
-466
132
658
1081
1406
1597
1582
1339
949
528
156
-117
-228
-141
95
340
482
539
608
727
802
726
507
279
173
210
333
483
588
531
193
-416
-1051
-1373
-1241
-839
-491
-325
-172
215
861
1540
2007
2198
2172
1980
1654
1324
1181
1266
1377
1283
1030
880
981
1184
1261
1220
1203
1156
843
322
227
1260
3346
5468
6539
6352
5597
4939
4326
3228
1377
-897
-2996
-4503
-5276
-5280
-4531
-3226
-1765
-549
244
683
916
1016
954
661
124
-537
-1079
-1267
-1059
-643
-327
-337
-678
-1176
-1611
-1864
-1929
-1866
-1744
-1629
-1593
-1667
-1806
-1909
-1906
-1824
-1732
-1638
-1487
-1259
-1039
-952
-1023
-1152
-1235
-1257
-1257
-1218
-1077
-806
-468
-155
84
245
298
187
-114
-550
-1027
-1481
-1891
-2229
-2433
-2453
-2291
-2010
-1698
-1416
-1178
-977
-816
-730
-755
-878
-1016
-1067
-980
-796
-605
-461
-348
-217
-65
58
104
102
135
244
380
449
414
330
282
309
386
473
550
607
641
653
650
634
603
570
581
676
838
1001
1118
1214
1342
1502
1629
1662
1604
1518
1490
1583
1817
2118
2348
2392
2273
2118
2011
1884
1592
1106
583
224
95
103
128
139
166
208
225
184
100
1
-113
-246
-350
-341
-196
-11
95
98
62
38
-7
-117
-247
-292
-217
-134
-183
-395
-660
-843
-900
-850
-725
-552
-377
-227
-35
306
801
1258
1437
1280
993
836
879
961
906
707
503
402
383
363
308
246
187
93
-60
-189
-129
221
764
1250
1480
1444
1276
1074
816
434
-58
-548
-921
-1141
-1242
-1262
-1193
-1018
-770
-562
-527
-716
-1029
-1282
-1374
-1381
-1444
-1556
-1525
-1171
-563
23
370
510
616
777
924
961
905
841
822
837
873
934
980
912
687
403
245
285
403
399
195
-100
-310
-363
-354
-433
-665
-967
-1183
-1224
-1145
-1071
-1045
-981
-778
-474
-259
-282
-482
-630
-577
-419
-384
-574
-838
-925
-733
-412
-195
-172
-243
-267
-219
-202
-295
-446
-534
-509
-479
-595
-887
-1230
-1474
-1593
-1681
-1822
-1983
-2061
-1979
-1721
-1285
-683
-7
561
868
952
1024
1248
1541
1653
1457
1117
924
1002
1209
1331
1306
1240
1218
1202
1133
1050
1040
1126
1224
1254
1227
1198
1178
1134
1067
1026
1023
982
819
574
387
344
378
361
254
137
101
162
293
451
558
485
158
-307
-642
-655
-434
-250
-266
-363
-285
87
605
1000
1096
904
562
219
-43
-214
-354
-529
-728
-856
-814
-609
-378
-268
-304
-390
-434
-445
-504
-652
-808
-852
-744
-582
-511
-601
-801
-1010
-1174
-1288
-1353
-1359
-1304
-1198
-1046
-816
-475
-50
359
646
753
675
427
62
-305
-532
-551
-428
-278
-142
46
336
673
916
962
828
610
391
208
60
-59
-163
-264
-360
-423
-433
-409
-407
-467
-566
-644
-653
-610
-567
-570
-612
-656
-690
-742
-843
-982
-1076
-1017
-759
-365
36
341
551
746
987
1262
1507
1677
1787
1875
1978
2122
2321
2541
2688
2659
2455
2202
2048
2015
1986
1828
1535
1232
1054
1024
1057
1022
845
555
247
10
-133
-217
-283
-328
-320
-262
-208
-208
-257
-315
-370
-449
-553
-627
-612
-544
-530
-635
-788
-850
-778
-680
-687
-796
-881
-844
-735
-680
-738
-846
-910
-918
-927
-983
-1069
-1139
-1183
-1228
-1293
-1361
-1407
-1435
-1481
-1572
-1687
-1780
-1830
-1868
-1922
-1962
-1918
-1766
-1583
-1483
-1508
-1599
-1682
-1740
-1809
-1909
-2016
-2093
-2109
-2031
-1824
-1520
-1235
-1097
-1121
-1198
-1232
-1253
-1360
-1578
-1797
-1880
-1792
-1613
-1428
-1249
-1067
-909
-845
-896
-1004
-1081
-1092
-1061
-1026
-974
-881
-748
-605
-473
-355
-261
-207
-172
-93
58
190
161
-53
-290
-367
-290
-247
-364
-544
-582
-414
-185
-67
-62
-50
39
138
149
66
-31
-76
-80
-87
-114
-148
-182
-229
-279
-294
-245
-140
-7
152
360
601
789
827
704
513
347
213
60
-102
-159
0
359
774
1097
1284
1377
1427
1447
1419
1312
1112
841
581
432
443
557
687
808
948
1112
1231
1229
1113
957
814
681
546
449
448
527
602
638
702
855
1023
1039
839
552
348
235
82
-145
-265
-50
523
1252
1922
2472
2945
3329
3523
3437
3076
2525
1889
1284
812
509
327
204
143
205
391
590
664
552
316
64
-148
-322
-485
-633
-717
-677
-510
-319
-239
-315
-457
-551
-574
-605
-711
-866
-987
-1023
-992
-946
-913
-887
-843
-759
-643
-540
-504
-548
-631
-700
-731
-731
-711
-669
-608
-553
-528
-525
-506
-466
-454
-526
-663
-754
-690
-494
-320
-309
-433
-528
-491
-398
-417
-617
-913
-1185
-1381
-1501
-1512
-1385
-1180
-1026
-977
-944
-814
-609
-476
-517
-675
-809
-860
-870
-885
-897
-873
-826
-797
-798
-801
-774
-727
-693
-687
-691
-670
-609
-521
-437
-380
-347
-312
-276
-271
-327
-414
-460
-422
-334
-268
-247
-227
-155
-33
89
147
100
-39
-207
-326
-363
-370
-419
-521
-600
-575
-462
-346
-296
-313
-368
-446
-547
-642
-691
-685
-662
-650
-649
-646
-650
-663
-655
-585
-480
-428
-496
-642
-742
-721
-628
-583
-658
-805
-908
-874
-715
-553
-507
-594
-706
-728
-662
-612
-652
-726
-722
-623
-531
-544
-637
-695
-660
-594
-594
-674
-761
-784
-725
-594
-393
-154
22
19
-171
-413
-543
-517
-459
-516
-692
-819
-728
-434
-140
-87
-351
-787
-1172
-1390
-1487
-1551
-1577
-1440
-1032
-400
265
806
1219
1617
2040
2364
2416
2180
1853
1670
1674
1693
1549
1251
979
889
954
1014
945
768
596
503
450
344
152
-66
-212
-258
-278
-369
-516
-583
-458
-199
-4
-15
-165
-251
-179
-62
-79
-251
-419
-418
-236
14
224
379
515
640
728
745
677
533
350
159
-23
-205
-391
-559
-674
-723
-711
-626
-454
-235
-70
-39
-107
-144
-68
78
196
252
286
318
301
199
68
9
32
27
-108
-324
-446
-349
-84
152
175
-31
-316
-492
-480
-364
-322
-453
-673
-783
-649
-331
-27
119
143
191
343
526
604
530
382
276
251
275
303
316
314
299
283
297
368
480
580
616
590
549
532
531
494
413
349
371
444
453
342
237
340
683
1026
1082
846
597
576
706
689
354
-161
-575
-745
-731
-652
-567
-477
-373
-246
-70
156
349
394
253
12
-192
-285
-297
-312
-372
-462
-517
-492
-419
-383
-409
-423
-335
-159
-7
52
84
205
397
496
387
168
78
219
432
470
261
-22
-164
-124
-42
-59
-181
-313
-367
-331
-232
-105
-3
31
-1
-46
-45
-3
16
-42
-158
-261
-297
-249
-157
-86
-80
-156
-325
-618
-1047
-1515
-1820
-1803
-1507
-1113
-703
-133
768
1887
2821
3247
3228
3080
2980
2782
2286
1565
929
599
508
467
441
558
852
1126
1121
790
347
49
-59
-126
-286
-506
-635
-568
-341
-76
110
170
116
-6
-141
-254
-334
-380
-369
-288
-175
-113
-157
-262
-310
-245
-155
-197
-428
-722
-871
-784
-581
-472
-545
-685
-712
-577
-407
-359
-448
-553
-555
-446
-315
-252
-269
-296
-235
-53
167
262
123
-197
-532
-783
-999
-1273
-1574
-1736
-1635
-1320
-950
-618
-289
77
423
629
620
427
133
-176
-428
-564
-559
-439
-264
-89
71
224
367
460
439
262
-16
-247
-276
-83
190
361
378
322
291
280
216
75
-76
-150
-130
-56
46
186
380
587
740
797
766
677
553
417
300
218
149
85
61
149
377
690
986
1193
1286
1262
1114
875
616
379
119
-227
-622
-945
-1131
-1244
-1368
-1465
-1444
-1324
-1240
-1203
-955
-225
892
1896
2327
2201
1928
1818
1746
1371
572
-393
-1169
-1596
-1694
-1449
-777
292
1450
2264
2516
2359
2079
1777
1299
480
-599
-1630
-2303
-2500
-2305
-1888
-1417
-1012
-725
-520
-335
-159
-62
-136
-417
-843
-1294
-1660
-1876
-1932
-1858
-1717
-1582
-1509
-1506
-1553
-1618
-1703
-1821
-1919
-1864
-1537
-977
-377
86
418
771
1229
1662
1843
1671
1273
881
627
482
369
276
260
363
550
735
875
986
1088
1143
1060
796
431
126
-21
-55
-110
-244
-391
-434
-337
-181
-70
-40
-52
-60
-43
4
76
142
165
154
196
377
656
862
853
656
434
299
224
131
40
62
267
611
995
1368
1711
1971
2071
2004
1866
1756
1663
1503
1256
1020
912
923
935
862
744
682
713
768
748
640
522
476
493
487
413
325
304
327
262
26
-271
-399
-263
-8
144
155
190
369
568
552
265
-101
-334
-438
-573
-804
-990
-956
-704
-403
-196
-83
10
106
155
113
0
-132
-232
-249
-149
56
272
392
391
345
320
283
140
-120
-379
-492
-435
-308
-211
-134
-16
143
262
284
246
230
243
204
67
-109
-217
-241
-259
-316
-344
-224
62
392
618
688
646
542
384
164
-92
-346
-588
-825
-1033
-1141
-1096
-937
-778
-713
-743
-785
-756
-661
-569
-549
-594
-620
-533
-316
-66
81
68
-46
-153
-212
-258
-333
-421
-472
-498
-563
-671
-714
-569
-273
-48
-106
-439
-815
-1011
-1016
-1010
-1155
-1432
-1668
-1702
-1513
-1224
-998
-937
-1046
-1271
-1565
-1897
-2217
-2423
-2400
-2119
-1664
-1149
-624
-98
385
742
947
1061
1137
1110
892
548
346
503
923
1268
1304
1124
993
1024
1071
946
647
339
148
51
-32
-101
-69
101
327
474
465
337
186
68
-30
-143
-268
-370
-417
-402
-320
-143
133
446
686
775
729
632
560
544
574
633
711
807
928
1075
1231
1367
1458
1496
1458
1307
1028
685
387
204
113
58
42
112
286
509
708
874
1033
1165
1185
1031
748
463
273
171
94
4
-79
-111
-82
-23
29
49
29
-34
-136
-255
-357
-415
-418
-368
-274
-172
-126
-183
-311
-405
-387
-284
-206
-220
-292
-350
-368
-373
-367
-296
-146
4
56
27
59
261
565
800
887
918
1013
1134
1107
812
330
-133
-421
-541
-588
-609
-550
-325
79
554
931
1092
1048
912
763
578
285
-103
-451
-633
-649
-607
-598
-604
-561
-468
-400
-416
-500
-565
-539
-416
-250
-106
-41
-64
-159
-293
-437
-582
-725
-859
-957
-982
-897
-717
-519
-390
-337
-284
-165
-14
53
-23
-169
-250
-219
-176
-257
-469
-684
-782
-774
-775
-864
-991
-1040
-970
-863
-854
-994
-1191
-1311
-1300
-1232
-1200
-1207
-1160
-990
-748
-582
-618
-874
-1262
-1668
-2003
-2215
-2287
-2232
-2062
-1752
-1258
-601
85
616
896
976
984
986
954
847
698
600
606
672
706
649
507
325
138
-41
-197
-324
-423
-505
-585
-658
-723
-802
-932
-1121
-1308
-1422
-1457
-1466
-1470
-1412
-1235
-1024
-967
-1146
-1416
-1540
-1465
-1379
-1469
-1665
-1704
-1449
-1056
-778
-667
-547
-285
2
65
-200
-638
-1004
-1176
-1204
-1211
-1279
-1411
-1530
-1516
-1295
-952
-717
-759
-1010
-1214
-1175
-950
-761
-740
-809
-821
-725
-600
-525
-493
-455
-390
-338
-354
-483
-741
-1075
-1357
-1456
-1384
-1315
-1414
-1641
-1744
-1492
-918
-291
141
339
429
497
507
401
223
78
7
-45
-123
-148
14
388
827
1138
1220
1112
914
707
536
400
267
96
-93
-207
-151
78
384
663
872
999
1031
968
870
822
842
842
730
539
402
409
508
570
547
521
602
792
979
1054
1002
884
742
564
321
12
-331
-671
-961
-1145
-1183
-1106
-1003
-951
-940
-897
-794
-686
-643
-657
-631
-494
-307
-209
-273
-418
-484
-405
-270
-225
-301
-390
-362
-200
2
147
217
252
269
253
201
147
128
136
126
77
25
39
141
291
436
547
619
643
609
542
503
503
481
376
215
111
126
194
203
142
109
146
143
-44
-397
-723
-845
-764
-593
-383
-81
340
788
1162
1490
1887
2375
2782
2886
2669
2346
2159
2131
2075
1810
1352
889
614
594
726
848
846
722
583
534
573
584
443
151
-168
-401
-556
-691
-801
-806
-665
-445
-262
-160
-97
-40
-30
-117
-275
-423
-527
-612
-691
-702
-583
-388
-256
-260
-331
-360
-348
-392
-560
-813
-1054
-1206
-1233
-1128
-940
-770
-705
-716
-697
-618
-585
-701
-911
-1068
-1122
-1183
-1336
-1495
-1515
-1421
-1423
-1652
-1956
-2051
-1835
-1503
-1322
-1348
-1405
-1313
-1081
-882
-867
-1019
-1175
-1177
-1031
-903
-948
-1139
-1283
-1232
-1052
-937
-981
-1069
-1023
-818
-609
-541
-609
-697
-720
-691
-669
-690
-759
-858
-930
-884
-690
-442
-300
-328
-422
-434
-347
-283
-343
-475
-525
-413
-210
-45
22
15
-32
-124
-269
-435
-573
-670
-749
-806
-787
-642
-416
-221
-126
-86
-26
51
62
-38
-186
-287
-334
-388
-473
-531
-492
-372
-239
-122
-14
57
22
-127
-290
-348
-312
-299
-377
-467
-444
-293
-107
33
124
199
258
286
298
329
372
395
402
437
517
577
545
438
354
348
364
319
222
184
308
571
839
975
941
806
666
570
484
337
111
-106
-185
-92
61
107
2
-137
-185
-165
-205
-337
-411
-242
160
592
894
1148
1565
2203
2833
3136
3007
2640
2336
2252
2327
2412
2427
2427
2519
2725
2916
2901
2604
2135
1680
1298
874
306
-314
-759
-887
-772
-603
-513
-515
-561
-590
-535
-341
-70
90
-24
-357
-633
-616
-340
-94
-141
-470
-806
-864
-600
-231
-29
-90
-276
-393
-399
-413
-540
-722
-811
-754
-645
-580
-526
-386
-165
-3
-19
-179
-349
-455
-525
-591
-630
-620
-612
-676
-788
-838
-796
-773
-874
-1009
-961
-672
-391
-427
-773
-1081
-1060
-815
-713
-932
-1269
-1390
-1200
-885
-640
-474
-330
-243
-312
-532
-750
-832
-815
-840
-978
-1148
-1214
-1098
-815
-463
-189
-105
-210
-369
-446
-445
-471
-578
-698
-743
-736
-763
-819
-786
-591
-340
-219
-300
-479
-611
-654
-659
-685
-741
-811
-853
-798
-596
-322
-167
-265
-532
-742
-774
-730
-799
-1008
-1192
-1200
-1052
-886
-782
-714
-648
-613
-646
-699
-668
-533
-399
-384
-484
-575
-559
-455
-351
-282
-210
-111
-32
-28
-80
-92
-10
102
121
5
-153
-211
-116
64
208
257
259
286
363
454
509
509
478
461
489
570
673
742
734
652
537
434
347
249
132
29
-19
-16
-10
-41
-90
-106
-85
-88
-183
-365
-560
-718
-860
-1027
-1188
-1230
-1055
-680
-207
293
825
1403
1964
2399
2652
2773
2829
2806
2645
2355
2048
1862
1832
1884
1943
1998
2075
2145
2125
1945
1614
1194
724
184
-460
-1181
-1863
-2353
-2548
-2460
-2193
-1858
-1498
-1091
-619
-150
181
260
96
-192
-471
-669
-791
-867
-908
-904
-839
-697
-475
-210
27
155
144
42
-76
-177
-278
-414
-580
-736
-834
-860
-848
-847
-879
-917
-897
-785
-626
-523
-541
-631
-681
-647
-610
-701
-963
-1267
-1406
-1290
-1062
-974
-1103
-1233
-1087
-690
-393
-469
-751
-792
-397
131
349
168
-121
-258
-268
-271
-202
83
501
732
609
363
351
599
731
393
-368
-1182
-1739
-2017
-2150
-2211
-2162
-1963
-1650
-1307
-997
-746
-567
-483
-525
-695
-940
-1189
-1384
-1471
-1377
-1053
-573
-160
-44
-244
-538
-680
-639
-610
-788
-1166
-1583
-1880
-1995
-1946
-1743
-1414
-1055
-796
-674
-596
-486
-427
-561
-791
-658
309
2065
3921
5054
5179
4675
4061
3416
2384
680
-1498
-3559
-4947
-5438
-5121
-4255
-3165
-2164
-1430
-923
-479
-41
244
149
-373
-1057
-1513
-1535
-1227
-837
-511
-216
98
347
380
194
6
51
345
689
897
969
1020
1094
1140
1138
1188
1414
1809
2197
2380
2304
2082
1866
1726
1623
1494
1338
1225
1227
1353
1538
1710
1854
2008
2210
2451
2691
2904
3103
3304
3479
3572
3529
3352
3097
2821
2537
2232
1906
1599
1365
1236
1222
1325
1520
1726
1827
1747
1516
1251
1061
966
916
849
740
608
505
491
567
622
491
117
-358
-697
-789
-742
-731
-775
-749
-559
-294
-121
-91
-106
-80
-53
-106
-215
-279
-272
-315
-522
-827
-1036
-1052
-989
-1025
-1179
-1289
-1208
-963
-712
-575
-552
-568
-580
-602
-653
-731
-819
-910
-1004
-1083
-1122
-1120
-1111
-1125
-1145
-1095
-882
-472
80
648
1074
1236
1108
763
324
-131
-620
-1202
-1846
-2370
-2555
-2326
-1832
-1334
-1001
-821
-686
-521
-332
-162
-54
-60
-210
-449
-634
-650
-519
-385
-377
-492
-636
-743
-808
-834
-795
-686
-566
-514
-535
-552
-495
-374
-269
-242
-304
-430
-571
-674
-716
-733
-809
-971
-1130
-1146
-961
-677
-476
-465
-586
-698
-716
-690
-725
-843
-942
-892
-683
-462
-400
-530
-724
-824
-785
-696
-655
-659
-598
-358
58
530
913
1147
1275
1366
1443
1483
1464
1428
1431
1495
1614
1755
1881
1949
1934
1846
1727
1612
1507
1405
1320
1308
1443
1747
2164
2577
2870
2994
2987
2923
2843
2730
2532
2219
1827
1473
1298
1360
1581
1819
2023
2270
2602
2868
2788
2235
1413
660
155
-173
-428
-540
-347
174
879
1631
2425
3250
3921
4154
3857
3264
2725
2394
2172
1889
1520
1200
1077
1182
1409
1583
1573
1374
1082
794
529
250
-52
-319
-512
-668
-854
-1064
-1191
-1139
-927
-702
-632
-769
-1030
-1294
-1499
-1661
-1808
-1902
-1840
-1550
-1104
-686
-435
-342
-279
-169
-85
-187
-566
-1150
-1750
-2178
-2337
-2244
-1996
-1713
-1467
-1245
-952
-508
43
510
668
447
1
-416
-665
-789
-931
-1180
-1506
-1802
-1938
-1788
-1315
-686
-223
-170
-482
-868
-1077
-1118
-1186
-1399
-1668
-1802
-1705
-1429
-1079
-739
-481
-364
-389
-474
-532
-557
-619
-755
-910
-983
-918
-735
-494
-251
-60
42
65
72
106
144
114
3
-107
-125
-52
39
103
175
296
428
474
405
305
276
307
276
111
-104
-192
-75
138
254
171
-60
-317
-528
-675
-723
-623
-394
-157
-37
-17
48
239
437
416
81
-413
-799
-936
-890
-805
-753
-720
-686
-663
-663
-674
-676
-678
-704
-764
-840
-885
-853
-745
-625
-602
-731
-936
-1068
-1029
-850
-641
-482
-381
-332
-352
-459
-647
-900
-1207
-1519
-1722
-1692
-1428
-1080
-829
-729
-694
-634
-566
-586
-746
-987
-1198
-1300
-1289
-1215
-1113
-970
-722
-349
47
265
164
-189
-568
-797
-908
-1082
-1397
-1681
-1638
-1136
-353
352
734
828
855
999
1242
1410
1352
1095
834
771
950
1229
1396
1331
1066
720
402
177
59
23
31
75
194
416
700
932
1009
914
674
317
-98
-426
-496
-268
79
289
267
147
105
142
107
-95
-381
-576
-593
-485
-355
-260
-218
-251
-382
-572
-718
-743
-686
-632
-596
-487
-221
149
473
632
627
528
375
185
8
-93
-120
-157
-255
-343
-301
-128
27
22
-128
-294
-391
-432
-463
-482
-466
-422
-394
-399
-408
-396
-375
-372
-394
-420
-440
-460
-487
-517
-538
-531
-479
-379
-264
-183
-167
-192
-211
-193
-166
-175
-242
-351
-476
-590
-677
-731
-775
-847
-955
-1053
-1070
-981
-838
-729
-703
-739
-770
-763
-757
-818
-963
-1129
-1237
-1262
-1251
-1257
-1272
-1251
-1183
-1115
-1107
-1155
-1213
-1231
-1194
-1103
-970
-828
-731
-707
-731
-760
-784
-843
-951
-1056
-1088
-1024
-893
-727
-544
-376
-273
-256
-291
-347
-454
-647
-868
-982
-920
-769
-652
-550
-334
39
410
573
505
375
320
291
154
-102
-329
-384
-269
-92
69
208
328
395
374
267
109
-75
-269
-429
-486
-398
-195
47
257
401
474
483
445
360
205
-46
-361
-603
-612
-360
-21
138
1
-295
-503
-539
-563
-786
-1199
-1561
-1612
-1306
-803
-261
275
828
1375
1826
2105
2211
2197
2098
1912
1638
1322
1051
919
931
990
962
788
541
332
185
-6
-346
-789
-1164
-1334
-1313
-1223
-1167
-1164
-1169
-1148
-1113
-1104
-1165
-1311
-1494
-1631
-1672
-1645
-1613
-1598
-1564
-1485
-1398
-1370
-1404
-1427
-1392
-1339
-1339
-1382
-1372
-1245
-1068
-985
-1056
-1186
-1232
-1160
-1073
-1082
-1178
-1257
-1230
-1108
-968
-869
-816
-789
-783
-813
-876
-971
-1095
-1229
-1331
-1368
-1360
-1365
-1399
-1396
-1287
-1112
-1010
-1082
-1259
-1379
-1350
-1235
-1159
-1151
-1107
-928
-621
-294
-55
55
56
-14
-120
-234
-329
-394
-441
-478
-475
-364
-102
255
570
716
696
638
663
749
764
626
401
233
201
250
288
285
282
314
369
426
501
629
796
926
950
879
802
799
862
908
871
781
741
824
989
1120
1137
1055
955
874
780
620
409
233
169
221
320
395
442
513
663
901
1168
1349
1343
1139
844
590
419
240
-68
-493
-842
-905
-656
-292
-47
42
131
371
705
921
856
563
255
98
97
147
166
173
241
402
604
759
824
836
856
890
863
716
500
342
303
307
233
60
-106
-149
-78
14
69
121
202
257
200
35
-108
-117
-27
6
-125
-359
-507
-439
-186
107
334
533
816
1234
1713
2113
2341
2406
2385
2339
2259
2078
1763
1377
1049
875
832
817
768
734
783
872
851
609
204
-199
-501
-741
-1010
-1306
-1520
-1547
-1400
-1196
-1048
-979
-929
-840
-720
-637
-646
-732
-821
-849
-817
-769
-738
-719
-704
-701
-699
-636
-456
-215
-83
-191
-491
-779
-896
-890
-952
-1198
-1546
-1788
-1783
-1555
-1250
-1025
-950
-996
-1081
-1126
-1116
-1109
-1170
-1301
-1420
-1435
-1327
-1164
-1036
-977
-953
-916
-875
-882
-960
-1055
-1079
-1010
-911
-857
-848
-824
-753
-676
-659
-715
-802
-885
-979
-1116
-1285
-1419
-1435
-1311
-1091
-857
-664
-490
-279
-33
163
215
142
78
134
267
331
249
112
75
168
280
310
311
442
763
1125
1299
1202
969
776
619
308
-295
-1062
-1661
-1838
-1616
-1223
-849
-509
-134
287
666
897
935
798
521
158
-190
-397
-384
-195
24
160
238
388
681
997
1127
1021
878
933
1164
1290
1088
674
386
396
523
466
154
-182
-285
-125
136
348
480
579
678
783
898
1005
1042
942
698
382
93
-100
-170
-125
4
165
319
468
651
884
1122
1272
1270
1135
955
822
764
734
679
615
608
679
754
712
524
278
81
-50
-170
-284
-302
-137
175
522
856
1219
1644
2062
2357
2504
2580
2645
2664
2569
2371
2163
2006
1866
1685
1476
1316
1245
1191
1047
793
524
340
250
187
82
-50
-146
-162
-128
-118
-178
-278
-361
-408
-469
-608
-809
-936
-860
-589
-282
-106
-81
-79
-4
73
-22
-365
-823
-1163
-1256
-1168
-1055
-1008
-1000
-960
-875
-800
-814
-945
-1149
-1335
-1453
-1517
-1567
-1611
-1622
-1577
-1510
-1465
-1452
-1437
-1395
-1332
-1240
-1061
-750
-374
-73
61
64
28
-49
-250
-608
-1016
-1323
-1509
-1670
-1864
-2018
-2023
-1889
-1751
-1715
-1758
-1784
-1742
-1667
-1599
-1531
-1444
-1348
-1278
-1242
-1197
-1091
-921
-746
-630
-561
-471
-290
-28
247
494
745
1045
1341
1510
1489
1356
1236
1151
1019
805
604
543
631
746
815
895
1080
1346
1574
1689
1743
1822
1912
1926
1839
1744
1751
1845
1912
1878
1788
1741
1760
1775
1715
1587
1454
1369
1344
1376
1457
1564
1653
1697
1688
1616
1450
1202
978
921
1057
1251
1345
1335
1370
1573
1905
2205
2353
2338
2207
2001
1776
1604
1529
1505
1436
1283
1101
975
938
954
952
888
769
650
607
683
840
998
1095
1130
1115
1041
912
778
712
743
805
801
698
562
482
489
539
571
556
484
347
143
-73
-199
-160
11
211
390
619
994
1497
1989
2326
2488
2537
2519
2418
2241
2053
1923
1831
1712
1554
1423
1386
1420
1429
1350
1215
1088
1002
934
850
742
621
504
405
338
303
283
252
198
155
171
254
333
289
48
-343
-754
-1060
-1241
-1367
-1505
-1641
-1688
-1571
-1309
-1011
-790
-667
-583
-471
-347
-307
-442
-737
-1080
-1352
-1511
-1614
-1742
-1904
-2021
-2000
-1834
-1614
-1460
-1406
-1404
-1410
-1445
-1567
-1795
-2062
-2271
-2359
-2328
-2203
-1985
-1675
-1288
-872
-506
-258
-169
-235
-418
-673
-966
-1257
-1478
-1537
-1388
-1073
-694
-324
43
450
876
1204
1314
1189
938
725
653
707
796
847
856
875
958
1101
1248
1336
1350
1315
1287
1308
1389
1500
1589
1632
1648
1679
1731
1757
1708
1599
1502
1461
1430
1320
1096
835
670
692
888
1171
1468
1768
2119
2553
3033
3461
3746
3870
3869
3780
3624
3428
3245
3116
3026
2928
2799
2675
2597
2565
2515
2386
2167
1903
1664
1505
1436
1404
1339
1214
1080
1006
1007
1025
994
908
822
800
864
986
1120
1230
1310
1375
1431
1470
1462
1387
1254
1084
901
730
597
519
473
411
293
138
5
-66
-103
-164
-269
-379
-438
-442
-439
-473
-546
-630
-710
-797
-902
-1013
-1103
-1153
-1144
-1045
-833
-521
-155
226
620
1033
1431
1727
1848
1796
1635
1443
1262
1102
948
782
601
445
364
369
398
354
194
-45
-296
-517
-708
-873
-1006
-1112
-1202
-1284
-1352
-1400
-1446
-1515
-1617
-1723
-1798
-1842
-1888
-1961
-2057
-2146
-2210
-2246
-2267
-2280
-2294
-2324
-2378
-2442
-2477
-2450
-2372
-2297
-2274
-2300
-2330
-2321
-2283
-2258
-2284
-2352
-2424
-2473
-2501
-2521
-2541
-2551
-2547
-2548
-2580
-2642
-2702
-2728
-2719
-2712
-2750
-2834
-2922
-2962
-2941
-2896
-2870
-2873
-2869
-2817
-2719
-2628
-2607
-2667
-2753
-2796
-2771
-2719
-2692
-2694
-2675
-2588
-2444
-2296
-2183
-2098
-2022
-1957
-1932
-1957
-1996
-1995
-1934
-1838
-1745
-1673
-1610
-1546
-1484
-1433
-1398
-1383
-1395
-1430
-1461
-1452
-1383
-1266
-1144
-1058
-1029
-1047
-1068
-1048
-982
-898
-827
-762
-667
-524
-370
-269
-261
-339
-464
-597
-703
-764
-788
-802
-817
-793
-661
-403
-105
81
60
-132
-368
-555
-698
-868
-1073
-1226
-1219
-1034
-755
-483
-248
-41
115
150
48
-98
-148
-52
104
216
270
334
449
580
664
685
649
548
370
163
40
78
236
398
497
571
678
807
875
829
708
600
551
526
476
415
412
502
628
686
650
598
630
757
901
970
946
864
757
634
491
327
149
-14
-86
4
249
561
848
1115
1438
1831
2197
2402
2401
2260
2068
1871
1676
1477
1266
1022
764
573
532
614
671
568
311
32
-163
-297
-463
-701
-953
-1129
-1204
-1227
-1251
-1272
-1247
-1150
-1014
-903
-860
-871
-882
-852
-780
-708
-673
-677
-692
-682
-638
-570
-498
-430
-364
-306
-269
-259
-267
-275
-271
-269
-289
-340
-396
-420
-397
-351
-329
-361
-440
-542
-648
-748
-825
-857
-846
-829
-835
-844
-807
-706
-594
-542
-561
-600
-609
-590
-582
-599
-623
-653
-715
-824
-943
-1000
-967
-893
-843
-831
-813
-744
-629
-521
-479
-527
-645
-778
-862
-858
-771
-643
-523
-428
-348
-258
-148
-40
16
-28
-170
-338
-427
-382
-251
-133
-88
-79
-37
46
95
49
-70
-182
-248
-305
-381
-424
-349
-164
-4
-11
-187
-398
-519
-551
-593
-710
-876
-1007
-1040
-978
-861
-740
-651
-613
-615
-630
-651
-697
-787
-898
-985
-1027
-1056
-1113
-1173
-1152
-993
-763
-608
-615
-710
-737
-629
-493
-492
-660
-866
-944
-861
-725
-654
-659
-669
-630
-568
-535
-537
-551
-569
-613
-678
-710
-651
-519
-418
-432
-536
-612
-580
-490
-454
-510
-574
-542
-415
-296
-265
-307
-354
-398
-494
-674
-880
-1025
-1081
-1076
-1011
-830
-475
26
590
1163
1734
2275
2702
2929
2973
2923
2843
2702
2451
2118
1810
1619
1556
1575
1628
1674
1657
1536
1329
1110
941
802
626
384
141
3
11
103
169
161
112
91
125
176
194
168
126
107
133
198
282
353
381
362
314
253
167
35
-127
-251
-291
-273
-278
-324
-326
-186
65
257
248
73
-93
-124
-70
-71
-186
-335
-420
-434
-434
-434
-379
-245
-130
-164
-359
-575
-659
-602
-541
-583
-697
-770
-740
-645
-550
-463
-355
-241
-185
-209
-238
-175
-20
92
36
-163
-334
-331
-196
-94
-130
-238
-274
-198
-103
-94
-140
-123
11
181
268
254
222
244
279
245
124
-7
-64
-46
-5
39
127
292
484
601
592
518
486
518
518
387
156
-37
-100
-78
-70
-87
-33
127
286
299
168
49
54
110
57
-139
-349
-434
-396
-328
-268
-183
-60
31
25
-50
-104
-110
-136
-245
-393
-483
-482
-451
-444
-426
-337
-196
-98
-102
-144
-95
76
253
296
195
88
97
186
191
18
-250
-430
-426
-312
-237
-265
-328
-310
-167
51
238
318
283
197
147
177
236
229
112
-53
-163
-187
-193
-268
-408
-518
-538
-522
-565
-664
-682
-485
-102
296
588
822
1142
1591
2042
2325
2391
2335
2276
2247
2204
2092
1882
1584
1236
903
642
465
339
236
155
112
98
87
71
68
85
66
-75
-378
-764
-1057
-1121
-981
-803
-735
-752
-696
-472
-175
0
-24
-145
-221
-246
-324
-496
-665
-706
-628
-563
-616
-752
-849
-838
-763
-723
-792
-974
-1204
-1379
-1414
-1316
-1178
-1105
-1118
-1124
-1021
-806
-576
-442
-435
-509
-614
-732
-858
-982
-1098
-1240
-1425
-1594
-1627
-1464
-1222
-1117
-1248
-1489
-1628
-1597
-1529
-1573
-1702
-1742
-1584
-1308
-1095
-1049
-1131
-1237
-1303
-1311
-1263
-1166
-1046
-909
-712
-383
91
612
1020
1208
1187
1051
898
779
690
596
473
339
258
283
408
555
634
606
506
401
337
327
365
435
497
505
443
344
265
239
254
274
268
225
151
68
3
-35
-69
-136
-246
-371
-474
-536
-556
-537
-492
-471
-540
-705
-882
-965
-932
-864
-840
-830
-722
-454
-100
184
320
366
428
529
568
440
180
-42
-85
16
86
10
-146
-230
-206
-198
-317
-525
-687
-748
-778
-844
-892
-819
-646
-519
-553
-701
-809
-810
-783
-836
-966
-1060
-1035
-905
-742
-606
-516
-474
-477
-505
-524
-529
-539
-546
-500
-345
-80
255
648
1147
1770
2405
2864
3044
3020
2951
2907
2808
2552
2162
1795
1598
1594
1688
1770
1798
1790
1764
1703
1577
1381
1146
917
721
569
485
502
620
774
876
890
881
922
1003
1021
891
649
430
338
376
463
534
567
558
481
325
131
-27
-106
-131
-158
-197
-196
-97
100
339
557
711
780
751
632
486
393
377
377
307
177
108
199
404
561
556
447
362
332
256
65
-151
-227
-136
-39
-105
-324
-511
-525
-395
-259
-191
-151
-65
76
203
242
173
31
-143
-345
-600
-916
-1230
-1416
-1385
-1170
-905
-693
-504
-232
147
508
701
709
661
678
733
702
564
456
528
737
871
781
579
540
786
1126
1256
1087
834
765
905
1032
927
603
253
49
11
50
84
87
83
105
188
350
554
706
725
608
444
334
312
330
325
278
230
231
301
407
488
494
424
333
292
314
337
296
217
208
358
629
878
983
947
870
829
808
745
617
460
335
269
250
256
265
260
235
185
107
9
-85
-144
-162
-162
-190
-285
-466
-728
-1026
-1274
-1390
-1360
-1246
-1121
-989
-792
-503
-191
30
88
-1
-169
-334
-430
-414
-291
-112
76
286
583
975
1369
1621
1657
1545
1415
1334
1268
1154
997
871
853
938
1061
1157
1207
1206
1137
988
781
565
368
179
-8
-154
-209
-157
-7
251
618
1008
1243
1193
916
628
499
506
509
430
343
383
607
972
1396
1786
2023
1984
1647
1167
790
654
684
685
548
353
278
435
786
1188
1483
1568
1424
1126
809
579
430
259
-23
-396
-730
-876
-788
-561
-355
-280
-327
-398
-418
-407
-444
-564
-719
-835
-889
-901
-892
-862
-834
-862
-976
-1124
-1205
-1176
-1086
-1009
-942
-819
-583
-264
41
236
282
202
66
-57
-139
-193
-245
-284
-264
-154
24
213
375
505
600
625
546
379
197
36
-160
-496
-964
-1372
-1473
-1213
-808
-542
-474
-401
-122
307
626
654
451
204
11
-151
-284
-323
-246
-156
-170
-254
-246
-76
113
118
-75
-289
-363
-314
-257
-234
-171
-5
200
323
313
228
156
135
140
139
117
83
63
93
178
283
360
387
369
312
209
61
-101
-245
-382
-555
-769
-966
-1083
-1125
-1167
-1258
-1362
-1413
-1400
-1381
-1404
-1453
-1480
-1468
-1455
-1490
-1587
-1718
-1839
-1905
-1903
-1867
-1863
-1935
-2064
-2186
-2267
-2324
-2368
-2352
-2202
-1903
-1524
-1150
-806
-455
-76
279
512
555
420
195
-21
-174
-281
-396
-543
-675
-714
-636
-520
-490
-614
-847
-1091
-1296
-1483
-1692
-1904
-2054
-2104
-2079
-2033
-1982
-1894
-1756
-1618
-1550
-1568
-1611
-1612
-1567
-1535
-1569
-1656
-1739
-1781
-1779
-1748
-1701
-1637
-1560
-1477
-1400
-1338
-1298
-1265
-1225
-1196
-1236
-1391
-1621
-1802
-1836
-1743
-1635
-1582
-1545
-1442
-1277
-1151
-1147
-1247
-1360
-1437
-1504
-1593
-1669
-1674
-1608
-1547
-1562
-1636
-1691
-1684
-1654
-1649
-1657
-1619
-1517
-1407
-1367
-1389
-1393
-1331
-1253
-1236
-1278
-1274
-1153
-960
-797
-688
-571
-411
-285
-308
-476
-657
-728
-711
-725
-826
-933
-931
-797
-620
-490
-418
-368
-313
-247
-163
-52
71
162
188
162
136
140
156
158
162
205
304
431
544
630
695
726
689
576
439
368
395
458
479
463
497
640
840
981
999
921
796
619
370
92
-104
-134
-32
102
219
367
602
890
1114
1174
1078
915
754
598
435
311
316
482
712
831
760
586
466
455
447
308
53
-150
-145
53
292
439
477
461
406
284
94
-93
-197
-206
-166
-97
47
310
633
861
874
690
415
137
-135
-424
-717
-976
-1188
-1347
-1392
-1224
-813
-274
222
616
1000
1474
2009
2461
2713
2751
2637
2435
2197
1983
1834
1745
1673
1600
1550
1549
1576
1570
1469
1223
812
290
-184
-432
-420
-327
-369
-566
-714
-618
-328
-102
-140
-403
-686
-834
-839
-763
-653
-555
-526
-576
-608
-509
-305
-174
-258
-489
-662
-676
-629
-657
-743
-752
-638
-516
-507
-572
-576
-472
-358
-356
-465
-598
-697
-781
-877
-968
-1031
-1066
-1098
-1131
-1129
-1066
-954
-833
-742
-700
-714
-780
-870
-947
-973
-934
-866
-840
-911
-1026
-1056
-906
-634
-424
-412
-543
-629
-566
-435
-398
-507
-657
-735
-754
-799
-879
-900
-802
-672
-662
-803
-951
-941
-763
-569
-501
-546
-564
-434
-175
70
155
49
-133
-241
-234
-221
-340
-585
-785
-786
-627
-496
-530
-671
-767
-766
-763
-858
-1023
-1139
-1137
-1052
-939
-806
-649
-510
-449
-462
-474
-444
-435
-537
-737
-914
-973
-937
-884
-846
-808
-785
-829
-921
-945
-800
-553
-392
-408
-486
-448
-262
-61
57
145
304
490
536
371
138
41
99
123
-36
-289
-387
-199
142
384
428
387
407
490
526
448
304
187
142
148
187
266
398
586
828
1107
1341
1399
1200
828
494
339
307
219
-1
-197
-125
320
1002
1684
2235
2688
3129
3575
3957
4193
4251
4145
3918
3641
3378
3155
2961
2784
2636
2528
2436
2314
2150
1989
1866
1734
1519
1230
957
764
613
435
256
176
231
325
347
317
345
464
558
519
393
320
340
333
193
-6
-92
-7
113
117
18
-45
8
109
138
64
-44
-115
-140
-150
-173
-221
-290
-352
-357
-291
-223
-244
-359
-462
-453
-373
-369
-505
-670
-698
-583
-491
-560
-727
-806
-716
-577
-569
-724
-902
-963
-905
-842
-885
-1047
-1222
-1270
-1115
-824
-572
-502
-589
-668
-608
-447
-355
-446
-672
-870
-919
-825
-691
-596
-520
-387
-173
31
100
7
-152
-270
-352
-477
-670
-851
-944
-953
-913
-786
-500
-103
193
183
-98
-403
-535
-547
-658
-987
-1407
-1675
-1655
-1414
-1116
-861
-657
-485
-365
-334
-377
-428
-437
-424
-448
-534
-639
-688
-652
-565
-483
-448
-462
-496
-515
-496
-442
-371
-309
-276
-285
-325
-366
-362
-301
-221
-161
-96
33
221
358
338
212
174
344
598
681
485
191
77
216
415
442
267
60
5
135
335
460
447
330
187
68
-33
-144
-263
-363
-437
-508
-552
-483
-248
64
277
296
205
134
90
-11
-158
-189
28
409
735
917
1106
1481
1998
2390
2438
2187
1877
1695
1615
1474
1181
816
550
482
562
683
796
925
1070
1146
1049
773
432
157
-16
-138
-243
-317
-324
-263
-161
-48
60
133
127
9
-198
-397
-477
-411
-301
-297
-446
-634
-700
-607
-476
-457
-570
-703
-742
-666
-543
-431
-362
-347
-375
-406
-406
-384
-388
-423
-417
-286
-42
186
260
164
0
-125
-196
-278
-429
-630
-808
-902
-919
-911
-925
-970
-1024
-1068
-1091
-1084
-1048
-1001
-956
-907
-836
-754
-721
-776
-873
-915
-866
-793
-778
-805
-777
-646
-475
-357
-307
-290
-313
-419
-596
-739
-746
-648
-576
-594
-624
-543
-342
-150
-99
-196
-324
-369
-303
-196
-143
-192
-312
-404
-411
-395
-485
-714
-904
-804
-364
160
442
414
313
366
502
430
-10
-654
-1195
-1462
-1493
-1366
-1094
-708
-370
-273
-454
-758
-1016
-1219
-1477
-1855
-2256
-2497
-2447
-2103
-1592
-1109
-828
-784
-864
-913
-882
-865
-962
-1143
-1242
-1110
-755
-320
44
284
422
488
485
408
277
130
0
-96
-148
-142
-48
152
431
700
856
881
871
953
1165
1407
1540
1521
1441
1435
1559
1768
1950
2001
1875
1608
1305
1063
900
760
614
530
621
920
1324
1692
1976
2231
2506
2762
2910
2910
2792
2598
2336
2025
1736
1571
1559
1642
1737
1828
1960
2141
2298
2327
2192
1966
1751
1601
1493
1371
1210
1038
923
912
989
1070
1064
947
763
574
401
220
12
-201
-374
-462
-424
-243
41
322
477
469
369
288
254
201
52
-180
-402
-522
-517
-428
-297
-131
66
255
367
346
199
-18
-234
-420
-565
-665
-708
-686
-610
-506
-406
-333
-297
-292
-295
-269
-194
-78
47
150
219
260
295
335
363
342
257
140
56
47
95
144
173
208
287
397
493
529
487
371
224
120
126
231
345
392
400
475
648
813
834
710
572
527
528
442
227
-3
-93
-3
180
337
406
393
352
332
350
373
340
229
91
1
-6
45
107
131
78
-52
-178
-173
-1
207
257
120
-16
39
235
321
141
-168
-326
-233
-74
-90
-307
-534
-606
-562
-568
-707
-897
-1008
-1001
-945
-912
-886
-794
-604
-367
-184
-125
-192
-338
-491
-587
-611
-627
-705
-827
-864
-699
-391
-135
-59
-76
6
244
472
482
272
42
-25
70
207
331
498
761
1057
1256
1286
1175
990
765
525
339
290
399
612
885
1265
1812
2458
2977
3151
2949
2547
2160
1861
1601
1345
1158
1158
1405
1849
2380
2877
3241
3423
3428
3309
3130
2932
2734
2562
2446
2406
2446
2560
2731
2924
3079
3131
3039
2800
2438
1979
1451
902
429
141
100
262
496
684
809
956
1185
1450
1610
1568
1374
1177
1092
1125
1219
1354
1550
1795
2013
2126
2128
2088
2048
1961
1753
1438
1144
1010
1068
1231
1378
1416
1282
946
464
6
-243
-262
-234
-359
-624
-789
-627
-164
337
610
581
363
106
-87
-185
-226
-308
-520
-832
-1079
-1091
-873
-642
-628
-877
-1219
-1433
-1415
-1223
-985
-802
-688
-590
-432
-200
34
161
144
46
-28
-42
-45
-82
-124
-108
-31
30
7
-73
-122
-84
9
85
96
29
-102
-259
-386
-456
-515
-654
-909
-1201
-1413
-1501
-1503
-1458
-1357
-1212
-1118
-1183
-1390
-1600
-1696
-1732
-1860
-2147
-2492
-2727
-2760
-2624
-2406
-2182
-2016
-1937
-1919
-1895
-1829
-1774
-1820
-1983
-2173
-2268
-2223
-2108
-2036
-2062
-2160
-2266
-2347
-2415
-2485
-2557
-2628
-2696
-2746
-2727
-2586
-2346
-2114
-2010
-2037
-2094
-2092
-2055
-2063
-2145
-2231
-2236
-2162
-2067
-1982
-1865
-1684
-1503
-1435
-1518
-1674
-1794
-1865
-1978
-2181
-2374
-2379
-2132
-1772
-1489
-1321
-1132
-800
-382
-72
19
-39
-99
-99
-84
-97
-105
-58
24
71
49
5
7
31
-19
-197
-445
-634
-688
-657
-658
-750
-867
-910
-862
-798
-790
-836
-887
-917
-942
-958
-922
-812
-692
-671
-771
-893
-926
-887
-900
-1051
-1264
-1363
-1258
-1029
-859
-844
-897
-871
-740
-655
-766
-1027
-1221
-1204
-1066
-1028
-1176
-1385
-1494
-1484
-1450
-1429
-1376
-1276
-1202
-1175
-1097
-868
-576
-441
-576
-835
-998
-991
-910
-840
-755
-630
-515
-460
-430
-372
-345
-487
-816
-1153
-1308
-1270
-1162
-1041
-849
-569
-321
-249
-316
-341
-226
-73
-37
-95
-42
276
784
1269
1578
1720
1755
1690
1480
1130
732
398
171
23
-70
-90
-8
167
370
525
581
534
426
311
205
72
-133
-385
-583
-634
-536
-379
-250
-169
-127
-136
-212
-326
-408
-428
-442
-528
-680
-803
-797
-658
-466
-318
-265
-279
-277
-182
15
219
296
206
46
-36
9
88
77
-49
-198
-268
-249
-203
-169
-124
-27
96
160
115
-2
-102
-133
-117
-102
-104
-89
-38
34
97
142
181
223
270
319
358
351
262
109
-2
26
162
247
144
-105
-304
-301
-151
-53
-139
-344
-493
-488
-381
-286
-249
-220
-126
56
295
562
864
1225
1617
1939
2086
2036
1881
1733
1616
1451
1175
827
513
320
271
356
547
758
848
730
476
261
188
189
132
-6
-110
-67
96
238
257
162
32
-97
-241
-411
-573
-672
-688
-645
-586
-531
-482
-452
-468
-541
-630
-671
-656
-623
-611
-604
-566
-503
-464
-463
-452
-379
-284
-283
-431
-636
-752
-731
-685
-771
-1022
-1312
-1467
-1413
-1230
-1072
-1049
-1148
-1266
-1315
-1301
-1306
-1387
-1499
-1532
-1434
-1282
-1212
-1277
-1383
-1396
-1297
-1205
-1234
-1349
-1399
-1281
-1055
-875
-813
-805
-765
-703
-704
-798
-918
-976
-960
-924
-900
-860
-787
-717
-684
-666
-614
-545
-534
-598
-639
-557
-398
-327
-424
-559
-530
-321
-146
-212
-458
-612
-504
-267
-178
-350
-604
-679
-513
-284
-192
-238
-263
-155
18
93
1
-162
-255
-239
-204
-250
-377
-473
-436
-276
-107
-34
-52
-59
24
168
261
244
175
168
261
369
373
250
94
26
104
286
468
558
564
592
756
1055
1335
1410
1233
946
746
701
712
652
496
338
298
435
743
1162
1599
1934
2071
2013
1858
1711
1574
1359
1004
562
180
-9
14
169
339
424
383
275
225
329
565
804
953
1057
1238
1545
1872
2076
2140
2164
2207
2195
2026
1749
1562
1612
1814
1931
1824
1590
1421
1387
1362
1182
819
419
160
106
169
210
161
71
39
112
221
258
189
78
-10
-91
-215
-373
-498
-551
-588
-667
-744
-703
-493
-192
77
252
336
323
189
-37
-261
-414
-541
-740
-1010
-1223
-1246
-1083
-861
-690
-597
-562
-582
-661
-761
-815
-821
-860
-1013
-1250
-1439
-1479
-1387
-1274
-1241
-1296
-1372
-1405
-1386
-1360
-1374
-1432
-1496
-1532
-1530
-1504
-1462
-1406
-1358
-1348
-1375
-1396
-1363
-1312
-1335
-1477
-1671
-1793
-1792
-1719
-1628
-1510
-1340
-1153
-1027
-979
-923
-776
-589
-509
-609
-781
-841
-720
-512
-344
-250
-184
-123
-100
-125
-148
-125
-110
-212
-443
-661
-696
-532
-326
-229
-242
-266
-241
-210
-236
-320
-421
-525
-655
-803
-903
-883
-752
-593
-493
-475
-500
-506
-463
-408
-432
-607
-895
-1147
-1212
-1058
-793
-557
-393
-244
-32
255
547
740
763
614
370
148
27
-9
-33
-100
-195
-248
-215
-107
24
125
165
126
26
-71
-97
-43
32
59
34
8
21
44
25
-38
-67
24
237
466
564
460
221
2
-97
-129
-256
-573
-989
-1296
-1365
-1245
-1066
-872
-606
-227
218
647
1055
1485
1925
2274
2430
2401
2288
2185
2138
2147
2165
2109
1929
1691
1535
1529
1578
1540
1399
1257
1153
957
528
-60
-549
-760
-784
-845
-1041
-1250
-1300
-1152
-903
-672
-515
-440
-443
-505
-587
-653
-694
-713
-700
-642
-550
-460
-382
-288
-155
-20
38
-15
-131
-209
-191
-104
-27
-22
-96
-204
-300
-362
-414
-478
-546
-578
-552
-512
-534
-639
-756
-804
-802
-864
-1065
-1340
-1536
-1562
-1466
-1353
-1259
-1141
-965
-777
-657
-632
-664
-719
-805
-950
-1142
-1313
-1395
-1381
-1320
-1264
-1217
-1145
-1023
-870
-739
-660
-628
-625
-646
-675
-689
-665
-623
-604
-616
-620
-581
-520
-490
-473
-378
-163
67
135
-20
-250
-372
-374
-426
-663
-998
-1198
-1131
-897
-708
-676
-746
-816
-863
-942
-1091
-1278
-1445
-1569
-1667
-1728
-1701
-1548
-1319
-1112
-968
-831
-645
-466
-401
-435
-407
-172
202
501
603
615
717
920
1058
1010
859
780
826
887
867
817
847
952
1002
913
762
695
751
824
815
759
777
925
1114
1199
1142
1034
993
1025
1028
921
739
614
637
772
906
960
945
921
917
913
887
847
826
849
908
967
998
994
972
948
920
872
803
758
803
970
1234
1542
1867
2212
2570
2882
3084
3168
3181
3173
3135
3024
2825
2579
2351
2158
1976
1787
1616
1501
1424
1311
1121
910
776
750
746
641
415
174
31
-1
-6
-56
-145
-227
-274
-301
-319
-317
-276
-209
-153
-134
-143
-139
-101
-48
-20
-33
-67
-86
-81
-73
-94
-141
-192
-224
-246
-305
-439
-629
-770
-722
-403
110
619
956
1091
1110
1086
995
765
366
-154
-696
-1150
-1408
-1406
-1179
-864
-624
-529
-526
-526
-508
-512
-567
-653
-730
-776
-793
-767
-663
-480
-291
-218
-333
-585
-828
-931
-865
-705
-563
-502
-492
-452
-335
-176
-61
-32
-31
35
172
280
269
174
129
194
275
239
75
-79
-97
3
102
122
91
79
104
120
83
-3
-95
-159
-203
-254
-318
-366
-365
-323
-298
-335
-406
-431
-386
-341
-382
-489
-533
-421
-216
-88
-137
-284
-359
-285
-162
-152
-309
-530
-653
-596
-427
-280
-223
-205
-122
67
298
453
469
379
270
217
236
291
334
348
361
420
530
646
717
755
804
853
797
547
152
-200
-335
-243
-58
103
249
478
850
1310
1704
1873
1744
1365
880
444
127
-88
-240
-326
-318
-212
-41
168
424
716
975
1116
1137
1152
1294
1586
1915
2154
2262
2276
2225
2098
1890
1630
1360
1084
769
429
152
31
55
102
55
-95
-255
-337
-349
-368
-463
-631
-815
-953
-1020
-1025
-989
-927
-831
-681
-475
-259
-106
-59
-97
-161
-212
-256
-297
-304
-222
-38
185
363
465
540
659
826
955
937
735
450
247
226
323
370
262
64
-65
-37
78
141
91
-21
-115
-171
-216
-278
-366
-506
-706
-921
-1073
-1139
-1190
-1299
-1436
-1488
-1405
-1262
-1167
-1122
-1036
-862
-676
-588
-599
-612
-582
-592
-759
-1060
-1323
-1391
-1279
-1130
-1034
-937
-725
-390
-52
161
225
199
128
7
-157
-302
-359
-326
-258
-194
-107
48
241
365
328
139
-106
-312
-463
-592
-710
-789
-800
-763
-738
-769
-852
-952
-1043
-1125
-1205
-1280
-1342
-1379
-1376
-1330
-1285
-1318
-1476
-1713
-1919
-2022
-2047
-2070
-2117
-2139
-2083
-1956
-1821
-1735
-1717
-1749
-1807
-1883
-1985
-2117
-2247
-2324
-2316
-2250
-2189
-2157
-2119
-2040
-1964
-1994
-2196
-2524
-2854
-3063
-3097
-2969
-2732
-2446
-2145
-1810
-1401
-933
-516
-300
-348
-585
-858
-1069
-1220
-1362
-1505
-1597
-1582
-1462
-1297
-1155
-1072
-1052
-1093
-1191
-1329
-1465
-1555
-1586
-1578
-1557
-1543
-1549
-1573
-1585
-1527
-1359
-1103
-823
-546
-223
207
721
1204
1547
1721
1748
1643
1400
1056
708
457
336
309
347
470
699
987
1217
1282
1137
821
419
29
-271
-451
-520
-505
-427
-305
-173
-64
3
11
-69
-256
-512
-719
-770
-653
-454
-258
-72
118
256
229
3
-304
-512
-542
-456
-364
-289
-172
45
337
596
711
641
433
196
21
-80
-166
-271
-336
-268
-62
165
296
344
410
524
572
431
152
-53
-21
195
398
462
434
440
521
603
602
507
373
265
218
223
246
256
254
269
318
369
371
315
246
204
179
140
99
104
156
192
158
78
28
32
26
-60
-217
-369
-448
-446
-384
-279
-152
-51
-33
-96
-173
-193
-162
-158
-243
-401
-555
-637
-624
-527
-372
-203
-74
-12
4
15
26
8
-64
-167
-256
-320
-372
-390
-306
-96
153
305
305
240
237
313
371
313
155
5
-45
9
104
179
215
242
296
368
394
315
160
39
45
151
241
246
226
286
445
606
671
642
591
551
482
348
199
133
184
290
362
378
392
465
604
744
794
705
518
338
244
222
191
117
51
62
136
189
171
131
129
128
17
-251
-572
-767
-745
-549
-265
78
505
1021
1588
2158
2690
3129
3389
3403
3206
2934
2730
2619
2492
2251
1937
1721
1724
1884
1991
1897
1640
1377
1186
1000
736
432
201
90
21
-86
-203
-246
-239
-324
-598
-962
-1197
-1201
-1092
-1060
-1151
-1222
-1115
-837
-543
-382
-385
-473
-559
-605
-621
-636
-664
-699
-722
-715
-682
-661
-705
-823
-959
-1037
-1041
-1027
-1050
-1090
-1079
-994
-907
-913
-1019
-1138
-1191
-1202
-1254
-1382
-1531
-1622
-1640
-1630
-1641
-1681
-1723
-1750
-1771
-1801
-1847
-1896
-1919
-1893
-1823
-1745
-1689
-1644
-1571
-1453
-1333
-1279
-1323
-1424
-1487
-1432
-1249
-1016
-854
-828
-878
-866
-702
-441
-232
-179
-263
-382
-446
-420
-316
-169
-38
37
76
147
281
420
470
408
304
237
214
181
123
87
124
221
313
357
372
400
451
502
516
486
440
417
443
495
524
495
424
373
392
467
539
554
517
491
533
655
808
913
929
885
845
834
815
748
660
616
640
683
690
684
741
881
1037
1126
1152
1201
1323
1468
1541
1510
1421
1312
1178
1013
859
758
689
577
416
333
456
740
960
924
683
476
461
557
551
348
67
-91
-36
159
367
497
517
432
278
122
1
-109
-257
-422
-484
-315
91
615
1108
1510
1862
2233
2632
2983
3167
3119
2897
2658
2532
2487
2361
2042
1607
1256
1095
1050
977
827
655
500
335
154
47
103
249
259
-11
-439
-746
-793
-729
-817
-1142
-1510
-1661
-1529
-1283
-1130
-1111
-1104
-1010
-868
-799
-854
-954
-993
-961
-945
-1025
-1174
-1290
-1306
-1251
-1212
-1236
-1302
-1361
-1395
-1417
-1448
-1492
-1557
-1641
-1722
-1744
-1664
-1503
-1332
-1202
-1092
-968
-868
-886
-1075
-1377
-1670
-1880
-2018
-2111
-2142
-2052
-1820
-1504
-1211
-1025
-970
-1017
-1111
-1211
-1305
-1394
-1459
-1466
-1385
-1223
-1023
-837
-702
-627
-590
-545
-456
-336
-241
-223
-271
-322
-321
-268
-202
-156
-134
-123
-110
-77
-7
89
155
122
-14
-165
-221
-151
-41
-8
-78
-158
-146
-52
13
-23
-110
-136
-70
-5
-40
-156
-225
-145
67
303
459
488
402
260
154
139
176
159
22
-179
-319
-333
-264
-189
-133
-92
-80
-111
-155
-168
-156
-182
-279
-396
-450
-407
-293
-120
126
403
604
664
659
713
820
813
565
176
-115
-175
-103
-83
-162
-220
-133
89
332
492
544
512
418
285
151
58
18
13
19
21
24
41
76
109
103
23
-136
-351
-571
-750
-870
-944
-993
-1008
-933
-707
-315
196
735
1218
1603
1906
2150
2326
2369
2221
1912
1568
1315
1179
1090
973
841
773
820
947
1052
1048
923
731
553
429
333
202
21
-154
-249
-256
-248
-300
-411
-527
-613
-673
-729
-784
-828
-846
-830
-770
-682
-632
-692
-864
-1071
-1229
-1311
-1335
-1300
-1190
-1026
-864
-738
-613
-449
-290
-250
-397
-660
-894
-1009
-1030
-1031
-1053
-1094
-1135
-1178
-1222
-1265
-1321
-1415
-1562
-1719
-1809
-1786
-1675
-1551
-1473
-1446
-1444
-1453
-1496
-1601
-1761
-1924
-2023
-2019
-1935
-1840
-1799
-1819
-1844
-1811
-1721
-1639
-1631
-1685
-1724
-1673
-1531
-1354
-1190
-1044
-889
-706
-497
-277
-73
86
192
263
331
414
506
591
669
742
800
838
874
928
991
1033
1050
1072
1125
1180
1177
1108
1044
1056
1118
1142
1091
1044
1110
1287
1442
1447
1303
1131
1037
1007
946
782
543
329
231
257
338
392
390
362
352
365
368
338
298
285
297
286
228
180
228
389
565
631
558
446
407
458
525
543
531
555
653
794
907
928
850
715
583
473
342
131
-154
-410
-517
-439
-245
-36
140
288
415
519
601
664
688
646
566
545
651
823
911
846
712
636
616
528
292
1
-175
-161
-26
145
343
602
916
1242
1571
1926
2278
2502
2499
2312
2109
2023
2039
2051
1999
1918
1868
1871
1916
1990
2066
2079
1946
1659
1315
1057
947
927
890
797
707
704
808
959
1087
1180
1255
1304
1269
1101
825
533
306
143
-27
-268
-558
-788
-847
-710
-450
-177
44
204
299
303
203
36
-150
-357
-640
-1005
-1339
-1491
-1420
-1247
-1127
-1084
-1019
-851
-634
-513
-572
-764
-973
-1134
-1281
-1478
-1718
-1912
-1952
-1820
-1608
-1453
-1430
-1518
-1658
-1817
-2000
-2221
-2466
-2683
-2793
-2719
-2450
-2087
-1803
-1733
-1864
-2074
-2251
-2381
-2522
-2685
-2800
-2781
-2610
-2324
-1962
-1557
-1175
-918
-863
-984
-1171
-1329
-1451
-1567
-1684
-1762
-1772
-1718
-1620
-1487
-1345
-1261
-1301
-1442
-1571
-1598
-1561
-1591
-1770
-2027
-2206
-2212
-2084
-1941
-1867
-1844
-1792
-1655
-1444
-1226
-1082
-1043
-1068
-1079
-1029
-934
-846
-814
-854
-960
-1115
-1275
-1364
-1308
-1099
-794
-460
-116
254
644
989
1207
1255
1110
776
332
-34
-121
95
431
702
963
1468
2327
3257
3741
3474
2631
1707
1116
935
986
1077
1170
1378
1854
2641
3596
4440
4895
4865
4477
3985
3599
3386
3292
3228
3159
3116
3156
3311
3542
3745
3806
3690
3495
3371
3398
3518
3603
3592
3535
3514
3534
3544
3530
3547
3666
3899
4205
4534
4847
5085
5173
5085
4876
4636
4417
4209
3989
3757
3540
3362
3235
3140
3036
2881
2662
2388
2039
1574
993
412
-9
-228
-370
-593
-901
-1133
-1152
-1011
-920
-1053
-1407
-1835
-2186
-2397
-2499
-2557
-2602
-2602
-2497
-2263
-1955
-1683
-1528
-1504
-1571
-1692
-1863
-2078
-2305
-2488
-2594
-2650
-2717
-2833
-2975
-3076
-3096
-3068
-3062
-3109
-3175
-3195
-3161
-3134
-3168
-3254
-3343
-3417
-3511
-3647
-3773
-3805
-3734
-3660
-3687
-3801
-3882
-3850
-3755
-3717
-3776
-3855
-3857
-3770
-3662
-3589
-3552
-3532
-3527
-3534
-3523
-3462
-3361
-3268
-3215
-3177
-3114
-3014
-2904
-2805
-2698
-2558
-2392
-2243
-2142
-2078
-2010
-1914
-1804
-1720
-1687
-1686
-1674
-1612
-1491
-1338
-1195
-1097
-1061
-1074
-1116
-1174
-1243
-1316
-1367
-1357
-1268
-1120
-955
-793
-633
-487
-396
-398
-480
-571
-609
-600
-602
-641
-672
-642
-560
-497
-501
-538
-541
-495
-450
-447
-460
-430
-339
-228
-152
-129
-153
-214
-301
-404
-503
-591
-677
-746
-737
-569
-240
145
432
536
526
552
693
869
907
726
429
221
230
424
683
909
1065
1141
1136
1082
1029
979
837
505
37
-354
-481
-362
-176
-72
-31
41
162
250
248
204
190
187
101
-107
-373
-614
-822
-1033
-1216
-1256
-1079
-741
-367
-3
424
998
1686
2337
2798
3009
3013
2895
2718
2524
2345
2207
2120
2082
2100
2191
2342
2474
2453
2207
1830
1526
1427
1468
1460
1303
1099
1043
1201
1431
1539
1458
1284
1155
1126
1153
1153
1074
915
728
589
534
531
507
420
299
190
104
9
-103
-193
-213
-164
-99
-84
-148
-267
-372
-397
-333
-253
-273
-437
-661
-817
-864
-883
-950
-1010
-937
-712
-495
-482
-701
-992
-1194
-1315
-1489
-1786
-2113
-2296
-2252
-2032
-1746
-1477
-1266
-1130
-1063
-1029
-998
-981
-1026
-1151
-1306
-1399
-1364
-1218
-1033
-876
-766
-686
-615
-552
-510
-493
-474
-416
-307
-179
-83
-38
-32
-54
-109
-197
-277
-311
-316
-356
-445
-467
-270
128
493
568
329
8
-156
-170
-216
-407
-649
-758
-662
-451
-237
-45
141
291
333
245
93
-45
-146
-231
-293
-278
-176
-54
11
29
96
270
480
596
573
511
522
595
607
487
308
213
238
280
243
172
212
444
773
1007
1045
941
813
718
631
534
468
477
543
598
622
658
720
751
673
490
289
129
-12
-146
-198
-71
211
486
614
621
632
690
701
566
320
84
-68
-154
-194
-173
-99
-66
-162
-341
-449
-427
-408
-561
-842
-975
-728
-164
431
851
1155
1532
2034
2505
2749
2739
2604
2459
2291
2021
1648
1290
1079
1028
1032
985
886
807
791
786
700
505
252
13
-192
-379
-551
-673
-705
-653
-560
-467
-391
-333
-290
-270
-288
-362
-495
-665
-816
-892
-866
-769
-658
-573
-515
-461
-382
-267
-134
-29
-10
-102
-262
-399
-455
-451
-472
-567
-683
-713
-596
-375
-167
-64
-69
-112
-136
-145
-189
-301
-462
-627
-757
-824
-803
-683
-504
-338
-211
-66
160
441
672
780
801
792
724
517
195
-74
-131
-20
44
-77
-294
-404
-328
-198
-203
-383
-613
-760
-800
-799
-809
-806
-748
-640
-525
-439
-365
-276
-192
-168
-216
-258
-195
-23
137
165
100
118
329
620
736
537
167
-71
-10
236
400
337
142
31
136
416
731
959
1046
1004
886
774
720
696
604
380
96
-98
-111
-2
102
139
147
171
199
204
220
297
403
416
256
3
-165
-150
-26
55
13
-103
-191
-188
-97
35
160
241
269
267
271
309
376
429
408
284
101
-60
-151
-196
-236
-256
-205
-77
59
137
179
247
347
402
333
165
-16
-159
-272
-373
-438
-448
-438
-476
-583
-713
-817
-901
-997
-1088
-1097
-937
-583
-75
526
1150
1706
2096
2279
2300
2249
2156
1977
1669
1294
1004
921
1016
1137
1150
1053
964
970
1038
1026
814
416
-23
-341
-480
-518
-582
-732
-913
-1013
-972
-837
-714
-658
-631
-561
-456
-426
-569
-858
-1154
-1340
-1424
-1494
-1585
-1618
-1481
-1165
-805
-567
-532
-642
-783
-880
-949
-1051
-1212
-1391
-1514
-1541
-1487
-1401
-1316
-1241
-1165
-1102
-1089
-1148
-1257
-1359
-1395
-1350
-1272
-1244
-1334
-1530
-1731
-1830
-1813
-1770
-1801
-1905
-1983
-1951
-1801
-1555
-1221
-828
-493
-369
-476
-631
-633
-495
-435
-623
-960
-1188
-1162
-975
-799
-694
-602
-488
-407
-409
-451
-446
-377
-309
-310
-369
-406
-367
-257
-136
-81
-145
-320
-537
-707
-777
-760
-681
-536
-313
-53
159
285
386
533
668
614
270
-236
-637
-797
-845
-1008
-1338
-1643
-1698
-1486
-1190
-1008
-971
-974
-916
-797
-686
-633
-624
-615
-584
-540
-510
-497
-476
-425
-347
-274
-235
-233
-243
-255
-273
-305
-331
-304
-201
-56
60
110
129
189
318
455
509
446
327
249
267
368
495
577
572
497
426
430
501
550
501
388
329
387
510
590
601
664
921
1368
1815
2014
1855
1443
1018
799
876
1199
1635
2040
2324
2482
2566
2583
2439
1987
1187
196
-707
-1300
-1543
-1532
-1367
-1082
-679
-203
250
583
725
633
310
-175
-679
-1044
-1199
-1187
-1110
-1038
-983
-945
-973
-1136
-1438
-1771
-1992
-2034
-1947
-1829
-1747
-1707
-1684
-1645
-1568
-1444
-1287
-1131
-1000
-903
-847
-845
-886
-911
-838
-653
-435
-280
-203
-135
-19
126
247
344
457
578
618
515
334
220
226
246
136
-95
-268
-221
15
239
294
218
188
310
498
560
394
106
-86
-64
82
164
98
-28
-76
-14
63
57
-23
-103
-156
-220
-293
-280
-73
291
634
788
760
687
666
648
530
292
35
-124
-152
-99
-25
46
124
229
373
519
575
457
194
-67
-202
-233
-278
-395
-501
-482
-331
-145
3
130
261
355
350
271
211
215
230
190
113
80
131
223
301
376
500
677
848
938
900
740
498
245
57
-42
-114
-244
-433
-574
-552
-377
-171
-53
-34
-42
-32
-28
-71
-154
-231
-259
-235
-157
-20
171
378
553
672
754
819
871
914
974
1067
1157
1187
1144
1089
1092
1140
1152
1074
951
879
889
945
998
1043
1095
1134
1120
1053
1000
1027
1104
1137
1070
955
889
895
895
798
611
420
296
237
222
282
476
815
1226
1611
1944
2262
2589
2882
3069
3115
3048
2930
2796
2656
2509
2364
2236
2105
1918
1639
1312
1048
914
849
710
430
112
-67
-56
16
-20
-195
-400
-531
-605
-703
-845
-955
-966
-909
-887
-965
-1109
-1225
-1261
-1249
-1247
-1264
-1253
-1165
-999
-824
-714
-685
-702
-727
-771
-878
-1056
-1247
-1362
-1358
-1273
-1194
-1187
-1252
-1334
-1386
-1418
-1490
-1639
-1801
-1833
-1644
-1302
-973
-758
-614
-454
-288
-218
-297
-450
-567
-619
-642
-632
-531
-326
-111
7
34
49
77
40
-133
-394
-613
-708
-702
-655
-595
-521
-442
-370
-310
-254
-208
-205
-273
-422
-633
-850
-992
-1001
-904
-810
-777
-723
-491
-32
505
903
1074
1121
1188
1299
1367
1335
1251
1199
1195
1186
1129
1057
1056
1175
1377
1569
1668
1673
1657
1680
1694
1580
1290
952
785
887
1137
1341
1446
1583
1903
2382
2825
3047
3028
2893
2778
2734
2723
2690
2639
2640
2759
2983
3207
3311
3232
3010
2747
2524
2359
2211
2044
1894
1854
1979
2185
2280
2124
1755
1327
954
649
401
236
176
158
83
-33
-45
160
504
774
848
806
819
964
1162
1299
1334
1288
1183
1020
821
618
414
170
-137
-458
-701
-810
-811
-757
-656
-475
-219
38
218
335
477
714
1006
1246
1358
1338
1226
1053
837
607
392
185
-56
-356
-683
-970
-1184
-1354
-1535
-1745
-1957
-2124
-2228
-2290
-2347
-2421
-2516
-2627
-2753
-2889
-3024
-3154
-3287
-3434
-3587
-3709
-3765
-3763
-3743
-3734
-3720
-3664
-3559
-3453
-3399
-3410
-3450
-3474
-3467
-3447
-3432
-3422
-3408
-3385
-3371
-3379
-3406
-3433
-3441
-3426
-3402
-3384
-3380
-3389
-3406
-3420
-3417
-3387
-3338
-3296
-3278
-3276
-3261
-3219
-3164
-3127
-3119
-3116
-3084
-3012
-2920
-2831
-2749
-2664
-2578
-2499
-2423
-2339
-2247
-2168
-2115
-2067
-1978
-1840
-1689
-1575
-1510
-1469
-1425
-1375
-1324
-1267
-1205
-1151
-1113
-1078
-1014
-909
-774
-628
-483
-357
-278
-243
-213
-156
-112
-167
-353
-591
-759
-825
-862
-939
-1029
-1045
-957
-820
-699
-592
-455
-295
-194
-214
-310
-370
-338
-268
-260
-328
-372
-291
-93
110
231
293
380
523
649
671
590
485
426
405
370
300
241
243
309
393
446
455
432
386
310
194
52
-96
-228
-324
-368
-366
-336
-292
-225
-97
114
363
573
715
838
1000
1182
1306
1339
1354
1453
1642
1800
1801
1647
1459
1366
1381
1411
1355
1199
1037
990
1097
1284
1437
1502
1511
1502
1452
1319
1124
944
813
676
501
393
534
983
1583
2108
2491
2847
3269
3678
3902
3867
3656
3399
3148
2877
2569
2244
1926
1629
1385
1241
1201
1185
1081
864
624
471
405
309
93
-194
-398
-422
-350
-357
-516
-709
-772
-687
-597
-642
-792
-897
-866
-763
-712
-747
-783
-739
-643
-593
-642
-741
-788
-736
-628
-544
-504
-447
-311
-130
-31
-103
-319
-570
-794
-1011
-1229
-1371
-1349
-1187
-1037
-1014
-1077
-1095
-1017
-940
-978
-1131
-1295
-1369
-1328
-1197
-999
-765
-563
-477
-533
-671
-807
-916
-1049
-1257
-1508
-1688
-1688
-1504
-1250
-1068
-1031
-1098
-1165
-1175
-1139
-1104
-1097
-1085
-1017
-853
-612
-367
-190
-109
-79
-25
93
260
443
636
866
1124
1330
1398
1310
1137
950
769
589
458
460
617
857
1085
1278
1461
1600
1588
1361
999
666
450
310
186
103
128
254
389
465
511
588
674
686
598
503
513
634
762
807
779
760
812
934
1078
1168
1125
922
648
476
507
662
750
678
553
555
740
990
1169
1268
1342
1387
1323
1120
880
735
711
723
689
628
601
634
703
785
858
865
733
463
171
2
-13
30
31
2
16
94
186
236
232
191
105
-41
-227
-416
-603
-798
-950
-920
-610
-106
364
641
789
994
1338
1719
1979
2061
2023
1925
1782
1603
1425
1272
1117
940
783
718
746
769
696
554
451
429
408
270
-3
-294
-467
-483
-424
-405
-475
-569
-563
-386
-99
137
195
97
-21
-48
-4
-1
-104
-263
-364
-343
-228
-96
-9
23
29
44
68
60
-19
-145
-231
-228
-180
-187
-274
-354
-326
-210
-150
-262
-510
-739
-826
-783
-712
-700
-764
-869
-975
-1059
-1118
-1175
-1267
-1410
-1561
-1627
-1527
-1279
-1015
-870
-873
-920
-891
-777
-685
-709
-821
-899
-863
-746
-632
-545
-442
-301
-155
-45
43
147
261
318
280
211
216
310
380
306
100
-87
-125
-31
58
37
-47
-50
126
442
742
858
727
439
175
65
80
63
-110
-383
-558
-474
-175
137
284
249
131
16
-92
-233
-419
-623
-811
-945
-978
-880
-681
-460
-289
-181
-121
-126
-237
-448
-678
-852
-983
-1128
-1257
-1239
-979
-575
-262
-204
-354
-529
-616
-645
-719
-875
-1055
-1156
-1089
-825
-422
-29
197
191
36
-118
-184
-198
-253
-402
-597
-728
-695
-481
-172
99
224
176
27
-106
-141
-88
-38
-74
-184
-256
-194
-37
72
43
-96
-273
-466
-665
-819
-876
-889
-993
-1233
-1450
-1411
-1059
-558
-111
214
464
675
842
976
1095
1155
1083
891
725
731
869
960
907
793
742
751
702
535
323
178
124
96
24
-110
-276
-434
-530
-547
-531
-574
-714
-890
-996
-992
-944
-969
-1105
-1264
-1292
-1161
-1066
-1269
-1802
-2347
-2492
-2155
-1686
-1506
-1664
-1808
-1590
-1026
-423
-29
160
272
341
305
148
-37
-167
-277
-451
-682
-841
-807
-591
-306
-57
130
259
273
105
-211
-525
-707
-763
-854
-1269
-1525
-1688
-1745
-1736
-1717
-1750
-1851
-1934
-1845
-1514
-1040
-598
-265
24
323
551
567
357
69
-146
-282
-429
-606
-714
-661
-482
-315
-257
-275
-280
-252
-256
-345
-485
-576
-557
-478
-439
-475
-539
-576
-586
-610
-661
-706
-718
-711
-717
-739
-743
-698
-609
-519
-491
-552
-663
-722
-640
-423
-173
4
88
129
172
213
212
119
-107
-469
-886
-1207
-1321
-1274
-1223
-1263
-1318
-1225
-932
-571
-330
-285
-363
-444
-472
-469
-472
-492
-506
-493
-460
-429
-420
-424
-415
-370
-310
-280
-310
-383
-447
-464
-454
-471
-542
-631
-672
-641
-566
-483
-408
-368
-431
-656
-1000
-1295
-1371
-1204
-928
-707
-587
-484
-284
39
395
653
744
718
707
828
1084
1395
1696
2002
2360
2748
3074
3262
3334
3367
3388
3352
3219
3021
2841
2732
2686
2674
2683
2689
2628
2451
2213
2072
2144
2365
2527
2475
2248
2004
1824
1648
1386
1036
679
374
124
-58
-123
-63
28
35
-49
-105
-40
79
104
-11
-151
-178
-101
-48
-91
-163
-145
-28
69
28
-146
-348
-481
-517
-479
-398
-317
-304
-406
-609
-832
-995
-1084
-1142
-1201
-1231
-1171
-998
-751
-491
-264
-89
33
97
107
63
-13
-77
-88
-49
-17
-40
-100
-123
-48
113
307
497
672
799
816
711
575
523
549
500
231
-219
-644
-865
-874
-808
-807
-943
-1231
-1644
-2080
-2361
-2347
-2059
-1657
-1282
-915
-429
250
1024
1681
2025
1994
1680
1266
927
742
678
646
587
522
502
544
617
678
706
693
637
537
416
316
270
269
279
276
260
230
158
17
-180
-354
-419
-363
-268
-229
-251
-247
-140
49
232
351
435
541
670
777
845
907
994
1087
1144
1160
1174
1212
1250
1249
1206
1143
1077
1009
946
893
829
709
531
369
309
334
321
172
-65
-248
-323
-402
-609
-896
-1076
-1025
-838
-715
-717
-701
-513
-191
58
76
-104
-343
-549
-723
-864
-914
-799
-517
-131
300
760
1251
1757
2225
2571
2682
2489
2070
1647
1444
1484
1581
1546
1395
1311
1417
1636
1763
1655
1326
898
494
199
57
57
128
185
191
172
163
155
102
-44
-282
-553
-751
-767
-568
-220
140
410
592
764
978
1180
1261
1154
916
682
555
525
511
453
359
289
275
301
329
332
300
215
57
-177
-448
-691
-857
-968
-1103
-1332
-1625
-1852
-1888
-1738
-1531
-1379
-1251
-1010
-582
-35
500
957
1354
1688
1902
1957
1910
1861
1856
1865
1859
1877
1963
2087
2176
2192
2169
2145
2121
2083
2054
2066
2097
2065
1925
1719
1537
1407
1283
1127
974
901
968
1198
1581
2038
2368
2313
1781
985
314
-2
-86
-230
-545
-831
-812
-446
36
371
481
429
258
-44
-441
-813
-1048
-1171
-1288
-1443
-1565
-1585
-1545
-1535
-1563
-1547
-1446
-1348
-1394
-1602
-1829
-1931
-1937
-2024
-2309
-2698
-2934
-2836
-2449
-1992
-1651
-1441
-1252
-1022
-811
-740
-849
-1056
-1250
-1377
-1442
-1458
-1419
-1331
-1241
-1192
-1190
-1205
-1228
-1278
-1369
-1470
-1535
-1560
-1582
-1612
-1624
-1599
-1600
-1737
-2051
-2431
-2688
-2721
-2582
-2399
-2231
-2022
-1699
-1280
-883
-633
-564
-618
-733
-898
-1123
-1371
-1565
-1664
-1704
-1732
-1711
-1553
-1236
-856
-531
-273
5
359
722
974
1068
1066
1039
995
904
760
597
447
318
207
116
42
-26
-114
-234
-381
-535
-655
-705
-683
-637
-631
-687
-777
-866
-944
-1021
-1109
-1206
-1301
-1379
-1417
-1404
-1360
-1320
-1305
-1320
-1380
-1509
-1697
-1875
-1962
-1940
-1867
-1807
-1768
-1727
-1690
-1682
-1702
-1702
-1664
-1627
-1633
-1651
-1600
-1446
-1253
-1104
-1005
-892
-737
-598
-546
-580
-629
-643
-627
-618
-627
-629
-608
-559
-487
-406
-356
-391
-524
-696
-819
-864
-892
-982
-1126
-1208
-1107
-820
-462
-167
16
114
170
214
284
409
542
548
330
-3
-199
-108
155
327
298
224
324
629
967
1179
1274
1357
1464
1527
1496
1440
1487
1677
1914
2067
2095
2073
2096
2180
2258
2242
2087
1819
1524
1331
1339
1539
1781
1878
1781
1648
1675
1860
1961
1745
1255
795
625
711
798
688
435
239
218
312
385
374
305
215
108
-23
-155
-270
-381
-512
-651
-750
-774
-749
-737
-766
-802
-792
-733
-675
-669
-714
-760
-760
-709
-645
-609
-618
-656
-705
-756
-805
-835
-826
-771
-681
-578
-465
-341
-201
-54
66
125
104
21
-76
-143
-172
-190
-232
-305
-382
-440
-490
-563
-657
-720
-682
-519
-284
-50
173
450
821
1221
1502
1570
1472
1341
1267
1231
1176
1074
934
760
549
317
114
-27
-152
-355
-671
-1016
-1248
-1286
-1178
-1046
-990
-1019
-1067
-1060
-987
-924
-975
-1170
-1424
-1597
-1623
-1572
-1566
-1646
-1747
-1786
-1739
-1611
-1384
-1037
-640
-351
-291
-408
-530
-550
-532
-614
-837
-1073
-1137
-957
-627
-327
-167
-118
-83
-7
68
70
-7
-88
-96
-29
74
202
377
577
724
739
627
471
330
195
34
-141
-269
-312
-286
-230
-177
-156
-185
-258
-317
-293
-205
-159
-247
-435
-585
-620
-601
-620
-664
-628
-466
-292
-257
-354
-417
-329
-181
-168
-358
-605
-718
-654
-532
-467
-453
-409
-296
-155
-48
-6
-22
-78
-158
-244
-311
-340
-323
-270
-223
-219
-249
-248
-153
4
104
53
-114
-265
-312
-294
-320
-447
-626
-756
-778
-697
-564
-426
-305
-205
-108
-7
84
139
143
97
13
-99
-226
-335
-371
-289
-77
211
475
614
602
511
456
488
531
468
267
38
-64
9
169
300
379
462
577
667
663
594
581
707
903
1009
953
849
879
1088
1325
1415
1339
1227
1188
1199
1191
1183
1274
1462
1585
1481
1199
968
920
923
745
370
68
109
472
897
1202
1468
1882
2464
3017
3349
3456
3456
3425
3331
3142
2913
2721
2559
2358
2124
1962
2207
2327
2233
1971
1728
1630
1617
1512
1212
782
399
183
110
72
10
-30
25
167
318
417
470
484
408
185
-143
-436
-597
-655
-696
-729
-671
-489
-276
-167
-182
-213
-165
-79
-78
-218
-414
-515
-457
-299
-162
-113
-108
-58
61
176
206
156
108
112
141
153
153
181
240
277
247
158
39
-101
-266
-424
-529
-596
-684
-805
-863
-765
-542
-338
-249
-222
-146
-30
-11
-186
-476
-703
-780
-784
-829
-915
-944
-856
-706
-581
-497
-409
-307
-259
-337
-522
-705
-804
-849
-931
-1094
-1280
-1387
-1357
-1214
-1031
-876
-785
-751
-746
-749
-765
-813
-892
-977
-1047
-1113
-1183
-1204
-1080
-787
-464
-334
-498
-807
-1000
-966
-846
-858
-1047
-1242
-1254
-1072
-846
-706
-654
-626
-598
-594
-626
-662
-666
-646
-629
-608
-553
-440
-298
-175
-92
-40
-17
-39
-113
-197
-229
-187
-125
-116
-174
-226
-194
-79
25
19
-104
-261
-366
-411
-452
-539
-659
-767
-812
-771
-652
-490
-335
-241
-223
-252
-271
-239
-176
-145
-183
-246
-225
-58
172
290
201
-13
-178
-223
-228
-286
-362
-307
-18
463
1009
1520
1960
2319
2578
2713
2705
2550
2264
1907
1571
1323
1158
1036
949
922
950
962
883
704
481
257
23
-234
-461
-565
-504
-340
-180
-92
-68
-87
-151
-274
-443
-622
-790
-940
-1051
-1070
-965
-776
-602
-511
-505
-553
-647
-811
-1042
-1293
-1499
-1628
-1685
-1683
-1635
-1553
-1470
-1415
-1398
-1409
-1431
-1453
-1468
-1468
-1453
-1428
-1391
-1341
-1277
-1206
-1128
-1052
-999
-1005
-1080
-1167
-1180
-1097
-1006
-1018
-1139
-1236
-1171
-953
-731
-633
-637
-620
-509
-369
-318
-372
-439
-428
-354
-293
-267
-215
-78
113
276
369
414
441
422
304
84
-152
-284
-262
-173
-173
-329
-498
-403
93
796
1305
1387
1196
1086
1198
1321
1145
625
14
-413
-611
-733
-896
-1050
-1071
-920
-692
-548
-585
-761
-931
-969
-888
-834
-934
-1146
-1266
-1121
-741
-347
-133
-108
-125
-55
83
183
194
178
209
261
240
138
77
186
443
682
763
721
704
801
951
1031
986
873
790
795
888
1022
1136
1182
1153
1096
1084
1145
1245
1315
1321
1300
1326
1449
1651
1862
2018
2097
2111
2074
1997
1897
1809
1754
1722
1692
1667
1677
1740
1837
1917
1937
1878
1734
1507
1222
929
668
469
346
326
440
685
1021
1403
1805
2206
2559
2796
2879
2840
2760
2700
2647
2537
2337
2088
1881
1767
1711
1643
1528
1397
1286
1187
1069
932
821
774
775
773
737
685
654
661
691
713
702
654
589
531
498
492
519
591
710
839
918
921
879
826
742
566
294
14
-170
-245
-274
-303
-295
-200
-57
20
-28
-133
-188
-182
-194
-268
-340
-323
-247
-252
-417
-645
-762
-714
-628
-667
-849
-1028
-1055
-917
-724
-592
-551
-559
-570
-573
-580
-598
-615
-628
-651
-699
-756
-774
-724
-621
-512
-427
-361
-311
-302
-353
-430
-461
-416
-351
-344
-395
-414
-319
-135
37
114
106
75
62
59
43
24
25
67
146
233
290
292
241
174
129
114
104
71
15
-35
-50
-28
-11
-49
-154
-286
-389
-444
-489
-567
-672
-755
-782
-776
-778
-807
-841
-854
-847
-834
-826
-837
-882
-962
-1043
-1083
-1075
-1071
-1126
-1236
-1341
-1393
-1397
-1383
-1371
-1345
-1297
-1232
-1137
-981
-753
-491
-269
-133
-65
-22
10
0
-73
-176
-247
-243
-176
-77
42
194
379
555
675
726
744
769
799
809
783
755
776
862
985
1096
1159
1157
1098
1007
919
851
786
699
619
628
810
1155
1571
1973
2353
2757
3190
3579
3818
3862
3751
3569
3402
3307
3290
3298
3253
3113
2926
2797
2777
2788
2671
2322
1801
1281
890
612
320
-60
-465
-744
-819
-747
-646
-573
-497
-391
-300
-307
-448
-671
-901
-1105
-1294
-1473
-1622
-1718
-1770
-1803
-1822
-1808
-1761
-1724
-1750
-1826
-1876
-1829
-1683
-1502
-1337
-1186
-1028
-873
-760
-706
-684
-673
-682
-735
-811
-858
-860
-862
-922
-1027
-1098
-1077
-992
-921
-911
-941
-984
-1055
-1190
-1384
-1585
-1749
-1887
-2040
-2207
-2325
-2334
-2242
-2110
-1987
-1885
-1808
-1778
-1802
-1835
-1803
-1688
-1555
-1475
-1455
-1439
-1390
-1332
-1303
-1303
-1299
-1266
-1197
-1077
-884
-634
-393
-219
-114
-45
-19
-76
-213
-340
-369
-314
-260
-237
-164
42
324
499
436
180
-114
-345
-540
-767
-1007
-1154
-1124
-948
-736
-569
-441
-320
-239
-300
-556
-926
-1242
-1404
-1451
-1492
-1559
-1575
-1456
-1219
-975
-824
-786
-829
-924
-1068
-1251
-1447
-1620
-1747
-1822
-1846
-1828
-1774
-1692
-1593
-1497
-1428
-1399
-1411
-1454
-1519
-1591
-1646
-1656
-1612
-1532
-1450
-1400
-1395
-1429
-1479
-1521
-1553
-1595
-1668
-1751
-1785
-1720
-1570
-1408
-1307
-1284
-1298
-1301
-1291
-1307
-1380
-1491
-1596
-1673
-1739
-1825
-1929
-2023
-2091
-2149
-2202
-2199
-2061
-1766
-1388
-1027
-713
-388
-1
404
720
869
858
751
615
495
405
324
195
-18
-261
-410
-385
-255
-179
-251
-414
-551
-610
-629
-655
-700
-773
-908
-1102
-1248
-1210
-973
-691
-531
-495
-443
-280
-67
65
75
19
-70
-216
-412
-564
-560
-397
-183
5
186
403
638
825
947
1052
1160
1207
1128
957
802
730
699
627
483
313
177
105
96
132
183
221
231
203
136
48
-9
16
93
110
-3
-156
-150
108
472
680
596
322
65
-67
-129
-235
-434
-651
-753
-667
-440
-194
-6
162
385
647
845
920
954
1062
1232
1330
1290
1221
1286
1485
1634
1586
1392
1228
1178
1148
1012
780
600
589
706
803
796
755
802
952
1081
1069
937
824
821
864
831
715
645
736
936
1082
1068
946
838
787
725
573
351
148
20
-48
-101
-135
-109
-16
89
134
116
83
67
32
-85
-291
-509
-631
-600
-438
-208
37
268
476
652
783
850
841
748
577
352
136
16
46
207
412
576
663
688
678
632
535
378
180
-18
-154
-173
-70
99
244
288
206
32
-153
-266
-284
-279
-355
-510
-602
-481
-159
175
333
289
140
-32
-207
-353
-383
-245
-7
210
380
606
968
1399
1734
1863
1803
1644
1483
1387
1361
1333
1189
902
608
481
535
601
514
294
90
-6
-48
-108
-178
-202
-196
-244
-379
-510
-522
-405
-266
-204
-216
-228
-184
-106
-53
-54
-93
-140
-171
-162
-77
101
327
508
568
518
464
501
622
708
636
397
122
-25
5
96
70
-116
-312
-313
-103
89
27
-257
-481
-423
-187
-97
-338
-754
-1010
-958
-767
-723
-930
-1228
-1381
-1299
-1084
-905
-854
-914
-1013
-1102
-1157
-1179
-1181
-1183
-1202
-1226
-1226
-1187
-1114
-1017
-893
-739
-596
-538
-600
-721
-788
-737
-611
-501
-441
-398
-341
-286
-262
-264
-263
-265
-307
-387
-423
-326
-117
71
101
-41
-242
-379
-412
-386
-360
-348
-320
-243
-124
-21
-1
-90
-241
-377
-464
-531
-617
-696
-682
-528
-285
-66
53
103
161
259
342
332
224
103
89
219
410
524
490
373
302
339
420
445
393
341
367
480
644
825
996
1112
1143
1150
1254
1505
1764
1793
1489
1008
645
556
659
757
744
672
662
780
1003
1246
1406
1411
1289
1181
1254
1548
1933
2225
2339
2313
2188
1964
1670
1430
1347
1361
1302
1100
898
875
1001
1066
931
683
478
338
205
150
377
943
1605
2053
2246
2408
2683
2905
2800
2350
1841
1535
1420
1326
1204
1179
1322
1493
1453
1131
682
306
70
-76
-174
-211
-169
-82
-2
60
131
216
266
231
120
-6
-93
-131
-133
-91
9
151
275
333
332
309
261
143
-35
-174
-183
-113
-114
-238
-356
-324
-208
-245
-538
-881
-976
-788
-584
-607
-786
-859
-707
-494
-444
-592
-778
-859
-829
-775
-764
-814
-905
-995
-1031
-994
-940
-966
-1126
-1383
-1642
-1817
-1879
-1854
-1806
-1786
-1778
-1699
-1489
-1201
-994
-994
-1169
-1362
-1453
-1472
-1529
-1656
-1772
-1781
-1669
-1476
-1210
-872
-542
-372
-437
-615
-697
-629
-562
-663
-891
-1034
-957
-754
-630
-664
-758
-790
-758
-749
-809
-887
-908
-862
-803
-771
-758
-741
-738
-795
-916
-1045
-1117
-1133
-1159
-1241
-1351
-1411
-1368
-1241
-1104
-1025
-1042
-1127
-1181
-1095
-861
-600
-463
-478
-536
-532
-497
-540
-688
-835
-875
-825
-778
-761
-700
-543
-351
-232
-208
-197
-154
-140
-223
-356
-404
-324
-220
-218
-307
-359
-298
-198
-192
-320
-472
-507
-390
-209
-87
-60
-68
-59
-73
-195
-418
-598
-597
-447
-306
-245
-141
151
554
801
719
430
196
110
14
-267
-679
-983
-985
-703
-285
152
583
1030
1505
1980
2391
2637
2622
2361
2018
1802
1805
1927
1982
1877
1693
1592
1660
1823
1916
1808
1491
1085
756
603
586
565
432
223
71
61
128
132
6
-193
-347
-403
-391
-369
-364
-366
-361
-357
-370
-403
-440
-470
-492
-502
-491
-443
-365
-301
-301
-374
-476
-551
-576
-563
-530
-489
-458
-460
-493
-517
-508
-505
-583
-752
-911
-949
-867
-788
-803
-847
-769
-553
-393
-474
-705
-811
-695
-574
-659
-828
-780
-518
-417
-637
-670
211
1995
3656
4109
3322
2259
1726
1514
796
-816
-2839
-4459
-5261
-5363
-5038
-4460
-3771
-3156
-2753
-2551
-2460
-2464
-2633
-2984
-3405
-3736
-3882
-3823
-3583
-3226
-2873
-2643
-2595
-2707
-2905
-3104
-3218
-3163
-2905
-2500
-2099
-1866
-1872
-2034
-2177
-2162
-1983
-1736
-1518
-1337
-1133
-870
-571
-296
-80
80
190
246
252
234
224
226
232
254
328
466
624
744
826
920
1042
1135
1129
1043
982
1012
1085
1104
1051
1023
1121
1324
1513
1594
1569
1506
1446
1371
1262
1142
1054
1004
948
860
786
805
937
1108
1214
1223
1208
1264
1414
1597
1752
1866
1969
2081
2175
2204
2153
2057
1976
1932
1895
1829
1762
1758
1838
1921
1904
1777
1636
1563
1528
1449
1330
1290
1433
1721
2022
2272
2526
2854
3219
3487
3569
3495
3359
3211
3026
2760
2429
2104
1844
1663
1543
1463
1409
1366
1319
1275
1262
1270
1231
1070
801
544
404
356
290
166
93
198
456
698
784
730
645
580
491
332
138
-7
-64
-55
-13
52
131
204
255
287
309
299
227
111
19
-1
30
55
52
48
65
85
91
110
189
324
448
501
478
404
282
94
-146
-380
-558
-696
-839
-990
-1094
-1104
-1035
-958
-929
-958
-1023
-1097
-1147
-1149
-1112
-1076
-1085
-1138
-1183
-1181
-1144
-1110
-1093
-1068
-1009
-925
-840
-758
-654
-515
-378
-316
-372
-511
-657
-768
-877
-1026
-1201
-1329
-1364
-1339
-1315
-1303
-1264
-1194
-1157
-1215
-1330
-1389
-1340
-1276
-1350
-1616
-1972
-2258
-2389
-2408
-2419
-2498
-2634
-2735
-2693
-2472
-2160
-1908
-1802
-1794
-1768
-1665
-1523
-1427
-1407
-1423
-1423
-1372
-1261
-1101
-935
-812
-743
-686
-584
-441
-314
-244
-203
-147
-86
-81
-164
-281
-347
-319
-211
-46
157
371
571
787
1092
1502
1877
2006
1816
1480
1253
1233
1303
1287
1139
969
930
1107
1482
1939
2299
2429
2367
2299
2379
2563
2666
2574
2366
2208
2182
2241
2308
2339
2280
2057
1668
1264
1063
1130
1292
1354
1337
1490
2009
2792
3522
3977
4223
4488
4899
5353
5661
5765
5784
5881
6084
6266
6300
6195
6098
6139
6285
6358
6212
5870
5485
5167
4888
4541
4064
3498
2922
2394
1960
1677
1589
1657
1738
1705
1556
1411
1381
1431
1409
1197
837
476
242
148
138
178
263
368
438
438
403
399
431
417
253
-81
-488
-822
-990
-1016
-1013
-1091
-1261
-1442
-1548
-1587
-1640
-1771
-1964
-2159
-2331
-2492
-2633
-2714
-2708
-2662
-2660
-2744
-2879
-3006
-3102
-3185
-3266
-3323
-3316
-3225
-3075
-2922
-2824
-2799
-2807
-2787
-2733
-2713
-2808
-2999
-3160
-3147
-2945
-2694
-2573
-2634
-2764
-2800
-2696
-2559
-2535
-2653
-2797
-2815
-2666
-2434
-2239
-2134
-2093
-2068
-2038
-2009
-1998
-2013
-2038
-2031
-1945
-1774
-1567
-1398
-1297
-1239
-1198
-1191
-1257
-1397
-1540
-1607
-1574
-1488
-1410
-1360
-1310
-1234
-1141
-1067
-1047
-1080
-1129
-1154
-1149
-1143
-1169
-1221
-1255
-1229
-1150
-1065
-1021
-1022
-1036
-1024
-972
-906
-864
-871
-909
-935
-924
-902
-912
-961
-995
-957
-843
-711
-615
-554
-493
-430
-414
-488
-642
-822
-994
-1161
-1327
-1447
-1473
-1396
-1271
-1154
-1049
-938
-820
-713
-612
-487
-335
-209
-170
-215
-279
-307
-326
-401
-534
-673
-767
-808
-793
-701
-527
-330
-210
-208
-269
-322
-375
-485
-646
-758
-710
-496
-220
28
254
542
926
1317
1566
1603
1503
1411
1413
1462
1453
1345
1203
1113
1083
1061
1012
955
914
853
694
424
140
-40
-90
-86
-109
-157
-161
-76
56
140
127
41
-46
-84
-69
-15
80
244
502
833
1150
1343
1359
1239
1087
991
964
965
968
999
1112
1333
1609
1827
1891
1778
1550
1288
1020
732
441
243
243
427
637
700
592
440
382
411
399
244
-19
-258
-367
-353
-298
-285
-355
-503
-681
-833
-901
-858
-729
-595
-551
-624
-743
-792
-730
-638
-636
-770
-965
-1080
-1015
-769
-449
-229
-258
-529
-851
-995
-921
-829
-944
-1248
-1480
-1408
-1086
-795
-747
-896
-1044
-1085
-1100
-1220
-1440
-1614
-1608
-1426
-1189
-1004
-882
-761
-604
-449
-369
-400
-515
-665
-824
-973
-1078
-1101
-1042
-956
-921
-961
-1038
-1083
-1049
-943
-802
-685
-643
-686
-756
-762
-673
-566
-565
-698
-852
-892
-806
-712
-713
-766
-744
-599
-429
-348
-355
-349
-278
-202
-199
-234
-193
-36
131
174
95
31
86
202
238
147
42
59
201
352
420
430
474
585
700
742
706
660
655
684
689
640
562
532
623
822
1011
1071
994
898
908
1020
1096
996
696
294
-74
-294
-306
-130
135
388
627
951
1431
2005
2511
2826
2950
2932
2776
2485
2150
1904
1783
1667
1413
1051
774
729
855
935
828
562
264
18
-181
-368
-560
-750
-936
-1106
-1234
-1304
-1334
-1359
-1382
-1363
-1259
-1090
-935
-852
-839
-850
-851
-844
-838
-833
-854
-948
-1116
-1279
-1342
-1304
-1276
-1343
-1446
-1439
-1273
-1075
-1019
-1134
-1284
-1316
-1225
-1147
-1232
-1498
-1792
-1887
-1668
-1262
-968
-986
-1215
-1348
-1206
-935
-847
-1077
-1450
-1697
-1723
-1644
-1580
-1526
-1411
-1224
-1044
-938
-898
-875
-836
-784
-739
-714
-724
-746
-710
-551
-301
-90
-26
-73
-86
23
177
238
181
130
201
365
479
466
414
466
658
872
956
875
740
701
813
1003
1161
1250
1321
1417
1500
1493
1387
1281
1257
1272
1200
995
780
724
852
1029
1115
1108
1104
1142
1138
1012
814
682
667
651
499
251
127
289
657
978
1093
1069
1056
1086
1050
876
634
438
288
83
-210
-462
-529
-408
-228
-96
10
155
330
478
609
814
1133
1440
1545
1388
1114
915
844
784
609
322
61
-27
98
355
615
781
845
871
933
1042
1144
1182
1159
1129
1125
1102
997
814
622
478
368
235
48
-150
-305
-397
-444
-472
-498
-533
-562
-532
-371
-50
373
816
1254
1721
2204
2607
2833
2887
2849
2745
2489
2012
1397
841
473
263
131
61
100
239
372
407
351
264
180
80
-61
-238
-441
-663
-872
-1010
-1058
-1096
-1228
-1467
-1717
-1871
-1910
-1883
-1833
-1764
-1679
-1598
-1525
-1431
-1309
-1207
-1205
-1338
-1561
-1791
-1957
-2023
-1968
-1797
-1563
-1365
-1277
-1263
-1183
-925
-541
-256
-274
-573
-920
-1106
-1145
-1228
-1487
-1848
-2110
-2138
-1953
-1666
-1387
-1186
-1108
-1152
-1260
-1360
-1445
-1563
-1741
-1927
-2018
-1962
-1787
-1557
-1318
-1100
-944
-893
-946
-1045
-1137
-1216
-1304
-1387
-1407
-1313
-1125
-911
-723
-591
-543
-613
-785
-977
-1099
-1150
-1213
-1323
-1383
-1255
-931
-577
-386
-376
-396
-313
-165
-110
-240
-482
-683
-764
-774
-796
-855
-909
-921
-901
-885
-881
-856
-780
-667
-558
-479
-427
-389
-373
-393
-451
-524
-595
-651
-677
-659
-604
-542
-514
-540
-614
-743
-948
-1208
-1432
-1530
-1497
-1436
-1439
-1458
-1340
-1000
-543
-189
-62
-93
-125
-74
14
68
84
129
227
323
355
323
291
295
293
214
61
-61
-59
26
68
5
-83
-95
-38
-28
-140
-299
-373
-327
-230
-141
-32
153
381
549
609
620
650
678
605
401
157
-2
-40
-13
41
151
364
673
1014
1333
1646
2002
2398
2757
3002
3088
3029
2873
2676
2487
2322
2135
1843
1444
1080
931
1014
1126
1050
789
547
459
441
327
85
-169
-358
-513
-609
-471
66
868
1502
1624
1311
961
844
800
449
-349
-1293
-1933
-2082
-1934
-1767
-1600
-1206
-462
409
1017
1188
1110
1027
923
552
-227
-1229
-2108
-2660
-2925
-3020
-3007
-2906
-2755
-2580
-2351
-2042
-1739
-1613
-1738
-2023
-2312
-2559
-2823
-3107
-3273
-3163
-2799
-2379
-2106
-2002
-1933
-1789
-1603
-1500
-1539
-1664
-1764
-1799
-1800
-1800
-1756
-1566
-1182
-692
-278
-87
-129
-278
-398
-465
-558
-749
-998
-1159
-1103
-838
-486
-192
-14
79
143
198
230
224
172
89
12
-10
58
190
326
414
463
515
584
629
603
529
496
572
734
877
910
842
752
707
685
604
419
179
-8
-74
-37
27
73
113
185
306
464
615
697
648
457
195
-4
-48
46
183
279
347
457
663
956
1269
1509
1606
1561
1452
1388
1416
1484
1498
1417
1307
1270
1345
1483
1594
1613
1541
1408
1242
1052
836
600
387
254
229
274
311
295
246
221
256
333
414
450
393
220
-31
-253
-337
-263
-115
9
82
150
254
377
484
569
652
754
874
1015
1197
1445
1765
2121
2453
2694
2810
2802
2711
2584
2443
2287
2113
1941
1791
1673
1602
1606
1688
1782
1772
1591
1314
1104
1049
1069
996
749
409
127
-14
-49
-47
-40
-2
113
344
705
1127
1445
1498
1265
899
583
358
121
-214
-585
-822
-810
-578
-252
59
293
424
442
358
221
93
11
-15
-7
8
28
96
264
509
723
790
708
597
569
609
594
432
176
-30
-100
-77
-68
-121
-173
-130
12
133
87
-139
-413
-594
-688
-841
-1155
-1546
-1824
-1898
-1841
-1775
-1727
-1643
-1521
-1463
-1576
-1845
-2127
-2280
-2272
-2187
-2148
-2204
-2262
-2139
-1723
-1122
-630
-491
-692
-973
-1071
-950
-786
-761
-887
-1012
-974
-734
-391
-76
129
199
130
-63
-313
-518
-616
-636
-652
-675
-619
-407
-95
151
216
148
95
150
284
419
532
662
844
1062
1273
1442
1539
1537
1434
1284
1179
1175
1217
1172
959
641
354
162
0
-212
-431
-496
-306
63
442
736
975
1199
1354
1349
1165
875
557
254
25
-32
139
452
722
826
810
803
866
941
931
802
593
378
238
247
424
691
915
1015
1040
1126
1357
1680
1962
2101
2082
1947
1732
1477
1248
1098
1015
939
872
955
1314
1841
2188
2058
1519
969
760
876
1018
955
778
774
1127
1739
2310
2569
2426
1984
1441
963
617
352
60
-312
-694
-920
-859
-556
-234
-121
-257
-477
-586
-548
-483
-524
-689
-894
-1066
-1193
-1307
-1439
-1599
-1786
-1956
-2025
-1935
-1744
-1606
-1644
-1852
-2105
-2290
-2383
-2419
-2431
-2439
-2484
-2600
-2754
-2844
-2792
-2647
-2547
-2573
-2663
-2697
-2626
-2507
-2420
-2390
-2385
-2378
-2372
-2362
-2311
-2207
-2080
-1995
-1983
-2015
-2059
-2121
-2245
-2449
-2691
-2886
-2968
-2943
-2882
-2849
-2852
-2844
-2786
-2696
-2647
-2698
-2833
-2967
-3017
-2966
-2866
-2777
-2709
-2623
-2489
-2327
-2187
-2085
-1992
-1858
-1682
-1528
-1460
-1487
-1539
-1537
-1476
-1423
-1439
-1486
-1447
-1250
-964
-737
-649
-648
-641
-630
-709
-933
-1224
-1431
-1482
-1428
-1346
-1247
-1088
-865
-648
-521
-513
-603
-754
-938
-1115
-1245
-1302
-1291
-1227
-1127
-1009
-896
-816
-786
-816
-897
-988
-1003
-869
-614
-371
-269
-320
-420
-485
-530
-623
-770
-901
-963
-985
-1030
-1093
-1077
-905
-630
-412
-377
-503
-648
-681
-601
-512
-513
-612
-725
-742
-604
-359
-133
-53
-148
-305
-352
-196
99
385
582
734
918
1139
1304
1319
1175
946
728
584
522
495
414
223
-25
-186
-162
-35
5
-130
-321
-351
-144
193
524
854
1268
1752
2166
2398
2502
2610
2744
2791
2665
2456
2336
2333
2316
2178
1979
1863
1852
1809
1618
1342
1165
1161
1208
1137
926
699
553
431
223
-54
-244
-220
-57
53
17
-64
-33
114
226
171
-22
-229
-383
-508
-620
-654
-554
-360
-169
-38
44
77
-10
-264
-632
-1006
-1350
-1730
-2171
-2554
-2719
-2639
-2455
-2323
-2255
-2178
-2070
-2010
-2070
-2201
-2290
-2283
-2218
-2158
-2098
-1979
-1783
-1565
-1416
-1383
-1426
-1458
-1416
-1316
-1230
-1213
-1245
-1256
-1203
-1132
-1114
-1147
-1143
-1036
-866
-737
-697
-670
-565
-409
-328
-396
-530
-573
-471
-302
-174
-97
-1
154
315
410
417
383
360
341
283
146
-41
-187
-207
-115
-30
-60
-176
-241
-159
-5
53
-63
-253
-371
-388
-400
-479
-588
-634
-579
-477
-404
-372
-344
-298
-258
-275
-369
-512
-648
-720
-683
-519
-264
-8
139
147
95
85
133
132
-15
-258
-413
-306
51
478
801
977
1073
1158
1224
1228
1161
1067
990
930
871
835
878
1034
1257
1435
1474
1361
1174
1015
931
887
818
698
577
537
602
703
755
734
704
720
758
745
648
523
444
403
341
213
24
-200
-428
-627
-741
-723
-594
-447
-359
-305
-170
132
575
1033
1381
1588
1722
1876
2067
2219
2235
2100
1885
1672
1480
1278
1069
900
812
762
656
438
128
-200
-474
-676
-853
-1090
-1419
-1748
-1897
-1766
-1455
-1183
-1072
-1051
-1005
-962
-1046
-1270
-1459
-1421
-1203
-1062
-1176
-1428
-1525
-1320
-965
-740
-767
-919
-983
-868
-647
-451
-350
-342
-402
-499
-592
-643
-649
-659
-721
-835
-920
-880
-702
-480
-335
-316
-346
-332
-279
-289
-437
-650
-774
-743
-632
-560
-553
-564
-569
-585
-584
-472
-217
63
190
126
20
29
141
219
160
-9
-195
-322
-351
-279
-145
-18
78
190
372
569
672
663
665
810
1054
1216
1193
1066
986
992
979
856
662
529
544
680
843
951
980
976
999
1047
1033
865
574
333
309
493
708
797
766
736
774
807
727
519
260
22
-192
-381
-497
-486
-375
-257
-193
-156
-89
-2
28
-43
-149
-179
-100
-6
-17
-149
-290
-310
-203
-91
-80
-111
-22
251
553
653
495
277
213
287
295
115
-118
-170
16
267
407
438
479
576
645
600
470
353
281
197
45
-160
-343
-432
-391
-243
-66
20
-44
-179
-218
-89
86
100
-119
-427
-622
-655
-666
-807
-1091
-1401
-1608
-1652
-1525
-1249
-881
-496
-135
233
656
1109
1502
1754
1862
1861
1759
1534
1210
875
588
326
44
-232
-412
-456
-442
-485
-608
-729
-780
-788
-827
-928
-1061
-1198
-1339
-1480
-1580
-1600
-1555
-1506
-1483
-1451
-1356
-1202
-1059
-1008
-1072
-1205
-1317
-1327
-1224
-1082
-1008
-1052
-1157
-1219
-1190
-1130
-1143
-1272
-1449
-1563
-1557
-1466
-1372
-1318
-1275
-1192
-1056
-909
-806
-771
-799
-885
-1026
-1204
-1380
-1524
-1630
-1694
-1681
-1532
-1235
-873
-570
-390
-306
-260
-247
-308
-455
-643
-822
-994
-1179
-1343
-1405
-1326
-1181
-1097
-1108
-1129
-1072
-962
-909
-962
-1050
-1065
-982
-862
-759
-665
-567
-498
-490
-502
-461
-356
-272
-284
-348
-347
-243
-115
-64
-96
-130
-113
-66
-28
0
31
34
-47
-236
-484
-707
-845
-891
-884
-885
-925
-963
-898
-669
-341
-85
-29
-150
-315
-406
-411
-399
-422
-460
-447
-330
-121
107
268
316
260
165
98
91
125
155
161
192
317
526
701
710
536
293
114
42
47
95
195
364
603
897
1214
1476
1579
1490
1296
1142
1089
1074
1013
899
799
766
794
852
897
892
813
707
670
750
868
904
837
759
761
805
780
619
354
60
-216
-454
-637
-765
-859
-913
-875
-682
-359
-17
251
474
757
1118
1440
1588
1553
1446
1350
1232
1026
746
488
306
119
-222
-790
-1486
-2108
-2479
-2556
-2432
-2253
-2085
-1848
-1403
-718
28
554
689
509
249
101
87
98
25
-145
-335
-451
-444
-342
-227
-182
-246
-395
-557
-640
-590
-425
-228
-88
-31
-21
-40
-117
-272
-453
-555
-534
-457
-435
-495
-562
-555
-488
-456
-538
-737
-976
-1153
-1199
-1113
-956
-806
-693
-565
-351
-36
309
574
685
628
452
239
64
-53
-165
-337
-555
-707
-672
-442
-139
92
207
267
340
417
425
311
91
-156
-353
-455
-474
-442
-387
-315
-228
-139
-66
-8
36
49
-9
-141
-273
-301
-198
-51
35
34
10
25
66
74
26
-41
-85
-106
-136
-183
-217
-195
-133
-106
-191
-395
-639
-819
-915
-995
-1145
-1359
-1550
-1648
-1673
-1693
-1726
-1724
-1655
-1566
-1543
-1603
-1666
-1638
-1523
-1415
-1406
-1485
-1570
-1577
-1487
-1351
-1239
-1173
-1123
-1038
-906
-765
-672
-639
-630
-623
-640
-701
-760
-718
-548
-352
-279
-354
-452
-449
-372
-363
-512
-754
-958
-1071
-1156
-1287
-1446
-1551
-1563
-1532
-1539
-1595
-1647
-1644
-1599
-1573
-1608
-1690
-1771
-1825
-1860
-1901
-1955
-2022
-2097
-2193
-2337
-2545
-2779
-2943
-2943
-2786
-2596
-2482
-2378
-2085
-1512
-848
-424
-379
-535
-645
-711
-967
-1556
-2312
-2927
-3269
-3449
-3586
-3624
-3436
-3053
-2682
-2506
-2523
-2617
-2738
-2939
-3273
-3698
-4111
-4428
-4614
-4661
-4590
-4473
-4398
-4394
-4411
-4383
-4322
-4310
-4395
-4524
-4575
-4461
-4204
-3917
-3720
-3663
-3713
-3794
-3863
-3938
-4068
-4273
-4493
-4614
-4550
-4325
-4067
-3893
-3803
-3700
-3525
-3355
-3338
-3519
-3775
-3947
-4004
-4062
-4198
-4338
-4328
-4121
-3845
-3678
-3687
-3803
-3950
-4136
-4420
-4783
-5102
-5254
-5227
-5117
-5001
-4834
-4513
-4007
-3425
-2935
-2635
-2506
-2469
-2446
-2409
-2371
-2354
-2357
-2335
-2235
-2060
-1895
-1843
-1926
-2069
-2181
-2238
-2286
-2373
-2499
-2628
-2710
