485
478
493
519
551
598
668
744
797
818
824
825
817
793
760
734
717
692
645
584
537
509
475
406
310
227
182
147
62
-96
-291
-469
-621
-791
-988
-1128
-1076
-764
-249
350
967
1610
2281
2926
3465
3871
4151
4261
4096
3605
2906
2228
1713
1306
861
351
-91
-324
-348
-290
-251
-233
-200
-165
-185
-267
-355
-387
-372
-380
-463
-601
-732
-798
-795
-762
-738
-737
-745
-761
-786
-792
-699
-424
18
485
816
948
939
875
775
612
385
123
-151
-447
-737
-924
-902
-684
-412
-236
-187
-173
-103
18
121
152
101
-17
-169
-291
-311
-215
-82
-33
-114
-258
-365
-396
-396
-413
-444
-470
-489
-524
-582
-629
-608
-496
-340
-219
-186
-222
-264
-288
-319
-383
-444
-440
-378
-327
-324
-290
-122
147
340
315
133
1
48
203
299
270
216
281
495
744
883
864
761
692
700
735
723
668
653
751
932
1105
1214
1281
1355
1435
1475
1457
1416
1403
1414
1403
1338
1240
1168
1160
1194
1217
1186
1103
1005
947
959
1019
1052
988
830
673
625
695
785
792
720
678
756
918
1033
1002
851
692
613
593
552
453
342
301
341
385
345
221
99
49
48
18
-75
-189
-259
-267
-244
-224
-214
-221
-260
-333
-416
-485
-540
-609
-709
-820
-916
-979
-986
-915
-777
-656
-659
-820
-1046
-1207
-1280
-1374
-1629
-2060
-2535
-2884
-3037
-3045
-2981
-2847
-2586
-2178
-1711
-1352
-1228
-1342
-1598
-1927
-2340
-2873
-3481
-4005
-4275
-4238
-3986
-3673
-3394
-3135
-2845
-2535
-2287
-2185
-2222
-2300
-2305
-2182
-1958
-1691
-1419
-1148
-873
-609
-390
-264
-255
-332
-411
-418
-352
-279
-245
-229
-202
-202
-309
-526
-725
-772
-705
-735
-1011
-1408
-1602
-1382
-860
-358
-85
18
134
336
509
498
251
-164
-642
-1093
-1425
-1545
-1413
-1061
-559
31
663
1280
1815
2219
2465
2527
2385
2065
1668
1302
993
695
391
153
59
76
76
-16
-141
-196
-182
-195
-291
-416
-492
-524
-589
-712
-806
-773
-615
-426
-289
-204
-131
-51
19
62
86
98
84
29
-52
-99
-46
120
328
477
514
472
430
435
469
472
407
303
246
316
494
627
527
142
-335
-581
-428
-33
265
270
129
188
645
1336
1853
1891
1508
1044
801
813
896
886
805
771
825
904
953
993
1061
1108
1019
761
436
181
61
68
161
272
294
153
-84
-253
-249
-125
-31
-106
-475
-1277
-2553
-4034
-5175
-5545
-5229
-4727
-4398
-4035
-3099
-1345
815
2612
3543
3706
3560
3437
3316
2963
2274
1429
709
261
43
-36
14
214
488
671
660
529
429
439
506
543
509
398
203
-50
-276
-374
-323
-198
-92
-29
27
98
157
165
129
127
251
521
835
1027
1028
927
868
904
939
867
714
621
688
883
1085
1208
1243
1225
1174
1114
1077
1074
1067
1006
904
863
947
1035
837
125
-968
-1908
-2129
-1523
-562
132
390
632
1369
2584
3630
3815
3049
1919
1121
885
939
946
879
959
1313
1781
2086
2125
2022
1936
1844
1586
1107
593
336
466
841
1188
1342
1320
1217
1088
931
772
672
651
655
629
592
601
595
362
-267
-1154
-1854
-1935
-1371
-586
-67
96
264
830
1743
2491
2561
1901
957
236
-112
-314
-641
-1103
-1462
-1523
-1327
-1068
-877
-727
-602
-615
-892
-1360
-1742
-1788
-1484
-1033
-641
-374
-187
-19
123
158
-87
-737
-1628
-2298
-2261
-1431
-190
994
1994
3043
4407
6049
7607
8589
8643
7791
6508
5444
4934
4734
4352
3639
2962
2773
3079
3449
3512
3276
2970
2697
2407
2076
1803
1677
1650
1623
1550
1443
1314
1163
1061
1110
1287
1418
1342
1091
853
757
735
649
451
225
92
103
213
310
279
84
-161
-291
-275
-268
-403
-626
-739
-671
-596
-704
-934
-1034
-900
-739
-835
-1183
-1486
-1511
-1364
-1347
-1601
-1938
-2082
-1965
-1766
-1684
-1703
-1661
-1490
-1320
-1324
-1498
-1634
-1555
-1340
-1267
-1483
-1816
-1949
-1776
-1527
-1506
-1749
-2036
-2160
-2100
-1966
-1844
-1752
-1708
-1733
-1756
-1683
-1514
-1382
-1416
-1597
-1793
-1880
-1797
-1528
-1137
-771
-584
-559
-491
-257
12
103
-4
-95
-17
79
-43
-346
-542
-467
-294
-281
-422
-445
-179
207
400
308
124
92
216
263
75
-232
-359
-115
388
782
775
460
194
225
445
520
245
-283
-816
-1188
-1343
-1253
-928
-522
-233
-104
6
244
540
703
665
564
505
395
153
-45
56
420
671
497
70
-158
6
280
247
-175
-641
-805
-673
-514
-546
-729
-818
-620
-231
-13
-318
-1165
-2215
-3056
-3545
-3809
-3955
-3866
-3370
-2474
-1405
-399
446
1076
1396
1320
884
289
-285
-816
-1318
-1730
-1899
-1725
-1358
-1083
-1024
-1048
-966
-839
-952
-1400
-1861
-1891
-1421
-899
-823
-1166
-1409
-1170
-687
-545
-976
-1544
-1623
-1150
-722
-936
-1688
-2254
-2107
-1478
-1035
-1086
-1304
-1225
-875
-728
-1091
-1698
-2047
-1960
-1673
-1461
-1268
-864
-219
401
713
691
534
397
263
60
-192
-413
-516
-444
-222
83
380
567
584
405
57
-388
-829
-1136
-1171
-873
-266
547
1428
2264
2972
3523
3938
4253
4486
4567
4398
3971
3416
2907
2537
2265
2033
1869
1846
1950
2047
1979
1741
1469
1255
1105
957
803
696
666
696
782
968
1273
1607
1815
1844
1778
1736
1731
1695
1594
1477
1391
1343
1332
1407
1612
1897
2105
2096
1859
1533
1297
1254
1359
1484
1521
1491
1520
1689
1941
2108
2084
1916
1730
1611
1546
1494
1454
1447
1476
1519
1546
1539
1497
1439
1388
1361
1356
1368
1424
1529
1626
1629
1499
1306
1150
1068
1014
935
856
845
917
1011
1050
1017
958
919
903
888
875
888
950
1050
1146
1200
1214
1219
1224
1188
1070
898
751
702
734
779
818
890
1014
1124
1121
1001
869
828
865
898
897
924
1019
1133
1192
1189
1171
1150
1070
896
703
588
537
427
198
-13
-7
227
464
484
319
210
319
541
636
495
246
90
98
185
251
274
295
338
379
404
422
439
436
390
310
231
177
148
130
101
62
19
-13
-24
-46
-130
-286
-444
-511
-472
-420
-462
-599
-737
-800
-821
-884
-1005
-1113
-1150
-1145
-1181
-1260
-1280
-1158
-938
-761
-706
-712
-677
-621
-693
-1019
-1518
-1929
-2053
-1928
-1765
-1701
-1670
-1496
-1092
-571
-157
-6
-109
-365
-746
-1424
-2686
-4626
-6836
-8495
-8873
-7893
-6171
-4439
-2919
-1270
848
3203
5051
5751
5285
4167
2938
1837
911
227
-118
-162
-103
-59
63
404
869
1120
870
156
-709
-1398
-1747
-1733
-1436
-1042
-817
-929
-1272
-1538
-1484
-1156
-817
-717
-963
-1528
-2279
-2980
-3369
-3324
-2966
-2530
-2094
-1500
-605
434
1202
1412
1194
990
1130
1573
2032
2317
2488
2706
2984
3146
3007
2541
1880
1191
564
1
-496
-884
-1118
-1185
-1107
-933
-750
-650
-697
-872
-1085
-1243
-1315
-1281
-1092
-741
-332
-56
-28
-159
-258
-229
-95
126
458
832
1016
807
263
-398
-1133
-2216
-3940
-6177
-8397
-10149
-11419
-12470
-13463
-14331
-14973
-15394
-15588
-15426
-14857
-14133
-13683
-13637
-13538
-12690
-10800
-8250
-5726
-3645
-1940
-307
1397
3007
4215
4824
4904
4753
4722
5002
5528
6050
6298
6131
5657
5233
5257
5840
6702
7397
7722
7868
8129
8494
8594
8051
6823
5181
3432
1724
84
-1471
-2869
-3998
-4762
-5129
-5202
-5195
-5291
-5521
-5791
-6030
-6259
-6478
-6555
-6308
-5698
-4903
-4168
-3604
-3136
-2640
-2063
-1422
-746
-64
574
1099
1499
1834
2191
2585
2962
3265
3513
3772
4078
4404
4695
4931
5127
5297
5439
5548
5649
5784
5968
6157
6274
6267
6144
5973
5830
5734
5622
5396
5034
4626
4320
4202
4193
4126
3918
3647
3462
3403
3326
3061
2601
2119
1781
1528
1073
113
-1375
-3006
-4129
-4205
-3200
-1644
-233
726
1528
2661
4181
5493
5819
4896
3203
1560
522
105
-10
-121
-295
-437
-453
-337
-162
-46
-99
-391
-926
-1564
-2052
-2164
-1874
-1401
-1049
-992
-1191
-1493
-1769
-1958
-2042
-2014
-1896
-1745
-1622
-1560
-1558
-1602
-1669
-1716
-1687
-1547
-1318
-1081
-916
-851
-861
-915
-1021
-1197
-1396
-1500
-1410
-1151
-855
-623
-419
-139
255
667
961
1080
1075
1033
1022
1082
1213
1381
1525
1622
1719
1883
2124
2373
2550
2636
2670
2690
2721
2787
2917
3102
3275
3354
3321
3200
2963
2481
1678
728
65
64
686
1476
2014
2356
2976
4222
5855
7181
7652
7321
6696
6210
5883
5466
4803
4008
3313
2829
2511
2289
2147
2075
1994
1784
1417
1037
846
925
1172
1399
1512
1547
1586
1654
1711
1730
1734
1759
1798
1817
1812
1821
1872
1938
1963
1921
1852
1813
1818
1824
1763
1630
1482
1403
1415
1460
1453
1365
1235
1105
969
796
596
439
381
405
438
426
370
315
296
309
329
319
254
149
53
12
30
64
76
68
67
84
91
56
-32
-166
-323
-468
-578
-662
-757
-879
-994
-1051
-1051
-1059
-1129
-1242
-1341
-1403
-1460
-1554
-1674
-1781
-1860
-1936
-2030
-2128
-2189
-2168
-2050
-1861
-1686
-1632
-1756
-2013
-2285
-2502
-2702
-2970
-3320
-3651
-3822
-3774
-3563
-3297
-3049
-2836
-2642
-2465
-2322
-2222
-2158
-2103
-2049
-2006
-1983
-1959
-1883
-1731
-1545
-1409
-1385
-1466
-1581
-1662
-1696
-1705
-1706
-1683
-1621
-1548
-1516
-1535
-1538
-1445
-1275
-1171
-1277
-1591
-1947
-2148
-2116
-1920
-1682
-1479
-1321
-1181
-1034
-869
-723
-676
-800
-1081
-1389
-1571
-1564
-1431
-1292
-1218
-1184
-1130
-1028
-917
-863
-899
-1020
-1189
-1353
-1459
-1468
-1370
-1211
-1089
-1072
-1112
-1088
-955
-858
-1063
-1727
-2712
-3625
-4048
-3797
-3012
-2033
-1156
-483
59
530
812
704
163
-563
-1064
-1063
-574
218
1155
2184
3251
4198
4791
4816
4201
3075
1747
570
-234
-669
-887
-994
-930
-575
44
692
1066
1005
608
166
-36
86
391
661
761
691
520
317
80
-212
-552
-902
-1191
-1354
-1396
-1391
-1395
-1346
-1075
-473
391
1289
1999
2424
2583
2513
2225
1714
1001
152
-699
-1365
-1695
-1658
-1339
-851
-243
467
1209
1824
2155
2166
1948
1644
1353
1109
872
594
304
120
157
417
747
926
777
235
-622
-1569
-2265
-2407
-1953
-1162
-369
332
1144
2269
3581
4630
4999
4645
3878
3071
2421
1960
1671
1531
1488
1472
1471
1547
1731
1923
1958
1757
1402
1047
786
635
600
689
868
1024
1037
872
597
322
146
125
247
414
499
451
333
243
199
151
83
47
78
138
159
143
153
200
216
132
-37
-216
-370
-517
-660
-764
-802
-812
-836
-844
-777
-652
-573
-597
-666
-668
-573
-460
-392
-357
-311
-283
-332
-441
-513
-453
-277
-91
29
116
270
548
890
1156
1236
1132
953
802
679
512
265
-14
-235
-355
-390
-385
-348
-272
-168
-62
31
122
208
282
373
520
711
859
893
856
877
1009
1134
1099
926
807
907
1158
1317
1230
979
801
849
1047
1187
1098
814
548
521
737
957
930
678
489
590
894
1083
978
719
568
598
651
590
468
413
434
412
272
98
32
100
181
176
104
51
59
94
121
131
111
20
-165
-330
-337
-187
-64
-144
-395
-616
-666
-614
-634
-774
-911
-923
-825
-730
-691
-698
-709
-706
-683
-639
-628
-740
-981
-1219
-1307
-1268
-1245
-1298
-1284
-1068
-733
-504
-483
-548
-541
-474
-482
-609
-770
-893
-992
-1066
-1013
-774
-486
-379
-514
-690
-695
-586
-590
-797
-1047
-1142
-1097
-1062
-1061
-965
-706
-443
-406
-608
-819
-851
-731
-618
-606
-658
-729
-802
-837
-812
-786
-887
-1159
-1492
-1730
-1869
-2022
-2166
-2045
-1439
-515
279
710
1009
1532
2253
2695
2473
1745
1082
928
1165
1316
1074
605
349
518
877
968
537
-237
-915
-1227
-1263
-1307
-1534
-1862
-2090
-2126
-2021
-1816
-1500
-1145
-1045
-1594
-2931
-4664
-6060
-6606
-6354
-5741
-5113
-4450
-3499
-2129
-490
1068
2159
2483
1924
632
-945
-2257
-2956
-3128
-3144
-3273
-3453
-3420
-3017
-2385
-1851
-1709
-2073
-2863
-3780
-4368
-4294
-3631
-2856
-2472
-2571
-2827
-2938
-2923
-2974
-3145
-3301
-3344
-3366
-3489
-3623
-3600
-3437
-3343
-3444
-3618
-3653
-3533
-3448
-3518
-3618
-3585
-3483
-3516
-3724
-3891
-3789
-3492
-3309
-3424
-3676
-3778
-3628
-3383
-3265
-3342
-3503
-3600
-3616
-3623
-3667
-3693
-3593
-3349
-3071
-2905
-2848
-2789
-2687
-2670
-2848
-3075
-3049
-2694
-2317
-2233
-2349
-2249
-1772
-1280
-1284
-1817
-2341
-2356
-1887
-1335
-971
-708
-295
335
1025
1606
2006
2237
2335
2370
2448
2650
2958
3292
3617
3971
4412
4893
5261
5355
5172
4878
4679
4672
4785
4881
4904
4925
5032
5208
5317
5250
5047
4840
4722
4664
4580
4465
4386
4369
4352
4262
4103
3960
3908
3940
4005
4065
4075
3987
3810
3642
3622
3764
3895
3840
3618
3426
3404
3496
3547
3494
3408
3349
3284
3151
2971
2820
2719
2610
2465
2328
2271
2302
2362
2394
2389
2362
2322
2293
2328
2451
2614
2728
2736
2683
2660
2699
2749
2756
2721
2691
2687
2683
2657
2637
2665
2740
2812
2829
2796
2762
2753
2755
2743
2715
2698
2693
2665
2581
2460
2356
2307
2284
2228
2115
1971
1856
1805
1811
1834
1843
1831
1812
1795
1773
1732
1662
1564
1426
1238
1006
750
490
228
-30
-221
-249
-65
277
665
1049
1493
2074
2752
3350
3693
3748
3630
3456
3244
2936
2513
2053
1655
1349
1087
839
635
517
451
341
143
-83
-234
-289
-340
-465
-614
-669
-596
-502
-512
-615
-688
-668
-639
-718
-886
-1006
-1018
-1039
-1209
-1489
-1673
-1621
-1427
-1298
-1326
-1418
-1453
-1430
-1427
-1481
-1576
-1717
-1934
-2202
-2390
-2371
-2161
-1894
-1687
-1535
-1380
-1229
-1158
-1218
-1381
-1614
-1931
-2337
-2756
-3069
-3214
-3221
-3172
-3117
-3060
-3006
-2967
-2919
-2828
-2704
-2682
-3024
-3971
-5531
-7326
-8677
-9020
-8330
-7148
-6103
-5313
-4322
-2676
-520
1392
2322
2132
1286
368
-339
-860
-1292
-1635
-1849
-1959
-2012
-1990
-1812
-1478
-1155
-1104
-1456
-2059
-2567
-2716
-2500
-2127
-1836
-1748
-1861
-2087
-2294
-2354
-2213
-1925
-1627
-1423
-1332
-1316
-1335
-1369
-1406
-1429
-1425
-1404
-1374
-1316
-1202
-1037
-870
-742
-620
-431
-153
134
288
221
-71
-563
-1183
-1756
-2010
-1729
-953
49
1065
2153
3504
5077
6393
6800
5990
4295
2439
925
-322
-1725
-3483
-5281
-6624
-7367
-7834
-8435
-9314
-10427
-11842
-13715
-15905
-17827
-18896
-19077
-18857
-18602
-18124
-16966
-15030
-12783
-10850
-9493
-8546
-7726
-6886
-5994
-4973
-3665
-1977
-5
2025
3984
5990
8266
10791
13107
14589
15004
14750
14486
14516
14609
14403
13879
13376
13187
13278
13366
13221
12798
12144
11290
10273
9196
8188
7298
6440
5524
4578
3735
3112
2706
2409
2096
1719
1298
880
496
159
-104
-283
-450
-802
-1560
-2727
-3922
-4559
-4296
-3385
-2458
-1921
-1574
-898
289
1524
2097
1696
630
-526
-1412
-2010
-2435
-2741
-2916
-2960
-2907
-2775
-2565
-2314
-2126
-2110
-2308
-2642
-2928
-2935
-2512
-1706
-745
115
756
1220
1581
1839
1937
1875
1763
1709
1699
1607
1339
957
645
552
664
833
902
825
667
519
421
351
268
156
33
-72
-136
-141
-81
9
50
-34
-233
-447
-571
-599
-630
-754
-946
-1085
-1082
-957
-804
-695
-631
-582
-534
-500
-490
-497
-503
-505
-499
-480
-442
-390
-325
-263
-222
-231
-316
-493
-752
-1037
-1249
-1294
-1152
-918
-750
-745
-866
-986
-1038
-1078
-1223
-1506
-1817
-1972
-1859
-1489
-954
-373
154
542
767
874
940
981
937
769
549
431
511
745
1007
1210
1377
1546
1688
1746
1719
1672
1669
1707
1767
1864
2026
2232
2401
2417
2135
1415
293
-844
-1344
-773
627
2072
2955
3417
4123
5438
6933
7760
7457
6320
5030
4057
3438
3001
2640
2365
2200
2108
2065
2093
2194
2289
2244
1964
1499
1043
810
872
1111
1343
1463
1494
1484
1436
1357
1317
1411
1625
1810
1831
1724
1665
1769
1971
2113
2153
2227
2476
2872
3213
3319
3189
2973
2817
2745
2697
2630
2552
2487
2426
2334
2200
2047
1906
1783
1650
1479
1283
1112
1020
1015
1050
1053
989
870
723
558
377
199
60
-23
-82
-159
-258
-351
-433
-526
-639
-743
-798
-819
-869
-972
-1078
-1113
-1076
-1048
-1088
-1165
-1201
-1169
-1140
-1193
-1322
-1450
-1508
-1514
-1526
-1553
-1531
-1409
-1208
-1019
-910
-873
-853
-826
-819
-876
-1008
-1177
-1316
-1371
-1341
-1279
-1247
-1261
-1282
-1260
-1197
-1124
-1053
-945
-762
-542
-375
-328
-386
-488
-579
-653
-732
-825
-917
-975
-966
-877
-758
-711
-798
-991
-1200
-1376
-1561
-1813
-2061
-2120
-1866
-1355
-725
-44
680
1285
1411
805
-314
-1314
-1711
-1599
-1469
-1562
-1546
-900
443
1952
2988
3334
3227
2971
2623
2097
1410
760
339
167
99
-23
-248
-525
-803
-1125
-1592
-2262
-3059
-3759
-4107
-4001
-3530
-2913
-2314
-1778
-1291
-866
-531
-270
5
389
875
1357
1726
1972
2151
2270
2157
1517
165
-1675
-3315
-3956
-3289
-1784
-333
529
1034
1796
3009
4081
4170
3017
1209
-360
-1235
-1580
-1739
-1786
-1542
-952
-297
70
32
-217
-452
-676
-1078
-1737
-2419
-2726
-2422
-1651
-822
-301
-174
-255
-306
-239
-138
-79
-27
97
250
281
104
-184
-388
-435
-419
-413
-310
56
628
1076
1131
909
800
1033
1411
1592
1488
1367
1512
1886
2208
2282
2208
2251
2513
2770
2621
1853
694
-295
-628
-267
409
998
1474
2131
3175
4433
5472
5953
5834
5288
4518
3685
2946
2422
2121
1904
1639
1340
1141
1116
1170
1133
927
603
247
-120
-496
-819
-966
-894
-724
-646
-737
-887
-936
-831
-664
-560
-563
-645
-770
-905
-1010
-1056
-1031
-968
-908
-844
-699
-430
-121
24
-140
-519
-838
-857
-594
-273
-77
18
153
371
539
470
147
-239
-424
-256
191
704
1112
1429
1814
2372
2975
3323
3205
2713
2175
1841
1710
1621
1498
1411
1461
1636
1846
2024
2159
2260
2302
2262
2148
1974
1749
1514
1379
1442
1641
1758
1634
1366
1204
1280
1465
1525
1404
1242
1158
1095
922
662
497
541
719
839
822
767
773
774
653
413
185
82
58
-17
-177
-315
-318
-205
-121
-195
-470
-922
-1476
-2010
-2422
-2657
-2718
-2615
-2299
-1697
-795
284
1322
2141
2699
3027
3131
2967
2535
1994
1588
1409
1269
920
425
130
268
662
859
628
196
-70
-90
-75
-191
-365
-448
-482
-614
-853
-1013
-928
-661
-456
-472
-645
-804
-843
-797
-783
-875
-1061
-1219
-1205
-1010
-745
-551
-461
-382
-239
-90
-95
-329
-676
-915
-912
-717
-489
-366
-372
-444
-511
-507
-436
-377
-411
-544
-690
-762
-793
-844
-869
-730
-413
-151
-246
-675
-1049
-1016
-670
-466
-671
-1061
-1196
-919
-501
-338
-526
-810
-898
-736
-489
-324
-278
-295
-347
-526
-987
-1737
-2527
-2970
-2818
-2237
-1663
-1349
-1094
-447
717
1904
2351
1781
722
6
-86
-80
-654
-1816
-2841
-3063
-2590
-2123
-2125
-2388
-2406
-2060
-1749
-1822
-2127
-2251
-2047
-1782
-1775
-2027
-2284
-2396
-2470
-2669
-2957
-3154
-3110
-2863
-2607
-2583
-2881
-3332
-3631
-3617
-3472
-3508
-3766
-3959
-3852
-3653
-3785
-4336
-4878
-4947
-4596
-4334
-4522
-4959
-5152
-4862
-4326
-3980
-4055
-4447
-4868
-5063
-4950
-4677
-4486
-4474
-4472
-4225
-3676
-3065
-2624
-2363
-2144
-1921
-1802
-1848
-1933
-1882
-1715
-1629
-1742
-1940
-1988
-1837
-1692
-1792
-2136
-2492
-2632
-2540
-2373
-2265
-2233
-2232
-2248
-2281
-2285
-2203
-2116
-2239
-2697
-3307
-3690
-3645
-3354
-3176
-3230
-3315
-3179
-2817
-2425
-2168
-2018
-1887
-1776
-1727
-1712
-1619
-1392
-1118
-909
-798
-707
-557
-355
-172
-44
62
187
314
375
344
314
400
621
887
1132
1404
1775
2207
2559
2743
2842
3000
3228
3374
3322
3140
3027
3086
3236
3341
3376
3396
3409
3354
3202
3012
2867
2740
2520
2182
1875
1815
2071
2535
3047
3561
4157
4880
5622
6197
6507
6605
6586
6447
6111
5568
4962
4453
4056
3665
3261
2997
3025
3258
3407
3295
3050
2953
3095
3286
3284
3060
2786
2623
2572
2540
2455
2310
2132
1974
1888
1884
1917
1923
1889
1862
1867
1868
1836
1822
1884
1986
2008
1884
1693
1555
1468
1326
1077
816
669
612
513
329
186
218
368
444
370
295
401
671
895
921
805
731
780
874
889
786
625
488
408
378
371
364
338
303
271
242
199
140
88
63
50
14
-69
-174
-244
-247
-213
-196
-215
-233
-204
-141
-120
-188
-299
-350
-313
-332
-665
-1470
-2615
-3695
-4281
-4223
-3727
-3119
-2537
-1841
-832
440
1635
2361
2447
2015
1309
551
-91
-514
-705
-737
-703
-603
-352
63
501
747
697
423
52
-347
-754
-1123
-1350
-1364
-1217
-1044
-919
-825
-730
-621
-473
-268
-116
-339
-1277
-2890
-4605
-5716
-6019
-5942
-5964
-5969
-5307
-3561
-1114
1134
2546
3161
3396
3483
3313
2743
1889
1040
385
-93
-476
-757
-843
-717
-519
-467
-682
-1086
-1450
-1578
-1482
-1363
-1398
-1579
-1753
-1795
-1737
-1708
-1791
-1937
-2025
-1984
-1830
-1633
-1455
-1318
-1231
-1195
-1194
-1217
-1260
-1304
-1325
-1296
-1203
-1084
-1006
-994
-1030
-1051
-1019
-949
-913
-995
-1263
-1735
-2341
-2914
-3253
-3246
-2938
-2497
-2068
-1662
-1174
-532
176
733
938
745
266
-342
-965
-1502
-1839
-1941
-1928
-1992
-2181
-2339
-2319
-2202
-2247
-2584
-3078
-3528
-3932
-4449
-5144
-5891
-6662
-7749
-9527
-11950
-14384
-16052
-16658
-16549
-16250
-15918
-15272
-14003
-12190
-10301
-8818
-7887
-7286
-6758
-6242
-5834
-5592
-5428
-5235
-5051
-4997
-5112
-5275
-5329
-5245
-5109
-5035
-5088
-5255
-5401
-5325
-4937
-4471
-4367
-4856
-5691
-6299
-6261
-5602
-4595
-3371
-1854
0
2014
3877
5411
6640
7635
8370
8745
8758
8559
8350
8255
8255
8250
8195
8140
8172
8319
8499
8590
8549
8437
8327
8217
8041
7760
7417
7102
6859
6631
6322
5884
5357
4857
4520
4416
4513
4681
4762
4716
4655
4697
4759
4580
4008
3275
2871
3060
3598
3988
4039
4043
4397
5109
5775
6005
5799
5437
5136
4907
4685
4495
4424
4498
4658
4844
5070
5355
5625
5753
5659
5406
5160
5064
5141
5290
5390
5401
5376
5370
5362
5275
5069
4782
4486
4226
3994
3768
3546
3336
3126
2897
2652
2426
2243
2077
1886
1659
1435
1256
1104
926
719
554
494
487
384
121
-173
-325
-404
-784
-1774
-3163
-4236
-4365
-3612
-2672
-2161
-2016
-1646
-667
627
1548
1658
1089
291
-392
-878
-1207
-1405
-1478
-1451
-1350
-1167
-881
-538
-234
-46
3
-49
-135
-172
-93
97
320
484
559
564
491
304
8
-296
-473
-480
-402
-374
-461
-625
-780
-878
-925
-945
-953
-940
-892
-804
-695
-607
-566
-560
-533
-438
-297
-180
-136
-119
-18
231
584
935
1224
1495
1831
2243
2640
2908
3012
3030
3091
3260
3490
3664
3707
3649
3583
3580
3629
3681
3709
3734
3799
3919
4080
4256
4428
4573
4662
4668
4581
4413
4200
3989
3814
3685
3587
3502
3427
3372
3341
3319
3280
3213
3138
3087
3072
3084
3116
3168
3235
3277
3243
3109
2902
2659
2397
2131
1913
1832
1945
2239
2651
3140
3693
4268
4761
5062
5132
5015
4769
4412
3936
3372
2805
2323
1963
1698
1483
1278
1039
730
345
-77
-489
-866
-1223
-1581
-1919
-2170
-2289
-2296
-2259
-2233
-2219
-2187
-2133
-2111
-2200
-2435
-2745
-2995
-3085
-3003
-2825
-2642
-2478
-2293
-2067
-1856
-1763
-1847
-2066
-2350
-2728
-3319
-4163
-5042
-5561
-5465
-4877
-4186
-3667
-3216
-2512
-1430
-249
561
744
449
47
-201
-300
-401
-612
-893
-1112
-1170
-1064
-851
-629
-483
-455
-551
-760
-1051
-1340
-1487
-1410
-1178
-965
-869
-812
-664
-440
-286
-287
-393
-595
-1075
-1979
-3034
-3566
-3086
-1856
-710
-242
-259
-100
574
1374
1590
882
-461
-1824
-2743
-3131
-3163
-3057
-2934
-2803
-2647
-2490
-2412
-2475
-2664
-2957
-3368
-3899
-4429
-4728
-4647
-4303
-4004
-3965
-4138
-4329
-4482
-4762
-5348
-6155
-6839
-7084
-6908
-6648
-6594
-6722
-6727
-6358
-5687
-5069
-4866
-5192
-5895
-6741
-7567
-8282
-8796
-8984
-8788
-8286
-7640
-6951
-6214
-5428
-4729
-4342
-4378
-4707
-5070
-5315
-5475
-5609
-5635
-5411
-4919
-4323
-3814
-3410
-2995
-2493
-1958
-1510
-1189
-912
-549
-34
610
1288
1899
2404
2842
3271
3680
4038
4360
4707
5083
5401
5570
5627
5722
5982
6385
6793
7100
7321
7535
7726
7700
7187
6116
4827
3953
3980
4853
6023
6948
7554
8229
9330
10722
11802
11948
11045
9584
8276
7533
7250
7050
6716
6363
6220
6337
6533
6604
6487
6214
5774
5109
4301
3611
3299
3375
3564
3555
3260
2864
2586
2469
2374
2173
1905
1710
1626
1546
1344
1013
659
348
53
-235
-447
-510
-472
-479
-591
-724
-792
-876
-1170
-1713
-2236
-2386
-2067
-1544
-1143
-907
-570
93
926
1542
1699
1500
1204
931
616
190
-251
-573
-777
-941
-1077
-1108
-998
-867
-877
-1054
-1275
-1428
-1536
-1688
-1888
-2030
-2016
-1872
-1750
-1780
-1921
-2001
-1858
-1486
-1065
-819
-821
-953
-1021
-895
-685
-649
-954
-1473
-1812
-1670
-1162
-756
-785
-1059
-1105
-734
-266
-141
-416
-762
-907
-914
-972
-1067
-1023
-798
-595
-608
-752
-797
-692
-670
-944
-1387
-1650
-1533
-1194
-980
-1031
-1151
-1051
-702
-398
-432
-768
-1096
-1178
-1086
-1045
-1122
-1170
-1073
-942
-994
-1233
-1400
-1299
-1073
-1058
-1360
-1721
-1809
-1631
-1514
-1689
-2020
-2197
-2127
-2019
-2065
-2191
-2171
-1957
-1728
-1625
-1582
-1472
-1357
-1419
-1670
-1885
-1852
-1640
-1512
-1611
-1796
-1824
-1661
-1523
-1629
-1948
-2256
-2355
-2230
-2012
-1831
-1744
-1732
-1762
-1806
-1805
-1748
-1681
-1674
-1730
-1765
-1713
-1616
-1550
-1487
-1341
-1155
-1137
-1401
-1710
-1683
-1267
-847
-845
-1168
-1340
-1122
-804
-825
-1209
-1625
-1896
-2207
-2680
-3036
-2866
-2255
-1828
-2014
-2520
-2692
-2361
-2092
-2441
-3255
-3836
-3792
-3485
-3526
-4018
-4473
-4428
-3982
-3665
-3844
-4382
-4868
-5065
-5057
-5080
-5206
-5376
-5571
-5891
-6488
-7302
-8056
-8514
-8704
-8806
-8846
-8602
-7940
-7105
-6571
-6549
-6766
-6886
-7002
-7578
-8829
-10274
-11129
-11146
-10865
-11004
-11669
-12345
-12639
-12782
-13311
-14297
-15167
-15290
-14624
-13677
-12804
-11803
-10231
-8043
-5777
-4046
-3007
-2338
-1649
-813
79
959
1850
2764
3626
4380
5128
6005
6981
7786
8219
8387
8622
9125
9738
10116
10129
10037
10187
10615
10998
11012
10666
10326
10321
10607
10828
10666
10159
9635
9381
9388
9481
9643
10125
11172
12688
14255
15484
16314
16948
17520
17907
17855
17258
16320
15407
14731
14260
13869
13508
13263
13211
13291
13308
13138
12822
12452
12060
11626
11150
10719
10436
10319
10305
10320
10331
10333
10307
10227
10080
9855
9559
9211
8832
8420
7978
7525
7108
6768
6488
6234
5995
5781
5561
5262
4836
4355
3952
3650
3354
3003
2661
2429
2320
2235
2085
1887
1674
1409
1036
612
290
150
82
-69
-313
-507
-536
-470
-473
-619
-849
-1081
-1299
-1520
-1716
-1835
-1862
-1845
-1843
-1875
-1928
-1991
-2054
-2133
-2244
-2402
-2615
-2843
-3020
-3104
-3089
-2998
-2886
-2809
-2788
-2792
-2764
-2691
-2612
-2566
-2526
-2437
-2310
-2237
-2290
-2416
-2478
-2393
-2225
-2114
-2121
-2154
-2071
-1844
-1603
-1519
-1638
-1837
-1942
-1882
-1736
-1637
-1638
-1679
-1653
-1507
-1283
-1075
-962
-946
-962
-946
-903
-894
-972
-1103
-1212
-1270
-1326
-1428
-1559
-1652
-1679
-1675
-1692
-1727
-1734
-1705
-1689
-1733
-1822
-1903
-1961
-2048
-2211
-2423
-2590
-2651
-2623
-2576
-2555
-2555
-2554
-2546
-2532
-2530
-2569
-2669
-2798
-2877
-2854
-2770
-2736
-2803
-2896
-2895
-2771
-2614
-2521
-2503
-2502
-2478
-2443
-2421
-2404
-2380
-2360
-2359
-2364
-2342
-2318
-2331
-2369
-2375
-2307
-2219
-2202
-2258
-2280
-2187
-2041
-1972
-2008
-2054
-2066
-2200
-2755
-3879
-5345
-6632
-7234
-6964
-6021
-4819
-3679
-2614
-1400
89
1571
2460
2322
1304
55
-806
-1123
-1136
-1121
-1097
-926
-550
-76
324
518
463
211
-164
-598
-1056
-1472
-1682
-1501
-928
-265
102
71
-86
-54
120
50
-551
-1500
-2268
-2461
-2120
-1592
-1141
-739
-160
740
1807
2655
2938
2588
1801
817
-230
-1249
-2035
-2351
-2167
-1764
-1491
-1394
-1230
-864
-560
-751
-1590
-2772
-3831
-4576
-5208
-5977
-6868
-7664
-8261
-8815
-9520
-10299
-10837
-11040
-11357
-12466
-14539
-16880
-18431
-18704
-18145
-17538
-17039
-15900
-13277
-9158
-4452
-196
3230
6107
8779
11260
13470
15570
17792
19966
21478
21904
21597
21364
21544
21578
20628
18564
16166
14339
13301
12623
11878
11018
10180
9338
8303
6996
5548
4137
2844
1685
726
45
-365
-556
-553
-343
42
466
755
824
742
656
662
798
1001
1139
1105
890
607
400
307
287
264
204
88
-112
-434
-933
-1694
-2728
-3786
-4367
-4054
-2940
-1684
-970
-895
-938
-541
300
1045
1159
608
-162
-614
-535
-113
286
385
181
-148
-409
-523
-559
-624
-800
-1102
-1433
-1635
-1580
-1284
-909
-636
-530
-555
-698
-961
-1258
-1395
-1214
-808
-443
-308
-345
-368
-296
-232
-277
-383
-407
-298
-166
-143
-239
-350
-357
-211
80
472
882
1195
1327
1315
1274
1278
1276
1155
878
544
311
251
300
358
365
339
334
355
361
308
200
97
54
54
36
-47
-165
-234
-220
-195
-253
-382
-476
-513
-670
-1179
-2039
-2908
-3353
-3237
-2818
-2450
-2234
-1991
-1510
-799
-96
323
307
-106
-734
-1333
-1733
-1935
-2063
-2222
-2387
-2451
-2378
-2256
-2197
-2223
-2292
-2376
-2496
-2628
-2666
-2532
-2288
-2123
-2164
-2346
-2502
-2567
-2625
-2774
-2962
-3023
-2865
-2561
-2266
-2095
-2061
-2129
-2262
-2400
-2447
-2341
-2140
-1976
-1912
-1888
-1865
-2027
-2709
-4008
-5457
-6222
-5757
-4324
-2755
-1655
-862
254
1975
3804
4875
4728
3658
2386
1469
1020
851
751
636
523
456
463
522
570
563
509
465
496
667
1042
1665
2478
3296
3858
3966
3601
2925
2175
1529
1048
722
535
478
498
489
360
110
-177
-410
-573
-711
-848
-958
-1003
-961
-830
-619
-359
-95
145
359
561
755
927
1070
1198
1316
1402
1434
1435
1466
1563
1697
1816
1911
2003
2086
2116
2076
2017
2007
2013
1915
1647
1304
1066
1009
1026
960
787
643
659
811
963
1009
954
883
865
911
1005
1134
1290
1469
1677
1914
2157
2361
2496
2577
2641
2690
2677
2574
2425
2314
2287
2320
2357
2370
2368
2351
2301
2213
2105
1977
1789
1506
1182
961
975
1229
1599
1906
2023
1928
1705
1484
1336
1186
863
295
-360
-813
-892
-693
-472
-386
-382
-324
-168
4
102
120
105
59
-39
-180
-285
-286
-212
-176
-257
-415
-533
-534
-454
-377
-321
-235
-95
40
93
37
-82
-221
-380
-560
-724
-816
-822
-813
-878
-1028
-1165
-1192
-1125
-1094
-1227
-1515
-1817
-1995
-2025
-1955
-1806
-1542
-1169
-769
-409
-34
465
1076
1592
1806
1756
1690
1797
2001
2054
1850
1576
1503
1688
1923
1963
1758
1462
1247
1152
1110
1081
1090
1165
1258
1312
1358
1504
1740
1811
1386
415
-707
-1418
-1452
-1032
-620
-481
-475
-257
360
1193
1759
1608
698
-529
-1477
-1897
-2062
-2395
-2941
-3291
-3062
-2353
-1650
-1298
-1204
-1064
-812
-688
-910
-1391
-1842
-2110
-2295
-2549
-2856
-3083
-3220
-3415
-3746
-4021
-3980
-3707
-3683
-4332
-5473
-6371
-6396
-5580
-4481
-3580
-2851
-1981
-849
298
1112
1490
1573
1492
1211
664
-13
-464
-410
52
505
577
273
-60
-89
211
571
739
735
805
1175
1867
2702
3436
3866
3905
3619
3205
2854
2533
1990
1075
88
-338
173
1271
2149
2335
2145
2247
2850
3465
3480
2841
2036
1538
1406
1443
1546
1780
2166
2549
2725
2638
2401
2165
1984
1801
1523
1107
644
351
402
756
1154
1334
1265
1104
943
703
276
-246
-597
-637
-531
-561
-789
-1015
-1087
-1139
-1380
-1738
-1866
-1573
-1141
-1040
-1369
-1725
-1691
-1339
-1120
-1311
-1716
-1953
-1912
-1812
-1855
-1980
-2007
-1904
-1809
-1806
-1823
-1769
-1689
-1694
-1806
-1937
-2017
-2083
-2173
-2211
-2078
-1815
-1641
-1723
-1985
-2207
-2274
-2278
-2346
-2453
-2482
-2432
-2425
-2489
-2473
-2235
-1887
-1721
-1847
-2045
-2021
-1753
-1503
-1477
-1587
-1615
-1488
-1318
-1201
-1092
-925
-771
-785
-1007
-1254
-1273
-999
-639
-478
-590
-785
-805
-610
-418
-464
-731
-971
-979
-783
-564
-434
-343
-213
-68
15
3
-61
-122
-170
-191
-169
-123
-93
-74
-2
161
355
468
456
377
310
269
232
198
183
171
119
27
-39
-24
42
87
34
-125
-324
-460
-451
-331
-254
-353
-588
-771
-762
-623
-532
-564
-652
-727
-817
-968
-1112
-1127
-1011
-947
-1086
-1351
-1497
-1384
-1150
-1068
-1254
-1554
-1720
-1674
-1584
-1655
-1864
-1998
-1910
-1667
-1473
-1404
-1331
-1148
-951
-886
-921
-855
-633
-501
-694
-1046
-1106
-675
-117
14
-368
-787
-782
-420
-153
-236
-481
-552
-368
-112
66
183
292
369
350
262
195
191
227
288
366
418
374
233
121
168
328
424
339
177
136
291
493
524
323
11
-248
-478
-877
-1524
-2167
-2401
-2107
-1607
-1293
-1127
-676
288
1376
1937
1785
1397
1294
1403
1183
350
-729
-1466
-1705
-1844
-2289
-2973
-3493
-3617
-3491
-3390
-3398
-3394
-3282
-3098
-2874
-2552
-2084
-1572
-1187
-928
-585
-22
615
1005
1044
999
1216
1698
2100
2143
1935
1840
2073
2491
2795
2835
2739
2732
2900
3128
3260
3273
3284
3415
3681
3975
4229
4451
4689
4906
5022
5044
5046
5085
5114
5055
4914
4782
4757
4822
4890
4899
4898
4991
5222
5496
5636
5582
5470
5483
5617
5663
5452
5068
4744
4589
4498
4370
4294
4432
4738
4961
4946
4855
4983
5329
5571
5467
5126
4886
4898
4971
4881
4689
4658
4868
5094
5067
4811
4595
4600
4710
4678
4427
4131
3976
3952
3909
3742
3482
3227
3025
2870
2724
2544
2315
2082
1935
1903
1899
1783
1509
1189
971
857
756
610
450
328
224
84
-87
-203
-234
-265
-419
-692
-920
-976
-926
-944
-1103
-1308
-1448
-1554
-1740
-2018
-2258
-2348
-2326
-2315
-2349
-2349
-2262
-2152
-2143
-2281
-2507
-2732
-2910
-3042
-3143
-3225
-3290
-3313
-3265
-3145
-2996
-2860
-2750
-2649
-2559
-2510
-2498
-2484
-2427
-2337
-2262
-2231
-2219
-2195
-2153
-2102
-2031
-1916
-1769
-1646
-1600
-1631
-1671
-1652
-1575
-1512
-1526
-1604
-1653
-1587
-1419
-1257
-1206
-1275
-1373
-1409
-1382
-1380
-1478
-1651
-1799
-1849
-1813
-1759
-1733
-1727
-1725
-1723
-1722
-1696
-1631
-1571
-1579
-1666
-1745
-1716
-1591
-1496
-1548
-1726
-1895
-1932
-1839
-1719
-1659
-1660
-1667
-1629
-1555
-1481
-1418
-1344
-1246
-1172
-1186
-1275
-1338
-1281
-1126
-994
-970
-1009
-1012
-947
-879
-876
-959
-1131
-1405
-1769
-2139
-2421
-2611
-2776
-2929
-2945
-2687
-2170
-1552
-954
-361
275
881
1262
1294
1070
781
499
146
-323
-820
-1203
-1416
-1525
-1613
-1703
-1813
-2028
-2454
-3091
-3841
-4635
-5482
-6313
-6842
-6707
-5815
-4550
-3524
-3040
-2794
-2189
-968
455
1337
1302
722
359
625
1210
1443
983
92
-692
-1077
-1159
-1165
-1161
-1081
-941
-836
-795
-730
-566
-361
-283
-505
-1089
-1939
-2806
-3347
-3309
-2749
-2062
-1716
-1922
-2554
-3305
-3877
-4073
-3854
-3407
-3036
-2891
-2764
-2253
-1248
-172
343
34
-787
-1587
-2119
-2526
-3032
-3680
-4353
-4958
-5480
-5917
-6230
-6425
-6620
-6965
-7520
-8195
-8867
-9489
-10098
-10730
-11374
-12052
-12908
-14183
-15968
-17950
-19474
-19939
-19217
-17705
-15939
-14125
-12018
-9259
-5830
-2205
972
3422
5474
7753
10538
13397
15534
16509
16602
16446
16360
16083
15174
13582
11760
10286
9440
9139
9118
9140
9093
8968
8812
8627
8305
7683
6685
5458
4297
3443
2936
2654
2443
2202
1890
1482
969
388
-149
-508
-625
-555
-430
-336
-255
-111
136
459
813
1186
1589
2003
2384
2706
2975
3190
3308
3271
3092
2876
2735
2682
2639
2562
2506
2563
2734
2954
3178
3429
3705
3892
3846
3535
3106
2745
2527
2447
2532
2843
3347
3864
4213
4383
4493
4580
4490
4052
3299
2474
1831
1420
1123
848
611
466
394
318
200
77
-6
-84
-247
-530
-845
-1030
-991
-786
-571
-473
-492
-546
-565
-543
-507
-467
-406
-328
-304
-393
-575
-744
-794
-728
-670
-746
-938
-1110
-1144
-1062
-1007
-1073
-1206
-1277
-1230
-1129
-1068
-1077
-1132
-1215
-1348
-1551
-1795
-2027
-2212
-2335
-2393
-2386
-2346
-2320
-2341
-2414
-2514
-2609
-2658
-2617
-2465
-2196
-1812
-1316
-728
-111
449
875
1130
1201
1088
832
514
202
-97
-399
-671
-823
-806
-691
-609
-638
-753
-906
-1074
-1240
-1357
-1385
-1360
-1370
-1452
-1533
-1498
-1351
-1219
-1233
-1386
-1551
-1638
-1665
-1702
-1768
-1806
-1783
-1748
-1760
-1780
-1677
-1372
-934
-532
-290
-219
-265
-388
-560
-737
-884
-1017
-1179
-1356
-1442
-1332
-1047
-731
-532
-490
-537
-595
-641
-698
-784
-876
-931
-914
-831
-720
-611
-493
-360
-257
-262
-396
-571
-674
-666
-619
-610
-622
-581
-470
-377
-381
-451
-485
-408
-257
-133
-89
-60
68
324
585
669
507
228
11
-136
-406
-964
-1697
-2270
-2414
-2156
-1709
-1224
-692
-112
394
687
796
912
1147
1387
1434
1268
1114
1219
1599
2013
2199
2094
1819
1522
1272
1048
803
522
229
-29
-201
-259
-213
-112
-16
25
-16
-135
-283
-390
-400
-322
-218
-158
-159
-185
-188
-154
-93
-21
61
154
230
233
116
-111
-357
-528
-600
-633
-693
-764
-770
-672
-521
-397
-332
-310
-341
-460
-667
-871
-974
-975
-978
-1063
-1192
-1251
-1183
-1052
-971
-1007
-1129
-1260
-1335
-1344
-1324
-1316
-1330
-1344
-1344
-1350
-1375
-1390
-1336
-1198
-1037
-914
-817
-669
-426
-144
85
224
288
298
251
162
104
144
268
395
477
557
709
931
1132
1235
1250
1242
1236
1199
1096
953
839
792
797
820
853
904
977
1052
1107
1105
997
750
407
96
-48
1
156
301
416
567
804
1069
1238
1220
1032
760
494
281
133
39
-28
-86
-115
-83
-11
15
-100
-348
-619
-825
-997
-1225
-1500
-1659
-1545
-1160
-645
-108
471
1153
1889
2522
2922
3084
3086
2967
2699
2256
1695
1156
791
667
730
834
852
761
643
602
660
724
629
235
-432
-1098
-1376
-1084
-466
-40
-112
-462
-579
-201
417
826
881
861
1096
1598
2101
2398
2527
2650
2812
2900
2793
2517
2212
2000
1891
1799
1636
1404
1196
1122
1197
1305
1305
1136
869
640
541
585
703
765
623
205
-418
-1070
-1610
-2026
-2362
-2554
-2419
-1826
-869
173
1018
1528
1752
1813
1789
1664
1336
732
-42
-713
-1041
-1031
-936
-980
-1154
-1278
-1235
-1098
-991
-966
-1006
-1112
-1303
-1540
-1697
-1686
-1566
-1472
-1441
-1367
-1117
-696
-232
166
495
780
940
843
474
-6
-363
-469
-391
-286
-222
-164
-68
78
252
404
436
263
-51
-268
-178
158
439
440
280
253
456
651
554
185
-151
-224
-101
-11
-38
-44
134
488
860
1153
1410
1705
1997
2122
1915
1373
665
20
-412
-579
-520
-307
9
431
989
1664
2321
2728
2681
2178
1443
789
416
305
307
329
430
727
1246
1827
2215
2259
2003
1588
1048
316
-542
-1178
-1167
-466
462
1088
1319
1521
2036
2735
3123
2881
2154
1357
780
426
178
-55
-323
-661
-1061
-1403
-1550
-1479
-1296
-1134
-1059
-1056
-1069
-1021
-864
-633
-470
-522
-789
-1148
-1515
-1958
-2559
-3176
-3447
-3091
-2204
-1235
-573
-256
-12
351
685
650
108
-711
-1403
-1738
-1782
-1711
-1576
-1271
-781
-257
84
159
56
-112
-337
-668
-1097
-1526
-1833
-1923
-1736
-1299
-787
-497
-650
-1206
-1896
-2461
-2832
-3054
-3123
-2995
-2711
-2404
-2112
-1698
-1038
-288
192
253
222
619
1570
2617
3173
3136
2901
2892
3129
3271
3004
2324
1478
735
228
-55
-209
-341
-504
-667
-753
-755
-792
-1001
-1333
-1584
-1638
-1587
-1603
-1677
-1624
-1359
-1108
-1177
-1561
-1925
-1960
-1746
-1615
-1722
-1880
-1852
-1656
-1516
-1570
-1731
-1854
-1897
-1900
-1892
-1862
-1827
-1831
-1870
-1870
-1801
-1740
-1781
-1894
-1944
-1846
-1691
-1634
-1707
-1784
-1702
-1443
-1178
-1106
-1253
-1424
-1405
-1166
-914
-880
-1087
-1335
-1424
-1329
-1212
-1254
-1485
-1780
-1940
-1856
-1608
-1377
-1319
-1436
-1577
-1581
-1430
-1269
-1247
-1397
-1615
-1745
-1699
-1540
-1407
-1358
-1344
-1265
-1114
-984
-960
-1000
-980
-843
-694
-697
-874
-1032
-940
-578
-170
1
-105
-254
-191
43
162
-21
-344
-431
-108
356
496
236
-4
215
853
1394
1408
963
526
430
588
725
696
555
390
260
250
446
818
1169
1291
1193
1075
1080
1157
1145
1001
810
641
460
249
102
160
403
612
585
391
304
454
655
622
313
28
59
340
502
340
73
90
468
900
1045
898
750
826
1038
1126
947
591
259
76
3
-75
-209
-329
-376
-398
-494
-659
-762
-710
-607
-645
-859
-1068
-1139
-1153
-1225
-1307
-1197
-841
-481
-351
-386
-278
136
637
846
681
440
481
868
1343
1616
1662
1713
1975
2388
2716
2835
2864
2998
3264
3473
3494
3448
3570
3935
4386
4720
4867
4884
4865
4910
5058
5301
5515
5558
5463
5404
5501
5676
5750
5667
5485
5263
5032
4873
4924
5187
5434
5399
5089
4798
4751
4818
4669
4177
3538
3013
2692
2509
2446
2608
3050
3654
4263
4808
5292
5696
5920
5894
5643
5264
4849
4435
4031
3665
3336
3002
2654
2393
2318
2371
2358
2116
1706
1342
1158
1081
960
765
594
504
424
270
89
-2
21
24
-148
-470
-736
-746
-495
-178
-39
-149
-347
-395
-220
16
81
-73
-312
-494
-618
-762
-894
-868
-644
-401
-352
-480
-548
-390
-140
-98
-389
-836
-1153
-1243
-1237
-1280
-1376
-1431
-1395
-1298
-1177
-1023
-855
-761
-823
-1024
-1248
-1383
-1427
-1456
-1522
-1594
-1597
-1498
-1332
-1184
-1112
-1106
-1110
-1086
-1064
-1101
-1187
-1221
-1125
-936
-796
-786
-836
-812
-670
-509
-445
-488
-561
-594
-587
-574
-583
-626
-698
-783
-841
-839
-790
-745
-740
-764
-779
-777
-786
-825
-886
-939
-968
-985
-1004
-1011
-967
-859
-723
-611
-536
-457
-339
-219
-178
-247
-356
-401
-355
-288
-291
-367
-453
-500
-517
-535
-562
-584
-598
-608
-614
-609
-598
-606
-647
-700
-732
-736
-732
-740
-750
-747
-744
-765
-813
-863
-902
-961
-1079
-1232
-1319
-1256
-1081
-927
-889
-925
-917
-818
-709
-704
-810
-937
-1017
-1069
-1138
-1209
-1222
-1173
-1162
-1296
-1550
-1781
-1851
-1757
-1611
-1530
-1546
-1593
-1599
-1543
-1456
-1376
-1315
-1284
-1325
-1457
-1605
-1637
-1483
-1247
-1137
-1258
-1508
-1677
-1644
-1473
-1313
-1269
-1363
-1598
-1999
-2593
-3318
-4002
-4406
-4341
-3761
-2797
-1658
-492
679
1875
2990
3747
3851
3259
2269
1324
696
342
47
-293
-577
-661
-545
-417
-476
-756
-1150
-1550
-1951
-2387
-2811
-3096
-3125
-2898
-2552
-2281
-2182
-2219
-2297
-2367
-2428
-2458
-2402
-2285
-2261
-2500
-2987
-3492
-3820
-4010
-4221
-4428
-4307
-3508
-2042
-334
1139
2236
3130
3983
4708
5041
4820
4146
3295
2520
1920
1465
1116
865
707
606
511
398
279
184
93
-22
-132
-144
-8
260
660
1223
1907
2518
2834
2803
2578
2327
2056
1660
1064
230
-940
-2487
-4186
-5568
-6305
-6562
-6823
-7330
-7838
-7973
-7727
-7504
-7653
-8150
-8708
-9093
-9257
-9218
-8992
-8643
-8270
-7912
-7498
-6913
-6138
-5267
-4403
-3604
-2908
-2324
-1810
-1264
-655
-124
79
-193
-832
-1490
-1790
-1559
-905
-87
726
1580
2614
3822
4935
5582
5563
4981
4107
3173
2313
1637
1248
1164
1261
1376
1480
1713
2173
2722
3048
2917
2379
1689
1086
671
431
325
334
442
642
966
1425
1937
2349
2557
2585
2544
2485
2351
2070
1674
1286
1010
849
750
695
708
787
865
861
779
702
706
761
774
709
645
686
823
910
811
545
282
181
243
340
367
330
299
302
306
293
311
400
515
566
532
514
635
877
1087
1137
1058
990
1009
1050
1014
890
752
658
583
481
372
312
322
331
267
148
64
70
116
96
-36
-197
-258
-171
-13
102
136
125
80
-78
-455
-1050
-1703
-2214
-2458
-2421
-2119
-1572
-829
-6
761
1385
1842
2099
2091
1774
1218
603
118
-145
-202
-121
29
203
363
469
488
424
294
132
-35
-185
-291
-313
-224
-48
136
242
237
159
71
14
3
46
160
341
537
689
768
803
851
955
1113
1263
1323
1261
1136
1050
1061
1139
1224
1313
1471
1732
2028
2234
2277
2171
1960
1679
1379
1161
1133
1331
1707
2207
2814
3509
4215
4802
5178
5317
5224
4907
4412
3874
3443
3161
2942
2695
2447
2312
2332
2402
2372
2187
1921
1677
1487
1331
1227
1240
1397
1611
1737
1693
1504
1229
902
569
349
392
741
1258
1739
2109
2474
2956
3505
3895
3917
3563
3029
2561
2287
2173
2118
2075
2091
2225
2450
2645
2694
2592
2414
2223
2015
1777
1566
1477
1541
1679
1779
1793
1742
1657
1555
1456
1392
1372
1378
1381
1358
1297
1208
1145
1182
1321
1438
1369
1092
776
616
612
592
418
156
-19
-32
22
15
-63
-130
-159
-206
-332
-515
-671
-744
-734
-688
-652
-652
-677
-683
-629
-533
-487
-571
-771
-990
-1120
-1118
-995
-788
-533
-282
-97
-26
-79
-229
-436
-669
-905
-1138
-1356
-1524
-1581
-1486
-1280
-1070
-954
-939
-958
-947
-890
-820
-768
-741
-726
-697
-631
-531
-450
-456
-576
-762
-937
-1069
-1179
-1280
-1348
-1350
-1282
-1175
-1060
-955
-877
-857
-887
-906
-859
-763
-708
-753
-849
-894
-854
-790
-773
-799
-806
-768
-723
-715
-748
-786
-806
-817
-835
-857
-857
-814
-719
-587
-458
-380
-371
-386
-368
-313
-288
-339
-422
-443
-368
-267
-228
-248
-242
-150
-16
67
61
7
-33
-47
-54
-68
-77
-56
16
157
357
552
642
575
404
246
166
116
-7
-228
-449
-532
-441
-262
-122
-80
-108
-163
-218
-262
-271
-244
-220
-264
-388
-522
-583
-569
-567
-653
-815
-982
-1104
-1198
-1300
-1409
-1495
-1536
-1544
-1553
-1584
-1628
-1651
-1614
-1503
-1339
-1165
-1011
-879
-773
-728
-774
-911
-1148
-1544
-2144
-2830
-3271
-3120
-2346
-1295
-366
373
1191
2305
3537
4433
4679
4372
3848
3372
3010
2732
2542
2460
2443
2396
2287
2186
2159
2159
2057
1777
1401
1099
984
1037
1169
1284
1331
1300
1218
1148
1149
1213
1254
1235
1247
1405
1649
1723
1419
869
467
430
481
88
-937
-2144
-2813
-2638
-1964
-1329
-885
-322
661
1933
3040
3663
3870
3879
3708
3181
2262
1266
611
391
297
7
-435
-683
-531
-179
-13
-188
-527
-776
-892
-992
-1128
-1212
-1164
-1042
-1007
-1144
-1380
-1573
-1629
-1555
-1451
-1416
-1468
-1518
-1457
-1296
-1196
-1299
-1550
-1738
-1720
-1557
-1433
-1442
-1514
-1512
-1378
-1160
-949
-814
-763
-750
-714
-636
-574
-604
-734
-862
-872
-742
-566
-454
-435
-456
-459
-440
-451
-540
-694
-834
-878
-800
-644
-470
-310
-172
-59
20
72
124
184
223
191
79
-58
-130
-91
29
177
323
459
565
603
575
557
622
730
729
528
237
90
212
470
614
547
388
288
279
295
309
346
376
324
188
100
196
455
700
801
807
822
869
885
852
848
925
1030
1071
1048
1052
1140
1244
1247
1128
986
942
1017
1124
1148
1063
944
901
984
1143
1280
1337
1319
1249
1133
985
869
866
978
1088
1087
1002
969
1099
1352
1564
1626
1569
1514
1537
1605
1643
1634
1621
1619
1596
1529
1451
1441
1512
1604
1632
1577
1504
1491
1546
1617
1615
1519
1406
1381
1479
1608
1619
1470
1264
1129
1077
1015
884
720
576
458
361
326
386
466
419
195
-60
-189
-237
-415
-808
-1164
-1144
-681
-30
531
1006
1581
2317
3023
3431
3469
3292
3081
2867
2560
2098
1563
1117
846
702
565
361
130
-42
-123
-164
-247
-421
-682
-1006
-1336
-1579
-1705
-1767
-1861
-2010
-2115
-2072
-1920
-1806
-1835
-1932
-1942
-1842
-1775
-1869
-2088
-2259
-2306
-2321
-2434
-2636
-2780
-2762
-2672
-2718
-2985
-3312
-3435
-3261
-2958
-2777
-2786
-2858
-2846
-2748
-2663
-2624
-2582
-2511
-2489
-2588
-2756
-2847
-2783
-2640
-2553
-2556
-2542
-2405
-2169
-1944
-1800
-1681
-1524
-1370
-1358
-1546
-1813
-1945
-1884
-1783
-1808
-1936
-1981
-1818
-1559
-1406
-1427
-1496
-1457
-1312
-1210
-1261
-1428
-1577
-1622
-1604
-1643
-1789
-1952
-1986
-1854
-1669
-1571
-1569
-1543
-1412
-1238
-1147
-1188
-1319
-1494
-1685
-1840
-1869
-1738
-1515
-1326
-1233
-1198
-1154
-1064
-902
-682
-475
-378
-385
-353
-148
155
332
284
140
54
-44
-362
-931
-1462
-1630
-1463
-1338
-1544
-1967
-2239
-2158
-1923
-1901
-2250
-2784
-3189
-3323
-3284
-3236
-3233
-3213
-3139
-3082
-3112
-3234
-3385
-3490
-3551
-3588
-3597
-3556
-3492
-3453
-3422
-3304
-3027
-2682
-2468
-2497
-2638
-2664
-2507
-2321
-2272
-2327
-2301
-2089
-1798
-1595
-1525
-1481
-1337
-1118
-943
-867
-830
-739
-587
-462
-434
-468
-440
-282
-113
-97
-211
-186
229
954
1601
1860
1822
1873
2271
2860
3281
3330
3131
2980
3045
3280
3543
3765
3972
4190
4349
4369
4281
4236
4342
4502
4471
4170
3832
3777
4066
4434
4573
4428
4217
4158
4273
4420
4456
4365
4218
4093
4041
4080
4159
4178
4092
3939
3822
3789
3755
3600
3319
3053
2955
3027
3118
3107
3020
2938
2842
2620
2220
1738
1317
999
754
613
694
1078
1736
2533
3354
4138
4799
5242
5438
5450
5331
5040
4536
3915
3371
3010
2774
2552
2354
2277
2308
2283
2077
1795
1659
1724
1787
1606
1176
753
578
669
837
899
837
765
786
906
1052
1145
1168
1139
1070
946
782
645
591
603
596
515
413
378
415
426
334
181
100
155
279
363
377
405
526
712
844
822
662
480
370
322
267
182
120
140
228
307
328
317
329
357
352
280
160
42
-36
-76
-95
-105
-108
-111
-131
-177
-244
-321
-397
-463
-509
-529
-526
-516
-516
-518
-489
-409
-311
-266
-309
-416
-546
-680
-826
-972
-1091
-1168
-1220
-1252
-1230
-1122
-976
-896
-923
-979
-944
-826
-784
-974
-1371
-1777
-1999
-2009
-1926
-1852
-1759
-1540
-1158
-720
-383
-217
-166
-157
-208
-407
-786
-1224
-1538
-1649
-1665
-1734
-1865
-1921
-1799
-1580
-1438
-1415
-1370
-1173
-896
-748
-814
-954
-984
-915
-914
-1067
-1249
-1276
-1133
-964
-867
-770
-564
-298
-170
-305
-599
-838
-912
-901
-923
-959
-895
-676
-394
-189
-96
-40
35
65
-47
-277
-487
-573
-575
-599
-678
-733
-709
-636
-586
-604
-710
-957
-1411
-2050
-2750
-3377
-3884
-4256
-4384
-4086
-3281
-2139
-975
-36
627
1065
1252
1086
538
-233
-963
-1444
-1625
-1565
-1328
-957
-508
-73
246
365
250
-64
-488
-896
-1179
-1283
-1219
-1048
-848
-664
-499
-339
-217
-227
-431
-749
-981
-987
-850
-805
-982
-1267
-1444
-1442
-1400
-1473
-1613
-1639
-1476
-1261
-1191
-1303
-1481
-1653
-1916
-2421
-3177
-4014
-4717
-5178
-5393
-5371
-5109
-4657
-4127
-3603
-3074
-2501
-1935
-1524
-1380
-1450
-1559
-1577
-1518
-1505
-1642
-1938
-2340
-2789
-3281
-3892
-4712
-5732
-6769
-7549
-7923
-7977
-7900
-7743
-7345
-6517
-5326
-4136
-3355
-3114
-3134
-2933
-2203
-1044
145
996
1454
1792
2360
3296
4435
5420
5938
5927
5618
5379
5473
5863
6225
6228
5854
5414
5255
5431
5614
5448
4920
4336
3925
3457
2397
524
-1648
-3138
-3320
-2457
-1367
-606
-49
701
1646
2275
2126
1392
699
420
328
44
-307
-105
1015
2596
3689
3713
2932
2049
1472
1071
559
-84
-652
-955
-948
-654
-107
537
978
945
430
-297
-906
-1201
-1161
-858
-424
-50
73
-122
-506
-814
-887
-764
-605
-543
-574
-596
-546
-473
-473
-570
-658
-595
-334
41
380
570
583
467
311
204
186
216
225
194
185
264
419
506
347
-84
-595
-889
-814
-456
-35
298
588
975
1489
1910
1848
1036
-372
-1769
-2468
-2213
-1373
-578
-115
295
1091
2306
3440
3897
3496
2547
1508
660
52
-350
-570
-623
-542
-374
-150
77
209
157
-89
-429
-732
-915
-953
-868
-698
-512
-399
-425
-567
-708
-743
-678
-604
-579
-559
-481
-384
-391
-562
-792
-891
-777
-541
-332
-212
-140
-69
-28
-76
-217
-386
-523
-635
-766
-920
-1021
-987
-822
-633
-536
-549
-583
-558
-489
-447
-436
-381
-227
-26
121
203
314
530
783
950
1002
1026
1110
1248
1381
1499
1661
1913
2232
2547
2759
2705
2187
1126
-264
-1512
-2179
-2147
-1645
-987
-289
574
1753
3162
4441
5160
5095
4368
3359
2427
1733
1252
910
702
648
739
927
1182
1516
1903
2227
2376
2383
2456
2812
3492
4328
5086
5616
5873
5878
5703
5487
5382
5421
5478
5385
5086
4685
4320
4014
3678
3233
2720
2285
2065
2104
2326
2576
2705
2664
2532
2448
2484
2575
2569
2395
2141
1980
1989
2092
2168
2183
2198
2233
2200
2009
1697
1440
1370
1446
1503
1416
1221
1051
999
1037
1064
993
811
576
367
232
162
116
59
-10
-69
-97
-84
-44
-17
-41
-137
-271
-379
-424
-430
-453
-526
-643
-787
-942
-1092
-1222
-1330
-1448
-1599
-1761
-1873
-1896
-1863
-1841
-1862
-1898
-1915
-1909
-1885
-1807
-1619
-1324
-1033
-910
-1032
-1316
-1597
-1784
-1933
-2172
-2539
-2913
-3112
-3057
-2836
-2610
-2474
-2412
-2368
-2313
-2263
-2241
-2257
-2306
-2368
-2417
-2435
-2415
-2362
-2280
-2194
-2182
-2320
-2587
-2825
-2854
-2646
-2342
-2097
-1921
-1712
-1412
-1090
-843
-691
-592
-539
-583
-737
-914
-998
-967
-900
-870
-859
-797
-652
-448
-221
9
224
395
513
594
665
729
768
769
739
685
618
573
598
707
856
992
1102
1185
1214
1166
1061
925
704
285
-330
-890
-1056
-711
-80
496
874
1159
1487
1838
2048
1955
1490
714
-169
-884
-1244
-1304
-1270
-1250
-1149
-836
-363
58
270
298
204
-68
-617
-1363
-1969
-2082
-1661
-1008
-476
-165
92
443
721
526
-335
-1500
-2225
-1990
-967
179
948
1451
2185
3389
4686
5392
5143
4179
3058
2165
1520
997
629
577
868
1274
1507
1514
1454
1427
1308
917
336
-99
-127
145
415
539
609
673
538
-55
-1027
-1901
-2251
-2126
-1934
-1904
-1751
-1019
309
1662
2404
2459
2333
2494
2848
2865
2231
1246
563
592
1188
1900
2425
2801
3173
3549
3798
3809
3615
3290
2869
2371
1877
1530
1420
1456
1452
1297
1050
836
623
151
-833
-2226
-3475
-3935
-3399
-2296
-1302
-715
-236
614
1907
3162
3766
3491
2609
1585
747
210
-32
-42
56
123
126
195
469
910
1245
1205
789
264
-64
-96
46
216
367
499
577
535
369
176
62
62
145
266
385
449
410
265
89
-23
-31
23
74
99
127
172
160
-53
-547
-1202
-1738
-1900
-1679
-1291
-964
-713
-357
224
921
1460
1632
1433
1011
525
77
-270
-503
-659
-795
-907
-908
-724
-417
-164
-80
-127
-185
-202
-234
-323
-397
-353
-199
-67
-51
-96
-85
24
161
257
331
450
616
719
678
531
403
385
458
553
647
778
962
1140
1236
1251
1275
1388
1562
1695
1706
1627
1582
1675
1888
2081
2108
1974
1839
1850
1974
2019
1860
1598
1426
1391
1354
1188
986
947
1114
1271
1188
933
844
1183
1816
2325
2438
2323
2408
2876
3441
3617
3239
2636
2251
2198
2202
1983
1584
1247
1099
1061
1013
977
1044
1179
1224
1104
932
869
913
911
778
599
504
473
364
115
-151
-264
-216
-157
-218
-370
-487
-508
-481
-500
-605
-773
-957
-1115
-1218
-1249
-1219
-1164
-1109
-1076
-1093
-1158
-1207
-1148
-964
-782
-758
-914
-1079
-1059
-864
-699
-749
-980
-1169
-1149
-970
-835
-898
-1120
-1332
-1393
-1317
-1230
-1245
-1364
-1494
-1536
-1458
-1308
-1185
-1169
-1262
-1372
-1398
-1326
-1246
-1265
-1400
-1550
-1614
-1599
-1587
-1652
-1770
-1909
-2120
-2463
-2886
-3194
-3204
-2910
-2458
-1960
-1370
-579
388
1323
1992
2297
2313
2203
2048
1815
1415
849
267
-114
-217
-187
-241
-423
-556
-476
-252
-137
-299
-635
-887
-929
-857
-837
-935
-1100
-1261
-1383
-1457
-1495
-1524
-1574
-1668
-1763
-1815
-1836
-1854
-1866
-1829
-1741
-1724
-1878
-2151
-2326
-2234
-1992
-1928
-2231
-2730
-3018
-2884
-2507
-2224
-2158
-2176
-2139
-2083
-2089
-2083
-1933
-1747
-1888
-2533
-3372
-3864
-3840
-3688
-3843
-4283
-4587
-4546
-4406
-4468
-4678
-4739
-4593
-4547
-4835
-5270
-5443
-5239
-4980
-4997
-5213
-5280
-5031
-4718
-4701
-4990
-5209
-5000
-4455
-4034
-4089
-4472
-4694
-4464
-3999
-3744
-3846
-3973
-3706
-3017
-2251
-1709
-1298
-742
-21
576
804
778
852
1215
1698
1991
1998
1930
2038
2369
2763
3063
3268
3479
3759
4080
4377
4625
4836
5015
5141
5234
5336
5474
5639
5800
5970
6189
6477
6786
7052
7257
7424
7556
7625
7633
7623
7612
7555
7418
7277
7295
7506
7689
7544
7059
6595
6549
6909
7254
7196
6769
6364
6282
6459
6583
6440
6091
5727
5490
5393
5370
5355
5294
5166
5000
4879
4852
4860
4790
4612
4438
4408
4529
4636
4560
4325
4142
4170
4337
4414
4289
4086
4017
4113
4195
4112
3934
3858
3941
4027
3920
3611
3291
3136
3158
3217
3152
2885
2476
2116
2000
2151
2364
2390
2212
2069
2165
2410
2529
2393
2164
2056
2042
1926
1663
1434
1396
1490
1545
1530
1551
1628
1606
1381
1096
988
1071
1102
890
555
392
518
748
828
703
508
374
306
244
158
63
-14
-70
-103
-110
-82
4
151
288
295
112
-164
-371
-472
-618
-956
-1405
-1758
-1929
-2019
-2103
-2024
-1524
-585
476
1313
1874
2336
2769
2972
2719
2067
1337
762
290
-237
-792
-1143
-1146
-938
-787
-806
-875
-839
-716
-657
-745
-904
-1009
-1031
-1041
-1085
-1132
-1164
-1244
-1455
-1773
-2052
-2168
-2131
-2045
-1956
-1814
-1594
-1387
-1349
-1528
-1793
-1962
-1978
-1933
-1946
-2012
-2030
-1937
-1781
-1656
-1597
-1557
-1486
-1417
-1429
-1547
-1725
-1889
-2004
-2068
-2076
-2033
-1975
-1975
-2055
-2165
-2239
-2275
-2321
-2398
-2444
-2401
-2321
-2320
-2429
-2538
-2537
-2487
-2571
-2863
-3194
-3305
-3118
-2832
-2697
-2781
-2926
-2917
-2707
-2440
-2305
-2408
-2715
-3098
-3412
-3557
-3496
-3253
-2912
-2617
-2532
-2794
-3421
-4308
-5241
-5969
-6269
-6044
-5387
-4493
-3497
-2384
-1117
149
1039
1218
694
-193
-1048
-1715
-2235
-2649
-2885
-2847
-2585
-2253
-1971
-1773
-1679
-1750
-2027
-2440
-2834
-3126
-3377
-3645
-3832
-3767
-3439
-3073
-2894
-2901
-2875
-2618
-2176
-1767
-1600
-1772
-2276
-2998
-3705
-4151
-4257
-4152
-3988
-3726
-3172
-2283
-1319
-661
-464
-536
-585
-514
-474
-640
-1013
-1410
-1622
-1594
-1447
-1355
-1420
-1589
-1698
-1627
-1417
-1228
-1174
-1224
-1284
-1305
-1342
-1480
-1743
-2129
-2689
-3459
-4250
-4663
-4429
-3727
-3066
-2772
-2626
-2159
-1258
-377
-127
-667
-1598
-2417
-2961
-3412
-3968
-4611
-5171
-5524
-5719
-5917
-6294
-6942
-7795
-8633
-9219
-9419
-9246
-8776
-8062
-7143
-6079
-4941
-3766
-2561
-1364
-289
561
1250
1997
2981
4141
5181
5822
6046
6081
6178
6426
6763
7098
7368
7527
7554
7513
7523
7626
7667
7399
6744
5895
5132
4555
4042
3453
2831
2353
2101
1939
1658
1200
711
335
9
-490
-1274
-2151
-2754
-2864
-2615
-2327
-2138
-1828
-1021
460
2380
4203
5420
5884
5868
5803
5858
5772
5142
3907
2520
1545
1164
1099
998
797
647
595
494
226
-109
-328
-408
-507
-744
-1039
-1218
-1244
-1261
-1390
-1566
-1630
-1549
-1489
-1613
-1857
-1985
-1873
-1683
-1691
-1957
-2251
-2316
-2161
-2026
-2082
-2229
-2234
-2001
-1654
-1387
-1298
-1354
-1452
-1490
-1434
-1352
-1362
-1481
-1561
-1448
-1140
-819
-668
-674
-670
-529
-274
-27
117
148
134
176
323
501
564
446
256
176
259
364
319
142
23
107
332
497
472
310
178
173
222
149
-152
-604
-1180
-1121
-940
-759
-616
-492
-352
-169
60
264
310
121
-211
-481
-554
-513
-549
-733
-939
-1013
-963
-945
-1059
-1243
-1378
-1455
-1566
-1743
-1878
-1842
-1669
-1537
-1582
-1750
-1875
-1870
-1806
-1798
-1863
-1924
-1928
-1893
-1858
-1827
-1767
-1668
-1548
-1427
-1317
-1248
-1267
-1362
-1422
-1339
-1126
-936
-902
-998
-1066
-984
-783
-574
-423
-305
-183
-49
100
304
574
820
904
802
676
727
982
1259
1375
1339
1315
1428
1623
1742
1697
1536
1369
1246
1153
1061
986
971
1032
1141
1259
1387
1554
1765
1962
2084
2149
2256
2460
2703
2846
2813
2665
2544
2524
2557
2525
2374
2171
2056
2114
2281
2399
2372
2259
2212
2309
2481
2610
2662
2702
2780
2858
2869
2814
2770
2800
2889
2982
3057
3136
3251
3399
3544
3648
3688
3657
3560
3423
3287
3193
3140
3077
2952
2767
2577
2428
2311
2197
2071
1957
1865
1768
1649
1554
1544
1594
1583
1408
1116
873
793
814
776
597
348
161
76
0
-172
-432
-698
-907
-1054
-1131
-1060
-762
-273
263
750
1226
1762
2301
2653
2688
2486
2251
2084
1892
1553
1100
704
495
437
379
213
-39
-288
-483
-665
-910
-1229
-1534
-1716
-1756
-1741
-1773
-1872
-1961
-1989
-2008
-2106
-2292
-2474
-2565
-2579
-2607
-2692
-2776
-2775
-2692
-2624
-2655
-2773
-2905
-3008
-3087
-3150
-3171
-3134
-3079
-3067
-3100
-3096
-2980
-2775
-2578
-2479
-2505
-2630
-2801
-2952
-3015
-2980
-2909
-2887
-2930
-2963
-2906
-2767
-2632
-2583
-2628
-2720
-2814
-2892
-2960
-3014
-3030
-2993
-2920
-2856
-2832
-2833
-2802
-2720
-2636
-2610
-2636
-2680
-2798
-3158
-3849
-4669
-5194
-5128
-4572
-3902
-3348
-2765
-1851
-563
747
1636
1937
1822
1553
1259
954
693
599
743
1046
1365
1629
1876
2159
2422
2527
2385
2050
1674
1406
1300
1317
1386
1448
1468
1423
1308
1126
904
681
519
478
557
632
536
246
-36
-70
90
21
-694
-1950
-3055
-3272
-2482
-1264
-311
212
725
1702
3120
4432
5027
4715
3776
2690
1794
1156
672
213
-247
-617
-747
-567
-182
168
287
155
-96
-340
-566
-811
-1031
-1101
-984
-801
-739
-843
-979
-983
-835
-669
-628
-703
-762
-712
-608
-596
-742
-942
-1032
-916
-660
-412
-277
-246
-255
-247
-199
-136
-110
-167
-330
-576
-869
-1150
-1317
-1231
-806
-118
600
1143
1495
1818
2232
2619
2695
2260
1443
653
258
350
743
1185
1545
1850
2195
2635
3100
3395
3295
2739
1943
1296
1084
1279
1610
1846
1948
2026
2174
2389
2576
2593
2359
1941
1527
1275
1186
1150
1101
1069
1073
1021
833
588
476
563
662
540
181
-204
-435
-545
-693
-958
-1301
-1657
-1979
-2167
-2049
-1527
-723
110
782
1287
1699
2022
2189
2143
1911
1530
1015
431
-47
-219
-35
332
615
677
599
566
651
733
621
257
-223
-596
-744
-745
-753
-813
-824
-704
-520
-426
-450
-439
-257
30
211
161
-3
-41
130
370
471
354
111
-109
-251
-390
-639
-1014
-1360
-1444
-1170
-705
-379
-356
-467
-395
-42
354
482
325
202
387
800
1124
1177
1090
1088
1197
1251
1142
953
822
784
775
772
843
1011
1166
1161
998
832
779
785
688
424
110
-70
-43
106
228
252
213
188
197
190
146
118
158
215
163
-50
-319
-492
-574
-694
-909
-1100
-1128
-1022
-943
-952
-922
-733
-491
-451
-716
-1137
-1480
-1646
-1693
-1689
-1640
-1550
-1458
-1366
-1209
-911
-549
-329
-381
-624
-839
-903
-872
-897
-1026
-1170
-1239
-1211
-1144
-1073
-1027
-1042
-1155
-1345
-1500
-1487
-1288
-1056
-981
-1100
-1249
-1265
-1158
-1107
-1234
-1447
-1529
-1390
-1169
-1065
-1137
-1283
-1397
-1462
-1490
-1464
-1388
-1350
-1413
-1529
-1526
-1357
-1195
-1215
-1365
-1411
-1256
-1091
-1172
-1490
-1753
-1739
-1548
-1475
-1667
-1970
-2124
-2049
-1892
-1850
-1972
-2124
-2152
-2051
-1960
-1993
-2117
-2243
-2361
-2554
-2798
-2871
-2603
-2152
-1932
-2147
-2484
-2447
-1972
-1548
-1641
-2118
-2397
-2146
-1653
-1414
-1516
-1603
-1400
-1064
-928
-1045
-1188
-1168
-1061
-1038
-1164
-1377
-1599
-1707
-1541
-1109
-777
-937
-1496
-1870
-1633
-1092
-977
-1533
-2210
-2355
-1984
-1629
-1566
-1496
-1053
-389
18
16
-98
-65
-55
-417
-1167
-1955
-2492
-2812
-3090
-3331
-3408
-3281
-3076
-2918
-2719
-2288
-1586
-811
-237
56
221
481
863
1126
1027
634
271
126
92
-38
-298
-523
-637
-785
-1104
-1481
-1707
-1770
-1898
-2231
-2581
-2678
-2497
-2256
-2103
-1943
-1655
-1335
-1208
-1309
-1416
-1372
-1278
-1311
-1423
-1330
-846
-139
444
759
1001
1422
1963
2308
2284
2064
2000
2206
2417
2331
2020
1902
2274
2935
3383
3356
3089
2992
3181
3361
3215
2790
2448
2474
2815
3223
3507
3640
3669
3630
3575
3593
3708
3786
3663
3340
3033
2951
3057
3162
3141
3059
3039
3050
2958
2737
2534
2485
2507
2395
2102
1843
1851
2084
2240
2087
1722
1441
1424
1579
1678
1596
1408
1287
1324
1445
1486
1360
1140
1004
1050
1168
1166
997
831
861
1047
1139
971
656
460
502
635
649
499
310
197
178
236
412
730
1093
1333
1393
1422
1604
1926
2160
2106
1791
1415
1159
1060
1059
1102
1171
1245
1312
1404
1549
1695
1731
1631
1516
1532
1660
1734
1660
1546
1573
1751
1889
1791
1470
1123
906
817
767
711
689
735
829
925
987
994
928
778
574
378
246
197
199
215
225
234
264
337
445
533
519
363
125
-63
-107
-51
-39
-160
-336
-400
-284
-99
-26
-99
-186
-163
-68
-38
-120
-203
-166
-41
30
-17
-75
7
230
442
518
496
507
620
774
878
894
862
839
834
827
797
738
659
592
571
591
601
564
508
489
533
582
562
447
260
7
-331
-735
-1120
-1350
-1342
-1114
-775
-459
-226
-2
325
734
993
824
212
-542
-1094
-1378
-1609
-1932
-2206
-2180
-1804
-1271
-737
-166
533
1275
1814
2013
1985
1937
1929
1854
1625
1303
999
691
150
-887
-2428
-4056
-5090
-5058
-4100
-2874
-1989
-1449
-722
604
2263
3444
3501
2525
1194
122
-566
-1077
-1522
-1763
-1675
-1399
-1187
-1082
-941
-705
-608
-971
-1797
-2699
-3229
-3212
-2773
-2171
-1666
-1431
-1453
-1499
-1397
-1412
-2208
-4177
-6774
-8687
-8897
-7556
-5771
-4484
-3649
-2473
-411
2180
4290
5065
4380
2805
1109
-178
-900
-1177
-1225
-1217
-1211
-1152
-924
-510
-78
101
-168
-841
-1640
-2217
-2363
-2088
-1594
-1148
-951
-1063
-1406
-1824
-2168
-2337
-2313
-2163
-2016
-1990
-2121
-2340
-2536
-2679
-2849
-3111
-3398
-3542
-3487
-3409
-3561
-4001
-4513
-4846
-5019
-5316
-5954
-6802
-7450
-7558
-7144
-6520
-5988
-5591
-5151
-4499
-3681
-2951
-2552
-2508
-2612
-2614
-2430
-2121
-1729
-1201
-485
338
1117
1760
2275
2682
2971
3234
3736
4716
6079
7376
8224
8672
9079
9614
9973
9676
8570
7025
5645
4832
4630
4822
5115
5272
5224
5102
5092
5210
5218
4841
4047
3108
2362
1935
1732
1605
1506
1445
1395
1271
1009
660
345
140
-8
-198
-439
-632
-693
-678
-736
-930
-1171
-1312
-1304
-1219
-1129
-1027
-902
-854
-1011
-1386
-1820
-2115
-2211
-2206
-2223
-2254
-2149
-1765
-1092
-306
333
652
676
577
515
503
413
136
-299
-723
-959
-949
-768
-564
-434
-387
-382
-382
-379
-367
-334
-282
-244
-258
-289
-264
-142
32
168
227
257
319
391
389
309
258
364
628
906
1072
1153
1274
1472
1628
1581
1297
871
419
18
-268
-352
-213
55
315
522
735
986
1192
1231
1075
811
542
358
375
738
1478
2406
3218
3742
4045
4279
4454
4406
4003
3294
2486
1774
1260
957
841
842
839
736
529
303
126
-29
-246
-562
-917
-1198
-1344
-1378
-1360
-1333
-1307
-1280
-1252
-1224
-1211
-1238
-1327
-1452
-1550
-1579
-1564
-1579
-1669
-1802
-1885
-1860
-1758
-1655
-1592
-1551
-1487
-1394
-1317
-1302
-1341
-1381
-1370
-1303
-1220
-1167
-1153
-1149
-1106
-995
-830
-665
-558
-526
-516
-463
-348
-224
-158
-163
-182
-157
-61
84
254
444
660
904
1160
1386
1519
1529
1466
1428
1442
1410
1215
872
560
436
472
496
406
282
279
442
663
820
901
975
1096
1246
1392
1531
1659
1755
1793
1785
1806
1920
2120
2318
2423
2424
2390
2389
2435
2493
2527
2520
2466
2379
2300
2275
2317
2381
2413
2400
2377
2374
2387
2415
2471
2552
2602
2555
2419
2290
2250
2274
2254
2142
2016
1989
2064
2143
2145
2095
2053
2036
2000
1914
1791
1654
1503
1350
1231
1164
1114
1024
897
789
712
596
370
86
-118
-175
-183
-267
-402
-442
-318
-153
-134
-282
-443
-477
-416
-411
-523
-652
-668
-558
-416
-320
-263
-199
-136
-136
-240
-397
-516
-577
-641
-760
-897
-971
-969
-975
-1070
-1222
-1335
-1373
-1422
-1575
-1800
-1957
-1953
-1847
-1778
-1812
-1893
-1942
-1947
-1968
-2045
-2168
-2299
-2403
-2442
-2379
-2210
-1997
-1819
-1694
-1581
-1460
-1394
-1474
-1707
-1992
-2202
-2286
-2268
-2171
-1984
-1701
-1368
-1065
-850
-720
-635
-563
-490
-422
-361
-301
-221
-90
97
299
439
476
431
350
252
129
-16
-155
-259
-337
-431
-531
-556
-402
-62
338
601
625
512
496
735
1181
1660
2073
2474
2934
3394
3707
3823
3836
3824
3687
3244
2505
1753
1298
1182
1186
1101
960
934
1076
1252
1303
1225
1093
923
674
385
197
199
307
354
319
344
460
434
-14
-826
-1547
-1744
-1483
-1313
-1724
-2627
-3371
-3300
-2300
-860
379
1124
1566
2081
2800
3482
3764
3479
2792
2041
1481
1165
1006
923
888
888
863
757
598
447
305
3
-620
-1400
-1882
-1769
-1301
-1005
-1088
-1207
-918
-302
90
-133
-794
-1408
-1698
-1768
-1838
-2079
-2609
-3440
-4291
-4609
-4007
-2710
-1435
-697
-309
311
1409
2572
3121
2757
1773
708
-80
-585
-938
-1236
-1513
-1776
-1996
-2072
-1902
-1520
-1175
-1177
-1575
-2041
-2151
-1784
-1197
-745
-511
-353
-232
-357
-928
-1749
-2247
-1979
-1090
-173
304
412
588
1087
1691
1952
1634
902
140
-324
-382
-129
237
541
716
805
826
673
198
-564
-1369
-1911
-2034
-1767
-1238
-551
264
1159
1966
2386
2099
1055
-332
-1342
-1499
-970
-395
-203
-185
212
1156
2139
2450
1905
1001
335
2
-328
-850
-1307
-1312
-871
-428
-349
-538
-636
-546
-563
-998
-1704
-2167
-1994
-1295
-483
154
640
1102
1507
1683
1583
1397
1367
1490
1456
978
177
-431
-408
137
607
531
69
-137
366
1381
2260
2546
2345
2108
2155
2448
2709
2720
2474
2115
1804
1602
1494
1459
1516
1662
1814
1828
1640
1380
1269
1376
1547
1573
1408
1200
1114
1191
1332
1367
1136
599
-47
-423
-228
457
1187
1576
1651
1759
2137
2607
2740
2317
1555
883
600
713
1041
1451
1942
2527
3136
3634
3931
4028
3947
3668
3180
2547
1907
1382
1023
847
857
987
1085
990
697
371
169
70
-65
-296
-520
-618
-611
-608
-681
-782
-839
-881
-992
-1176
-1348
-1396
-1325
-1259
-1285
-1371
-1419
-1396
-1398
-1524
-1706
-1767
-1622
-1403
-1346
-1484
-1581
-1423
-1094
-924
-1104
-1470
-1703
-1707
-1705
-1938
-2348
-2621
-2523
-2161
-1878
-1884
-2046
-2084
-1925
-1795
-1936
-2262
-2442
-2313
-2116
-2187
-2494
-2623
-2305
-1802
-1634
-1970
-2442
-2585
-2353
-2074
-2028
-2181
-2339
-2410
-2402
-2294
-2036
-1728
-1610
-1805
-2129
-2267
-2113
-1874
-1809
-1928
-2041
-2022
-1942
-1936
-2013
-2065
-2024
-1971
-2011
-2093
-2070
-1869
-1611
-1468
-1462
-1430
-1264
-1041
-929
-967
-1034
-1032
-1036
-1188
-1489
-1775
-1879
-1752
-1429
-987
-529
-180
32
225
531
893
1028
744
221
-128
-77
208
390
364
337
487
699
672
212
-562
-1365
-1948
-2221
-2198
-1889
-1289
-430
570
1515
2215
2572
2614
2412
2012
1436
727
22
-512
-788
-867
-879
-911
-943
-935
-906
-914
-987
-1081
-1177
-1307
-1497
-1671
-1706
-1591
-1501
-1613
-1904
-2148
-2178
-2051
-1955
-1974
-2010
-1923
-1744
-1660
-1789
-2037
-2203
-2183
-2076
-2062
-2167
-2231
-2094
-1800
-1578
-1585
-1717
-1730
-1524
-1263
-1180
-1278
-1345
-1221
-965
-734
-576
-413
-208
-48
-2
-14
12
76
75
-6
-31
127
388
560
595
640
840
1128
1319
1371
1420
1576
1787
1968
2143
2370
2596
2672
2576
2472
2483
2481
2247
1797
1406
1299
1386
1418
1327
1276
1405
1622
1720
1629
1434
1253
1142
1147
1328
1710
2234
2838
3529
4288
4982
5433
5592
5594
5537
5327
4810
4049
3353
2969
2880
2902
2918
2949
3042
3152
3182
3087
2871
2542
2121
1685
1359
1213
1184
1145
1042
956
991
1135
1245
1180
951
735
703
853
1027
1070
983
912
984
1178
1353
1390
1295
1162
1072
1024
978
924
903
949
1020
1021
900
712
575
551
606
657
662
634
613
628
701
806
848
712
390
37
-153
-141
-83
-153
-329
-420
-279
23
278
358
312
265
278
307
297
243
172
99
31
-8
0
44
72
42
-23
-60
-27
58
128
120
15
-148
-276
-295
-197
-60
28
56
100
244
468
651
690
592
441
321
249
187
91
-44
-170
-231
-215
-203
-340
-735
-1371
-2130
-2896
-3564
-3984
-3958
-3379
-2383
-1295
-330
561
1490
2349
2810
2659
2042
1291
618
20
-521
-904
-1027
-946
-823
-717
-541
-269
-56
-63
-260
-470
-565
-572
-592
-640
-644
-561
-468
-494
-678
-902
-1023
-1135
-1701
-3206
-5538
-7737
-8593
-7677
-5739
-3947
-2726
-1461
653
3553
6197
7429
6901
5217
3342
1933
1067
465
-133
-729
-1125
-1146
-819
-345
52
254
215
-69
-516
-946
-1157
-1066
-771
-462
-311
-403
-721
-1147
-1517
-1683
-1559
-1161
-632
-220
-170
-561
-1242
-1958
-2592
-3205
-3816
-4185
-3936
-2922
-1413
83
1222
2008
2638
3203
3566
3484
2857
1864
875
193
-136
-289
-431
-532
-462
-212
31
77
-72
-264
-402
-542
-754
-983
-1100
-1069
-986
-952
-1001
-1123
-1359
-1745
-2227
-2660
-2958
-3277
-3912
-4954
-6106
-6894
-7107
-7004
-6982
-7098
-7045
-6632
-6218
-6477
-7716
-9538
-11230
-12396
-13127
-13585
-13646
-13010
-11574
-9569
-7363
-5249
-3424
-2045
-1196
-783
-587
-418
-220
27
404
1038
1982
3118
4249
5212
5925
6374
6599
6678
6718
6793
6900
7020
7181
7478
7929
8363
8515
8267
7735
7091
6347
5416
4393
3633
3434
3689
3986
4073
4113
4422
4986
5377
5165
4333
3247
2300
1648
1230
943
742
626
624
777
1060
1338
1424
1236
882
548
352
288
306
390
520
632
655
586
473
350
220
122
134
254
312
85
-433
-938
-1098
-881
-567
-424
-420
-302
79
594
964
1013
762
355
-63
-386
-569
-638
-655
-646
-577
-402
-135
153
390
523
507
334
90
-73
-59
69
144
98
37
108
327
547
625
574
536
612
752
822
744
582
480
526
672
791
800
741
729
821
956
1008
903
700
511
405
365
329
254
136
3
-113
-191
-233
-269
-322
-395
-470
-532
-594
-670
-734
-745
-714
-723
-855
-1095
-1336
-1487
-1554
-1612
-1708
-1824
-1919
-1973
-1986
-1958
-1923
-1949
-2073
-2232
-2300
-2211
-2044
-1931
-1920
-1935
-1883
-1745
-1572
-1422
-1325
-1285
-1286
-1292
-1260
-1178
-1073
-978
-887
-779
-662
-571
-504
-389
-148
215
587
825
881
845
865
1017
1229
1358
1344
1280
1335
1603
2020
2427
2690
2776
2741
2692
2705
2762
2763
2620
2378
2197
2214
2402
2614
2740
2793
2830
2859
2836
2750
2651
2583
2526
2428
2279
2133
2039
1982
1919
1819
1693
1557
1412
1265
1138
1040
959
881
838
913
1171
1588
2092
2638
3238
3902
4563
5096
5416
5532
5515
5415
5241
5005
4728
4396
3931
3253
2405
1603
1123
1106
1464
1955
2379
2713
3093
3637
4278
4758
4810
4373
3643
2913
2359
1974
1663
1381
1163
1044
1009
1011
1020
1028
1003
884
649
358
134
58
110
194
219
149
-5
-214
-440
-631
-744
-768
-732
-677
-640
-646
-700
-795
-904
-1003
-1082
-1143
-1186
-1204
-1208
-1213
-1226
-1223
-1172
-1071
-972
-939
-1002
-1139
-1300
-1447
-1564
-1661
-1752
-1838
-1893
-1880
-1785
-1643
-1523
-1479
-1514
-1587
-1645
-1662
-1660
-1684
-1764
-1885
-1991
-2029
-2003
-1968
-1984
-2054
-2130
-2167
-2186
-2245
-2363
-2479
-2505
-2415
-2281
-2207
-2231
-2298
-2321
-2267
-2186
-2161
-2237
-2375
-2485
-2513
-2487
-2478
-2513
-2536
-2485
-2389
-2359
-2458
-2608
-2653
-2548
-2421
-2461
-2715
-3012
-3115
-2921
-2527
-2131
-1872
-1745
-1633
-1423
-1115
-831
-732
-897
-1259
-1672
-2001
-2191
-2252
-2219
-2123
-1984
-1816
-1616
-1384
-1155
-995
-967
-1068
-1229
-1355
-1377
-1282
-1108
-902
-707
-536
-361
-158
57
203
176
-83
-538
-1061
-1474
-1602
-1329
-661
273
1305
2317
3291
4232
5071
5674
5917
5784
5372
4840
4328
3914
3609
3370
3158
2971
2845
2794
2774
2699
2515
2222
1872
1508
1153
826
563
389
262
85
-206
-568
-819
-813
-597
-385
-359
-493
-602
-573
-511
-602
-879
-1156
-1208
-970
-557
-132
199
402
491
523
583
712
864
937
895
810
798
897
1031
1097
1084
1075
1136
1221
1212
1054
856
750
745
689
439
34
-336
-515
-512
-413
-242
61
553
1217
1952
2611
3029
3100
2886
2638
2612
2850
3157
3317
3336
3422
3740
4204
4527
4453
3941
3109
2082
902
-365
-1461
-1996
-1748
-905
61
814
1427
2180
3124
3896
4033
3410
2342
1311
602
218
31
-57
-69
-11
100
218
319
408
482
499
365
21
-426
-736
-736
-479
-187
-43
-54
-130
-222
-343
-477
-542
-482
-359
-288
-323
-429
-555
-690
-821
-872
-790
-640
-570
-653
-778
-764
-580
-389
-370
-514
-635
-580
-378
-201
-160
-202
-202
-133
-88
-167
-329
-406
-286
-55
91
89
84
273
645
972
1040
896
780
838
964
964
801
641
654
818
983
1082
1189
1381
1602
1699
1603
1417
1313
1354
1447
1448
1329
1201
1198
1349
1562
1707
1725
1635
1505
1411
1388
1429
1477
1472
1411
1371
1419
1542
1638
1624
1518
1418
1389
1382
1288
1086
872
781
854
994
1051
970
827
727
704
699
663
624
623
640
585
422
260
245
387
527
494
299
111
65
137
199
164
53
-68
-139
-135
-80
-34
-51
-126
-185
-165
-85
-34
-54
-113
-141
-130
-152
-256
-428
-602
-730
-816
-885
-957
-1035
-1079
-1038
-925
-803
-748
-774
-816
-803
-768
-785
-887
-1008
-1055
-994
-868
-747
-632
-496
-350
-250
-223
-210
-111
86
243
221
49
-77
31
305
475
340
-12
-292
-310
-166
-114
-283
-558
-723
-696
-558
-439
-385
-376
-384
-431
-528
-637
-695
-701
-710
-787
-964
-1177
-1305
-1274
-1151
-1147
-1437
-1960
-2422
-2566
-2427
-2247
-2162
-1995
-1452
-511
531
1369
1965
2464
2881
3036
2803
2298
1804
1424
1047
568
107
-86
41
248
272
105
-49
-66
-63
-234
-572
-882
-1013
-1035
-1127
-1324
-1495
-1526
-1483
-1536
-1717
-1841
-1720
-1386
-1059
-879
-768
-578
-350
-280
-473
-802
-1060
-1230
-1458
-1817
-2153
-2252
-2118
-1970
-2002
-2160
-2249
-2159
-2015
-2028
-2243
-2536
-2745
-2819
-2855
-2933
-3032
-3040
-2919
-2811
-2924
-3295
-3725
-3959
-3977
-4019
-4283
-4668
-4908
-4895
-4805
-4841
-4979
-5039
-4983
-4989
-5177
-5404
-5406
-5138
-4869
-4840
-4988
-5007
-4738
-4338
-4080
-4049
-4102
-4100
-4038
-3954
-3825
-3624
-3412
-3283
-3201
-3055
-2834
-2675
-2661
-2636
-2381
-1929
-1554
-1400
-1261
-856
-238
248
440
630
1173
2006
2672
2882
2867
3057
3552
4028
4160
3977
3772
3773
3971
4228
4442
4566
4611
4647
4757
4943
5106
5137
5061
4991
4995
5046
5077
5097
5151
5241
5309
5308
5260
5227
5224
5226
5207
5179
5159
5147
5129
5092
5039
4963
4843
4690
4558
4502
4531
4590
4615
4588
4536
4486
4444
4396
4333
4246
4131
3999
3874
3788
3735
3679
3589
3479
3392
3335
3274
3172
3036
2913
2824
2741
2642
2550
2493
2449
2360
2198
2002
1844
1726
1597
1430
1283
1243
1321
1430
1471
1416
1323
1264
1261
1285
1280
1206
1060
905
839
925
1121
1301
1370
1359
1367
1438
1504
1471
1329
1154
996
839
670
537
495
513
505
427
340
310
306
243
103
-37
-101
-87
-35
53
200
365
488
589
770
1043
1236
1172
905
693
679
680
389
-246
-930
-1349
-1474
-1486
-1470
-1283
-769
-4
772
1383
1839
2199
2416
2378
2057
1568
1057
586
156
-204
-411
-428
-366
-432
-762
-1306
-1865
-2239
-2359
-2290
-2136
-1933
-1649
-1252
-778
-356
-149
-289
-791
-1525
-2253
-2754
-2930
-2840
-2620
-2368
-2076
-1680
-1171
-659
-309
-230
-407
-728
-1083
-1416
-1680
-1812
-1773
-1607
-1439
-1360
-1351
-1307
-1167
-983
-883
-985
-1327
-1866
-2484
-3019
-3319
-3309
-3037
-2629
-2215
-1853
-1488
-1039
-501
-21
160
-120
-825
-1756
-2712
-3565
-4199
-4443
-4188
-3524
-2704
-1907
-1071
-74
949
1600
1571
982
245
-363
-895
-1489
-2069
-2392
-2356
-2131
-1944
-1813
-1597
-1257
-957
-882
-1040
-1307
-1587
-1851
-2030
-1987
-1680
-1298
-1136
-1316
-1689
-2023
-2251
-2436
-2579
-2541
-2224
-1766
-1429
-1311
-1248
-1041
-728
-558
-685
-971
-1152
-1142
-1084
-1120
-1179
-1068
-744
-404
-262
-339
-463
-500
-487
-540
-686
-825
-853
-757
-609
-473
-351
-226
-123
-92
-149
-216
-193
-79
30
22
-119
-297
-418
-486
-587
-789
-1098
-1484
-1954
-2607
-3596
-4992
-6628
-8108
-9043
-9378
-9444
-9643
-10043
-10347
-10272
-9907
-9627
-9679
-9955
-10151
-10093
-9814
-9376
-8738
-7876
-6923
-6070
-5343
-4552
-3563
-2504
-1626
-974
-270
816
2271
3708
4734
5309
5705
6129
6485
6516
6136
5575
5177
5094
5205
5301
5307
5308
5387
5491
5498
5368
5210
5152
5157
5026
4567
3798
2951
2315
2010
1951
1951
1890
1787
1746
1834
2029
2215
2259
2086
1709
1242
839
609
555
609
706
816
915
958
910
781
601
340
-65
-583
-1021
-1131
-816
-201
515
1216
1898
2570
3177
3621
3838
3820
3612
3280
2899
2516
2148
1809
1557
1468
1545
1686
1762
1722
1616
1524
1456
1357
1184
961
770
679
679
700
687
649
642
703
801
861
832
731
625
574
583
614
617
578
525
509
547
605
637
632
615
607
595
568
548
560
588
586
534
475
461
487
507
505
525
611
722
772
714
581
434
297
159
11
-130
-247
-332
-373
-348
-256
-148
-98
-143
-248
-337
-376
-393
-432
-505
-587
-636
-626
-551
-445
-369
-384
-498
-656
-787
-855
-868
-848
-815
-782
-750
-694
-570
-360
-108
107
235
276
238
116
-74
-253
-335
-323
-304
-342
-384
-325
-156
19
114
178
322
550
719
701
555
474
577
780
896
827
661
572
653
857
1060
1175
1209
1224
1254
1275
1227
1070
825
547
286
65
-106
-175
-69
229
643
1041
1329
1507
1622
1707
1752
1735
1642
1496
1358
1317
1431
1652
1832
1857
1780
1771
1929
2160
2267
2164
1968
1865
1928
2082
2217
2299
2351
2384
2390
2383
2398
2449
2492
2464
2338
2145
1929
1708
1470
1201
909
624
386
222
132
96
73
22
-78
-206
-327
-424
-519
-647
-803
-926
-952
-881
-774
-678
-588
-474
-342
-250
-237
-288
-357
-421
-498
-594
-679
-721
-728
-724
-704
-634
-515
-401
-344
-344
-353
-358
-394
-489
-616
-733
-873
-1148
-1633
-2252
-2783
-2974
-2713
-2108
-1421
-899
-594
-353
-18
355
501
202
-467
-1169
-1579
-1595
-1305
-821
-205
462
1040
1405
1550
1536
1373
994
364
-408
-1113
-1579
-1779
-1807
-1766
-1716
-1693
-1739
-1875
-2081
-2306
-2510
-2682
-2863
-3154
-3666
-4417
-5248
-5878
-6095
-5945
-5679
-5476
-5247
-4750
-3912
-2967
-2270
-1964
-1890
-1808
-1629
-1422
-1260
-1133
-1001
-857
-744
-690
-640
-555
-485
-517
-663
-840
-937
-927
-880
-834
-821
-1010
-1753
-3314
-5450
-7345
-8165
-7744
-6648
-5504
-4349
-2724
-375
2266
4364
5369
5341
4688
3757
2735
1792
1100
702
474
290
235
519
1153
1857
2260
2197
1806
1384
1133
1075
1141
1267
1425
1599
1737
1749
1593
1350
1155
1085
1088
1007
716
217
-335
-720
-789
-621
-517
-751
-1268
-1681
-1649
-1245
-886
-857
-974
-820
-201
650
1386
1866
2129
2152
1833
1180
395
-293
-851
-1385
-1904
-2237
-2190
-1808
-1368
-1117
-1072
-1107
-1140
-1225
-1443
-1778
-2138
-2491
-2893
-3322
-3590
-3510
-3143
-2778
-2597
-2432
-1969
-1185
-451
-142
-213
-311
-223
-89
-143
-388
-584
-516
-204
150
395
541
696
907
1086
1036
641
26
-538
-901
-1168
-1463
-1617
-1256
-265
1011
2113
2953
3815
4857
5793
6159
5835
5144
4446
3812
3120
2377
1796
1559
1622
1808
1996
2136
2171
2050
1868
1828
1981
2116
1977
1589
1291
1323
1477
1309
669
-56
-307
61
651
989
1002
981
1177
1521
1755
1680
1278
663
26
-396
-441
-205
-12
-97
-329
-327
93
633
771
331
-313
-640
-603
-730
-1592
-3147
-4613
-5116
-4463
-3304
-2516
-2396
-2384
-1686
-110
1711
2877
3025
2595
2307
2483
2891
3147
3136
3022
2966
2945
2843
2628
2379
2162
1934
1608
1176
746
482
464
620
735
592
117
-541
-1144
-1553
-1800
-1969
-2053
-1988
-1744
-1439
-1208
-1076
-993
-921
-863
-806
-727
-642
-602
-632
-647
-554
-387
-269
-259
-272
-214
-139
-168
-289
-332
-202
-18
19
-104
-205
-152
-26
20
-30
-72
-65
-75
-141
-172
-72
101
177
107
32
110
302
431
410
342
343
420
470
415
289
160
54
-64
-223
-393
-504
-549
-570
-617
-705
-786
-823
-826
-860
-942
-1027
-1066
-1070
-1116
-1216
-1304
-1315
-1286
-1340
-1513
-1712
-1794
-1705
-1521
-1359
-1267
-1201
-1111
-994
-891
-836
-843
-919
-1069
-1261
-1416
-1452
-1373
-1252
-1169
-1102
-944
-686
-469
-452
-612
-762
-755
-629
-562
-629
-717
-654
-418
-161
-16
30
80
182
265
251
159
87
87
138
189
228
277
330
343
305
274
301
325
230
34
-82
16
223
291
120
-88
-66
165
333
233
-17
-139
-32
162
287
329
332
282
150
5
-32
42
72
-52
-217
-216
-29
106
-15
-293
-439
-318
-120
-115
-319
-478
-384
-107
110
134
64
69
159
202
139
46
3
-13
-92
-218
-246
-85
150
247
129
-50
-75
74
208
152
-60
-231
-220
-83
21
-12
-144
-260
-315
-354
-438
-580
-755
-942
-1140
-1324
-1443
-1467
-1421
-1355
-1328
-1359
-1443
-1577
-1785
-2071
-2410
-2740
-2963
-3001
-2866
-2678
-2542
-2407
-2096
-1500
-751
-125
240
468
754
1075
1184
918
420
14
-158
-275
-578
-1024
-1326
-1272
-966
-728
-761
-981
-1186
-1274
-1324
-1456
-1685
-1928
-2121
-2262
-2357
-2372
-2267
-2089
-1971
-2008
-2166
-2298
-2308
-2240
-2205
-2240
-2276
-2248
-2173
-2123
-2128
-2132
-2063
-1925
-1805
-1777
-1816
-1792
-1607
-1309
-1055
-943
-892
-714
-314
197
604
802
886
1021
1265
1522
1662
1658
1607
1624
1740
1888
1971
1938
1824
1732
1739
1840
1941
1951
1862
1778
1809
1967
2138
2191
2107
1992
1961
2026
2103
2113
2069
2035
2052
2113
2184
2254
2318
2357
2358
2339
2339
2384
2456
2519
2557
2575
2585
2586
2576
2557
2531
2493
2440
2384
2346
2343
2360
2372
2372
2377
2402
2433
2445
2439
2440
2457
2457
2396
2281
2171
2123
2133
2147
2134
2116
2133
2188
2240
2249
2204
2117
1991
1811
1580
1340
1142
1005
909
831
797
869
1054
1252
1328
1246
1122
1109
1218
1298
1210
995
836
862
1011
1108
1047
874
701
587
511
429
334
247
182
140
119
123
139
140
104
34
-53
-141
-223
-293
-330
-323
-280
-222
-181
-177
-209
-265
-321
-347
-324
-259
-196
-169
-168
-148
-80
14
76
60
-22
-131
-251
-407
-644
-986
-1409
-1838
-2145
-2180
-1852
-1220
-507
27
262
294
346
547
802
885
650
200
-171
-227
27
358
513
408
148
-126
-361
-579
-795
-985
-1135
-1264
-1382
-1439
-1379
-1232
-1133
-1219
-1514
-1922
-2297
-2522
-2516
-2240
-1735
-1128
-526
65
694
1301
1703
1789
1670
1548
1396
885
-263
-1879
-3390
-4269
-4433
-4148
-3649
-2936
-1930
-688
589
1693
2468
2785
2545
1813
873
61
-477
-839
-1170
-1462
-1567
-1395
-1049
-752
-653
-752
-957
-1188
-1411
-1588
-1649
-1546
-1316
-1081
-944
-917
-941
-977
-1034
-1112
-1153
-1084
-908
-720
-616
-596
-577
-501
-394
-328
-311
-272
-139
56
202
242
240
293
409
500
501
456
446
472
452
356
269
286
384
442
396
329
368
525
690
766
769
775
818
857
857
843
864
921
965
957
930
958
1078
1245
1371
1407
1424
1576
1942
2419
2807
2987
3002
2922
2674
2077
1064
-242
-1748
-3595
-5997
-8814
-11448
-13292
-14270
-14816
-15285
-15519
-15113
-14020
-12694
-11601
-10726
-9704
-8372
-7012
-5981
-5247
-4423
-3247
-1908
-832
-217
129
516
1051
1590
1950
2104
2163
2229
2331
2468
2647
2847
2985
2973
2809
2605
2510
2592
2808
3083
3362
3614
3786
3822
3728
3614
3620
3792
4057
4313
4536
4779
5078
5366
5542
5570
5521
5491
5504
5512
5463
5344
5167
4942
4672
4375
4078
3797
3533
3277
3032
2817
2660
2569
2529
2495
2410
2253
2050
1849
1665
1480
1284
1109
1000
958
936
891
832
801
808
803
730
578
400
252
142
30
-129
-326
-505
-614
-661
-702
-776
-845
-841
-753
-658
-646
-710
-756
-710
-592
-483
-443
-449
-442
-389
-308
-225
-157
-114
-95
-82
-45
28
107
142
106
25
-43
-67
-75
-120
-200
-238
-126
182
660
1233
1851
2495
3148
3737
4159
4338
4272
4029
3710
3377
3039
2692
2377
2182
2178
2341
2551
2681
2679
2574
2412
2197
1916
1574
1214
885
617
404
230
87
-23
-111
-193
-296
-435
-600
-749
-844
-885
-907
-941
-981
-987
-933
-852
-784
-731
-662
-557
-436
-324
-230
-150
-95
-80
-96
-123
-159
-204
-218
-119
135
466
729
875
995
1200
1457
1616
1580
1417
1278
1243
1278
1333
1406
1509
1613
1676
1691
1688
1690
1677
1625
1547
1466
1384
1292
1207
1163
1170
1184
1151
1050
910
776
674
604
559
538
542
571
618
675
744
828
932
1067
1229
1398
1546
1645
1694
1716
1744
1792
1859
1943
2052
2182
2287
2284
2114
1809
1497
1340
1429
1732
2132
2527
2913
3365
3917
4471
4832
4856
4563
4112
3661
3278
2963
2709
2523
2407
2332
2274
2243
2245
2253
2209
2075
1867
1644
1463
1359
1350
1421
1513
1545
1468
1304
1116
949
814
716
685
731
812
845
794
707
668
701
742
717
615
489
384
296
195
77
-27
-92
-128
-175
-270
-418
-596
-769
-916
-1048
-1191
-1359
-1523
-1639
-1690
-1699
-1704
-1728
-1771
-1831
-1906
-1988
-2068
-2133
-2178
-2208
-2259
-2411
-2738
-3205
-3626
-3779
-3590
-3213
-2872
-2635
-2368
-1905
-1269
-681
-376
-423
-703
-1036
-1297
-1457
-1549
-1624
-1709
-1793
-1838
-1818
-1747
-1678
-1673
-1765
-1928
-2092
-2173
-2128
-1991
-1832
-1704
-1610
-1537
-1492
-1510
-1599
-1707
-1777
-1801
-1846
-1971
-2163
-2345
-2461
-2527
-2566
-2530
-2305
-1834
-1184
-493
154
768
1377
1934
2341
2542
2570
2500
2378
2211
1993
1745
1516
1358
1297
1307
1326
1319
1313
1356
1445
1509
1495
1445
1446
1503
1513
1369
1113
923
943
1111
1182
965
540
256
452
1127
1894
2255
2005
1335
600
28
-335
-496
-416
-70
473
1134
1955
3028
4271
5303
5693
5328
4503
3641
2933
2297
1637
1044
717
729
957
1211
1419
1610
1757
1729
1427
928
432
85
-114
-222
-238
-144
-32
-77
-343
-659
-770
-639
-552
-840
-1551
-2373
-2919
-3047
-2909
-2748
-2646
-2454
-1988
-1282
-647
-430
-681
-1115
-1410
-1520
-1681
-2113
-2751
-3296
-3493
-3330
-2982
-2624
-2311
-1973
-1513
-953
-492
-365
-612
-992
-1176
-1056
-821
-709
-717
-602
-171
500
1131
1512
1667
1769
1921
2046
1997
1744
1440
1303
1441
1766
2108
2367
2567
2757
2912
2957
2854
2654
2458
2330
2246
2096
1778
1344
999
980
1315
1756
2030
2142
2326
2670
2894
2610
1793
882
355
264
290
198
104
278
784
1407
1846
1941
1716
1270
715
174
-272
-599
-794
-844
-745
-514
-205
119
382
496
393
117
-193
-403
-494
-520
-504
-430
-299
-159
-67
-54
-112
-212
-283
-257
-158
-91
-95
-59
142
436
537
235
-350
-899
-1273
-1606
-2056
-2542
-2797
-2655
-2237
-1799
-1491
-1323
-1247
-1234
-1263
-1297
-1349
-1507
-1843
-2281
-2557
-2448
-2013
-1572
-1416
-1531
-1618
-1424
-1021
-733
-772
-1033
-1215
-1144
-921
-746
-709
-757
-822
-897
-1006
-1108
-1117
-976
-704
-349
73
579
1188
1889
2586
3151
3480
3584
3564
3504
3381
3109
2693
2292
2075
2065
2124
2085
1889
1599
1317
1110
970
830
616
346
134
110
272
458
494
361
175
29
-97
-258
-446
-608
-727
-832
-913
-887
-729
-547
-496
-597
-722
-769
-781
-849
-961
-1000
-927
-881
-979
-1139
-1160
-995
-840
-870
-1019
-1071
-975
-909
-1004
-1132
-1075
-877
-826
-1058
-1331
-1306
-974
-662
-628
-794
-892
-783
-563
-400
-327
-299
-282
-273
-242
-175
-112
-133
-233
-291
-167
129
433
600
599
501
400
346
324
256
99
-50
-27
177
300
85
-325
-384
251
1167
1480
774
-361
-900
-500
147
137
-677
-1566
-1779
-1280
-647
-342
-355
-389
-294
-150
-45
57
200
299
245
60
-79
-27
146
263
250
246
407
670
796
676
483
477
694
922
960
830
693
621
548
408
256
180
197
255
292
284
238
144
19
-83
-122
-129
-199
-373
-578
-703
-686
-626
-680
-787
-1070
-1093
-946
-862
-1045
-1392
-1592
-1485
-1276
-1312
-1668
-2066
-2197
-2082
-1974
-2000
-2034
-1955
-1866
-1961
-2240
-2457
-2432
-2317
-2387
-2666
-2898
-2841
-2576
-2383
-2417
-2547
-2523
-2260
-1907
-1682
-1677
-1797
-1851
-1781
-1672
-1640
-1696
-1727
-1654
-1539
-1480
-1440
-1281
-1022
-870
-983
-1250
-1352
-1156
-884
-854
-1084
-1276
-1182
-879
-648
-641
-707
-608
-315
-52
-47
-285
-530
-553
-354
-178
-253
-553
-834
-866
-670
-471
-466
-644
-826
-848
-690
-483
-340
-199
177
969
2119
3297
4171
4689
5063
5500
5968
6232
6092
5592
4977
4508
4293
4240
4175
3969
3632
3307
3128
3089
3062
2917
2662
2437
2356
2398
2423
2316
2093
1871
1746
1694
1617
1456
1272
1182
1237
1371
1458
1468
1464
1507
1570
1565
1470
1381
1428
1602
1755
1750
1609
1473
1453
1517
1568
1562
1516
1452
1383
1354
1431
1607
1733
1635
1308
937
716
660
600
383
32
-271
-361
-215
22
166
140
32
-4
90
228
271
182
43
-44
-74
-84
-66
28
195
342
374
320
310
416
553
546
317
-18
-245
-251
-129
-72
-166
-302
-296
-92
164
272
161
-69
-265
-357
-383
-412
-471
-544
-593
-567
-443
-261
-124
-108
-194
-281
-287
-235
-219
-279
-372
-435
-459
-483
-533
-592
-637
-674
-723
-768
-770
-719
-662
-651
-687
-718
-706
-663
-629
-633
-666
-702
-718
-713
-692
-673
-677
-693
-688
-634
-556
-517
-544
-603
-636
-630
-627
-665
-730
-779
-803
-831
-884
-927
-916
-866
-851
-916
-1021
-1083
-1074
-1042
-1056
-1135
-1235
-1323
-1396
-1452
-1462
-1409
-1322
-1259
-1250
-1268
-1254
-1191
-1183
-1435
-2150
-3378
-4898
-6275
-7072
-7094
-6465
-5488
-4413
-3307
-2108
-794
477
1402
1707
1334
502
-414
-1086
-1382
-1378
-1258
-1181
-1201
-1245
-1215
-1114
-1066
-1203
-1549
-1992
-2362
-2552
-2558
-2426
-2217
-2017
-1943
-2076
-2404
-2806
-3099
-3141
-2931
-2641
-2507
-2629
-2889
-3084
-3107
-3022
-2960
-2952
-2929
-2839
-2706
-2607
-2590
-2664
-2845
-3188
-3735
-4379
-4817
-4670
-3770
-2329
-805
446
1445
2446
3528
4414
4694
4206
3163
1956
900
136
-299
-444
-446
-487
-638
-793
-808
-701
-669
-884
-1336
-1851
-2244
-2457
-2535
-2534
-2501
-2519
-2693
-3075
-3582
-4023
-4249
-4251
-4120
-3922
-3662
-3379
-3188
-3183
-3331
-3523
-3726
-4041
-4565
-5233
-5816
-6147
-6265
-6343
-6497
-6705
-6907
-7118
-7410
-7820
-8293
-8733
-9094
-9382
-9593
-9680
-9590
-9302
-8857
-8340
-7828
-7347
-6872
-6359
-5804
-5237
-4685
-4127
-3527
-2893
-2288
-1756
-1266
-739
-156
399
838
1166
1478
1849
2260
2625
2887
3058
3187
3287
3336
3323
3277
3267
3324
3416
3460
3399
3271
3178
3177
3224
3234
3200
3196
3283
3417
3511
3560
3640
3778
3865
3743
3393
2987
2750
2792
3085
3550
4130
4773
5409
5991
6525
7015
7381
7476
7219
6707
6165
5794
5642
5620
5591
5501
5383
5316
5333
5376
5342
5164
4882
4578
4300
4048
3837
3710
3671
3613
3394
2984
2521
2182
2003
1853
1608
1294
1057
992
1032
1032
930
796
730
735
721
619
474
375
340
300
180
5
-127
-167
-172
-238
-391
-579
-744
-888
-1028
-1141
-1194
-1215
-1281
-1422
-1578
-1655
-1655
-1667
-1749
-1832
-1799
-1637
-1481
-1468
-1575
-1634
-1512
-1256
-1049
-1019
-1114
-1171
-1084
-902
-770
-782
-909
-1043
-1099
-1089
-1092
-1165
-1280
-1365
-1379
-1365
-1401
-1493
-1579
-1607
-1627
-1714
-1875
-2008
-2021
-1956
-1961
-2129
-2386
-2563
-2575
-2487
-2449
-2534
-2671
-2725
-2626
-2451
-2356
-2416
-2562
-2661
-2673
-2688
-2793
-2943
-2980
-2792
-2395
-1879
-1294
-636
69
737
1265
1630
1876
2045
2118
2054
1844
1534
1208
946
803
774
776
702
506
266
118
127
218
269
252
269
426
710
998
1178
1250
1281
1303
1292
1223
1129
1077
1096
1155
1217
1264
1305
1343
1349
1304
1219
1141
1117
1156
1220
1280
1345
1440
1568
1694
1781
1836
1886
1921
1905
1839
1788
1833
1970
2113
2180
2176
2169
2204
2266
2306
2307
2295
2316
2385
2467
2495
2433
2315
2219
2193
2196
2143
1998
1823
1711
1690
1707
1701
1657
1599
1537
1454
1337
1212
1124
1091
1084
1059
994
919
872
844
786
667
517
401
349
346
369
417
491
564
611
653
729
825
849
730
508
305
183
93
-31
-164
-211
-131
3
90
113
148
242
340
343
208
-12
-214
-348
-425
-480
-526
-546
-527
-482
-442
-438
-474
-524
-576
-643
-756
-929
-1127
-1282
-1347
-1342
-1333
-1364
-1421
-1459
-1477
-1519
-1615
-1728
-1793
-1801
-1814
-1883
-1980
-2028
-1998
-1940
-1912
-1916
-1918
-1914
-1942
-2021
-2113
-2160
-2151
-2124
-2114
-2116
-2102
-2061
-2014
-1992
-2014
-2082
-2181
-2283
-2364
-2434
-2539
-2696
-2853
-2928
-2899
-2837
-2831
-2899
-2982
-3022
-3041
-3099
-3205
-3289
-3278
-3181
-3073
-3007
-2955
-2878
-2820
-2921
-3284
-3833
-4317
-4502
-4348
-4013
-3669
-3333
-2898
-2293
-1593
-991
-652
-620
-814
-1101
-1367
-1566
-1715
-1847
-1958
-2005
-1953
-1834
-1717
-1627
-1520
-1360
-1176
-1048
-992
-912
-719
-472
-344
-445
-690
-891
-971
-1007
-1032
-885
-320
671
1727
2344
2259
1635
920
539
663
1162
1746
2203
2605
3252
4361
5746
6870
7265
6884
6064
5182
4405
3734
3158
2692
2304
1913
1535
1319
1385
1628
1766
1570
1079
533
168
67
161
309
370
253
-35
-394
-706
-916
-1045
-1167
-1392
-1838
-2547
-3358
-3951
-4086
-3826
-3455
-3161
-2838
-2244
-1346
-427
166
314
152
-138
-488
-877
-1214
-1374
-1344
-1254
-1241
-1280
-1218
-961
-609
-378
-391
-551
-661
-607
-427
-209
-6
176
301
305
199
89
91
221
378
456
447
415
390
348
273
203
185
209
220
215
267
418
593
648
525
319
157
69
-33
-231
-494
-710
-797
-754
-634
-489
-322
-100
163
355
354
132
-199
-522
-869
-1355
-1949
-2375
-2341
-1870
-1295
-909
-670
-339
160
591
668
359
-107
-496
-742
-887
-944
-891
-746
-590
-482
-408
-324
-221
-136
-113
-147
-198
-205
-113
115
442
768
973
1003
907
794
747
758
772
767
771
799
818
793
743
710
681
573
377
234
318
600
810
725
435
262
385
611
607
275
-178
-512
-726
-990
-1386
-1805
-2090
-2207
-2249
-2283
-2290
-2227
-2092
-1928
-1788
-1716
-1750
-1878
-2006
-1997
-1786
-1442
-1109
-897
-759
-546
-159
321
671
731
572
429
457
565
558
411
332
502
802
916
709
435
442
742
983
878
554
394
575
863
931
765
636
720
889
923
795
667
632
570
303
-172
-689
-1093
-1351
-1479
-1446
-1198
-720
-38
796
1697
2527
3145
3513
3717
3823
3779
3480
2933
2322
1847
1553
1339
1101
856
700
670
688
651
523
342
148
-44
-210
-298
-292
-252
-271
-365
-433
-374
-210
-89
-105
-193
-224
-145
-27
40
48
47
58
58
27
-32
-112
-221
-345
-444
-496
-526
-563
-579
-506
-352
-242
-292
-485
-678
-753
-734
-735
-797
-843
-796
-678
-579
-531
-477
-377
-318
-412
-637
-811
-786
-625
-520
-579
-696
-684
-518
-373
-425
-646
-848
-897
-852
-863
-970
-1064
-1027
-885
-762
-723
-709
-645
-558
-544
-625
-695
-668
-597
-607
-728
-852
-903
-970
-1182
-1487
-1643
-1494
-1182
-987
-996
-996
-764
-360
-64
-72
-300
-529
-668
-787
-970
-1193
-1371
-1474
-1552
-1667
-1832
-1997
-2077
-2014
-1834
-1661
-1610
-1652
-1642
-1494
-1308
-1269
-1425
-1631
-1720
-1679
-1623
-1615
-1606
-1521
-1364
-1203
-1084
-1020
-1032
-1149
-1330
-1441
-1384
-1195
-1036
-1015
-1058
-1005
-816
-632
-633
-835
-1068
-1165
-1127
-1092
-1138
-1169
-1058
-807
-575
-511
-568
-561
-377
-119
3
-99
-302
-417
-386
-314
-310
-361
-378
-331
-296
-338
-408
-391
-269
-168
-224
-423
-592
-604
-515
-480
-566
-663
-598
-355
-72
105
173
236
337
437
497
529
593
709
862
1041
1252
1475
1656
1771
1867
2001
2155
2245
2233
2211
2304
2520
2727
2805
2779
2788
2930
3120
3174
2994
2682
2463
2469
2598
2665
2578
2426
2348
2364
2358
2205
1894
1527
1206
987
888
936
1156
1561
2134
2827
3568
4286
4898
5331
5529
5468
5177
4713
4145
3563
3061
2709
2501
2381
2297
2235
2197
2153
2063
1927
1774
1623
1451
1251
1080
1025
1097
1196
1205
1102
964
858
770
659
520
409
374
394
408
395
406
493
616
655
538
325
147
56
-27
-202
-437
-591
-578
-470
-393
-383
-371
-297
-191
-120
-108
-145
-231
-380
-553
-655
-627
-519
-446
-460
-509
-512
-454
-396
-405
-493
-621
-749
-846
-912
-960
-1007
-1052
-1067
-1040
-998
-978
-1003
-1055
-1100
-1125
-1153
-1212
-1320
-1464
-1591
-1639
-1601
-1558
-1610
-1746
-1830
-1730
-1467
-1211
-1105
-1111
-1085
-952
-793
-748
-840
-957
-1011
-1034
-1120
-1278
-1381
-1311
-1092
-896
-861
-932
-954
-850
-712
-678
-761
-836
-811
-743
-740
-808
-828
-717
-545
-451
-472
-506
-453
-331
-218
-147
-91
-43
-48
-128
-216
-222
-156
-117
-176
-293
-371
-373
-366
-415
-520
-631
-741
-896
-1102
-1288
-1367
-1339
-1313
-1375
-1485
-1546
-1553
-1649
-1968
-2434
-2787
-2844
-2676
-2508
-2459
-2413
-2172
-1695
-1151
-759
-607
-640
-737
-823
-894
-1008
-1249
-1654
-2145
-2550
-2714
-2625
-2403
-2163
-1915
-1595
-1185
-763
-424
-188
-32
26
-74
-343
-674
-900
-953
-892
-813
-729
-577
-325
-43
150
194
122
18
-64
-103
-90
-12
132
293
395
388
286
175
121
98
30
-126
-331
-520
-662
-760
-817
-837
-855
-930
-1080
-1221
-1250
-1171
-1110
-1213
-1516
-1917
-2272
-2443
-2321
-1818
-903
367
1851
3393
4876
6206
7242
7772
7600
6696
5255
3568
1824
32
-1851
-3740
-5407
-6678
-7633
-8567
-9711
-10988
-12060
-12616
-12623
-12287
-11805
-11171
-10222
-8853
-7176
-5455
-3942
-2753
-1860
-1143
-439
392
1372
2381
3267
3991
4633
5258
5785
6064
6057
5885
5699
5508
5216
4792
4326
3945
3697
3542
3427
3314
3161
2929
2636
2374
2232
2184
2085
1789
1306
831
620
812
1326
1935
2436
2797
3120
3503
3919
4213
4218
3875
3274
2618
2112
1852
1765
1688
1524
1326
1199
1164
1101
891
552
212
-50
-272
-530
-792
-952
-965
-928
-988
-1188
-1434
-1617
-1706
-1744
-1766
-1750
-1665
-1526
-1400
-1372
-1504
-1817
-2245
-2633
-2806
-2699
-2411
-2113
-1881
-1631
-1241
-713
-195
137
214
92
-140
-406
-632
-745
-710
-573
-429
-324
-214
-17
281
595
835
967
1014
1027
1049
1124
1286
1504
1694
1773
1732
1641
1587
1601
1654
1689
1669
1602
1521
1456
1397
1314
1196
1073
985
920
826
677
526
453
454
436
314
114
-46
-93
-64
-58
-126
-238
-334
-388
-413
-443
-497
-580
-675
-756
-816
-880
-967
-1060
-1123
-1157
-1202
-1294
-1412
-1493
-1501
-1441
-1336
-1205
-1064
-948
-879
-843
-805
-760
-749
-796
-856
-841
-706
-500
-331
-258
-248
-216
-115
23
111
99
19
-40
-19
67
168
254
322
367
380
374
403
498
611
665
642
619
671
762
793
742
707
785
934
1005
911
723
580
527
491
405
313
342
598
1094
1763
2505
3215
3817
4293
4653
4887
4938
4757
4369
3883
3416
3044
2788
2632
2532
2439
2336
2273
2310
2429
2512
2429
2177
1898
1745
1735
1746
1655
1472
1318
1285
1329
1335
1255
1160
1137
1181
1209
1168
1108
1100
1138
1154
1119
1084
1118
1211
1297
1324
1317
1333
1386
1448
1490
1498
1467
1388
1266
1130
1013
916
815
706
619
587
585
546
422
236
59
-63
-149
-255
-400
-534
-583
-519
-390
-302
-355
-569
-868
-1124
-1264
-1313
-1354
-1426
-1478
-1426
-1259
-1058
-927
-899
-945
-1029
-1152
-1316
-1492
-1625
-1684
-1684
-1660
-1622
-1553
-1441
-1312
-1224
-1230
-1343
-1505
-1642
-1704
-1700
-1683
-1702
-1745
-1765
-1730
-1653
-1569
-1496
-1421
-1313
-1169
-1024
-936
-938
-991
-1019
-1000
-1008
-1127
-1327
-1450
-1359
-1101
-865
-773
-753
-650
-429
-222
-166
-243
-325
-333
-324
-376
-469
-508
-433
-290
-163
-80
-1
108
220
278
257
184
112
61
13
-50
-114
-146
-142
-135
-153
-165
-118
-15
73
82
17
-56
-93
-117
-171
-259
-360
-468
-594
-715
-772
-733
-636
-536
-431
-259
2
298
552
754
931
1064
1090
984
824
743
794
916
1005
1023
1021
1088
1258
1478
1648
1702
1647
1549
1499
1564
1735
1926
2038
2027
1995
2055
2152
2043
1532
675
-293
-1231
-2249
-3495
-4878
-6036
-6584
-6366
-5439
-3959
-2139
-263
1378
2667
3712
4632
5313
5456
4878
3759
2556
1667
1155
782
239
-601
-1584
-2379
-2712
-2542
-2032
-1435
-892
-368
264
1028
1750
2168
2147
1783
1271
707
82
-545
-949
-951
-630
-282
-143
-203
-316
-465
-756
-1212
-1672
-1945
-2023
-2074
-2205
-2302
-2181
-1835
-1448
-1198
-1074
-953
-789
-667
-657
-697
-686
-653
-729
-937
-1114
-1059
-757
-422
-259
-273
-310
-284
-275
-429
-769
-1134
-1307
-1200
-912
-646
-536
-527
-445
-194
127
313
257
52
-119
-164
-118
-54
-6
35
73
91
63
-4
-69
-91
-59
-4
29
44
104
276
534
767
880
882
837
789
720
600
433
277
190
178
190
144
17
-149
-286
-377
-480
-658
-875
-1018
-1001
-851
-689
-576
-457
-245
29
212
176
-51
-292
-387
-361
-357
-471
-640
-708
-599
-392
-217
-134
-117
-124
-165
-281
-467
-647
-747
-755
-736
-747
-762
-705
-548
-363
-270
-301
-366
-363
-308
-322
-464
-638
-681
-547
-346
-210
-159
-127
-46
83
220
318
349
288
157
54
82
253
460
576
583
580
650
776
850
785
581
321
99
-44
-160
-362
-702
-1088
-1341
-1346
-1167
-999
-968
-971
-774
-297
258
573
538
392
456
782
1131
1225
1032
754
563
470
426
435
521
620
587
381
150
95
258
455
440
124
-366
-761
-820
-514
-78
165
89
-99
-37
382
859
998
704
268
25
34
105
80
25
95
316
544
605
509
428
499
660
718
563
299
145
148
98
-229
-763
-1165
-1175
-891
-674
-711
-768
-446
369
1364
2083
2355
2374
2413
2565
2696
2621
2273
1724
1149
762
685
822
901
741
454
305
398
546
492
244
64
126
263
165
-220
-588
-611
-338
-167
-403
-897
-1213
-1123
-813
-628
-688
-830
-884
-889
-950
-1063
-1110
-1086
-1135
-1286
-1357
-1211
-1001
-1025
-1313
-1495
-1246
-738
-498
-784
-1242
-1308
-865
-355
-310
-804
-1391
-1564
-1251
-862
-857
-1264
-1616
-1475
-927
-513
-628
-1074
-1309
-1118
-835
-898
-1297
-1624
-1616
-1471
-1588
-2029
-2411
-2350
-1909
-1507
-1463
-1671
-1762
-1516
-1124
-980
-1248
-1693
-1970
-1966
-1833
-1717
-1560
-1280
-1014
-1043
-1373
-1637
-1512
-1174
-1116
-1534
-2022
-2013
-1438
-798
-588
-777
-966
-939
-884
-1087
-1518
-1840
-1825
-1588
-1409
-1377
-1340
-1172
-986
-981
-1164
-1338
-1377
-1400
-1588
-1875
-1967
-1721
-1366
-1273
-1479
-1662
-1553
-1251
-1046
-1049
-1093
-1047
-1015
-1143
-1335
-1343
-1108
-879
-927
-1204
-1399
-1276
-918
-582
-423
-407
-446
-491
-559
-717
-1008
-1396
-1737
-1869
-1764
-1572
-1458
-1398
-1208
-794
-298
19
36
-160
-413
-628
-741
-723
-613
-530
-550
-573
-399
47
625
1133
1436
1562
1583
1595
1705
1962
2264
2452
2456
2368
2318
2328
2357
2450
2675
2961
3109
3042
2953
3091
3434
3692
3647
3405
3236
3252
3326
3338
3359
3524
3822
4076
4129
3993
3807
3668
3561
3456
3331
3187
3022
2846
2722
2725
2853
2982
2947
2712
2418
2245
2227
2238
2141
1931
1693
1445
1127
714
318
107
129
287
492
807
1376
2203
3080
3725
4018
4061
4028
3967
3791
3418
2911
2450
2186
2120
2133
2106
2017
1908
1803
1678
1498
1267
1042
883
804
773
745
704
681
700
758
802
769
656
532
477
496
518
477
394
353
401
488
517
453
352
283
244
188
96
6
-30
-10
18
14
-12
-22
-8
-7
-49
-117
-145
-88
41
180
273
312
328
347
362
340
247
90
-84
-213
-273
-293
-338
-434
-551
-635
-677
-723
-823
-962
-1081
-1156
-1228
-1362
-1553
-1734
-1847
-1899
-1942
-2007
-2102
-2247
-2449
-2655
-2735
-2597
-2296
-2007
-1861
-1810
-1695
-1426
-1083
-842
-827
-1032
-1349
-1645
-1816
-1849
-1809
-1784
-1785
-1724
-1502
-1135
-760
-512
-414
-391
-391
-423
-491
-546
-535
-494
-527
-677
-847
-883
-762
-630
-649
-831
-1036
-1108
-1007
-793
-548
-323
-133
50
273
555
836
994
959
769
528
328
205
163
198
266
293
253
190
149
131
95
43
77
345
897
1618
2332
2942
3446
3768
3604
2549
483
-2181
-4693
-6478
-7446
-7796
-7561
-6505
-4488
-1824
826
2908
4257
4949
5024
4458
3365
2085
981
225
-193
-317
-145
279
763
1081
1158
1082
954
777
530
280
194
395
820
1246
1477
1476
1339
1186
1079
1016
977
934
869
818
840
921
944
789
514
360
459
530
-4
-1427
-3256
-4477
-4390
-3243
-1947
-1171
-745
24
1503
3293
4578
4805
4064
2866
1692
747
22
-538
-947
-1193
-1277
-1206
-922
-375
354
1008
1294
1103
541
-277
-1376
-2847
-4661
-6719
-9045
-11776
-14832
-17630
-19379
-19735
-19086
-18087
-17004
-15634
-13829
-11837
-10030
-8413
-6608
-4389
-2039
-88
1231
2097
2740
3090
2893
2079
945
-70
-664
-742
-336
476
1566
2752
3853
4734
5322
5549
5359
4768
3888
2915
2047
1438
1173
1239
1512
1819
2028
2085
1955
1625
1159
739
575
687
804
551
-212
-1217
-1991
-2230
-1971
-1453
-853
-159
721
1778
2843
3692
4194
4379
4383
4315
4215
4103
4042
4122
4352
4626
4821
4919
5010
5155
5291
5287
5096
4807
4546
4374
4278
4247
4286
4370
4404
4282
3979
3605
3309
3148
3052
2909
2685
2430
2211
2041
1900
1790
1739
1749
1779
1785
1762
1723
1654
1509
1285
1057
932
950
1049
1143
1198
1246
1320
1409
1475
1498
1477
1426
1370
1348
1387
1475
1555
1584
1578
1594
1657
1725
1744
1718
1699
1716
1736
1712
1648
1609
1636
1696
1717
1664
1572
1492
1436
1376
1273
1116
924
742
623
590
612
623
597
571
592
632
611
488
325
218
168
65
-185
-523
-776
-834
-758
-709
-772
-887
-936
-874
-768
-721
-776
-903
-1034
-1130
-1200
-1284
-1418
-1584
-1707
-1723
-1650
-1568
-1530
-1501
-1405
-1239
-1107
-1120
-1266
-1402
-1385
-1202
-973
-825
-782
-783
-759
-710
-689
-743
-878
-1061
-1236
-1366
-1429
-1414
-1309
-1117
-864
-594
-335
-100
107
277
405
506
600
693
774
858
988
1170
1322
1350
1252
1120
1019
920
792
739
955
1516
2266
2966
3550
4143
4825
5453
5770
5679
5345
4997
4705
4374
3936
3468
3123
2979
2997
3079
3138
3122
3001
2800
2601
2464
2341
2086
1589
885
139
-472
-833
-892
-659
-231
217
556
825
1192
1718
2217
2401
2168
1728
1401
1339
1454
1579
1639
1654
1640
1586
1491
1389
1299
1175
958
656
378
233
248
355
449
447
320
87
-190
-438
-611
-708
-763
-805
-846
-889
-936
-987
-1021
-1006
-939
-843
-751
-670
-594
-525
-488
-504
-573
-669
-760
-818
-825
-789
-752
-760
-824
-905
-955
-964
-978
-1037
-1131
-1214
-1251
-1249
-1241
-1248
-1262
-1266
-1263
-1284
-1375
-1553
-1773
-1949
-2010
-1961
-1871
-1795
-1712
-1556
-1297
-990
-739
-613
-609
-667
-727
-760
-761
-741
-709
-676
-653
-649
-666
-678
-655
-608
-585
-625
-701
-725
-626
-420
-192
-21
75
121
140
142
135
138
158
179
187
184
194
229
273
306
310
278
223
171
136
99
11
-140
-289
-359
-326
-255
-218
-200
-117
98
429
827
1272
1739
2138
2291
2087
1617
1135
838
681
455
45
-389
-549
-308
154
521
630
566
477
403
254
-35
-399
-709
-900
-977
-932
-697
-201
511
1264
1871
2256
2482
2643
2752
2750
2604
2373
2185
2115
2122
2101
2006
1898
1869
1915
1929
1811
1579
1358
1237
1187
1126
1052
1060
1194
1359
1408
1305
1173
1137
1162
1113
932
752
748
948
1192
1275
1138
883
653
496
340
103
-211
-495
-630
-567
-330
25
436
847
1188
1413
1506
1453
1233
853
407
26
-241
-463
-727
-1010
-1188
-1184
-1059
-940
-891
-858
-777
-662
-591
-614
-712
-838
-946
-999
-975
-894
-822
-810
-818
-737
-529
-303
-233
-378
-592
-661
-528
-341
-296
-423
-567
-564
-403
-211
-146
-270
-525
-795
-994
-1122
-1212
-1259
-1226
-1091
-911
-811
-895
-1178
-1579
-1936
-2025
-1681
-951
-137
437
727
1001
1502
2108
2409
2141
1467
807
445
338
304
260
265
395
632
898
1146
1358
1512
1546
1393
1070
715
507
521
632
660
569
500
547
598
475
191
-42
-48
83
103
-98
-402
-627
-718
-731
-717
-697
-710
-813
-997
-1180
-1297
-1385
-1505
-1616
-1600
-1401
-1103
-846
-678
-551
-426
-337
-344
-453
-605
-742
-836
-877
-863
-799
-713
-629
-514
-359
-220
-182
-262
-356
-330
-177
-25
15
-19
-8
91
204
230
164
67
-20
-98
-158
-171
-134
-100
-111
-126
-67
64
172
187
158
199
352
541
660
690
699
753
852
944
971
923
856
829
865
936
1004
1057
1095
1107
1098
1096
1136
1168
1085
869
682
733
1023
1287
1276
1067
978
1182
1499
1600
1400
1113
984
1011
1023
922
778
705
722
752
736
686
633
573
497
405
314
252
228
208
145
26
-95
-103
48
248
306
130
-152
-319
-278
-168
-197
-356
-435
-284
-19
124
96
59
119
131
-108
-554
-920
-1008
-944
-938
-922
-600
134
971
1537
1820
2119
2571
2904
2765
2207
1677
1466
1406
1144
628
191
136
370
546
442
195
64
151
334
420
327
133
-11
-15
66
73
-95
-343
-487
-461
-422
-580
-951
-1303
-1367
-1121
-798
-689
-870
-1132
-1202
-988
-702
-636
-864
-1169
-1343
-1442
-1610
-1783
-1730
-1407
-1158
-1321
-1713
-1786
-1333
-795
-737
-1143
-1463
-1361
-1110
-1160
-1501
-1743
-1691
-1633
-1898
-2324
-2445
-2105
-1646
-1496
-1707
-1987
-2077
-1941
-1699
-1466
-1375
-1570
-2059
-2548
-2623
-2229
-1727
-1556
-1798
-2145
-2231
-1996
-1709
-1661
-1952
-2429
-2822
-2946
-2834
-2733
-2846
-3125
-3281
-3135
-2844
-2732
-2934
-3216
-3283
-3121
-3026
-3207
-3536
-3700
-3562
-3309
-3188
-3233
-3281
-3218
-3128
-3153
-3254
-3274
-3121
-2865
-2632
-2449
-2250
-2014
-1825
-1766
-1819
-1888
-1953
-2082
-2306
-2538
-2653
-2628
-2547
-2493
-2450
-2316
-2074
-1819
-1717
-1811
-1970
-2022
-1917
-1789
-1814
-2010
-2177
-2128
-1921
-1777
-1783
-1789
-1619
-1342
-1222
-1365
-1551
-1475
-1101
-743
-727
-1057
-1429
-1523
-1297
-984
-873
-1061
-1376
-1536
-1382
-1032
-756
-691
-706
-562
-177
290
636
814
927
1083
1271
1422
1518
1610
1742
1908
2085
2245
2364
2453
2557
2723
2926
3052
3043
2999
3076
3303
3524
3586
3529
3535
3661
3752
3664
3473
3382
3429
3424
3233
3014
3056
3408
3787
3908
3794
3716
3851
4093
4209
4101
3866
3659
3548
3492
3419
3301
3190
3148
3159
3106
2875
2489
2111
1851
1640
1341
955
670
686
1030
1570
2195
2897
3665
4384
4898
5165
5283
5327
5210
4777
4041
3267
2747
2543
2456
2279
2011
1803
1749
1765
1705
1517
1269
1046
860
674
496
384
396
509
624
635
514
336
191
88
-41
-247
-485
-643
-668
-620
-592
-599
-590
-534
-485
-516
-628
-746
-820
-870
-947
-1047
-1118
-1128
-1098
-1072
-1075
-1095
-1109
-1102
-1077
-1058
-1066
-1092
-1091
-1006
-839
-660
-533
-461
-405
-342
-294
-273
-254
-222
-217
-299
-463
-625
-710
-735
-771
-845
-919
-951
-952
-959
-982
-1013
-1063
-1164
-1300
-1403
-1443
-1476
-1567
-1683
-1708
-1603
-1498
-1551
-1759
-1934
-1911
-1745
-1644
-1711
-1836
-1821
-1596
-1287
-1061
-964
-929
-877
-809
-769
-775
-813
-868
-937
-1024
-1101
-1134
-1121
-1104
-1131
-1193
-1232
-1207
-1136
-1083
-1086
-1125
-1165
-1198
-1240
-1303
-1388
-1502
-1671
-1880
-2044
-2067
-1944
-1783
-1699
-1688
-1633
-1456
-1216
-1092
-1255
-1752
-2501
-3325
-3989
-4274
-4094
-3574
-2962
-2400
-1802
-991
13
902
1301
1095
509
-113
-582
-915
-1199
-1449
-1616
-1689
-1716
-1748
-1798
-1867
-1978
-2183
-2488
-2822
-3071
-3151
-3059
-2850
-2592
-2343
-2156
-2075
-2089
-2128
-2109
-2002
-1855
-1726
-1629
-1529
-1392
-1228
-1077
-959
-841
-666
-427
-220
-222
-557
-1152
-1736
-2002
-1844
-1419
-975
-606
-195
428
1274
2159
2829
3119
3057
2818
2570
2400
2301
2249
2248
2310
2409
2521
2717
3141
3838
4586
5018
4921
4407
3735
3022
2144
909
-711
-2545
-4324
-5811
-6912
-7752
-8602
-9667
-10907
-12111
-13130
-13990
-14752
-15334
-15541
-15233
-14420
-13158
-11463
-9426
-7312
-5443
-3990
-2897
-2049
-1442
-1140
-1106
-1153
-1079
-847
-595
-471
-468
-413
-136
355
869
1232
1462
1727
2139
2615
2965
3075
2973
2732
2407
2060
1809
1765
1934
2183
2360
2403
2338
2245
2174
2101
1946
1631
1173
704
370
219
173
149
141
183
266
307
244
126
49
31
-3
-110
-235
-273
-183
-23
130
262
397
524
594
596
584
614
658
633
508
349
252
242
263
255
207
130
3
-193
-444
-691
-906
-1123
-1373
-1628
-1799
-1829
-1742
-1630
-1570
-1578
-1612
-1626
-1612
-1622
-1730
-1978
-2313
-2619
-2789
-2814
-2767
-2705
-2599
-2373
-1990
-1507
-1018
-587
-225
64
264
368
403
425
458
480
456
387
314
275
272
291
324
377
438
452
371
232
146
185
290
326
236
118
117
251
376
363
250
201
303
451
469
324
167
150
270
404
469
504
580
688
758
763
753
787
852
875
808
692
596
551
533
486
384
248
130
61
37
32
40
93
214
360
442
415
331
271
252
206
82
-69
-152
-143
-116
-143
-184
-130
64
316
484
505
428
339
271
194
77
-59
-157
-193
-190
-189
-197
-189
-144
-79
-35
-28
-36
-29
3
47
110
225
418
655
865
1013
1125
1248
1379
1441
1364
1152
878
611
383
229
214
397
772
1267
1822
2433
3112
3803
4375
4708
4769
4620
4352
4035
3695
3343
2993
2684
2477
2403
2423
2437
2370
2232
2088
1972
1842
1649
1413
1208
1087
1023
945
825
722
706
786
897
964
955
900
834
771
704
633
576
552
562
586
617
670
766
894
1004
1043
1012
964
949
960
953
901
822
749
688
609
500
387
278
156
18
-102
-165
-185
-224
-305
-374
-381
-368
-429
-576
-707
-741
-727
-776
-904
-1000
-982
-910
-902
-975
-1038
-1026
-986
-991
-1032
-1038
-986
-923
-887
-857
-803
-752
-755
-814
-862
-869
-883
-970
-1118
-1256
-1321
-1323
-1315
-1333
-1379
-1432
-1487
-1549
-1619
-1679
-1726
-1770
-1826
-1902
-1977
-2012
-1989
-1928
-1873
-1860
-1887
-1918
-1907
-1831
-1708
-1579
-1481
-1403
-1299
-1144
-969
-840
-791
-793
-789
-756
-721
-724
-767
-806
-808
-775
-730
-684
-612
-485
-320
-168
-77
-36
13
114
245
346
377
363
355
371
372
312
190
53
-47
-95
-116
-130
-126
-66
63
226
356
413
409
383
361
331
266
171
88
54
77
124
153
129
33
-126
-301
-416
-425
-355
-264
-177
-57
137
393
643
812
880
872
831
813
845
899
890
737
434
69
-254
-481
-617
-661
-583
-354
-26
264
384
289
70
-107
-133
-62
-65
-259
-544
-716
-744
-898
-1511
-2552
-3531
-3898
-3520
-2713
-1860
-1068
-222
738
1666
2343
2591
2273
1337
-27
-1330
-2068
-2147
-1905
-1658
-1304
-536
602
1556
1793
1424
1055
1083
1293
1253
938
770
1054
1578
1852
1624
1050
392
-266
-938
-1549
-1961
-2143
-2199
-2228
-2208
-2094
-1916
-1723
-1510
-1249
-1004
-907
-1001
-1162
-1241
-1238
-1246
-1307
-1381
-1503
-1809
-2362
-2929
-3101
-2672
-1883
-1198
-855
-659
-264
397
1010
1195
872
286
-262
-650
-910
-1074
-1133
-1095
-1012
-929
-827
-666
-488
-402
-470
-637
-783
-829
-765
-627
-431
-181
48
115
-141
-716
-1351
-1685
-1572
-1245
-1123
-1372
-1689
-1586
-885
77
743
820
501
225
259
503
642
450
-26
-542
-855
-887
-737
-591
-643
-981
-1505
-1979
-2252
-2392
-2559
-2744
-2723
-2277
-1503
-752
-277
-25
195
409
421
77
-531
-1159
-1635
-1964
-2180
-2244
-2079
-1709
-1286
-965
-772
-639
-522
-472
-545
-698
-806
-800
-777
-862
-1033
-1117
-994
-784
-728
-915
-1153
-1179
-955
-688
-574
-593
-605
-557
-542
-640
-772
-797
-686
-589
-650
-833
-959
-901
-707
-527
-458
-462
-467
-449
-423
-398
-354
-286
-213
-148
-104
-88
-88
-84
-31
91
249
354
345
259
228
376
688
994
1101
965
760
699
829
988
983
801
598
518
575
664
686
613
472
333
256
239
214
105
-60
-167
-134
-15
55
16
-57
-44
62
154
117
-52
-230
-295
-259
-263
-412
-649
-820
-856
-827
-843
-921
-1001
-1101
-1321
-1695
-2105
-2404
-2591
-2789
-3036
-3186
-3038
-2545
-1823
-1019
-224
451
878
1015
956
835
687
423
-39
-679
-1365
-1908
-2146
-2036
-1735
-1549
-1699
-2100
-2439
-2528
-2507
-2667
-3101
-3577
-3772
-3622
-3360
-3225
-3222
-3192
-3051
-2907
-2908
-3047
-3169
-3168
-3109
-3120
-3195
-3191
-3014
-2771
-2676
-2778
-2873
-2736
-2408
-2180
-2288
-2620
-2840
-2743
-2449
-2236
-2252
-2410
-2539
-2547
-2455
-2328
-2214
-2172
-2230
-2335
-2379
-2321
-2250
-2280
-2380
-2396
-2250
-2050
-1964
-1994
-1975
-1815
-1640
-1665
-1944
-2277
-2426
-2334
-2144
-2033
-2058
-2129
-2129
-2036
-1935
-1934
-2059
-2194
-2215
-2115
-2016
-2011
-2029
-1944
-1735
-1550
-1550
-1730
-1926
-1983
-1894
-1771
-1747
-1875
-2066
-2105
-1868
-1533
-1492
-1970
-2714
-3161
-3055
-2693
-2540
-2665
-2692
-2310
-1699
-1327
-1404
-1686
-1854
-1877
-1978
-2262
-2574
-2729
-2750
-2792
-2914
-3032
-3085
-3133
-3262
-3432
-3522
-3492
-3465
-3514
-3516
-3294
-2889
-2562
-2511
-2607
-2565
-2342
-2241
-2481
-2844
-2892
-2486
-2012
-1950
-2327
-2702
-2699
-2405
-2166
-2140
-2181
-2072
-1798
-1506
-1315
-1251
-1275
-1321
-1336
-1307
-1287
-1348
-1452
-1475
-1354
-1200
-1127
-1084
-904
-549
-201
-33
9
112
324
501
558
630
877
1227
1433
1386
1258
1283
1458
1588
1564
1509
1583
1769
1915
1939
1907
1911
1944
1971
1992
2043
2134
2237
2335
2426
2511
2556
2572
2623
2733
2833
2812
2655
2484
2428
2482
2545
2552
2537
2564
2612
2608
2519
2392
2277
2144
1907
1549
1176
924
831
841
914
1107
1509
2109
2789
3424
3955
4357
4569
4543
4313
3988
3620
3150
2533
1889
1454
1338
1391
1352
1132
865
710
658
563
334
27
-246
-447
-620
-783
-887
-869
-757
-656
-654
-745
-834
-841
-780
-751
-831
-1000
-1169
-1263
-1287
-1292
-1297
-1287
-1248
-1190
-1149
-1129
-1107
-1086
-1098
-1171
-1278
-1349
-1331
-1248
-1173
-1157
-1184
-1190
-1144
-1079
-1070
-1158
-1304
-1405
-1378
-1243
-1105
-1055
-1076
-1071
-972
-835
-778
-855
-995
-1076
-1040
-945
-863
-809
-756
-679
-599
-545
-517
-516
-556
-633
-706
-731
-711
-697
-701
-674
-583
-486
-494
-636
-795
-832
-753
-697
-764
-894
-942
-867
-777
-804
-935
-1023
-956
-789
-685
-737
-861
-898
-779
-594
-501
-570
-720
-821
-808
-735
-696
-734
-803
-829
-785
-702
-632
-596
-575
-552
-519
-499
-504
-518
-534
-557
-581
-575
-508
-407
-333
-312
-303
-262
-256
-439
-915
-1641
-2488
-3356
-4160
-4718
-4746
-4076
-2873
-1561
-481
362
1166
1981
2566
2619
2083
1222
382
-241
-603
-729
-655
-493
-391
-400
-446
-439
-389
-399
-546
-811
-1076
-1206
-1115
-823
-475
-251
-306
-742
-1619
-2888
-4247
-5161
-5241
-4657
-4046
-3884
-3940
-3481
-2081
-149
1415
2056
1980
1792
1856
2052
2057
1704
1093
442
-74
-346
-364
-229
-120
-188
-431
-718
-903
-923
-817
-654
-497
-409
-466
-709
-1060
-1353
-1461
-1380
-1210
-1078
-1036
-1058
-1081
-1071
-1062
-1143
-1369
-1697
-1972
-2026
-1791
-1323
-729
-88
582
1296
2018
2675
3175
3444
3441
3177
2728
2241
1873
1675
1546
1326
952
514
162
-81
-345
-762
-1277
-1637
-1625
-1295
-935
-794
-873
-991
-1048
-1151
-1446
-1878
-2196
-2218
-2026
-1861
-1838
-1823
-1625
-1226
-811
-577
-558
-656
-778
-910
-1083
-1324
-1625
-1957
-2290
-2599
-2868
-3133
-3445
-3835
-4264
-4652
-4987
-5365
-5897
-6552
-7118
-7410
-7491
-7622
-7930
-8216
-8143
-7640
-7009
-6606
-6437
-6166
-5495
-4476
-3399
-2448
-1572
-652
266
993
1390
1509
1504
1480
1442
1386
1415
1682
2234
2900
3401
3612
3669
3793
3994
4025
3674
3060
2575
2483
2698
2950
3134
3379
3810
4329
4717
4873
4864
4760
4534
4163
3760
3475
3229
2748
1892
924
303
192
305
265
83
114
610
1404
2108
2526
2762
2970
3113
3060
2825
2583
2446
2331
2088
1719
1415
1335
1431
1494
1359
1071
795
624
492
291
54
-44
96
363
523
472
351
356
512
668
705
689
732
839
931
973
1030
1124
1153
1026
812
701
791
966
1039
981
937
1023
1200
1350
1430
1521
1684
1863
1949
1898
1763
1633
1563
1573
1634
1681
1652
1556
1483
1509
1577
1517
1199
721
342
252
428
687
889
1052
1281
1615
1961
2167
2142
1893
1487
1027
621
380
355
496
692
865
1027
1211
1378
1408
1202
795
335
-24
-245
-405
-581
-776
-924
-1002
-1077
-1258
-1582
-1958
-2240
-2349
-2304
-2131
-1807
-1304
-677
-90
293
423
388
346
389
503
594
584
498
441
489
596
626
487
228
-28
-221
-383
-533
-610
-538
-361
-216
-189
-216
-179
-58
43
45
-1
28
195
435
648
811
970
1153
1318
1388
1360
1316
1347
1467
1611
1714
1773
1829
1898
1937
1888
1748
1563
1392
1253
1124
973
802
667
674
910
1359
1869
2251
2421
2445
2442
2449
2416
2310
2198
2182
2292
2470
2654
2827
2988
3078
3002
2734
2355
1997
1740
1560
1401
1249
1151
1176
1328
1539
1701
1717
1576
1357
1166
1053
1005
998
1042
1158
1305
1397
1383
1297
1208
1123
1013
894
846
901
952
843
552
229
43
27
109
259
507
822
1073
1170
1187
1279
1441
1471
1189
672
192
-53
-103
-122
-188
-257
-257
-173
-37
119
263
343
324
219
90
-23
-117
-192
-234
-236
-222
-235
-291
-367
-436
-488
-519
-512
-453
-377
-363
-465
-638
-768
-768
-670
-590
-604
-687
-751
-755
-752
-828
-1002
-1211
-1394
-1530
-1643
-1749
-1848
-1935
-2006
-2040
-2014
-1943
-1888
-1894
-1949
-2018
-2122
-2329
-2630
-2873
-2903
-2739
-2580
-2586
-2671
-2589
-2221
-1730
-1380
-1264
-1236
-1126
-932
-788
-769
-829
-886
-934
-1023
-1142
-1209
-1158
-1019
-895
-871
-961
-1107
-1234
-1291
-1286
-1266
-1261
-1253
-1191
-1040
-810
-558
-351
-244
-251
-340
-455
-603
-845
-1180
-1457
-1448
-1100
-658
-482
-682
-993
-1046
-767
-419
-257
-194
118
900
1991
3017
3725
4137
4380
4480
4342
3925
3353
2814
2381
2005
1632
1353
1316
1532
1824
1989
1996
1951
1921
1847
1667
1463
1370
1357
1203
769
245
25
284
762
1062
1094
1136
1435
1881
2145
2029
1625
1143
683
253
-107
-368
-590
-869
-1143
-1220
-1053
-925
-1182
-1769
-2221
-2195
-1922
-1954
-2476
-3045
-3140
-2802
-2562
-2753
-3108
-3125
-2668
-2057
-1593
-1225
-753
-182
260
405
316
138
-56
-262
-420
-409
-197
87
307
453
644
968
1345
1588
1543
1245
910
764
838
955
925
763
638
661
739
721
596
511
571
696
761
765
834
1022
1189
1142
833
425
147
67
19
-248
-807
-1434
-1788
-1721
-1405
-1149
-1070
-1008
-749
-263
287
720
959
1009
899
684
462
294
132
-130
-497
-839
-1019
-1040
-987
-914
-817
-721
-693
-736
-753
-655
-515
-519
-744
-1068
-1338
-1572
-1900
-2307
-2555
-2413
-1886
-1209
-604
-110
342
754
1026
1081
941
717
505
352
273
288
416
642
924
1198
1406
1506
1479
1368
1258
1207
1202
1180
1093
991
986
1129
1301
1312
1117
880
826
998
1256
1437
1533
1656
1848
2005
2003
1860
1729
1724
1779
1755
1608
1463
1464
1610
1746
1739
1607
1470
1404
1372
1331
1299
1325
1406
1455
1400
1260
1145
1139
1219
1258
1142
893
660
594
704
848
878
779
634
493
302
1
-361
-640
-715
-585
-300
117
649
1235
1790
2254
2624
2905
3038
2966
2685
2282
1901
1637
1502
1439
1387
1320
1232
1097
846
460
43
-245
-343
-372
-474
-619
-661
-525
-340
-293
-392
-479
-472
-481
-640
-869
-928
-712
-413
-310
-467
-693
-779
-708
-632
-695
-892
-1100
-1201
-1177
-1108
-1078
-1080
-1032
-938
-894
-988
-1150
-1191
-1017
-758
-646
-768
-981
-1075
-991
-848
-842
-1065
-1411
-1665
-1686
-1526
-1392
-1411
-1502
-1522
-1444
-1338
-1248
-1159
-1116
-1263
-1630
-1975
-1998
-1699
-1440
-1520
-1799
-1897
-1665
-1386
-1419
-1758
-2083
-2155
-2089
-2129
-2317
-2416
-2214
-1808
-1523
-1536
-1679
-1664
-1432
-1236
-1342
-1689
-1950
-1897
-1649
-1482
-1521
-1627
-1604
-1450
-1318
-1318
-1410
-1475
-1464
-1409
-1386
-1419
-1437
-1405
-1348
-1325
-1359
-1391
-1382
-1368
-1397
-1412
-1279
-1012
-851
-981
-1254
-1306
-979
-549
-372
-437
-428
-223
-125
-465
-1081
-1464
-1406
-1277
-1549
-2168
-2613
-2551
-2183
-1953
-2065
-2368
-2682
-2998
-3246
-3275
-3067
-2885
-3035
-3476
-3796
-3661
-3200
-2894
-3075
-3582
-4008
-4137
-4123
-4252
-4568
-4805
-4718
-4413
-4288
-4570
-4986
-5055
-4650
-4165
-4091
-4430
-4727
-4665
-4413
-4362
-4618
-4909
-4999
-4978
-5077
-5307
-5416
-5208
-4798
-4517
-4530
-4670
-4624
-4271
-3781
-3402
-3221
-3090
-2804
-2310
-1724
-1180
-712
-275
167
632
1122
1626
2087
2431
2620
2727
2872
3088
3312
3462
3510
3522
3585
3721
3895
4046
4126
4132
4123
4191
4408
4765
5192
5634
6113
6684
7369
8104
8761
9214
9413
9411
9304
9160
8975
8704
8355
8019
7789
7665
7564
7441
7337
7288
7232
7045
6705
6366
6180
6115
5998
5747
5487
5388
5441
5459
5306
5047
4844
4747
4657
4480
4243
4039
3914
3823
3715
3594
3491
3411
3327
3215
3109
3036
2930
2670
2239
1819
1635
1666
1606
1206
644
390
654
1077
1121
717
353
467
910
1132
842
306
-32
-28
110
140
10
-213
-467
-677
-732
-629
-557
-681
-887
-855
-454
18
151
-74
-267
-127
168
178
-225
-679
-761
-478
-208
-216
-373
-386
-208
-71
-160
-390
-545
-556
-541
-575
-582
-464
-249
-74
-11
2
33
34
-92
-351
-635
-839
-937
-967
-939
-823
-633
-425
-245
-77
132
350
469
414
244
94
20
-35
-151
-287
-324
-213
-48
30
-1
-34
10
95
130
94
53
67
104
123
152
249
405
473
344
106
-59
-99
-121
-67
396
1521
2981
3937
3865
3240
3156
4122
5413
5749
4645
2891
1664
1325
1225
575
-735
-2220
-3435
-4326
-4999
-5423
-5506
-5343
-5204
-5208
-5149
-4726
-3899
-2979
-2283
-1863
-1564
-1258
-955
-670
-356
28
389
550
465
298
221
219
141
-55
-199
-133
61
121
-76
-354
-443
-291
-124
-166
-377
-527
-512
-476
-608
-871
-1032
-947
-746
-667
-770
-889
-862
-728
-650
-708
-828
-919
-1011
-1213
-1575
-2056
-2594
-3142
-3608
-3832
-3699
-3264
-2674
-1982
-1081
93
1347
2305
2714
2637
2294
1790
1084
199
-657
-1217
-1397
-1313
-1128
-941
-844
-974
-1392
-1929
-2266
-2235
-1999
-1841
-1807
-1612
-961
52
961
1320
1072
529
36
-308
-619
-1014
-1472
-1877
-2122
-2180
-2076
-1864
-1633
-1494
-1520
-1682
-1868
-1974
-1974
-1902
-1790
-1640
-1473
-1367
-1416
-1640
-1942
-2173
-2292
-2446
-2858
-3600
-4408
-4805
-4471
-3537
-2487
-1734
-1281
-816
-138
553
837
482
-359
-1354
-2266
-3019
-3570
-3836
-3800
-3589
-3381
-3216
-2992
-2654
-2347
-2298
-2581
-3048
-3513
-3962
-4508
-5169
-5772
-6130
-6221
-6174
-6028
-5627
-4779
-3508
-2080
-793
226
1004
1552
1790
1662
1278
921
885
1287
2002
2786
3478
4104
4786
5536
6164
6425
6249
5807
5345
4970
4629
4294
4039
3962
4025
4076
4009
3890
3840
3888
3936
3883
3742
3596
3480
3349
3163
2956
2760
2549
2275
1974
1762
1707
1735
1711
1577
1382
1191
1002
783
545
348
220
139
82
70
144
277
385
389
306
225
217
251
242
152
40
3
55
118
122
85
77
97
74
-61
-287
-535
-755
-929
-1004
-912
-658
-349
-74
194
548
977
1321
1438
1356
1209
1063
855
528
158
-113
-242
-329
-478
-669
-796
-799
-727
-673
-665
-653
-582
-448
-300
-186
-129
-123
-148
-173
-186
-186
-181
-192
-227
-261
-258
-206
-155
-199
-386
-644
-823
-825
-711
-654
-768
-994
-1195
-1327
-1490
-1772
-2098
-2285
-2240
-2038
-1802
-1528
-1105
-492
171
685
970
1100
1161
1137
939
543
48
-399
-712
-908
-1067
-1231
-1375
-1446
-1433
-1393
-1408
-1480
-1530
-1496
-1421
-1412
-1482
-1497
-1312
-960
-650
-535
-531
-410
-66
347
581
559
435
404
491
578
579
543
568
679
825
971
1137
1346
1555
1703
1767
1801
1857
1929
1971
1945
1849
1715
1578
1479
1457
1502
1549
1519
1404
1291
1263
1307
1307
1174
943
745
662
645
583
448
328
329
443
555
569
508
472
523
622
693
711
719
764
846
936
1021
1118
1237
1349
1417
1424
1394
1368
1359
1343
1300
1233
1176
1147
1122
1065
973
892
870
904
946
950
926
923
968
1034
1069
1043
977
915
882
869
835
742
583
398
242
152
119
100
60
0
-45
-48
-7
42
59
28
-35
-101
-151
-181
-201
-226
-261
-308
-368
-451
-562
-676
-752
-767
-746
-749
-809
-888
-902
-811
-671
-595
-643
-772
-889
-942
-966
-1020
-1106
-1160
-1128
-1030
-948
-948
-1026
-1132
-1226
-1313
-1418
-1552
-1706
-1858
-1986
-2085
-2155
-2196
-2211
-2208
-2200
-2202
-2222
-2257
-2292
-2307
-2303
-2301
-2322
-2357
-2362
-2290
-2155
-2027
-1974
-1975
-1935
-1800
-1640
-1589
-1686
-1828
-1894
-1872
-1864
-1948
-2090
-2197
-2231
-2218
-2181
-2107
-1989
-1871
-1811
-1802
-1783
-1713
-1619
-1560
-1541
-1520
-1482
-1475
-1541
-1635
-1668
-1603
-1520
-1524
-1641
-1807
-1966
-2134
-2362
-2647
-2918
-3100
-3151
-3049
-2767
-2289
-1676
-1047
-495
-51
276
415
247
-269
-997
-1635
-1848
-1471
-634
300
1008
1483
2050
3020
4295
5346
5678
5331
4847
4751
5066
5387
5363
5036
4693
4501
4383
4201
3965
3791
3698
3572
3315
3013
2853
2887
2967
2884
2532
1975
1351
781
343
44
-243
-740
-1587
-2610
-3342
-3358
-2664
-1725
-1039
-687
-303
461
1477
2191
2106
1241
100
-780
-1232
-1463
-1721
-2024
-2207
-2150
-1940
-1755
-1673
-1612
-1502
-1423
-1542
-1856
-2128
-2112
-1813
-1477
-1322
-1330
-1358
-1344
-1363
-1473
-1604
-1652
-1593
-1489
-1386
-1271
-1143
-1022
-920
-802
-644
-487
-409
-423
-476
-536
-636
-791
-937
-981
-906
-782
-688
-623
-538
-403
-242
-87
54
182
299
422
589
829
1102
1326
1451
1506
1575
1689
1775
1701
1399
973
630
519
644
909
1219
1531
1827
2068
2210
2233
2081
1626
781
-311
-1231
-1513
-1014
-80
748
1213
1503
1958
2590
2949
2493
1139
-573
-1842
-2221
-1877
-1320
-880
-472
163
1063
1912
2280
2009
1302
495
-179
-646
-903
-966
-862
-645
-392
-157
44
173
204
141
32
-76
-156
-197
-183
-99
19
77
4
-145
-212
-92
154
358
419
402
438
543
577
398
27
-348
-566
-617
-578
-522
-456
-351
-203
-17
209
448
641
716
698
681
744
879
1012
1076
1062
1002
939
904
884
820
662
428
224
142
153
143
55
-51
-89
-94
-202
-465
-763
-923
-904
-820
-734
-525
-39
695
1451
2035
2465
2832
3096
3069
2674
2100
1597
1218
810
310
-110
-250
-148
-52
-97
-175
-133
-33
-95
-374
-655
-720
-617
-601
-805
-1080
-1178
-1047
-863
-824
-964
-1161
-1271
-1236
-1099
-970
-960
-1091
-1259
-1325
-1233
-1077
-1004
-1051
-1124
-1100
-971
-846
-829
-906
-972
-952
-875
-862
-986
-1170
-1273
-1242
-1179
-1212
-1327
-1375
-1243
-1015
-879
-912
-980
-887
-620
-385
-384
-586
-766
-746
-597
-544
-706
-981
-1146
-1103
-966
-885
-881
-868
-803
-736
-738
-797
-860
-922
-1013
-1139
-1259
-1342
-1410
-1475
-1494
-1421
-1313
-1301
-1426
-1560
-1546
-1405
-1307
-1368
-1487
-1487
-1335
-1192
-1226
-1425
-1622
-1683
-1636
-1612
-1682
-1784
-1802
-1700
-1541
-1406
-1336
-1318
-1334
-1376
-1420
-1429
-1386
-1326
-1305
-1322
-1342
-1342
-1335
-1331
-1312
-1266
-1237
-1277
-1369
-1418
-1317
-1062
-768
-560
-463
-387
-234
2
204
246
108
-96
-207
-186
-140
-197
-341
-410
-278
-14
170
140
-23
-139
-143
-139
-265
-538
-873
-1167
-1356
-1449
-1529
-1697
-1971
-2208
-2194
-1919
-1650
-1658
-1890
-1999
-1736
-1238
-906
-938
-1126
-1136
-882
-591
-499
-590
-656
-559
-361
-230
-242
-306
-295
-206
-155
-220
-329
-337
-190
-1
78
23
-43
-7
86
100
-27
-210
-281
-186
-65
-105
-320
-513
-487
-281
-133
-212
-403
-443
-253
-43
-38
-203
-284
-138
80
105
-148
-491
-682
-678
-626
-652
-679
-511
-31
680
1437
2144
2847
3591
4255
4622
4599
4325
4046
3868
3698
3435
3155
3045
3191
3488
3747
3871
3878
3794
3587
3213
2727
2259
1917
1711
1577
1475
1420
1440
1517
1602
1647
1637
1569
1449
1315
1240
1258
1318
1327
1239
1113
1043
1049
1061
1018
956
969
1084
1217
1255
1183
1093
1092
1182
1270
1275
1213
1164
1189
1262
1309
1289
1226
1169
1140
1134
1140
1157
1177
1180
1144
1068
972
878
790
689
567
433
306
205
131
82
64
86
124
126
64
-35
-95
-72
-13
2
-47
-105
-103
-49
2
13
-7
-25
-26
-16
-12
-15
-11
34
137
279
389
409
352
280
238
206
145
63
21
60
153
241
302
342
343
240
-2
-307
-522
-545
-420
-286
-218
-154
15
296
546
595
408
107
-167
-380
-581
-788
-935
-968
-934
-921
-934
-876
-704
-554
-646
-1073
-1710
-2335
-2801
-3069
-3102
-2847
-2315
-1637
-972
-339
378
1208
1928
2193
1869
1213
669
470
462
335
-9
-358
-454
