54
-89
-337
-524
-589
-610
-672
-778
-915
-1095
-1298
-1423
-1379
-1228
-1123
-1067
-829
-192
729
1542
1980
2171
2431
2844
3145
3035
2523
1887
1361
958
589
256
54
2
-7
-69
-147
-137
-32
56
18
-147
-347
-504
-612
-667
-647
-556
-464
-458
-532
-576
-492
-313
-178
-177
-265
-335
-357
-397
-500
-608
-635
-598
-613
-737
-876
-886
-755
-615
-577
-601
-587
-532
-535
-638
-755
-779
-734
-759
-916
-1095
-1135
-998
-808
-715
-768
-903
-1002
-984
-856
-718
-696
-829
-1028
-1147
-1137
-1097
-1160
-1328
-1473
-1479
-1383
-1314
-1335
-1370
-1314
-1175
-1069
-1073
-1135
-1158
-1132
-1128
-1185
-1239
-1193
-1042
-883
-801
-788
-774
-712
-616
-520
-438
-371
-337
-356
-390
-349
-185
19
110
17
-134
-137
79
358
475
384
269
340
607
872
947
841
703
647
650
638
587
515
413
254
83
32
175
406
520
448
359
463
740
930
838
558
347
321
342
231
18
-114
-66
58
104
76
107
259
423
438
284
101
26
51
48
-67
-243
-342
-283
-114
61
180
262
342
420
463
457
439
451
474
440
320
186
151
235
327
309
216
205
372
616
743
674
530
485
566
637
560
332
71
-105
-158
-133
-92
-68
-51
-4
94
225
344
423
480
546
616
651
623
557
502
487
506
531
539
514
463
414
409
468
557
609
584
517
481
508
549
540
487
461
505
563
537
393
205
71
10
-42
-148
-320
-519
-689
-802
-869
-915
-918
-774
-363
305
1050
1673
2139
2589
3121
3612
3799
3557
3021
2443
1972
1586
1200
783
363
1
-234
-294
-235
-209
-341
-596
-796
-795
-632
-448
-333
-249
-129
28
166
242
250
194
71
-99
-260
-356
-391
-421
-495
-609
-707
-729
-678
-610
-598
-667
-768
-840
-873
-913
-991
-1081
-1131
-1129
-1125
-1170
-1237
-1270
-1255
-1234
-1260
-1338
-1429
-1497
-1539
-1573
-1618
-1677
-1731
-1750
-1716
-1652
-1603
-1598
-1635
-1702
-1787
-1886
-1983
-2055
-2106
-2166
-2248
-2319
-2332
-2279
-2202
-2152
-2135
-2128
-2120
-2127
-2152
-2168
-2139
-2072
-2021
-2014
-2017
-1966
-1847
-1714
-1630
-1599
-1575
-1523
-1452
-1378
-1296
-1196
-1102
-1048
-1034
-1007
-915
-761
-613
-528
-498
-465
-389
-282
-195
-162
-176
-193
-184
-152
-127
-122
-114
-78
-24
-5
-57
-150
-207
-181
-109
-64
-81
-117
-102
-24
64
94
59
8
-13
-4
1
-21
-57
-73
-51
-11
14
-8
-80
-166
-214
-195
-137
-109
-145
-200
-187
-101
-47
-146
-395
-643
-735
-671
-597
-638
-752
-776
-606
-316
-89
-44
-145
-272
-340
-353
-357
-386
-453
-554
-658
-713
-694
-658
-697
-823
-936
-917
-768
-625
-596
-631
-590
-415
-219
-162
-267
-396
-411
-323
-284
-416
-671
-872
-876
-706
-543
-541
-681
-802
-768
-594
-398
-279
-248
-247
-233
-198
-153
-121
-160
-320
-567
-806
-972
-1091
-1241
-1413
-1502
-1437
-1306
-1297
-1502
-1793
-1924
-1751
-1345
-861
-369
193
919
1786
2633
3258
3537
3463
3117
2593
1967
1294
644
96
-292
-513
-595
-583
-531
-481
-469
-514
-601
-697
-796
-909
-1023
-1081
-1027
-887
-776
-809
-988
-1193
-1307
-1319
-1314
-1354
-1423
-1477
-1505
-1545
-1627
-1744
-1861
-1952
-1996
-1977
-1894
-1787
-1709
-1679
-1672
-1672
-1694
-1756
-1831
-1870
-1878
-1907
-1991
-2076
-2081
-2003
-1928
-1945
-2036
-2112
-2131
-2137
-2195
-2300
-2377
-2368
-2294
-2223
-2207
-2249
-2320
-2393
-2447
-2474
-2483
-2507
-2569
-2640
-2641
-2516
-2309
-2148
-2128
-2222
-2313
-2324
-2296
-2316
-2405
-2476
-2438
-2291
-2116
-1979
-1862
-1714
-1540
-1398
-1337
-1335
-1333
-1297
-1237
-1162
-1057
-901
-719
-570
-490
-461
-428
-367
-311
-312
-370
-425
-415
-346
-289
-293
-338
-370
-379
-407
-472
-531
-519
-441
-364
-320
-270
-172
-75
-85
-232
-413
-502
-478
-430
-423
-417
-332
-157
34
173
255
320
377
384
307
164
8
-109
-179
-226
-264
-277
-245
-187
-166
-219
-299
-309
-226
-142
-170
-304
-410
-372
-234
-145
-185
-285
-328
-280
-211
-184
-181
-150
-85
-34
-21
4
103
282
476
605
645
637
641
684
746
776
740
666
615
633
703
757
756
733
751
836
935
973
927
840
764
712
673
675
773
969
1157
1193
1043
828
688
605
403
-33
-580
-972
-1083
-1040
-1030
-1022
-761
-86
813
1551
1947
2206
2635
3232
3648
3565
3043
2462
2132
2028
1894
1530
953
329
-168
-434
-446
-273
-58
63
75
86
214
458
687
766
673
492
310
132
-86
-358
-616
-779
-821
-786
-720
-634
-508
-337
-145
32
157
203
176
123
100
72
-101
-534
-1141
-1643
-1805
-1653
-1428
-1319
-1269
-1085
-680
-192
144
212
78
-118
-279
-393
-484
-579
-691
-815
-914
-944
-885
-777
-701
-710
-796
-913
-1034
-1163
-1306
-1432
-1491
-1476
-1441
-1452
-1525
-1611
-1656
-1644
-1591
-1530
-1500
-1548
-1684
-1843
-1924
-1884
-1790
-1736
-1735
-1705
-1569
-1358
-1175
-1075
-1023
-951
-841
-731
-644
-555
-428
-272
-128
-16
95
236
394
508
524
442
328
263
285
353
381
316
207
157
227
361
441
414
337
307
350
401
385
297
198
147
154
189
220
224
196
157
146
181
230
239
196
148
153
208
255
250
205
166
155
149
121
71
27
17
48
102
151
164
135
97
95
139
183
167
89
9
-15
14
45
51
51
69
102
148
224
339
458
524
533
555
649
779
846
808
726
687
686
641
521
398
357
377
361
260
154
154
256
347
352
318
338
423
482
445
367
350
411
439
339
150
-16
-123
-264
-519
-811
-976
-975
-952
-1022
-1046
-726
42
980
1665
1965
2149
2552
3171
3646
3632
3158
2581
2235
2141
2044
1717
1210
818
802
1113
1426
1436
1147
835
727
761
680
347
-106
-436
-549
-550
-568
-605
-588
-503
-425
-426
-481
-522
-527
-528
-538
-516
-426
-298
-193
-136
-93
-47
-39
-123
-280
-429
-513
-556
-595
-596
-500
-327
-188
-178
-269
-343
-324
-254
-231
-316
-500
-708
-831
-806
-689
-642
-789
-1058
-1237
-1191
-1034
-993
-1147
-1339
-1391
-1307
-1230
-1240
-1274
-1249
-1175
-1132
-1148
-1184
-1203
-1207
-1211
-1216
-1220
-1235
-1241
-1161
-969
-759
-676
-745
-831
-830
-819
-974
-1319
-1640
-1703
-1478
-1132
-813
-543
-297
-118
-69
-117
-134
-65
4
-13
-68
5
283
668
974
1115
1109
966
619
30
-685
-1268
-1505
-1409
-1154
-875
-537
-36
609
1226
1595
1621
1381
1034
744
638
746
967
1117
1106
1030
1077
1308
1581
1705
1604
1324
927
434
-120
-674
-1223
-1840
-2537
-3120
-3287
-2901
-2142
-1337
-651
-11
698
1406
1870
1858
1321
405
-583
-1315
-1616
-1568
-1434
-1407
-1412
-1225
-755
-214
70
-9
-255
-396
-355
-246
-167
-61
154
396
450
234
-75
-210
-128
-58
-211
-530
-762
-779
-693
-637
-557
-291
137
445
369
-31
-410
-528
-496
-633
-1106
-1752
-2267
-2512
-2581
-2623
-2638
-2509
-2215
-1929
-1839
-1889
-1774
-1289
-605
-128
-40
-63
224
887
1536
1743
1488
1115
914
845
676
320
-83
-348
-450
-496
-569
-657
-696
-671
-631
-627
-672
-741
-810
-880
-991
-1194
-1495
-1837
-2124
-2250
-2147
-1822
-1372
-943
-627
-379
-60
404
887
1154
1074
746
395
148
-45
-291
-603
-887
-1077
-1191
-1263
-1294
-1274
-1228
-1181
-1113
-1013
-988
-1221
-1737
-2257
-2389
-2026
-1497
-1226
-1282
-1305
-916
-148
572
825
561
68
-340
-560
-678
-802
-942
-1039
-1035
-922
-734
-536
-403
-396
-514
-705
-894
-1026
-1072
-1031
-924
-805
-757
-810
-900
-939
-921
-934
-1048
-1197
-1227
-1069
-833
-684
-648
-584
-355
-12
256
328
285
300
424
542
539
451
434
574
795
949
981
960
980
1049
1109
1114
1064
974
863
768
736
789
889
967
986
967
960
986
1029
1076
1130
1199
1271
1320
1335
1333
1342
1371
1396
1382
1314
1221
1160
1159
1178
1150
1063
985
991
1062
1083
967
779
665
691
747
680
488
323
315
422
514
535
541
590
653
667
647
668
746
795
740
633
604
694
806
825
760
725
794
917
993
990
968
986
1022
1008
938
879
881
904
855
709
567
534
594
621
541
412
348
362
350
241
97
19
-19
-173
-551
-1051
-1430
-1544
-1495
-1501
-1641
-1736
-1513
-876
-21
730
1211
1520
1862
2303
2684
2781
2534
2097
1693
1420
1217
967
641
319
94
-14
-64
-119
-181
-209
-191
-171
-193
-229
-195
-52
133
232
200
111
70
100
148
160
137
114
108
111
124
160
220
278
313
338
376
426
447
416
360
335
372
448
505
501
443
385
377
422
469
460
392
322
304
330
352
338
307
296
311
314
273
199
124
63
11
-52
-133
-230
-311
-346
-339
-325
-341
-396
-465
-528
-586
-641
-673
-676
-689
-757
-862
-913
-857
-759
-740
-819
-874
-789
-606
-486
-515
-598
-594
-491
-406
-424
-488
-489
-404
-316
-287
-283
-218
-88
38
88
59
1
-49
-89
-130
-158
-139
-75
-31
-78
-215
-334
-333
-247
-233
-400
-670
-833
-785
-652
-634
-765
-882
-831
-667
-584
-686
-863
-938
-866
-774
-799
-934
-1071
-1133
-1139
-1149
-1177
-1199
-1204
-1220
-1272
-1347
-1426
-1521
-1646
-1769
-1805
-1704
-1530
-1402
-1373
-1379
-1315
-1163
-1019
-989
-1106
-1313
-1512
-1637
-1696
-1750
-1846
-1962
-2017
-1953
-1797
-1646
-1567
-1535
-1485
-1391
-1292
-1238
-1243
-1293
-1349
-1368
-1330
-1261
-1231
-1288
-1386
-1423
-1340
-1191
-1079
-1043
-1027
-972
-907
-903
-978
-1054
-1055
-1011
-1034
-1191
-1410
-1550
-1552
-1500
-1522
-1647
-1782
-1819
-1762
-1712
-1733
-1745
-1562
-1062
-328
401
921
1226
1474
1793
2122
2265
2087
1654
1165
752
399
32
-348
-655
-832
-910
-961
-1005
-1006
-944
-848
-756
-689
-660
-676
-721
-753
-750
-761
-850
-994
-1078
-1017
-864
-756
-748
-774
-750
-693
-697
-800
-939
-1013
-994
-930
-885
-874
-863
-811
-709
-596
-541
-570
-633
-651
-595
-526
-527
-611
-714
-762
-744
-698
-660
-634
-609
-589
-592
-623
-671
-723
-787
-883
-1012
-1137
-1238
-1337
-1474
-1621
-1675
-1581
-1420
-1353
-1432
-1530
-1482
-1282
-1087
-1019
-1050
-1076
-1076
-1134
-1287
-1442
-1479
-1410
-1377
-1486
-1674
-1775
-1706
-1541
-1418
-1394
-1409
-1369
-1233
-1032
-806
-584
-387
-222
-86
36
139
187
152
51
-65
-169
-280
-411
-510
-497
-376
-267
-293
-442
-579
-608
-588
-656
-862
-1107
-1282
-1420
-1657
-2032
-2398
-2551
-2460
-2307
-2277
-2346
-2318
-2089
-1802
-1706
-1869
-2100
-2168
-2070
-2013
-2136
-2324
-2345
-2134
-1867
-1760
-1834
-1939
-1956
-1923
-1953
-2087
-2256
-2385
-2476
-2576
-2696
-2788
-2808
-2778
-2789
-2937
-3227
-3542
-3719
-3683
-3499
-3292
-3123
-2979
-2834
-2706
-2615
-2526
-2411
-2332
-2415
-2692
-3008
-3149
-3054
-2876
-2798
-2829
-2817
-2654
-2404
-2229
-2231
-2377
-2557
-2686
-2763
-2833
-2926
-3026
-3092
-3102
-3090
-3124
-3246
-3411
-3530
-3584
-3674
-3927
-4319
-4652
-4735
-4604
-4487
-4515
-4513
-4176
-3442
-2620
-2069
-1813
-1547
-1029
-406
-45
-119
-452
-749
-907
-1039
-1261
-1569
-1886
-2169
-2403
-2529
-2494
-2337
-2187
-2145
-2170
-2143
-1997
-1791
-1638
-1599
-1650
-1729
-1793
-1835
-1864
-1883
-1889
-1877
-1844
-1794
-1745
-1710
-1688
-1667
-1633
-1592
-1564
-1551
-1530
-1471
-1382
-1317
-1316
-1357
-1371
-1319
-1247
-1240
-1317
-1401
-1399
-1301
-1197
-1173
-1224
-1283
-1297
-1277
-1262
-1275
-1300
-1307
-1282
-1234
-1184
-1156
-1156
-1167
-1169
-1171
-1214
-1324
-1463
-1550
-1539
-1470
-1417
-1405
-1381
-1283
-1126
-989
-934
-934
-909
-815
-696
-627
-624
-632
-594
-525
-475
-459
-432
-354
-250
-177
-143
-96
7
133
215
233
234
274
356
444
514
577
655
755
864
975
1082
1174
1224
1220
1189
1178
1219
1302
1382
1415
1398
1367
1368
1412
1472
1510
1500
1439
1353
1292
1292
1351
1410
1404
1329
1244
1213
1238
1264
1262
1256
1280
1320
1329
1298
1271
1284
1300
1264
1174
1097
1074
1064
994
858
733
667
610
485
309
200
241
377
473
468
430
469
616
784
875
868
818
788
804
851
908
946
939
882
810
781
815
873
890
845
765
686
617
556
512
490
460
375
244
146
156
260
356
355
259
153
106
97
32
-152
-419
-652
-771
-815
-886
-981
-928
-530
197
986
1548
1858
2148
2633
3236
3648
3621
3207
2688
2310
2081
1836
1445
960
548
333
291
311
305
272
251
262
281
277
239
190
159
173
220
259
255
224
223
299
434
553
589
542
464
406
378
353
305
252
249
334
463
533
481
365
317
404
545
604
536
421
358
361
382
385
378
368
339
296
282
331
395
375
239
73
-11
3
25
-24
-123
-188
-175
-122
-83
-74
-82
-111
-178
-264
-320
-331
-335
-379
-449
-470
-403
-302
-248
-243
-204
-82
62
115
48
-32
-16
80
136
80
-16
-28
82
236
346
417
507
633
746
801
829
891
1001
1108
1166
1193
1248
1349
1454
1514
1534
1561
1617
1665
1655
1587
1510
1463
1433
1382
1296
1216
1182
1195
1221
1228
1215
1209
1231
1281
1342
1387
1397
1365
1290
1197
1125
1102
1123
1146
1135
1083
1026
1000
1001
989
942
886
866
899
966
1039
1090
1091
1024
918
826
769
689
526
327
236
333
528
652
666
703
870
1070
1093
885
644
588
688
723
582
429
520
895
1316
1521
1468
1318
1241
1276
1352
1366
1252
1033
839
818
977
1139
1119
934
789
817
918
900
742
631
706
849
819
585
376
394
538
503
146
-335
-634
-675
-626
-600
-470
-31
684
1386
1854
2171
2605
3250
3871
4145
3981
3566
3148
2824
2540
2219
1839
1428
1061
838
821
957
1090
1096
1009
960
994
1018
928
744
587
520
495
448
413
468
581
608
474
278
191
226
208
-4
-322
-488
-366
-84
108
112
46
74
202
295
235
50
-124
-174
-109
-28
-16
-71
-111
-65
28
30
-171
-536
-881
-1029
-955
-793
-685
-646
-567
-343
-17
241
294
153
-39
-161
-232
-351
-548
-717
-740
-631
-541
-584
-681
-636
-393
-158
-192
-516
-862
-965
-863
-828
-1021
-1304
-1438
-1405
-1397
-1506
-1537
-1249
-685
-168
88
228
516
945
1197
1032
608
305
297
418
421
289
202
287
476
657
820
999
1136
1081
776
351
6
-198
-382
-629
-812
-733
-393
-52
44
-66
-121
13
187
153
-119
-425
-604
-682
-713
-600
-215
308
590
416
55
25
474
955
876
177
-575
-758
-304
304
608
585
531
657
879
1000
954
828
669
405
-33
-558
-957
-1093
-993
-786
-545
-268
12
185
150
-75
-357
-597
-823
-1112
-1433
-1605
-1458
-1019
-510
-135
90
268
423
438
205
-199
-552
-694
-684
-673
-704
-683
-534
-310
-152
-183
-412
-744
-1026
-1112
-1000
-871
-939
-1233
-1553
-1720
-1800
-1996
-2357
-2679
-2760
-2622
-2400
-2070
-1459
-569
308
879
1210
1649
2348
3015
3229
2934
2498
2283
2273
2184
1831
1309
842
545
388
286
199
154
198
335
492
554
481
353
274
236
114
-154
-452
-615
-631
-642
-732
-790
-659
-390
-222
-296
-478
-523
-360
-158
-103
-191
-276
-272
-231
-209
-181
-99
13
56
-30
-196
-330
-350
-264
-147
-86
-121
-207
-243
-168
-20
107
156
164
184
212
177
41
-154
-323
-432
-528
-669
-839
-966
-1017
-1048
-1126
-1235
-1284
-1246
-1246
-1444
-1821
-2150
-2208
-1997
-1725
-1570
-1517
-1446
-1305
-1144
-1010
-887
-770
-720
-801
-957
-1016
-864
-567
-301
-171
-127
-58
61
179
257
320
396
450
437
383
392
522
706
805
750
605
498
496
575
668
725
744
764
831
928
950
793
489
230
189
342
497
523
494
588
851
1148
1314
1316
1235
1131
999
839
701
634
613
575
515
510
616
771
846
776
630
523
499
493
445
370
343
402
482
487
396
282
245
312
410
451
415
375
412
543
709
847
954
1051
1135
1168
1136
1081
1058
1065
1056
1015
985
1016
1100
1199
1307
1449
1607
1689
1626
1476
1383
1422
1518
1554
1499
1416
1368
1352
1328
1287
1249
1229
1210
1154
1027
826
608
474
488
614
758
913
1193
1699
2382
3063
3594
3972
4278
4547
4736
4764
4581
4188
3670
3175
2825
2608
2409
2159
1927
1819
1820
1803
1692
1563
1526
1572
1595
1554
1528
1582
1687
1764
1790
1777
1690
1467
1150
910
890
1026
1108
1029
903
914
1108
1347
1483
1493
1440
1359
1230
1045
869
797
859
984
1059
1011
864
698
583
524
479
400
281
152
59
45
126
268
392
426
372
300
274
286
283
239
187
170
180
161
71
-73
-215
-311
-364
-408
-464
-535
-597
-621
-596
-536
-469
-417
-381
-344
-293
-237
-190
-151
-108
-41
52
150
232
277
290
300
332
385
426
427
398
376
393
440
480
497
513
575
704
864
975
990
958
976
1078
1186
1192
1096
1015
1039
1086
995
744
516
524
779
1066
1172
1100
1039
1158
1453
1764
1912
1830
1582
1317
1162
1137
1164
1153
1074
959
866
834
881
991
1113
1168
1129
1055
1032
1080
1142
1161
1143
1122
1095
1023
901
804
821
959
1126
1225
1246
1243
1262
1292
1298
1276
1240
1204
1168
1158
1219
1363
1526
1621
1642
1690
1876
2181
2447
2517
2389
2196
2082
2079
2109
2069
1916
1695
1504
1421
1446
1498
1483
1389
1286
1242
1230
1171
1046
939
926
953
900
729
533
395
241
-72
-511
-852
-945
-933
-1065
-1305
-1278
-697
237
1028
1466
1829
2475
3318
3905
3957
3671
3419
3285
3033
2472
1703
985
475
188
123
266
508
669
663
580
554
601
631
583
451
230
-126
-587
-995
-1154
-1029
-767
-547
-440
-390
-298
-100
193
462
550
371
32
-245
-334
-323
-395
-616
-861
-956
-859
-678
-557
-544
-596
-651
-703
-779
-898
-1029
-1086
-1011
-850
-734
-753
-872
-952
-921
-844
-847
-972
-1121
-1167
-1073
-918
-802
-775
-821
-862
-819
-691
-600
-728
-1127
-1606
-1857
-1752
-1476
-1323
-1369
-1410
-1222
-850
-591
-670
-1014
-1335
-1415
-1286
-1129
-1080
-1120
-1117
-964
-673
-345
-86
63
138
171
152
68
-39
-81
-19
86
142
138
145
221
321
357
310
251
248
279
260
152
22
-43
-16
56
115
162
228
340
484
623
724
763
739
683
634
615
605
562
477
388
346
361
401
435
458
478
507
546
604
669
707
692
642
605
601
594
541
443
352
304
279
252
233
247
284
307
324
394
546
711
769
684
551
499
554
624
622
552
485
460
449
423
408
444
518
557
515
429
387
431
512
546
506
435
396
400
402
352
247
135
77
85
111
84
-18
-139
-194
-149
-61
-25
-88
-196
-246
-202
-148
-187
-338
-508
-628
-748
-951
-1208
-1372
-1366
-1282
-1237
-1147
-761
13
910
1547
1851
2129
2681
3391
3828
3725
3261
2839
2646
2518
2219
1743
1306
1085
1043
1014
917
829
865
1014
1154
1172
1084
995
975
990
957
863
782
790
879
973
1013
1010
1015
1051
1076
1037
934
829
786
806
840
849
855
905
995
1052
1013
904
820
825
889
923
886
827
826
904
1008
1063
1048
1000
965
950
920
844
716
570
454
401
408
429
411
351
294
282
299
282
183
23
-127
-220
-276
-347
-453
-554
-589
-534
-426
-337
-313
-333
-325
-235
-87
44
99
92
92
136
209
279
343
419
506
582
652
744
871
996
1067
1087
1117
1188
1258
1261
1200
1162
1224
1365
1494
1547
1549
1579
1681
1819
1917
1919
1838
1744
1713
1754
1802
1770
1653
1525
1478
1533
1611
1621
1542
1437
1390
1425
1497
1536
1515
1467
1437
1421
1364
1212
987
779
666
647
656
652
672
795
1044
1349
1593
1708
1711
1662
1594
1497
1359
1206
1085
1015
978
945
921
941
1031
1160
1266
1304
1296
1297
1350
1441
1514
1534
1515
1511
1554
1612
1606
1504
1369
1326
1442
1637
1747
1680
1500
1356
1332
1375
1360
1221
1012
852
815
878
954
963
898
817
778
772
731
595
386
177
17
-112
-247
-377
-454
-458
-413
-324
-121
300
934
1607
2120
2443
2747
3205
3769
4170
4167
3790
3319
3018
2898
2744
2370
1832
1391
1264
1428
1651
1713
1595
1451
1409
1423
1343
1086
734
445
295
233
179
121
114
196
331
438
466
449
450
484
495
420
282
190
237
391
523
544
483
428
419
427
436
487
607
734
768
694
608
610
683
721
658
538
446
410
391
351
297
250
207
147
57
-45
-131
-189
-228
-276
-356
-479
-623
-744
-802
-789
-739
-706
-716
-746
-747
-708
-665
-655
-654
-597
-473
-365
-368
-463
-515
-425
-251
-146
-165
-197
-113
62
183
175
144
238
455
640
668
589
557
659
843
1006
1099
1137
1153
1173
1199
1218
1194
1125
1078
1118
1221
1281
1244
1208
1305
1509
1621
1506
1273
1170
1280
1422
1382
1175
1015
1040
1154
1170
1044
910
896
984
1076
1133
1205
1326
1424
1375
1131
770
443
246
159
91
-16
-128
-144
4
266
490
536
403
217
116
123
131
38
-128
-229
-159
36
199
216
122
57
112
250
359
371
328
324
403
505
538
493
446
463
503
469
344
233
266
448
642
710
657
587
567
562
520
471
491
575
619
547
407
352
451
597
614
443
188
-1
-92
-190
-398
-697
-977
-1171
-1291
-1365
-1338
-1119
-719
-282
58
346
770
1439
2235
2903
3287
3425
3431
3326
3053
2626
2187
1856
1595
1289
948
752
823
1043
1177
1168
1191
1385
1597
1536
1118
596
283
234
259
169
-40
-273
-463
-588
-661
-754
-1020
-1547
-2223
-2783
-3031
-2981
-2764
-2444
-1986
-1383
-717
-82
485
985
1381
1608
1645
1508
1227
847
437
68
-242
-521
-822
-1152
-1473
-1744
-1886
-1808
-1479
-1033
-677
-504
-419
-292
-188
-359
-946
-1750
-2355
-2533
-2446
-2432
-2616
-2783
-2671
-2311
-1998
-1942
-2022
-1956
-1669
-1359
-1233
-1235
-1133
-815
-435
-262
-430
-839
-1257
-1461
-1351
-1032
-755
-703
-809
-812
-542
-103
246
350
264
91
-134
-392
-571
-559
-417
-380
-618
-1023
-1290
-1242
-969
-695
-531
-389
-145
210
544
709
656
475
317
271
295
274
147
-20
-92
-5
161
277
295
268
250
207
77
-117
-219
-77
305
754
1095
1295
1454
1669
1947
2221
2398
2406
2235
1972
1767
1708
1714
1611
1336
1031
871
845
753
466
119
-29
92
253
206
-11
-102
144
593
895
836
542
307
284
377
400
293
155
119
210
353
449
452
365
222
74
-17
-2
99
204
259
296
415
667
964
1141
1101
907
739
719
813
879
808
624
433
309
247
204
145
62
-74
-314
-651
-981
-1155
-1105
-877
-545
-103
500
1241
1988
2623
3158
3672
4120
4324
4185
3834
3485
3156
2645
1845
987
456
367
438
313
-41
-332
-292
50
474
809
1023
1140
1154
1102
1089
1164
1216
1062
666
221
-26
-6
137
220
182
73
-46
-158
-250
-296
-294
-289
-340
-459
-601
-707
-771
-836
-934
-1027
-1039
-941
-790
-681
-648
-633
-567
-472
-451
-569
-772
-937
-1005
-1029
-1085
-1166
-1196
-1135
-1032
-968
-979
-1045
-1133
-1229
-1339
-1465
-1594
-1690
-1721
-1706
-1713
-1802
-1955
-2081
-2123
-2126
-2179
-2292
-2374
-2327
-2158
-1943
-1741
-1556
-1388
-1281
-1283
-1388
-1539
-1672
-1764
-1802
-1750
-1586
-1342
-1089
-860
-621
-329
-15
214
284
219
116
45
-8
-73
-136
-143
-86
-29
-38
-95
-111
-26
119
228
258
234
207
199
213
252
301
322
286
212
186
262
398
504
531
523
566
684
802
829
768
718
769
893
964
905
773
711
795
958
1066
1063
1020
1037
1129
1223
1243
1187
1118
1089
1114
1169
1210
1207
1159
1112
1135
1241
1361
1400
1333
1219
1139
1128
1174
1256
1359
1443
1462
1401
1303
1248
1293
1425
1561
1608
1532
1405
1357
1449
1574
1544
1300
993
842
895
982
917
719
579
640
853
1055
1145
1140
1108
1069
982
823
602
336
34
-280
-546
-694
-728
-736
-797
-824
-594
50
970
1799
2274
2490
2771
3271
3787
3969
3705
3227
2833
2590
2335
1943
1481
1137
1016
1039
1041
930
752
618
574
542
397
109
-197
-355
-328
-237
-221
-289
-337
-292
-201
-169
-233
-301
-253
-85
62
33
-177
-396
-420
-218
33
127
17
-158
-230
-147
16
149
172
61
-138
-313
-363
-291
-219
-270
-431
-564
-556
-433
-308
-257
-270
-292
-298
-304
-323
-340
-325
-260
-166
-93
-86
-140
-193
-197
-179
-206
-305
-426
-505
-546
-599
-693
-781
-804
-760
-691
-612
-497
-353
-236
-200
-224
-241
-224
-215
-256
-309
-298
-209
-102
-24
80
315
712
1144
1431
1507
1494
1581
1809
1998
1926
1585
1211
1051
1113
1192
1125
973
902
950
1000
956
872
842
843
755
529
290
228
387
621
757
759
734
796
947
1093
1175
1222
1274
1294
1187
937
654
477
421
370
229
45
-41
57
294
575
810
936
918
780
615
510
441
293
20
-244
-275
24
486
855
1026
1116
1288
1520
1605
1388
990
717
747
954
1070
1005
930
1044
1320
1533
1541
1421
1303
1181
923
502
93
-64
100
407
630
700
722
818
981
1073
977
704
393
191
144
188
237
260
289
349
402
393
295
133
-82
-392
-798
-1205
-1462
-1520
-1477
-1429
-1323
-990
-390
277
746
967
1143
1462
1868
2116
2051
1760
1440
1187
947
626
228
-157
-447
-625
-723
-773
-805
-823
-809
-737
-604
-450
-359
-375
-447
-473
-412
-354
-448
-702
-943
-969
-763
-511
-391
-399
-406
-346
-292
-329
-421
-456
-398
-350
-421
-587
-699
-650
-497
-396
-448
-617
-792
-889
-922
-952
-1020
-1120
-1224
-1312
-1372
-1389
-1352
-1289
-1256
-1289
-1381
-1487
-1574
-1647
-1722
-1791
-1835
-1854
-1882
-1951
-2044
-2111
-2117
-2076
-2026
-1992
-1980
-1991
-2043
-2137
-2234
-2287
-2290
-2298
-2353
-2436
-2483
-2464
-2419
-2406
-2430
-2452
-2445
-2428
-2433
-2448
-2436
-2382
-2305
-2230
-2154
-2053
-1925
-1798
-1698
-1615
-1524
-1419
-1308
-1195
-1070
-938
-826
-757
-706
-628
-503
-366
-272
-230
-196
-132
-42
34
80
117
169
223
246
233
217
237
285
327
344
357
397
467
543
603
650
702
756
793
810
824
848
871
875
859
843
829
796
732
652
584
531
472
406
373
407
484
540
536
502
506
573
663
719
717
685
673
704
774
870
989
1121
1233
1280
1267
1253
1290
1369
1416
1384
1319
1316
1409
1530
1580
1540
1471
1428
1405
1361
1278
1184
1111
1072
1072
1113
1180
1240
1265
1255
1225
1192
1145
1047
857
561
216
-58
-170
-158
-144
-154
-5
527
1417
2317
2875
3109
3378
3946
4619
4920
4604
3920
3338
3061
2896
2568
2061
1602
1385
1372
1389
1339
1267
1247
1260
1216
1066
880
782
820
919
961
903
824
833
941
1050
1056
963
851
769
674
512
313
176
155
181
143
22
-94
-128
-105
-106
-176
-306
-515
-853
-1289
-1648
-1720
-1476
-1117
-867
-735
-521
-67
534
1005
1133
940
611
314
104
-46
-169
-268
-333
-356
-341
-293
-228
-160
-113
-113
-183
-320
-481
-602
-647
-651
-684
-785
-921
-1029
-1088
-1131
-1191
-1244
-1228
-1128
-1006
-942
-960
-1012
-1040
-1021
-953
-838
-685
-531
-416
-338
-256
-136
5
124
200
258
337
446
567
680
765
814
829
827
835
877
942
1008
1050
1078
1111
1161
1212
1241
1230
1191
1146
1113
1091
1063
1024
991
988
1021
1068
1082
1032
935
836
767
719
656
566
469
398
356
330
314
314
324
322
289
234
184
155
152
174
213
253
267
244
216
223
261
287
261
200
156
157
183
197
198
215
276
364
447
509
565
630
696
745
771
780
770
730
658
581
526
502
497
506
546
620
691
711
681
656
684
742
747
664
549
490
507
549
566
565
569
553
478
353
228
116
-57
-335
-629
-782
-769
-735
-779
-766
-436
276
1105
1726
2107
2494
3056
3632
3908
3776
3435
3138
2923
2651
2233
1760
1394
1196
1105
1030
923
774
589
403
280
245
252
225
147
91
126
227
285
233
113
20
-10
-24
-70
-120
-115
-49
16
34
29
62
130
155
53
-140
-297
-320
-251
-211
-233
-216
-41
257
485
480
289
107
58
63
-55
-352
-706
-959
-1063
-1086
-1100
-1115
-1109
-1097
-1113
-1164
-1219
-1256
-1288
-1335
-1393
-1440
-1465
-1470
-1450
-1385
-1276
-1172
-1118
-1126
-1155
-1161
-1140
-1132
-1156
-1185
-1154
-1042
-913
-861
-899
-916
-790
-540
-327
-305
-467
-654
-709
-615
-480
-410
-409
-383
-251
-48
66
-69
-441
-830
-998
-902
-713
-602
-525
-298
165
708
1070
1137
1002
812
636
455
226
-65
-374
-560
-413
145
910
1505
1706
1639
1570
1561
1432
1054
573
260
183
168
88
87
393
959
1447
1597
1509
1461
1536
1498
1111
445
-183
-520
-607
-647
-749
-866
-906
-852
-757
-653
-519
-305
16
418
845
1268
1669
2010
2214
2217
2051
1833
1679
1612
1567
1488
1380
1263
1129
953
767
651
650
690
655
498
296
178
220
387
552
550
301
-108
-459
-582
-488
-321
-185
-45
164
403
536
501
368
228
90
-106
-394
-748
-1120
-1455
-1672
-1715
-1634
-1583
-1619
-1557
-1108
-228
754
1435
1756
2025
2492
2985
3101
2681
2023
1577
1471
1446
1230
847
547
483
547
534
394
263
271
396
515
555
556
585
639
657
602
503
405
309
187
49
-44
-28
75
153
89
-129
-379
-524
-544
-572
-734
-992
-1170
-1133
-941
-809
-885
-1117
-1320
-1361
-1255
-1106
-992
-927
-890
-862
-828
-780
-723
-682
-681
-721
-781
-828
-828
-757
-636
-518
-437
-388
-349
-340
-407
-541
-644
-624
-493
-365
-298
-231
-81
115
214
134
-43
-173
-221
-276
-416
-592
-680
-620
-469
-331
-268
-278
-321
-359
-379
-387
-400
-413
-392
-300
-131
75
267
404
476
501
525
572
609
563
414
250
212
340
533
650
664
672
781
982
1175
1272
1282
1282
1339
1449
1555
1600
1578
1540
1542
1584
1617
1595
1523
1444
1391
1358
1331
1321
1349
1407
1447
1411
1301
1182
1132
1163
1205
1173
1055
926
870
913
1022
1143
1244
1306
1312
1269
1218
1206
1238
1261
1223
1126
1011
931
925
990
1087
1172
1221
1245
1274
1310
1326
1308
1271
1213
1128
1013
908
860
866
869
842
819
855
940
1007
1012
977
948
940
938
940
956
978
980
955
925
899
849
741
601
488
394
231
-71
-433
-678
-723
-679
-730
-882
-896
-522
209
990
1519
1805
2116
2639
3241
3587
3492
3109
2733
2483
2231
1818
1292
851
621
531
432
281
166
174
275
360
348
242
126
82
127
193
162
-23
-280
-456
-478
-418
-401
-449
-478
-429
-361
-367
-430
-431
-299
-114
-29
-103
-233
-267
-176
-70
-62
-142
-196
-167
-137
-201
-307
-269
6
348
486
357
212
334
673
875
665
146
-322
-502
-484
-522
-740
-1033
-1223
-1239
-1140
-1023
-950
-947
-1008
-1092
-1147
-1147
-1133
-1153
-1211
-1264
-1276
-1253
-1229
-1207
-1168
-1101
-1032
-993
-971
-927
-849
-772
-730
-702
-653
-569
-475
-392
-303
-183
-27
128
244
320
389
474
581
688
759
768
712
638
610
653
726
762
747
730
768
848
923
980
1053
1159
1234
1171
951
697
560
556
556
446
279
216
344
554
670
639
600
704
919
1040
910
598
333
273
335
305
80
-212
-347
-239
-23
95
45
-69
-100
-14
96
119
41
-63
-106
-69
-2
48
85
140
208
241
195
94
14
8
52
81
73
52
48
64
81
98
132
164
141
23
-137
-226
-165
1
123
82
-108
-330
-487
-588
-689
-787
-791
-620
-304
47
371
719
1158
1638
1977
2016
1778
1432
1117
820
469
89
-183
-250
-177
-59
159
643
1412
2186
2624
2693
2720
2992
3399
3553
3256
2727
2330
2172
2055
1793
1435
1154
1015
938
853
780
761
773
765
743
746
772
768
725
710
755
789
707
514
350
333
437
537
554
509
463
454
472
494
475
383
241
142
160
266
342
313
223
183
230
293
277
170
29
-67
-86
-53
1
59
142
274
421
493
422
253
110
38
-71
-358
-787
-1123
-1167
-974
-802
-805
-886
-852
-672
-502
-483
-581
-657
-645
-594
-555
-519
-465
-426
-439
-473
-446
-347
-280
-343
-518
-684
-751
-736
-704
-678
-649
-613
-576
-515
-395
-212
-7
167
298
412
536
658
744
787
808
840
876
886
835
739
669
689
786
881
918
909
903
915
906
851
765
691
636
582
525
481
460
443
412
380
388
437
464
396
233
75
34
129
260
302
224
122
105
182
249
212
90
-9
-33
-19
-36
-90
-118
-90
-64
-111
-223
-309
-305
-241
-203
-234
-277
-256
-174
-105
-104
-140
-136
-66
21
69
88
128
201
264
272
237
208
198
180
125
46
-18
-59
-92
-113
-93
-18
69
107
94
86
133
220
285
275
194
84
-13
-97
-207
-391
-643
-868
-957
-914
-854
-849
-789
-457
207
968
1512
1776
1991
2380
2851
3085
2890
2407
1938
1621
1345
966
502
91
-174
-321
-404
-433
-409
-374
-385
-433
-449
-404
-357
-399
-526
-635
-648
-601
-595
-663
-725
-687
-554
-415
-338
-308
-278
-234
-208
-213
-225
-217
-197
-197
-221
-244
-254
-282
-347
-423
-465
-473
-505
-597
-709
-764
-738
-682
-646
-622
-575
-514
-485
-501
-517
-487
-439
-442
-521
-621
-665
-650
-640
-689
-784
-863
-884
-865
-872
-942
-1059
-1167
-1223
-1238
-1252
-1298
-1370
-1439
-1469
-1443
-1362
-1254
-1162
-1117
-1109
-1098
-1060
-1001
-949
-913
-878
-841
-812
-788
-740
-639
-499
-372
-291
-236
-161
-58
36
73
53
22
25
57
67
10
-80
-115
-37
102
187
160
88
86
181
286
303
234
170
180
248
324
378
406
406
380
345
338
349
318
214
89
38
81
119
54
-87
-177
-140
-53
-57
-197
-363
-426
-380
-333
-380
-494
-572
-550
-460
-372
-340
-363
-393
-383
-334
-295
-331
-432
-507
-492
-431
-421
-504
-587
-561
-422
-278
-214
-225
-257
-298
-373
-465
-512
-485
-432
-418
-430
-388
-244
-52
82
105
66
59
125
210
232
157
25
-68
-63
-14
-47
-238
-530
-764
-846
-845
-910
-1084
-1191
-981
-389
380
1017
1401
1667
2031
2533
2985
3151
2954
2516
2040
1645
1309
934
461
-53
-490
-761
-864
-848
-758
-616
-445
-280
-139
-3
142
256
271
157
-37
-241
-422
-572
-685
-741
-740
-713
-681
-636
-565
-492
-466
-501
-556
-575
-540
-480
-438
-436
-468
-498
-487
-412
-313
-264
-306
-392
-439
-422
-398
-426
-485
-496
-440
-401
-471
-635
-773
-816
-823
-915
-1103
-1263
-1276
-1176
-1109
-1153
-1236
-1232
-1121
-1015
-1020
-1121
-1210
-1207
-1128
-1042
-999
-999
-1011
-1001
-963
-903
-849
-819
-813
-802
-755
-659
-532
-408
-324
-307
-338
-358
-309
-202
-110
-92
-130
-131
-36
115
236
279
291
339
440
546
614
657
721
823
929
991
999
986
990
1029
1088
1147
1186
1188
1146
1074
1018
1007
1027
1024
966
889
861
907
970
983
950
939
977
1002
935
775
618
536
503
456
388
356
385
415
386
324
327
445
583
604
466
271
161
175
225
200
87
-26
-36
71
202
249
199
150
197
318
393
341
218
157
219
329
372
325
288
365
550
719
743
609
424
316
312
320
218
-18
-269
-387
-328
-197
-128
-153
-196
-190
-153
-151
-206
-278
-346
-467
-680
-916
-1045
-1023
-966
-998
-1056
-898
-376
367
995
1323
1505
1833
2377
2887
3044
2793
2364
2009
1765
1501
1131
706
339
75
-105
-226
-293
-317
-351
-426
-531
-645
-780
-945
-1098
-1173
-1144
-1035
-911
-795
-663
-509
-374
-323
-406
-608
-837
-959
-907
-738
-590
-530
-485
-358
-187
-124
-253
-474
-611
-632
-700
-960
-1355
-1677
-1805
-1806
-1813
-1835
-1747
-1459
-1062
-745
-591
-485
-255
147
546
690
494
120
-178
-267
-215
-181
-250
-367
-421
-370
-255
-136
-63
-82
-258
-645
-1241
-1961
-2654
-3141
-3313
-3200
-2958
-2744
-2568
-2280
-1746
-1022
-344
67
176
107
17
1
97
308
583
798
834
676
424
199
50
-62
-180
-292
-339
-285
-142
51
264
452
549
496
283
1
-218
-299
-257
-167
-77
28
139
208
186
100
45
87
182
218
127
-52
-238
-398
-560
-753
-951
-1105
-1200
-1276
-1372
-1488
-1595
-1661
-1675
-1637
-1557
-1489
-1507
-1634
-1794
-1856
-1766
-1588
-1439
-1386
-1377
-1324
-1182
-977
-745
-495
-208
124
484
828
1119
1348
1560
1810
2109
2406
2640
2807
2964
3144
3317
3433
3489
3525
3546
3507
3381
3222
3110
3048
2953
2767
2524
2283
2036
1721
1339
981
726
541
322
41
-212
-347
-394
-504
-791
-1235
-1716
-2117
-2395
-2577
-2709
-2781
-2699
-2325
-1617
-722
105
741
1296
1951
2688
3247
3386
3149
2831
2663
2606
2466
2155
1767
1452
1249
1102
971
861
782
703
572
373
122
-124
-302
-363
-331
-312
-407
-593
-730
-703
-531
-345
-242
-212
-186
-135
-75
-14
68
187
312
399
437
461
499
548
576
591
638
747
889
991
1018
1000
995
1019
1023
956
817
660
529
427
329
239
192
210
267
301
273
191
95
24
-4
14
66
119
125
83
51
103
245
397
451
391
295
248
251
240
173
86
55
99
163
166
87
-11
-44
17
123
182
151
76
49
117
240
331
357
358
381
409
387
313
266
322
446
514
467
384
394
515
628
628
531
441
401
356
257
134
62
56
62
38
-2
-25
-39
-76
-124
-133
-78
-1
31
-4
-58
-85
-91
-98
-111
-114
-109
-133
-211
-306
-341
-277
-163
-101
-148
-255
-317
-282
-208
-193
-265
-342
-331
-237
-170
-210
-322
-399
-377
-294
-224
-187
-151
-97
-51
-40
-41
3
109
232
302
301
270
276
363
515
673
781
822
825
820
813
799
792
824
895
953
953
905
864
868
893
883
811
705
603
500
358
138
-129
-341
-416
-381
-350
-381
-339
-5
689
1524
2177
2536
2777
3127
3570
3865
3823
3512
3151
2871
2625
2318
1959
1641
1430
1310
1233
1170
1113
1059
1011
982
976
964
915
829
737
664
592
494
384
310
308
354
399
412
405
409
437
467
463
410
337
289
275
258
196
100
27
1
-5
-26
-65
-91
-84
-66
-68
-103
-154
-209
-269
-339
-422
-517
-598
-638
-628
-609
-641
-727
-809
-823
-778
-736
-745
-789
-824
-839
-870
-937
-1009
-1033
-1016
-1038
-1167
-1366
-1497
-1455
-1286
-1149
-1149
-1232
-1255
-1170
-1074
-1090
-1209
-1301
-1275
-1180
-1127
-1152
-1162
-1043
-803
-564
-442
-436
-447
-404
-348
-368
-468
-517
-394
-125
107
150
46
-21
76
264
379
346
252
232
329
462
532
533
554
658
802
872
807
684
639
723
860
942
938
918
939
992
1035
1037
993
912
826
789
824
876
847
732
668
790
1062
1294
1353
1317
1368
1562
1761
1799
1660
1468
1331
1241
1140
1021
936
914
917
896
853
837
867
890
827
668
525
531
709
925
1012
931
798
763
862
994
1030
927
762
669
716
873
1023
1057
971
854
784
746
658
488
320
276
366
457
428
299
188
131
41
-166
-427
-596
-616
-610
-719
-912
-1017
-914
-661
-389
-130
189
634
1163
1701
2233
2787
3308
3630
3608
3274
2813
2418
2146
1917
1632
1283
962
774
754
851
972
1032
982
830
638
483
406
378
336
258
174
91
-37
-250
-496
-649
-647
-554
-492
-498
-507
-446
-334
-260
-278
-354
-408
-401
-378
-406
-497
-579
-577
-491
-409
-405
-464
-508
-501
-501
-587
-758
-931
-1040
-1092
-1132
-1171
-1200
-1219
-1236
-1237
-1189
-1099
-1038
-1077
-1207
-1356
-1458
-1513
-1561
-1621
-1690
-1768
-1854
-1923
-1941
-1907
-1884
-1933
-2037
-2114
-2108
-2051
-2014
-2012
-1990
-1902
-1783
-1715
-1730
-1789
-1830
-1821
-1761
-1653
-1515
-1388
-1316
-1282
-1224
-1100
-943
-825
-782
-785
-792
-787
-764
-706
-601
-483
-419
-430
-471
-484
-480
-531
-670
-837
-923
-891
-808
-764
-786
-818
-797
-724
-650
-626
-655
-706
-759
-823
-909
-985
-993
-912
-795
-745
-806
-929
-1028
-1066
-1077
-1104
-1147
-1183
-1226
-1301
-1391
-1439
-1406
-1327
-1274
-1276
-1292
-1273
-1211
-1124
-1031
-945
-890
-885
-902
-881
-799
-714
-700
-748
-778
-734
-653
-607
-604
-587
-522
-458
-450
-464
-409
-257
-91
-6
2
18
83
133
91
-17
-96
-97
-73
-97
-146
-136
-42
60
89
59
58
126
196
186
103
37
45
88
85
6
-94
-137
-103
-60
-117
-329
-625
-847
-891
-820
-783
-793
-649
-135
699
1517
2030
2293
2611
3144
3690
3889
3616
3094
2638
2360
2148
1861
1490
1121
826
621
502
473
514
557
545
489
452
475
518
493
361
190
91
103
155
146
55
-31
-24
66
150
153
80
-11
-87
-153
-205
-209
-147
-67
-68
-201
-397
-533
-551
-514
-532
-635
-749
-781
-719
-639
-613
-634
-639
-605
-595
-690
-878
-1044
-1076
-1000
-956
-1046
-1211
-1297
-1233
-1105
-1049
-1096
-1170
-1208
-1230
-1292
-1376
-1418
-1394
-1367
-1407
-1502
-1561
-1518
-1409
-1346
-1404
-1548
-1667
-1695
-1679
-1728
-1873
-2024
-2055
-1944
-1784
-1674
-1605
-1492
-1296
-1076
-925
-877
-876
-834
-711
-543
-416
-392
-455
-516
-491
-384
-262
-173
-97
2
120
218
287
356
435
483
461
389
330
307
276
196
94
30
26
53
77
98
119
118
60
-47
-140
-171
-159
-172
-243
-335
-378
-345
-281
-256
-298
-365
-387
-338
-267
-257
-348
-494
-605
-626
-570
-502
-469
-474
-485
-465
-396
-309
-265
-301
-392
-454
-433
-361
-321
-350
-400
-399
-333
-256
-221
-216
-183
-96
-4
28
-1
-23
22
104
137
81
2
9
122
241
254
155
41
0
28
62
60
27
-7
-31
-46
-50
-35
4
47
54
-5
-117
-231
-315
-412
-586
-819
-993
-1013
-924
-842
-736
-397
317
1223
1927
2237
2377
2705
3265
3703
3670
3207
2681
2365
2205
1982
1619
1241
980
823
680
531
443
448
473
426
303
186
145
158
159
112
34
-47
-119
-169
-165
-90
10
61
29
-33
-46
5
49
19
-64
-107
-55
53
121
88
-19
-130
-193
-209
-217
-261
-351
-457
-536
-565
-561
-552
-546
-546
-568
-625
-699
-734
-710
-691
-770
-942
-1078
-1066
-964
-947
-1095
-1270
-1266
-1074
-934
-1078
-1454
-1760
-1775
-1591
-1497
-1644
-1897
-1994
-1840
-1567
-1353
-1247
-1180
-1104
-1061
-1096
-1178
-1240
-1251
-1241
-1227
-1181
-1066
-898
-729
-591
-471
-375
-348
-411
-521
-614
-702
-859
-1099
-1291
-1264
-1000
-664
-435
-341
-271
-138
19
97
48
-84
-229
-347
-428
-456
-415
-328
-256
-239
-277
-342
-411
-466
-477
-448
-431
-500
-658
-794
-809
-763
-842
-1150
-1569
-1852
-1873
-1734
-1619
-1568
-1462
-1192
-804
-459
-264
-204
-208
-261
-402
-654
-955
-1187
-1269
-1236
-1190
-1175
-1106
-854
-442
-93
-1
-112
-162
-13
145
30
-361
-701
-724
-560
-558
-834
-1093
-1023
-707
-525
-692
-974
-981
-650
-299
-247
-466
-696
-796
-899
-1223
-1785
-2370
-2738
-2823
-2746
-2640
-2497
-2175
-1575
-805
-148
161
115
-117
-417
-847
-1482
-2194
-2698
-2865
-2884
-2993
-3124
-2917
-2179
-1215
-545
-338
-263
80
656
1093
1185
1132
1227
1442
1494
1216
756
348
34
-302
-692
-1013
-1164
-1193
-1188
-1123
-898
-538
-239
-189
-384
-690
-1011
-1376
-1842
-2342
-2698
-2773
-2591
-2333
-2166
-2094
-1946
-1581
-1108
-858
-1087
-1697
-2285
-2497
-2330
-2056
-1910
-1904
-1912
-1871
-1812
-1763
-1701
-1632
-1649
-1829
-2110
-2330
-2342
-2132
-1800
-1478
-1281
-1275
-1409
-1547
-1595
-1594
-1650
-1755
-1761
-1556
-1222
-959
-835
-705
-434
-121
-17
-235
-594
-809
-807
-789
-954
-1265
-1498
-1511
-1377
-1270
-1253
-1277
-1315
-1421
-1609
-1753
-1693
-1414
-1098
-942
-950
-986
-952
-896
-931
-1082
-1287
-1496
-1712
-1934
-2103
-2164
-2142
-2119
-2145
-2199
-2239
-2267
-2326
-2420
-2495
-2498
-2428
-2340
-2278
-2227
-2145
-2030
-1940
-1944
-2051
-2184
-2256
-2234
-2177
-2185
-2310
-2524
-2749
-2923
-3039
-3134
-3253
-3399
-3535
-3630
-3677
-3690
-3672
-3591
-3415
-3153
-2863
-2585
-2291
-1901
-1394
-875
-486
-276
-148
18
205
296
229
99
67
166
260
212
56
-33
72
317
541
637
638
661
790
1026
1285
1460
1500
1436
1346
1287
1247
1197
1150
1155
1232
1334
1402
1435
1482
1562
1617
1567
1396
1186
1024
925
832
682
485
317
251
285
332
302
182
23
-128
-269
-412
-530
-579
-574
-613
-755
-957
-1106
-1147
-1168
-1315
-1650
-2068
-2391
-2523
-2506
-2424
-2281
-1989
-1485
-855
-287
99
371
696
1117
1455
1473
1133
659
311
143
-6
-296
-711
-1116
-1415
-1622
-1767
-1841
-1855
-1872
-1973
-2131
-2223
-2170
-2029
-1927
-1913
-1922
-1871
-1761
-1680
-1693
-1779
-1875
-1946
-2015
-2128
-2281
-2407
-2425
-2339
-2262
-2287
-2370
-2371
-2242
-2148
-2302
-2703
-3087
-3183
-2983
-2703
-2539
-2488
-2424
-2283
-2109
-1979
-1911
-1897
-1934
-2019
-2137
-2254
-2333
-2349
-2291
-2199
-2149
-2178
-2234
-2236
-2190
-2204
-2340
-2508
-2539
-2394
-2242
-2262
-2421
-2518
-2417
-2214
-2108
-2168
-2270
-2265
-2146
-2024
-1971
-1952
-1921
-1902
-1938
-2015
-2057
-2040
-2043
-2112
-2164
-2047
-1733
-1391
-1190
-1106
-955
-631
-254
-34
-21
-76
-52
47
105
80
67
170
383
575
619
519
399
379
437
420
201
-167
-475
-542
-395
-239
-243
-391
-530
-531
-393
-215
-109
-138
-276
-427
-486
-434
-390
-502
-782
-1064
-1178
-1112
-1022
-1045
-1159
-1261
-1297
-1304
-1325
-1340
-1325
-1325
-1426
-1636
-1847
-1953
-1954
-1951
-2023
-2167
-2341
-2533
-2754
-2977
-3134
-3199
-3229
-3312
-3469
-3643
-3767
-3832
-3885
-3962
-4069
-4191
-4316
-4421
-4466
-4423
-4327
-4258
-4273
-4342
-4374
-4325
-4243
-4217
-4291
-4417
-4518
-4566
-4593
-4665
-4813
-4992
-5110
-5089
-4940
-4768
-4680
-4694
-4731
-4714
-4672
-4689
-4789
-4900
-4943
-4942
-4999
-5141
-5263
-5258
-5165
-5123
-5211
-5371
-5520
-5658
-5825
-5983
-6023
-5920
-5773
-5645
-5428
-4957
-4280
-3678
-3365
-3232
-2998
-2582
-2218
-2178
-2455
-2792
-3003
-3128
-3300
-3553
-3807
-4007
-4155
-4249
-4248
-4146
-4021
-3970
-3993
-4012
-3981
-3939
-3941
-3964
-3948
-3877
-3802
-3782
-3810
-3822
-3770
-3653
-3505
-3341
-3158
-2960
-2779
-2647
-2535
-2368
-2104
-1821
-1674
-1729
-1890
-2003
-2042
-2127
-2354
-2663
-2885
-2934
-2866
-2777
-2687
-2556
-2359
-2121
-1877
-1661
-1541
-1596
-1838
-2164
-2433
-2572
-2618
-2665
-2765
-2905
-3026
-3077
-3044
-2960
-2882
-2887
-3022
-3240
-3396
-3339
-3093
-2891
-3012
-3503
-4069
-4334
-4204
-3949
-3899
-4078
-4200
-3994
-3501
-3025
-2843
-2995
-3302
-3538
-3610
-3583
-3575
-3636
-3707
-3692
-3548
-3350
-3206
-3161
-3183
-3264
-3448
-3762
-4114
-4322
-4293
-4123
-3988
-3956
-3908
-3707
-3350
-2983
-2745
-2646
-2604
-2559
-2517
-2509
-2572
-2720
-2928
-3109
-3169
-3099
-3005
-2999
-3089
-3221
-3354
-3513
-3707
-3868
-3908
-3845
-3794
-3827
-3850
-3713
-3394
-3052
-2883
-2939
-3116
-3291
-3437
-3584
-3725
-3806
-3809
-3784
-3801
-3854
-3860
-3743
-3528
-3340
-3310
-3466
-3721
-3934
-4020
-4009
-3994
-4028
-4071
-4070
-4025
-3988
-3984
-3980
-3958
-3962
-4010
-4017
-3832
-3410
-2892
-2455
-2131
-1808
-1432
-1118
-1029
-1183
-1422
-1597
-1702
-1810
-1942
-2018
-1981
-1880
-1820
-1843
-1910
-1957
-1969
-1993
-2062
-2164
-2250
-2293
-2294
-2284
-2315
-2432
-2649
-2910
-3114
-3208
-3252
-3345
-3492
-3558
-3413
-3113
-2851
-2706
-2511
-2054
-1380
-815
-607
-634
-573
-317
-137
-339
-873
-1377
-1603
-1671
-1861
-2238
-2607
-2792
-2861
-2991
-3208
-3379
-3428
-3451
-3596
-3852
-4053
-4065
-3912
-3732
-3632
-3628
-3663
-3664
-3564
-3359
-3141
-3032
-3056
-3107
-3066
-2952
-2902
-2988
-3123
-3162
-3078
-2973
-2939
-2943
-2891
-2766
-2670
-2684
-2761
-2771
-2648
-2469
-2367
-2386
-2446
-2428
-2311
-2172
-2089
-2053
-1994
-1861
-1676
-1504
-1386
-1317
-1260
-1188
-1115
-1091
-1159
-1308
-1446
-1477
-1395
-1301
-1287
-1345
-1367
-1274
-1120
-1025
-1032
-1057
-995
-848
-722
-690
-691
-587
-331
-36
126
110
30
39
181
361
471
508
561
701
891
1027
1051
1011
1012
1087
1160
1123
962
785
721
785
880
902
850
815
867
974
1058
1074
1057
1070
1124
1165
1159
1125
1121
1168
1222
1240
1230
1238
1290
1350
1359
1312
1272
1307
1424
1553
1612
1560
1442
1349
1345
1403
1418
1311
1121
981
981
1088
1187
1209
1187
1188
1242
1321
1384
1400
1364
1275
1164
1078
1043
1035
1000
916
823
787
842
975
1161
1366
1556
1687
1739
1738
1745
1780
1791
1711
1551
1425
1441
1601
1817
2003
2154
2297
2418
2477
2469
2438
2416
2372
2278
2170
2124
2160
2206
2205
2189
2235
2337
2403
2359
2232
2098
1986
1870
1730
1564
1355
1076
758
506
395
379
382
471
843
1579
2456
3134
3515
3840
4365
4993
5336
5134
4550
3976
3632
3408
3091
2636
2202
1941
1870
1888
1912
1916
1899
1856
1795
1742
1719
1714
1681
1608
1524
1461
1412
1358
1315
1332
1426
1526
1529
1414
1269
1194
1178
1121
966
775
668
685
757
790
768
747
786
878
959
974
939
926
983
1073
1101
1015
873
782
768
756
664
520
435
471
575
647
656
655
692
738
718
597
420
256
132
26
-82
-171
-207
-201
-194
-204
-194
-114
20
130
168
171
213
308
388
398
373
383
449
527
589
669
813
1005
1173
1282
1376
1523
1728
1923
2037
2070
2094
2169
2286
2387
2427
2421
2423
2459
2517
2580
2672
2822
3001
3129
3155
3121
3116
3170
3216
3177
3063
2975
2983
3065
3151
3212
3273
3343
3375
3326
3223
3139
3106
3055
2904
2667
2469
2419
2506
2612
2633
2586
2568
2650
2798
2914
2912
2771
2538
2300
2137
2066
2028
1948
1836
1797
1923
2167
2354
2348
2189
2045
2041
2145
2223
2185
2074
2015
2109
2345
2627
2827
2890
2883
2917
3023
3105
3047
2862
2704
2698
2814
2915
2923
2893
2913
2967
2962
2867
2751
2686
2639
2499
2218
1903
1709
1689
1755
1781
1737
1671
1651
1693
1740
1714
1536
1188
764
446
352
412
468
481
664
1249
2162
2992
3373
3360
3313
3449
3555
3270
2569
1841
1480
1487
1566
1491
1305
1137
999
819
616
473
368
153
-239
-643
-785
-555
-142
176
272
186
22
-131
-187
-107
39
63
-177
-592
-922
-975
-818
-687
-763
-994
-1186
-1210
-1099
-978
-912
-855
-752
-629
-577
-645
-737
-706
-525
-329
-285
-396
-493
-425
-242
-125
-196
-379
-467
-361
-152
-13
-10
-62
-77
-55
-60
-112
-130
-31
141
252
212
87
39
123
210
115
-197
-536
-676
-578
-415
-383
-491
-572
-494
-318
-208
-249
-357
-399
-359
-325
-374
-485
-563
-545
-420
-198
85
336
441
378
292
366
605
820
809
562
266
95
50
5
-117
-264
-357
-399
-462
-587
-727
-811
-828
-835
-875
-925
-918
-853
-787
-778
-817
-848
-822
-748
-662
-602
-581
-597
-616
-590
-495
-366
-273
-256
-283
-278
-180
20
291
581
829
996
1092
1166
1235
1255
1182
1045
929
879
863
829
788
780
816
847
831
780
716
617
459
301
259
372
540
614
580
559
643
756
726
463
37
-411
-800
-1131
-1404
-1598
-1710
-1774
-1820
-1817
-1713
-1500
-1263
-1118
-1139
-1323
-1598
-1874
-2090
-2259
-2462
-2756
-3108
-3416
-3621
-3764
-3904
-3996
-3920
-3638
-3268
-2947
-2640
-2163
-1430
-611
44
486
915
1503
2164
2646
2833
2854
2901
2997
3022
2920
2772
2699
2711
2756
2829
2988
3258
3565
3808
3968
4089
4175
4181
4108
4048
4078
4135
4070
3841
3614
3577
3722
3841
3767
3555
3382
3329
3306
3216
3083
3008
3011
3002
2885
2660
2414
2220
2107
2056
2033
1984
1865
1690
1517
1398
1323
1238
1107
973
910
942
1013
1022
928
806
771
826
848
731
537
459
570
713
683
500
415
599
891
959
666
248
54
158
312
238
-61
-351
-444
-376
-312
-323
-352
-330
-299
-334
-420
-452
-367
-230
-132
-75
4
99
127
69
56
233
546
746
673
442
334
468
685
769
697
636
692
783
770
653
577
642
776
829
734
583
512
567
679
755
771
767
782
812
852
937
1092
1279
1408
1425
1380
1368
1397
1376
1240
1054
968
1033
1148
1173
1093
1027
1082
1246
1404
1463
1437
1412
1447
1539
1616
1618
1561
1516
1545
1619
1644
1554
1383
1241
1206
1261
1345
1430
1523
1612
1657
1633
1584
1590
1658
1698
1618
1450
1330
1367
1529
1683
1741
1733
1745
1809
1875
1868
1775
1659
1602
1635
1716
1761
1722
1626
1539
1501
1484
1432
1316
1139
924
697
503
406
427
509
586
685
929
1409
2042
2609
2946
3105
3271
3547
3814
3846
3541
3034
2568
2284
2123
1929
1635
1321
1118
1080
1147
1230
1295
1348
1385
1384
1342
1298
1295
1330
1355
1327
1261
1198
1167
1167
1178
1176
1141
1083
1046
1046
1041
965
831
757
832
1003
1104
1048
925
895
1002
1136
1178
1121
1045
1013
1022
1035
1033
1003
946
879
830
800
772
742
738
772
822
834
792
729
685
659
626
569
497
422
362
325
304
277
233
199
227
317
386
351
221
106
112
217
302
265
125
1
-9
79
158
152
90
77
174
314
374
315
247
299
460
588
578
477
436
535
705
836
913
1003
1152
1319
1436
1472
1468
1473
1514
1600
1713
1808
1833
1788
1743
1775
1876
1992
2093
2211
2383
2599
2821
3032
3235
3396
3466
3437
3352
3233
3054
2811
2595
2517
2607
2788
2953
3044
3054
2988
2896
2870
2928
2931
2731
2361
2048
1979
2099
2227
2270
2291
2331
2310
2136
1869
1673
1609
1572
1425
1172
934
829
881
1044
1254
1436
1528
1506
1407
1279
1144
1000
862
758
710
705
707
694
698
790
1002
1265
1429
1400
1257
1183
1305
1553
1747
1773
1663
1493
1297
1059
791
565
442
411
419
457
592
915
1453
2091
2634
2947
3062
3142
3295
3451
3434
3155
2741
2402
2215
2068
1816
1455
1112
884
743
598
418
241
96
-40
-186
-316
-392
-431
-493
-598
-684
-683
-607
-546
-565
-631
-665
-635
-573
-532
-523
-525
-522
-521
-513
-460
-329
-156
-38
-53
-172
-276
-269
-152
-25
11
-55
-139
-152
-77
14
25
-53
-130
-116
-20
56
22
-91
-168
-148
-84
-81
-159
-245
-283
-307
-389
-515
-582
-509
-360
-298
-420
-646
-797
-777
-671
-654
-808
-1042
-1198
-1204
-1139
-1136
-1232
-1342
-1348
-1234
-1117
-1131
-1286
-1448
-1465
-1329
-1200
-1240
-1444
-1643
-1671
-1524
-1345
-1267
-1296
-1324
-1255
-1090
-921
-831
-829
-841
-787
-661
-532
-468
-458
-426
-329
-204
-126
-107
-75
35
198
315
335
304
304
351
394
378
314
272
296
368
437
480
534
641
784
875
843
730
657
693
782
804
719
619
609
687
753
744
706
728
831
954
1030
1048
1040
1047
1094
1184
1276
1280
1158
988
931
1067
1301
1447
1407
1253
1127
1082
1066
1007
895
773
680
628
621
657
724
796
853
892
918
946
975
987
966
925
900
915
929
874
720
502
286
65
-187
-423
-534
-480
-372
-324
-246
113
839
1665
2211
2411
2582
3023
3605
3893
3652
3123
2746
2655
2593
2261
1683
1160
913
881
859
747
623
602
680
768
801
801
843
942
1041
1063
974
832
739
749
827
885
870
800
731
699
690
657
551
359
136
0
39
203
336
330
247
251
398
558
561
390
194
105
103
80
-4
-82
-82
-29
-7
-50
-112
-132
-106
-88
-125
-205
-266
-262
-205
-147
-129
-140
-147
-151
-186
-272
-381
-462
-490
-489
-483
-472
-451
-432
-431
-429
-384
-280
-165
-109
-129
-181
-209
-211
-221
-248
-275
-283
-288
-298
-280
-182
-12
142
211
230
305
487
694
793
748
659
648
731
816
814
738
668
651
660
640
579
516
492
497
488
448
406
418
507
637
748
805
820
830
871
947
1037
1099
1100
1052
1014
1041
1115
1166
1137
1055
1002
1021
1070
1081
1037
991
1001
1059
1094
1052
963
909
933
987
978
876
755
710
746
772
721
625
570
586
625
639
648
691
752
776
760
765
826
883
854
751
682
720
819
876
847
793
795
859
922
937
905
862
837
845
874
901
906
882
837
784
726
669
624
570
442
195
-97
-275
-262
-180
-218
-357
-300
234
1153
2003
2426
2535
2756
3303
3919
4154
3872
3367
3011
2871
2728
2418
2034
1794
1772
1853
1897
1870
1834
1830
1831
1796
1719
1630
1559
1505
1457
1403
1360
1354
1397
1459
1481
1424
1317
1244
1262
1326
1327
1212
1065
1022
1123
1259
1277
1153
1007
962
1002
1000
862
633
450
423
540
684
726
626
461
350
341
368
337
240
153
123
105
44
-31
-25
73
157
131
48
39
112
106
-112
-457
-700
-726
-654
-690
-895
-1129
-1208
-1086
-880
-756
-790
-915
-992
-927
-760
-632
-648
-781
-904
-917
-835
-756
-774
-888
-1031
-1107
-1046
-856
-626
-464
-415
-431
-417
-327
-198
-122
-171
-317
-449
-454
-314
-125
-6
19
28
97
180
180
74
-41
-65
-5
34
-22
-135
-194
-162
-122
-179
-337
-491
-551
-530
-534
-619
-726
-748
-650
-507
-405
-358
-295
-149
22
66
-165
-669
-1255
-1672
-1795
-1690
-1494
-1288
-1049
-746
-378
66
553
928
955
540
-55
-401
-293
29
135
-117
-471
-590
-446
-289
-318
-455
-450
-181
219
511
604
623
728
907
920
544
-170
-905
-1320
-1306
-1014
-665
-354
-45
339
804
1242
1521
1591
1527
1470
1479
1498
1444
1301
1117
903
631
334
107
2
-52
-140
-192
-27
428
1003
1456
1728
1973
2329
2746
3060
3176
3153
3100
3047
2924
2659
2275
1890
1619
1467
1337
1150
950
870
956
1071
1047
887
758
759
774
618
278
-31
-122
-55
-17
-70
-98
-13
71
-35
-329
-586
-602
-436
-357
-532
-824
-946
-768
-417
-108
90
277
529
770
885
883
901
1034
1220
1331
1327
1294
1338
1475
1639
1746
1733
1571
1301
1051
968
1070
1206
1189
984
732
596
588
566
385
33
-379
-729
-991
-1215
-1456
-1698
-1877
-1964
-2012
-2099
-2240
-2361
-2393
-2358
-2339
-2384
-2450
-2458
-2371
-2206
-1997
-1771
-1561
-1416
-1362
-1356
-1324
-1240
-1148
-1115
-1152
-1182
-1120
-950
-745
-598
-529
-465
-326
-105
92
154
78
-12
20
192
398
537
621
747
955
1170
1288
1305
1332
1460
1646
1763
1749
1670
1644
1710
1779
1739
1584
1429
1392
1464
1508
1409
1220
1115
1195
1350
1381
1243
1096
1098
1214
1279
1218
1141
1162
1229
1181
981
777
721
766
719
491
201
38
56
141
167
135
141
236
363
436
428
392
378
382
361
314
280
288
325
364
409
465
504
477
393
315
278
228
89
-105
-219
-175
-49
11
-35
-91
-73
-25
-50
-162
-270
-323
-412
-653
-1003
-1260
-1287
-1175
-1132
-1214
-1210
-863
-171
569
1072
1346
1638
2107
2599
2798
2577
2130
1758
1566
1404
1111
722
413
281
243
165
23
-100
-155
-190
-257
-317
-309
-267
-299
-429
-518
-438
-280
-282
-535
-837
-905
-724
-561
-624
-824
-931
-882
-847
-958
-1105
-1107
-995
-1000
-1235
-1510
-1517
-1194
-792
-584
-607
-685
-674
-601
-566
-602
-664
-705
-743
-818
-919
-998
-1026
-1010
-965
-911
-881
-904
-997
-1142
-1274
-1344
-1333
-1259
-1211
-1312
-1626
-2030
-2252
-2101
-1681
-1336
-1301
-1456
-1424
-979
-297
227
354
169
-61
-152
-70
122
315
373
205
-129
-423
-498
-371
-213
-135
-64
126
465
876
1277
1644
1959
2147
2142
1978
1782
1648
1561
1451
1306
1181
1131
1149
1170
1145
1067
925
704
434
210
131
192
265
210
28
-135
-176
-167
-275
-532
-766
-783
-605
-426
-381
-408
-367
-257
-230
-383
-639
-847
-953
-1023
-1109
-1167
-1138
-1063
-1075
-1250
-1519
-1732
-1815
-1838
-1930
-2137
-2359
-2436
-2306
-2058
-1853
-1786
-1843
-1967
-2124
-2301
-2458
-2533
-2505
-2430
-2388
-2388
-2364
-2271
-2155
-2115
-2198
-2335
-2421
-2424
-2394
-2382
-2381
-2371
-2382
-2462
-2602
-2722
-2746
-2700
-2661
-2649
-2606
-2492
-2367
-2322
-2358
-2378
-2309
-2202
-2179
-2308
-2543
-2767
-2884
-2884
-2859
-2970
-3327
-3847
-4254
-4321
-4085
-3783
-3572
-3323
-2793
-1961
-1090
-447
-36
325
696
900
748
299
-154
-395
-497
-700
-1132
-1668
-2057
-2171
-2087
-1982
-1962
-2010
-2052
-2054
-2041
-2049
-2091
-2170
-2286
-2421
-2509
-2469
-2280
-2020
-1809
-1673
-1530
-1278
-906
-530
-314
-347
-566
-796
-879
-791
-650
-604
-694
-857
-1034
-1221
-1416
-1562
-1577
-1448
-1260
-1102
-956
-733
-383
49
454
738
854
795
598
331
76
-120
-279
-454
-686
-942
-1125
-1152
-1006
-780
-594
-503
-462
-405
-333
-311
-385
-522
-682
-879
-1169
-1551
-1915
-2098
-1993
-1599
-1014
-391
124
465
667
815
956
1028
936
669
340
104
33
81
163
247
363
531
710
814
798
707
635
636
688
731
750
782
858
944
983
967
956
998
1052
1034
923
805
775
816
827
739
587
450
351
252
132
42
37
84
80
-29
-195
-316
-340
-312
-298
-327
-378
-413
-423
-420
-427
-454
-489
-511
-516
-520
-541
-558
-521
-422
-322
-305
-385
-480
-507
-486
-525
-679
-865
-941
-859
-715
-639
-661
-687
-626
-484
-358
-328
-387
-442
-399
-232
1
203
315
347
358
405
498
603
684
710
672
594
510
460
444
424
347
199
18
-129
-197
-188
-135
-84
-60
-72
-118
-192
-309
-493
-767
-1100
-1399
-1584
-1664
-1738
-1857
-1901
-1643
-992
-161
481
763
887
1205
1806
2385
2545
2199
1631
1186
946
752
467
139
-76
-103
-7
107
192
259
325
389
449
490
492
438
365
341
382
414
345
177
27
13
118
212
191
92
39
99
219
294
280
222
176
148
106
36
-25
-36
5
47
47
14
-15
-20
-19
-36
-66
-82
-82
-105
-170
-232
-220
-115
1
42
10
-8
56
171
237
204
111
33
2
-14
-60
-138
-214
-253
-247
-225
-223
-262
-338
-435
-542
-649
-726
-731
-648
-518
-401
-317
-218
-47
185
393
490
474
435
456
535
610
646
679
768
896
973
953
881
831
793
688
481
262
161
207
312
398
509
763
1194
1682
2038
2150
2066
1936
1897
1976
2084
2103
1998
1859
1802
1867
1971
1989
1880
1691
1495
1334
1221
1144
1082
996
872
766
736
744
661
423
155
88
335
755
1058
1079
909
792
880
1104
1263
1217
1011
843
883
1144
1495
1773
1902
1915
1859
1749
1616
1530
1551
1637
1646
1499
1323
1337
1613
1940
2011
1750
1409
1309
1502
1736
1751
1543
1337
1313
1434
1534
1515
1410
1287
1167
1049
964
942
954
919
792
628
516
474
436
349
236
143
42
-148
-446
-735
-882
-884
-878
-923
-860
-441
350
1212
1796
2056
2263
2656
3139
3388
3208
2731
2256
1962
1794
1614
1359
1074
838
697
641
622
572
466
350
300
322
351
334
289
279
306
295
195
46
-66
-131
-215
-357
-478
-471
-341
-228
-248
-359
-417
-354
-261
-254
-317
-320
-190
-22
27
-58
-126
-46
119
178
29
-218
-378
-395
-367
-391
-432
-385
-242
-113
-93
-134
-119
-28
9
-136
-427
-668
-700
-560
-440
-484
-666
-832
-861
-767
-672
-688
-814
-957
-1023
-1000
-955
-955
-1006
-1053
-1045
-970
-863
-763
-688
-646
-628
-619
-612
-602
-590
-573
-542
-483
-398
-278
-98
155
435
649
743
770
837
974
1085
1068
949
862
896
988
1027
1012
1039
1148
1250
1243
1168
1159
1271
1405
1435
1348
1236
1162
1120
1112
1185
1360
1541
1591
1494
1396
1450
1596
1608
1342
920
634
642
818
929
914
941
1162
1474
1615
1489
1319
1391
1691
1903
1771
1425
1251
1475
1919
2226
2239
2129
2124
2217
2216
2024
1790
1708
1754
1694
1380
984
814
967
1207
1235
1035
861
918
1135
1276
1251
1192
1266
1475
1657
1682
1563
1419
1356
1398
1496
1583
1611
1589
1585
1662
1769
1750
1521
1193
971
915
857
612
233
-8
75
351
553
619
757
1159
1720
2157
2355
2512
2869
3368
3681
3585
3212
2889
2727
2501
1929
1049
247
-97
39
365
605
754
977
1360
1765
1968
1877
1601
1319
1118
989
927
959
1109
1347
1598
1810
1997
2196
2392
2507
2466
2263
1981
1730
1573
1480
1382
1243
1098
1027
1071
1183
1273
1294
1294
1363
1526
1690
1712
1535
1241
968
787
678
585
504
483
548
662
754
770
712
614
508
390
245
60
-148
-323
-411
-402
-363
-385
-496
-633
-691
-620
-480
-386
-405
-505
-602
-654
-690
-753
-835
-880
-863
-842
-905
-1074
-1265
-1367
-1363
-1327
-1338
-1400
-1461
-1482
-1464
-1416
-1315
-1142
-930
-762
-686
-648
-530
-277
23
219
263
269
375
584
761
774
628
455
387
446
561
652
702
781
991
1361
1786
2099
2210
2180
2144
2168
2208
2185
2076
1931
1815
1763
1778
1830
1863
1835
1763
1703
1687
1680
1622
1512
1408
1366
1373
1381
1382
1410
1487
1577
1627
1617
1573
1550
1563
1571
1519
1397
1262
1176
1128
1035
841
613
483
507
588
586
495
457
589
836
1032
1090
1091
1179
1371
1539
1570
1504
1482
1590
1777
1934
2021
2067
2088
2064
2000
1965
2029
2163
2239
2155
1972
1855
1899
1991
1923
1626
1264
1064
1073
1134
1124
1172
1549
2339
3277
3996
4395
4713
5196
5773
6125
6048
5661
5244
4935
4649
4275
3852
3520
3352
3279
3203
3096
3002
2958
2955
2956
2928
2855
2752
2658
2599
2557
2482
2349
2181
2036
1938
1859
1760
1636
1516
1427
1368
1326
1280
1215
1140
1072
1027
997
954
885
815
776
757
710
623
548
559
658
749
747
660
575
549
557
541
497
464
447
382
223
18
-120
-138
-99
-107
-191
-283
-311
-276
-237
-223
-231
-244
-272
-323
-379
-409
-401
-359
-295
-221
-159
-123
-106
-74
-13
41
37
-18
-54
-14
72
127
122
95
96
121
138
128
91
28
-40
-47
82
347
631
804
840
826
844
897
932
931
922
937
977
1048
1172
1353
1554
1724
1834
1878
1847
1749
1641
1612
1692
1813
1868
1830
1789
1838
1958
2029
1951
1750
1537
1412
1381
1379
1340
1251
1144
1056
1007
1000
1011
998
939
855
798
797
829
853
871
919
990
1016
936
802
734
777
835
778
614
495
554
751
929
998
1012
1071
1164
1193
1121
1019
979
988
969
924
952
1114
1319
1433
1455
1522
1699
1828
1692
1302
937
850
990
1084
970
750
638
708
850
914
856
732
609
487
321
77
-192
-342
-261
-26
137
105
67
362
1076
1891
2394
2513
2551
2783
3130
3296
3144
2815
2494
2189
1804
1370
1038
888
816
683
498
376
351
331
246
164
167
203
129
-81
-260
-229
-35
86
-29
-302
-519
-546
-424
-268
-171
-178
-291
-445
-532
-485
-373
-351
-501
-740
-898
-879
-730
-564
-460
-436
-476
-538
-576
-575
-578
-655
-821
-982
-998
-828
-581
-413
-397
-476
-552
-593
-654
-796
-1003
-1199
-1313
-1341
-1328
-1311
-1300
-1286
-1271
-1269
-1285
-1317
-1366
-1423
-1457
-1422
-1286
-1078
-894
-842
-944
-1080
-1085
-934
-787
-831
-1066
-1271
-1232
-968
-705
-590
-536
-355
-19
309
490
582
741
1001
1243
1344
1325
1296
1310
1343
1362
1381
1414
1439
1430
1403
1387
1370
1317
1250
1247
1321
1358
1256
1073
997
1117
1300
1304
1053
720
552
617
754
770
633
480
454
562
673
671
576
503
522
562
510
371
275
319
433
477
418
380
464
602
617
443
203
71
81
116
68
-34
-87
-52
21
66
84
116
181
257
306
312
288
267
285
370
505
628
682
660
607
561
510
434
339
253
181
107
30
-26
-37
-21
-9
-12
-17
-14
-11
-12
-16
-25
-66
-163
-306
-451
-565
-669
-819
-1068
-1390
-1681
-1831
-1844
-1830
-1854
-1807
-1482
-827
-65
504
825
1101
1504
1917
2050
1801
1379
1055
858
624
274
-69
-248
-288
-338
-459
-557
-521
-388
-297
-315
-385
-418
-406
-393
-393
-391
-401
-472
-601
-696
-672
-554
-461
-472
-542
-570
-528
-477
-471
-486
-467
-414
-388
-429
-504
-560
-593
-638
-717
-790
-810
-781
-758
-795
-882
-963
-1004
-1036
-1125
-1303
-1540
-1762
-1915
-1986
-1995
-1973
-1944
-1944
-2008
-2139
-2298
-2435
-2552
-2699
-2898
-3092
-3194
-3180
-3108
-3047
-2990
-2882
-2695
-2483
-2331
-2278
-2284
-2280
-2221
-2130
-2050
-2001
-1950
-1847
-1682
-1505
-1358
-1221
-1037
-809
-628
-571
-587
-544
-367
-134
12
23
0
60
214
366
430
423
434
513
629
715
745
755
794
879
982
1067
1122
1153
1172
1189
1217
1268
1340
1410
1459
1480
1479
1459
1425
1393
1382
1387
1384
1353
1311
1290
1298
1297
1260
1205
1174
1175
1172
1135
1066
998
953
936
955
1014
1090
1140
1136
1094
1050
1023
996
941
851
732
605
499
450
465
509
543
563
602
672
731
722
644
565
544
574
591
554
487
445
467
535
607
645
637
604
580
592
634
684
727
771
831
892
922
904
856
808
764
708
624
512
362
159
-76
-262
-324
-294
-298
-390
-418
-125
561
1392
2011
2307
2514
2917
3500
3944
3964
3605
3156
2835
2603
2300
1872
1427
1095
891
749
629
551
531
535
514
451
370
287
206
143
136
186
226
175
35
-83
-75
34
116
73
-65
-191
-247
-260
-279
-298
-274
-203
-123
-77
-72
-101
-167
-262
-352
-400
-417
-458
-554
-664
-718
-695
-640
-616
-644
-701
-751
-773
-759
-724
-707
-755
-869
-978
-988
-883
-755
-731
-849
-1008
-1073
-1017
-943
-964
-1084
-1199
-1227
-1184
-1142
-1132
-1122
-1071
-991
-923
-885
-848
-781
-689
-601
-542
-512
-486
-439
-362
-267
-173
-103
-51
5
84
182
276
347
398
448
513
582
625
631
628
660
734
801
791
694
580
534
569
605
560
444
354
369
462
539
542
500
480
501
521
515
515
563
640
674
628
556
551
641
755
791
715
591
522
560
671
775
816
802
776
762
746
706
656
625
618
610
585
559
562
592
615
597
535
457
396
375
393
421
427
418
444
541
676
764
754
690
660
703
768
790
769
755
780
816
814
766
711
690
712
753
780
766
707
630
584
606
675
725
710
642
581
572
599
590
487
309
132
7
-97
-261
-504
-733
-837
-816
-773
-763
-670
-307
346
1063
1569
1826
2052
2459
2990
3348
3297
2887
2399
2077
1927
1769
1455
1027
658
476
466
527
577
604
615
606
545
409
207
-43
-288
-458
-530
-566
-661
-830
-959
-918
-703
-456
-338
-381
-488
-543
-501
-383
-244
-137
-95
-107
-128
-117
-92
-108
-191
-307
-404
-472
-531
-572
-569
-522
-478
-458
-418
-312
-185
-172
-349
-629
-854
-969
-1048
-1173
-1322
-1412
-1419
-1377
-1294
-1134
-924
-815
-970
-1387
-1851
-2126
-2147
-2022
-1884
-1751
-1539
-1165
-661
-168
148
196
16
-283
-625
-987
-1341
-1599
-1693
-1663
-1651
-1734
-1809
-1691
-1325
-885
-608
-576
-675
-742
-730
-714
-765
-851
-901
-883
-846
-857
-898
-842
-582
-155
269
526
584
535
427
166
-356
-1100
-1833
-2304
-2437
-2345
-2185
-1991
-1664
-1084
-261
596
1177
1287
1017
669
483
415
223
-243
-846
-1266
-1310
-1080
-880
-900
-1031
-1013
-744
-416
-315
-472
-583
-359
62
170
-390
-1427
-2362
-2813
-2900
-2993
-3216
-3294
-2916
-2121
-1269
-651
-235
193
678
959
752
99
-600
-957
-921
-771
-771
-879
-804
-361
278
721
730
451
229
278
457
413
-50
-758
-1314
-1437
-1172
-824
-691
-848
-1123
-1251
-1088
-734
-434
-374
-518
-676
-722
-700
-716
-763
-754
-688
-714
-943
-1205
-1138
-564
236
764
803
634
719
1181
1699
1872
1657
1348
1185
1097
884
533
263
246
383
406
181
-167
-432
-560
-675
-902
-1217
-1472
-1558
-1518
-1478
-1534
-1671
-1818
-1944
-2103
-2362
-2729
-3138
-3513
-3820
-4071
-4280
-4448
-4578
-4684
-4767
-4812
-4824
-4857
-4973
-5170
-5393
-5593
-5770
-5930
-6024
-5986
-5845
-5755
-5865
-6146
-6388
-6381
-6112
-5753
-5486
-5360
-5298
-5209
-5078
-4972
-4957
-5041
-5173
-5287
-5359
-5403
-5425
-5396
-5289
-5114
-4934
-4800
-4713
-4627
-4496
-4296
-4022
-3686
-3336
-3026
-2778
-2561
-2337
-2106
-1898
-1736
-1636
-1612
-1662
-1724
-1706
-1592
-1494
-1551
-1750
-1919
-1903
-1753
-1666
-1765
-1970
-2099
-2057
-1905
-1765
-1723
-1794
-1923
-2014
-1995
-1877
-1752
-1683
-1617
-1443
-1142
-857
-725
-716
-663
-455
-175
-9
-27
-133
-177
-100
38
141
151
78
-23
-83
-73
-37
-63
-179
-314
-372
-344
-317
-368
-463
-497
-419
-289
-199
-181
-211
-259
-339
-461
-583
-635
-594
-509
-450
-432
-410
-336
-214
-88
-13
-26
-144
-350
-591
-791
-892
-903
-881
-876
-892
-921
-970
-1041
-1108
-1128
-1107
-1128
-1271
-1502
-1691
-1737
-1687
-1686
-1812
-1997
-2128
-2185
-2231
-2304
-2371
-2388
-2394
-2459
-2581
-2675
-2693
-2701
-2799
-2977
-3117
-3151
-3176
-3364
-3740
-4120
-4305
-4290
-4246
-4278
-4246
-3897
-3165
-2291
-1599
-1175
-825
-350
189
517
438
30
-446
-800
-1027
-1226
-1461
-1726
-1991
-2217
-2351
-2374
-2343
-2347
-2416
-2472
-2437
-2345
-2309
-2394
-2531
-2613
-2621
-2629
-2700
-2811
-2886
-2878
-2792
-2652
-2497
-2383
-2357
-2405
-2445
-2420
-2364
-2341
-2349
-2308
-2164
-1974
-1860
-1867
-1915
-1890
-1755
-1570
-1424
-1363
-1375
-1391
-1332
-1174
-998
-942
-1067
-1289
-1450
-1471
-1420
-1417
-1505
-1624
-1686
-1668
-1624
-1641
-1771
-1995
-2241
-2427
-2531
-2610
-2739
-2928
-3117
-3246
-3317
-3376
-3450
-3521
-3565
-3588
-3609
-3614
-3573
-3494
-3421
-3396
-3405
-3407
-3391
-3363
-3312
-3206
-3053
-2923
-2875
-2870
-2794
-2622
-2468
-2470
-2611
-2726
-2692
-2569
-2512
-2567
-2615
-2529
-2340
-2198
-2210
-2326
-2405
-2368
-2262
-2194
-2222
-2315
-2388
-2375
-2271
-2139
-2057
-2063
-2130
-2193
-2209
-2183
-2162
-2191
-2268
-2338
-2346
-2300
-2267
-2313
-2422
-2497
-2475
-2419
-2448
-2587
-2720
-2725
-2648
-2667
-2862
-3088
-3135
-2995
-2878
-2956
-3152
-3245
-3152
-3034
-3088
-3303
-3503
-3569
-3576
-3644
-3767
-3835
-3783
-3680
-3634
-3678
-3759
-3808
-3786
-3706
-3621
-3586
-3611
-3611
-3489
-3253
-3051
-3005
-3071
-3090
-2987
-2894
-2974
-3222
-3451
-3528
-3508
-3539
-3648
-3719
-3637
-3403
-3085
-2718
-2311
-1941
-1715
-1646
-1622
-1575
-1604
-1870
-2330
-2718
-2847
-2876
-3123
-3643
-4106
-4171
-3941
-3848
-4129
-4503
-4465
-3873
-3078
-2522
-2277
-2084
-1752
-1401
-1302
-1561
-2008
-2405
-2673
-2910
-3188
-3399
-3330
-2926
-2433
-2200
-2344
-2618
-2703
-2573
-2517
-2802
-3355
-3843
-4032
-4004
-4019
-4228
-4578
-4904
-5093
-5132
-5086
-5050
-5088
-5187
-5282
-5341
-5413
-5589
-5890
-6228
-6474
-6553
-6475
-6285
-6010
-5657
-5243
-4813
-4433
-4155
-4001
-3955
-4002
-4134
-4348
-4603
-4815
-4920
-4932
-4934
-4987
-5063
-5080
-5012
-4929
-4912
-4953
-4945
-4816
-4621
-4502
-4538
-4675
-4795
-4832
-4811
-4794
-4806
-4838
-4871
-4859
-4763
-4590
-4422
-4358
-4407
-4443
-4331
-4068
-3809
-3715
-3791
-3882
-3847
-3698
-3575
-3595
-3729
-3849
-3853
-3735
-3554
-3357
-3149
-2920
-2691
-2495
-2333
-2192
-2083
-2047
-2125
-2281
-2417
-2455
-2404
-2327
-2266
-2204
-2111
-1998
-1894
-1816
-1771
-1776
-1859
-1997
-2118
-2181
-2223
-2315
-2450
-2541
-2517
-2421
-2345
-2314
-2282
-2234
-2231
-2320
-2444
-2495
-2468
-2498
-2686
-2950
-3094
-3025
-2844
-2706
-2649
-2594
-2502
-2432
-2440
-2489
-2501
-2484
-2546
-2735
-2938
-2984
-2857
-2710
-2683
-2736
-2726
-2610
-2516
-2584
-2793
-2993
-3080
-3095
-3148
-3287
-3455
-3559
-3541
-3415
-3267
-3192
-3229
-3307
-3316
-3218
-3090
-3036
-3053
-3032
-2904
-2728
-2620
-2610
-2635
-2631
-2628
-2697
-2829
-2900
-2816
-2630
-2505
-2538
-2649
-2679
-2569
-2433
-2430
-2587
-2785
-2898
-2927
-2974
-3104
-3274
-3377
-3361
-3299
-3310
-3439
-3561
-3462
-3013
-2307
-1609
-1129
-809
-425
148
769
1156
1151
858
516
274
102
-87
-294
-446
-500
-502
-509
-490
-362
-120
99
144
16
-136
-194
-209
-290
-404
-371
-105
213
299
86
-184
-249
-139
-122
-387
-818
-1139
-1205
-1116
-1045
-1042
-1035
-981
-929
-940
-997
-1026
-991
-933
-917
-946
-969
-950
-907
-881
-885
-901
-926
-989
-1107
-1226
-1262
-1192
-1112
-1168
-1406
-1702
-1874
-1836
-1677
-1545
-1493
-1449
-1319
-1097
-873
-763
-825
-1033
-1292
-1487
-1543
-1477
-1377
-1315
-1278
-1193
-1022
-832
-734
-774
-904
-1040
-1129
-1162
-1133
-1045
-930
-841
-792
-740
-651
-553
-525
-584
-645
-609
-476
-347
-297
-283
-218
-94
-3
-22
-123
-238
-350
-487
-625
-674
-591
-468
-443
-534
-620
-589
-473
-399
-437
-538
-627
-697
-778
-861
-897
-886
-881
-919
-959
-931
-828
-718
-658
-636
-607
-571
-565
-607
-660
-689
-706
-755
-847
-947
-1024
-1082
-1146
-1223
-1299
-1356
-1390
-1405
-1403
-1397
-1389
-1369
-1326
-1256
-1180
-1138
-1144
-1171
-1158
-1058
-873
-673
-546
-519
-523
-462
-326
-216
-239
-368
-463
-416
-266
-144
-114
-117
-68
31
111
132
128
144
176
190
181
183
224
282
320
318
282
235
176
82
-74
-289
-495
-610
-608
-567
-563
-521
-239
389
1192
1841
2174
2378
2753
3344
3848
3944
3633
3222
2992
2934
2844
2596
2252
1936
1691
1480
1289
1149
1077
1020
913
762
641
623
696
780
794
703
553
416
341
324
321
296
261
243
244
235
191
144
158
247
333
307
142
-66
-190
-204
-216
-340
-551
-701
-673
-520
-401
-415
-496
-523
-471
-439
-517
-672
-803
-872
-928
-1022
-1119
-1134
-1047
-935
-885
-921
-1004
-1098
-1183
-1229
-1212
-1159
-1137
-1183
-1240
-1207
-1071
-942
-918
-964
-949
-829
-712
-707
-760
-698
-473
-252
-232
-390
-502
-416
-236
-179
-307
-465
-489
-395
-312
-300
-299
-242
-159
-111
-81
14
200
409
575
704
860
1073
1298
1475
1576
1579
1464
1249
992
744
516
319
191
153
148
82
-50
-119
-10
190
256
67
-232
-383
-293
-118
-61
-125
-149
-19
181
278
199
47
-36
-18
25
18
-28
-40
12
81
116
124
145
177
140
-26
-256
-379
-272
1
242
292
163
-29
-172
-235
-258
-310
-442
-626
-752
-686
-393
-1
307
442
474
533
635
658
511
266
92
69
108
86
26
57
225
388
376
204
74
109
207
181
16
-107
-37
150
250
166
8
-83
-103
-161
-329
-570
-809
-1024
-1211
-1332
-1311
-1108
-773
-403
-56
248
516
781
1077
1395
1662
1778
1715
1548
1389
1259
1101
890
695
603
569
458
218
-43
-204
-301
-488
-828
-1168
-1295
-1175
-945
-719
-446
-28
499
954
1190
1213
1140
1055
950
784
550
276
8
-188
-234
-104
119
290
307
204
107
108
190
279
332
371
416
452
442
363
245
133
52
-3
-58
-144
-284
-510
-819
-1124
-1280
-1222
-1092
-1163
-1561
-2071
-2290
-2041
-1600
-1440
-1748
-2245
-2498
-2374
-2133
-2100
-2325
-2600
-2734
-2735
-2736
-2808
-2877
-2856
-2757
-2702
-2778
-2966
-3164
-3307
-3421
-3550
-3668
-3688
-3569
-3372
-3197
-3073
-2929
-2704
-2428
-2201
-2096
-2099
-2135
-2122
-2023
-1861
-1713
-1653
-1675
-1682
-1572
-1357
-1195
-1238
-1464
-1689
-1756
-1698
-1679
-1803
-2000
-2104
-2031
-1844
-1666
-1551
-1459
-1323
-1135
-935
-766
-643
-561
-531
-555
-603
-608
-536
-432
-395
-472
-593
-642
-587
-534
-607
-792
-941
-942
-841
-774
-797
-834
-810
-774
-851
-1059
-1259
-1303
-1197
-1083
-1067
-1099
-1044
-848
-605
-463
-499
-663
-848
-980
-1042
-1059
-1055
-1030
-953
-788
-542
-284
-111
-90
-187
-308
-400
-490
-619
-744
-742
-560
-313
-202
-305
-487
-549
-459
-377
-451
-648
-809
-840
-790
-746
-719
-667
-588
-528
-517
-545
-626
-812
-1109
-1397
-1531
-1513
-1485
-1506
-1402
-913
-40
877
1480
1763
2021
2471
2951
3108
2796
2226
1732
1438
1208
887
495
186
46
28
38
36
44
78
122
165
211
253
244
164
65
38
103
151
70
-108
-228
-187
-65
-28
-134
-267
-283
-170
-38
26
59
122
212
262
232
166
124
113
84
23
-39
-57
-25
28
72
104
135
166
171
143
101
88
130
185
177
71
-91
-215
-259
-267
-315
-420
-529
-587
-608
-647
-718
-771
-749
-663
-589
-573
-582
-553
-468
-374
-329
-329
-331
-310
-278
-253
-216
-136
-19
92
169
230
308
391
441
457
486
570
690
780
814
836
918
1068
1225
1324
1364
1393
1439
1485
1491
1445
1382
1343
1355
1403
1444
1453
1437
1438
1487
1564
1610
1595
1569
1618
1769
1942
2044
2076
2123
2249
2405
2499
2498
2468
2477
2518
2544
2549
2576
2633
2664
2612
2513
2459
2493
2563
2582
2521
2428
2363
2344
2347
2325
2242
2098
1929
1786
1693
1637
1599
1595
1632
1684
1694
1630
1527
1448
1416
1393
1344
1269
1209
1213
1300
1441
1568
1634
1653
1696
1789
1874
1861
1747
1635
1611
1638
1606
1484
1350
1290
1294
1287
1248
1238
1299
1388
1436
1439
1465
1546
1620
1598
1479
1345
1246
1128
898
563
265
138
154
149
36
-40
189
803
1566
2133
2401
2586
2943
3438
3769
3692
3265
2757
2370
2087
1778
1388
996
724
630
672
739
728
614
452
307
177
7
-230
-487
-686
-791
-816
-779
-688
-586
-559
-644
-751
-745
-624
-557
-719
-1062
-1331
-1320
-1095
-921
-968
-1149
-1265
-1241
-1185
-1238
-1396
-1521
-1514
-1421
-1378
-1468
-1635
-1760
-1780
-1751
-1792
-1965
-2199
-2347
-2318
-2153
-1949
-1752
-1512
-1178
-796
-500
-372
-380
-427
-456
-489
-567
-690
-823
-937
-1031
-1097
-1103
-1032
-918
-827
-800
-814
-821
-791
-751
-743
-783
-856
-945
-1048
-1132
-1137
-1039
-906
-855
-908
-951
-846
-613
-455
-545
-806
-979
-883
-616
-433
-454
-540
-464
-163
193
373
299
90
-68
-87
-26
-7
-89
-206
-251
-199
-122
-93
-73
40
248
390
314
81
-83
-46
47
-72
-473
-915
-1086
-916
-611
-420
-386
-356
-183
119
409
545
484
287
70
-66
-100
-99
-154
-309
-534
-727
-782
-662
-439
-257
-218
-292
-350
-294
-162
-88
-164
-347
-526
-615
-624
-636
-727
-924
-1165
-1340
-1371
-1294
-1233
-1278
-1393
-1469
-1436
-1328
-1215
-1139
-1101
-1114
-1212
-1400
-1612
-1751
-1789
-1788
-1813
-1869
-1916
-1936
-1944
-1971
-2031
-2113
-2210
-2321
-2434
-2517
-2558
-2596
-2690
-2868
-3074
-3213
-3258
-3283
-3388
-3542
-3539
-3168
-2457
-1711
-1258
-1126
-1023
-674
-142
222
147
-268
-679
-862
-909
-1039
-1307
-1544
-1593
-1491
-1398
-1381
-1345
-1168
-876
-620
-512
-534
-591
-620
-610
-562
-482
-422
-450
-556
-614
-505
-269
-84
-82
-213
-310
-282
-200
-192
-291
-411
-453
-392
-279
-183
-147
-198
-340
-531
-691
-743
-684
-591
-546
-538
-479
-310
-87
72
104
61
32
38
34
-27
-136
-257
-378
-501
-611
-667
-655
-636
-698
-862
-1047
-1143
-1122
-1087
-1186
-1461
-1788
-2001
-2048
-2037
-2103
-2253
-2369
-2350
-2212
-2052
-1943
-1876
-1810
-1717
-1595
-1451
-1296
-1142
-1000
-876
-779
-728
-713
-677
-555
-352
-170
-112
-165
-197
-90
134
322
333
174
-4
-43
80
252
351
373
417
566
795
1007
1147
1231
1298
1350
1364
1344
1329
1344
1365
1353
1307
1252
1217
1213
1238
1286
1331
1336
1293
1241
1234
1274
1289
1217
1097
1039
1110
1260
1383
1428
1436
1475
1547
1605
1606
1557
1484
1391
1276
1146
1032
954
911
895
915
989
1096
1174
1183
1155
1168
1262
1399
1496
1519
1507
1522
1585
1668
1743
1806
1859
1897
1912
1915
1926
1949
1960
1929
1858
1776
1714
1679
1657
1638
1613
1592
1593
1624
1670
1682
1620
1500
1365
1226
1037
771
500
344
328
345
299
301
618
1369
2320
3057
3400
3580
3962
4594
5123
5168
4715
4104
3652
3382
3100
2687
2231
1888
1698
1585
1487
1432
1464
1542
1560
1457
1277
1128
1065
1053
1022
941
844
786
798
864
945
999
1013
997
964
915
841
753
680
652
666
697
728
761
796
817
814
795
780
752
668
523
394
375
464
540
484
317
177
167
244
279
208
86
12
4
4
-37
-89
-101
-76
-78
-160
-298
-420
-481
-503
-532
-585
-639
-663
-652
-629
-612
-602
-592
-583
-584
-591
-592
-563
-486
-360
-204
-61
26
38
14
20
85
170
206
176
147
201
345
507
605
632
639
680
767
879
997
1107
1193
1261
1340
1457
1582
1648
1621
1556
1551
1641
1764
1835
1846
1873
1989
2174
2328
2374
2336
2311
2357
2433
2446
2363
2262
2242
2319
2403
2397
2293
2173
2115
2114
2109
2052
1955
1866
1807
1766
1722
1681
1662
1670
1672
1635
1574
1533
1531
1528
1457
1307
1157
1093
1129
1197
1226
1203
1165
1140
1127
1117
1101
1070
1006
924
885
958
1134
1313
1405
1399
1378
1425
1535
1631
1637
1544
1410
1313
1293
1333
1384
1405
1395
1383
1394
1426
1453
1451
1419
1379
1356
1364
1384
1381
1335
1255
1167
1107
1080
1049
936
683
342
69
-18
24
42
18
172
739
1654
2542
3099
3403
3783
4388
4993
5248
5052
4621
4218
3915
3642
3354
3080
2857
2671
2507
2383
2325
2316
2307
2246
2119
1932
1725
1563
1484
1454
1388
1253
1107
1030
1022
1003
910
778
683
648
608
504
355
240
200
201
176
96
0
-56
-57
-31
-22
-51
-103
-139
-130
-80
-41
-84
-233
-426
-553
-542
-434
-346
-362
-456
-521
-490
-402
-354
-384
-443
-464
-445
-443
-494
-570
-598
-561
-524
-573
-721
-889
-987
-994
-970
-987
-1043
-1076
-1047
-991
-971
-1000
-1032
-1018
-971
-978
-1108
-1341
-1569
-1660
-1541
-1247
-903
-597
-307
77
604
1169
1564
1658
1528
1354
1252
1193
1101
960
825
760
765
775
712
564
404
319
289
172
-128
-475
-576
-284
208
530
512
318
198
206
221
151
70
86
189
314
457
640
782
758
593
502
666
956
1041
780
416
330
578
826
696
151
-485
-880
-980
-976
-1024
-1094
-1026
-746
-355
-33
126
153
105
-26
-299
-735
-1232
-1624
-1798
-1783
-1752
-1872
-2146
-2376
-2327
-1942
-1429
-1084
-993
-943
-639
-20
661
1094
1168
1033
909
879
895
875
782
612
397
196
101
153
297
413
411
286
105
-54
-136
-138
-124
-175
-331
-572
-866
-1207
-1595
-1948
-2127
-2047
-1778
-1498
-1339
-1278
-1183
-925
-498
-23
313
423
443
649
1200
1967
2634
2990
3074
3024
2883
2575
2084
1531
1066
699
347
-5
-248
-258
-43
261
517
677
764
813
816
740
603
501
531
645
647
409
80
8
370
930
1259
1207
1070
1238
1722
2126
2090
1672
1246
1087
1139
1169
1056
860
675
506
299
48
-187
-367
-525
-696
-862
-965
-994
-1004
-1048
-1110
-1136
-1133
-1195
-1404
-1708
-1930
-1929
-1734
-1498
-1327
-1165
-883
-454
-15
234
210
8
-215
-377
-523
-721
-969
-1191
-1322
-1371
-1377
-1356
-1301
-1224
-1170
-1173
-1214
-1232
-1183
-1082
-972
-883
-816
-771
-767
-821
-924
-1053
-1181
-1289
-1368
-1395
-1354
-1251
-1122
-999
-887
-786
-727
-728
-758
-736
-622
-467
-346
-237
-36
287
593
705
625
551
652
871
1002
936
778
702
756
846
875
846
807
764
687
570
455
393
392
409
402
384
402
495
641
761
776
691
601
593
679
798
885
909
861
751
621
550
581
658
673
570
410
290
239
213
180
171
211
258
246
181
164
270
454
593
621
571
510
472
455
461
488
497
442
322
214
190
237
274
259
224
204
177
91
-43
-145
-153
-106
-105
-189
-282
-293
-234
-218
-341
-572
-795
-957
-1103
-1269
-1346
-1128
-509
356
1158
1702
2077
2529
3159
3755
3965
3647
3020
2452
2136
1957
1689
1256
795
482
364
373
430
489
501
422
284
194
226
312
306
157
-27
-113
-94
-83
-135
-171
-84
113
279
306
237
212
299
443
542
572
587
635
698
720
694
680
728
811
863
849
800
759
724
665
575
476
388
288
153
15
-53
-11
94
177
197
175
155
151
151
149
146
142
131
127
150
193
215
183
120
87
111
137
86
-48
-172
-184
-75
58
123
127
149
246
385
490
532
546
576
624
656
660
672
735
849
961
1020
1029
1041
1106
1216
1308
1331
1310
1312
1373
1442
1449
1389
1345
1380
1458
1482
1418
1350
1383
1512
1621
1606
1497
1405
1392
1403
1349
1218
1092
1051
1093
1153
1185
1216
1289
1394
1461
1441
1362
1293
1273
1267
1223
1131
1040
1005
1034
1092
1124
1095
1008
903
836
844
902
936
889
780
682
657
690
716
686
613
565
605
732
872
934
894
827
839
951
1059
1044
915
800
803
900
984
1001
983
971
956
919
897
946
1050
1106
1032
862
731
740
863
971
952
814
680
687
852
1047
1109
988
796
666
616
538
348
72
-186
-351
-410
-346
-91
402
1058
1712
2255
2741
3308
3969
4531
4742
4550
4148
3760
3437
3069
2587
2085
1708
1494
1356
1219
1109
1083
1115
1118
1047
926
792
656
522
439
440
481
471
396
361
484
729
938
982
894
782
688
549
299
-18
-276
-411
-478
-560
-660
-674
-492
-123
283
531
538
392
266
243
252
146
-134
-472
-679
-668
-500
-306
-165
-95
-105
-191
-313
-379
-344
-283
-324
-489
-642
-644
-532
-487
-625
-866
-1050
-1155
-1324
-1660
-2042
-2245
-2189
-2050
-2057
-2248
-2452
-2513
-2453
-2428
-2539
-2726
-2855
-2857
-2783
-2732
-2756
-2811
-2796
-2663
-2488
-2400
-2454
-2547
-2507
-2281
-2009
-1872
-1901
-1976
-1979
-1935
-1939
-2011
-2072
-2072
-2060
-2112
-2206
-2256
-2234
-2222
-2291
-2385
-2364
-2161
-1859
-1593
-1406
-1236
-1019
-772
-570
-458
-436
-478
-562
-663
-743
-768
-733
-667
-609
-580
-586
-623
-675
-732
-793
-870
-972
-1091
-1188
-1225
-1184
-1095
-1015
-1007
-1090
-1212
-1303
-1338
-1379
-1494
-1673
-1833
-1932
-2034
-2224
-2465
-2590
-2481
-2224
-2034
-2022
-2077
-2009
-1767
-1489
-1339
-1333
-1363
-1334
-1263
-1231
-1278
-1364
-1430
-1466
-1506
-1592
-1713
-1819
-1882
-1926
-1998
-2094
-2126
-2026
-1841
-1738
-1837
-2075
-2275
-2343
-2359
-2464
-2685
-2936
-3162
-3402
-3669
-3837
-3774
-3569
-3495
-3654
-3727
-3243
-2125
-875
-89
166
384
1002
1869
2426
2338
1829
1353
1086
839
419
-69
-379
-441
-440
-558
-743
-818
-715
-552
-479
-509
-547
-524
-454
-371
-288
-205
-129
-63
3
67
92
54
-2
7
91
151
81
-86
-197
-144
21
151
159
90
40
49
75
69
24
-26
-34
23
122
214
255
269
322
442
562
578
460
294
188
157
113
-13
-187
-315
-366
-415
-545
-731
-867
-889
-862
-891
-1005
-1120
-1153
-1119
-1096
-1131
-1181
-1184
-1139
-1106
-1119
-1138
-1098
-996
-910
-915
-995
-1051
-999
-857
-716
-631
-578
-516
-477
-538
-700
-843
-847
-747
-700
-795
-930
-916
-707
-447
-307
-302
-312
-264
-196
-177
-194
-173
-102
-51
-71
-128
-127
-39
73
113
55
-42
-93
-66
3
61
98
144
220
289
289
210
110
54
34
-12
-116
-239
-317
-348
-378
-431
-483
-496
-469
-440
-438
-466
-510
-556
-585
-586
-563
-544
-555
-587
-622
-653
-678
-698
-711
-735
-793
-874
-920
-880
-771
-664
-605
-588
-588
-611
-676
-761
-805
-781
-726
-703
-726
-739
-686
-564
-416
-301
-262
-313
-433
-574
-696
-805
-935
-1096
-1237
-1292
-1265
-1231
-1251
-1311
-1342
-1344
-1416
-1669
-2074
-2453
-2626
-2599
-2546
-2583
-2580
-2266
-1522
-562
257
777
1171
1689
2331
2821
2904
2616
2232
1974
1825
1639
1355
1058
870
807
802
789
762
736
702
634
521
372
192
3
-154
-237
-259
-299
-405
-514
-501
-327
-117
-62
-218
-443
-548
-505
-464
-577
-823
-1038
-1102
-1058
-1033
-1075
-1122
-1112
-1078
-1113
-1235
-1354
-1377
-1320
-1285
-1344
-1462
-1544
-1535
-1469
-1425
-1450
-1521
-1573
-1562
-1517
-1497
-1534
-1604
-1655
-1670
-1682
-1736
-1857
-2031
-2210
-2331
-2364
-2354
-2401
-2577
-2846
-3095
-3244
-3290
-3268
-3194
-3087
-3000
-2961
-2905
-2706
-2344
-1986
-1852
-1975
-2157
-2176
-2007
-1811
-1740
-1774
-1767
-1614
-1346
-1073
-867
-723
-607
-514
-468
-439
-341
-130
114
246
212
123
100
125
75
-80
-217
-211
-102
-43
-83
-96
27
214
290
197
53
-26
-70
-182
-362
-482
-451
-320
-216
-196
-229
-285
-358
-440
-511
-573
-686
-890
-1120
-1236
-1170
-1015
-922
-930
-943
-847
-659
-496
-442
-457
-449
-397
-383
-473
-614
-680
-608
-477
-421
-483
-553
-496
-328
-201
-246
-430
-590
-629
-593
-594
-661
-717
-693
-608
-522
-462
-390
-279
-147
-50
-29
-56
-73
-28
82
216
307
327
299
265
250
249
265
296
290
156
-115
-390
-516
-502
-555
-854
-1307
-1640
-1692
-1575
-1484
-1386
-1035
-299
608
1318
1717
2055
2614
3317
3779
3733
3332
2956
2791
2677
2376
1896
1471
1261
1196
1121
1023
1003
1094
1191
1189
1095
999
930
833
673
493
311
85
-217
-517
-695
-724
-695
-662
-551
-288
42
242
247
243
429
727
793
407
-222
-623
-535
-162
80
36
-56
104
498
814
819
574
305
100
-143
-509
-913
-1177
-1227
-1137
-1024
-929
-844
-752
-643
-491
-296
-142
-121
-227
-320
-271
-125
-78
-261
-586
-819
-824
-713
-718
-937
-1219
-1334
-1227
-1072
-1058
-1177
-1250
-1156
-972
-869
-895
-919
-802
-586
-462
-543
-747
-866
-778
-571
-442
-518
-733
-907
-935
-854
-772
-718
-629
-463
-305
-276
-372
-442
-341
-105
64
10
-217
-422
-457
-353
-239
-216
-270
-325
-339
-332
-343
-354
-278
-62
214
392
397
347
462
817
1243
1483
1452
1326
1331
1525
1776
1937
1969
1925
1841
1715
1560
1423
1326
1238
1126
1016
976
1028
1102
1111
1062
1007
940
771
450
68
-193
-251
-195
-157
-160
-118
33
249
449
603
711
738
633
427
245
182
189
139
-13
-153
-144
-1
124
113
1
-87
-100
-105
-185
-319
-412
-435
-450
-527
-664
-795
-879
-935
-1003
-1116
-1295
-1549
-1814
-1978
-1985
-1919
-1906
-1915
-1730
-1202
-494
27
186
204
438
946
1383
1391
995
540
311
268
167
-131
-531
-858
-1041
-1130
-1178
-1188
-1148
-1074
-1006
-945
-871
-774
-690
-667
-708
-766
-789
-780
-781
-820
-869
-863
-773
-635
-526
-501
-557
-650
-735
-779
-771
-729
-683
-667
-683
-709
-718
-713
-700
-673
-617
-540
-480
-468
-506
-548
-551
-511
-456
-422
-411
-401
-390
-406
-486
-611
-695
-664
-548
-470
-527
-674
-759
-693
-549
-486
-587
-785
-950
-1024
-1042
-1056
-1072
-1070
-1046
-1024
-1019
-1015
-987
-925
-845
-774
-741
-748
-762
-730
-614
-430
-240
-97
-19
13
26
58
150
307
472
568
585
597
679
809
887
867
828
869
983
1060
1016
891
801
810
873
896
828
697
576
508
462
359
154
-78
-180
-60
197
402
458
473
634
962
1255
1279
1006
640
403
353
373
342
250
189
240
407
623
807
901
905
865
822
768
673
537
414
371
418
505
575
612
625
612
584
586
662
792
895
910
874
874
935
995
992
942
904
892
857
753
605
482
424
409
397
376
367
394
449
504
529
516
483
462
461
455
417
359
334
367
401
343
166
-57
-249
-430
-689
-1054
-1414
-1634
-1705
-1711
-1665
-1431
-871
-47
773
1367
1768
2182
2705
3157
3274
3007
2575
2233
2018
1768
1356
850
429
192
109
114
171
237
236
127
-18
-74
-9
36
-94
-395
-694
-843
-874
-915
-1027
-1156
-1218
-1220
-1214
-1217
-1196
-1138
-1076
-1043
-1024
-989
-948
-921
-897
-845
-782
-794
-937
-1130
-1199
-1063
-845
-758
-867
-1032
-1068
-958
-861
-920
-1115
-1305
-1382
-1358
-1305
-1260
-1221
-1194
-1211
-1291
-1387
-1416
-1341
-1228
-1185
-1260
-1393
-1482
-1479
-1418
-1356
-1315
-1305
-1350
-1469
-1610
-1659
-1559
-1386
-1288
-1312
-1355
-1283
-1098
-943
-917
-955
-910
-744
-595
-612
-751
-791
-560
-122
275
446
455
530
794
1121
1277
1179
969
832
789
717
552
389
270
490
642
721
745
784
852
901
909
922
975
1042
1079
1080
1076
1082
1068
1013
933
865
802
715
592
487
476
557
612
515
268
38
15
184
309
165
-196
-473
-420
-102
197
328
415
635
985
1289
1440
1495
1512
1397
1033
518
169
198
465
635
552
401
469
794
1121
1187
967
668
486
444
408
290
145
100
188
284
225
-6
-267
-413
-450
-492
-594
-675
-611
-410
-219
-175
-268
-387
-439
-436
-446
-516
-627
-723
-773
-795
-877
-1121
-1529
-1979
-2332
-2567
-2780
-2979
-2970
-2517
-1657
-758
-167
138
455
939
1372
1433
1098
663
385
215
-27
-355
-592
-627
-569
-613
-811
-1057
-1234
-1327
-1366
-1387
-1416
-1474
-1558
-1607
-1576
-1488
-1418
-1402
-1426
-1477
-1558
-1645
-1659
-1546
-1364
-1244
-1257
-1337
-1363
-1296
-1215
-1208
-1270
-1317
-1276
-1166
-1063
-1018
-1004
-960
-866
-766
-713
-710
-710
-682
-646
-637
-659
-668
-624
-525
-405
-313
-298
-380
-528
-676
-786
-885
-1020
-1190
-1328
-1373
-1349
-1332
-1369
-1426
-1448
-1448
-1497
-1636
-1817
-1942
-1962
-1918
-1885
-1897
-1927
-1945
-1950
-1952
-1945
-1910
-1869
-1875
-1937
-1979
-1897
-1686
-1466
-1372
-1412
-1463
-1417
-1288
-1175
-1146
-1172
-1184
-1154
-1113
-1080
-1029
-944
-869
-890
-1028
-1180
-1193
-1029
-837
-819
-1015
-1246
-1309
-1197
-1103
-1184
-1380
-1505
-1477
-1410
-1448
-1559
-1578
-1432
-1254
-1214
-1301
-1321
-1139
-846
-671
-718
-873
-958
-923
-860
-861
-921
-969
-970
-936
-862
-717
-508
-319
-236
-251
-266
-202
-88
-15
-29
-87
-122
-120
-121
-151
-191
-206
-185
-147
-109
-73
-27
52
170
299
394
429
431
454
522
595
633
643
677
752
818
815
749
676
628
586
527
473
463
488
497
451
363
281
228
191
132
31
-96
-225
-348
-491
-691
-924
-1129
-1280
-1437
-1658
-1838
-1722
-1139
-246
560
1027
1300
1722
2390
2996
3147
2792
2255
1870
1667
1443
1067
633
324
213
222
242
223
171
96
5
-65
-81
-50
-41
-120
-273
-409
-435
-350
-251
-232
-286
-326
-292
-224
-210
-285
-395
-478
-530
-577
-610
-599
-567
-589
-683
-738
-617
-337
-83
-14
-75
-66
121
373
470
307
-20
-323
-485
-530
-550
-609
-686
-713
-646
-519
-420
-406
-448
-477
-479
-510
-620
-788
-941
-1034
-1094
-1164
-1266
-1378
-1477
-1562
-1634
-1678
-1671
-1602
-1492
-1395
-1357
-1370
-1384
-1349
-1282
-1254
-1284
-1299
-1200
-995
-809
-754
-803
-817
-699
-502
-360
-354
-439
-519
-537
-495
-432
-381
-369
-402
-449
-457
-396
-290
-193
-150
-173
-251
-353
-436
-462
-432
-397
-408
-459
-483
-424
-297
-173
-110
-97
-86
-48
-2
16
-3
-34
-41
-14
21
45
51
59
84
113
122
108
87
77
83
106
147
184
176
103
17
16
141
304
362
268
129
91
184
290
282
167
58
44
103
160
186
215
279
351
382
383
417
523
642
669
564
391
264
238
275
300
274
222
201
238
315
385
421
434
454
480
479
437
401
438
533
589
524
363
199
53
-137
-391
-611
-690
-660
-631
-577
-284
394
1274
1966
2283
2445
2771
3263
3588
3496
3123
2799
2636
2426
1954
1306
781
554
501
392
152
-94
-187
-102
67
199
219
125
-34
-175
-232
-220
-208
-258
-357
-423
-383
-239
-59
82
148
155
123
52
-55
-169
-242
-250
-222
-218
-267
-336
-363
-308
-183
-41
48
30
-99
-291
-474
-597
-663
-713
-803
-943
-1073
-1101
-979
-795
-716
-838
-1055
-1148
-1025
-844
-842
-1057
-1295
-1364
-1306
-1322
-1501
-1718
-1808
-1780
-1786
-1893
-1983
-1903
-1661
-1429
-1355
-1419
-1480
-1440
-1317
-1197
-1138
-1125
-1108
-1053
-962
-861
-770
-693
-629
-580
-543
-498
-421
-310
-190
-79
33
162
287
354
333
267
229
256
313
335
295
240
241
327
450
528
519
457
409
396
386
340
264
209
204
241
300
369
423
426
352
246
180
171
160
86
-33
-111
-114
-99
-127
-171
-148
-52
13
-49
-201
-286
-203
-11
129
113
-22
-164
-238
-251
-268
-359
-530
-712
-796
-721
-540
-382
-329
-345
-329
-218
-60
70
147
229
358
493
520
373
112
-112
-187
-137
-119
-261
-540
-782
-809
-598
-272
38
279
471
619
676
629
548
500
415
134
-376
-901
-1153
-1069
-850
-698
-579
-329
56
412
672
1006
1605
2340
2833
2907
2830
2998
3446
3792
3711
3283
2839
2540
2230
1720
1070
536
298
295
337
296
145
-91
-372
-647
-861
-986
-1034
-1050
-1096
-1190
-1263
-1174
-853
-430
-184
-295
-646
-924
-935
-777
-718
-889
-1180
-1375
-1364
-1201
-997
-814
-655
-510
-385
-285
-205
-144
-113
-121
-148
-157
-147
-187
-353
-636
-915
-1069
-1117
-1202
-1439
-1790
-2105
-2263
-2249
-2117
-1916
-1682
-1434
-1163
-840
-462
-113
74
43
-104
-197
-172
-113
-154
-333
-559
-711
-750
-725
-721
-777
-859
-894
-845
-758
-716
-747
-786
-767
-701
-665
-686
-683
-589
-454
-397
-433
-402
-150
253
549
571
430
379
526
742
853
840
807
797
752
652
576
591
634
574
384
188
89
45
-60
-233
-364
-393
-411
-548
-789
-957
-923
-752
-625
-634
-700
-674
-499
-249
-44
66
112
182
344
581
805
922
942
965
1083
1280
1443
1467
1344
1149
957
788
621
452
330
315
411
550
657
731
848
1068
1329
1475
1407
1187
988
925
951
930
801
644
573
614
681
683
621
565
559
569
551
510
487
495
500
478
458
481
534
553
514
470
496
587
652
602
460
336
295
278
147
-150
-487
-670
-643
-561
-589
-643
-425
244
1159
1895
2251
2451
2845
3454
3904
3836
3304
2709
2376
2266
2118
1782
1384
1164
1206
1382
1493
1448
1316
1212
1179
1157
1070
911
748
651
627
628
600
518
417
358
378
463
541
540
455
354
306
306
280
185
70
27
80
140
100
-38
-147
-117
6
89
44
-79
-161
-154
-101
-70
-78
-111
-156
-204
-242
-257
-273
-316
-378
-428
-453
-483
-535
-572
-546
-481
-437
-416
-346
-211
-133
-245
-492
-625
-484
-206
-82
-211
-379
-319
-42
198
219
122
110
206
224
20
-296
-464
-363
-135
-10
-47
-96
32
359
713
920
969
981
1058
1171
1216
1164
1101
1105
1147
1163
1202
1389
1730
2021
2060
1922
1926
2237
2611
2627
2176
1616
1382
1522
1682
1554
1212
969
987
1126
1183
1147
1176
1334
1474
1428
1235
1110
1195
1401
1515
1448
1320
1288
1372
1454
1458
1447
1521
1665
1746
1683
1563
1546
1686
1855
1891
1775
1634
1593
1647
1702
1693
1663
1699
1827
1983
2071
2078
2076
2134
2232
2288
2287
2328
2501
2726
2801
2651
2447
2447
2672
2851
2724
2350
2040
2003
2147
2239
2197
2130
2148
2233
2296
2312
2326
2360
2390
2396
2402
2415
2375
2222
2002
1874
1927
2026
1906
1461
917
620
661
768
662
441
507
1104
1984
2661
2939
3074
3390
3846
4075
3813
3184
2529
2040
1627
1101
445
-152
-473
-473
-307
-181
-145
-70
195
629
1045
1294
1422
1557
1706
1731
1562
1323
1189
1163
1065
790
467
316
389
522
543
462
399
392
373
298
233
255
325
304
131
-87
-180
-80
143
381
587
757
904
1034
1163
1298
1414
1481
1511
1553
1617
1655
1625
1576
1598
1710
1822
1828
1737
1653
1637
1642
1588
1473
1365
1297
1232
1129
992
851
736
656
621
622
607
531
430
402
488
609
644
592
553
599
690
753
790
849
914
900
784
675
704
836
912
861
794
867
1068
1220
1219
1152
1150
1186
1118
912
740
786
1008
1170
1138
1034
1074
1295
1519
1569
1452
1296
1169
1038
874
711
603
534
447
321
180
49
-60
-113
-21
248
595
874
1039
1193
1451
1770
1974
1954
1790
1641
1590
1569
1484
1338
1219
1175
1172
1161
1142
1148
1184
1200
1138
1006
854
721
599
459
297
140
12
-94
-185
-246
-243
-179
-108
-104
-177
-255
-252
-159
-43
20
15
-17
-19
34
130
218
221
84
-169
-431
-570
-526
-350
-155
-27
28
81
190
337
416
322
82
-170
-330
-428
-582
-818
-1030
-1121
-1124
-1133
-1124
-931
-460
129
545
684
759
1055
1571
1984
1986
1610
1179
957
890
729
343
-140
-486
-620
-652
-715
-813
-857
-808
-717
-639
-564
-462
-357
-321
-375
-468
-551
-635
-774
-959
-1100
-1134
-1104
-1090
-1119
-1129
-1077
-1004
-985
-1035
-1079
-1046
-944
-866
-873
-947
-1021
-1052
-1051
-1042
-1036
-1018
-991
-978
-998
-1040
-1065
-1059
-1048
-1081
-1173
-1302
-1433
-1549
-1654
-1741
-1794
-1811
-1814
-1843
-1927
-2056
-2185
-2267
-2294
-2302
-2328
-2389
-2454
-2488
-2497
-2516
-2563
-2606
-2606
-2555
-2482
-2404
-2318
-2227
-2155
-2115
-2069
-1953
-1772
-1620
-1599
-1700
-1782
-1726
-1568
-1451
-1463
-1536
-1538
-1428
-1280
-1164
-1055
-875
-641
-472
-440
-471
-418
-249
-91
-81
-196
-275
-200
-15
150
230
267
308
328
297
276
371
571
707
640
444
350
477
687
748
575
307
126
98
162
235
247
168
63
85
331
645
743
532
275
315
648
898
764
398
228
440
759
802
526
228
166
301
418
390
263
125
7
-61
-34
64
83
-103
-410
-568
-400
-40
196
165
37
74
333
627
759
705
577
460
362
287
261
280
258
113
-119
-321
-420
-477
-595
-791
-975
-1058
-1056
-1082
-1228
-1453
-1592
-1506
-1249
-1042
-1047
-1140
-974
-355
488
1109
1322
1410
1757
2344
2739
2620
2159
1797
1712
1653
1313
724
183
-120
-292
-520
-811
-1014
-1027
-894
-721
-581
-480
-407
-330
-212
-76
-25
-136
-344
-489
-484
-406
-404
-529
-699
-829
-905
-978
-1072
-1159
-1199
-1192
-1154
-1098
-1025
-910
-764
-643
-649
-833
-1104
-1284
-1281
-1180
-1138
-1199
-1248
-1153
-928
-709
-608
-631
-725
-870
-1062
-1269
-1412
-1435
-1367
-1309
-1346
-1467
-1559
-1521
-1378
-1280
-1359
-1585
-1776
-1795
-1693
-1641
-1737
-1896
-1986
-1965
-1908
-1903
-1949
-1961
-1874
-1724
-1596
-1533
-1489
-1370
-1147
-925
-844
-922
-1024
-1023
-955
-984
-1180
-1401
-1437
-1252
-1039
-977
-1037
-1037
-873
-640
-503
-499
-512
-427
-279
-200
-246
-325
-320
-255
-281
-473
-701
-728
-471
-135
-20
-198
-441
-478
-294
-135
-238
-596
-982
-1198
-1210
-1103
-955
-798
-672
-629
-663
-688
-617
-488
-430
-518
-704
-871
-953
-949
-873
-760
-683
-739
-949
-1187
-1283
-1206
-1095
-1116
-1275
-1435
-1476
-1406
-1306
-1224
-1166
-1125
-1073
-948
-704
-402
-204
-196
-273
-230
-19
180
165
-40
-201
-138
73
211
157
11
-39
66
221
285
212
74
-36
-98
-153
-222
-274
-264
-208
-171
-199
-276
-362
-459
-599
-771
-915
-1003
-1090
-1200
-1196
-856
-153
622
1107
1250
1362
1749
2342
2770
2761
2432
2123
2012
1974
1796
1449
1095
870
727
555
357
260
343
510
579
497
399
438
597
703
635
466
373
451
625
761
812
831
880
955
1020
1036
999
929
858
818
810
782
682
563
559
749
1031
1185
1083
839
694
765
926
956
782
552
425
397
323
129
-90
-197
-188
-208
-367
-588
-693
-624
-531
-592
-790
-948
-937
-822
-768
-823
-871
-817
-725
-704
-737
-686
-505
-341
-372
-572
-715
-639
-461
-430
-617
-829
-864
-768
-799
-1097
-1514
-1762
-1750
-1651
-1628
-1609
-1402
-996
-637
-514
-455
-91
693
1524
1877
1634
1178
927
895
773
342
-331
-1041
-1642
-2017
-1982
-1431
-559
214
669
996
1505
2164
2598
2516
2024
1445
934
415
-120
-455
-382
-6
351
515
638
967
1504
2012
2319
2482
2615
2665
2450
1902
1243
778
596
507
255
-165
-481
-419
29
596
1012
1229
1367
1495
1519
1327
1022
877
1049
1368
1505
1339
1113
1154
1500
1826
1766
1292
716
391
418
617
724
606
298
-72
-383
-581
-680
-736
-831
-981
-1098
-1000
-585
3
419
401
17
-386
-556
-574
-709
-1074
-1463
-1588
-1409
-1172
-1124
-1272
-1428
-1466
-1433
-1417
-1393
-1242
-892
-384
196
799
1405
1935
2245
2243
1944
1449
854
225
-399
-983
-1503
-1937
-2228
-2301
-2136
-1831
-1544
-1370
-1271
-1158
-1004
-868
-816
-854
-940
-1028
-1090
-1081
-956
-735
-538
-511
-667
-858
-905
-805
-728
-808
-947
-894
-556
-148
9
-163
-433
-521
-412
-347
-515
-821
-1017
-996
-875
-824
-877
-952
-1007
-1097
-1277
-1495
-1658
-1745
-1812
-1866
-1810
-1577
-1270
-1093
-1130
-1276
-1395
-1515
-1789
-2254
-2711
-2900
-2776
-2564
-2514
-2652
-2799
-2800
-2694
-2652
-2785
-3038
-3255
-3328
-3267
-3175
-3149
-3181
-3174
-3046
-2811
-2588
-2510
-2613
-2800
-2926
-2909
-2763
-2571
-2396
-2273
-2213
-2206
-2205
-2164
-2077
-2013
-2045
-2160
-2256
-2228
-2091
-1947
-1864
-1803
-1681
-1474
-1223
-978
-755
-566
-455
-455
-510
-503
-359
-121
102
264
437
717
1108
1504
1787
1907
1906
1857
1806
1746
1639
1457
1243
1073
976
883
688
383
82
-100
-166
-242
-424
-654
-776
-702
-494
-314
-273
-362
-489
-576
-609
-617
-610
-566
-455
-286
-96
82
236
353
388
309
153
26
17
113
220
274
302
386
556
752
871
842
682
484
337
268
230
182
142
153
231
338
456
620
824
964
906
654
375
224
168
47
-212
-511
-728
-859
-989
-1117
-1141
-1003
-788
-592
-349
120
849
1611
2128
2367
2559
2918
3368
3637
3556
3231
2896
2668
2493
2280
2034
1833
1706
1612
1512
1444
1487
1648
1832
1916
1858
1724
1626
1604
1608
1561
1436
1291
1203
1194
1228
1254
1263
1280
1312
1327
1282
1170
1027
917
890
938
1000
1023
993
940
886
825
753
690
659
644
587
465
317
210
169
169
174
160
110
11
-110
-195
-216
-229
-317
-481
-626
-663
-622
-597
-626
-657
-639
-606
-634
-743
-875
-959
-991
-999
-981
-918
-820
-748
-738
-751
-719
-633
-574
-617
-731
-803
-746
-590
-441
-376
-371
-361
-310
-237
-169
-111
-52
5
52
99
179
308
456
545
524
432
365
393
464
458
314
96
-68
-116
-92
-66
-39
38
184
372
573
789
998
1127
1126
1036
954
918
849
680
467
353
400
517
562
509
465
533
688
793
741
564
409
374
395
314
55
-264
-453
-451
-388
-413
-518
-553
-436
-260
-169
-186
-212
-189
-188
-294
-447
-492
-381
-246
-263
-441
-615
-646
-563
-470
-408
-322
-175
-22
66
90
99
89
12
-126
-233
-228
-151
-107
-110
-37
210
563
818
852
718
562
470
409
284
56
-192
-295
-165
73
132
-146
-603
-912
-950
-935
-1136
-1482
-1626
-1360
-844
-354
119
823
1819
2786
3326
3421
3446
3711
4094
4225
3913
3337
2821
2535
2433
2382
2284
2097
1802
1436
1097
884
820
811
721
519
288
143
113
134
148
167
208
225
156
22
-70
-77
-84
-213
-444
-619
-634
-545
-432
-259
59
473
802
938
968
1015
1025
820
365
-101
-294
-187
-2
72
61
113
269
435
508
454
283
3
-340
-629
-761
-733
-653
-618
-630
-656
-704
-814
-976
-1109
-1161
-1158
-1164
-1210
-1272
-1327
-1361
-1336
-1216
-1040
-924
-953
-1058
-1076
-938
-741
-642
-678
-737
-704
-583
-451
-360
-286
-162
44
298
520
643
667
664
705
778
799
724
611
548
534
470
304
121
44
98
187
225
243
314
437
524
511
436
375
341
290
223
227
394
695
982
1120
1100
1021
966
920
824
663
499
400
361
327
277
250
288
355
338
139
-230
-618
-835
-823
-727
-742
-903
-1031
-933
-646
-440
-508
-749
-886
-796
-616
-534
-557
-557
-486
-431
-454
-482
-425
-318
-285
-355
-409
-347
-229
-184
-228
-245
-153
-19
25
-42
-112
-80
31
131
174
178
170
141
88
49
92
197
254
182
45
1
145
401
608
673
629
562
532
549
599
639
608
457
201
-87
-329
-482
-543
-537
-505
-483
-435
-217
303
1087
1880
2411
2652
2829
3147
3535
3707
3477
2978
2504
2206
1987
1694
1326
1008
801
639
454
305
292
401
508
532
532
611
756
840
780
618
451
305
133
-73
-238
-288
-245
-207
-248
-349
-443
-494
-516
-558
-624
-697
-757
-798
-825
-836
-811
-754
-704
-714
-801
-927
-1029
-1081
-1100
-1103
-1060
-932
-744
-602
-619
-791
-983
-1063
-1047
-1076
-1248
-1501
-1688
-1726
-1655
-1547
-1431
-1341
-1379
-1642
-2044
-2329
-2292
-2021
-1830
-1935
-2208
-2321
-2097
-1680
-1359
-1291
-1395
-1494
-1494
-1402
-1262
-1114
-992
-915
-874
-841
-815
-831
-899
-951
-902
-758
-629
-601
-626
-582
-420
-243
-188
-270
-375
-399
-341
-271
-226
-186
-132
-81
-56
-37
19
105
172
192
208
304
503
740
909
950
889
804
756
750
746
714
661
621
615
637
656
655
633
582
497
389
297
261
278
309
332
363
421
490
530
526
493
442
371
285
213
199
242
284
271
221
214
294
411
466
412
320
305
399
516
543
471
405
442
563
665
693
695
748
857
949
964
922
889
885
871
806
707
641
662
765
894
990
1027
1023
1026
1060
1103
1101
1026
898
774
718
740
776
712
480
163
-65
-105
-55
-88
-189
-102
408
1241
2008
2432
2636
2960
3516
4036
4174
3888
3451
3125
2911
2652
2284
1914
1666
1534
1420
1267
1121
1060
1088
1122
1070
907
694
524
438
407
364
276
168
93
77
106
143
164
173
175
170
160
160
194
271
357
400
370
296
237
215
182
86
-31
-55
84
306
445
439
392
457
638
784
777
679
645
718
767
659
425
219
136
101
-29
-279
-539
-679
-665
-560
-432
-314
-223
-143
-16
200
456
621
605
451
294
213
173
119
62
64
132
220
292
367
458
513
474
372
308
322
340
283
206
236
402
601
709
734
779
886
978
967
883
848
923
1038
1085
1035
962
940
954
912
773
613
540
573
634
673
704
738
689
472
144
-103
-152
-74
-16
8
127
408
734
955
1054
1125
1189
1137
891
553
313
230
190
72
-105
-233
-272
-292
-352
-410
-418
-439
-627
-1000
-1341
-1404
-1205
-1086
-1383
-2042
-2612
-2642
-2086
-1284
-613
-153
315
1048
2064
3041
3495
3144
2170
1122
482
288
239
106
-27
18
211
345
351
406
649
882
719
37
-837
-1417
-1508
-1274
-970
-736
-605
-609
-758
-888
-735
-237
303
486
250
-28
26
312
355
-145
-900
-1297
-1058
-511
-146
-52
138
730
1562
2142
2167
1772
1323
1038
877
714
517
329
188
118
146
282
449
491
305
-30
-358
-623
-882
-1183
-1451
-1554
-1490
-1406
-1438
-1556
-1615
-1550
-1414
-1270
-1095
-852
-589
-429
-432
-546
-668
-746
-782
-787
-792
-885
-1151
-1539
-1851
-1925
-1795
-1626
-1516
-1411
-1235
-1012
-819
-660
-481
-321
-335
-621
-1050
-1351
-1403
-1323
-1293
-1320
-1252
-998
-653
-399
-325
-397
-533
-660
-698
-578
-311
-11
190
282
398
667
1066
1413
1517
1344
1034
779
655
578
404
108
-198
-407
-569
-846
-1315
-1854
-2255
-2408
-2382
-2301
-2203
-2034
-1743
-1337
-885
-491
-252
-234
-412
-660
-845
-939
-1025
-1163
-1314
-1392
-1370
-1313
-1292
-1288
-1257
-1217
-1249
-1390
-1622
-1331
-998
-716
-568
-513
-477
-443
-444
-524
-672
-837
-996
-1158
-1342
-1533
-1673
-1720
-1716
-1751
-1852
-1954
-1969
-1904
-1857
-1909
-2016
-2065
-1992
-1850
-1722
-1640
-1572
-1481
-1369
-1262
-1186
-1173
-1229
-1313
-1338
-1252
-1078
-890
-737
-604
-437
-217
12
188
274
289
286
314
374
430
449
444
465
550
688
824
901
892
826
791
886
1106
1338
1457
1458
1440
1478
1526
1493
1352
1143
876
521
92
-311
-607
-855
-1164
-1522
-1775
-1838
-1815
-1835
-1803
-1451
-689
197
824
1136
1428
1947
2530
2778
2509
1950
1441
1078
692
164
-415
-857
-1100
-1252
-1427
-1604
-1691
-1673
-1637
-1673
-1767
-1825
-1781
-1681
-1626
-1671
-1774
-1857
-1890
-1904
-1921
-1897
-1778
-1580
-1382
-1229
-1093
-927
-755
-659
-674
-752
-824
-867
-915
-995
-1096
-1183
-1237
-1251
-1225
-1179
-1154
-1177
-1231
-1283
-1317
-1325
-1309
-1274
-1240
-1246
-1290
-1336
-1360
-1404
-1536
-1748
-1938
-1982
-1844
-1592
-1345
-1207
-1222
-1359
-1504
-1547
-1515
-1587
-1911
-2398
-2754
-2764
-2521
-2308
-2282
-2324
-2232
-2003
-1829
-1855
-1999
-2063
-1981
-1850
-1771
-1715
-1565
-1302
-1033
-878
-860
-907
-946
-938
-887
-841
-864
-971
-1050
-948
-631
-262
-81
-165
-352
-421
-309
-151
-112
-215
-348
-399
-358
-289
-231
-175
-93
3
60
37
-55
-160
-216
-210
-187
-198
-265
-353
-403
-387
-328
-281
-277
-312
-348
-341
-280
-194
-139
-146
-177
-171
-108
-44
-51
-129
-200
-193
-131
-102
-156
-250
-294
-239
-111
20
109
151
181
238
334
437
493
490
479
519
601
657
640
583
567
619
691
735
768
829
907
935
885
826
854
969
1060
1028
896
784
772
818
840
808
770
776
799
771
668
552
498
505
472
296
-1
-266
-366
-325
-286
-303
-218
183
893
1618
2065
2257
2488
2954
3474
3667
3376
2832
2402
2211
2082
1792
1342
931
719
671
624
475
265
121
106
162
166
62
-92
-195
-212
-201
-243
-348
-467
-559
-625
-678
-694
-641
-521
-400
-369
-459
-622
-759
-793
-749
-742
-861
-1070
-1224
-1215
-1105
-1053
-1150
-1345
-1547
-1758
-2030
-2347
-2583
-2641
-2553
-2421
-2262
-1984
-1520
-953
-449
-109
98
256
385
453
452
403
316
178
14
-99
-107
-72
-123
-296
-469
-505
-431
-438
-665
-1008
-1198
-1087
-788
-535
-451
-438
-321
-37
322
601
696
617
483
413
418
405
298
152
90
133
147
14
-181
-247
-165
-139
-355
-725
-970
-951
-825
-823
-970
-1056
-906
-558
-212
4
129
280
506
734
844
765
538
272
46
-151
-371
-621
-856
-1044
-1204
-1350
-1468
-1551
-1658
-1845
-2059
-2147
-2067
-1991
-2146
-2517
-2785
-2672
-2254
-1862
-1701
-1631
-1382
-890
-384
-107
-95
-238
-470
-800
-1162
-1405
-1439
-1352
-1302
-1305
-1211
-914
-532
-290
-284
-412
-518
-550
-567
-620
-695
-761
-820
-869
-879
-832
-755
-696
-665
-634
-581
-485
-281
99
582
925
900
561
284
407
852
1181
1077
689
439
545
809
902
736
484
291
106
-153
-426
-573
-573
-551
-573
-494
-141
452
1052
1488
1819
2194
2612
2896
2908
2691
2401
2122
1824
1472
1115
845
682
591
550
578
668
737
695
551
408
341
306
199
-15
-261
-449
-559
-625
-670
-677
-644
-608
-591
-563
-477
-351
-272
-301
-407
-510
-566
-589
-611
-646
-695
-762
-825
-843
-806
-779
-851
-1018
-1184
-1260
-1265
-1281
-1345
-1400
-1391
-1344
-1331
-1380
-1457
-1520
-1573
-1636
-1701
-1742
-1756
-1786
-1857
-1951
-2020
-2044
-2045
-2055
-2079
-2096
-2078
-2021
-1942
-1881
-1871
-1901
-1905
-1835
-1718
-1642
-1662
-1727
-1732
-1624
-1454
-1307
-1199
-1080
-920
-779
-747
-822
-904
-887
-791
-724
-753
-822
-813
-686
-515
-386
-294
-165
37
259
422
516
608
750
911
1011
1019
984
991
1071
1172
1224
1210
1173
1164
1184
1206
1211
1222
1263
1313
1326
1288
1251
1281
1364
1415
1356
1214
1095
1076
1128
1157
1116
1046
1030
1091
1186
1260
1296
1301
1288
1267
1251
1245
1229
1167
1062
974
974
1054
1119
1089
985
902
902
952
985
985
992
1022
1040
1014
974
992
1085
1181
1173
1039
866
766
762
779
733
621
519
499
565
657
725
764
796
825
834
818
792
764
722
648
558
478
389
220
-82
-454
-723
-787
-727
-724
-819
-799
-404
360
1170
1704
1969
2262
2794
3402
3712
3542
3090
2696
2491
2318
1993
1543
1151
934
839
760
693
718
864
1036
1100
1020
884
790
741
667
520
311
78
-171
-429
-635
-690
-549
-303
-125
-104
-134
-11
360
852
1216
1310
1214
1129
1164
1241
1216
1051
847
716
657
582
436
264
140
60
-45
-214
-396
-509
-532
-513
-504
-504
-492
-479
-486
-510
-544
-768
-875
-1233
-1538
-1580
-1331
-984
-761
-691
-591
-291
155
497
513
205
-217
-514
-605
-594
-636
-762
-861
-809
-607
-384
-248
-188
-128
-53
-34
-114
-217
-227
-100
84
221
282
323
386
465
546
624
711
814
923
1017
1068
1066
1040
1042
1090
1141
1137
1090
1075
1134
1218
1232
1171
1125
1157
1216
1200
1078
929
845
837
855
861
867
892
938
994
1051
1085
1077
1037
1000
980
947
864
751
676
667
680
685
705
777
880
954
981
1005
1055
1094
1084
1050
1040
1049
1019
958
962
1079
1216
1229
1121
1064
1183
1394
1496
1429
1355
1461
1729
1954
1989
1887
1811
1826
1840
1733
1515
1316
1229
1212
1160
1050
992
1098
1321
1487
1484
1380
1350
1473
1644
1718
1667
1607
1652
1782
1909
1985
2051
2170
2290
2260
1967
1487
1056
851
828
759
515
278
407
1066
2020
2826
3258
3480
3803
4291
4686
4722
4416
4035
3793
3662
3501
3250
2988
2801
2682
2582
2488
2427
2401
2353
2254
2138
2053
2002
1928
1804
1681
1619
1606
1555
1433
1323
1332
1446
1530
1475
1334
1242
1237
1200
1040
847
820
1014
1239
1249
1010
719
577
580
570
424
178
-31
-108
-59
53
167
270
374
473
540
549
518
503
515
504
426
327
303
397
511
503
345
154
70
108
169
146
15
-156
-292
-361
-391
-428
-504
-616
-756
-892
-969
-941
-836
-734
-686
-642
-515
-314
-168
-181
-284
-334
-334
-437
-749
-1132
-1315
-1172
-884
-694
-618
-466
-57
552
1104
1331
1144
689
242
10
-28
-72
-257
-439
-309
265
1046
1663
1970
2136
2336
2509
2469
2147
1655
1112
539
-39
-473
-582
-385
-115
29
95
297
762
1374
1878
2108
2061
1826
1542
1361
1374
1505
1508
1197
676
324
442
954
1442
1539
1234
810
550
502
534
482
234
-207
-685
-947
-839
-486
-201
-157
-199
-50
314
595
507
108
-280
-427
-389
-356
-394
-416
-343
-209
-110
-78
-67
-47
-50
-127
-266
-389
-404
-304
-153
-26
65
135
167
112
-47
-243
-371
-399
-399
-485
-691
-928
-1068
-1056
-961
-902
-959
-1121
-1338
-1594
-1881
-2145
-2294
-2316
-2318
-2388
-2419
-2146
-1453
-580
81
399
641
1114
1748
2140
2026
1588
1234
1128
1054
737
199
-292
-549
-655
-802
-1048
-1294
-1428
-1464
-1500
-1604
-1748
-1868
-1925
-1919
-1890
-1881
-1903
-1913
-1850
-1691
-1481
-1292
-1168
-1108
-1089
-1093
-1113
-1139
-1168
-1202
-1250
-1297
-1317
-1293
-1240
-1211
-1272
-1427
-1606
-1714
-1720
-1704
-1770
-1930
-2080
-2119
-2058
-2005
-2033
-2101
-2140
-2140
-2149
-2191
-2234
-2242
-2236
-2240
-2241
-2205
-2141
-2105
-2108
-2077
-1950
-1779
-1690
-1732
-1812
-1793
-1656
-1518
-1487
-1553
-1615
-1603
-1523
-1431
-1362
-1310
-1251
-1169
-1056
-925
-796
-687
-603
-519
-423
-321
-226
-142
-55
46
143
220
288
372
486
614
724
808
899
1027
1167
1253
1240
1188
1201
1316
1450
1479
1372
1231
1181
1257
1373
1421
1383
1326
1320
1363
1397
1398
1387
1396
1409
1377
1309
1299
1407
1572
1629
1495
1283
1191
1276
1396
1388
1258
1170
1241
1411
1535
1548
1523
1550
1625
1678
1651
1544
1388
1221
1094
1046
1059
1055
986
899
894
998
1121
1145
1063
1010
1114
1330
1490
1485
1380
1337
1408
1498
1502
1450
1446
1506
1523
1430
1325
1377
1598
1790
1766
1577
1448
1523
1703
1780
1686
1533
1460
1487
1525
1484
1353
1180
1017
889
764
581
335
119
65
167
265
237
205
454
1077
1807
2270
2410
2553
3005
3638
4002
3829
3331
2943
2837
2783
2467
1854
1211
819
727
794
869
892
895
944
1073
1262
1444
1526
1452
1257
1038
904
878
881
796
584
338
210
267
415
473
350
119
-68
-121
-71
-21
-45
-139
-238
-284
-278
-270
-307
-383
-442
-435
-385
-365
-408
-470
-474
-405
-340
-350
-427
-499
-515
-510
-549
-641
-727
-752
-740
-774
-892
-1040
-1120
-1092
-1004
-947
-965
-1022
-1045
-997
-905
-836
-829
-858
-876
-866
-856
-875
-908
-908
-857
-789
-760
-780
-826
-859
-867
-850
-812
-753
-683
-621
-576
-543
-513
-465
-391
-309
-265
-292
-367
-412
-365
-248
-147
-124
-154
-174
-164
-153
-180
-229
-246
-212
-167
-162
-202
-234
-220
-165
-118
-103
-98
-64
5
76
109
93
53
7
-46
-117
-210
-308
-387
-414
-373
-282
-178
-92
-28
18
33
-9
-105
-207
-260
-252
-228
-241
-294
-337
-313
-214
-111
-93
-188
-306
-311
-176
-38
-54
-217
-346
-285
-97
5
-96
-293
-372
-265
-98
-29
-66
-78
36
238
421
534
617
710
793
817
775
691
571
407
240
186
319
529
579
349
15
-100
89
305
217
-170
-507
-514
-303
-208
-357
-549
-547
-407
-377
-531
-630
-388
197
852
1320
1620
1962
2462
2988
3243
3046
2528
2031
1781
1674
1427
965
567
546
827
993
752
301
86
253
467
306
-261
-843
-1026
-753
-331
-116
-184
-309
-175
280
763
884
539
13
-306
-323
-256
-318
-474
-541
-465
-404
-524
-779
-980
-1032
-1046
-1211
-1573
-1956
-2127
-2004
-1713
-1438
-1252
-1091
-884
-652
-489
-439
-440
-419
-405
-510
-758
-1004
-1063
-909
-721
-703
-863
-1009
-949
-706
-486
-464
-628
-850
-1040
-1180
-1282
-1324
-1267
-1129
-980
-898
-933
-1071
-1226
-1314
-1338
-1404
-1617
-1934
-2157
-2084
-1699
-1195
-799
-604
-532
-452
-299
-125
-49
-152
-376
-548
-544
-411
-297
-260
-193
9
281
419
315
121
76
227
390
395
309
332
531
754
822
744
662
646
609
464
290
269
459
699
780
674
562
610
797
962
974
836
653
517
453
442
427
353
203
27
-83
-97
-79
-110
-200
-280
-314
-356
-461
-576
-577
-417
-218
-142
-226
-333
-337
-257
-222
-312
-463
-570
-602
-613
-651
-681
-628
-465
-270
-156
-172
-264
-359
-432
-524
-666
-827
-975
-1121
-1296
-1466
-1536
-1458
-1316
-1227
-1179
-1034
-722
-379
-225
-320
-495
-568
-552
-619
-848
-1107
-1232
-1225
-1257
-1442
-1678
-1766
-1649
-1486
-1443
-1470
-1319
-803
-31
692
1175
1522
1970
2554
3034
3159
2944
2635
2418
2252
2000
1641
1291
1050
897
758
625
541
514
496
455
412
410
455
508
529
489
382
235
102
32
20
-1
-80
-194
-271
-285
-278
-300
-348
-379
-363
-330
-321
-330
-315
-264
-218
-240
-315
-362
-318
-227
-214
-321
-437
-414
-245
-74
-29
-65
-42
69
128
-2
-271
-479
-520
-506
-612
-849
-1034
-999
-776
-559
-493
-547
-600
-584
-537
-537
-616
-737
-838
-876
-850
-805
-794
-817
-828
-783
-709
-684
-751
-871
-952
-940
-854
-745
-634
-504
-333
-141
18
97
100
85
109
175
227
217
174
189
316
505
641
671
644
633
630
566
419
276
240
307
364
318
217
197
329
537
693
731
692
644
611
590
589
620
657
641
550
440
393
439
526
585
594
585
587
580
527
407
234
57
-75
-136
-140
-108
-42
69
231
411
559
665
762
870
951
934
807
659
582
589
605
568
512
511
572
630
640
636
680
762
798
742
658
653
750
844
822
691
560
513
524
510
426
306
211
162
152
170
199
214
193
150
125
143
169
137
31
-98
-184
-230
-312
-490
-730
-928
-1023
-1055
-1065
-965
-581
138
992
1679
2101
2450
2941
3515
3859
3749
3274
2724
2296
1968
1644
1324
1093
999
1005
1055
1116
1169
1189
1154
1059
901
683
452
291
240
238
188
77
-1
35
133
165
78
-42
-89
-66
-47
-85
-148
-180
-175
-166
-164
-152
-124
-113
-147
-211
-244
-209
-141
-112
-159
-245
-314
-345
-365
-414
-496
-571
-600
-583
-556
-569
-645
-756
-846
-885
-904
-968
-1109
-1281
-1408
-1463
-1487
-1532
-1593
-1624
-1618
-1625
-1684
-1767
-1793
-1732
-1633
-1574
-1581
-1608
-1601
-1539
-1446
-1370
-1352
-1374
-1358
-1244
-1080
-988
-1019
-1055
-927
-640
-403
-404
-571
-649
-499
-250
-122
-147
-147
34
339
577
654
645
678
787
904
947
896
794
722
749
867
979
972
831
668
609
650
671
590
451
360
365
407
427
433
475
543
577
561
566
671
843
954
914
781
692
713
771
735
573
377
262
261
312
338
326
331
377
420
407
356
341
386
433
419
372
386
478
542
499
421
464
653
844
888
826
837
1000
1194
1269
1228
1201
1246
1261
1129
901
763
803
902
869
686
552
640
879
1027
947
759
693
832
1036
1137
1126
1117
1167
1234
1281
1365
1529
1680
1637
1328
920
660
613
599
435
174
102
443
1098
1724
2091
2292
2593
3053
3399
3295
2740
2083
1666
1497
1350
1116
976
1178
1703
2254
2543
2532
2406
2328
2293
2191
1941
1576
1197
899
732
677
690
743
810
827
712
436
90
-149
-182
-76
-1
-47
-153
-211
-197
-204
-320
-528
-743
-909
-1058
-1211
-1304
-1209
-888
-488
-211
-154
-230
-293
-297
-325
-450
-643
-801
-835
-728
-536
-357
-274
-281
-276
-178
-71
-173
-574
-1061
-1279
-1116
-863
-904
-1293
-1711
-1820
-1619
-1371
-1283
-1333
-1404
-1479
-1629
-1845
-1954
-1776
-1316
-801
-512
-519
-618
-517
-106
433
772
753
533
418
574
870
1044
968
739
546
478
474
424
291
121
-22
-94
-59
114
414
747
972
1009
908
792
750
775
815
850
891
931
946
923
888
877
878
852
791
723
683
682
712
787
891
953
892
712
533
468
521
587
587
573
651
847
1067
1194
1203
1151
1083
979
802
581
412
366
409
448
423
371
363
407
407
269
-5
-299
-480
-514
-459
-390
-330
-236
-76
121
258
233
43
-198
-339
-320
-238
-249
-403
-589
-656
-586
-506
-531
-645
-739
-749
-725
-721
-712
-650
-560
-530
-585
-647
-640
-612
-681
-865
-1038
-1087
-1059
-1099
-1246
-1375
-1362
-1263
-1237
-1304
-1259
-887
-227
427
835
1057
1370
1922
2510
2766
2528
2021
1647
1589
1647
1506
1084
614
387
440
552
497
265
26
-90
-108
-130
-198
-265
-289
-295
-321
-367
-399
-415
-461
-578
-742
-876
-928
-900
-825
-721
-600
-497
-470
-534
-622
-638
-544
-391
-273
-242
-281
-335
-346
-284
-148
10
99
36
-157
-366
-498
-559
-618
-705
-788
-847
-908
-1003
-1093
-1110
-1056
-1025
-1095
-1230
-1325
-1340
-1326
-1331
-1319
-1223
-1058
-923
-875
-862
-775
-577
-359
-265
-342
-498
-587
-567
-533
-579
-684
-732
-640
-461
-324
-297
-341
-379
-386
-396
-464
-613
-819
-992
-1010
-812
-469
-129
124
330
555
785
944
1003
1020
1052
1089
1084
1022
924
803
663
542
490
492
450
293
102
48
186
389
483
439
367
368
422
444
407
361
352
378
421
486
576
650
661
615
575
585
620
632
624
644
716
794
834
850
886
938
938
849
730
674
691
681
560
388
312
399
545
606
574
600
814
1164
1463
1595
1641
1756
1958
2099
2049
1879
1790
1876
2023
2056
1978
1971
2170
2474
2654
2612
2474
2424
2487
2511
2368
2104
1866
1739
1681
1619
1550
1508
1500
1473
1377
1256
1205
1238
1212
941
444
-7
-118
113
390
482
532
919
1772
2752
3409
3681
3912
4374
4873
4962
4469
3717
3166
2946
2813
2507
2050
1676
1540
1588
1666
1691
1689
1676
1632
1541
1439
1390
1393
1380
1295
1183
1162
1278
1430
1493
1489
1562
1769
1957
1913
1639
1377
1356
1524
1617
1482
1237
1110
1170
1294
1356
1363
1378
1390
1317
1146
976
902
898
866
766
688
732
880
999
984
876
823
914
1065
1097
928
685
576
660
774
739
558
397
355
355
273
127
48
88
144
103
-9
-59
10
112
139
87
21
-34
-109
-215
-301
-335
-359
-421
-505
-547
-521
-489
-503
-524
-473
-351
-263
-298
-429
-548
-588
-600
-677
-851
-1071
-1246
-1321
-1297
-1208
-1078
-902
-635
-254
196
622
947
1179
1384
1607
1800
1890
1867
1805
1782
1804
1816
1776
1684
1553
1385
1177
955
778
664
565
410
205
53
61
233
426
462
291
33
-129
-93
76
202
149
-59
-251
-244
-12
289
470
468
396
392
463
512
483
416
373
344
268
140
36
20
71
108
82
14
-44
-54
9
141
311
460
565
665
815
1007
1134
1104
952
797
717
677
575
377
161
61
147
368
590
712
717
653
581
513
411
241
16
-213
-441
-731
-1085
-1372
-1414
-1193
-942
-882
-900
-625
133
1062
1612
1613
1501
1827
2587
3201
3178
2678
2331
2519
2972
3106
2629
1788
1028
555
246
-118
-610
-1111
-1465
-1594
-1550
-1453
-1395
-1385
-1382
-1412
-1552
-1822
-2103
-2210
-2092
-1906
-1849
-1937
-2009
-1937
-1776
-1688
-1725
-1790
-1769
-1665
-1565
-1505
-1439
-1330
-1216
-1157
-1176
-1266
-1400
-1537
-1596
-1512
-1319
-1139
-1089
-1154
-1206
-1148
-1025
-973
-1060
-1225
-1348
-1377
-1343
-1288
-1225
-1166
-1157
-1233
-1376
-1532
-1671
-1813
-1973
-2113
-2170
-2130
-2052
-1988
-1929
-1842
-1742
-1686
-1707
-1773
-1827
-1867
-1929
-2018
-2081
-2045
-1907
-1737
-1599
-1506
-1445
-1417
-1411
-1384
-1293
-1160
-1058
-1038
-1036
-938
-714
-468
-331
-325
-356
-346
-313
-326
-392
-462
-509
-541
-547
-490
-354
-198
-128
-187
-309
-402
-450
-508
-630
-815
-1007
-1146
-1195
-1178
-1141
-1111
-1080
-1035
-1002
-1030
-1115
-1180
-1160
-1081
-1048
-1110
-1158
-1036
-720
-385
-235
-280
-295
-59
381
708
636
195
-285
-497
-451
-432
-669
-1088
-1419
-1463
-1234
-893
-592
-405
-321
-276
-172
52
355
620
769
827
866
919
973
1037
1153
1310
1413
1366
1189
1026
1011
1153
1331
1418
1380
1294
1255
1296
1372
1396
1326
1207
1135
1164
1247
1272
1188
1055
981
1001
1035
985
859
784
834
905
783
400
-29
-209
-100
29
-78
-296
-181
539
1622
2517
2935
3117
3482
4096
4574
4528
3994
3354
2906
2609
2271
1846
1480
1288
1212
1113
959
825
751
676
519
291
79
-38
-57
-19
50
128
175
147
36
-100
-189
-223
-257
-344
-472
-569
-574
-495
-389
-311
-280
-290
-331
-370
-373
-345
-347
-443
-602
-704
-669
-555
-501
-546
-595
-540
-412
-347
-422
-566
-644
-639
-648
-741
-880
-980
-1025
-1075
-1171
-1262
-1270
-1195
-1131
-1168
-1291
-1400
-1423
-1392
-1389
-1458
-1553
-1584
-1514
-1391
-1292
-1255
-1265
-1281
-1281
-1257
-1209
-1153
-1123
-1151
-1209
-1224
-1141
-1005
-911
-895
-876
-739
-478
-235
-155
-222
-292
-238
-90
11
-44
-224
-400
-478
-449
-380
-342
-360
-410
-439
-392
-269
-129
-68
-134
-274
-372
-349
-247
-174
-183
-214
-160
-8
140
181
125
76
112
201
269
296
314
352
383
384
379
403
438
419
332
228
168
166
188
190
170
147
145
185
271
373
450
504
577
699
832
898
871
802
764
769
777
757
719
687
681
732
864
1058
1230
1289
1237
1170
1175
1237
1264
1201
1077
963
885
825
774
744
745
756
740
695
675
731
845
942
963
908
828
776
752
719
636
502
347
210
85
-67
-264
-452
-542
-517
-446
-378
-226
195
926
1733
2285
2501
2637
2988
3508
3823
3637
3072
2529
2271
2185
1971
1507
955
550
360
282
196
86
14
22
94
160
165
104
21
-24
-22
-21
-89
-234
-380
-437
-372
-241
-141
-127
-184
-251
-283
-287
-300
-329
-323
-242
-112
-29
-61
-160
-212
-152
-39
16
-28
-103
-129
-80
15
138
267
361
356
242
95
11
5
15
-13
-69
-116
-167
-265
-418
-582
-713
-816
-915
-1010
-1078
-1123
-1161
-1171
-1109
-982
-883
-911
-1040
-1133
-1084
-940
-865
-956
-1136
-1222
-1097
-833
-618
-592
-718
-826
-801
-692
-632
-676
-733
-703
-603
-540
-571
-612
-541
-355
-179
-139
-243
-393
-492
-511
-475
-430
-423
-470
-527
-504
-341
-115
7
-58
-205
-240
-110
29
-1
-176
-294
-205
-8
66
-83
-314
-405
-310
-161
-114
-175
-206
-83
185
463
592
509
324
229
298
389
289
-29
-342
-445
-430
-605
-1110
-1658
-1790
-1397
-858
-627
-740
-816
-519
56
498
530
229
-127
-361
-482
-549
-531
-361
-58
237
380
344
203
-9
-371
-938
-1610
-2123
-2252
-2038
-1713
-1412
-1025
-395
333
740
562
41
-312
-256
-83
-227
-694
-1026
-889
-510
-410
-780
-1230
-1282
-972
-807
-1163
-1820
-2201
-2014
-1545
-1295
-1421
-1575
-1340
-695
-11
391
563
813
1335
1968
2354
2310
1973
1626
1423
1316
1191
1026
868
737
603
480
437
511
581
434
-19
-591
-953
-948
-758
-701
-898
-1171
-1275
-1191
-1137
-1302
-1640
-1926
-1989
-1877
-1760
-1754
-1820
-1847
-1755
-1547
-1294
-1067
-928
-929
-1080
-1293
-1417
-1361
-1189
-1065
-1077
-1122
-1033
-777
-517
-432
-529
-656
-676
-611
-601
-735
-961
-1156
-1241
-1238
-1218
-1235
-1302
-1403
-1497
-1515
-1393
-1137
-858
-718
-787
-948
-995
-825
-558
-413
-479
-626
-667
-553
-394
-296
-259
-207
-104
-3
45
42
33
25
-15
-89
-145
-129
-46
53
141
250
413
594
713
728
682
652
667
687
676
649
628
602
545
482
484
595
751
826
766
649
601
674
817
949
1046
1115
1158
1178
1212
1288
1364
1342
1185
1003
960
1092
1263
1329
1308
1350
1556
1854
2088
2179
2171
2129
2073
1998
1912
1821
1703
1523
1286
1054
886
789
714
620
503
386
298
254
212
103
-92
-276
-304
-155
9
20
-101
-144
41
371
614
649
573
552
630
720
737
700
690
736
789
778
688
578
550
637
748
747
600
445
457
649
842
865
750
683
757
837
729
447
234
270
423
359
-57
-568
-774
-575
-265
-146
-129
175
969
1984
2759
3143
3391
3792
4280
4525
4332
3836
3331
2965
2676
2352
1976
1612
1302
1052
862
746
697
689
693
682
636
550
459
414
443
499
488
360
158
-6
-53
-1
66
82
66
72
116
145
102
3
-67
-49
21
59
25
-41
-88
-101
-107
-120
-137
-155
-182
-206
-193
-132
-65
-60
-123
-181
-172
-135
-177
-335
-512
-576
-530
-509
-617
-796
-881
-804
-665
-616
-692
-795
-831
-795
-733
-667
-610
-600
-677
-797
-856
-800
-708
-708
-833
-971
-971
-797
-527
-265
-68
50
97
107
136
209
282
282
184
67
33
120
282
448
579
659
674
624
541
485
506
606
752
901
1011
1056
1053
1070
1151
1238
1215
1046
860
848
1068
1369
1554
1587
1606
1734
1922
2019
1941
1749
1562
1445
1382
1332
1269
1192
1119
1067
1039
995
893
745
623
575
573
550
494
464
510
581
578
471
345
303
344
382
337
212
74
-19
-56
-79
-142
-260
-386
-425
-315
-99
96
167
136
119
211
395
575
664
640
534
392
266
212
260
354
378
268
87
-9
68
242
351
314
206
141
152
186
190
171
146
104
21
-88
-156
-158
-171
-313
-616
-964
-1193
-1241
-1191
-1157
-1116
-895
-352
432
1183
1693
2013
2335
2715
2967
2878
2470
1990
1644
1408
1115
711
330
149
193
317
358
259
106
28
79
189
196
8
-287
-501
-542
-519
-596
-800
-995
-1060
-1030
-1021
-1070
-1111
-1125
-1201
-1405
-1659
-1816
-1867
-1963
-2216
-2527
-2695
-2632
-2425
-2200
-1945
-1558
-1021
-483
-127
17
92
245
448
472
147
-384
-715
-552
-58
289
227
16
115
601
1030
945
396
-186
-526
-757
-1100
-1460
-1529
-1257
-969
-931
-983
-722
-42
665
938
742
461
423
575
630
455
226
202
419
686
786
699
588
619
786
919
846
566
255
95
127
264
370
373
296
234
307
562
876
1049
978
758
573
478
350
91
-191
-287
-128
130
282
284
260
289
293
155
-129
-445
-706
-903
-1026
-989
-738
-414
-249
-304
-364
-222
-26
-185
-875
-1724
-2141
-1930
-1473
-1286
-1467
-1675
-1558
-1113
-606
-270
-170
-239
-346
-321
-38
472
1004
1313
1299
1048
720
437
241
85
-134
-481
-928
-1347
-1613
-1695
-1646
-1537
-1398
-1235
-1070
-955
-942
-1027
-1127
-1125
-983
-813
-783
-944
-1131
-1110
-842
-542
-486
-702
-912
-805
-378
53
173
-19
-239
-260
-131
-69
-168
-299
-343
-368
-549
-911
-1247
-1353
-1265
-1211
-1306
-1381
-1149
-542
183
700
935
1108
1455
1933
2259
2207
1853
1481
1278
1171
983
700
477
424
456
397
219
52
8
30
-9
-120
-186
-132
-57
-125
-364
-639
-818
-915
-1036
-1212
-1346
-1320
-1148
-963
-885
-920
-994
-1040
-1061
-1080
-1106
-1124
-1138
-1167
-1202
-1201
-1129
-999
-884
-864
-945
-1065
-1152
-1186
-1210
-1273
-1383
-1499
-1569
-1574
-1545
-1534
-1552
-1547
-1444
-1225
-974
-814
-805
-882
-937
-934
-942
-1039
-1202
-1307
-1268
-1125
-1001
-959
-958
-931
-886
-891
-971
-1065
-1103
-1099
-1121
-1180
-1207
-1141
-1030
-994
-1083
-1223
-1297
-1267
-1193
-1141
-1097
-1009
-870
-728
-615
-497
-332
-134
11
36
-32
-82
-30
115
267
351
368
379
424
491
555
608
667
733
778
783
767
772
823
906
996
1081
1150
1196
1224
1266
1358
1487
1586
1594
1510
1396
1315
1292
1295
1283
1231
1146
1057
1003
1011
1080
1170
1229
1238
1227
1252
1336
1427
1450
1384
1293
1263
1293
1298
1224
1129
1131
1259
1409
1455
1407
1390
1480
1599
1611
1494
1365
1347
1430
1510
1527
1538
1611
1721
1785
1766
1703
1640
1565
1449
1318
1222
1146
1020
840
725
809
1058
1274
1289
1145
1034
1071
1164
1110
817
420
139
58
68
28
-7
205
822
1678
2383
2720
2879
3233
3871
4448
4544
4118
3547
3201
3083
2911
2490
1928
1476
1255
1181
1110
1008
938
953
1034
1105
1095
981
808
652
558
496
401
253
119
78
120
153
114
64
100
207
246
121
-84
-172
-58
138
237
181
59
-20
-32
-20
-7
4
1
-42
-115
-151
-97
15
79
28
-97
-198
-216
-185
-191
-278
-407
-506
-535
-527
-539
-599
-696
-803
-906
-986
-1018
-978
-892
-835
-872
-979
-1062
-1053
