48
55
38
47
99
160
185
166
145
166
234
307
340
323
296
308
373
450
490
488
494
544
619
673
700
738
816
897
923
895
874
908
974
1009
992
960
944
929
888
829
794
802
823
815
781
760
779
810
797
718
608
535
530
557
544
461
344
256
215
187
142
100
116
212
347
468
561
662
792
921
982
932
792
643
560
561
597
604
569
550
613
758
901
947
872
740
630
570
528
463
381
332
346
400
435
429
419
452
512
508
374
145
-89
-298
-531
-826
-1133
-1356
-1462
-1502
-1497
-1346
-921
-238
489
1023
1309
1483
1676
1847
1835
1539
1033
506
117
-98
-196
-255
-313
-355
-352
-296
-222
-193
-248
-363
-473
-535
-560
-575
-584
-562
-502
-446
-451
-532
-641
-720
-751
-745
-720
-686
-658
-641
-629
-610
-601
-635
-704
-745
-704
-613
-568
-613
-692
-713
-669
-643
-709
-846
-971
-1038
-1071
-1116
-1173
-1210
-1205
-1166
-1119
-1095
-1119
-1188
-1268
-1324
-1353
-1398
-1479
-1555
-1561
-1484
-1396
-1365
-1390
-1410
-1387
-1344
-1332
-1361
-1390
-1381
-1341
-1305
-1298
-1305
-1283
-1203
-1083
-977
-929
-935
-949
-925
-854
-770
-713
-703
-725
-748
-740
-694
-645
-638
-676
-705
-672
-584
-503
-458
-414
-333
-248
-242
-323
-400
-378
-284
-237
-299
-398
-420
-338
-235
-193
-213
-243
-252
-254
-270
-295
-315
-327
-332
-330
-314
-284
-256
-254
-281
-308
-298
-240
-168
-127
-127
-130
-99
-52
-51
-119
-214
-270
-275
-274
-305
-347
-342
-265
-164
-103
-111
-156
-183
-174
-157
-174
-232
-297
-327
-310
-269
-226
-199
-194
-212
-240
-251
-224
-166
-112
-83
-74
-56
-5
81
161
178
100
-36
-156
-212
-223
-226
-212
-129
43
243
392
473
537
618
671
620
451
245
113
98
154
199
196
169
166
215
299
370
378
303
162
23
-43
-26
5
-46
-197
-371
-505
-626
-819
-1087
-1324
-1444
-1495
-1575
-1646
-1508
-1020
-317
273
537
567
616
803
995
993
746
396
117
-15
-32
-4
9
-30
-119
-226
-309
-368
-438
-529
-600
-586
-476
-347
-285
-297
-311
-272
-222
-269
-464
-729
-913
-931
-830
-723
-679
-687
-706
-730
-783
-864
-934
-942
-881
-801
-763
-776
-797
-773
-698
-619
-586
-600
-604
-545
-439
-345
-316
-332
-336
-304
-280
-306
-360
-372
-313
-230
-194
-223
-262
-261
-227
-223
-278
-359
-405
-387
-323
-246
-172
-102
-31
33
62
30
-56
-149
-183
-129
-11
116
208
276
352
450
523
503
369
182
25
-85
-189
-288
-298
-147
104
282
290
211
193
237
174
-164
-797
-1639
-2598
-3564
-4344
-4708
-4569
-4041
-3292
-2355
-1141
361
1975
3436
4563
5330
5791
6027
6162
6344
6652
7042
7422
7767
8138
8586
9070
9481
9730
9793
9698
9509
9320
9217
9219
9255
9243
9173
9095
9015
8852
8500
7947
7268
6521
5686
4717
3627
2500
1406
349
-698
-1736
-2727
-3619
-4355
-4900
-5248
-5448
-5552
-5534
-5306
-4828
-4207
-3651
-3285
-3063
-2846
-2567
-2301
-2160
-2158
-2180
-2104
-1918
-1732
-1660
-1703
-1748
-1702
-1611
-1605
-1727
-1846
-1768
-1443
-1031
-727
-586
-517
-454
-455
-603
-851
-1022
-989
-819
-718
-828
-1107
-1409
-1642
-1856
-2160
-2608
-3132
-3579
-3825
-3839
-3677
-3437
-3211
-3036
-2901
-2761
-2598
-2469
-2462
-2604
-2795
-2885
-2814
-2681
-2602
-2534
-2283
-1717
-934
-161
498
1144
1890
2631
3090
3086
2710
2202
1689
1140
534
6
-228
-101
237
599
941
1326
1763
2134
2308
2282
2165
2026
1832
1549
1244
1050
1014
1044
1028
961
907
888
857
792
773
904
1168
1429
1585
1679
1823
2037
2211
2231
2096
1900
1729
1600
1491
1405
1364
1394
1508
1683
1877
2059
2221
2356
2419
2327
2052
1689
1391
1222
1094
890
614
407
379
483
546
429
129
-239
-564
-815
-1049
-1326
-1638
-1907
-2052
-2073
-2027
-1921
-1686
-1301
-904
-698
-744
-917
-1054
-1128
-1194
-1252
-1254
-1219
-1205
-1130
-726
179
1368
2335
2771
2851
2943
3096
2982
2367
1449
662
187
-148
-500
-686
-367
504
1550
2295
2557
2480
2254
1923
1467
898
264
-376
-931
-1283
-1378
-1284
-1156
-1068
-997
-961
-1113
-1572
-2184
-2587
-2558
-2281
-2161
-2394
-2769
-2939
-2820
-2643
-2686
-3003
-3415
-3745
-3972
-4205
-4501
-4776
-4896
-4820
-4654
-4554
-4595
-4738
-4838
-4738
-4399
-3952
-3658
-3708
-4033
-4331
-4358
-4178
-4076
-4216
-4463
-4555
-4415
-4196
-4045
-3917
-3685
-3358
-3105
-3032
-3031
-2896
-2561
-2168
-1895
-1784
-1742
-1671
-1557
-1428
-1319
-1238
-1200
-1218
-1278
-1336
-1345
-1278
-1142
-972
-818
-718
-658
-557
-355
-92
124
240
330
501
743
937
1025
1123
1394
1847
2314
2639
2840
3031
3266
3489
3638
3719
3755
3728
3621
3483
3377
3288
3154
2980
2862
2834
2793
2679
2670
3030
3746
4437
4743
4746
4849
5240
5618
5550
4985
4279
3765
3426
3075
2693
2431
2366
2383
2365
2352
2444
2606
2690
2604
2415
2246
2136
2056
1999
1987
2011
2018
1991
1981
2032
2100
2100
2042
2013
2058
2114
2091
1990
1901
1892
1940
1977
1965
1903
1807
1699
1618
1586
1546
1406
1159
935
878
965
1008
872
635
489
500
543
459
260
96
50
44
-43
-199
-299
-259
-149
-95
-133
-188
-179
-122
-106
-190
-331
-444
-470
-419
-361
-377
-481
-591
-573
-357
-30
214
231
74
-52
6
185
270
128
-138
-278
-176
14
73
-21
-73
46
209
192
-16
-179
-119
36
12
-229
-431
-369
-152
-63
-190
-326
-274
-118
-80
-213
-356
-388
-406
-531
-682
-674
-527
-509
-795
-1173
-1244
-891
-445
-324
-593
-950
-1102
-1028
-925
-962
-1183
-1516
-1822
-1944
-1826
-1601
-1516
-1665
-1875
-1918
-1813
-1829
-2126
-2544
-2777
-2760
-2714
-2823
-2994
-2990
-2749
-2456
-2320
-2351
-2406
-2417
-2431
-2503
-2609
-2699
-2791
-2925
-3081
-3158
-3097
-2938
-2768
-2623
-2489
-2344
-2197
-2042
-1868
-1705
-1608
-1596
-1588
-1475
-1258
-1036
-860
-672
-388
-48
210
334
416
579
811
996
1063
1056
1090
1206
1373
1542
1693
1795
1776
1621
1454
1464
1688
1904
1843
1514
1221
1268
1602
1874
1858
1688
1653
1790
1836
1597
1169
803
563
241
-288
-834
-1084
-961
-707
-522
-309
193
1027
1920
2559
2884
3060
3211
3276
3128
2751
2280
1885
1630
1468
1302
1061
799
638
667
833
961
931
825
823
966
1086
1018
813
656
634
645
579
455
355
282
164
19
-51
-11
49
34
11
106
290
368
242
58
22
123
169
23
-226
-387
-407
-373
-359
-342
-282
-204
-164
-162
-156
-138
-155
-235
-340
-401
-408
-399
-393
-396
-408
-448
-523
-587
-582
-505
-406
-349
-375
-474
-602
-697
-718
-689
-702
-844
-1050
-1104
-854
-391
1
122
34
-34
47
195
253
176
41
-62
-89
-31
124
347
552
664
702
728
754
734
637
527
502
583
696
777
850
992
1206
1405
1495
1454
1345
1233
1145
1096
1097
1147
1214
1276
1343
1447
1581
1687
1710
1667
1617
1585
1533
1418
1256
1106
1012
972
960
959
949
912
845
769
708
663
611
545
487
478
531
617
711
810
913
1002
1027
962
832
678
511
313
87
-115
-228
-256
-265
-281
-234
-58
181
312
236
52
-28
93
284
315
87
-291
-637
-885
-1125
-1456
-1841
-2116
-2168
-2052
-1928
-1864
-1743
-1369
-702
69
686
1024
1156
1228
1318
1393
1353
1115
704
248
-81
-184
-111
0
66
109
189
267
241
108
25
174
542
898
1002
837
614
516
475
232
-398
-1324
-2266
-2998
-3503
-3885
-4182
-4342
-4360
-4348
-4403
-4441
-4256
-3767
-3177
-2780
-2632
-2513
-2240
-1919
-1855
-2207
-2824
-3449
-3997
-4561
-5196
-5788
-6171
-6344
-6457
-6583
-6680
-6715
-6773
-6972
-7282
-7540
-7668
-7776
-7959
-8222
-8532
-9008
-9995
-11720
-13857
-15509
-15771
-14454
-12206
-9742
-6933
-2832
3152
10166
16239
19939
21587
22676
24149
25521
25755
24731
23504
23170
23756
24549
25082
25561
26250
26894
26991
26493
25928
25843
26354
27277
28537
30078
31416
31710
30395
27686
24280
20576
16336
11262
5727
744
-2840
-4965
-6168
-6934
-7397
-7595
-7743
-8100
-8691
-9296
-9781
-10283
-11043
-12004
-12827
-13205
-13142
-12912
-12789
-12845
-13008
-13217
-13461
-13684
-13758
-13578
-13183
-12747
-12434
-12297
-12273
-12266
-12228
-12173
-12130
-12097
-12016
-11820
-11500
-11101
-10686
-10278
-9864
-9431
-8983
-8543
-8145
-7813
-7544
-7286
-6978
-6601
-6202
-5845
-5544
-5263
-4973
-4708
-4536
-4478
-4470
-4442
-4380
-4310
-4234
-4121
-3930
-3678
-3443
-3314
-3303
-3341
-3328
-3219
-3082
-3031
-3107
-3206
-3170
-2942
-2625
-2380
-2258
-2171
-2043
-1912
-1861
-1883
-1879
-1798
-1714
-1745
-1885
-1994
-1952
-1781
-1595
-1455
-1325
-1156
-966
-823
-744
-682
-596
-495
-418
-396
-395
-343
-194
24
234
368
434
503
620
759
859
889
860
813
781
795
887
1045
1209
1321
1395
1500
1662
1820
1873
1800
1680
1595
1559
1531
1484
1434
1389
1350
1334
1398
1570
1778
1879
1818
1690
1628
1636
1599
1435
1202
982
741
396
-7
-280
-322
-300
-469
-800
-923
-514
307
1067
1454
1607
1881
2358
2747
2739
2335
1800
1337
931
492
56
-234
-292
-195
-79
8
111
279
485
646
695
636
532
456
442
462
455
384
262
156
122
149
177
172
169
237
403
632
849
998
1087
1162
1269
1398
1501
1534
1528
1553
1609
1566
1300
921
780
1167
1962
2668
2847
2532
2145
2038
2117
1976
1351
399
-460
-906
-928
-717
-450
-203
-2
126
150
63
-120
-385
-734
-1156
-1600
-1981
-2227
-2319
-2279
-2178
-2125
-2211
-2447
-2752
-3016
-3191
-3320
-3480
-3687
-3880
-3994
-4052
-4171
-4430
-4767
-5021
-5138
-5259
-5604
-6219
-6881
-7286
-7349
-7240
-7141
-7018
-6666
-5957
-4970
-3881
-2810
-1799
-873
-60
664
1401
2225
3063
3720
4075
4215
4339
4565
4840
5047
5135
5162
5220
5369
5642
6043
6533
7008
7373
7618
7812
8036
8317
8615
8878
9070
9179
9229
9273
9317
9298
9162
8965
8848
8843
8788
8482
7916
7298
6796
6320
5608
4526
3232
1996
943
-1
-947
-1889
-2728
-3404
-3958
-4469
-4971
-5423
-5778
-6042
-6256
-6441
-6554
-6538
-6402
-6225
-6078
-5957
-5805
-5608
-5436
-5370
-5400
-5418
-5319
-5107
-4877
-4706
-4564
-4352
-4000
-3555
-3152
-2885
-2727
-2575
-2377
-2206
-2170
-2257
-2292
-2090
-1652
-1191
-963
-1055
-1351
-1666
-1906
-2121
-2394
-2722
-2981
-3030
-2835
-2513
-2230
-2079
-2059
-2163
-2432
-2889
-3442
-3934
-4298
-4610
-4947
-5227
-5282
-5086
-4826
-4662
-4482
-4025
-3226
-2340
-1657
-1149
-549
249
1009
1397
1323
974
538
26
-587
-1180
-1522
-1468
-1049
-369
486
1383
2067
2267
1903
1143
227
-737
-1775
-2873
-3857
-4483
-4616
-4309
-3734
-3069
-2437
-1909
-1515
-1255
-1123
-1110
-1194
-1342
-1493
-1590
-1596
-1496
-1309
-1092
-926
-883
-979
-1150
-1321
-1461
-1577
-1657
-1647
-1506
-1289
-1131
-1116
-1175
-1129
-871
-484
-176
-89
-173
-261
-231
-97
42
115
124
112
110
111
85
9
-104
-221
-305
-356
-396
-420
-368
-168
148
422
509
407
269
251
372
504
514
415
348
429
661
957
1214
1393
1493
1524
1521
1534
1576
1597
1543
1438
1405
1539
1806
2081
2298
2515
2806
3141
3389
3434
3264
2924
2462
1951
1493
1138
811
385
-122
-487
-468
-98
280
345
152
68
346
853
1199
1166
918
781
901
1117
1195
1082
912
817
783
719
588
446
369
359
322
160
-121
-423
-636
-769
-949
-1246
-1566
-1734
-1716
-1653
-1683
-1744
-1653
-1385
-1136
-1099
-1203
-1154
-803
-358
-174
-359
-667
-777
-618
-412
-401
-602
-845
-956
-880
-704
-546
-491
-554
-666
-735
-723
-659
-612
-632
-715
-843
-976
-1072
-1109
-1111
-1139
-1223
-1343
-1443
-1502
-1512
-1436
-1289
-1184
-1256
-1541
-1929
-2195
-2203
-1999
-1737
-1548
-1443
-1321
-1047
-579
-50
338
475
412
262
62
-195
-440
-632
-871
-1293
-1807
-2075
-1891
-1472
-1198
-1074
-718
69
938
1362
1320
1321
1725
2253
2330
1812
1146
772
694
619
367
-6
-386
-722
-952
-991
-850
-733
-795
-882
-711
-248
168
166
-214
-578
-641
-526
-546
-749
-879
-741
-511
-536
-824
-1007
-804
-436
-411
-838
-1235
-1114
-612
-362
-696
-1250
-1417
-1044
-615
-657
-1149
-1604
-1636
-1296
-932
-794
-877
-1046
-1261
-1549
-1871
-2118
-2234
-2301
-2437
-2610
-2668
-2514
-2247
-2051
-1969
-1929
-1936
-2120
-2568
-3048
-3191
-2932
-2621
-2659
-3047
-3401
-3409
-3113
-2806
-2694
-2808
-3121
-3549
-3875
-3850
-3457
-2996
-2824
-2994
-3215
-3202
-2954
-2694
-2609
-2724
-2934
-3111
-3153
-3023
-2812
-2694
-2745
-2861
-2856
-2701
-2509
-2405
-2385
-2400
-2473
-2667
-2889
-2956
-2798
-2590
-2546
-2648
-2678
-2485
-2184
-1997
-2018
-2144
-2264
-2376
-2496
-2566
-2504
-2362
-2292
-2354
-2407
-2261
-1916
-1597
-1536
-1711
-1879
-1832
-1562
-1283
-1222
-1379
-1507
-1331
-834
-342
-190
-356
-476
-272
131
394
392
356
490
673
635
391
277
520
909
1038
826
607
698
1013
1208
1074
771
585
615
743
797
729
633
604
658
712
649
461
299
336
551
710
588
251
5
84
386
583
493
234
44
36
134
207
233
252
266
251
214
187
163
85
9
53
205
290
131
-158
-241
41
393
340
-212
-826
-976
-636
-264
-271
-597
-850
-816
-689
-804
-1218
-1610
-1648
-1326
-879
-448
88
905
1902
2733
3151
3252
3241
3113
2700
2026
1420
1174
1190
1122
894
839
1232
1806
2010
1651
1168
1102
1468
1762
1590
1161
1014
1357
1849
2022
1781
1436
1288
1306
1279
1135
1040
1143
1359
1448
1296
1047
907
914
946
884
742
624
587
612
664
721
769
784
735
633
531
448
372
265
131
20
-37
-56
-101
-184
-211
-86
134
224
30
-320
-527
-443
-252
-227
-411
-597
-610
-502
-422
-403
-379
-349
-421
-622
-787
-737
-516
-360
-413
-523
-460
-206
41
119
103
157
296
363
246
60
22
197
446
600
622
618
691
855
1048
1210
1308
1358
1413
1528
1701
1866
1946
1948
1939
1954
1943
1837
1647
1456
1323
1219
1092
948
850
846
908
973
1010
1043
1097
1156
1175
1144
1122
1192
1365
1552
1636
1577
1441
1310
1195
1052
865
681
543
433
311
198
160
227
315
283
75
-222
-437
-476
-400
-364
-468
-648
-737
-644
-465
-390
-493
-647
-662
-486
-259
-128
-97
-101
-134
-274
-532
-783
-916
-985
-1136
-1399
-1615
-1628
-1492
-1421
-1552
-1834
-2148
-2412
-2598
-2688
-2682
-2677
-2805
-3045
-3190
-3067
-2767
-2596
-2736
-3051
-3242
-3179
-3021
-2998
-3132
-3196
-2961
-2458
-1988
-1856
-2065
-2311
-2315
-2137
-2165
-2733
-3784
-4947
-5934
-6793
-7717
-8707
-9502
-9854
-9807
-9594
-9322
-8829
-7904
-6616
-5351
-4501
-4080
-3757
-3237
-2618
-2299
-2563
-3194
-3671
-3660
-3320
-3093
-3206
-3480
-3609
-3557
-3586
-3905
-4459
-5146
-6112
-7639
-9656
-11506
-12327
-11776
-10271
-8482
-6603
-4195
-798
3387
7506
10699
12748
14059
15109
16026
16693
17130
17613
18375
19294
20060
20531
20933
21507
22058
22016
20969
19090
16980
15124
13552
12039
10479
8993
7720
6641
5647
4721
3942
3359
2904
2450
1915
1282
574
-151
-815
-1355
-1781
-2153
-2468
-2632
-2556
-2284
-1984
-1805
-1732
-1643
-1473
-1321
-1371
-1692
-2151
-2517
-2674
-2710
-2804
-3002
-3149
-3055
-2696
-2253
-1916
-1714
-1558
-1389
-1238
-1167
-1179
-1227
-1251
-1182
-969
-610
-202
122
326
510
780
1116
1374
1437
1356
1277
1305
1419
1548
1630
1646
1604
1533
1493
1518
1564
1522
1322
1016
763
660
631
493
159
-257
-568
-705
-766
-878
-1042
-1154
-1161
-1146
-1229
-1410
-1585
-1673
-1715
-1817
-2022
-2266
-2471
-2622
-2768
-2950
-3177
-3414
-3629
-3794
-3899
-3949
-3960
-3951
-3930
-3899
-3847
-3778
-3708
-3664
-3676
-3759
-3892
-4025
-4106
-4123
-4105
-4105
-4154
-4220
-4241
-4194
-4136
-4142
-4221
-4294
-4256
-4086
-3885
-3801
-3901
-4117
-4297
-4332
-4248
-4156
-4132
-4139
-4061
-3847
-3572
-3358
-3240
-3147
-3022
-2914
-2916
-3005
-3014
-2827
-2540
-2383
-2443
-2538
-2425
-2099
-1813
-1778
-1926
-2002
-1870
-1643
-1492
-1454
-1449
-1446
-1508
-1672
-1860
-2001
-2131
-2319
-2529
-2626
-2580
-2531
-2592
-2639
-2403
-1795
-1024
-398
-17
268
610
973
1183
1132
873
545
249
3
-224
-458
-682
-849
-926
-938
-932
-930
-923
-891
-833
-767
-715
-703
-726
-755
-753
-717
-701
-764
-848
-791
-477
29
521
811
894
877
839
764
574
237
-178
-529
-661
-504
-139
236
461
541
617
793
1019
1145
1110
1025
1065
1271
1523
1692
1767
1831
1931
2005
1930
1652
1233
802
494
361
326
250
103
37
265
796
1317
1438
1026
308
-379
-910
-1433
-2139
-3021
-3884
-4493
-4732
-4647
-4415
-4235
-4225
-4374
-4575
-4706
-4733
-4738
-4831
-5016
-5184
-5227
-5131
-4962
-4780
-4610
-4501
-4525
-4685
-4862
-4949
-5032
-5324
-5876
-6413
-6581
-6309
-5844
-5382
-4787
-3766
-2263
-542
1109
2635
4112
5498
6621
7388
7910
8376
8857
9303
9681
10022
10353
10643
10880
11124
11423
11728
11902
11893
11800
11791
11963
12285
12694
13144
13556
13801
13817
13760
13903
14321
14695
14515
13570
12178
10885
9910
8966
7620
5789
3852
2309
1351
757
188
-501
-1196
-1718
-2045
-2320
-2672
-3090
-3471
-3811
-4203
-4693
-5141
-5333
-5234
-5053
-5017
-5119
-5162
-5038
-4869
-4833
-4925
-4976
-4893
-4788
-4831
-5009
-5128
-5028
-4767
-4549
-4467
-4410
-4213
-3851
-3462
-3178
-3006
-2869
-2750
-2708
-2759
-2811
-2773
-2687
-2679
-2774
-2839
-2739
-2507
-2309
-2246
-2259
-2246
-2196
-2186
-2251
-2335
-2373
-2374
-2398
-2467
-2549
-2624
-2719
-2865
-3055
-3246
-3415
-3584
-3755
-3862
-3770
-3374
-2699
-1910
-1211
-691
-294
75
422
641
618
342
-60
-411
-585
-553
-393
-232
-153
-132
-94
-8
83
115
74
-10
-105
-166
-116
121
515
911
1144
1186
1135
1082
1023
918
791
714
714
746
788
913
1200
1580
1839
1831
1644
1502
1520
1587
1521
1296
1061
976
1024
1053
967
826
753
773
790
727
650
699
878
1004
919
741
820
1397
2279
2939
2992
2544
2070
1967
2219
2498
2502
2181
1713
1355
1298
1579
2026
2325
2216
1705
1066
620
455
402
238
-114
-537
-816
-768
-367
249
840
1190
1269
1225
1244
1382
1568
1709
1771
1757
1652
1461
1261
1158
1211
1380
1594
1837
2143
2506
2826
2980
2936
2806
2755
2868
3072
3217
3232
3188
3207
3319
3418
3335
2995
2489
1967
1517
1119
712
287
-72
-239
-137
189
591
898
1023
1008
960
929
841
586
151
-352
-769
-1035
-1180
-1268
-1316
-1292
-1183
-1050
-989
-1035
-1123
-1148
-1065
-974
-1048
-1357
-1749
-1960
-1842
-1540
-1386
-1571
-1955
-2191
-2097
-1819
-1648
-1697
-1797
-1692
-1333
-920
-675
-604
-527
-309
-11
190
215
169
221
420
674
873
1008
1145
1331
1557
1792
2009
2182
2281
2304
2289
2284
2283
2222
2076
1918
1866
1922
1955
1828
1550
1277
1151
1151
1163
1111
1014
924
846
750
629
514
436
375
242
-65
-567
-1160
-1683
-2058
-2364
-2739
-3202
-3611
-3819
-3816
-3659
-3347
-2827
-2165
-1580
-1225
-998
-680
-268
-78
-387
-1061
-1671
-1960
-2087
-2353
-2779
-3058
-2944
-2526
-2102
-1849
-1666
-1355
-865
-342
45
248
346
447
608
814
1000
1106
1126
1113
1119
1140
1126
1054
964
928
955
986
953
855
755
708
701
692
657
606
565
555
538
442
245
31
-60
32
230
397
476
520
587
653
655
586
523
476
351
96
-170
-250
-119
27
7
-126
-193
-164
-211
-440
-690
-688
-405
-120
-97
-275
-347
-129
231
443
360
88
-150
-196
-43
202
407
499
499
494
546
636
712
725
673
576
469
417
474
614
746
823
895
1033
1224
1373
1423
1418
1415
1409
1364
1309
1314
1388
1462
1489
1483
1492
1550
1661
1837
2037
2129
2030
1849
1826
2033
2228
2110
1722
1454
1618
2074
2403
2391
2216
2162
2298
2458
2488
2365
2127
1811
1473
1193
1000
813
553
265
105
128
214
192
52
-68
-76
-29
-50
-222
-533
-907
-1242
-1474
-1609
-1709
-1819
-1912
-1931
-1869
-1778
-1706
-1651
-1614
-1659
-1874
-2222
-2529
-2630
-2539
-2420
-2390
-2407
-2343
-2130
-1829
-1548
-1356
-1246
-1162
-1067
-963
-886
-854
-819
-726
-572
-452
-474
-630
-788
-830
-799
-861
-1133
-1546
-1909
-2096
-2139
-2141
-2134
-2022
-1708
-1233
-748
-354
-14
360
757
1049
1139
1081
1015
1014
1030
1005
960
948
946
878
751
693
799
964
996
895
950
1452
2339
3229
3804
4116
4443
4905
5308
5353
4954
4300
3631
3066
2623
2306
2119
2025
1992
2054
2291
2681
3057
3251
3262
3241
3270
3258
3065
2732
2470
2416
2460
2387
2148
1914
1870
1977
2043
1952
1772
1640
1595
1571
1502
1389
1297
1271
1294
1322
1312
1243
1150
1104
1124
1153
1128
1055
1000
1007
1072
1176
1326
1509
1654
1695
1671
1711
1888
2121
2250
2221
2134
2101
2112
2057
1883
1658
1480
1364
1246
1110
1031
1074
1211
1333
1363
1338
1359
1458
1572
1634
1642
1649
1688
1741
1771
1763
1722
1647
1535
1402
1279
1181
1103
1047
1022
1020
997
929
862
881
1002
1126
1146
1091
1090
1207
1341
1353
1224
1050
894
723
514
339
290
332
323
199
61
19
28
-65
-301
-532
-601
-542
-546
-740
-1045
-1275
-1363
-1427
-1639
-2040
-2495
-2833
-2983
-3010
-3030
-3090
-3145
-3126
-3023
-2900
-2826
-2806
-2812
-2819
-2820
-2808
-2756
-2639
-2445
-2185
-1878
-1545
-1240
-1046
-1024
-1143
-1276
-1335
-1376
-1546
-1923
-2402
-2778
-2921
-2859
-2731
-2660
-2708
-2881
-3101
-3250
-3250
-3152
-3088
-3136
-3268
-3380
-3384
-3249
-3015
-2827
-2877
-3244
-3764
-4137
-4224
-4171
-4227
-4468
-4718
-4788
-4671
-4511
-4443
-4507
-4684
-4930
-5141
-5194
-5065
-4874
-4795
-4884
-5050
-5171
-5223
-5309
-5532
-5847
-6067
-6023
-5744
-5448
-5304
-5191
-4807
-4030
-3099
-2373
-1937
-1539
-939
-207
385
680
781
882
1059
1296
1603
2033
2562
3082
3544
4040
4675
5374
5884
6030
5888
5685
5542
5377
5088
4768
4672
4926
5372
5719
5854
5906
6023
6191
6272
6190
6009
5832
5696
5608
5628
5807
6079
6281
6318
6291
6378
6634
6911
6989
6809
6530
6397
6528
6811
7011
6982
6782
6590
6506
6453
6259
5839
5277
4767
4460
4366
4375
4366
4324
4326
4433
4626
4789
4823
4722
4550
4369
4209
4082
3975
3851
3692
3536
3449
3458
3501
3483
3362
3158
2909
2633
2367
2161
2010
1827
1546
1235
1033
967
894
675
350
82
-74
-233
-520
-884
-1159
-1295
-1397
-1565
-1759
-1882
-1932
-2010
-2180
-2390
-2557
-2684
-2828
-2986
-3095
-3120
-3116
-3147
-3183
-3145
-3021
-2898
-2847
-2831
-2764
-2636
-2544
-2570
-2680
-2753
-2697
-2533
-2375
-2308
-2311
-2275
-2134
-1963
-1920
-2084
-2348
-2519
-2545
-2595
-2865
-3306
-3642
-3672
-3505
-3434
-3600
-3853
-3956
-3887
-3839
-3970
-4218
-4416
-4498
-4544
-4620
-4686
-4663
-4565
-4490
-4498
-4545
-4544
-4483
-4440
-4477
-4570
-4639
-4633
-4569
-4483
-4365
-4178
-3935
-3715
-3596
-3564
-3528
-3430
-3308
-3260
-3332
-3455
-3518
-3477
-3389
-3324
-3294
-3255
-3161
-3018
-2867
-2753
-2697
-2688
-2693
-2685
-2672
-2681
-2723
-2766
-2749
-2649
-2518
-2429
-2405
-2397
-2343
-2224
-2086
-1980
-1929
-1915
-1906
-1867
-1767
-1619
-1473
-1380
-1324
-1247
-1125
-999
-934
-941
-954
-910
-807
-695
-627
-632
-713
-853
-1029
-1227
-1474
-1789
-2123
-2377
-2493
-2500
-2432
-2225
-1765
-1068
-351
143
384
547
767
953
896
521
-6
-445
-668
-697
-602
-448
-306
-249
-293
-376
-427
-456
-555
-799
-1143
-1434
-1531
-1413
-1197
-1013
-887
-736
-488
-187
31
77
-12
-124
-198
-272
-409
-605
-780
-859
-837
-769
-701
-631
-519
-352
-178
-67
-39
-50
-55
-76
-187
-391
-585
-654
-607
-573
-642
-766
-820
-752
-636
-579
-604
-647
-644
-598
-565
-587
-659
-755
-851
-936
-996
-1009
-971
-915
-884
-869
-814
-686
-535
-449
-450
-456
-389
-271
-191
-175
-153
-56
86
192
245
304
411
521
571
571
584
627
650
621
593
633
724
778
762
733
758
822
857
830
777
749
758
767
742
682
627
635
724
828
823
661
455
371
432
480
367
139
-34
-106
-211
-459
-738
-812
-599
-263
18
284
732
1442
2244
2888
3295
3567
3815
4020
4082
3979
3825
3783
3928
4175
4361
4378
4245
4058
3854
3553
3050
2344
1571
898
402
68
-128
-183
-126
-58
-85
-206
-302
-265
-129
-39
-86
-210
-268
-190
-43
65
85
40
-31
-100
-145
-142
-94
-45
-14
48
208
432
590
595
531
554
691
794
728
567
529
708
950
1052
1012
1037
1276
1629
1852
1821
1620
1404
1223
1030
801
588
461
438
506
656
884
1156
1392
1507
1465
1283
1029
775
560
354
104
-179
-406
-486
-427
-306
-149
110
535
1073
1587
1988
2297
2570
2775
2799
2552
2077
1523
1050
729
530
403
360
459
694
940
1040
951
776
610
417
103
-319
-701
-932
-1080
-1301
-1649
-2015
-2288
-2505
-2784
-3148
-3458
-3566
-3467
-3296
-3176
-3081
-2863
-2407
-1763
-1152
-823
-847
-1081
-1353
-1641
-2041
-2531
-2846
-2715
-2198
-1688
-1510
-1560
-1457
-1017
-514
-408
-890
-1762
-2668
-3380
-3849
-4109
-4253
-4401
-4600
-4739
-4645
-4285
-3838
-3548
-3486
-3553
-3622
-3633
-3553
-3378
-3178
-3090
-3184
-3369
-3507
-3569
-3591
-3529
-3246
-2749
-2331
-2315
-2665
-2947
-2756
-2156
-1641
-1667
-2203
-2802
-3024
-2819
-2505
-2426
-2649
-2944
-3025
-2798
-2428
-2143
-2042
-2070
-2127
-2167
-2187
-2168
-2065
-1857
-1614
-1457
-1437
-1433
-1244
-810
-303
4
11
-131
-197
-138
-79
-114
-196
-226
-199
-166
-103
106
500
937
1227
1336
1373
1422
1433
1338
1166
1029
1008
1093
1244
1453
1718
2008
2287
2506
2620
2600
2458
2258
2066
1878
1647
1401
1257
1288
1428
1570
1724
2040
2582
3143
3378
3142
2638
2180
1868
1535
1024
425
1
-91
53
238
388
562
784
926
827
503
161
-22
-64
-131
-316
-509
-526
-330
-67
114
190
247
362
527
682
796
895
1023
1202
1384
1465
1381
1194
1088
1199
1478
1716
1742
1594
1472
1527
1744
2004
2197
2290
2289
2219
2126
2052
1982
1811
1439
891
337
-29
-162
-202
-324
-550
-732
-737
-606
-504
-479
-339
148
962
1806
2376
2685
2979
3410
3803
3832
3385
2706
2161
1894
1754
1557
1335
1274
1476
1794
1966
1872
1633
1440
1355
1279
1106
853
631
525
542
635
763
881
937
900
814
759
779
836
844
786
721
712
776
875
958
1001
1004
966
905
863
858
866
834
739
655
694
892
1144
1302
1317
1259
1217
1188
1104
929
722
584
557
583
580
553
588
759
1037
1297
1450
1510
1539
1545
1476
1314
1159
1114
1153
1167
1121
1128
1307
1600
1809
1833
1789
1849
2008
2079
1922
1622
1383
1294
1241
1057
718
338
44
-162
-385
-705
-1088
-1412
-1598
-1711
-1897
-2221
-2582
-2818
-2879
-2902
-3047
-3310
-3522
-3537
-3419
-3388
-3608
-4032
-4483
-4875
-5265
-5678
-5942
-5828
-5304
-4593
-3948
-3406
-2825
-2171
-1620
-1401
-1538
-1860
-2189
-2452
-2631
-2703
-2671
-2607
-2571
-2510
-2345
-2124
-2036
-2212
-2567
-2876
-3002
-2963
-2851
-2764
-2777
-2916
-3087
-3114
-2923
-2667
-2612
-2830
-3100
-3160
-3006
-2854
-2841
-2895
-2880
-2790
-2706
-2618
-2403
-2007
-1554
-1232
-1065
-909
-663
-379
-177
-77
3
128
280
408
518
651
830
1017
1169
1264
1309
1333
1362
1419
1507
1614
1733
1847
1937
1982
2004
2065
2225
2459
2665
2768
2793
2828
2910
2993
3021
3005
2997
3017
3023
2972
2889
2825
2794
2767
2725
2687
2661
2623
2562
2518
2536
2571
2491
2239
1928
1713
1599
1444
1178
914
801
798
747
642
727
1193
1876
2392
2577
2672
3000
3519
3849
3717
3277
2893
2718
2575
2256
1819
1511
1471
1575
1620
1554
1488
1534
1662
1741
1676
1500
1320
1229
1248
1320
1373
1376
1357
1375
1450
1539
1577
1548
1508
1520
1577
1617
1585
1485
1365
1277
1231
1201
1129
977
770
601
538
541
512
407
294
273
344
399
367
287
230
190
101
-49
-161
-152
-65
-17
-50
-80
-31
58
109
122
173
265
294
174
-16
-75
92
371
545
511
360
262
301
407
424
245
-83
-378
-474
-384
-266
-275
-418
-573
-648
-679
-757
-917
-1112
-1268
-1362
-1398
-1395
-1404
-1470
-1574
-1591
-1417
-1120
-923
-973
-1192
-1388
-1495
-1653
-2016
-2542
-3042
-3403
-3655
-3821
-3789
-3442
-2885
-2431
-2311
-2437
-2538
-2503
-2501
-2753
-3238
-3675
-3805
-3605
-3207
-2725
-2215
-1762
-1533
-1650
-2057
-2542
-2935
-3244
-3586
-4001
-4385
-4559
-4415
-3973
-3354
-2728
-2283
-2143
-2265
-2438
-2463
-2341
-2310
-2618
-3248
-3856
-4033
-3670
-3062
-2636
-2601
-2839
-3088
-3212
-3265
-3385
-3666
-4081
-4517
-4775
-4602
-3857
-2737
-1758
-1392
-1645
-2043
-2107
-1893
-1955
-2647
-3540
-3701
-2633
-876
449
700
252
-63
88
266
-122
-1097
-2092
-2520
-2202
-1340
-222
890
1732
2126
2140
2055
2073
2076
1784
1140
465
185
448
1013
1518
1801
1938
2036
2077
1998
1838
1748
1835
2029
2139
2063
1900
1819
1832
1768
1482
1060
741
635
586
399
149
180
754
1752
2779
3533
4000
4297
4437
4302
3819
3059
2152
1188
252
-495
-862
-809
-515
-234
-83
-5
81
135
60
-151
-400
-608
-779
-927
-977
-825
-504
-220
-160
-300
-455
-507
-512
-587
-715
-762
-669
-543
-528
-624
-699
-646
-517
-463
-560
-735
-849
-833
-714
-540
-297
78
610
1239
1895
2562
3256
3941
4500
4823
4932
4954
4973
4948
4790
4485
4137
3865
3706
3611
3511
3381
3260
3212
3267
3359
3352
3177
2915
2725
2683
2685
2581
2361
2171
2148
2292
2493
2644
2718
2726
2681
2595
2490
2387
2299
2246
2257
2345
2461
2521
2493
2452
2503
2654
2782
2730
2451
2040
1644
1345
1130
934
712
481
309
251
301
386
424
397
354
339
334
286
195
118
115
167
189
148
72
-1
-70
-135
-161
-125
-77
-61
-19
177
516
792
847
844
1114
1679
2071
1771
849
-34
-323
-166
-194
-784
-1647
-2190
-2151
-1787
-1495
-1413
-1430
-1443
-1487
-1615
-1779
-1873
-1892
-1952
-2141
-2403
-2588
-2607
-2501
-2388
-2358
-2439
-2624
-2847
-2967
-2851
-2525
-2209
-2121
-2265
-2437
-2478
-2462
-2576
-2874
-3178
-3266
-3091
-2785
-2498
-2300
-2197
-2192
-2251
-2287
-2227
-2124
-2131
-2347
-2684
-2913
-2883
-2666
-2478
-2459
-2555
-2604
-2518
-2357
-2227
-2148
-2058
-1911
-1740
-1607
-1529
-1466
-1393
-1344
-1369
-1465
-1562
-1587
-1516
-1376
-1214
-1062
-926
-827
-801
-858
-928
-910
-815
-821
-1101
-1589
-1996
-2121
-2100
-2210
-2436
-2345
-1552
-254
844
1203
965
719
814
985
734
-80
-1095
-1823
-2079
-2013
-1837
-1631
-1384
-1123
-927
-831
-785
-726
-655
-645
-748
-925
-1053
-1017
-812
-574
-444
-435
-442
-368
-248
-189
-207
-171
17
240
262
9
-281
-299
-5
315
377
223
173
475
1059
1614
1869
1762
1423
1047
769
586
371
-12
-559
-1077
-1345
-1290
-1043
-798
-649
-562
-469
-348
-247
-233
-319
-451
-567
-637
-688
-754
-803
-754
-580
-373
-281
-357
-501
-564
-494
-364
-280
-262
-247
-195
-154
-188
-287
-358
-320
-185
-34
63
102
122
140
133
86
23
-12
-8
2
-23
-83
-123
-97
-11
79
136
167
205
256
297
311
313
331
368
397
400
381
372
397
452
497
506
496
508
577
674
735
728
666
589
509
408
305
247
245
243
190
129
166
319
464
469
344
232
223
250
197
60
-60
-83
-33
28
84
150
200
169
57
-36
-21
63
94
12
-81
-41
147
345
417
363
295
299
348
354
273
123
-63
-279
-513
-698
-751
-651
-466
-284
-102
184
659
1272
1839
2191
2311
2312
2297
2266
2155
1955
1747
1625
1612
1654
1716
1823
2012
2239
2374
2310
2059
1730
1408
1092
725
287
-170
-568
-873
-1100
-1269
-1382
-1436
-1455
-1476
-1516
-1559
-1591
-1624
-1677
-1744
-1808
-1856
-1883
-1889
-1882
-1884
-1918
-1969
-2015
-2074
-2216
-2477
-2780
-3001
-3099
-3147
-3181
-3086
-2702
-2046
-1336
-771
-337
104
569
891
900
619
232
-124
-432
-725
-986
-1163
-1239
-1233
-1165
-1044
-914
-843
-844
-852
-797
-693
-621
-635
-693
-694
-585
-418
-297
-282
-339
-384
-354
-260
-160
-98
-81
-92
-106
-85
-1
142
291
395
459
525
590
589
460
244
53
-43
-73
-93
-80
40
286
569
767
829
776
638
418
136
-167
-460
-739
-966
-1054
-944
-713
-535
-500
-487
-301
70
409
511
389
246
220
240
167
-15
-204
-315
-363
-372
-290
-39
362
748
970
1038
1083
1173
1225
1094
772
459
347
429
528
550
612
878
1317
1699
1849
1810
1748
1787
1946
2169
2313
2168
1663
1074
877
1237
1740
1815
1401
1052
1270
1874
2168
1709
798
88
-140
-202
-560
-1252
-1805
-1700
-921
5
478
406
277
614
1376
1955
1832
1128
463
308
551
776
770
653
622
698
783
864
1014
1208
1320
1297
1235
1251
1302
1273
1225
1387
1858
2380
2544
2228
1769
1629
1880
2106
1813
944
31
-172
697
2232
3492
3724
2978
2012
1547
1592
1532
814
-459
-1640
-2145
-1857
-1084
-238
412
774
888
885
882
892
842
669
414
179
44
30
148
397
682
832
718
400
114
64
242
467
576
550
477
424
382
328
265
220
226
329
572
944
1346
1634
1721
1648
1533
1452
1373
1216
935
565
195
-90
-234
-225
-108
22
77
73
149
441
920
1384
1644
1723
1794
1981
2212
2302
2167
1908
1666
1481
1290
1056
832
703
693
757
828
887
951
1035
1118
1157
1128
1062
1019
1021
1024
963
827
655
464
224
-61
-300
-398
-371
-334
-356
-382
-307
-134
11
37
-31
-123
-216
-344
-490
-568
-536
-476
-526
-702
-844
-791
-585
-458
-599
-955
-1263
-1309
-1126
-945
-959
-1140
-1300
-1301
-1189
-1091
-1083
-1139
-1184
-1173
-1094
-958
-796
-651
-536
-435
-342
-301
-363
-504
-593
-523
-345
-236
-304
-467
-516
-322
18
268
264
53
-155
-187
-56
69
25
-204
-475
-593
-487
-257
-78
-23
9
169
465
743
852
803
740
768
874
959
971
947
946
998
1105
1230
1288
1204
1027
915
940
978
840
540
349
486
828
1008
823
454
267
394
607
602
310
-61
-281
-315
-306
-370
-487
-575
-606
-650
-778
-956
-1070
-1057
-986
-1002
-1149
-1326
-1395
-1319
-1187
-1109
-1098
-1087
-1049
-1028
-1058
-1078
-990
-799
-651
-699
-923
-1125
-1134
-972
-832
-853
-977
-1033
-918
-684
-477
-387
-394
-434
-465
-491
-541
-629
-747
-867
-944
-946
-873
-760
-644
-533
-396
-235
-121
-119
-202
-251
-200
-126
-170
-343
-483
-446
-274
-146
-150
-180
-79
145
350
440
473
541
647
718
721
711
760
873
1004
1105
1161
1187
1214
1270
1347
1390
1359
1284
1246
1268
1269
1145
899
658
535
501
411
221
67
174
654
1378
2068
2505
2712
2881
3140
3377
3320
2827
2078
1457
1204
1207
1155
885
577
524
803
1195
1415
1397
1315
1328
1415
1423
1237
883
484
167
-12
-47
22
163
354
575
785
944
1057
1158
1219
1118
773
294
-60
-106
79
252
277
249
332
559
785
823
633
324
43
-122
-167
-131
-58
10
31
-3
-36
-20
38
72
-7
-178
-287
-233
-108
-132
-412
-782
-965
-879
-733
-787
-1050
-1265
-1226
-1002
-839
-882
-1004
-989
-790
-579
-523
-598
-666
-645
-573
-490
-355
-133
88
158
72
17
155
406
510
349
107
61
264
495
527
395
315
392
505
468
277
125
150
279
324
204
59
50
173
284
278
195
149
184
234
213
143
96
110
127
70
-70
-249
-416
-559
-667
-690
-591
-417
-288
-294
-379
-385
-209
41
121
-105
-509
-807
-837
-704
-639
-721
-818
-762
-585
-482
-562
-703
-716
-582
-482
-566
-777
-907
-852
-702
-601
-565
-501
-362
-200
-58
96
299
476
483
279
-8
-199
-240
-217
-249
-361
-476
-515
-458
-342
-229
-157
-98
-16
86
176
260
396
605
795
827
701
578
576
609
483
165
-118
-93
261
708
1005
1130
1204
1301
1374
1337
1177
958
751
612
590
711
923
1111
1186
1178
1187
1267
1337
1280
1088
878
756
687
566
388
292
356
431
252
-270
-912
-1358
-1521
-1565
-1602
-1477
-926
60
1130
1873
2168
2206
2169
2018
1617
960
244
-318
-638
-740
-672
-469
-187
87
293
417
485
459
259
-145
-645
-1020
-1086
-870
-611
-460
-228
467
1708
2985
3571
3236
2501
2057
2017
1852
1067
-192
-1284
-1672
-1334
-614
145
714
945
776
291
-314
-891
-1460
-2114
-2838
-3444
-3670
-3342
-2581
-1777
-1320
-1283
-1413
-1432
-1336
-1353
-1566
-1788
-1850
-1853
-2003
-2262
-2363
-2221
-2170
-2608
-3489
-4336
-4750
-4773
-4655
-4474
-4135
-3658
-3232
-2951
-2634
-2086
-1427
-993
-903
-880
-568
52
684
1125
1445
1780
2083
2178
2041
1869
1860
1967
1972
1806
1677
1845
2346
2956
3404
3623
3727
3869
4156
4642
5311
6036
6635
7028
7310
7556
7616
7160
6059
4641
3473
2865
2646
2452
2184
2091
2404
3024
3621
3958
4074
4131
4201
4259
4287
4308
4328
4310
4276
4322
4475
4614
4553
4260
3919
3711
3616
3487
3276
3100
3065
3066
2905
2558
2225
2061
1924
1562
985
562
631
1056
1332
1141
709
546
882
1428
1711
1562
1234
1116
1392
1968
2610
3067
3168
2909
2435
1920
1430
908
284
-414
-1104
-1693
-2056
-2050
-1666
-1144
-849
-944
-1245
-1422
-1374
-1288
-1365
-1566
-1658
-1519
-1271
-1112
-1093
-1109
-1052
-937
-866
-879
-922
-914
-804
-634
-526
-626
-1032
-1656
-2213
-2381
-2065
-1511
-1142
-1211
-1603
-1945
-1981
-1829
-1885
-2429
-3307
-4003
-4099
-3637
-3057
-2753
-2753
-2814
-2767
-2699
-2787
-3059
-3391
-3712
-4050
-4332
-4285
-3647
-2502
-1328
-592
-355
-359
-377
-440
-683
-1104
-1550
-1927
-2300
-2735
-3111
-3218
-3022
-2762
-2704
-2837
-2846
-2428
-1621
-813
-414
-557
-1030
-1473
-1672
-1675
-1703
-1946
-2356
-2675
-2644
-2216
-1585
-1028
-684
-498
-343
-191
-145
-315
-648
-907
-856
-485
-26
263
332
319
351
374
236
-109
-509
-761
-787
-651
-456
-264
-94
29
51
-38
-149
-146
30
232
234
-31
-343
-380
-50
387
589
493
327
296
362
349
211
56
-66
-284
-717
-1249
-1589
-1579
-1368
-1239
-1293
-1372
-1256
-914
-514
-231
-102
-56
-43
-75
-169
-295
-370
-356
-302
-303
-392
-494
-487
-326
-68
180
347
432
465
466
446
432
441
452
420
339
264
255
302
346
372
422
516
580
516
330
154
107
173
234
217
152
119
152
229
318
393
424
404
374
389
449
488
450
372
345
404
498
525
433
246
30
-145
-229
-233
-218
-227
-217
-86
197
505
676
676
623
627
658
603
431
245
166
194
233
225
212
268
388
489
502
431
353
342
408
493
530
504
460
446
461
484
525
635
829
1023
1087
991
843
758
718
583
271
-116
-371
-393
-271
-168
-138
-82
113
409
617
586
390
266
354
510
477
187
-125
-159
113
412
458
254
25
-61
-34
-21
-81
-173
-239
-274
-302
-347
-432
-569
-734
-897
-1076
-1342
-1687
-1943
-1877
-1437
-833
-324
57
484
1085
1722
2100
2057
1713
1318
1026
814
594
373
254
327
557
805
954
1003
1031
1088
1115
1027
849
705
656
586
326
-101
-446
-483
-278
-95
-47
66
528
1329
2136
2618
2753
2734
2670
2479
2060
1482
945
573
331
131
-38
-127
-141
-162
-275
-494
-779
-1075
-1324
-1453
-1410
-1249
-1104
-1083
-1176
-1294
-1383
-1483
-1655
-1878
-2062
-2145
-2142
-2092
-1997
-1849
-1694
-1623
-1651
-1681
-1632
-1568
-1620
-1800
-1952
-1936
-1831
-1848
-2064
-2310
-2364
-2196
-1963
-1783
-1605
-1314
-898
-455
-83
195
369
413
317
129
-71
-245
-399
-521
-564
-506
-392
-276
-156
-1
195
368
444
413
310
165
18
-68
-54
40
155
275
469
802
1217
1546
1657
1588
1487
1442
1392
1200
816
356
32
-24
167
457
693
814
874
984
1201
1464
1622
1558
1308
1028
863
843
902
984
1097
1245
1385
1481
1576
1759
2036
2262
2262
2043
1835
1873
2134
2363
2369
2267
2380
2856
3448
3721
3484
2953
2483
2204
1949
1529
980
515
289
295
443
673
940
1170
1284
1283
1236
1199
1164
1104
1035
1001
1007
1012
994
976
974
951
853
690
542
487
527
597
653
719
832
957
1001
921
798
773
886
1011
986
791
582
514
559
541
349
76
-41
193
788
1543
2127
2255
1894
1327
931
753
434
-389
-1569
-2499
-2743
-2484
-2231
-2147
-1886
-1126
-93
633
798
712
784
998
992
596
75
-198
-141
21
78
13
-113
-328
-698
-1206
-1750
-2263
-2736
-3118
-3277
-3098
-2627
-2100
-1744
-1604
-1561
-1510
-1504
-1716
-2218
-2873
-3422
-3666
-3564
-3168
-2514
-1677
-844
-286
-201
-538
-1048
-1472
-1723
-1938
-2294
-2790
-3181
-3164
-2652
-1900
-1312
-1133
-1276
-1475
-1547
-1502
-1448
-1455
-1509
-1580
-1660
-1722
-1706
-1576
-1350
-1085
-803
-481
-129
160
280
226
95
-40
-239
-611
-1144
-1635
-1857
-1780
-1547
-1291
-1002
-622
-212
54
70
-96
-283
-410
-523
-689
-871
-947
-815
-500
-155
44
48
3
132
514
967
1188
1036
662
341
186
50
-267
-756
-1179
-1296
-1078
-685
-293
30
269
369
272
34
-169
-196
-108
-102
-276
-495
-511
-222
207
510
557
416
239
114
36
-46
-163
-297
-376
-311
-72
249
502
607
627
682
791
841
723
459
195
44
10
44
140
332
609
888
1085
1190
1249
1268
1196
1000
739
530
453
499
605
727
856
976
1064
1117
1155
1179
1157
1057
924
857
905
998
1026
974
967
1139
1468
1745
1768
1542
1273
1154
1167
1108
835
461
257
375
706
1003
1146
1225
1390
1653
1878
1954
1918
1868
1840
1783
1670
1574
1596
1738
1892
1946
1903
1876
1954
2102
2205
2190
2085
1977
1912
1852
1723
1513
1280
1084
946
841
705
480
168
-150
-379
-524
-683
-905
-1052
-872
-259
594
1364
1885
2236
2557
2851
2995
2900
2591
2150
1668
1248
1000
957
1028
1077
1059
1048
1118
1224
1265
1189
1043
922
870
861
851
824
809
845
923
983
961
861
760
716
720
719
688
620
512
383
293
315
431
535
556
553
642
841
1027
1065
981
937
1040
1231
1372
1376
1278
1179
1144
1150
1097
893
544
168
-104
-238
-325
-462
-640
-760
-759
-691
-675
-767
-931
-1094
-1217
-1319
-1451
-1639
-1834
-1934
-1837
-1556
-1256
-1120
-1158
-1205
-1091
-837
-650
-720
-988
-1202
-1192
-1016
-878
-873
-896
-805
-604
-435
-388
-383
-295
-145
-79
-164
-272
-220
-33
84
-1
-180
-253
-180
-101
-142
-248
-320
-396
-583
-849
-1016
-982
-864
-878
-1055
-1193
-1118
-892
-717
-713
-796
-814
-736
-642
-606
-598
-546
-445
-360
-335
-341
-314
-230
-131
-85
-107
-154
-175
-160
-131
-101
-41
81
235
353
410
457
564
737
886
933
893
840
825
846
890
943
963
891
745
665
782
1032
1184
1095
906
889
1101
1312
1301
1137
1088
1244
1412
1388
1239
1203
1365
1537
1515
1328
1189
1211
1295
1289
1175
1077
1101
1236
1406
1563
1699
1813
1906
1990
2075
2152
2198
2204
2193
2200
2251
2332
2396
2408
2367
2310
2280
2281
2290
2285
2274
2264
2217
2070
1843
1656
1615
1673
1626
1293
712
136
-187
-249
-289
-529
-890
-987
-480
566
1684
2417
2716
2879
3146
3411
3373
2917
2272
1748
1426
1166
853
551
386
363
339
183
-99
-408
-681
-897
-1013
-964
-731
-417
-192
-143
-248
-466
-798
-1223
-1600
-1703
-1417
-877
-370
-95
-38
-67
-111
-229
-511
-948
-1414
-1779
-1965
-1975
-1885
-1809
-1857
-2053
-2329
-2586
-2802
-3022
-3206
-3183
-2832
-2309
-1937
-1898
-2012
-1938
-1633
-1452
-1751
-2476
-3199
-3509
-3343
-2890
-2346
-1832
-1481
-1429
-1681
-2055
-2344
-2516
-2709
-3033
-3428
-3755
-3936
-3987
-3950
-3836
-3677
-3563
-3587
-3731
-3842
-3776
-3547
-3355
-3399
-3668
-3906
-3868
-3584
-3313
-3253
-3343
-3365
-3228
-3074
-3045
-3080
-2960
-2579
-2089
-1745
-1647
-1647
-1531
-1233
-892
-722
-817
-1096
-1366
-1464
-1393
-1310
-1381
-1622
-1894
-2042
-2035
-1945
-1806
-1537
-1027
-292
530
1324
2107
2952
3823
4560
5023
5234
5340
5431
5485
5465
5422
5452
5557
5641
5649
5663
5819
6097
6312
6331
6245
6263
6449
6617
6544
6228
5872
5605
5320
4857
4337
4140
4500
5184
5654
5604
5248
5028
5077
5074
4658
3872
3139
2831
2948
3238
3515
3787
4094
4373
4524
4537
4499
4447
4345
4147
3883
3638
3471
3374
3327
3324
3315
3195
2902
2504
2162
1951
1804
1631
1451
1368
1378
1296
967
497
200
278
584
791
749
620
648
869
1081
1095
906
637
417
306
301
326
260
50
-205
-332
-285
-226
-343
-614
-848
-941
-996
-1126
-1244
-1145
-790
-399
-220
-245
-242
-72
120
61
-348
-919
-1362
-1561
-1647
-1825
-2178
-2595
-2904
-3026
-3036
-3071
-3194
-3346
-3440
-3453
-3434
-3419
-3387
-3308
-3209
-3169
-3229
-3343
-3419
-3422
-3407
-3438
-3505
-3523
-3437
-3271
-3108
-3021
-3027
-3078
-3101
-3050
-2948
-2863
-2840
-2845
-2824
-2776
-2762
-2827
-2921
-2929
-2803
-2626
-2513
-2474
-2414
-2259
-2064
-1950
-1968
-2037
-2051
-2000
-1962
-1993
-2042
-2012
-1866
-1674
-1525
-1434
-1333
-1167
-958
-784
-693
-660
-625
-557
-480
-424
-387
-326
-220
-95
-2
25
9
14
91
212
292
263
153
74
120
275
415
419
293
177
204
365
510
523
446
427
534
668
682
575
498
571
735
822
750
609
556
633
742
762
671
531
416
345
300
252
181
90
10
-2
84
232
371
451
480
487
459
356
164
-60
-242
-369
-495
-659
-803
-824
-704
-542
-458
-466
-487
-470
-456
-517
-646
-764
-812
-812
-792
-741
-642
-541
-520
-589
-653
-614
-492
-396
-391
-410
-326
-104
151
295
285
199
148
173
227
251
241
293
499
830
1130
1246
1174
1051
999
994
920
716
448
242
195
320
562
838
1059
1167
1183
1196
1279
1413
1496
1439
1258
1075
1007
1058
1131
1126
1037
940
901
918
937
940
952
1011
1113
1195
1175
1018
757
472
236
61
-105
-339
-657
-938
-978
-661
-78
530
987
1320
1678
2124
2535
2714
2583
2232
1814
1420
1081
832
719
732
779
762
694
681
788
944
1005
904
727
622
655
758
842
907
1011
1171
1307
1332
1261
1216
1281
1385
1381
1228
1052
1016
1130
1254
1258
1186
1189
1331
1494
1531
1452
1403
1456
1497
1396
1205
1110
1180
1260
1192
1065
1136
1482
1843
1881
1552
1124
862
737
508
31
-585
-1107
-1403
-1520
-1587
-1677
-1763
-1794
-1775
-1787
-1890
-2060
-2201
-2263
-2304
-2405
-2543
-2571
-2392
-2090
-1844
-1733
-1672
-1563
-1432
-1394
-1481
-1583
-1587
-1514
-1478
-1516
-1534
-1425
-1214
-1026
-931
-867
-748
-580
-449
-391
-339
-207
-3
168
231
209
175
148
74
-103
-355
-582
-691
-674
-602
-555
-545
-512
-413
-298
-280
-422
-648
-810
-839
-814
-852
-951
-983
-856
-639
-496
-500
-562
-555
-478
-452
-558
-728
-822
-783
-706
-723
-848
-968
-970
-856
-727
-677
-698
-711
-671
-603
-552
-517
-450
-308
-107
117
334
511
591
523
323
80
-121
-261
-369
-441
-425
-283
-44
238
538
844
1101
1230
1221
1170
1188
1272
1333
1326
1305
1340
1416
1446
1390
1297
1226
1174
1130
1130
1241
1476
1742
1920
1962
1901
1789
1629
1406
1131
870
709
696
801
949
1097
1273
1536
1868
2134
2172
1936
1549
1173
846
458
-82
-690
-1154
-1346
-1351
-1330
-1298
-1074
-505
297
1032
1505
1801
2119
2498
2760
2708
2336
1837
1397
1070
829
673
631
683
730
659
475
312
323
525
773
908
906
881
956
1125
1251
1176
824
242
-423
-983
-1305
-1407
-1410
-1371
-1181
-694
28
673
928
752
389
83
-158
-475
-919
-1352
-1580
-1526
-1260
-919
-605
-378
-258
-234
-257
-261
-211
-122
-37
-2
-39
-113
-161
-144
-104
-134
-266
-413
-453
-368
-279
-296
-342
-180
364
1208
2038
2520
2512
2113
1534
927
279
-517
-1507
-2544
-3336
-3640
-3432
-2897
-2258
-1656
-1155
-795
-609
-585
-666
-800
-984
-1225
-1469
-1597
-1491
-1137
-648
-192
97
183
140
100
157
307
456
511
460
380
343
348
331
260
172
137
202
366
571
716
710
557
389
352
445
522
467
353
343
456
508
346
78
-40
79
212
107
-199
-400
-287
0
166
136
102
236
464
596
579
529
519
455
226
-78
-237
-125
214
701
1327
2033
2584
2696
2317
1687
1063
442
-347
-1324
-2233
-2759
-2806
-2495
-1981
-1346
-685
-152
135
209
217
245
247
151
-1
-67
40
275
505
646
715
759
770
714
623
610
761
1023
1260
1390
1433
1433
1387
1276
1140
1074
1116
1208
1277
1331
1423
1543
1607
1570
1493
1460
1460
1405
1245
1045
898
806
684
468
191
-57
-232
-381
-583
-861
-1111
-1129
-756
-34
764
1349
1662
1902
2257
2668
2887
2758
2364
1899
1450
998
562
258
154
135
10
-251
-460
-440
-248
-93
-106
-214
-284
-306
-360
-461
-509
-423
-273
-209
-276
-347
-289
-114
48
115
102
28
-125
-337
-495
-480
-330
-233
-299
-406
-341
-69
206
297
248
240
347
433
340
69
-255
-537
-769
-961
-1097
-1177
-1241
-1298
-1276
-1111
-880
-764
-854
-1037
-1137
-1107
-1051
-1051
-1059
-991
-855
-724
-628
-516
-380
-322
-436
-665
-807
-712
-452
-251
-249
-366
-391
-228
2
90
-45
-276
-394
-319
-143
2
79
128
179
220
261
332
419
426
268
12
-145
-71
148
304
304
262
337
527
678
645
470
307
248
235
170
55
-1
79
239
343
310
196
97
9
-134
-336
-502
-538
-464
-393
-354
-234
67
493
845
996
1038
1141
1350
1550
1643
1651
1657
1680
1690
1685
1716
1766
1715
1494
1230
1170
1403
1726
1853
1728
1578
1648
1928
2178
2179
1953
1713
1652
1764
1870
1806
1580
1367
1331
1435
1497
1413
1270
1255
1419
1622
1699
1652
1627
1707
1822
1850
1754
1600
1462
1350
1236
1095
946
823
747
722
725
697
604
464
357
325
312
203
-57
-365
-563
-605
-611
-739
-967
-1103
-999
-747
-615
-782
-1151
-1456
-1577
-1669
-1957
-2440
-2875
-3035
-2971
-2913
-2955
-2908
-2518
-1798
-1057
-569
-305
-26
372
689
657
267
-214
-553
-779
-1045
-1365
-1557
-1511
-1376
-1375
-1509
-1533
-1289
-941
-798
-943
-1155
-1190
-1053
-914
-844
-746
-552
-385
-403
-550
-593
-438
-266
-308
-525
-652
-517
-238
-42
10
25
56
24
-134
-320
-385
-336
-347
-515
-726
-813
-762
-702
-711
-726
-692
-676
-769
-937
-1031
-991
-934
-991
-1126
-1208
-1197
-1217
-1388
-1636
-1773
-1721
-1592
-1540
-1572
-1551
-1374
-1092
-850
-741
-735
-729
-658
-544
-434
-318
-146
100
355
519
563
578
677
871
1049
1110
1080
1079
1194
1396
1587
1701
1754
1803
1903
2067
2258
2395
2410
2313
2212
2209
2301
2369
2325
2215
2176
2272
2406
2434
2331
2195
2123
2103
2056
1935
1779
1653
1570
1496
1415
1346
1314
1301
1268
1198
1112
1043
1001
978
964
950
936
914
869
789
660
480
270
66
-93
-187
-215
-184
-108
-23
32
40
24
18
30
21
-51
-194
-359
-479
-520
-503
-474
-465
-482
-516
-554
-578
-573
-568
-615
-736
-860
-876
-749
-566
-450
-430
-439
-437
-450
-489
-464
-279
6
174
90
-110
-132
140
487
575
315
-43
-181
-38
164
195
40
-135
-208
-210
-238
-315
-380
-399
-415
-477
-582
-663
-673
-616
-527
-453
-443
-506
-588
-615
-596
-643
-849
-1134
-1310
-1292
-1183
-1086
-908
-440
362
1241
1864
2111
2089
1917
1589
1057
371
-343
-1007
-1608
-2082
-2288
-2133
-1725
-1320
-1089
-998
-911
-764
-626
-581
-622
-675
-696
-701
-729
-804
-913
-1035
-1152
-1260
-1379
-1552
-1757
-1892
-1873
-1737
-1651
-1756
-2013
-2237
-2295
-2242
-2233
-2351
-2526
-2624
-2621
-2609
-2686
-2827
-2901
-2816
-2612
-2414
-2291
-2175
-1946
-1559
-1084
-601
-126
354
793
1070
1092
889
558
166
-259
-688
-1078
-1411
-1691
-1877
-1858
-1577
-1191
-999
-1153
-1473
-1575
-1270
-781
-497
-551
-666
-469
94
725
1093
1161
1139
1187
1269
1283
1247
1273
1397
1542
1650
1781
2019
2306
2499
2550
2558
2648
2830
3010
3125
3208
3311
3437
3564
3702
3871
4059
4205
4278
4319
4394
4518
4646
4720
4743
4790
4967
5342
5894
6503
6995
7222
7138
6850
6568
6446
6446
6392
6174
5930
5945
6329
6840
7077
6842
6288
5689
5122
4445
3552
2570
1747
1217
908
673
470
362
348
308
101
-295
-777
-1244
-1674
-2082
-2464
-2790
-3079
-3383
-3706
-3962
-4059
-4011
-3930
-3905
-3892
-3761
-3460
-3095
-2858
-2870
-3086
-3337
-3486
-3551
-3646
-3826
-4011
-4071
-3976
-3826
-3713
-3615
-3473
-3320
-3269
-3356
-3456
-3421
-3261
-3129
-3134
-3209
-3215
-3095
-2918
-2789
-2761
-2831
-2941
-3003
-2945
-2823
-2790
-2939
-3170
-3259
-3105
-2831
-2654
-2658
-2731
-2737
-2655
-2589
-2649
-2884
-3254
-3645
-3933
-4075
-4137
-4199
-4199
-3944
-3302
-2399
-1545
-950
-572
-275
-53
-38
-297
-696
-1053
-1346
-1686
-2106
-2438
-2507
-2344
-2143
-2022
-1903
-1669
-1367
-1181
-1219
-1401
-1588
-1748
-1960
-2262
-2569
-2763
-2810
-2769
-2699
-2613
-2483
-2284
-2024
-1751
-1548
-1493
-1593
-1760
-1886
-1941
-1982
-2062
-2131
-2069
-1828
-1517
-1304
-1250
-1257
-1171
-951
-701
-538
-467
-409
-326
-253
-227
-204
-101
81
250
342
424
617
919
1163
1179
980
760
675
681
620
413
155
10
49
209
382
507
593
675
778
884
935
885
752
633
635
758
877
886
806
765
860
1023
1089
968
736
557
515
563
603
611
638
716
800
818
768
705
654
560
342
-2
-358
-591
-653
-597
-509
-426
-325
-154
114
458
814
1112
1308
1399
1408
1385
1393
1455
1538
1567
1482
1323
1207
1205
1276
1292
1168
963
826
840
933
949
837
749
891
1299
1749
1954
1809
1470
1173
1010
874
607
172
-306
-628
-651
-372
65
475
755
904
974
999
984
941
881
784
612
392
223
206
354
561
683
653
531
460
541
717
808
662
321
-23
-230
-334
-435
-503
-363
69
637
1096
1388
1665
2038
2384
2454
2163
1694
1294
1049
879
685
462
279
205
280
479
707
854
894
929
1072
1295
1450
1456
1391
1363
1345
1192
855
478
233
123
31
-40
118
687
1560
2392
2943
3275
3609
4027
4373
4444
4205
3783
3333
2943
2666
2547
2582
2685
2745
2736
2744
2849
2998
3040
2887
2629
2442
2417
2487
2532
2503
2447
2420
2412
2373
2280
2155
2021
1891
1790
1768
1843
1959
2010
1946
1827
1745
1718
1675
1546
1356
1191
1075
942
711
398
111
-84
-253
-532
-970
-1456
-1821
-1978
-1964
-1872
-1771
-1660
-1512
-1323
-1127
-974
-901
-924
-1032
-1221
-1484
-1770
-1978
-2051
-2034
-2047
-2137
-2212
-2165
-2026
-1951
-2048
-2244
-2389
-2444
-2505
-2651
-2827
-2917
-2902
-2878
-2931
-3037
-3110
-3112
-3090
-3108
-3175
-3264
-3335
-3358
-3324
-3266
-3226
-3212
-3175
-3064
-2899
-2770
-2747
-2802
-2841
-2807
-2740
-2721
-2774
-2838
-2830
-2727
-2580
-2455
-2377
-2319
-2241
-2142
-2057
-2025
-2046
-2078
-2080
-2051
-2012
-1967
-1890
-1760
-1594
-1439
-1317
-1213
-1105
-1014
-977
-987
-976
-904
-818
-812
-904
-977
-895
-649
-381
-242
-231
-205
-23
299
600
728
680
594
608
726
830
818
722
661
713
829
908
917
903
912
939
948
931
922
940
951
915
844
802
826
875
868
764
621
548
611
777
952
1068
1130
1204
1339
1516
1655
1685
1607
1501
1450
1470
1495
1469
1416
1412
1493
1603
1664
1667
1671
1719
1781
1792
1733
1669
1673
1767
1909
2032
2060
1940
1686
1379
1094
825
498
88
-312
-578
-685
-685
-574
-237
380
1130
1754
2149
2459
2837
3193
3265
2959
2485
2121
1905
1687
1454
1460
1937
2727
3336
3394
3014
2641
2555
2592
2353
1643
683
-85
-381
-268
-23
128
174
234
372
506
530
446
391
473
631
695
600
531
764
1370
2094
2558
2588
2319
2008
1789
1613
1383
1068
704
371
192
322
834
1566
2166
2350
2134
1790
1545
1366
1040
476
-164
-600
-682
-489
-198
87
350
554
620
509
319
204
248
389
486
482
467
585
861
1149
1269
1171
980
842
748
550
179
-213
-375
-223
62
259
365
590
1088
1750
2302
2564
2579
2498
2406
2289
2111
1892
1675
1478
1321
1222
1188
1217
1314
1503
1762
1961
1977
1892
2010
2578
3460
4158
4215
3638
2851
2264
1902
1482
783
-96
-834
-1162
-1025
-560
42
608
1004
1186
1203
1142
1045
909
688
369
1
-310
-431
-279
90
511
858
1174
1612
2237
2889
3269
3172
2614
1776
834
-140
-1150
-2181
-3111
-3697
-3702
-3074
-2051
-1033
-331
17
172
267
281
91
-359
-947
-1445
-1665
-1548
-1185
-743
-355
-60
169
345
420
370
244
148
132
151
144
129
187
334
477
506
426
356
401
535
646
660
572
397
141
-167
-444
-592
-574
-437
-252
-58
131
275
311
195
-48
-357
-720
-1194
-1816
-2480
-2949
-3037
-2822
-2602
-2629
-2864
-3056
-3035
-2876
-2749
-2687
-2558
-2253
-1816
-1356
-897
-398
94
367
211
-358
-1042
-1510
-1664
-1676
-1751
-1908
-2002
-1933
-1794
-1775
-1947
-2205
-2428
-2606
-2801
-2998
-3076
-2939
-2648
-2388
-2298
-2370
-2496
-2593
-2654
-2709
-2759
-2773
-2718
-2594
-2423
-2222
-2010
-1827
-1715
-1702
-1762
-1821
-1818
-1737
-1617
-1507
-1423
-1350
-1267
-1177
-1117
-1127
-1201
-1250
-1184
-994
-757
-558
-394
-193
93
418
688
867
993
1118
1253
1364
1425
1438
1420
1393
1371
1349
1310
1229
1114
997
898
813
741
703
712
721
681
602
556
579
598
533
418
379
461
530
448
287
270
479
707
701
491
364
512
801
950
867
709
639
641
609
555
579
707
819
803
702
662
747
865
899
856
828
858
888
839
749
733
859
1035
1091
960
782
773
977
1181
1136
859
637
717
986
1103
904
598
502
627
693
534
332
367
630
808
691
442
379
605
895
984
814
545
374
366
444
485
423
301
223
239
287
288
260
294
415
514
492
417
444
608
748
706
516
358
326
327
229
49
-33
111
401
635
705
711
795
963
1066
980
771
623
617
657
587
423
338
452
671
778
649
375
156
99
156
211
185
91
-13
-65
-52
-16
-16
-73
-158
-252
-386
-624
-985
-1387
-1711
-1909
-2053
-2243
-2490
-2701
-2705
-2374
-1742
-1003
-365
108
513
931
1302
1487
1431
1195
826
339
-154
-401
-272
3
3
-393
-793
-728
-240
111
-94
-646
-978
-844
-548
-504
-740
-935
-882
-713
-677
-820
-954
-934
-828
-788
-851
-943
-986
-991
-979
-925
-809
-663
-575
-585
-607
-524
-329
-158
-169
-375
-635
-792
-831
-858
-962
-1101
-1146
-1041
-860
-730
-692
-672
-607
-520
-498
-586
-748
-924
-1104
-1303
-1514
-1691
-1790
-1827
-1845
-1849
-1795
-1651
-1480
-1386
-1392
-1414
-1365
-1281
-1296
-1440
-1563
-1477
-1194
-931
-853
-893
-859
-696
-544
-544
-651
-704
-651
-594
-638
-735
-739
-583
-366
-228
-201
-194
-116
11
94
95
70
90
135
103
-59
-255
-328
-232
-98
-86
-211
-323
-297
-168
-69
-86
-178
-243
-243
-212
-194
-192
-178
-140
-105
-108
-147
-178
-152
-69
14
49
56
106
236
384
457
417
317
228
172
129
87
76
138
267
421
556
666
767
872
946
927
801
626
512
513
582
623
607
607
691
811
840
726
559
465
460
444
333
181
114
207
417
648
827
930
949
894
816
777
782
753
610
374
184
169
325
512
580
494
338
231
230
309
403
460
463
442
458
551
684
762
712
548
374
280
249
190
64
-53
-67
13
59
-40
-259
-490
-686
-910
-1235
-1622
-1953
-2156
-2266
-2315
-2230
-1879
-1250
-514
98
496
767
1020
1230
1259
1018
580
120
-234
-479
-669
-802
-816
-675
-464
-338
-391
-569
-732
-814
-874
-997
-1170
-1291
-1285
-1182
-1055
-921
-758
-603
-557
-686
-918
-1109
-1196
-1255
-1371
-1496
-1507
-1350
-1119
-935
-824
-702
-524
-372
-385
-597
-891
-1100
-1180
-1226
-1330
-1442
-1380
-1016
-412
206
607
711
592
363
62
-351
-932
-1651
-2353
-2827
-2937
-2720
-2363
-2048
-1808
-1564
-1277
-1041
-1010
-1239
-1628
-2015
-2326
-2587
-2805
-2909
-2845
-2701
-2673
-2867
-3182
-3421
-3498
-3498
-3484
-3347
-2898
-2116
-1236
-539
-115
154
366
476
388
121
-186
-423
-578
-675
-677
-498
-121
351
748
915
798
460
37
-372
-801
-1367
-2059
-2589
-2567
-1875
-816
165
894
1568
2426
3391
4117
4350
4178
3910
3768
3736
3697
3646
3699
3948
4337
4705
4925
4972
4899
4796
4759
4887
5205
5579
5790
5736
5561
5519
5675
5804
5616
5094
4556
4355
4556
4934
5238
5418
5567
5746
5911
6021
6111
6211
6259
6165
5955
5779
5749
5814
5850
5835
5865
5983
6077
6051
6003
6120
6361
6366
5804
4759
3654
2793
2060
1140
-43
-1206
-2010
-2384
-2526
-2657
-2871
-3165
-3500
-3805
-4002
-4076
-4130
-4292
-4560
-4780
-4817
-4698
-4578
-4565
-4622
-4642
-4601
-4583
-4656
-4760
-4787
-4706
-4603
-4579
-4620
-4644
-4615
-4602
-4687
-4847
-4971
-5005
-5017
-5103
-5268
-5418
-5487
-5517
-5570
-5612
-5493
-5088
-4440
-3740
-3182
-2832
-2612
-2421
-2252
-2203
-2395
-2816
-3298
-3617
-3679
-3600
-3571
-3659
-3749
-3693
-3494
-3324
-3330
-3480
-3609
-3609
-3530
-3479
-3471
-3437
-3351
-3262
-3231
-3255
-3286
-3316
-3375
-3470
-3547
-3538
-3438
-3305
-3196
-3141
-3144
-3172
-3146
-2982
-2683
-2359
-2121
-1970
-1803
-1562
-1316
-1169
-1131
-1104
-1008
-883
-827
-863
-916
-927
-928
-979
-1068
-1126
-1132
-1142
-1194
-1226
-1145
-961
-793
-741
-779
-799
-751
-708
-759
-886
-988
-1012
-1005
-1033
-1068
-1013
-823
-584
-428
-386
-357
-224
21
281
473
602
726
879
1030
1139
1193
1222
1256
1285
1270
1191
1098
1092
1245
1503
1722
1810
1813
1857
1990
2118
2107
1944
1742
1598
1515
1464
1464
1553
1708
1835
1873
1853
1854
1899
1927
1871
1725
1528
1330
1178
1097
1071
1039
955
856
826
883
934
878
734
620
598
590
502
364
331
501
807
1098
1289
1409
1489
1505
1420
1233
958
591
148
-255
-463
-407
-190
19
165
319
539
756
845
767
618
500
419
330
233
190
250
375
482
515
479
402
306
198
116
106
168
218
174
61
28
187
475
680
642
397
124
-26
-47
-21
11
88
266
527
780
928
936
822
641
427
170
-148
-473
-661
-570
-221
180
396
391
329
383
501
455
100
-433
-856
-994
-935
-870
-870
-858
-772
-693
-744
-888
-915
-647
-136
401
831
1198
1584
1936
2106
2013
1712
1300
826
334
-53
-206
-147
-57
-82
-168
-142
72
371
633
865
1161
1569
2061
2595
3152
3673
4042
4167
4077
3875
3627
3324
2977
2691
2599
2733
2981
3201
3332
3402
3441
3397
3158
2681
2054
1441
932
482
12
-446
-768
-895
-911
-961
-1069
-1133
-1095
-1045
-1120
-1331
-1534
-1600
-1564
-1561
-1655
-1782
-1833
-1789
-1724
-1719
-1789
-1880
-1943
-1985
-2051
-2167
-2296
-2354
-2276
-2090
-1906
-1827
-1857
-1915
-1920
-1878
-1867
-1944
-2078
-2174
-2147
-1986
-1755
-1524
-1327
-1158
-1004
-881
-837
-915
-1107
-1343
-1531
-1629
-1666
-1685
-1694
-1652
-1538
-1388
-1260
-1182
-1147
-1141
-1161
-1182
-1161
-1074
-957
-892
-908
-957
-958
-868
-728
-621
-594
-618
-623
-563
-451
-343
-270
-220
-177
-167
-220
-305
-331
-238
-71
79
181
277
372
367
147
-277
-760
-1172
-1507
-1828
-2127
-2282
-2170
-1816
-1365
-971
-685
-461
-250
-59
69
116
117
145
251
431
658
928
1251
1594
1873
2014
2017
1935
1797
1604
1398
1271
1262
1285
1224
1125
1215
1665
2370
3007
3350
3446
3479
3487
3308
2789
1974
1064
247
-388
-806
-984
-929
-698
-364
30
451
840
1109
1213
1192
1128
1057
980
901
846
836
859
894
935
978
995
942
807
646
557
575
610
517
254
-48
-221
-229
-185
-204
-288
-370
-442
-554
-679
-660
-371
107
533
770
928
1215
1648
2007
2083
1860
1487
1135
877
718
623
534
424
346
394
562
712
701
563
467
479
469
290
18
-98
73
377
536
445
270
227
328
403
352
260
270
385
464
397
249
166
166
130
-18
-196
-257
-191
-145
-215
-311
-279
-132
-53
-181
-417
-556
-550
-569
-798
-1211
-1566
-1668
-1552
-1413
-1408
-1518
-1616
-1619
-1532
-1416
-1348
-1397
-1589
-1844
-1993
-1911
-1653
-1417
-1364
-1464
-1547
-1491
-1342
-1234
-1246
-1353
-1464
-1530
-1552
-1558
-1553
-1541
-1516
-1493
-1513
-1589
-1670
-1667
-1525
-1317
-1206
-1295
-1535
-1762
-1834
-1747
-1628
-1613
-1729
-1886
-1947
-1835
-1603
-1405
-1378
-1517
-1669
-1662
-1442
-1104
-807
-623
-475
-226
175
654
1074
1334
1423
1389
1331
1359
1505
1691
1763
1645
1453
1420
1647
1987
2163
2065
1848
1734
1784
1864
1844
1741
1652
1606
1544
1430
1325
1331
1460
1580
1536
1313
1086
1048
1199
1334
1244
968
759
806
1026
1183
1153
1025
919
858
809
799
883
986
947
727
525
571
838
1023
903
591
402
478
659
703
577
460
493
603
641
602
631
816
1043
1116
1004
877
886
969
949
766
552
435
377
251
27
-176
-254
-268
-335
-468
-554
-517
-433
-436
-565
-742
-870
-935
-966
-977
-975
-986
-1025
-1058
-1028
-959
-985
-1224
-1649
-2086
-2381
-2553
-2728
-2969
-3161
-3102
-2687
-1997
-1208
-482
118
595
959
1201
1297
1199
856
297
-338
-839
-1097
-1183
-1259
-1389
-1461
-1332
-1011
-658
-436
-393
-472
-582
-662
-694
-724
-825
-1027
-1239
-1288
-1121
-897
-804
-865
-922
-821
-591
-370
-268
-312
-454
-621
-719
-682
-569
-527
-640
-815
-879
-782
-609
-460
-383
-389
-475
-576
-541
-306
-46
-51
-349
-597
-460
-62
113
-184
-621
-682
-310
-13
-215
-684
-839
-478
-30
-14
-387
-638
-439
-10
196
46
-196
-267
-184
-102
-9
181
399
467
329
183
251
497
674
622
430
282
233
223
255
398
622
731
574
276
124
256
487
534
361
196
251
485
687
756
795
925
1087
1099
889
600
442
481
605
655
564
414
348
435
589
660
581
428
323
299
279
202
141
238
491
717
732
571
452
515
682
713
478
106
-134
-91
126
262
188
31
7
150
295
294
187
125
161
187
105
-23
-37
109
285
372
394
428
472
434
281
130
99
163
166
13
-195
-247
-71
178
287
207
81
71
192
320
351
307
274
279
294
296
324
408
497
501
408
331
376
521
635
640
578
560
639
733
720
551
284
38
-89
-88
-36
-26
-78
-107
-23
167
348
416
385
351
365
381
304
97
-148
-320
-408
-508
-692
-923
-1081
-1133
-1200
-1416
-1699
-1737
-1262
-366
528
1045
1213
1370
1771
2283
2518
2216
1507
795
393
309
322
248
108
55
147
280
313
258
230
258
220
-10
-332
-481
-335
-58
86
23
-92
-93
2
71
79
97
152
177
127
65
73
96
1
-222
-388
-325
-98
59
28
-47
41
287
473
421
193
3
-37
-9
-67
-265
-501
-633
-615
-521
-460
-469
-489
-434
-297
-163
-128
-201
-310
-390
-455
-546
-654
-728
-729
-676
-602
-519
-416
-302
-205
-155
-156
-188
-220
-220
-177
-118
-93
-116
-140
-93
49
229
349
353
266
179
189
312
465
536
501
470
552
713
825
831
809
841
885
833
719
722
951
1284
1481
1446
1289
1149
1058
977
890
806
704
570
491
635
1012
1373
1429
1131
699
345
51
-318
-757
-1052
-997
-607
-107
327
706
1116
1515
1693
1455
833
106
-430
-703
-881
-1139
-1452
-1613
-1459
-1046
-603
-336
-251
-189
7
334
649
791
747
630
526
433
309
151
-8
-168
-336
-473
-482
-298
12
281
396
380
333
336
429
662
1069
1609
2133
2502
2695
2799
2896
2960
2916
2730
2471
2272
2256
2504
3022
3728
4452
4997
5257
5299
5321
5464
5665
5707
5476
5133
5019
5340
5973
6616
7097
7479
7838
8108
8203
8193
8243
8376
8431
8309
8178
8266
8552
8826
9078
9616
10622
11658
11911
11046
9687
8841
8831
8969
8336
6766
4975
3791
3368
3150
2463
1064
-789
-2648
-4193
-5353
-6230
-6966
-7670
-8341
-8899
-9258
-9387
-9376
-9401
-9623
-10035
-10474
-10747
-10758
-10534
-10143
-9632
-9065
-8555
-8209
-8050
-7997
-7946
-7837
-7659
-7397
-7058
-6702
-6427
-6248
-6061
-5770
-5411
-5113
-4921
-4732
-4419
-3996
-3574
-3211
-2859
-2487
-2161
-1975
-1914
-1861
-1741
-1611
-1573
-1640
-1726
-1748
-1692
-1591
-1476
-1370
-1333
-1402
-1507
-1514
-1367
-1170
-1099
-1203
-1346
-1363
-1247
-1149
-1194
-1360
-1512
-1560
-1520
-1476
-1460
-1430
-1327
-1133
-895
-699
-608
-616
-642
-607
-517
-470
-546
-710
-819
-733
-434
-40
299
517
647
751
854
922
898
761
555
355
228
232
391
677
1006
1285
1474
1597
1706
1816
1909
1964
1981
1960
1912
1892
1996
2256
2569
2756
2729
2590
2514
2558
2609
2542
2382
2249
2210
2233
2262
2280
2308
2321
2274
2181
2124
2150
2202
2191
2107
2032
2047
2146
2257
2311
2282
2182
2059
1970
1937
1917
1840
1688
1535
1465
1506
1612
1717
1786
1806
1775
1715
1664
1638
1605
1522
1406
1339
1364
1454
1541
1573
1557
1519
1475
1424
1359
1270
1152
1036
988
1041
1141
1186
1146
1109
1181
1339
1435
1349
1123
917
838
854
867
834
808
856
975
1105
1183
1206
1200
1177
1116
994
819
645
530
466
374
202
-8
-175
-282
-397
-591
-823
-990
-1063
-1106
-1122
-943
-393
442
1209
1613
1722
1857
2180
2497
2486
2077
1519
1096
881
772
695
680
750
848
901
900
909
966
1029
1004
851
612
399
315
346
363
272
122
45
86
126
41
-113
-153
-23
101
17
-243
-444
-437
-332
-318
-399
-398
-217
17
105
47
24
168
379
444
296
84
-1
70
165
154
40
-63
-85
-45
-11
-20
-50
-68
-77
-112
-187
-263
-272
-165
48
314
592
898
1278
1750
2265
2737
3104
3352
3508
3599
3647
3670
3660
3594
3477
3387
3436
3658
3957
4200
4355
4502
4683
4800
4695
4331
3837
3364
2940
2496
2018
1602
1357
1286
1295
1302
1300
1310
1302
1209
1006
748
518
358
254
158
62
-24
-102
-182
-264
-349
-439
-537
-619
-633
-551
-418
-333
-348
-424
-488
-521
-572
-673
-776
-794
-693
-517
-342
-222
-183
-230
-343
-483
-620
-769
-964
-1194
-1386
-1475
-1477
-1467
-1512
-1598
-1672
-1713
-1742
-1786
-1850
-1913
-1944
-1925
-1857
-1767
-1693
-1652
-1621
-1571
-1510
-1476
-1468
-1414
-1255
-1036
-893
-914
-1046
-1180
-1272
-1333
-1353
-1281
-1132
-1022
-1032
-1053
-878
-459
12
309
435
572
808
998
943
641
272
-37
-335
-710
-1101
-1329
-1276
-1004
-667
-368
-117
123
381
664
951
1192
1331
1362
1359
1427
1593
1792
1952
2077
2228
2416
2551
2533
2387
2204
2277
2382
2453
2420
2310
2155
1943
1702
1573
1694
2020
2313
2383
2291
2271
2457
2715
2790
2562
2145
1751
1500
1368
1276
1196
1140
1112
1101
1107
1152
1250
1358
1392
1313
1176
1051
941
807
657
580
645
794
887
889
955
1258
1760
2208
2343
2120
1708
1322
1046
801
453
-45
-571
-912
-919
-637
-275
-42
14
4
57
186
284
238
39
-211
-392
-451
-416
-351
-298
-258
-228
-233
-309
-444
-575
-671
-758
-892
-1082
-1253
-1341
-1382
-1483
-1670
-1830
-1825
-1659
-1491
-1451
-1514
-1532
-1416
-1231
-1115
-1112
-1149
-1137
-1077
-1036
-1053
-1095
-1104
-1058
-984
-909
-842
-773
-681
-536
-335
-150
-90
-183
-308
-290
-95
103
104
-85
-240
-181
37
193
182
117
158
296
358
241
53
-13
84
179
96
-144
-341
-343
-204
-119
-220
-438
-625
-707
-737
-793
-863
-857
-724
-539
-416
-382
-328
-123
215
489
509
301
113
182
492
783
838
719
665
828
1113
1317
1353
1305
1290
1312
1306
1268
1263
1333
1433
1485
1471
1459
1502
1570
1601
1609
1664
1784
1892
1870
1724
1595
1610
1734
1807
1718
1514
1349
1334
1459
1634
1759
1764
1656
1503
1426
1502
1679
1805
1748
1537
1338
1291
1383
1462
1394
1217
1075
1070
1148
1207
1221
1258
1379
1546
1632
1575
1438
1338
1310
1282
1162
939
728
689
867
1094
1121
862
528
387
422
325
-131
-775
-1199
-1225
-1096
-1126
-1264
-1126
-487
412
1104
1391
1457
1595
1860
2050
1975
1607
1071
554
208
97
134
145
12
-223
-392
-396
-268
-98
45
74
-98
-450
-749
-732
-430
-217
-419
-922
-1278
-1175
-772
-495
-565
-823
-976
-919
-766
-667
-688
-833
-1039
-1189
-1166
-969
-729
-611
-651
-763
-855
-910
-937
-942
-937
-956
-1014
-1045
-973
-824
-728
-769
-900
-1030
-1139
-1251
-1365
-1436
-1468
-1557
-1714
-1767
-1552
-1160
-927
-1063
-1379
-1496
-1289
-1033
-1048
-1336
-1606
-1636
-1467
-1276
-1151
-1059
-977
-943
-968
-949
-778
-509
-341
-391
-544
-553
-344
-139
-197
-469
-588
-304
160
324
56
-233
-93
411
753
596
200
39
213
404
353
194
204
384
470
328
140
156
338
402
195
-93
-171
-12
167
184
88
61
145
186
74
-93
-127
-18
43
-67
-229
-221
-21
154
129
19
82
326
488
360
56
-106
-2
185
223
108
7
56
212
367
459
497
478
396
255
53
-184
-346
-305
-62
190
209
-11
-196
-70
304
557
430
26
-297
-301
-39
265
436
447
344
205
127
180
335
469
465
334
224
266
459
671
775
751
687
643
590
513
468
525
661
750
709
610
588
674
760
737
609
436
258
109
64
194
441
578
414
67
-119
80
478
658
415
-32
-308
-298
-228
-338
-605
-831
-927
-1030
-1246
-1389
-1138
-406
475
1026
1123
1095
1332
1849
2251
2152
1560
851
378
207
194
247
376
549
630
566
495
599
831
883
537
-43
-473
-560
-445
-335
-250
-112
39
69
-18
-39
88
174
-12
-397
-615
-447
-85
109
23
-101
-36
159
255
177
64
22
-34
-207
-423
-473
-310
-140
-179
-403
-572
-530
-401
-412
-613
-827
-880
-806
-770
-851
-963
-978
-891
-799
-774
-795
-806
-789
-769
-768
-799
-869
-984
-1118
-1218
-1242
-1201
-1146
-1104
-1037
-880
-634
-402
-297
-323
-370
-338
-275
-300
-421
-460
-237
200
577
668
511
354
374
497
521
352
101
-40
9
175
324
367
313
246
266
414
618
727
658
487
374
372
363
203
-107
-418
-581
-604
-586
-556
-434
-128
330
788
1082
1133
967
691
439
309
294
289
199
49
-30
54
233
340
268
43
-227
-453
-582
-581
-444
-256
-190
-340
-572
-622
-379
-32
140
61
-61
14
313
674
955
1129
1191
1098
847
547
329
202
68
-104
-201
-108
130
343
420
418
452
521
536
450
329
267
276
298
309
397
655
1039
1370
1477
1347
1120
948
849
722
498
225
20
-62
-48
0
47
80
80
40
12
79
296
636
1008
1298
1435
1414
1299
1195
1157
1141
1075
964
902
992
1232
1522
1806
2154
2603
3019
3147
2916
2619
2711
3375
4304
5036
5401
5688
6246
7056
7751
8006
7849
7572
7400
7376
7498
7852
8536
9511
10580
11504
12101
12271
11984
11285
10268
8975
7410
5679
4097
3010
2457
2114
1651
1033
435
-109
-818
-1896
-3264
-4624
-5800
-6812
-7705
-8389
-8749
-8852
-8913
-9057
-9236
-9368
-9465
-9594
-9764
-9894
-9918
-9827
-9625
-9304
-8912
-8572
-8398
-8382
-8388
-8283
-8039
-7744
-7496
-7338
-7226
-7068
-6799
-6449
-6110
-5833
-5565
-5216
-4791
-4382
-4051
-3755
-3415
-3036
-2708
-2495
-2354
-2189
-1970
-1756
-1605
-1491
-1357
-1181
-1000
-857
-756
-674
-597
-532
-483
-458
-429
-353
-208
-23
156
309
470
676
916
1123
1251
1311
1320
1261
1112
895
682
525
425
368
367
411
431
369
269
257
391
559
563
345
52
-108
-92
-38
-76
-188
-243
-180
-72
-18
-16
20
134
246
227
66
-83
-59
113
245
192
26
-42
93
312
430
414
401
502
650
680
556
429
455
619
743
685
514
420
502
668
749
703
635
654
719
706
583
476
522
702
854
873
813
800
858
886
792
606
441
363
356
375
416
511
679
905
1138
1307
1344
1248
1090
964
908
857
727
532
395
412
553
700
762
757
760
789
790
727
643
614
668
758
814
809
773
749
745
719
616
428
240
156
168
140
-36
-280
-410
-388
-414
-698
-1171
-1553
-1685
-1687
-1721
-1677
-1259
-388
605
1303
1637
1868
2193
2476
2420
1941
1266
693
342
176
150
257
470
703
865
928
934
914
844
663
331
-96
-475
-654
-594
-414
-280
-275
-331
-309
-141
120
357
480
486
464
519
671
816
818
637
380
187
113
106
105
94
69
14
-65
-95
7
194
269
79
-285
-552
-568
-480
-559
-870
-1180
-1227
-1023
-818
-808
-918
-932
-766
-559
-507
-662
-910
-1105
-1185
-1180
-1167
-1180
-1192
-1145
-1002
-782
-542
-347
-245
-247
-317
-382
-384
-338
-318
-372
-462
-493
-424
-316
-253
-242
-223
-177
-165
-260
-439
-588
-608
-491
-291
-55
215
540
934
1392
1879
2343
2727
2999
3161
3242
3263
3242
3216
3223
3275
3336
3364
3381
3457
3619
3801
3915
3945
3965
4036
4125
4156
4121
4105
4175
4277
4299
4210
4078
3965
3830
3577
3188
2753
2348
1940
1448
896
448
262
302
365
294
130
29
64
135
81
-129
-368
-496
-498
-476
-511
-571
-569
-486
-408
-446
-602
-764
-814
-733
-617
-564
-561
-518
-383
-211
-99
-86
-123
-139
-114
-70
-32
-3
18
20
-2
-42
-108
-222
-388
-562
-684
-744
-789
-858
-923
-928
-869
-809
-812
-862
-891
-873
-849
-859
-888
-901
-904
-950
-1068
-1207
-1292
-1313
-1326
-1379
-1446
-1453
-1360
-1190
-1003
-870
-847
-959
-1165
-1382
-1579
-1811
-2140
-2528
-2855
-3048
-3152
-3198
-3071
-2577
-1703
-700
132
725
1236
1783
2261
2445
2255
1819
1324
880
522
282
196
249
411
674
1051
1492
1870
2087
2161
2176
2163
2076
1882
1644
1459
1360
1312
1296
1347
1487
1666
1796
1836
1827
1823
1823
1782
1665
1474
1253
1072
996
1039
1158
1291
1414
1523
1587
1551
1405
1228
1111
1040
902
621
270
4
-104
-120
-158
-254
-377
-475
-512
-490
-445
-453
-562
-705
-725
-539
-273
-160
-285
-480
-512
-347
-183
-215
-430
-654
-741
-702
-633
-609
-625
-629
-578
-472
-352
-258
-197
-145
-79
-6
57
117
170
196
165
113
136
268
423
480
425
374
430
574
707
788
853
945
1052
1129
1165
1181
1201
1233
1280
1328
1331
1247
1113
1047
1127
1285
1352
1221
948
681
505
378
205
-42
-309
-513
-613
-617
-546
-440
-348
-310
-328
-359
-362
-332
-322
-380
-499
-620
-666
-607
-480
-381
-407
-555
-701
-707
-564
-436
-498
-732
-936
-946
-791
-647
-622
-659
-646
-572
-523
-550
-603
-606
-589
-660
-856
-1061
-1105
-958
-772
-717
-794
-843
-745
-565
-477
-541
-625
-571
-415
-322
-361
-378
-185
184
504
635
684
861
1214
1582
1803
1895
1972
2077
2170
2228
2290
2391
2473
2441
2303
2169
2140
2191
2213
2140
2017
1943
1953
1968
1896
1745
1625
1611
1641
1568
1305
915
517
187
-82
-313
-524
-742
-954
-1044
-814
-171
707
1484
1989
2299
2598
2927
3126
3022
2618
2063
1537
1156
924
787
677
594
610
777
1014
1122
979
688
493
497
557
458
164
-123
-184
22
346
597
683
617
466
322
259
296
348
254
-53
-455
-719
-660
-349
-96
-149
-442
-643
-508
-164
21
-147
-476
-646
-594
-540
-689
-965
-1161
-1187
-1127
-1085
-1072
-1076
-1112
-1159
-1110
-926
-781
-916
-1279
-1522
-1407
-1132
-1091
-1391
-1700
-1676
-1370
-1138
-1159
-1264
-1247
-1133
-1083
-1107
-1052
-870
-730
-804
-990
-1027
-850
-665
-706
-916
-1011
-825
-493
-285
-313
-444
-476
-346
-157
-42
-43
-90
-66
87
301
409
316
114
36
197
451
522
325
86
94
351
558
489
269
212
439
716
757
559
364
347
415
378
219
95
128
251
312
264
201
255
465
747
945
941
771
601
595
748
870
781
514
292
285
447
604
633
570
509
489
516
615
800
989
1027
841
571
452
563
720
682
432
189
166
314
404
310
150
137
313
514
572
513
501
598
669
562
321
186
286
456
456
264
135
270
554
698
593
427
406
483
463
293
181
319
602
736
609
420
465
760
1034
994
633
238
99
260
502
552
351
94
41
272
604
775
688
479
369
414
516
504
266
-152
-563
-772
-725
-615
-710
-1028
-1232
-974
-277
467
920
1133
1408
1835
2160
2132
1847
1599
1468
1245
788
291
82
210
400
416
292
221
283
402
522
639
686
513
133
-174
-149
140
345
226
-86
-259
-160
43
144
104
40
45
123
250
382
437
327
73
-161
-205
-105
-89
-315
-649
-802
-651
-376
-236
-285
-324
-179
77
209
119
-56
-135
-133
-203
-423
-675
-774
-693
-577
-576
-708
-863
-905
-801
-639
-569
-656
-773
-749
-604
-577
-848
-1277
-1469
-1241
-855
-735
-963
-1171
-989
-484
-80
-60
-277
-378
-233
-46
-51
-218
-311
-198
4
103
55
8
95
277
422
455
424
436
511
575
548
430
291
185
100
-5
-134
-237
-257
-193
-113
-86
-114
-148
-162
-172
-205
-255
-294
-311
-318
-317
-292
-231
-143
-42
74
203
320
399
449
497
535
522
452
393
425
528
598
577
543
606
744
814
711
504
356
339
360
296
157
70
126
288
442
508
481
396
280
146
30
-36
-55
-56
-45
12
146
330
475
518
480
432
418
412
390
402
530
763
960
1001
936
942
1118
1349
1416
1238
965
825
891
1006
956
695
388
240
260
264
101
-148
-215
84
645
1153
1351
1226
948
653
337
-102
-735
-1507
-2221
-2654
-2676
-2329
-1781
-1212
-721
-324
10
275
426
352
-62
-780
-1502
-1825
-1567
-954
-404
-94
172
646
1269
1717
1770
1520
1201
908
567
161
-168
-295
-293
-346
-492
-525
-252
204
494
404
76
-162
-168
-99
-160
-343
-424
-282
-56
29
-64
-138
56
552
1123
1493
1561
1452
1378
1424
1484
1397
1168
1021
1194
1701
2312
2782
3053
3227
3383
3501
3548
3542
3502
3390
3183
2990
2987
3227
3566
3808
3920
4011
4160
4326
4370
4253
4129
4184
4442
4746
4954
5133
5460
5934
6310
6430
6533
7048
7996
8803
8869
8246
7540
7137
6760
5942
4770
3849
3542
3526
3230
2528
1768
1167
461
-752
-2469
-4274
-5797
-6988
-7978
-8769
-9283
-9546
-9685
-9792
-9895
-10061
-10439
-11089
-11820
-12306
-12371
-12112
-11705
-11182
-10446
-9484
-8477
-7660
-7127
-6802
-6573
-6384
-6198
-5947
-5588
-5181
-4853
-4657
-4502
-4254
-3868
-3442
-3121
-2954
-2880
-2783
-2574
-2245
-1880
-1590
-1412
-1292
-1153
-988
-855
-812
-839
-853
-792
-668
-538
-445
-405
-404
-412
-382
-283
-136
-15
6
-74
-183
-252
-285
-351
-480
-615
-682
-673
-642
-630
-592
-472
-320
-277
-418
-642
-772
-748
-687
-721
-834
-885
-790
-613
-473
-420
-433
-487
-573
-649
-650
-558
-445
-398
-415
-400
-292
-158
-113
-192
-308
-361
-336
-289
-255
-183
-12
238
458
567
591
626
712
800
833
822
819
827
796
734
718
771
800
680
415
120
-145
-431
-733
-842
-529
143
802
1168
1377
1797
2524
3179
3296
2822
2152
1691
1475
1273
942
603
461
546
704
787
792
800
835
836
738
561
392
291
265
259
221
136
20
-92
-181
-258
-352
-441
-459
-364
-227
-177
-274
-434
-524
-519
-525
-639
-825
-952
-941
-828
-707
-631
-579
-506
-391
-246
-125
-96
-188
-357
-502
-553
-552
-609
-775
-981
-1110
-1130
-1140
-1241
-1409
-1499
-1409
-1229
-1170
-1343
-1619
-1757
-1658
-1478
-1454
-1654
-1918
-2039
-1972
-1843
-1788
-1823
-1869
-1876
-1872
-1896
-1922
-1869
-1695
-1463
-1297
-1272
-1337
-1356
-1250
-1102
-1075
-1242
-1494
-1637
-1580
-1394
-1222
-1134
-1083
-1005
-900
-813
-770
-749
-721
-686
-660
-634
-587
-522
-472
-460
-464
-431
-347
-269
-258
-298
-301
-211
-76
3
-23
-122
-246
-388
-557
-704
-755
-699
-606
-539
-481
-374
-228
-138
-176
-311
-471
-630
-812
-1016
-1180
-1251
-1239
-1193
-1145
-1086
-1016
-953
-907
-879
-864
-873
-917
-970
-979
-922
-830
-754
-709
-655
-544
-380
-237
-207
-290
-376
-334
-139
90
206
194
168
237
381
485
474
383
290
232
203
216
319
523
772
989
1163
1353
1591
1809
1905
1857
1755
1703
1706
1676
1555
1389
1276
1257
1268
1230
1111
956
817
711
613
488
351
266
277
336
333
218
77
45
121
141
-35
-350
-620
-767
-887
-1070
-1219
-1140
-796
-378
-93
64
261
566
831
840
548
109
-283
-542
-705
-826
-913
-935
-871
-748
-610
-498
-423
-385
-394
-469
-600
-729
-796
-794
-770
-779
-817
-835
-802
-729
-669
-653
-662
-643
-572
-485
-461
-537
-653
-696
-612
-439
-258
-107
29
172
291
319
227
46
-160
-357
-545
-717
-835
-844
-724
-517
-308
-163
-85
-46
-30
-66
-170
-290
-378
-432
-499
-595
-664
-635
-495
-293
-79
105
205
179
83
78
299
670
937
898
621
372
348
488
548
377
59
-182
-206
-74
69
192
418
850
1396
1795
1868
1689
1475
1348
1195
849
307
-233
-554
-588
-416
-164
68
236
339
399
434
441
424
419
463
540
592
593
593
659
769
811
700
469
226
48
-77
-193
-281
-265
-105
137
334
403
385
413
564
771
881
826
704
681
791
882
790
565
445
565
767
783
567
402
555
944
1215
1150
909
776
800
769
543
258
125
140
123
16
-15
185
498
645
519
302
221
285
313
191
-1
-100
-60
33
81
66
22
-25
-65
-85
-94
-131
-241
-386
-452
-357
-139
44
67
-39
-119
-56
92
177
137
60
63
141
184
133
83
189
425
558
405
73
-129
-45
126
60
-320
-754
-942
-882
-815
-928
-1172
-1374
-1416
-1297
-1035
-619
-71
508
1006
1376
1641
1843
1957
1888
1552
990
389
-46
-283
-488
-804
-1147
-1252
-980
-517
-230
-274
-446
-425
-114
263
416
278
50
7
228
520
613
413
78
-116
-30
233
454
507
425
337
326
376
442
508
567
600
579
499
414
407
483
551
501
333
165
116
169
210
165
51
-49
-73
-16
80
151
134
35
-49
-11
119
157
-40
-369
-556
-475
-312
-346
-611
-860
-865
-675
-499
-428
-370
-225
-79
-92
-258
-375
-283
-44
117
55
-159
-348
-379
-214
65
302
355
223
96
189
505
810
881
721
525
472
594
816
1033
1110
931
579
375
594
1090
1347
1029
423
149
468
977
1067
643
206
221
617
942
927
733
663
762
846
792
669
613
628
614
509
355
231
176
159
120
49
5
69
230
368
315
51
-210
-212
82
422
490
264
37
86
363
555
443
136
-108
-195
-240
-355
-475
-431
-191
85
217
202
203
325
503
559
397
79
-244
-439
-465
-392
-350
-416
-535
-517
-242
128
269
60
-237
-200
229
622
524
15
-350
-172
335
609
392
-3
-76
262
621
625
311
41
74
293
385
192
-116
-260
-156
13
35
-86
-187
-209
-264
-443
-668
-812
-939
-1273
-1844
-2314
-2297
-1777
-1115
-602
-181
384
1151
1899
2371
2498
2369
2046
1552
983
503
222
82
-59
-239
-344
-255
24
378
691
893
915
720
420
223
234
302
166
-243
-669
-764
-493
-164
-81
-223
-313
-208
-63
-118
-409
-715
-834
-776
-702
-690
-671
-587
-494
-493
-547
-498
-297
-121
-195
-493
-718
-628
-321
-104
-137
-280
-285
-116
30
-31
-260
-507
-682
-797
-888
-958
-991
-994
-980
-949
-895
-821
-742
-680
-664
-682
-690
-660
-614
-618
-671
-703
-657
-513
-346
-221
-177
-239
-399
-550
-502
-172
264
492
418
286
361
591
707
578
354
259
326
427
494
572
681
750
768
811
927
1002
878
616
477
585
760
722
463
299
461
825
1038
917
630
480
565
696
666
462
278
265
369
436
393
317
335
487
665
728
619
397
210
188
324
423
315
62
-61
143
528
747
646
407
319
453
641
720
680
573
421
272
255
459
774
932
774
427
184
199
367
463
384
178
-14
-49
117
385
569
552
410
337
437
580
563
374
205
225
385
481
405
259
232
374
541
537
321
53
-51
87
342
517
516
409
329
328
358
349
271
129
-48
-203
-256
-167
-2
119
140
97
2
-212
-582
-987
-1244
-1331
-1453
-1772
-2108
-2047
-1384
-383
471
955
1239
1584
1998
2256
2208
1925
1575
1219
824
416
129
70
182
321
403
455
530
613
652
643
626
611
556
434
296
226
237
278
315
405
604
837
943
846
652
532
507
416
119
-327
-703
-843
-772
-635
-515
-401
-274
-173
-145
-176
-207
-210
-194
-150
-34
202
537
880
1139
1235
1093
682
118
-358
-599
-723
-981
-1410
-1717
-1609
-1186
-899
-1073
-1535
-1838
-1777
-1571
-1523
-1648
-1710
-1560
-1313
-1149
-1066
-932
-716
-541
-500
-536
-527
-444
-347
-262
-162
-45
9
-28
-47
112
452
810
1056
1240
1480
1742
1827
1570
1020
373
-208
-685
-1058
-1278
-1282
-1047
-613
-69
470
908
1212
1400
1489
1484
1423
1403
1496
1639
1686
1645
1784
2393
3427
4493
5199
5483
5555
5602
5619
5503
5203
4727
4120
3486
3019
2876
3030
3267
3398
3425
3465
3580
3714
3798
3814
3835
3916
4029
4104
4101
4098
4238
4531
4753
4648
4297
4168
4623
5392
5734
5233
4296
3693
3625
3480
2629
1244
120
-245
-149
-185
-467
-600
-349
-31
-138
-735
-1410
-1813
-2061
-2528
-3325
-4201
-4818
-5070
-5093
-5054
-5013
-4960
-4873
-4748
-4582
-4388
-4191
-4006
-3844
-3736
-3724
-3784
-3786
-3604
-3261
-2922
-2701
-2519
-2209
-1743
-1303
-1073
-1040
-1009
-858
-696
-733
-1024
-1386
-1602
-1670
-1763
-1947
-2004
-1630
-793
171
890
1318
1711
2254
2792
2992
2718
2158
1605
1190
862
566
327
182
125
126
186
283
346
290
129
-52
-197
-353
-574
-817
-972
-1018
-1054
-1185
-1393
-1559
-1624
-1641
-1690
-1765
-1790
-1744
-1712
-1776
-1903
-1968
-1915
-1839
-1885
-2056
-2191
-2130
-1906
-1712
-1687
-1781
-1831
-1762
-1644
-1596
-1641
-1719
-1786
-1856
-1934
-1968
-1905
-1771
-1664
-1642
-1660
-1622
-1492
-1340
-1259
-1279
-1346
-1389
-1366
-1302
-1253
-1263
-1306
-1303
-1194
-1000
-813
-706
-669
-623
-517
-378
-278
-252
-253
-199
-40
201
439
586
616
586
591
675
795
870
870
837
858
971
1148
1313
1408
1424
1395
1367
1361
1355
1323
1268
1232
1262
1373
1525
1656
1721
1724
1715
1737
1763
1727
1605
1456
1361
1339
1331
1297
1264
1265
1248
1130
949
874
1031
1328
1518
1466
1294
1217
1284
1338
1223
962
693
505
367
241
156
166
250
329
368
410
498
596
635
605
551
507
457
396
366
415
517
590
598
594
634
710
770
795
797
771
689
550
416
338
282
174
27
-41
56
243
345
286
172
160
274
363
284
64
-131
-189
-164
-194
-335
-502
-585
-590
-623
-742
-871
-892
-783
-639
-563
-553
-530
-424
-252
-98
-45
-134
-335
-559
-732
-865
-1031
-1262
-1500
-1668
-1758
-1791
-1706
-1366
-721
54
688
1082
1402
1836
2329
2606
2472
2011
1485
1069
748
462
239
145
162
194
188
211
338
520
611
518
321
204
251
356
349
185
-11
-101
-108
-191
-453
-794
-988
-929
-737
-617
-635
-677
-609
-448
-325
-319
-378
-419
-450
-539
-702
-857
-909
-854
-785
-780
-816
-813
-724
-575
-450
-415
-482
-603
-704
-736
-701
-627
-538
-412
-204
108
482
832
1085
1234
1319
1374
1399
1382
1327
1264
1216
1188
1171
1170
1195
1238
1262
1234
1160
1094
1092
1150
1218
1256
1261
1262
1269
1261
1226
1176
1136
1102
1045
963
905
927
1023
1113
1118
1044
990
1033
1140
1193
1121
981
891
886
884
786
606
446
365
319
238
131
63
57
50
-11
-95
-131
-111
-103
-156
-243
-314
-362
-403
-441
-454
-442
-437
-457
-487
-517
-552
-607
-666
-707
-746
-804
-859
-856
-778
-693
-669
-694
-692
-639
-589
-601
-658
-701
-719
-749
-800
-815
-743
-626
-557
-564
-589
-568
-515
-488
-496
-480
-402
-293
-215
-176
-125
-33
54
59
-26
-120
-132
-65
14
60
109
224
400
561
644
673
718
790
836
808
726
666
679
745
816
860
878
896
934
1002
1092
1182
1276
1431
1706
2056
2312
2315
2078
1769
1514
1250
839
292
-196
-444
-498
-539
-593
-442
117
968
1728
2118
2250
2442
2816
3147
3133
2737
2221
1843
1643
1489
1300
1136
1068
1064
1040
997
1020
1156
1314
1338
1188
983
859
824
783
673
540
458
434
419
401
414
476
536
537
483
445
459
497
493
418
284
137
22
-43
-87
-167
-315
-498
-631
-650
-570
-441
-295
-124
78
276
405
436
416
414
430
402
270
59
-131
-199
-129
-16
22
-57
-194
-287
-287
-230
-194
-234
-341
-461
-522
-487
-387
-303
-310
-393
-456
-410
-274
-144
-116
-185
-270
-294
-226
-82
79
188
226
246
328
465
530
412
169
5
81
307
436
365
261
364
698
1019
1076
885
675
608
624
568
413
306
370
538
631
578
482
481
575
629
545
356
196
180
311
484
594
609
594
627
696
712
631
530
530
627
672
552
358
304
475
720
806
666
469
399
459
524
519
497
526
566
540
479
502
638
729
603
320
145
252
502
609
479
326
401
683
899
827
540
301
277
392
448
371
293
396
694
1017
1179
1174
1129
1134
1139
1035
821
654
677
872
1081
1172
1159
1144
1215
1352
1451
1403
1185
926
829
984
1244
1349
1196
979
971
1185
1330
1150
720
349
200
119
-114
-475
-752
-846
-881
-965
-973
-647
47
836
1413
1761
2074
2453
2753
2764
2464
2014
1581
1207
861
559
373
344
418
495
514
492
480
496
506
455
326
165
46
24
125
310
482
545
483
364
291
310
379
394
299
132
-27
-112
-135
-135
-122
-80
-47
-127
-347
-508
-376
15
285
82
-478
-880
-762
-330
-102
-330
-779
-1050
-1018
-888
-850
-907
-964
-990
-1019
-1055
-1039
-986
-1013
-1235
-1603
-1897
-1920
-1674
-1378
-1274
-1381
-1486
-1366
-1035
-741
-713
-968
-1297
-1475
-1444
-1291
-1143
-1084
-1099
-1082
-941
-693
-457
-345
-358
-389
-431
-569
-822
-1057
-1110
-980
-850
-870
-979
-1003
-858
-654
-525
-465
-382
-268
-258
-492
-906
-1243
-1293
-1091
-869
-797
-813
-733
-510
-284
-162
-75
68
164
-22
-514
-948
-896
-410
-22
-178
-719
-1063
-881
-421
-142
-176
-289
-274
-203
-222
-296
-266
-126
-55
-209
-506
-739
-814
-796
-768
-733
-689
-696
-804
-935
-944
-802
-658
-655
-745
-799
-793
-807
-876
-876
-706
-465
-370
-470
-548
-428
-204
-128
-275
-461
-508
-487
-593
-849
-1015
-907
-663
-591
-781
-978
-870
-485
-197
-278
-589
-737
-544
-260
-261
-567
-788
-602
-156
75
-174
-645
-881
-740
-504
-483
-666
-815
-794
-704
-670
-674
-693
-838
-1247
-1858
-2352
-2502
-2425
-2390
-2427
-2268
-1683
-806
3
582
1050
1515
1815
1690
1172
609
291
151
-88
-482
-781
-758
-481
-225
-152
-164
-87
113
313
376
279
99
-49
-73
7
60
-14
-166
-225
-92
157
362
454
471
434
329
180
83
94
131
77
-55
-136
-98
-39
-72
-150
-123
33
129
-4
-278
-440
-356
-134
15
17
-56
-133
-223
-345
-433
-402
-290
-272
-463
-764
-920
-773
-432
-170
-184
-438
-730
-868
-817
-678
-591
-634
-759
-859
-855
-750
-613
-510
-456
-441
-458
-497
-527
-511
-459
-407
-383
-374
-348
-308
-280
-266
-221
-116
11
84
101
138
255
411
493
454
369
341
367
361
281
200
216
327
443
501
534
581
608
553
428
321
275
232
115
-45
-117
-30
138
228
174
54
1
62
163
184
62
-147
-310
-328
-218
-92
-49
-82
-94
-18
99
151
105
41
45
105
131
71
-15
-28
52
153
218
273
370
505
619
670
678
678
659
574
408
212
67
25
114
329
633
958
1227
1391
1434
1355
1148
819
392
-82
-526
-847
-964
-872
-682
-521
-396
-218
43
263
290
179
158
369
664
776
654
533
655
977
1226
1202
962
714
573
471
290
19
-228
-351
-402
-547
-861
-1193
-1306
-1148
-911
-771
-606
-125
714
1572
2077
2247
2432
2812
3115
2962
2366
1744
1421
1286
1006
521
129
98
339
516
458
321
333
506
624
518
275
140
249
515
746
833
821
835
958
1183
1438
1628
1720
1801
2009
2379
2780
3036
3123
3195
3383
3647
3849
3934
3961
3981
3952
3819
3640
3533
3536
3551
3475
3333
3243
3280
3410
3554
3638
3601
3422
3162
2956
2876
2852
2766
2607
2489
2483
2479
2297
1943
1627
1512
1517
1414
1102
753
618
770
1052
1273
1393
1498
1649
1776
1742
1469
1008
469
-103
-757
-1542
-2396
-3151
-3676
-3998
-4276
-4623
-4978
-5175
-5146
-4986
-4861
-4849
-4893
-4875
-4717
-4451
-4190
-4022
-3929
-3797
-3535
-3220
-3044
-3084
-3180
-3086
-2748
-2366
-2148
-2053
-1879
-1558
-1279
-1244
-1381
-1404
-1156
-798
-603
-638
-685
-522
-201
3
-109
-444
-740
-842
-833
-899
-1087
-1253
-1228
-1000
-723
-552
-504
-506
-514
-561
-712
-959
-1220
-1412
-1533
-1641
-1794
-1979
-2101
-2068
-1911
-1771
-1764
-1856
-1892
-1776
-1583
-1464
-1476
-1537
-1570
-1597
-1663
-1712
-1636
-1446
-1303
-1338
-1470
-1499
-1341
-1130
-1068
-1205
-1398
-1493
-1467
-1399
-1352
-1309
-1230
-1133
-1080
-1105
-1163
-1175
-1132
-1115
-1203
-1361
-1442
-1348
-1146
-990
-936
-888
-741
-539
-412
-396
-404
-364
-327
-394
-571
-764
-910
-1050
-1232
-1401
-1473
-1459
-1436
-1402
-1209
-714
30
785
1353
1744
2096
2465
2735
2742
2469
2074
1734
1492
1266
996
745
649
743
909
996
989
1028
1223
1504
1671
1607
1392
1191
1079
993
842
616
388
225
151
164
250
391
547
677
753
776
775
784
799
776
672
533
476
562
681
644
400
115
-15
9
6
-135
-305
-324
-173
-12
26
-28
-56
-23
9
-12
-60
-91
-103
-135
-215
-323
-423
-464
-401
-228
-10
173
284
328
309
192
-62
-431
-823
-1147
-1375
-1531
-1617
-1585
-1380
-1028
-645
-353
-184
-63
92
251
293
142
-119
-291
-256
-85
54
83
89
212
472
754
929
976
979
1023
1097
1118
1046
920
807
721
622
499
425
502
728
970
1083
1064
1048
1144
1304
1378
1282
1077
865
670
447
196
1
-59
-14
39
70
141
291
437
444
279
64
-52
-51
-18
-15
6
133
378
658
882
1017
1091
1122
1101
1042
989
971
966
936
905
958
1146
1404
1599
1685
1759
1950
2259
2537
2632
2532
2336
2125
1890
1605
1290
1008
804
682
644
714
900
1152
1368
1458
1400
1237
1041
859
691
512
307
100
-57
-117
-80
14
114
173
166
102
26
7
71
167
207
141
35
20
147
299
290
72
-197
-332
-358
-482
-817
-1183
-1293
-1090
-821
-723
-708
-463
146
879
1371
1515
1531
1667
1918
2071
1979
1710
1465
1377
1418
1486
1498
1456
1413
1399
1401
1367
1257
1101
996
1019
1162
1341
1493
1632
1811
2009
2106
1988
1687
1359
1129
980
825
660
614
820
1250
1728
2063
2184
2156
2062
1934
1747
1476
1144
826
598
487
465
502
588
703
815
903
973
1030
1041
979
897
901
987
979
730
406
435
1097
2141
2951
3112
2768
2373
2145
1879
1244
190
-1006
-1998
-2591
-2764
-2595
-2218
-1776
-1363
-986
-646
-410
-366
-484
-609
-645
-630
-652
-693
-643
-464
-251
-126
-107
-142
-182
-218
-230
-162
1
198
367
504
601
587
392
88
-113
-61
165
318
238
-12
-236
-288
-177
-35
-1
-127
-329
-445
-375
-161
45
123
86
30
41
132
260
356
372
297
181
116
150
250
336
336
262
216
289
445
544
474
303
221
345
568
676
610
533
638
887
1041
949
730
612
662
742
705
589
520
526
529
497
517
641
759
706
499
373
500
769
899
781
602
585
699
715
522
286
233
374
516
515
452
488
650
812
868
842
817
801
732
593
487
545
747
903
846
622
456
528
773
948
869
600
363
315
411
510
530
476
356
151
-119
-332
-381
-343
-455
-845
-1324
-1491
-1101
-300
486
922
1019
1048
1263
1643
1917
1800
1258
569
78
-82
-37
19
7
-19
5
66
132
213
325
420
406
284
169
159
241
334
406
498
638
767
798
728
655
675
785
874
823
615
380
295
419
605
659
549
454
542
737
791
603
355
287
376
379
144
-168
-256
-34
275
382
240
51
31
182
363
415
283
54
-106
-105
-10
26
-44
-128
-113
-26
15
-10
22
173
309
251
42
-79
16
161
143
26
84
384
619
502
191
152
557
990
900
285
-236
-116
515
1002
946
609
532
881
1296
1369
1092
793
720
791
791
689
653
811
1102
1337
1402
1329
1238
1223
1292
1358
1305
1068
734
519
595
900
1166
1152
882
638
683
985
1257
1263
1043
817
737
759
748
669
591
577
601
622
658
774
964
1112
1093
903
695
650
781
913
860
681
652
942
1373
1569
1374
1046
945
1123
1297
1211
903
589
413
373
446
589
681
579
328
220
471
904
1112
976
811
957
1309
1458
1245
960
923
1044
970
638
416
625
1071
1244
957
584
576
900
1100
868
377
46
58
230
291
204
115
111
138
111
36
-38
-117
-280
-552
-841
-1055
-1208
-1389
-1618
-1776
-1719
-1445
-1064
-662
-212
313
834
1219
1425
1505
1495
1349
1021
587
160
-164
-322
-308
-192
-122
-190
-314
-298
-106
48
-26
-232
-292
-142
-25
-155
-379
-362
-39
256
211
-98
-332
-326
-238
-261
-373
-415
-327
-202
-107
12
197
385
482
470
416
347
232
68
-85
-171
-200
-196
-138
7
204
348
358
258
140
79
82
80
-6
-183
-304
-186
181
533
553
223
-118
-126
146
314
134
-216
-370
-219
-17
-22
-165
-179
32
271
308
155
36
117
318
419
346
232
226
314
356
295
255
376
635
844
869
750
645
678
824
959
967
838
670
625
796
1080
1239
1113
799
568
580
717
741
571
376
375
594
832
882
761
665
725
829
774
519
247
157
215
230
103
-20
51
307
551
623
574
559
646
775
853
812
638
397
241
275
443
561
511
375
301
300
257
119
0
51
242
371
300
106
-17
35
197
317
284
113
-76
-143
-47
108
169
117
93
210
363
343
119
-81
-5
309
572
573
430
410
611
851
893
703
445
272
191
136
91
118
241
383
418
317
178
137
239
387
427
294
76
-66
-33
127
274
305
210
65
-73
-228
-462
-796
-1166
-1474
-1674
-1803
-1892
-1854
-1479
-638
506
1536
2092
2198
2246
2585
3124
3381
2980
2091
1298
1026
1136
1116
658
-55
-623
-870
-952
-1084
-1250
-1261
-1047
-742
-523
-431
-354
-201
-16
73
11
-136
-260
-282
-207
-88
31
133
182
121
-61
-280
-405
-343
-122
159
420
640
822
930
885
639
227
-226
-582
-755
-732
-544
-262
36
278
423
489
488
376
92
-347
-811
-1139
-1262
-1251
-1216
-1184
-1117
-1007
-897
-823
-770
-700
-588
-497
-485
-541
-553
-381
32
599
1140
1548
1873
2264
2759
3207
3395
3255
2942
2688
2621
2697
2782
2788
2756
2828
3117
3569
3956
4090
4026
3988
4131
4376
4540
4582
4646
4881
5265
5618
5780
5733
5596
5512
5553
5658
5665
5458
5098
4794
4699
4743
4682
4377
3974
3793
4002
4427
4699
4578
4107
3472
2737
1775
472
-1048
-2485
-3636
-4520
-5299
-6036
-6618
-6922
-7000
-7063
-7298
-7724
-8221
-8681
-9089
-9439
-9623
-9480
-8965
-8241
-7563
-7050
-6611
-6109
-5551
-5117
-4988
-5177
-5505
-5709
-5605
-5194
-4660
-4206
-3853
-3421
-2773
-2029
-1488
-1332
-1436
-1547
-1568
-1597
-1694
-1729
-1539
-1145
-734
-445
-233
24
353
661
855
942
984
1022
1073
1142
1215
1255
1235
1169
1084
990
874
754
671
626
561
418
239
125
96
23
-216
-579
-882
-1024
-1119
-1345
-1701
-1992
-2090
-2139
-2375
-2779
-3011
-2742
-2047
-1338
-927
-721
-402
135
641
805
601
273
29
-136
-320
-513
-602
-549
-463
-455
-485
-438
-309
-240
-339
-544
-694
-726
-735
-818
-929
-933
-794
-632
-569
-580
-542
-393
-207
-77
0
73
120
53
-127
-273
-234
-27
171
229
196
204
290
344
247
-1
-279
-468
-514
-460
-382
-325
-272
-173
-17
127
184
163
152
208
275
263
182
140
195
254
194
35
-53
46
233
303
181
17
5
155
290
248
65
-84
-93
-25
6
-8
30
172
332
377
298
229
271
361
359
229
92
89
226
394
496
521
503
471
444
445
482
519
525
543
673
960
1315
1578
1660
1620
1581
1591
1583
1456
1202
932
775
766
819
833
773
676
580
495
414
326
213
49
-147
-292
-304
-198
-80
-43
-62
-53
10
58
22
-69
-121
-81
9
67
63
38
44
66
22
-141
-358
-491
-463
-347
-262
-236
-193
-79
30
4
-167
-346
-411
-406
-463
-632
-801
-829
-708
-563
-499
-498
-462
-360
-261
-250
-317
-349
-256
-87
5
-61
-197
-244
-144
-2
43
-1
-3
132
367
592
747
825
816
699
491
261
64
-101
-246
-340
-342
-282
-239
-228
-179
-55
40
-54
-347
-693
-984
-1268
-1639
-2051
-2362
-2521
-2611
-2638
-2380
-1611
-443
696
1467
1963
2524
3266
3904
4074
3750
3243
2854
2632
2456
2254
2090
2038
2081
2146
2196
2241
2288
2324
2341
2349
2363
2383
2409
2462
2549
2634
2644
2538
2353
2176
2065
1989
1871
1697
1550
1523
1602
1654
1555
1321
1097
997
973
871
597
224
-93
-290
-442
-649
-908
-1114
-1183
-1144
-1106
-1138
-1214
-1262
-1254
-1220
-1213
-1256
-1327
-1394
-1441
-1469
-1486
-1502
-1518
-1515
-1474
-1393
-1295
-1201
-1110
-1003
-880
-775
-738
-803
-961
-1163
-1339
-1442
-1491
-1548
-1642
-1705
-1620
-1348
-986
-686
-523
-453
-405
-373
-404
-511
-655
-795
-923
-1035
-1099
-1072
-965
-842
-763
-728
-705
-668
-635
-638
-676
-710
-696
-637
-580
-562
-562
-508
-369
-213
-143
-154
-119
56
299
439
406
319
327
409
419
323
290
493
886
1249
1451
1560
1681
1768
1690
1451
1221
1124
1077
929
693
560
646
818
832
611
310
112
35
-42
-175
-272
-223
-36
191
391
577
769
913
908
732
490
314
249
256
280
322
418
583
785
966
1088
1132
1103
1026
957
972
1083
1203
1207
1045
816
693
760
935
1054
1024
902
803
772
761
706
592
446
294
169
119
176
288
358
344
319
383
533
643
614
486
372
314
248
111
-96
-339
-611
-876
-1049
-1099
-1135
-1312
-1565
-1550
-976
9
873
1231
1244
1384
1840
2279
2239
1667
957
525
433
444
363
227
193
321
507
617
620
603
651
738
736
564
282
45
-51
-51
-66
-152
-291
-469
-695
-942
-1109
-1092
-930
-801
-862
-1086
-1269
-1220
-954
-672
-567
-647
-756
-754
-635
-501
-437
-450
-504
-577
-634
-622
-499
-297
-126
-74
-130
-201
-210
-159
-93
-67
-125
-281
-489
-667
-770
-839
-951
-1095
-1169
-1123
-1057
-1115
-1294
-1408
-1288
-1015
-825
-842
-928
-860
-585
-259
-53
44
137
237
264
186
118
209
425
545
413
141
13
173
468
609
475
231
131
271
536
753
841
824
776
753
775
813
781
625
412
291
343
494
593
569
471
421
471
611
786
901
867
703
566
617
819
939
800
494
299
359
533
586
470
338
323
394
446
441
424
389
283
112
-9
58
307
583
713
669
564
544
639
747
727
557
359
257
242
210
114
44
112
312
494
522
432
353
365
457
563
614
559
350
18
-247
-198
188
634
776
537
245
276
635
932
812
322
-158
-337
-259
-136
-59
56
249
409
400
249
92
-6
-95
-216
-294
-290
-302
-431
-558
-433
-5
427
463
18
-607
-1070
-1325
-1564
-1891
-2179
-2261
-2180
-2088
-1938
-1476
-606
334
813
672
362
446
925
1216
846
10
-630
-685
-413
-343
-649
-1013
-1090
-883
-675
-659
-781
-878
-862
-756
-624
-549
-595
-762
-917
-923
-811
-777
-973
-1280
-1429
-1313
-1086
-978
-1054
-1180
-1201
-1119
-1037
-1016
-1064
-1197
-1392
-1527
-1447
-1159
-881
-834
-958
-969
-726
-431
-394
-617
-806
-730
-523
-535
-910
-1398
-1591
-1357
-937
-681
-743
-992
-1184
-1175
-1052
-1036
-1267
-1640
-1906
-1948
-1871
-1878
-2016
-2091
-1888
-1452
-1105
-1132
-1461
-1690
-1462
-881
-473
-675
-1370
-1938
-1896
-1366
-922
-981
-1383
-1656
-1570
-1310
-1137
-1070
-997
-912
-918
-1015
-1050
-931
-818
-916
-1161
-1241
-998
-676
-606
-777
-852
-602
-201
0
-106
-310
-342
-150
88
155
-40
-404
-729
-816
-645
-414
-339
-428
-500
-419
-276
-258
-397
-526
-537
-519
-620
-814
-930
-856
-665
-509
-458
-487
-538
-560
-502
-362
-237
-303
-599
-904
-876
-433
75
194
-145
-528
-504
-91
211
-18
-629
-1073
-995
-577
-283
-312
-442
-371
-100
95
32
-164
-244
-132
-24
-129
-387
-547
-453
-221
-133
-273
-430
-378
-146
2
-93
-251
-190
104
319
186
-183
-423
-357
-165
-128
-290
-417
-327
-113
-3
-94
-259
-338
-349
-459
-739
-1041
-1145
-1028
-892
-898
-988
-1014
-987
-1099
-1375
-1514
-1178
-432
252
503
492
698
1290
1890
1993
1536
919
512
320
113
-206
-506
-642
-624
-553
-482
-387
-259
-140
-94
-156
-333
-575
-780
-848
-771
-673
-678
-773
-836
-780
-655
-571
-563
-575
-557
-538
-574
-659
-715
-697
-638
-610
-640
-687
-709
-713
-751
-862
-1024
-1174
-1255
-1262
-1238
-1202
-1144
-1047
-927
-829
-781
-755
-721
-690
-697
-737
-775
-812
-898
-1050
-1183
-1153
-904
-555
-295
-202
-194
-155
-68
-36
-147
-385
-673
-950
-1189
-1370
-1460
-1463
-1423
-1406
-1418
-1407
-1332
-1201
-1063
-970
-931
-911
-853
-713
-472
-158
172
465
693
834
882
905
1020
1256
1450
1341
819
95
-467
-722
-887
-1278
-1917
-2422
-2359
-1687
-804
-197
-13
-5
148
479
721
601
145
-363
-642
-671
-627
-657
-722
-697
-556
-395
-300
-229
-76
184
441
588
673
842
1148
1436
1473
1175
704
316
131
56
-58
-245
-381
-333
-117
122
262
301
324
356
324
159
-76
-210
-119
145
417
623
823
1076
1328
1461
1448
1362
1241
1011
624
231
124
457
1077
1668
2052
2319
2639
3011
3278
3294
3070
2738
2434
2241
2200
2303
2484
2655
2791
2945
3153
3352
3444
3409
3344
3350
3408
3440
3431
3423
3408
3301
3075
2844
2747
2750
2653
2325
1881
1580
1522
1569
1586
1651
1960
2532
3138
3555
3821
4169
4712
5238
5351
4805
3714
2455
1386
634
95
-398
-889
-1241
-1245
-807
-67
648
1030
974
596
80
-476
-1093
-1796
-2540
-3212
-3707
-4010
-4162
-4187
-4099
-3933
-3767
-3685
-3731
-3865
-3997
-4050
-4010
-3904
-3775
-3641
-3496
-3334
-3155
-2971
-2806
-2667
-2549
-2442
-2354
-2327
-2402
-2562
-2706
-2721
-2613
-2518
-2549
-2654
-2666
-2505
-2302
-2250
-2370
-2480
-2423
-2255
-2153
-2193
-2276
-2283
-2226
-2205
-2266
-2367
-2474
-2575
-2647
-2647
-2569
-2501
-2518
-2561
-2503
-2325
-2167
-2156
-2235
-2259
-2203
-2177
-2253
-2333
-2290
-2169
-2127
-2213
-2291
-2220
-2028
-1889
-1908
-1999
-2009
-1892
-1736
-1649
-1662
-1728
-1791
-1826
-1828
-1800
-1749
-1673
-1579
-1479
-1401
-1353
-1319
-1266
-1182
-1101
-1087
-1165
-1270
-1291
-1184
-1009
-887
-866
-881
-841
-717
-566
-447
-372
-310
-232
-144
-74
-30
-7
2
15
51
118
202
274
315
339
396
533
724
879
922
882
877
994
1180
1297
1271
1163
1114
1197
1342
1415
1354
1233
1194
1290
1423
1432
1273
1083
1031
1133
1248
1241
1138
1063
1066
1066
995
895
836
791
677
494
368
406
552
673
739
847
1033
1167
1118
960
907
1029
1138
1023
748
597
731
995
1130
1084
1040
1133
1264
1235
999
687
419
180
-104
-426
-691
-826
-842
-741
-460
65
780
1506
2060
2395
2590
2734
2809
2710
2374
1870
1370
1044
945
997
1084
1134
1134
1096
1047
1002
948
831
609
307
49
-39
64
250
391
474
583
740
841
778
590
444
441
496
461
323
216
236
313
322
268
266
372
494
527
508
567
717
802
678
423
249
264
337
272
55
-135
-142
-12
72
31
-43
-19
85
126
9
-198
-349
-398
-439
-574
-788
-964
-1016
-966
-886
-807
-720
-614
-499
-388
-286
-203
-165
-174
-191
-195
-194
-178
-98
96
372
629
835
1083
1463
1877
2085
1972
1700
1531
1515
1441
1133
704
454
545
839
1098
1231
1321
1455
1612
1732
1789
1790
1715
1541
1317
1153
1122
1180
1225
1223
1220
1268
1356
1434
1472
1508
1598
1757
1939
2061
2065
1959
1797
1630
1457
1261
1058
907
848
841
818
769
768
871
1040
1174
1205
1155
1087
1023
937
810
663
538
458
426
444
513
626
744
816
816
758
685
643
635
631
603
555
535
582
683
777
810
779
721
670
624
550
443
372
460
793
1319
1839
2140
2159
2021
1904
1873
1835
1677
1401
1144
1056
1169
1381
1532
1511
1315
1029
764
577
451
332
202
119
155
325
554
732
815
831
782
597
221
-282
-738
-1009
-1115
-1156
-1116
-823
-153
767
1614
2172
2539
2961
3492
3875
3817
3326
2711
2256
1980
1721
1407
1128
972
888
762
592
468
410
301
36
-314
-577
-686
-745
-879
-1088
-1272
-1385
-1493
-1654
-1802
-1815
-1663
-1438
-1265
-1174
-1107
-1020
-956
-988
-1116
-1253
-1316
-1322
-1343
-1397
-1416
-1333
-1180
-1056
-1024
-1051
-1060
-1023
-978
-966
-1002
-1084
-1199
-1309
-1366
-1350
-1289
-1234
-1240
-1331
-1486
-1627
-1666
-1607
-1588
-1738
-1999
-2151
-2050
-1791
-1598
-1572
-1602
-1551
-1420
-1301
-1217
-1091
-893
-694
-570
-472
-285
10
324
574
775
989
1217
1382
1413
1330
1215
1132
1076
1003
883
735
642
696
904
1155
1336
1461
1658
1995
2335
2432
2186
1758
1416
1262
1150
884
453
80
-8
182
416
479
392
353
505
773
952
954
877
873
940
957
831
625
472
430
456
476
451
388
327
315
378
487
553
517
427
386
447
536
558
503
458
530
733
988
1210
1345
1405
1433
1459
1481
1485
1470
1438
1386
1311
1238
1201
1193
1173
1132
1148
1301
1558
1767
1813
1766
1789
1934
2078
2077
1944
1827
1835
1940
2050
2131
2201
2261
2257
2145
1972
1859
1909
2072
2156
2005
1676
1416
1428
1656
1840
1804
1622
1491
1472
1448
1327
1190
1162
1207
1156
933
637
428
350
315
240
99
-96
-274
-274
79
774
1545
2092
2366
2592
2958
3372
3553
3361
2921
2447
2035
1651
1293
1060
1038
1185
1356
1451
1494
1543
1618
1654
1604
1491
1384
1317
1280
1262
1284
1351
1416
1415
1335
1234
1174
1159
1149
1147
1183
1244
1275
1249
1203
1191
1212
1216
1175
1086
959
819
718
724
811
849
735
527
412
494
673
743
617
410
301
349
449
465
363
170
71
58
7
-74
-121
-90
-17
25
15
-1
18
53
54
22
4
19
16
-46
-127
-160
-123
-39
34
66
57
37
72
194
342
396
315
227
309
565
780
733
451
200
201
403
543
451
236
168
372
678
804
655
423
365
515
657
583
350
218
350
625
775
674
473
403
504
603
520
280
77
54
144
166
77
26
157
388
501
402
233
192
297
418
479
536
634
674
529
276
149
233
328
182
-169
-421
-353
-89
58
-36
-191
-164
62
285
346
282
235
257
282
254
218
233
298
330
278
203
218
330
403
309
115
51
239
502
537
287
47
133
497
764
681
424
368
626
908
918
712
598
722
901
881
681
577
750
1045
1133
879
487
286
392
642
763
618
289
-12
-119
-24
123
118
-142
-553
-898
-1032
-991
-903
-794
-552
-91
499
1028
1404
1712
2044
2308
2281
1867
1247
749
544
512
407
143
-118
-159
57
326
434
362
276
306
402
431
359
279
279
320
304
211
130
118
130
92
29
48
201
412
554
590
587
605
609
538
387
231
132
95
70
24
-16
13
154
360
504
480
328
203
210
276
224
-8
-265
-345
-219
-41
45
34
-2
-31
-81
-146
-178
-176
-219
-345
-455
-408
-206
-12
13
-110
-232
-253
-221
-232
-308
-382
-393
-351
-310
-293
-285
-272
-269
-294
-333
-330
-247
-117
-19
21
68
182
312
330
190
28
29
205
365
341
201
175
385
703
890
859
736
673
689
703
660
603
568
518
403
245
135
107
74
-56
-242
-320
-181
82
264
262
165
125
179
220
139
-60
-269
-385
-371
-232
2
273
512
684
804
899
954
912
742
492
256
105
42
24
22
40
124
336
673
1046
1339
1513
1613
1657
1564
1232
678
85
-378
-698
-960
-1130
-997
-370
658
1685
2292
2334
1979
1494
1010
479
-205
-1032
-1817
-2242
-2068
-1336
-390
353
727
872
1008
1178
1262
1261
1367
1708
2103
2194
1883
1479
1347
1450
1341
693
-299
-1083
-1278
-998
-682
-662
-902
-1135
-1168
-1071
-1070
-1219
-1276
-939
-220
521
959
1190
1578
2210
2684
2541
1845
1153
922
1072
1213
1172
1140
1315
1600
1739
1646
1477
1385
1347
1252
1107
1041
1147
1379
1611
1768
1865
1982
2168
2389
2553
2582
2506
2483
2632
2913
3137
3135
2910
2638
2476
2429
2374
2207
1973
1827
1878
2070
2246
2303
2290
2309
2365
2348
2185
1959
1835
1848
1882
1811
1643
1495
1452
1486
1497
1393
1150
845
626
571
544
278
-304
-928
-1191
-988
-627
-449
-439
-308
111
623
919
921
783
619
350
-102
-618
-977
-1119
-1203
-1403
-1712
-1976
-2086
-2086
-2064
-2053
-2016
-1912
-1745
-1548
-1344
-1129
-902
-694
-568
-552
-596
-589
-468
-285
-135
-43
56
219
400
488
424
273
166
175
262
323
302
255
282
401
503
470
325
217
234
274
158
-122
-369
-419
-367
-463
-816
-1268
-1594
-1753
-1898
-2155
-2512
-2886
-3239
-3572
-3827
-3906
-3781
-3559
-3390
-3310
-3237
-3083
-2862
-2686
-2667
-2815
-3035
-3191
-3201
-3084
-2942
-2867
-2865
-2857
-2776
-2638
-2533
-2535
-2617
-2676
-2626
-2492
-2379
-2349
-2353
-2279
-2092
-1878
-1750
-1721
-1697
-1589
-1404
-1224
-1106
-1040
-1009
-1040
-1181
-1433
-1727
-1969
-2114
-2171
-2174
-2127
-1997
-1759
-1445
-1137
-904
-757
-669
-616
-585
-579
-587
-606
-645
-708
-775
-816
-822
-817
-817
-817
-804
-780
-703
-466
22
707
1384
1874
2179
2420
2657
2807
2753
2499
2154
1824
1546
1336
1232
1254
1356
1461
1533
1597
1679
1763
1814
1777
1601
1299
1021
1003
1361
1902
2244
2158
1794
1495
1422
1399
1159
675
178
-95
-127
-45
69
231
438
602
621
511
404
413
529
639
641
541
441
460
637
879
1039
1019
851
644
489
408
383
408
485
585
647
634
572
516
475
384
183
-110
-400
-584
-642
-633
-615
-587
-495
-296
-12
267
447
492
459
435
451
452
366
211
96
109
222
299
250
138
75
89
97
15
-127
-220
-212
-154
-119
-106
-54
55
158
191
193
299
604
1032
1367
1426
1212
883
582
295
-79
-575
-1074
-1413
-1545
-1535
-1445
-1254
-929
-551
-271
-157
-143
-132
-148
-309
-638
-979
-1128
-1026
-793
-564
-351
-92
219
509
714
851
956
1012
967
832
695
628
598
514
349
187
144
248
407
507
489
374
239
147
108
83
42
1
16
109
229
318
362
401
470
539
551
493
416
361
308
222
119
79
152
279
349
339
342
459
656
787
765
671
650
729
790
728
610
600
744
905
931
819
698
651
619
502
315
174
153
175
135
49
29
117
184
61
-242
-512
-583
-550
-665
-1001
-1283
-1130
-474
345
922
1178
1357
1681
2089
2334
2262
1933
1508
1114
810
637
605
654
705
758
893
1109
1274
1249
1067
880
738
513
119
-272
-359
-78
253
265
-52
-354
-357
-143
-9
-75
-166
-71
209
498
681
799
928
1052
1095
1038
940
870
837
794
707
596
506
476
492
482
385
220
69
-15
-77
-218
-461
-721
-896
-990
-1088
-1251
-1434
-1539
-1512
-1374
-1172
-934
-657
-342
-22
238
371
348
205
13
-180
-386
-638
-920
-1143
-1218
-1142
-991
-851
-743
-630
-492
-361
-285
-262
-230
-138
-5
92
105
75
79
142
205
187
64
-115
-272
-354
-359
-303
-187
1
251
507
702
822
937
1109
1297
1375
1259
981
628
236
-193
-582
-785
-746
-600
-533
-544
-440
-91
359
613
545
308
136
92
82
33
-9
27
118
176
166
158
239
410
575
643
624
613
686
812
894
892
857
843
800
650
459
459
801
1327
1683
1676
1443
1229
1061
747
168
-526
-1087
-1435
-1667
-1841
-1862
-1625
-1210
-838
-628
-498
-301
-20
222
323
302
269
316
452
610
691
618
437
335
489
873
1244
1364
1234
1059
1002
1006
901
614
226
-155
-488
-748
-851
-721
-456
-296
-378
-581
-681
-648
-710
-1033
-1457
-1666
-1599
-1553
-1766
-2008
-1759
-845
257
894
945
918
1296
1945
2290
2005
1360
847
634
497
238
-30
-69
145
401
515
520
558
643
663
559
401
326
399
574
777
949
1047
1033
914
779
725
759
775
673
483
342
354
470
532
435
223
26
-62
-41
31
117
219
340
471
594
701
788
842
824
716
567
457
447
510
568
582
585
625
684
685
578
402
250
169
129
76
10
-14
33
102
120
75
41
105
256
385
402
343
365
590
955
1265
1358
1266
1149
1119
1136
1077
899
676
506
421
387
374
383
412
442
463
499
584
722
871
974
1012
1011
1012
1048
1116
1190
1223
1178
1064
936
859
868
931
983
973
892
787
718
713
738
725
641
529
464
488
571
631
612
524
430
377
378
406
419
392
326
259
220
200
152
48
-70
-122
-81
-7
8
-46
-87
-35
83
165
168
152
175
212
196
134
123
223
361
420
397
406
523
678
740
694
659
725
845
907
882
845
856
904
946
977
1018
1049
1026
965
952
1045
1183
1253
1219
1177
1232
1336
1326
1132
883
785
893
1025
980
796
735
972
1345
1513
1324
988
836
938
1054
924
575
252
115
81
-28
-263
-503
-632
-674
-723
-777
-669
-235
474
1188
1653
1861
2019
2279
2534
2520
2116
1489
939
627
495
417
337
271
232
204
192
234
323
396
407
390
403
447
470
439
387
374
407
431
394
307
229
222
309
458
603
690
708
693
663
605
502
368
258
211
226
275
330
392
465
529
566
549
467
355
262
205
154
80
-14
-99
-158
-195
-216
-209
-177
-131
-71
17
94
57
-150
-411
-502
-344
-145
-180
-453
-687
-648
-422
-301
-415
-609
-665
-561
-446
-425
-480
-535
-555
-534
-455
-333
-245
-262
-321
-282
-121
14
-17
-159
-211
-88
66
60
-102
-231
-194
-73
-48
-160
-267
-239
-109
-22
-71
-224
-385
-480
-475
-385
-287
-277
-381
-494
-485
-361
-267
-300
-371
-314
-116
33
-25
-191
-232
-69
115
100
-91
-226
-161
16
113
70
-22
-79
-106
-126
-97
8
116
120
26
-29
55
209
294
271
228
234
244
185
79
25
55
84
20
-98
-132
-20
122
137
16
-67
47
297
450
370
158
43
126
280
319
205
55
7
95
257
413
504
497
403
300
274
339
416
413
298
115
-37
-65
58
233
298
185
25
6
134
220
126
-67
-166
-138
-150
-338
-621
-819
-886
-939
-1082
-1295
-1493
-1624
-1626
-1357
-741
68
755
1142
1368
1686
2138
2484
2465
2073
1529
1047
716
531
464
474
474
395
268
198
250
357
402
315
144
1
-35
27
115
170
179
155
104
14
-109
-218
-259
-214
-118
-41
-25
-63
-115
-152
-171
-180
-188
-200
-210
-210
-196
-176
-177
-217
-290
-380
-474
-556
-606
-599
-544
-492
-503
-570
-621
-591
-504
-446
-469
-524
-512
-395
-230
-108
-72
-98
-150
-222
-319
-427
-512
-562
-578
-542
-402
-125
241
575
765
773
641
412
111
-248
-630
-993
-1303
-1524
-1609
-1525
-1301
-1035
-823
-668
-494
-268
-62
20
-26
-93
-82
-4
42
-1
-60
-33
69
131
95
44
100
280
435
424
278
174
261
508
746
847
864
1005
1466
2216
2948
3270
3013
2360
1668
1147
713
161
-539
-1180
-1501
-1404
-1011
-541
-171
50
189
301
357
273
29
-223
-243
80
555
884
975
1036
1327
1828
2227
2230
1856
1354
945
664
464
333
281
242
110
-116
-283
-252
-69
102
184
274
522
961
1513
2073
2549
2804
2688
2163
1375
552
-172
-792
-1337
-1756
-1949
-1865
-1519
-974
-335
263
722
1011
1176
1237
1154
914
628
465
490
620
720
758
819
981
1233
1503
1751
1991
2270
2619
3030
3443
3786
4038
4255
4516
4801
5002
5129
5371
5889
6541
6974
7025
6946
7113
7548
7916
8019
8093
8456
8974
9125
8620
7768
7097
6706
6248
5475
4595
3971
3635
3283
2707
2026
1422
812
-55
-1280
-2667
-3925
-4925
-5730
-6444
-7107
-7709
-8200
-8528
-8720
-8926
-9287
-9750
-10066
-10034
-9714
-9359
-9120
-8891
-8471
-7851
-7280
-7033
-7155
-7432
-7589
-7497
-7217
-6893
-6626
-6423
-6217
-5946
-5614
-5277
-5000
-4788
-4603
-4417
-4248
-4125
-4039
-3932
-3754
-3542
-3382
-3326
-3331
-3291
-3138
-2901
-2663
-2478
-2341
-2226
-2124
-2034
-1931
-1776
-1573
-1394
-1304
-1299
-1306
-1282
-1268
-1332
-1475
-1610
-1664
-1654
-1637
-1610
-1519
-1355
-1209
-1173
-1212
-1202
-1090
-982
-1009
-1156
-1267
-1233
-1111
-1037
-1056
-1086
-1060
-1009
-1013
-1087
-1168
-1210
-1231
-1266
-1308
-1331
-1341
-1384
-1488
-1610
-1680
-1677
-1652
-1660
-1707
-1748
-1738
-1684
-1644
-1667
-1739
-1809
-1842
-1856
-1896
-1968
-2026
-2016
-1927
-1796
-1663
-1548
-1438
-1318
-1190
-1077
-1007
-980
-950
-873
-763
-686
-673
-664
-589
-478
-451
-578
-769
-861
-802
-703
-694
-779
-864
-869
-788
-658
-513
-406
-400
-490
-563
-510
-370
-304
-402
-560
-607
-520
-442
-474
-533
-452
-205
47
137
65
-30
-51
-46
-146
-422
-809
-1162
-1368
-1430
-1434
-1441
-1429
-1326
-1124
-919
-812
-807
-838
-883
-1014
-1287
-1645
-1972
-2227
-2485
-2812
-3159
-3420
-3561
-3606
-3526
-3207
-2599
-1839
-1162
-675
-296
82
412
529
337
-84
-561
-972
-1286
-1512
-1664
-1756
-1817
-1850
-1830
-1758
-1697
-1732
-1881
-2073
-2228
-2334
-2440
-2569
-2682
-2720
-2668
-2558
-2430
-2298
-2170
-2065
-2003
-1975
-1965
-1999
-2129
-2358
-2602
-2755
-2796
-2781
-2747
-2679
-2568
-2461
-2410
-2383
-2321
-2243
-2250
-2373
-2462
-2346
-2059
-1840
-1863
-2045
-2174
-2189
-2226
-2420
-2718
-2966
-3097
-3161
-3203
-3183
-3065
-2913
-2837
-2871
-2938
-2954
-2927
-2925
-2982
-3056
-3083
-3041
-2944
-2832
-2748
-2695
-2643
-2555
-2428
-2311
-2256
-2264
-2289
-2279
-2226
-2153
-2066
-1939
-1736
-1437
-1036
-555
-45
426
803
1081
1286
1436
1516
1498
1398
1284
1230
1255
1325
1390
1428
1455
1503
1582
1681
1759
1758
1648
1469
1307
1223
1190
1129
996
836
725
690
674
607
503
436
455
510
488
322
67
-157
-279
-354
-487
-705
-919
-1021
-997
-938
-937
-1009
-1112
-1209
-1285
-1333
-1351
-1366
-1412
-1474
-1495
-1450
-1391
-1369
-1363
-1306
-1194
-1121
-1158
-1252
-1283
-1211
-1108
-1054
-1043
-1025
-981
-936
-915
-933
-1019
-1196
-1417
-1573
-1610
-1602
-1658
-1770
-1796
-1640
-1388
-1235
-1271
-1404
-1476
-1423
-1322
-1301
-1417
-1617
-1782
-1811
-1697
-1556
-1524
-1635
-1776
-1809
-1723
-1628
-1632
-1711
-1751
-1694
-1600
-1552
-1562
-1572
-1546
-1518
-1547
-1648
-1820
-2058
-2332
-2507
-2383
-1871
-1120
-427
32
336
674
1080
1350
1243
735
42
-567
-969
-1186
-1271
-1236
-1074
-811
-508
-224
2
141
174
109
-15
-154
-266
-318
-290
-197
-88
-17
14
25
26
5
-39
-58
-2
111
201
225
230
267
320
328
293
299
405
563
701
817
959
1084
1034
691
146
-377
-767
-1129
-1623
-2248
-2814
-3116
-3072
-2760
-2346
-1989
-1773
-1648
-1472
-1173
-863
-730
-860
-1128
-1334
-1377
-1313
-1249
-1220
-1173
-1062
-928
-858
-887
-931
-871
-693
-520
-473
-532
-579
-566
-577
-655
-687
-512
-167
79
23
-238
-413
-341
-170
-140
-319
-565
-697
-647
-451
-178
68
178
121
7
-10
96
179
95
-127
-320
-365
-309
-262
-233
-137
56
241
297
238
214
324
509
641
670
660
654
617
506
354
239
174
90
-57
-214
-284
-240
-141
-46
33
120
218
302
359
400
427
427
372
261
130
47
66
156
213
160
57
73
269
481
487
289
142
266
555
708
598
430
494
795
1054
1041
828
681
757
962
1101
1097
1032
1023
1108
1237
1326
1318
1194
1000
815
712
694
674
585
471
442
545
687
749
744
792
926
1038
1004
886
875
1037
1212
1195
1019
921
1000
1052
834
380
-14
-142
-145
-312
-702
-1054
-1099
-847
-519
-224
145
716
1394
1925
2164
2233
2346
2553
2658
2446
1926
1345
984
911
918
751
383
52
34
336
678
758
529
251
195
370
560
554
333
80
-1
120
285
306
162
11
14
146
236
200
158
270
454
464
209
-55
-43
197
344
197
-70
-153
-28
65
-16
-106
13
261
345
177
-9
35
248
323
135
-119
-197
-102
-17
-47
-112
-134
-168
-303
-493
-598
-599
-615
-734
-823
-703
-397
-145
-107
-177
-119
133
358
334
106
-74
-62
5
-71
-258
-336
-212
-83
-162
-384
-439
-180
164
244
10
-194
-45
364
629
494
132
-70
42
281
360
240
138
262
583
844
821
546
258
127
124
70
-125
-342
-410
-292
-104
34
132
243
352
390
367
388
475
475
218
-212
-503
-411
-30
286
294
97
20
256
664
918
812
453
146
87
187
204
55
-57
97
432
624
538
448
701
1214
1486
1167
510
81
122
323
294
38
-92
106
472
713
760
772
857
930
861
665
486
427
451
452
377
290
287
387
508
530
417
265
203
268
351
304
107
-88
-130
-30
48
-43
-243
-339
-223
-33
53
14
37
218
410
393
151
-111
-245
-333
-543
-862
-1110
-1191
-1215
-1334
-1555
-1753
-1796
-1598
-1113
-382
402
985
1311
1581
2018
2528
2758
2485
1861
1245
846
611
411
235
160
167
180
150
134
202
336
414
339
155
5
11
159
320
389
387
391
414
378
255
142
141
218
235
154
68
49
36
-49
-157
-175
-119
-147
-312
-419
-259
72
232
49
-235
-251
36
297
225
-110
-385
-399
-246
-132
-161
-293
-441
-548
-580
-532
-460
-444
-511
-603
-629
-567
-465
-366
-277
-193
-117
-58
-8
33
30
-39
-133
-171
-141
-124
-193
-275
-197
114
492
691
669
629
762
1006
1124
1002
793
721
812
902
872
817
901
1131
1329
1328
1197
1141
1246
1375
1342
1152
998
1026
1158
1222
1163
1096
1126
1209
1203
1051
834
661
573
558
608
696
756
746
726
810
1015
1193
1157
894
594
450
474
522
487
408
401
510
663
739
687
556
428
352
307
257
206
208
326
573
884
1157
1310
1333
1269
1164
1022
841
651
517
475
494
510
509
544
665
847
1004
1074
1068
1030
976
921
891
911
969
1017
1027
1034
1087
1164
1173
1071
912
792
751
744
727
706
714
738
740
710
683
665
603
445
242
125
167
287
343
307
287
355
423
343
119
-83
-151
-189
-387
-762
-1107
-1215
-1090
-869
-574
-86
613
1315
1793
2098
2507
3112
3614
3608
3079
2418
1972
1674
1234
578
-35
-365
-475
-554
-596
-392
135
745
1100
1140
1090
1130
1171
986
500
-124
-674
-1057
-1285
-1369
-1285
-1054
-790
-615
-575
-612
-657
-741
-965
-1365
-1744
-1748
-1170
-198
695
1134
1134
997
946
910
656
98
-597
-1146
-1343
-1159
-710
-167
323
690
935
1070
1042
797
408
104
126
504
1028
1487
1898
2451
3235
4066
4635
4804
4733
4704
4857
5130
5404
5631
5821
5971
6056
6094
6138
6190
6189
6113
6050
6097
6239
6378
6510
6798
7371
8060
8441
8212
7491
6668
5983
5324
4444
3316
2185
1323
817
596
576
703
865
887
681
336
14
-237
-536
-1005
-1595
-2122
-2433
-2525
-2498
-2464
-2489
-2620
-2885
-3251
-3620
-3908
-4114
-4312
-4535
-4725
-4791
-4748
-4707
-4748
-4813
-4757
-4517
-4191
-3926
-3755
-3577
-3296
-2931
-2592
-2360
-2238
-2203
-2243
-2346
-2464
-2562
-2667
-2838
-3064
-3232
-3244
-3134
-3035
-3025
-3027
-2922
-2719
-2551
-2526
-2599
-2637
-2587
-2551
-2637
-2832
-3004
-3052
-3001
-2947
-2929
-2887
-2752
-2537
-2317
-2150
-2031
-1917
-1800
-1689
-1598
-1517
-1429
-1333
-1234
-1128
-1001
-862
-739
-650
-591
-539
-498
-496
-532
-559
-520
-380
-150
148
474
729
771
536
133
-222
-450
-704
-1191
-1874
-2429
-2557
-2295
-1955
-1741
-1509
-989
-158
683
1225
1465
1642
1896
2090
2016
1677
1304
1099
1042
992
900
844
886
977
1031
1072
1183
1363
1478
1420
1258
1166
1224
1351
1422
1418
1410
1440
1464
1426
1328
1220
1141
1117
1178
1325
1495
1592
1567
1482
1433
1446
1458
1408
1323
1279
1308
1359
1368
1339
1328
1368
1415
1391
1282
1164
1130
1171
1183
1086
933
855
912
1008
1004
896
856
1063
1497
1919
2077
1921
1615
1344
1143
915
566
121
-295
-562
-615
-443
-105
278
575
737
814
896
1008
1091
1089
1014
929
880
881
927
1003
1088
1149
1160
1119
1048
983
970
1035
1150
1247
1268
1239
1251
1354
1477
1489
1355
1195
1176
1320
1472
1452
1244
1014
923
962
991
924
840
880
1070
1275
1341
1246
1103
1004
924
772
518
243
64
23
57
45
-79
-252
-334
-224
-9
98
-9
-184
-169
126
515
738
744
702
784
982
1162
1237
1217
1147
1058
996
1029
1173
1337
1411
1375
1311
1301
1334
1339
1287
1214
1162
1147
1148
1146
1136
1111
1089
1093
1136
1194
1221
1208
1168
1110
1040
982
980
1041
1107
1097
995
864
770
712
634
515
401
342
340
355
375
428
542
716
934
1170
1402
1598
1770
1977
2248
2488
2549
2403
2198
2097
2087
2027
1903
1927
2312
2981
3620
4023
4286
4613
5018
5273
5185
4804
4318
3839
3344
2811
2302
1890
1567
1276
995
773
648
602
598
602
593
548
473
405
374
349
267
130
14
-18
13
28
0
-18
36
156
276
334
328
288
248
228
229
235
227
196
147
90
38
5
16
71
123
102
-13
-170
-302
-390
-470
-574
-692
-781
-820
-812
-780
-748
-734
-746
-776
-807
-848
-917
-1010
-1088
-1123
-1134
-1166
-1209
-1195
-1084
-928
-821
-796
-791
-745
-670
-625
-624
-627
-601
-570
-547
-489
-336
-99
117
228
246
249
277
307
308
287
283
321
406
540
723
912
1021
994
864
721
622
535
389
191
54
81
265
500
677
793
920
1094
1252
1297
1211
1089
1056
1158
1301
1372
1355
1351
1415
1481
1442
1300
1169
1125
1112
1031
915
915
1108
1391
1592
1649
1636
1605
1517
1347
1154
1024
950
856
729
681
806
1062
1308
1447
1470
1423
1339
1253
1207
1220
1252
1236
1144
1022
934
903
912
948
1004
1078
1147
1158
1089
993
989
1121
1281
1287
1086
852
778
855
901
840
800
926
1135
1209
1087
957
1005
1166
1215
1063
854
718
600
405
228
256
459
541
309
-25
-78
243
558
437
-87
-578
-703
-542
-365
-249
-15
477
1116
1708
2209
2676
3021
3027
2621
2072
1758
1749
1726
1389
862
558
711
1083
1251
1059
727
535
531
556
493
396
391
497
609
624
561
488
447
444
447
412
331
243
223
321
514
716
852
896
854
747
645
644
766
881
826
617
473
562
807
964
929
834
841
919
929
860
849
937
959
759
466
387
614
873
847
572
379
475
676
677
439
217
206
303
295
175
169
390
650
682
493
384
579
950
1188
1142
968
874
889
885
787
658
607
634
671
688
739
870
1035
1137
1122
1042
990
1004
1011
940
826
767
814
916
1005
1064
1098
1087
1009
910
883
946
977
861
680
640
814
998
959
731
584
675
867
912
803
733
832
1008
1111
1126
1125
1099
971
764
653
742
897
889
696
542
628
890
1090
1098
969
799
622
457
392
486
644
671
523
416
609
1040
1364
1354
1147
1038
1093
1081
832
506
406
542
574
278
-101
-95
402
938
1036
762
610
879
1321
1474
1245
963
893
929
836
627
543
683
855
834
681
639
767
817
596
249
93
231
433
435
278
222
392
632
693
484
83
-362
-753
-1035
-1228
-1429
-1694
-1912
-1860
-1458
-881
-372
19
485
1115
1703
1959
1811
1461
1133
841
481
57
-279
-405
-375
-327
-300
-198
28
255
264
-19
-405
-594
-460
-173
-22
-112
-240
-141
225
628
774
589
256
27
8
95
118
-4
-184
-265
-191
-74
-39
-85
-53
154
410
509
429
385
542
765
708
239
-331
-566
-377
-117
-167
-503
-732
-568
-172
55
-82
-383
-551
-513
-464
-587
-831
-984
-926
-752
-659
-736
-884
-920
-750
-496
-368
-464
-659
-752
-687
-586
-547
-523
-444
-368
-429
-611
-692
-497
-160
-32
-269
-647
-781
-559
-264
-243
-539
-861
-917
-699
-428
-278
-212
-111
44
170
234
309
448
549
433
76
-288
-383
-187
47
91
-23
-70
93
362
523
487
365
317
374
447
457
437
458
526
565
522
435
374
348
306
248
256
364
496
549
539
586
755
950
999
848
599
386
279
281
322
297
167
15
-2
179
403
453
299
133
136
284
405
413
386
407
425
363
264
240
301
325
240
113
78
147
226
285
396
587
765
849
906
1049
1232
1253
1011
706
620
765
849
637
244
11
105
358
490
413
263
215
285
328
207
-70
-362
-533
-578
-597
-658
-740
-779
-807
-912
-1052
-1005
-595
68
653
941
1076
1382
1955
2532
2747
2485
1945
1417
1054
835
684
561
468
416
427
519
692
888
1012
991
807
524
280
187
254
387
463
468
442
417
385
325
247
186
150
117
79
43
-5
-105
-256
-373
-376
-316
-350
-540
-736
-726
-497
-252
-164
-181
-124
52
197
179
43
-61
-84
-121
-245
-395
-473
-469
-468
-505
-509
-425
-307
-270
-353
-462
-484
-421
-402
-530
-762
-917
-841
-548
-228
-75
-110
-161
-42
243
488
485
227
-81
-213
-122
51
141
104
33
38
144
274
338
300
202
109
71
109
197
284
326
317
297
313
356
348
240
68
-67
-121
-163
-281
-475
-639
-669
-579
-491
-493
-539
-485
-235
146
491
694
813
1015
1394
1854
2170
2174
1881
1455
1063
757
464
93
-374
-846
-1165
-1224
-1029
-677
-274
127
517
881
1178
1385
1523
1630
1715
1749
1713
1600
1387
1064
678
341
116
-61
-310
-642
-904
-951
-801
-564
-267
179
805
1441
1826
1840
1598
1317
1111
921
629
190
-308
-662
-701
-419
1
348
564
755
1029
1329
1500
1461
1270
1028
760
465
199
72
128
292
459
610
787
986
1124
1148
1128
1161
1225
1188
997
770
645
597
502
406
597
1302
2345
3246
3703
3890
4200
4747
5240
5340
5020
4528
4077
3696
3346
3067
2941
2968
3060
3136
3163
3157
3134
3109
3087
3027
2886
2719
2657
2753
2898
2957
2990
3178
3499
3606
3143
2209
1348
973
922
652
-125
-1125
-1828
-2036
-2002
-2085
-2407
-2856
-3317
-3767
-4204
-4573
-4817
-4965
-5122
-5322
-5503
-5566
-5474
-5274
-5040
-4825
-4653
-4527
-4436
-4362
-4266
-4122
-3942
-3780
-3722
-3811
-3996
-4156
-4170
-4033
-3851
-3743
-3707
-3632
-3429
-3153
-2941
-2865
-2843
-2736
-2507
-2268
-2159
-2190
-2221
-2105
-1850
-1610
-1529
-1602
-1695
-1686
-1582
-1497
-1536
-1684
-1841
-1932
-1971
-2028
-2131
-2220
-2212
-2118
-2050
-2110
-2252
-2330
-2273
-2188
-2218
-2350
-2410
-2296
-2126
-2110
-2297
-2510
-2567
-2508
-2523
-2690
-2863
-2853
-2654
-2431
-2301
-2219
-2082
-1899
-1790
-1830
-1959
-2065
-2115
-2176
-2302
-2446
-2506
-2445
-2330
-2238
-2156
-2020
-1824
-1661
-1611
-1633
-1593
-1420
-1178
-978
-850
-734
-611
-554
-615
-729
-778
-737
-704
-751
-818
-766
-548
-255
-11
137
212
239
220
170
120
77
12
-88
-178
-193
-114
11
126
201
233
239
254
321
439
546
575
530
484
487
510
474
362
245
203
238
298
364
479
671
875
968
887
687
470
251
-40
-464
-996
-1523
-1937
-2184
-2295
-2359
-2457
-2571
-2549
-2226
-1616
-927
-381
-11
319
695
1037
1188
1101
861
571
267
-41
-291
-420
-453
-464
-479
-453
-360
-269
-260
-330
-392
-400
-404
-471
-580
-632
-569
-433
-320
-304
-389
-532
-671
-756
-778
-785
-855
-1014
-1211
-1350
-1390
-1381
-1414
-1537
-1706
-1815
-1776
-1611
-1443
-1403
-1519
-1678
-1734
-1652
-1569
-1653
-1911
-2165
-2231
-2108
-1980
-1996
-2118
-2175
-2073
-1897
-1804
-1848
-1934
-1955
-1912
-1884
-1906
-1929
-1910
-1873
-1876
-1926
-1980
-2012
-2045
-2093
-2128
-2110
-2051
-1986
-1904
-1757
-1553
-1391
-1367
-1437
-1454
-1360
-1264
-1302
-1450
-1553
-1516
-1426
-1431
-1552
-1678
-1712
-1684
-1690
-1756
-1814
-1804
-1741
-1688
-1678
-1682
-1644
-1547
-1426
-1345
-1341
-1378
-1372
-1274
-1134
-1062
-1119
-1248
-1326
-1290
-1190
-1123
-1144
-1210
-1228
-1129
-889
-537
-146
209
503
778
1090
1414
1637
1678
1584
1500
1525
1621
1667
1606
1490
1412
1405
1430
1417
1332
1178
973
750
549
400
293
184
30
-157
-311
-390
-422
-476
-558
-579
-456
-224
-27
19
-59
-146
-179
-210
-329
-544
-768
-904
-925
-862
-751
-614
-465
-332
-247
-226
-254
-296
-329
-350
-377
-422
-459
-445
-360
-231
-120
-75
-112
-210
-332
-455
-573
-690
-802
-878
-898
-895
-935
-1049
-1194
-1300
-1369
-1487
-1725
-2054
-2365
-2581
-2698
-2699
-2492
-1993
