-24612
724
704
638
591
595
626
633
600
547
510
499
504
508
508
512
518
518
501
476
468
497
557
621
658
655
629
616
639
677
677
594
449
316
255
261
279
268
246
262
347
476
594
658
662
630
599
587
591
582
536
459
388
376
437
530
586
573
527
506
523
533
488
396
315
285
293
303
310
348
439
554
628
630
599
610
692
779
787
707
616
595
629
639
583
505
472
501
556
612
671
724
726
655
559
514
527
521
432
290
186
153
148
122
80
61
70
79
76
80
104
136
158
185
233
254
167
-40
-253
-325
-238
-130
-130
-191
-120
199
660
1041
1229
1327
1504
1791
2058
2177
2158
2114
2109
2091
1970
1723
1408
1092
788
479
173
-88
-272
-376
-435
-478
-517
-549
-570
-587
-624
-705
-828
-954
-1024
-1004
-914
-830
-816
-866
-900
-845
-727
-667
-754
-937
-1040
-935
-662
-396
-286
-346
-492
-640
-779
-933
-1117
-1315
-1496
-1622
-1666
-1611
-1463
-1263
-1073
-952
-917
-942
-982
-1001
-1004
-1011
-1027
-1027
-983
-909
-845
-812
-789
-741
-673
-630
-633
-641
-585
-453
-322
-284
-349
-424
-410
-309
-214
-204
-257
-273
-192
-43
81
124
105
83
72
47
28
93
301
591
796
776
582
411
383
412
325
119
20
257
785
1285
1470
1337
1096
896
672
273
-316
-922
-1336
-1468
-1348
-1058
-703
-394
-195
-94
-22
44
27
-138
-390
-589
-602
-430
-209
-10
243
625
1035
1191
915
409
112
213
377
149
-369
-440
511
2077
3096
2795
1615
727
760
1195
1047
-19
-1369
-2100
-1890
-1122
-356
145
439
653
826
929
963
934
812
592
305
79
71
322
716
1072
1267
1289
1199
1084
1041
1111
1200
1109
728
226
-36
141
575
897
975
1047
1439
2163
2885
3244
3137
2736
2286
1977
1875
1903
1919
1882
1896
2041
2174
2050
1689
1511
1849
2453
2627
2048
1219
913
1293
1746
1656
1084
517
236
196
388
978
1891
2577
2502
1843
1312
1269
1285
797
-27
-487
-308
-25
-222
-696
-694
62
939
1124
575
43
198
934
1604
1737
1461
1224
1299
1560
1632
1256
529
-186
-576
-638
-632
-772
-980
-997
-697
-236
43
-91
-534
-950
-1094
-1019
-976
-1107
-1343
-1504
-1406
-947
-159
745
1398
1551
1394
1479
2126
2952
3176
2453
1328
723
1011
1665
1818
1085
-183
-1317
-1906
-1999
-1903
-1902
-2104
-2419
-2644
-2583
-2179
-1595
-1134
-1023
-1243
-1558
-1742
-1745
-1683
-1697
-1851
-2104
-2354
-2458
-2304
-1960
-1751
-2007
-2700
-3378
-3525
-3043
-2338
-1943
-2034
-2283
-2199
-1586
-766
-334
-648
-1499
-2285
-2548
-2329
-2065
-2119
-2482
-2869
-3032
-2957
-2811
-2768
-2902
-3190
-3553
-3882
-4074
-4089
-3992
-3894
-3836
-3744
-3542
-3300
-3214
-3374
-3596
-3586
-3358
-3322
-3861
-4850
-5714
-6023
-5892
-5695
-5511
-5039
-4066
-2829
-1788
-1144
-757
-531
-643
-1285
-2271
-3102
-3444
-3426
-3398
-3497
-3559
-3388
-3039
-2764
-2749
-2988
-3358
-3735
-4036
-4218
-4260
-4185
-4043
-3872
-3711
-3618
-3652
-3808
-3999
-4128
-4173
-4176
-4170
-4131
-4025
-3874
-3756
-3712
-3703
-3645
-3504
-3321
-3160
-3036
-2929
-2827
-2753
-2718
-2693
-2635
-2553
-2501
-2507
-2518
-2456
-2323
-2224
-2270
-2450
-2637
-2716
-2688
-2643
-2651
-2694
-2712
-2676
-2614
-2567
-2537
-2510
-2493
-2516
-2584
-2649
-2660
-2634
-2644
-2726
-2829
-2874
-2867
-2899
-3007
-3083
-2986
-2737
-2543
-2581
-2790
-2931
-2866
-2715
-2709
-2918
-3173
-3260
-3144
-2946
-2758
-2559
-2304
-2046
-1889
-1849
-1810
-1667
-1467
-1358
-1382
-1368
-1077
-465
204
546
340
-324
-1157
-1909
-2508
-3042
-3613
-4194
-4610
-4635
-4178
-3369
-2500
-1834
-1459
-1289
-1190
-1113
-1100
-1211
-1447
-1736
-1955
-2020
-1913
-1697
-1464
-1293
-1221
-1238
-1299
-1339
-1309
-1208
-1081
-983
-940
-938
-949
-971
-1009
-1057
-1087
-1077
-1031
-964
-890
-827
-806
-860
-973
-1091
-1163
-1192
-1234
-1341
-1514
-1701
-1845
-1917
-1925
-1900
-1860
-1785
-1618
-1326
-940
-542
-205
73
356
691
1049
1347
1510
1528
1457
1368
1286
1165
933
571
147
-230
-487
-645
-773
-917
-1063
-1163
-1184
-1141
-1084
-1070
-1125
-1237
-1359
-1458
-1529
-1593
-1671
-1766
-1864
-1950
-2007
-2027
-2021
-2019
-2040
-2063
-2045
-1970
-1888
-1865
-1914
-1987
-2020
-2001
-1959
-1922
-1895
-1875
-1859
-1839
-1800
-1737
-1670
-1632
-1634
-1658
-1680
-1694
-1701
-1689
-1648
-1591
-1548
-1542
-1569
-1600
-1609
-1592
-1571
-1586
-1656
-1755
-1830
-1854
-1860
-1903
-1990
-2069
-2093
-2082
-2091
-2148
-2224
-2281
-2313
-2334
-2351
-2379
-2462
-2650
-2925
-3200
-3384
-3434
-3350
-3144
-2864
-2593
-2373
-2142
-1788
-1353
-1105
-1316
-1956
-2659
-3054
-3068
-2892
-2677
-2367
-1838
-1119
-381
242
742
1129
1311
1172
749
256
-75
-174
-140
-101
-95
-88
-39
54
173
276
314
269
179
115
122
175
218
234
255
304
341
297
169
48
22
81
133
109
39
5
40
91
102
86
111
215
358
459
465
397
320
282
279
264
207
120
58
61
119
196
257
288
285
251
201
161
132
97
41
-22
-66
-84
-95
-106
-107
-92
-77
-80
-86
-76
-60
-74
-127
-180
-191
-192
-271
-486
-794
-1078
-1230
-1214
-1069
-867
-667
-481
-269
1
298
515
556
421
212
47
-31
-58
-78
-94
-81
-23
58
132
181
206
207
182
141
105
88
94
119
163
216
246
217
133
50
22
44
56
15
-51
-78
-55
-43
-99
-203
-284
-309
-321
-375
-465
-542
-610
-754
-1043
-1406
-1666
-1717
-1636
-1571
-1545
-1415
-1043
-481
60
419
620
793
1010
1236
1412
1522
1571
1544
1443
1334
1299
1328
1287
1049
636
204
-109
-298
-460
-671
-912
-1113
-1233
-1285
-1309
-1336
-1387
-1474
-1591
-1713
-1807
-1859
-1876
-1887
-1916
-1963
-2007
-2039
-2062
-2087
-2112
-2115
-2087
-2059
-2069
-2131
-2219
-2294
-2335
-2345
-2337
-2332
-2344
-2363
-2342
-2228
-2032
-1841
-1741
-1730
-1727
-1673
-1599
-1580
-1640
-1729
-1793
-1836
-1879
-1908
-1886
-1823
-1795
-1859
-1979
-2065
-2093
-2141
-2287
-2472
-2540
-2406
-2173
-2038
-2082
-2187
-2176
-2020
-1880
-1935
-2191
-2475
-2609
-2560
-2430
-2331
-2288
-2245
-2132
-1932
-1708
-1571
-1583
-1707
-1838
-1926
-2016
-2150
-2278
-2301
-2254
-2342
-2727
-3284
-3662
-3626
-3290
-2955
-2757
-2554
-2143
-1530
-924
-528
-411
-539
-857
-1264
-1610
-1777
-1780
-1723
-1658
-1524
-1245
-861
-507
-283
-194
-218
-361
-616
-896
-1072
-1079
-959
-800
-656
-540
-481
-491
-511
-452
-325
-256
-347
-556
-732
-772
-725
-692
-698
-695
-676
-692
-720
-570
-29
853
1647
1813
1179
173
-498
-459
-23
111
-450
-1396
-2024
-1906
-1267
-711
-659
-1072
-1635
-2069
-2260
-2235
-2139
-2213
-2665
-3432
-4101
-4202
-3637
-2755
-2025
-1599
-1246
-665
159
945
1396
1459
1282
1004
650
208
-258
-600
-705
-562
-239
197
683
1149
1499
1674
1685
1598
1502
1471
1556
1735
1885
1877
1700
1498
1453
1597
1787
1868
1849
1877
2044
2263
2353
2238
2015
1831
1715
1577
1351
1090
912
841
772
594
308
17
-223
-435
-675
-978
-1339
-1732
-2107
-2410
-2625
-2783
-2867
-2751
-2333
-1730
-1268
-1188
-1377
-1475
-1286
-1004
-955
-1156
-1250
-896
-164
559
1001
1255
1565
1945
2101
1748
970
160
-349
-571
-749
-1009
-1211
-1136
-748
-240
153
307
186
-194
-726
-1177
-1301
-1032
-545
-62
347
763
1259
1787
2222
2453
2429
2160
1734
1309
1048
1013
1136
1284
1365
1399
1483
1702
2030
2307
2338
2061
1616
1249
1097
1079
998
765
479
299
266
287
274
239
250
322
387
386
339
293
248
141
-67
-350
-636
-875
-1043
-1121
-1105
-1037
-988
-988
-971
-840
-595
-369
-311
-449
-663
-809
-844
-846
-913
-1042
-1133
-1084
-900
-693
-590
-622
-707
-739
-688
-609
-570
-579
-577
-514
-405
-308
-260
-245
-222
-178
-124
-48
86
280
475
602
649
662
662
613
485
339
279
326
371
313
195
168
313
531
655
634
570
574
624
616
518
432
475
639
793
831
775
735
780
864
894
828
695
552
434
350
292
247
212
202
220
227
138
-112
-479
-828
-1047
-1136
-1175
-1224
-1260
-1188
-899
-346
390
1098
1535
1587
1352
1016
682
307
-168
-687
-1101
-1310
-1343
-1310
-1296
-1315
-1352
-1411
-1528
-1748
-2056
-2363
-2532
-2468
-2217
-1944
-1779
-1705
-1591
-1364
-1109
-985
-1050
-1187
-1241
-1195
-1156
-1201
-1279
-1295
-1248
-1236
-1300
-1333
-1200
-908
-595
-352
-118
214
616
924
1009
909
794
769
813
845
833
814
834
923
1113
1410
1767
2069
2198
2135
1979
1863
1827
1769
1555
1145
663
313
223
355
547
645
618
576
681
991
1407
1758
1960
2072
2199
2372
2549
2690
2813
2901
2831
2465
1830
1194
865
904
1092
1177
1131
1118
1263
1499
1675
1710
1637
1464
1142
701
343
313
662
1198
1657
1921
2001
1903
1568
959
136
-783
-1707
-2574
-3280
-3670
-3656
-3309
-2826
-2394
-2109
-1989
-2029
-2212
-2485
-2797
-3131
-3495
-3844
-4075
-4105
-3957
-3753
-3623
-3599
-3608
-3581
-3522
-3469
-3417
-3306
-3126
-2961
-2917
-3010
-3155
-3283
-3427
-3655
-3915
-4017
-3805
-3332
-2795
-2335
-1922
-1437
-825
-152
465
920
1139
1113
961
888
997
1175
1257
1321
1709
2623
3732
4338
4034
3137
2349
2032
1875
1359
405
-509
-833
-461
282
1041
1717
2364
2917
3154
2928
2386
1926
1889
2258
2671
2781
2625
2606
3049
3761
4083
3456
1939
186
-1063
-1459
-1101
-298
657
1583
2452
3383
4525
5818
6912
7394
7138
6452
5814
5494
5412
5331
5122
4834
4583
4415
4283
4140
3990
3862
3726
3507
3211
2979
2960
3096
3131
2883
2473
2198
2171
2168
1905
1376
855
551
367
73
-371
-750
-811
-507
7
538
979
1289
1466
1527
1507
1432
1300
1106
868
657
545
562
669
776
789
636
329
-54
-426
-755
-1049
-1315
-1533
-1679
-1753
-1799
-1839
-1870
-1892
-1978
-2265
-2833
-3558
-4144
-4328
-4081
-3617
-3193
-2918
-2715
-2452
-2082
-1714
-1550
-1738
-2250
-2881
-3388
-3655
-3742
-3766
-3782
-3759
-3672
-3562
-3490
-3475
-3491
-3512
-3545
-3600
-3657
-3660
-3560
-3357
-3107
-2920
-2896
-3061
-3335
-3582
-3715
-3753
-3785
-3877
-4015
-4142
-4239
-4356
-4538
-4742
-4838
-4711
-4379
-3991
-3677
-3442
-3182
-2812
-2353
-1912
-1590
-1418
-1358
-1332
-1284
-1225
-1239
-1398
-1672
-1944
-2135
-2295
-2526
-2841
-3133
-3296
-3357
-3441
-3611
-3788
-3845
-3745
-3571
-3437
-3391
-3401
-3400
-3345
-3237
-3127
-3064
-3069
-3114
-3153
-3161
-3129
-3069
-2995
-2928
-2889
-2871
-2845
-2796
-2745
-2707
-2665
-2579
-2438
-2272
-2107
-1925
-1706
-1489
-1365
-1382
-1501
-1661
-1858
-2133
-2483
-2847
-3174
-3487
-3828
-4138
-4280
-4179
-3924
-3681
-3526
-3398
-3203
-2945
-2718
-2600
-2587
-2615
-2618
-2574
-2504
-2444
-2404
-2336
-2179
-1944
-1733
-1643
-1653
-1636
-1508
-1328
-1245
-1329
-1488
-1568
-1512
-1397
-1327
-1339
-1382
-1391
-1343
-1245
-1113
-974
-869
-837
-868
-899
-869
-779
-703
-703
-753
-747
-615
-412
-281
-303
-414
-472
-401
-262
-172
-186
-249
-264
-188
-53
77
151
148
93
35
29
108
234
327
323
240
184
249
401
487
390
170
28
107
349
564
637
613
588
585
564
520
512
551
555
451
301
260
389
574
645
570
469
458
528
581
567
528
521
550
567
560
557
577
589
545
447
343
290
307
356
403
444
499
574
659
729
773
796
815
852
915
978
1001
971
922
907
945
1007
1056
1088
1118
1151
1172
1182
1207
1259
1308
1300
1222
1119
1063
1081
1138
1185
1195
1175
1160
1177
1218
1250
1233
1159
1057
968
913
884
863
849
846
855
861
848
824
811
819
836
832
790
720
648
585
513
409
261
91
-52
-125
-115
-42
77
233
420
611
752
825
895
1090
1511
2127
2804
3411
3916
4367
4795
5138
5277
5119
4676
4059
3417
2863
2444
2139
1893
1668
1469
1352
1358
1449
1509
1439
1247
1033
899
849
821
782
754
758
766
726
629
528
488
529
615
684
691
652
630
680
777
832
789
705
698
814
968
1026
952
828
754
746
742
689
595
491
396
320
278
271
274
251
197
147
120
87
4
-121
-217
-234
-210
-225
-305
-370
-341
-237
-167
-200
-290
-348
-346
-332
-348
-374
-361
-305
-245
-207
-174
-124
-65
-38
-61
-113
-157
-161
-132
-95
-86
-115
-157
-173
-158
-146
-181
-271
-382
-466
-511
-537
-574
-638
-720
-796
-853
-896
-945
-1006
-1057
-1084
-1103
-1154
-1249
-1340
-1370
-1334
-1285
-1270
-1279
-1273
-1229
-1159
-1088
-1031
-994
-990
-1009
-1022
-999
-959
-952
-1000
-1069
-1108
-1108
-1112
-1156
-1241
-1340
-1434
-1518
-1593
-1658
-1722
-1797
-1866
-1896
-1892
-1910
-2006
-2155
-2259
-2260
-2210
-2225
-2350
-2508
-2589
-2566
-2515
-2517
-2579
-2643
-2661
-2640
-2624
-2643
-2697
-2767
-2835
-2892
-2944
-2994
-3039
-3076
-3103
-3117
-3114
-3095
-3071
-3065
-3077
-3087
-3081
-3074
-3105
-3187
-3276
-3311
-3274
-3215
-3201
-3237
-3276
-3277
-3240
-3208
-3222
-3263
-3266
-3203
-3137
-3180
-3363
-3556
-3584
-3425
-3263
-3295
-3507
-3676
-3625
-3412
-3245
-3218
-3213
-3068
-2781
-2511
-2379
-2339
-2267
-2135
-2029
-2040
-2150
-2248
-2255
-2195
-2166
-2229
-2347
-2437
-2449
-2413
-2415
-2511
-2669
-2793
-2817
-2758
-2669
-2575
-2453
-2222
-1811
-1290
-895
-847
-1094
-1294
-1143
-728
-429
-455
-590
-503
-226
-121
-341
-516
-167
645
1295
1315
944
843
1294
1900
2058
1616
950
506
398
443
425
282
88
-70
-152
-162
-149
-155
-159
-140
-140
-236
-437
-634
-678
-524
-299
-211
-412
-909
-1551
-2093
-2345
-2290
-2081
-1887
-1737
-1541
-1255
-980
-869
-943
-1066
-1106
-1073
-1056
-1063
-989
-757
-425
-136
21
50
6
-91
-226
-349
-417
-453
-508
-579
-576
-422
-166
62
183
231
265
280
260
286
498
908
1308
1440
1258
988
878
950
1004
904
755
794
1124
1622
2089
2432
2688
2905
3079
3190
3264
3330
3353
3281
3146
3067
3135
3296
3391
3335
3191
3088
3056
2979
2741
2356
1975
1705
1502
1241
905
657
656
839
937
775
486
370
523
690
547
78
-387
-545
-423
-288
-290
-313
-162
176
539
818
1077
1440
1890
2249
2355
2243
2092
2048
2101
2129
2058
1924
1820
1801
1863
1997
2198
2433
2635
2756
2837
2958
3134
3276
3294
3202
3120
3144
3264
3409
3547
3712
3938
4203
4445
4631
4765
4863
4922
4935
4914
4884
4861
4847
4847
4875
4929
4974
4971
4909
4818
4715
4585
4415
4239
4120
4101
4165
4252
4308
4302
4243
4171
4137
4151
4161
4101
3964
3827
3760
3745
3706
3605
3484
3393
3324
3237
3132
3061
3055
3076
3076
3071
3123
3253
3399
3478
3471
3416
3346
3261
3150
3028
2914
2803
2670
2513
2375
2300
2277
2235
2107
1903
1691
1521
1377
1232
1110
1072
1133
1226
1285
1348
1529
1865
2232
2459
2521
2567
2759
3078
3360
3471
3422
3311
3193
3049
2854
2623
2388
2156
1924
1729
1635
1655
1708
1690
1573
1423
1314
1237
1109
880
593
350
212
153
107
44
-13
-32
-23
-34
-103
-217
-319
-359
-336
-296
-286
-309
-333
-331
-303
-265
-226
-194
-194
-249
-338
-389
-356
-287
-285
-393
-529
-576
-518
-444
-430
-451
-414
-291
-157
-90
-89
-94
-66
-34
-50
-127
-235
-334
-410
-464
-488
-466
-396
-311
-279
-366
-577
-831
-991
-945
-685
-302
85
425
758
1150
1596
1975
2132
1994
1642
1245
937
746
630
548
491
464
467
499
548
593
600
545
429
267
88
-62
-120
-62
52
119
77
-26
-97
-92
-45
-13
-6
-12
-27
-65
-121
-172
-203
-231
-269
-307
-323
-308
-267
-208
-127
-39
33
86
148
251
380
476
506
480
434
380
315
248
209
229
297
381
452
506
553
592
614
624
645
698
779
853
890
899
913
963
1051
1158
1258
1332
1389
1472
1637
1885
2130
2258
2247
2197
2234
2369
2490
2505
2452
2453
2569
2745
2891
2989
3082
3192
3282
3297
3231
3119
3013
2943
2915
2890
2828
2737
2686
2745
2915
3108
3232
3256
3215
3181
3210
3322
3457
3479
3283
2919
2608
2546
2709
2869
2836
2654
2544
2662
2937
3172
3238
3176
3114
3124
3181
3222
3223
3203
3183
3137
3016
2806
2560
2375
2300
2273
2198
2042
1891
1862
1962
2065
2050
1935
1832
1792
1760
1698
1713
1976
2483
3001
3302
3423
3622
4050
4525
4707
4463
4027
3771
3865
4192
4536
4792
4998
5211
5420
5571
5629
5592
5469
5274
5031
4784
4564
4378
4221
4093
3978
3839
3637
3377
3114
2909
2765
2624
2437
2227
2052
1940
1865
1789
1696
1582
1428
1207
932
691
584
597
575
332
-119
-518
-609
-442
-360
-640
-1175
-1598
-1701
-1643
-1710
-1938
-2087
-1967
-1661
-1385
-1212
-1043
-819
-657
-725
-1048
-1500
-1941
-2316
-2630
-2889
-3098
-3278
-3437
-3532
-3521
-3433
-3366
-3396
-3520
-3685
-3846
-3977
-4056
-4074
-4063
-4074
-4116
-4158
-4180
-4221
-4324
-4470
-4586
-4624
-4619
-4633
-4680
-4725
-4714
-4612
-4384
-4029
-3630
-3368
-3389
-3646
-3911
-3985
-3906
-3882
-4037
-4243
-4233
-3882
-3333
-2868
-2664
-2688
-2807
-2944
-3122
-3374
-3670
-3937
-4136
-4287
-4410
-4481
-4455
-4330
-4187
-4138
-4234
-4425
-4607
-4712
-4737
-4720
-4696
-4677
-4660
-4638
-4587
-4480
-4321
-4154
-4035
-3964
-3873
-3708
-3506
-3375
-3380
-3484
-3609
-3734
-3913
-4173
-4441
-4594
-4578
-4457
-4330
-4221
-4072
-3850
-3613
-3480
-3511
-3655
-3794
-3876
-3955
-4109
-4316
-4463
-4459
-4331
-4176
-4059
-3978
-3939
-4011
-4251
-4601
-4906
-5057
-5065
-4999
-4862
-4578
-4093
-3472
-2875
-2451
-2251
-2239
-2347
-2529
-2768
-3057
-3365
-3632
-3805
-3871
-3852
-3765
-3622
-3428
-3236
-3125
-3150
-3268
-3364
-3342
-3215
-3088
-3042
-3037
-2952
-2749
-2535
-2452
-2500
-2527
-2420
-2236
-2129
-2153
-2210
-2203
-2161
-2182
-2277
-2347
-2319
-2240
-2210
-2249
-2278
-2234
-2153
-2122
-2176
-2271
-2338
-2356
-2368
-2432
-2559
-2699
-2794
-2845
-2911
-3011
-3051
-2883
-2479
-1982
-1580
-1318
-1087
-766
-354
53
378
594
711
752
781
868
1013
1089
962
634
252
-30
-191
-336
-556
-822
-1017
-1067
-1003
-911
-850
-830
-830
-849
-894
-946
-960
-919
-869
-875
-952
-1030
-1040
-992
-958
-994
-1068
-1118
-1103
-1024
-883
-690
-495
-386
-410
-505
-538
-431
-267
-216
-367
-630
-819
-819
-691
-596
-629
-733
-782
-726
-637
-614
-661
-707
-695
-655
-657
-720
-785
-785
-723
-679
-711
-800
-867
-863
-809
-766
-777
-836
-901
-938
-933
-891
-833
-782
-755
-759
-778
-790
-780
-759
-753
-780
-836
-897
-935
-936
-896
-841
-803
-813
-869
-923
-921
-852
-769
-739
-784
-862
-914
-921
-902
-889
-888
-894
-917
-974
-1031
-1016
-888
-690
-543
-541
-678
-873
-1083
-1351
-1714
-2070
-2194
-1923
-1319
-621
0
591
1289
2079
2719
2967
2812
2472
2155
1899
1632
1341
1125
1080
1182
1311
1381
1413
1470
1559
1596
1494
1265
1029
913
931
988
974
877
758
660
569
467
396
423
533
605
517
273
15
-116
-94
1
77
118
185
347
616
918
1122
1134
980
805
744
798
849
806
717
718
880
1119
1300
1382
1424
1482
1515
1430
1209
955
831
925
1180
1432
1551
1546
1550
1662
1830
1883
1726
1450
1239
1165
1146
1076
968
921
978
1065
1082
1019
945
908
887
836
738
622
530
497
533
614
683
684
613
527
486
500
534
551
540
514
483
443
379
267
102
-92
-261
-353
-373
-371
-395
-422
-372
-179
161
594
1056
1515
1966
2417
2872
3315
3693
3932
3987
3887
3713
3524
3306
3010
2620
2184
1773
1426
1138
889
668
471
287
107
-67
-223
-344
-436
-523
-631
-767
-908
-1024
-1102
-1155
-1214
-1294
-1380
-1453
-1505
-1548
-1593
-1639
-1687
-1733
-1768
-1789
-1793
-1793
-1808
-1843
-1889
-1930
-1957
-1970
-1983
-2003
-2031
-2058
-2071
-2061
-2041
-2039
-2082
-2166
-2250
-2294
-2311
-2352
-2452
-2585
-2697
-2764
-2821
-2912
-3027
-3111
-3134
-3131
-3164
-3261
-3384
-3479
-3525
-3566
-3662
-3826
-3993
-4080
-4069
-4042
-4095
-4231
-4350
-4370
-4323
-4325
-4443
-4622
-4748
-4776
-4758
-4774
-4841
-4918
-4968
-4999
-5032
-5072
-5106
-5138
-5183
-5246
-5298
-5300
-5255
-5206
-5191
-5199
-5193
-5163
-5123
-5089
-5052
-5013
-5006
-5054
-5118
-5104
-4966
-4779
-4672
-4693
-4754
-4724
-4560
-4361
-4292
-4460
-4834
-5243
-5476
-5418
-5138
-4815
-4572
-4381
-4120
-3733
-3302
-2978
-2852
-2924
-3133
-3395
-3607
-3681
-3595
-3420
-3258
-3145
-3026
-2838
-2610
-2439
-2379
-2395
-2403
-2382
-2382
-2429
-2470
-2422
-2284
-2159
-2156
-2262
-2345
-2286
-2101
-1935
-1923
-2070
-2263
-2383
-2416
-2448
-2561
-2740
-2879
-2880
-2737
-2534
-2361
-2258
-2214
-2183
-2127
-2053
-2020
-2079
-2214
-2315
-2289
-2172
-2089
-2092
-2096
-2001
-1847
-1769
-1792
-1752
-1505
-1144
-921
-944
-1029
-928
-635
-390
-361
-432
-358
-60
268
401
318
165
36
-148
-491
-945
-1344
-1613
-1872
-2290
-2851
-3308
-3440
-3265
-2992
-2763
-2507
-2058
-1393
-692
-158
157
330
429
434
292
-1
-381
-738
-978
-1064
-1028
-949
-857
-707
-425
-10
455
889
1283
1667
2038
2385
2741
3148
3570
3850
3844
3596
3313
3168
3137
3051
2797
2423
2058
1774
1556
1376
1240
1173
1154
1138
1108
1096
1122
1150
1108
950
707
445
199
-39
-276
-479
-612
-668
-679
-666
-623
-553
-480
-424
-365
-282
-231
-318
-562
-826
-949
-940
-1001
-1298
-1743
-2077
-2154
-2083
-2072
-2185
-2308
-2345
-2354
-2463
-2713
-3031
-3341
-3622
-3845
-3892
-3637
-3082
-2368
-1634
-923
-212
465
999
1294
1349
1240
1051
849
687
610
618
667
740
845
981
1090
1075
909
693
568
587
679
766
858
1026
1289
1559
1735
1798
1810
1835
1883
1948
2030
2106
2116
2018
1861
1757
1762
1810
1803
1738
1721
1824
2005
2179
2330
2532
2808
3060
3150
3049
2873
2764
2746
2722
2590
2349
2102
1957
1932
1960
1959
1894
1787
1671
1553
1430
1298
1163
1025
879
724
573
434
310
200
108
37
-28
-116
-249
-409
-550
-629
-645
-637
-651
-696
-750
-783
-777
-716
-586
-391
-175
15
169
326
506
672
747
700
588
499
465
451
417
376
378
444
543
623
658
657
648
641
631
603
547
482
442
450
501
570
629
665
676
667
652
650
660
655
606
508
395
310
276
287
312
315
426
63
-12
-63
-137
-271
-440
-573
-612
-564
-475
-374
-260
-140
-46
-10
-18
-28
-17
-4
3
36
120
216
232
119
-67
-226
-319
-392
-481
-546
-520
-393
-220
-45
142
344
506
570
571
650
916
1340
1773
2102
2344
2592
2898
3219
3463
3569
3542
3435
3318
3233
3179
3105
2954
2700
2367
2013
1701
1460
1279
1132
1022
980
1035
1176
1350
1496
1588
1632
1642
1635
1643
1716
1866
2044
2181
2258
2328
2439
2562
2620
2581
2515
2517
2612
2731
2797
2804
2809
2858
2936
2998
3023
3024
3022
3031
3054
3086
3104
3077
3009
2941
2914
2911
2866
2739
2566
2418
2300
2137
1865
1521
1227
1075
1052
1092
1170
1321
1569
1871
2135
2307
2391
2418
2399
2333
2240
2151
2092
2065
2056
2049
2031
2005
2012
2088
2204
2262
2186
2024
1898
1854
1795
1609
1320
1094
1050
1154
1310
1509
1823
2248
2641
2851
2877
2836
2792
2679
2417
2064
1791
1719
1793
1870
1882
1882
1942
2047
2098
2024
1869
1741
1706
1739
1777
1804
1854
1939
2000
1957
1805
1632
1511
1422
1314
1197
1139
1121
977
574
13
-466
-787
-1147
-1735
-2383
-2631
-2205
-1320
-436
203
699
1186
1561
1625
1382
1067
870
752
581
377
306
476
808
1124
1301
1301
1129
819
467
189
26
-67
-148
-198
-139
58
318
513
565
480
325
168
57
18
90
261
448
555
568
578
670
811
900
940
1078
1420
1831
2026
1866
1525
1275
1137
879
339
-287
-604
-428
38
445
662
834
1122
1480
1698
1632
1328
948
630
412
281
239
310
496
714
827
750
544
364
296
272
164
-31
-158
-79
135
272
210
3
-276
-687
-1322
-2079
-2651
-2801
-2599
-2332
-2208
-2170
-2029
-1687
-1223
-824
-670
-859
-1339
-1896
-2250
-2228
-1878
-1402
-990
-695
-443
-128
266
612
687
338
-391
-1251
-1961
-2382
-2555
-2597
-2606
-2613
-2618
-2583
-2456
-2235
-2020
-1947
-2061
-2251
-2352
-2305
-2187
-2104
-2068
-2010
-1891
-1778
-1778
-1915
-2097
-2208
-2217
-2194
-2231
-2354
-2515
-2649
-2734
-2799
-2880
-2985
-3084
-3152
-3200
-3269
-3375
-3475
-3502
-3444
-3364
-3331
-3340
-3315
-3193
-3002
-2838
-2778
-2813
-2871
-2878
-2809
-2685
-2567
-2514
-2526
-2529
-2433
-2232
-2036
-1979
-2098
-2306
-2511
-2708
-2940
-3170
-3258
-3083
-2683
-2227
-1847
-1528
-1192
-840
-592
-567
-755
-1042
-1315
-1536
-1711
-1832
-1870
-1829
-1763
-1727
-1722
-1715
-1684
-1652
-1668
-1747
-1843
-1889
-1853
-1763
-1680
-1637
-1620
-1607
-1607
-1663
-1774
-1857
-1820
-1667
-1512
-1459
-1497
-1525
-1483
-1410
-1378
-1387
-1368
-1282
-1156
-1040
-943
-836
-709
-587
-503
-463
-439
-397
-316
-217
-147
-138
-155
-125
-17
110
167
141
120
192
329
430
441
420
460
576
698
753
733
683
639
614
609
631
672
693
660
592
551
581
654
692
660
606
615
700
795
814
742
659
650
713
774
783
764
781
856
950
1017
1063
1115
1166
1160
1064
924
822
779
743
663
571
546
600
648
615
543
542
654
773
777
675
593
621
717
769
738
686
659
633
587
562
615
721
771
695
569
539
638
753
744
623
522
541
640
703
687
652
668
710
677
522
311
151
81
35
-60
-195
-299
-326
-275
-158
31
292
596
911
1229
1563
1903
2237
2565
2898
3202
3385
3393
3301
3232
3209
3104
2793
2319
1865
1551
1321
1067
791
587
504
465
387
296
273
314
301
150
-72
-209
-204
-141
-128
-160
-143
-32
102
156
112
32
-18
-41
-72
-103
-106
-79
-66
-105
-169
-201
-184
-179
-240
-341
-399
-389
-379
-447
-555
-577
-464
-328
-333
-502
-686
-736
-661
-590
-609
-678
-713
-684
-621
-555
-491
-431
-400
-403
-393
-328
-224
-144
-133
-162
-170
-127
-48
37
103
124
63
-113
-408
-779
-1129
-1333
-1301
-1043
-673
-325
-49
221
551
888
1059
913
465
-105
-593
-897
-1012
-952
-721
-350
85
506
892
1241
1507
1612
1522
1291
1018
769
583
512
602
810
992
1026
941
889
980
1162
1289
1287
1217
1193
1239
1293
1295
1251
1228
1274
1358
1406
1372
1295
1255
1297
1385
1445
1433
1360
1259
1160
1090
1067
1085
1095
1050
959
885
881
934
983
973
900
808
739
716
725
730
705
655
608
583
566
549
555
595
639
645
612
587
620
702
782
830
853
858
831
743
577
341
67
-172
-281
-210
-2
253
522
852
1277
1725
2046
2159
2107
1980
1816
1609
1385
1220
1154
1159
1186
1236
1344
1502
1617
1610
1507
1393
1321
1262
1182
1103
1088
1157
1245
1263
1184
1049
917
808
708
595
462
321
192
85
2
-65
-119
-162
-196
-233
-276
-320
-367
-441
-575
-766
-968
-1138
-1284
-1436
-1588
-1698
-1744
-1761
-1764
-1700
-1475
-1079
-626
-258
-5
227
535
911
1269
1532
1694
1789
1845
1872
1878
1848
1733
1481
1116
739
447
245
64
-147
-343
-431
-376
-256
-189
-226
-316
-381
-407
-459
-602
-828
-1048
-1175
-1195
-1160
-1128
-1122
-1142
-1192
-1264
-1323
-1335
-1330
-1378
-1507
-1648
-1693
-1626
-1546
-1550
-1627
-1668
-1617
-1538
-1537
-1635
-1758
-1845
-1908
-2000
-2138
-2297
-2454
-2612
-2768
-2872
-2856
-2710
-2491
-2267
-2050
-1818
-1568
-1365
-1304
-1430
-1698
-2009
-2279
-2485
-2657
-2811
-2920
-2929
-2805
-2571
-2297
-2052
-1863
-1723
-1632
-1614
-1675
-1761
-1788
-1729
-1670
-1742
-1962
-2195
-2256
-2090
-1813
-1568
-1384
-1188
-918
-628
-398
-235
-128
-124
-286
-566
-799
-862
-804
-697
-414
289
1365
2286
2457
1845
1057
664
564
147
-918
-2226
-3036
-3031
-2549
-2106
-1879
-1718
-1510
-1347
-1340
-1417
-1419
-1319
-1244
-1295
-1380
-1340
-1150
-917
-759
-711
-742
-833
-992
-1162
-1216
-1074
-784
-502
-375
-474
-803
-1334
-1968
-2491
-2621
-2215
-1424
-586
82
666
1356
2076
2427
2071
1134
128
-527
-836
-1041
-1232
-1224
-833
-108
712
1410
1856
1945
1617
997
380
-20
-248
-465
-696
-770
-561
-169
176
372
531
825
1305
1892
2445
2811
2885
2685
2373
2110
1868
1444
740
-33
-472
-330
247
876
1276
1467
1647
1933
2241
2391
2291
1998
1649
1361
1198
1161
1199
1260
1321
1390
1441
1382
1166
900
815
1025
1338
1403
1084
642
461
624
816
674
187
-278
-344
-16
307
202
-393
-1139
-1607
-1649
-1487
-1455
-1646
-1848
-1788
-1396
-838
-340
19
339
770
1330
1800
1821
1234
342
-187
148
1224
2398
3124
3459
3903
4796
5906
6633
6564
5782
4709
3740
3034
2551
2188
1862
1557
1316
1202
1245
1401
1556
1597
1491
1263
975
716
587
655
889
1152
1298
1284
1170
1038
898
728
561
498
600
771
782
458
-152
-780
-1146
-1153
-922
-647
-421
-201
91
460
811
1038
1097
1006
797
496
143
-195
-448
-607
-728
-864
-1011
-1118
-1151
-1144
-1173
-1284
-1462
-1651
-1801
-1895
-1939
-1944
-1914
-1852
-1772
-1703
-1665
-1648
-1617
-1541
-1412
-1257
-1114
-1023
-989
-979
-942
-848
-716
-591
-497
-419
-334
-245
-168
-106
-42
40
131
223
333
473
625
742
804
834
864
893
899
889
901
956
1035
1102
1151
1214
1313
1433
1527
1548
1480
1351
1219
1156
1190
1291
1404
1504
1611
1752
1919
2058
2125
2107
2034
1954
1906
1895
1881
1823
1725
1646
1641
1709
1796
1852
1868
1872
1884
1901
1914
1922
1922
1904
1864
1799
1704
1578
1449
1373
1385
1441
1454
1382
1295
1303
1438
1611
1708
1713
1720
1837
2085
2389
2649
2820
2930
3034
3138
3214
3233
3209
3188
3203
3241
3279
3315
3360
3385
3326
3142
2873
2630
2532
2626
2875
3204
3546
3872
4180
4469
4714
4850
4814
4583
4245
3946
3784
3722
3664
3594
3605
3763
3981
4113
4166
4308
4650
5033
5161
4951
4676
4664
4899
5020
4710
4033
3338
2900
2708
2585
2427
2283
2234
2287
2379
2447
2460
2405
2282
2107
1927
1789
1720
1725
1817
2003
2274
2583
2860
3081
3292
3570
3927
4275
4510
4611
4644
4673
4701
4688
4604
4444
4204
3890
3541
3221
2975
2801
2677
2596
2541
2460
2272
1941
1502
1031
615
347
314
542
949
1393
1806
2224
2690
3145
3443
3489
3314
3032
2755
2556
2466
2464
2474
2421
2311
2230
2245
2320
2354
2296
2200
2153
2184
2243
2276
2278
2268
2244
2171
2026
1836
1670
1575
1536
1509
1474
1438
1390
1277
1053
755
485
324
257
215
159
112
106
117
84
-19
-162
-293
-386
-444
-472
-480
-476
-467
-443
-386
-305
-244
-233
-262
-294
-319
-348
-388
-417
-409
-371
-337
-332
-345
-360
-384
-417
-436
-421
-378
-337
-322
-329
-341
-346
-326
-262
-162
-71
-23
18
140
384
680
904
993
986
960
941
887
755
547
304
62
-152
-319
-423
-460
-459
-456
-464
-461
-423
-363
-327
-358
-446
-543
-603
-621
-622
-631
-639
-617
-554
-483
-466
-556
-741
-929
-986
-818
-440
10
372
591
770
1050
1430
1707
1648
1229
688
329
261
355
414
362
273
254
327
432
493
459
322
108
-125
-315
-417
-438
-430
-447
-519
-626
-724
-796
-866
-954
-1025
-1021
-931
-832
-811
-878
-984
-1114
-1329
-1647
-1958
-2082
-1937
-1626
-1319
-1109
-959
-796
-594
-395
-280
-352
-658
-1108
-1487
-1623
-1561
-1520
-1669
-1957
-2191
-2256
-2220
-2223
-2320
-2467
-2606
-2730
-2814
-2807
-2691
-2549
-2504
-2593
-2725
-2782
-2794
-2924
-3294
-3829
-4279
-4439
-4337
-4205
-4232
-4357
-4319
-3942
-3336
-2799
-2528
-2433
-2281
-1971
-1648
-1501
-1536
-1580
-1471
-1213
-919
-667
-449
-256
-124
-93
-153
-278
-496
-859
-1353
-1854
-2231
-2451
-2588
-2719
-2845
-2923
-2940
-2911
-2845
-2735
-2594
-2495
-2525
-2693
-2905
-3026
-2992
-2869
-2786
-2802
-2874
-2915
-2874
-2786
-2728
-2749
-2845
-2965
-3050
-3070
-3051
-3044
-3073
-3105
-3095
-3050
-3033
-3078
-3134
-3119
-3025
-2940
-2957
-3063
-3153
-3143
-3053
-2967
-2948
-2997
-3082
-3181
-3283
-3370
-3417
-3415
-3378
-3329
-3284
-3246
-3198
-3128
-3049
-2998
-3011
-3085
-3170
-3208
-3180
-3112
-3038
-2973
-2910
-2840
-2772
-2717
-2674
-2635
-2602
-2585
-2595
-2621
-2637
-2627
-2593
-2540
-2474
-2400
-2332
-2289
-2264
-2228
-2158
-2075
-2020
-1997
-1993
-1994
-2012
-2047
-2068
-2047
-2015
-2032
-2096
-2125
-2050
-1917
-1837
-1846
-1873
-1852
-1823
-1874
-1985
-2028
-1932
-1791
-1742
-1768
-1703
-1447
-1101
-847
-747
-707
-629
-527
-480
-510
-558
-563
-528
-475
-416
-346
-267
-201
-175
-201
-275
-375
-473
-548
-595
-614
-612
-589
-560
-547
-555
-574
-588
-586
-552
-478
-382
-312
-295
-298
-269
-206
-191
-285
-450
-580
-616
-591
-570
-562
-532
-465
-393
-354
-349
-368
-408
-465
-515
-531
-520
-505
-484
-421
-306
-195
-179
-295
-463
-570
-570
-497
-403
-311
-238
-208
-197
-143
-2
162
210
81
-113
-201
-130
5
92
122
152
190
191
140
92
91
105
71
-20
-109
-146
-134
-98
-52
-4
21
7
-42
-100
-156
-211
-241
-203
-127
-122
-273
-507
-645
-613
-522
-549
-732
-935
-1020
-993
-959
-979
-1009
-988
-914
-798
-585
-219
253
682
957
1135
1382
1780
2207
2455
2445
2307
2254
2352
2459
2377
2057
1638
1291
1060
849
564
227
-55
-203
-235
-219
-206
-205
-210
-226
-255
-299
-365
-466
-588
-668
-654
-553
-450
-445
-545
-650
-654
-565
-496
-547
-683
-752
-670
-537
-520
-662
-804
-783
-646
-593
-730
-921
-953
-801
-657
-684
-827
-894
-810
-701
-715
-829
-888
-808
-672
-604
-622
-639
-595
-530
-517
-572
-661
-759
-872
-980
-1007
-879
-631
-404
-308
-317
-282
-122
64
93
-95
-344
-446
-374
-288
-322
-413
-398
-237
-75
-60
-169
-251
-227
-176
-211
-325
-408
-373
-256
-159
-122
-117
-110
-91
-64
-32
-9
-12
-20
19
130
264
333
319
300
352
428
401
244
97
133
356
592
688
680
731
915
1125
1203
1120
990
917
882
806
670
562
567
657
716
673
570
511
550
620
615
517
417
414
501
593
623
616
629
678
709
676
595
529
513
529
536
527
525
548
583
600
584
562
569
609
642
634
593
562
580
630
669
675
669
675
685
676
641
614
607
592
531
435
360
342
346
305
196
69
-10
-25
-27
-62
-117
-150
-157
-185
-271
-385
-454
-437
-365
-294
-249
-214
-168
-120
-85
-51
-5
37
26
-60
-175
-243
-240
-209
-220
-288
-372
-421
-423
-408
-400
-400
-398
-401
-430
-483
-533
-549
-532
-529
-580
-675
-741
-720
-639
-584
-606
-670
-710
-719
-767
-907
-1098
-1239
-1295
-1343
-1473
-1667
-1812
-1835
-1790
-1773
-1762
-1613
-1212
-629
-63
342
615
890
1246
1618
1876
1945
1862
1724
1606
1520
1425
1259
980
604
201
-156
-430
-651
-875
-1116
-1327
-1444
-1454
-1405
-1364
-1366
-1405
-1462
-1522
-1578
-1629
-1669
-1695
-1698
-1675
-1634
-1602
-1598
-1621
-1654
-1695
-1745
-1804
-1850
-1859
-1839
-1815
-1802
-1792
-1777
-1775
-1805
-1844
-1856
-1853
-1923
-2151
-2506
-2854
-3092
-3267
-3485
-3728
-3799
-3510
-2900
-2214
-1656
-1210
-745
-245
134
231
56
-236
-498
-678
-778
-801
-772
-757
-816
-912
-955
-911
-882
-1010
-1317
-1651
-1816
-1741
-1533
-1368
-1327
-1370
-1424
-1471
-1533
-1603
-1641
-1636
-1626
-1637
-1611
-1472
-1249
-1096
-1157
-1408
-1682
-1833
-1859
-1851
-1873
-1906
-1893
-1824
-1740
-1707
-1755
-1862
-1958
-1988
-1964
-1938
-1931
-1901
-1769
-1521
-1238
-1030
-977
-1084
-1299
-1518
-1627
-1617
-1658
-2004
-2720
-3522
-3942
-3731
-3087
-2435
-2000
-1615
-972
-18
959
1596
1764
1590
1259
859
416
-1
-277
-343
-236
-47
152
353
581
818
1002
1070
1004
851
687
569
516
530
618
770
929
1034
1094
1195
1429
1809
2273
2766
3271
3780
4246
4591
4774
4818
4784
4720
4629
4490
4290
4056
3817
3548
3165
2622
2028
1619
1570
1823
2136
2357
2573
2976
3576
4133
4372
4245
3915
3545
3127
2588
1967
1448
1165
1057
940
714
468
348
386
455
404
200
-65
-267
-337
-265
-106
55
130
90
-15
-115
-182
-220
-227
-185
-126
-152
-344
-647
-879
-887
-687
-448
-345
-436
-649
-850
-930
-851
-663
-468
-333
-241
-101
149
469
739
843
751
521
266
103
132
384
806
1294
1763
2189
2613
3068
3535
3949
4242
4377
4367
4257
4128
4064
4106
4192
4176
3935
3471
2922
2461
2161
1966
1766
1511
1249
1066
1007
1053
1147
1237
1297
1327
1342
1368
1406
1410
1319
1102
803
512
295
158
57
-44
-138
-196
-205
-189
-199
-267
-372
-470
-542
-601
-654
-672
-631
-558
-522
-552
-596
-588
-552
-591
-752
-938
-991
-861
-663
-542
-522
-514
-457
-401
-450
-630
-847
-986
-1001
-923
-796
-623
-387
-96
194
409
505
481
371
213
32
-150
-309
-421
-478
-488
-461
-406
-342
-316
-379
-538
-742
-908
-988
-1002
-1004
-1014
-1013
-973
-904
-853
-852
-894
-939
-948
-915
-864
-830
-831
-851
-855
-823
-771
-739
-752
-787
-796
-753
-679
-632
-633
-647
-619
-549
-494
-496
-521
-505
-440
-382
-382
-402
-357
-226
-86
-17
-15
1
75
166
201
148
44
-50
-89
-73
-38
-23
-33
-34
5
62
81
39
-28
-65
-60
-37
-13
27
96
194
309
461
644
787
804
706
626
686
853
983
1017
1100
1433
2051
2740
3218
3352
3189
2840
2394
1935
1567
1322
1124
873
600
482
656
1036
1357
1403
1185
891
709
691
775
867
930
987
1114
1382
1787
2233
2596
2806
2889
2909
2903
2874
2847
2861
2918
2944
2846
2629
2411
2301
2285
2265
2180
2058
1945
1827
1684
1576
1605
1769
1908
1859
1645
1458
1456
1603
1759
1857
1970
2196
2547
2959
3365
3719
3958
4014
3881
3643
3411
3235
3080
2891
2675
2488
2390
2400
2475
2542
2533
2445
2354
2362
2528
2823
3183
3579
4025
4527
5026
5429
5678
5777
5756
5631
5409
5108
4748
4341
3901
3474
3125
2883
2710
2553
2424
2388
2447
2507
2456
2283
2095
1991
1953
1897
1796
1723
1745
1840
1929
1976
2001
2005
1917
1667
1288
909
634
459
328
230
226
354
570
787
952
1056
1086
1004
797
527
280
94
-60
-216
-360
-452
-477
-468
-479
-530
-615
-725
-855
-979
-1057
-1081
-1080
-1092
-1107
-1083
-1013
-973
-1052
-1254
-1478
-1613
-1618
-1543
-1455
-1385
-1319
-1214
-1032
-781
-533
-391
-402
-507
-603
-647
-691
-795
-927
-1001
-976
-899
-848
-841
-852
-876
-941
-1044
-1131
-1154
-1105
-987
-788
-499
-151
192
491
729
859
790
502
123
-146
-205
-131
-41
64
292
707
1226
1695
2026
2216
2289
2241
2065
1787
1471
1184
988
917
941
979
967
930
948
1047
1144
1125
992
857
815
860
918
936
925
931
965
996
986
928
853
796
758
701
595
465
363
301
236
116
-61
-270
-515
-839
-1215
-1515
-1596
-1455
-1243
-1099
-1013
-879
-652
-419
-304
-357
-557
-849
-1162
-1397
-1514
-1601
-1804
-2119
-2314
-2163
-1760
-1508
-1709
-2210
-2546
-2449
-2133
-2041
-2331
-2717
-2800
-2496
-2081
-1863
-1878
-1951
-1932
-1835
-1744
-1683
-1620
-1561
-1567
-1671
-1802
-1847
-1771
-1652
-1593
-1626
-1713
-1807
-1900
-1985
-2015
-1949
-1803
-1644
-1528
-1453
-1389
-1328
-1300
-1328
-1404
-1500
-1598
-1683
-1741
-1761
-1751
-1723
-1676
-1607
-1523
-1453
-1425
-1433
-1457
-1498
-1579
-1703
-1823
-1900
-1955
-2045
-2172
-2261
-2251
-2181
-2147
-2165
-2125
-1900
-1506
-1106
-851
-733
-613
-381
-58
240
431
517
532
502
434
344
230
17
-440
-1227
-2228
-3134
-3651
-3709
-3480
-3178
-2868
-2466
-1895
-1206
-563
-138
-31
-244
-681
-1167
-1525
-1672
-1661
-1613
-1610
-1641
-1650
-1600
-1519
-1478
-1548
-1743
-1997
-2212
-2325
-2337
-2292
-2232
-2176
-2146
-2180
-2295
-2465
-2632
-2750
-2818
-2860
-2890
-2900
-2878
-2832
-2786
-2746
-2697
-2613
-2478
-2302
-2125
-1983
-1891
-1837
-1806
-1782
-1762
-1733
-1687
-1633
-1590
-1573
-1568
-1547
-1495
-1433
-1394
-1387
-1383
-1351
-1299
-1268
-1289
-1342
-1376
-1363
-1329
-1324
-1368
-1421
-1420
-1359
-1291
-1275
-1314
-1362
-1393
-1415
-1447
-1475
-1458
-1405
-1379
-1416
-1479
-1491
-1426
-1332
-1263
-1237
-1233
-1248
-1274
-1258
-1137
-935
-778
-772
-869
-908
-806
-654
-596
-658
-733
-735
-710
-771
-916
-1014
-953
-765
-585
-503
-489
-444
-314
-148
-46
-71
-197
-349
-462
-531
-579
-604
-565
-469
-388
-396
-476
-535
-514
-466
-490
-600
-708
-731
-680
-618
-574
-524
-458
-433
-497
-625
-728
-753
-719
-683
-664
-642
-603
-569
-553
-542
-520
-499
-515
-580
-661
-710
-712
-703
-715
-738
-732
-676
-607
-588
-631
-679
-664
-586
-528
-555
-638
-678
-610
-489
-424
-464
-542
-553
-477
-392
-371
-393
-381
-310
-236
-220
-241
-221
-135
-43
-33
-117
-226
-296
-305
-272
-218
-156
-103
-73
-42
25
121
178
140
37
-43
-54
-42
-77
-148
-168
-86
33
86
51
9
32
94
96
-20
-213
-400
-532
-622
-711
-804
-878
-928
-991
-1105
-1283
-1474
-1617
-1689
-1706
-1653
-1468
-1083
-495
201
876
1443
1900
2295
2663
2997
3223
3260
3116
2924
2845
2888
2888
2676
2264
1840
1554
1359
1106
743
389
196
174
208
199
153
116
92
30
-91
-232
-327
-337
-273
-169
-66
18
67
90
93
67
7
-63
-82
-23
13
-162
-628
-1197
-1505
-1333
-829
-374
-200
-164
59
598
1223
1568
1465
1057
615
310
152
66
-2
-71
-123
-127
-67
44
155
218
200
106
-39
-191
-291
-299
-232
-155
-131
-169
-230
-287
-348
-421
-486
-492
-417
-296
-206
-202
-280
-386
-449
-435
-371
-307
-270
-244
-204
-146
-89
-47
-12
24
49
53
51
83
166
269
338
353
345
368
434
508
546
528
465
382
319
316
385
491
571
602
628
720
888
1051
1110
1047
928
831
776
736
689
645
614
586
544
495
469
473
473
419
306
178
91
65
72
74
70
76
95
98
63
0
-48
-73
-112
-192
-277
-296
-237
-168
-162
-211
-238
-194
-116
-79
-110
-163
-191
-191
-182
-177
-169
-173
-206
-269
-328
-349
-349
-377
-454
-536
-550
-474
-355
-263
-231
-255
-330
-463
-645
-823
-945
-1019
-1106
-1237
-1350
-1347
-1207
-1023
-907
-881
-881
-861
-842
-864
-916
-941
-910
-862
-852
-872
-865
-790
-693
-648
-676
-722
-731
-720
-740
-801
-825
-749
-608
-520
-561
-680
-762
-747
-681
-658
-713
-808
-874
-880
-832
-768
-728
-727
-746
-763
-781
-811
-855
-902
-933
-947
-953
-951
-942
-934
-932
-924
-907
-924
-1059
-1353
-1735
-2062
-2221
-2217
-2134
-2047
-1937
-1687
-1167
-347
611
1408
1827
1909
1916
2069
2340
2496
2368
2039
1761
1714
1849
1975
1939
1720
1404
1084
796
529
259
-3
-204
-316
-354
-364
-376
-385
-372
-349
-369
-483
-692
-916
-1054
-1094
-1139
-1315
-1604
-1798
-1668
-1197
-645
-322
-283
-304
-158
111
226
-26
-569
-1132
-1519
-1737
-1876
-1966
-2015
-2147
-2560
-3279
-3982
-4256
-4043
-3756
-3862
-4353
-4698
-4366
-3395
-2340
-1728
-1607
-1627
-1486
-1198
-968
-921
-1016
-1165
-1336
-1514
-1651
-1707
-1726
-1809
-1982
-2124
-2073
-1798
-1438
-1153
-961
-759
-488
-232
-128
-187
-259
-162
141
523
833
1034
1207
1434
1720
2023
2305
2557
2775
2944
3084
3243
3438
3598
3617
3490
3331
3245
3182
2984
2587
2140
1872
1860
1952
1952
1821
1668
1571
1474
1263
921
550
267
72
-116
-341
-533
-561
-403
-201
-156
-354
-714
-1138
-1668
-2415
-3330
-4091
-4316
-3896
-3083
-2219
-1401
-470
692
1931
2891
3295
3156
2711
2234
1872
1628
1450
1321
1280
1378
1610
1899
2151
2321
2401
2390
2299
2159
2047
2032
2131
2301
2467
2556
2530
2418
2308
2283
2349
2440
2498
2523
2533
2511
2434
2343
2328
2431
2586
2687
2708
2724
2805
2931
3015
2995
2882
2731
2600
2531
2545
2623
2695
2688
2601
2503
2463
2479
2477
2395
2247
2098
1993
1917
1834
1732
1617
1481
1289
1020
706
424
219
86
-3
-56
-75
-73
-74
-88
-97
-83
-65
-64
-78
-72
-35
18
70
131
211
287
325
331
356
437
552
642
682
695
704
698
653
585
529
494
442
345
230
174
226
352
477
552
605
726
991
1395
1851
2247
2531
2738
2943
3180
3419
3602
3712
3767
3788
3784
3753
3700
3620
3476
3226
2872
2466
2073
1720
1405
1139
950
849
800
757
719
707
725
721
636
474
299
161
49
-80
-239
-379
-452
-463
-457
-456
-439
-384
-305
-233
-177
-126
-80
-67
-102
-155
-178
-152
-108
-80
-56
-7
65
131
164
182
209
239
261
283
335
423
509
556
568
586
622
650
641
604
577
579
596
613
634
670
711
737
753
790
867
953
991
963
916
909
946
971
939
903
977
1227
1585
1910
2112
2213
2298
2403
2482
2477
2374
2219
2073
1980
1972
2063
2222
2390
2522
2627
2735
2838
2880
2812
2668
2530
2455
2429
2404
2367
2350
2387
2463
2522
2520
2469
2415
2380
2345
2289
2219
2167
2139
2100
2019
1922
1862
1862
1880
1871
1847
1853
1898
1937
1930
1902
1906
1950
1981
1966
1932
1913
1908
1884
1841
1818
1842
1887
1918
1940
1987
2064
2126
2139
2119
2109
2124
2152
2181
2212
2237
2233
2200
2181
2225
2308
2342
2269
2128
2020
1996
2011
1995
1938
1899
1916
1942
1903
1781
1642
1560
1532
1492
1395
1278
1222
1258
1334
1374
1354
1306
1254
1191
1094
963
820
676
534
398
289
217
166
108
38
-27
-81
-140
-230
-348
-468
-569
-648
-727
-817
-891
-910
-853
-737
-594
-440
-278
-140
-124
-359
-901
-1634
-2286
-2574
-2385
-1856
-1249
-725
-211
485
1397
2268
2710
2536
1915
1214
690
349
72
-197
-407
-495
-464
-368
-270
-231
-307
-533
-869
-1215
-1473
-1583
-1510
-1241
-808
-317
101
378
554
740
1012
1350
1663
1893
2035
2095
2063
1944
1783
1602
1338
889
241
-454
-999
-1334
-1542
-1679
-1666
-1414
-982
-554
-233
54
389
677
705
406
-37
-375
-537
-649
-829
-1056
-1224
-1282
-1270
-1256
-1275
-1334
-1433
-1557
-1672
-1771
-1877
-1998
-2095
-2133
-2139
-2175
-2265
-2352
-2370
-2345
-2390
-2581
-2849
-3029
-3026
-2907
-2830
-2877
-2966
-2955
-2796
-2591
-2496
-2583
-2799
-3035
-3218
-3345
-3443
-3537
-3656
-3799
-3917
-3939
-3854
-3744
-3721
-3826
-4023
-4269
-4538
-4765
-4824
-4644
-4335
-4131
-4131
-4167
-3981
-3546
-3146
-3077
-3345
-3672
-3791
-3686
-3528
-3467
-3497
-3514
-3428
-3220
-2937
-2655
-2443
-2325
-2275
-2246
-2206
-2153
-2095
-2037
-1995
-1987
-2018
-2074
-2138
-2203
-2267
-2319
-2345
-2343
-2324
-2305
-2289
-2274
-2276
-2304
-2341
-2347
-2298
-2231
-2205
-2241
-2279
-2249
-2159
-2103
-2171
-2326
-2436
-2414
-2313
-2257
-2281
-2290
-2185
-1979
-1751
-1534
-1307
-1083
-934
-901
-922
-925
-974
-1227
-1747
-2380
-2885
-3141
-3179
-3034
-2673
-2099
-1423
-782
-214
322
789
1018
879
454
-32
-412
-689
-919
-1085
-1139
-1103
-1052
-1005
-900
-728
-615
-701
-940
-1126
-1117
-987
-904
-904
-853
-655
-421
-357
-519
-759
-904
-943
-984
-1103
-1265
-1400
-1476
-1503
-1484
-1415
-1314
-1231
-1194
-1196
-1219
-1262
-1324
-1388
-1436
-1469
-1482
-1452
-1352
-1191
-1012
-863
-761
-695
-662
-657
-658
-641
-611
-609
-664
-758
-833
-847
-817
-797
-813
-837
-812
-707
-554
-424
-369
-381
-403
-409
-428
-505
-648
-822
-1001
-1186
-1369
-1509
-1569
-1554
-1498
-1399
-1190
-827
-392
-22
238
487
848
1298
1663
1798
1740
1663
1675
1730
1706
1549
1330
1117
891
600
261
-34
-237
-428
-707
-1038
-1261
-1262
-1135
-1093
-1245
-1471
-1556
-1428
-1238
-1187
-1322
-1506
-1580
-1511
-1407
-1396
-1504
-1652
-1745
-1752
-1714
-1679
-1655
-1617
-1553
-1494
-1478
-1506
-1525
-1480
-1390
-1343
-1414
-1571
-1680
-1630
-1441
-1258
-1219
-1327
-1464
-1524
-1506
-1482
-1493
-1515
-1526
-1541
-1571
-1578
-1508
-1386
-1309
-1362
-1521
-1658
-1667
-1569
-1486
-1512
-1623
-1709
-1675
-1536
-1420
-1443
-1596
-1739
-1738
-1607
-1483
-1471
-1533
-1556
-1504
-1456
-1485
-1556
-1580
-1551
-1557
-1657
-1775
-1767
-1595
-1375
-1262
-1297
-1377
-1358
-1194
-980
-873
-955
-1143
-1272
-1251
-1147
-1087
-1108
-1142
-1117
-1043
-990
-992
-1044
-1147
-1304
-1449
-1444
-1246
-1022
-1027
-1330
-1690
-1758
-1422
-901
-508
-337
-220
68
568
1115
1512
1674
1639
1483
1262
1029
859
810
853
881
815
702
670
800
1019
1155
1108
926
741
637
607
615
640
696
771
799
713
514
301
194
225
316
361
346
342
409
509
539
451
303
175
82
-30
-174
-273
-242
-78
135
318
466
622
798
954
1025
978
830
637
458
329
256
214
185
178
201
257
343
456
576
651
644
580
544
599
713
796
801
773
793
879
978
1031
1037
1042
1065
1089
1096
1091
1088
1084
1067
1037
1014
1010
1014
1007
976
928
873
816
764
732
725
728
720
694
659
628
589
522
400
219
4
-182
-277
-281
-274
-326
-402
-355
-70
409
909
1297
1588
1873
2183
2465
2672
2814
2914
2948
2871
2708
2543
2422
2298
2077
1730
1320
932
605
339
131
-28
-157
-276
-379
-439
-449
-442
-455
-495
-546
-624
-743
-877
-958
-948
-899
-906
-1004
-1119
-1143
-1066
-984
-991
-1062
-1085
-1001
-890
-896
-1060
-1273
-1393
-1381
-1323
-1309
-1332
-1318
-1221
-1076
-950
-885
-890
-952
-1043
-1122
-1164
-1203
-1300
-1459
-1605
-1656
-1620
-1587
-1625
-1709
-1761
-1742
-1686
-1637
-1602
-1562
-1520
-1495
-1497
-1515
-1542
-1585
-1639
-1670
-1648
-1586
-1527
-1505
-1504
-1485
-1439
-1409
-1443
-1536
-1630
-1663
-1641
-1635
-1693
-1778
-1798
-1714
-1603
-1583
-1681
-1792
-1796
-1685
-1571
-1550
-1613
-1676
-1683
-1638
-1581
-1539
-1525
-1542
-1580
-1593
-1551
-1462
-1362
-1273
-1204
-1195
-1313
-1572
-1860
-2001
-1921
-1711
-1522
-1381
-1168
-767
-224
274
578
680
674
618
496
299
100
1
-2
-9
-86
-158
-93
126
344
393
270
128
81
86
30
-125
-299
-398
-410
-364
-262
-128
-43
-96
-262
-377
-319
-173
-165
-404
-743
-924
-840
-620
-441
-336
-218
-31
166
290
323
308
278
223
131
28
-50
-85
-93
-102
-139
-210
-270
-248
-139
-58
-125
-298
-356
-164
93
21
-587
-1489
-2222
-2527
-2499
-2350
-2136
-1783
-1275
-684
-20
759
1496
1751
1161
-69
-1203
-1616
-1366
-1030
-1025
-1150
-866
31
1162
1929
2070
1796
1463
1195
883
461
107
77
404
818
1028
1036
1091
1352
1665
1723
1453
1111
1000
1151
1328
1327
1187
1090
1127
1214
1228
1179
1209
1449
1878
2354
2749
3042
3307
3599
3886
4112
4277
4413
4492
4431
4206
3933
3779
3762
3716
3466
3033
2619
2399
2344
2273
2059
1751
1488
1355
1315
1274
1197
1128
1126
1179
1205
1148
1055
1021
1074
1126
1084
963
850
765
605
280
-153
-545
-839
-1108
-1383
-1506
-1263
-647
78
639
998
1299
1601
1767
1642
1262
843
564
449
440
529
742
1061
1394
1660
1832
1914
1890
1751
1542
1348
1240
1223
1258
1309
1380
1470
1556
1594
1551
1447
1345
1294
1296
1311
1333
1400
1532
1664
1686
1578
1453
1438
1531
1607
1575
1498
1506
1637
1791
1856
1836
1822
1848
1846
1751
1609
1543
1601
1703
1747
1741
1776
1888
1981
1930
1740
1555
1494
1533
1563
1540
1534
1619
1769
1873
1857
1750
1619
1492
1354
1209
1099
1063
1097
1160
1227
1300
1374
1429
1443
1420
1388
1370
1374
1404
1471
1570
1659
1689
1653
1601
1576
1571
1539
1469
1418
1441
1517
1564
1527
1439
1368
1333
1288
1198
1086
1010
988
984
960
910
849
779
688
594
524
480
431
355
269
208
173
116
7
-135
-262
-360
-458
-576
-684
-720
-660
-551
-467
-442
-437
-387
-268
-130
-48
-53
-89
-74
21
144
221
235
237
269
308
311
280
283
368
490
553
516
433
390
414
461
483
468
433
390
349
343
408
540
670
735
741
767
871
1039
1194
1283
1315
1333
1370
1438
1535
1645
1735
1770
1727
1620
1491
1374
1271
1150
964
703
427
251
270
469
723
909
1032
1228
1620
2175
2715
3080
3258
3386
3601
3949
4364
4729
4955
5028
5017
5008
5028
5006
4850
4545
4166
3786
3414
3045
2733
2566
2555
2583
2505
2331
2227
2324
2543
2644
2468
2104
1785
1647
1620
1551
1383
1203
1118
1140
1200
1257
1325
1432
1560
1663
1729
1787
1865
1948
2005
2031
2059
2121
2204
2270
2307
2351
2438
2549
2611
2571
2460
2381
2405
2496
2544
2491
2382
2314
2320
2339
2281
2116
1872
1597
1347
1182
1144
1213
1307
1365
1403
1478
1596
1689
1692
1623
1552
1515
1504
1521
1610
1803
2056
2265
2362
2370
2363
2392
2439
2449
2378
2222
2025
1857
1771
1756
1745
1687
1582
1469
1368
1264
1145
1025
918
817
697
558
426
337
301
298
302
307
325
362
397
395
352
326
398
577
774
883
902
942
1108
1361
1560
1598
1494
1354
1248
1175
1103
1007
874
711
536
383
255
85
-208
-614
-997
-1212
-1241
-1195
-1185
-1208
-1184
-1053
-821
-551
-298
-94
60
193
349
534
700
796
838
901
1023
1127
1098
925
729
639
655
661
573
431
335
346
435
527
569
539
448
337
263
265
333
423
499
552
584
588
572
549
528
522
548
600
616
487
181
-175
-383
-370
-273
-274
-367
-352
-82
349
699
844
864
892
924
842
595
275
27
-106
-193
-312
-460
-571
-596
-562
-545
-601
-717
-844
-951
-1064
-1201
-1334
-1417
-1476
-1606
-1853
-2134
-2315
-2379
-2451
-2630
-2851
-2951
-2889
-2812
-2898
-3157
-3437
-3601
-3649
-3668
-3717
-3801
-3878
-3881
-3733
-3399
-2942
-2507
-2190
-1952
-1690
-1339
-919
-522
-273
-259
-453
-707
-894
-1050
-1307
-1676
-1982
-2105
-2215
-2594
-3243
-3794
-3925
-3764
-3720
-3926
-4041
-3687
-2931
-2202
-1779
-1540
-1253
-963
-940
-1300
-1829
-2232
-2436
-2595
-2856
-3176
-3383
-3362
-3146
-2877
-2712
-2714
-2831
-2947
-2996
-2997
-2990
-2960
-2865
-2706
-2552
-2461
-2414
-2344
-2218
-2068
-1937
-1813
-1655
-1448
-1223
-1026
-881
-797
-783
-825
-882
-933
-1053
-1394
-2031
-2817
-3423
-3579
-3284
-2773
-2287
-1863
-1374
-751
-116
303
359
81
-407
-994
-1594
-2114
-2467
-2642
-2729
-2829
-2957
-3045
-3047
-3014
-3043
-3168
-3331
-3458
-3524
-3532
-3471
-3316
-3092
-2891
-2798
-2822
-2885
-2912
-2893
-2858
-2813
-2728
-2604
-2492
-2435
-2407
-2333
-2183
-2013
-1890
-1791
-1627
-1359
-1049
-805
-664
-573
-467
-346
-255
-204
-165
-137
-166
-250
-309
-253
-112
-29
-93
-214
-227
-100
18
-12
-134
-172
-51
94
102
-22
-117
-79
13
-8
-187
-419
-569
-605
-587
-585
-628
-715
-826
-928
-997
-1045
-1121
-1245
-1354
-1374
-1309
-1231
-1181
-1120
-988
-820
-738
-812
-971
-1079
-1087
-1075
-1135
-1265
-1389
-1452
-1464
-1442
-1387
-1305
-1243
-1241
-1276
-1285
-1232
-1148
-1090
-1086
-1133
-1201
-1237
-1193
-1077
-966
-934
-967
-969
-878
-747
-696
-756
-847
-871
-839
-836
-889
-924
-860
-722
-611
-577
-563
-506
-438
-445
-544
-641
-644
-574
-529
-549
-562
-475
-298
-135
-78
-110
-153
-167
-183
-241
-316
-345
-299
-228
-202
-225
-234
-200
-201
-346
-639
-947
-1140
-1222
-1285
-1341
-1259
-912
-354
218
658
1004
1369
1794
2222
2574
2811
2913
2892
2819
2794
2814
2734
2412
1877
1319
888
559
227
-128
-414
-572
-646
-709
-760
-743
-648
-535
-467
-462
-504
-559
-565
-469
-302
-202
-282
-486
-636
-635
-578
-622
-779
-913
-906
-783
-651
-579
-579
-662
-842
-1071
-1266
-1394
-1489
-1554
-1507
-1269
-903
-582
-404
-290
-112
106
188
11
-329
-614
-737
-760
-803
-889
-952
-933
-855
-777
-724
-698
-718
-820
-980
-1109
-1113
-994
-855
-786
-779
-762
-705
-644
-613
-595
-564
-530
-513
-492
-421
-310
-223
-196
-182
-118
-28
13
-13
-23
39
126
151
106
71
96
138
129
72
22
-5
-49
-123
-182
-190
-185
-223
-289
-307
-241
-150
-116
-141
-158
-118
-37
33
58
38
-8
-39
-17
57
131
160
157
182
263
362
428
460
489
511
490
421
365
382
453
506
508
512
579
697
791
819
812
809
800
753
666
583
531
493
438
366
301
253
210
161
126
129
150
146
97
41
27
46
39
-27
-120
-175
-192
-234
-355
-509
-592
-564
-502
-513
-614
-709
-705
-619
-559
-604
-716
-801
-809
-779
-782
-835
-889
-894
-849
-799
-779
-786
-794
-779
-743
-713
-708
-730
-761
-774
-758
-721
-684
-668
-677
-702
-729
-751
-764
-772
-786
-811
-836
-844
-828
-807
-812
-853
-903
-925
-908
-882
-878
-896
-915
-920
-920
-933
-964
-1005
-1061
-1155
-1291
-1445
-1579
-1692
-1810
-1937
-2033
-2065
-2047
-2010
-1924
-1696
-1283
-772
-319
3
266
589
997
1395
1667
1778
1779
1740
1705
1670
1593
1413
1107
717
327
-6
-286
-546
-793
-1002
-1157
-1272
-1375
-1468
-1522
-1528
-1526
-1579
-1694
-1807
-1837
-1789
-1763
-1821
-1877
-1809
-1674
-1767
-2334
-3240
-3992
-4167
-3793
-3268
-2904
-2627
-2137
-1299
-321
441
774
705
393
-9
-386
-662
-824
-919
-998
-1033
-938
-699
-436
-323
-417
-622
-798
-914
-1047
-1236
-1396
-1396
-1198
-912
-717
-712
-869
-1075
-1222
-1269
-1248
-1230
-1268
-1353
-1442
-1499
-1524
-1529
-1506
-1440
-1356
-1309
-1309
-1308
-1255
-1174
-1138
-1161
-1141
-978
-723
-559
-615
-800
-897
-818
-708
-759
-932
-963
-665
-185
112
5
-368
-678
-748
-688
-730
-978
-1339
-1624
-1714
-1634
-1543
-1632
-1999
-2552
-3062
-3332
-3297
-3018
-2600
-2104
-1542
-934
-325
213
597
772
703
368
-227
-984
-1670
-2005
-1875
-1448
-1027
-772
-572
-231
269
732
958
932
777
590
402
244
190
271
401
455
427
458
674
1037
1370
1541
1585
1628
1754
1920
2040
2076
2059
2033
2005
1950
1856
1726
1575
1430
1336
1339
1454
1642
1822
1908
1865
1727
1574
1467
1397
1289
1097
858
674
619
666
721
721
681
655
669
690
670
593
490
402
344
296
232
148
76
53
95
201
343
483
589
662
738
858
1018
1150
1144
944
603
270
89
82
134
107
6
14
339
1016
1861
2641
3259
3763
4220
4616
4880
4964
4861
4574
4125
3598
3143
2879
2816
2851
2868
2859
2909
3103
3440
3828
4150
4350
4467
4589
4776
5006
5209
5325
5343
5293
5209
5109
4983
4802
4543
4211
3831
3444
3095
2822
2623
2453
2262
2049
1884
1841
1909
1989
1988
1912
1830
1773
1692
1534
1331
1171
1086
1012
872
678
527
486
526
553
507
412
325
281
271
257
205
108
0
-72
-95
-116
-195
-326
-436
-464
-438
-450
-554
-690
-752
-691
-570
-497
-520
-595
-642
-626
-575
-539
-538
-553
-557
-548
-541
-544
-541
-525
-503
-489
-483
-487
-510
-564
-637
-702
-748
-802
-881
-953
-963
-906
-851
-860
-913
-929
-875
-816
-836
-938
-1047
-1086
-1049
-993
-970
-994
-1034
-1045
-1002
-944
-952
-1071
-1248
-1367
-1364
-1270
-1151
-1018
-835
-594
-333
-91
140
367
558
657
673
670
683
674
612
542
539
608
675
683
661
663
686
686
654
632
632
608
529
451
472
599
724
741
656
579
592
691
810
887
888
813
724
736
924
1221
1467
1560
1570
1653
1851
2029
2032
1876
1719
1673
1680
1608
1452
1355
1430
1597
1668
1578
1457
1466
1581
1635
1521
1312
1144
1061
1001
945
989
1219
1558
1789
1759
1519
1267
1145
1111
998
688
237
-159
-314
-189
92
345
476
530
608
753
913
998
976
881
765
664
615
647
763
921
1055
1139
1195
1259
1335
1393
1407
1384
1352
1327
1294
1229
1126
1006
906
863
884
939
974
949
872
782
724
695
651
547
403
295
289
369
460
534
666
959
1400
1833
2096
2182
2237
2406
2690
2953
3064
3014
2909
2868
2925
3004
2995
2847
2612
2387
2230
2132
2050
1961
1871
1778
1677
1580
1518
1473
1383
1193
943
730
599
513
422
355
369
427
375
100
-319
-644
-708
-569
-427
-409
-452
-385
-112
295
668
863
849
698
511
349
208
47
-150
-351
-508
-597
-633
-632
-588
-493
-377
-313
-343
-427
-480
-465
-433
-468
-582
-714
-819
-914
-1017
-1068
-989
-814
-717
-838
-1119
-1354
-1422
-1428
-1572
-1892
-2220
-2369
-2340
-2277
-2277
-2292
-2223
-2063
-1895
-1773
-1672
-1544
-1408
-1326
-1319
-1337
-1329
-1302
-1289
-1301
-1296
-1249
-1187
-1147
-1131
-1099
-1022
-919
-830
-773
-731
-684
-630
-570
-498
-397
-273
-157
-86
-75
-105
-129
-110
-38
61
151
205
217
205
218
303
454
591
613
502
363
327
407
496
486
399
353
413
521
576
549
499
483
495
503
502
494
444
311
122
-27
-76
-90
-200
-442
-716
-891
-964
-1043
-1215
-1443
-1615
-1674
-1663
-1643
-1621
-1567
-1496
-1470
-1537
-1657
-1731
-1704
-1626
-1604
-1692
-1826
-1888
-1823
-1698
-1624
-1636
-1670
-1647
-1583
-1545
-1571
-1614
-1610
-1570
-1557
-1581
-1564
-1447
-1285
-1218
-1299
-1425
-1439
-1312
-1175
-1169
-1279
-1352
-1274
-1095
-969
-991
-1106
-1178
-1129
-1015
-961
-1042
-1197
-1300
-1298
-1248
-1240
-1280
-1290
-1225
-1161
-1199
-1333
-1452
-1487
-1517
-1683
-2019
-2421
-2767
-3019
-3219
-3364
-3392
-3246
-2924
-2484
-2009
-1586
-1274
-1069
-940
-912
-1071
-1445
-1870
-2065
-1904
-1545
-1253
-1094
-896
-507
-20
343
496
558
657
760
756
658
613
696
777
650
287
-136
-436
-614
-806
-1075
-1328
-1441
-1410
-1341
-1308
-1292
-1253
-1222
-1276
-1439
-1616
-1672
-1573
-1425
-1353
-1387
-1453
-1460
-1385
-1282
-1221
-1246
-1342
-1432
-1436
-1340
-1231
-1220
-1315
-1402
-1385
-1314
-1322
-1439
-1551
-1552
-1488
-1494
-1600
-1689
-1641
-1489
-1356
-1316
-1346
-1402
-1460
-1467
-1349
-1127
-983
-1093
-1397
-1617
-1564
-1366
-1313
-1515
-1798
-1926
-1862
-1751
-1722
-1765
-1805
-1821
-1825
-1788
-1688
-1575
-1543
-1614
-1704
-1730
-1694
-1657
-1642
-1634
-1612
-1572
-1522
-1476
-1468
-1516
-1553
-1468
-1259
-1111
-1245
-1602
-1827
-1641
-1187
-907
-1042
-1364
-1463
-1223
-932
-896
-1115
-1344
-1413
-1376
-1348
-1317
-1182
-958
-794
-790
-864
-853
-719
-595
-607
-709
-742
-621
-446
-368
-393
-390
-259
-70
28
-15
-125
-227
-315
-374
-339
-184
-41
-127
-463
-769
-741
-421
-198
-369
-784
-1031
-903
-598
-430
-460
-513
-484
-468
-568
-702
-705
-578
-514
-660
-917
-1041
-926
-704
-592
-662
-810
-902
-889
-807
-710
-653
-666
-725
-753
-690
-585
-540
-593
-656
-621
-504
-437
-505
-627
-642
-497
-306
-214
-243
-294
-278
-208
-158
-171
-227
-276
-294
-303
-325
-339
-291
-161
6
128
165
172
244
397
527
505
311
78
-38
-11
59
83
83
138
252
331
296
186
94
34
-67
-247
-421
-470
-387
-276
-223
-201
-155
-117
-188
-457
-914
-1450
-1913
-2189
-2272
-2251
-2202
-2082
-1728
-1044
-180
543
894
908
798
746
792
906
1076
1304
1557
1789
1999
2230
2479
2625
2514
2100
1511
949
531
237
-19
-246
-376
-365
-277
-233
-289
-373
-392
-356
-373
-500
-641
-659
-541
-391
-300
-260
-232
-234
-314
-439
-491
-417
-303
-258
-272
-266
-236
-280
-427
-562
-570
-509
-534
-674
-776
-693
-483
-315
-266
-286
-316
-371
-465
-538
-556
-593
-748
-967
-1060
-921
-686
-581
-667
-798
-828
-771
-748
-819
-929
-992
-985
-940
-883
-827
-791
-797
-844
-917
-1003
-1082
-1131
-1136
-1120
-1114
-1112
-1085
-1022
-967
-962
-987
-989
-959
-948
-986
-1022
-973
-843
-739
-743
-825
-883
-865
-808
-764
-728
-672
-615
-602
-620
-590
-453
-270
-180
-252
-408
-498
-460
-357
-295
-314
-366
-382
-333
-244
-149
-85
-84
-154
-263
-347
-362
-313
-248
-204
-180
-147
-84
10
109
174
177
126
67
33
5
-59
-157
-218
-181
-77
-8
-41
-129
-159
-99
-33
-54
-154
-232
-230
-211
-281
-449
-595
-594
-454
-308
-275
-340
-388
-342
-234
-170
-218
-361
-531
-661
-719
-715
-685
-674
-695
-708
-669
-575
-475
-420
-420
-446
-477
-520
-572
-614
-633
-643
-661
-672
-654
-618
-612
-649
-674
-617
-485
-378
-380
-461
-515
-484
-411
-387
-443
-534
-599
-620
-619
-622
-636
-647
-638
-599
-551
-528
-537
-532
-475
-416
-450
-576
-672
-629
-508
-472
-570
-667
-658
-671
-953
-1527
-2075
-2241
-2011
-1694
-1544
-1475
-1216
-661
-10
437
552
452
338
321
377
433
467
547
773
1167
1626
1997
2207
2291
2320
2314
2215
1976
1598
1134
688
371
238
235
230
130
-23
-100
-31
137
262
201
-113
-629
-1185
-1572
-1639
-1403
-1015
-635
-294
99
633
1242
1709
1818
1542
1055
560
122
-300
-692
-917
-855
-581
-321
-206
-147
41
366
615
583
293
-49
-266
-341
-364
-427
-573
-793
-1015
-1151
-1209
-1374
-1874
-2712
-3575
-4075
-4070
-3763
-3423
-3098
-2616
-1845
-888
-31
476
565
325
-107
-603
-1060
-1392
-1555
-1565
-1501
-1422
-1328
-1163
-900
-607
-422
-411
-507
-572
-551
-494
-442
-357
-189
-3
65
-43
-221
-303
-234
-81
84
263
477
694
841
899
925
975
1042
1094
1130
1176
1244
1313
1374
1464
1615
1810
1988
2106
2165
2195
2207
2213
2225
2237
2220
2150
2040
1933
1869
1851
1853
1854
1849
1855
1912
2032
2156
2153
1907
1446
951
630
571
717
944
1191
1496
1930
2513
3162
3708
3982
3925
3613
3187
2747
2319
1916
1568
1279
1019
760
546
459
503
549
467
265
76
0
6
4
-36
-66
-70
-120
-284
-523
-686
-637
-390
-88
119
184
162
131
125
141
171
207
203
87
-164
-439
-549
-381
6
458
891
1352
1919
2573
3193
3660
3946
4063
4028
3873
3684
3568
3573
3642
3697
3718
3761
3867
4006
4111
4145
4107
3998
3825
3621
3453
3367
3337
3290
3182
3034
2881
2708
2473
2201
1999
1947
1996
1997
1849
1600
1374
1227
1095
889
614
370
254
268
339
411
490
620
813
1029
1223
1401
1613
1884
2178
2438
2656
2871
3113
3336
3450
3420
3289
3118
2903
2597
2191
1754
1384
1122
936
772
599
427
284
200
175
156
68
-108
-294
-389
-390
-399
-509
-698
-859
-914
-890
-860
-866
-895
-925
-965
-1037
-1155
-1290
-1387
-1396
-1313
-1189
-1089
-1025
-949
-815
-644
-519
-512
-613
-743
-826
-840
-817
-806
-827
-861
-874
-863
-874
-953
-1104
-1287
-1454
-1585
-1677
-1725
-1730
-1706
-1675
-1637
-1575
-1499
-1459
-1513
-1665
-1872
-2083
-2271
-2422
-2524
-2567
-2547
-2466
-2284
-1954
-1494
-1008
-623
-398
-316
-339
-446
-619
-804
-929
-958
-906
-798
-629
-398
-140
92
271
416
540
615
601
526
495
598
825
1044
1137
1148
1239
1487
1790
1967
1979
1954
1977
1948
1729
1410
1317
1668
2283
2716
2694
2346
1984
1738
1435
838
-82
-1112
-1967
-2456
-2548
-2345
-1993
-1605
-1215
-819
-447
-171
-47
-70
-180
-313
-426
-475
-408
-219
40
297
502
634
686
670
635
643
729
862
973
1012
987
946
924
915
898
881
913
1031
1223
1427
1591
1707
1806
1911
2021
2121
2200
2250
2261
2238
2209
2209
2235
2240
2195
2123
2071
2052
2031
1992
1967
1988
2034
2040
1978
1900
1882
1936
1994
1988
1907
1792
1699
1666
1699
1758
1780
1738
1658
1602
1602
1626
1603
1494
1339
1226
1212
1270
1307
1252
1140
1073
1099
1136
1027
686
195
-248
-478
-476
-357
-254
-207
-141
30
283
474
473
288
34
-196
-414
-650
-853
-931
-863
-745
-673
-620
-491
-280
-116
-117
-251
-359
-312
-112
140
352
509
662
851
1070
1248
1306
1220
1037
819
567
252
-107
-439
-710
-1028
-1553
-2291
-2987
-3291
-3055
-2456
-1837
-1399
-1067
-610
74
832
1384
1548
1328
862
359
36
7
161
202
-38
-299
-15
1106
2640
3694
3701
2918
2078
1615
1314
689
-417
-1665
-2581
-2937
-2792
-2323
-1716
-1159
-810
-704
-734
-803
-938
-1247
-1685
-1994
-1904
-1380
-640
78
709
1312
1860
2142
1958
1367
684
215
30
-12
-50
-101
-125
-134
-190
-298
-369
-345
-299
-373
-595
-825
-911
-872
-882
-1064
-1345
-1547
-1597
-1589
-1643
-1755
-1815
-1742
-1565
-1389
-1308
-1361
-1532
-1759
-1980
-2167
-2347
-2533
-2673
-2681
-2548
-2386
-2305
-2291
-2215
-2000
-1744
-1624
-1679
-1766
-1727
-1590
-1538
-1683
-1914
-2020
-1931
-1784
-1736
-1757
-1669
-1363
-956
-658
-560
-570
-548
-460
-383
-382
-423
-411
-296
-99
125
335
519
670
782
843
854
823
755
649
519
415
395
465
556
579
512
407
317
250
161
19
-157
-314
-393
-359
-236
-124
-138
-295
-495
-608
-620
-658
-844
-1158
-1451
-1597
-1596
-1533
-1468
-1399
-1302
-1180
-1064
-976
-929
-936
-1002
-1102
-1185
-1227
-1251
-1288
-1325
-1311
-1230
-1123
-1044
-997
-944
-869
-799
-770
-768
-757
-742
-765
-826
-860
-806
-691
-614
-625
-666
-640
-529
-408
-359
-405
-510
-618
-674
-651
-569
-493
-482
-528
-574
-577
-556
-547
-578
-669
-831
-1030
-1174
-1180
-1081
-1016
-1080
-1205
-1246
-1151
-1026
-1011
-1127
-1262
-1284
-1153
-925
-689
-504
-363
-192
85
463
838
1096
1215
1270
1340
1434
1492
1453
1292
1033
725
424
173
2
-87
-123
-175
-308
-512
-686
-743
-732
-790
-987
-1234
-1377
-1370
-1289
-1209
-1120
-986
-844
-769
-764
-755
-689
-606
-599
-701
-856
-975
-1007
-975
-937
-946
-1018
-1098
-1102
-1011
-921
-942
-1066
-1156
-1111
-1005
-1022
-1226
-1468
-1533
-1390
-1204
-1146
-1196
-1216
-1149
-1096
-1165
-1316
-1415
-1426
-1452
-1572
-1711
-1719
-1560
-1359
-1248
-1254
-1323
-1417
-1526
-1619
-1649
-1629
-1643
-1734
-1823
-1804
-1678
-1561
-1559
-1662
-1758
-1781
-1767
-1796
-1898
-2011
-2030
-1900
-1681
-1500
-1451
-1509
-1568
-1539
-1428
-1317
-1261
-1235
-1196
-1124
-1038
-979
-976
-1035
-1146
-1281
-1406
-1502
-1563
-1570
-1508
-1399
-1285
-1199
-1129
-1034
-900
-780
-730
-765
-843
-914
-950
-933
-850
-709
-566
-492
-497
-494
-386
-195
-65
-121
-320
-475
-460
-340
-296
-409
-573
-611
-469
-271
-179
-205
-237
-172
-54
-42
-204
-417
-490
-384
-262
-295
-443
-501
-355
-128
-28
-81
-137
-80
22
14
-135
-302
-378
-392
-432
-518
-604
-679
-808
-1022
-1235
-1317
-1238
-1103
-1009
-934
-781
-496
-144
165
378
507
573
579
531
462
406
371
341
299
254
211
156
83
10
-57
-145
-301
-526
-733
-821
-792
-754
-804
-909
-933
-791
-547
-347
-261
-222
-117
77
264
346
311
221
140
80
37
26
64
120
127
54
-52
-104
-64
9
19
-79
-237
-353
-362
-292
-251
-338
-564
-826
-983
-984
-921
-923
-997
-1004
-795
-396
15
286
439
618
898
1224
1504
1703
1850
1964
2044
2102
2168
2209
2129
1851
1442
1080
891
830
750
570
355
229
224
246
172
-30
-282
-484
-602
-666
-719
-752
-728
-641
-530
-444
-390
-345
-310
-301
-338
-417
-499
-535
-511
-467
-460
-508
-556
-554
-521
-535
-631
-731
-730
-640
-580
-623
-690
-648
-493
-368
-394
-524
-614
-587
-497
-437
-441
-490
-557
-615
-618
-547
-458
-456
-579
-744
-830
-810
-767
-788
-874
-965
-1018
-1039
-1043
-1030
-1003
-984
-1000
-1049
-1088
-1084
-1036
-979
-938
-912
-898
-910
-945
-964
-927
-856
-827
-874
-936
-910
-789
-689
-721
-850
-924
-854
-715
-645
-672
-699
-627
-476
-347
-305
-315
-320
-306
-295
-293
-280
-250
-225
-221
-221
-192
-129
-62
-23
-17
-27
-30
-12
31
94
151
175
170
177
228
306
357
338
269
199
167
166
156
97
-15
-140
-217
-225
-197
-181
-202
-239
-267
-284
-304
-363
-535
-926
-1584
-2374
-2975
-3074
-2615
-1840
-1066
-407
266
1117
2090
2903
3260
3090
2575
1985
1507
1193
1027
986
1042
1155
1272
1364
1436
1485
1472
1345
1092
768
480
328
357
541
790
979
1015
892
698
553
517
558
606
627
653
727
836
920
928
868
801
785
841
946
1050
1108
1119
1119
1157
1245
1337
1376
1348
1295
1272
1285
1299
1284
1233
1161
1075
965
836
717
640
602
562
486
391
333
332
320
179
-162
-627
-1018
-1155
-1026
-795
-670
-736
-924
-1112
-1255
-1394
-1561
-1703
-1707
-1476
-985
-273
565
1398
2092
2561
2808
2891
2861
2741
2543
2296
2040
1830
1719
1713
1745
1694
1484
1150
802
509
230
-95
-417
-581
-485
-203
79
231
272
306
402
564
779
1040
1334
1634
1917
2192
2471
2725
2922
3092
3334
3707
4119
4396
4469
4464
4560
4774
4937
4898
4715
4588
4629
4731
4706
4515
4282
4117
3971
3715
3323
2913
2604
2372
2098
1743
1413
1225
1175
1155
1088
999
939
889
788
632
498
442
431
393
322
276
286
309
275
202
169
208
255
214
86
-35
-60
11
99
136
127
125
173
252
302
282
203
120
69
22
-60
-161
-188
-64
199
513
811
1108
1469
1912
2369
2746
3001
3181
3359
3566
3765
3904
3997
4115
4310
4543
4728
4831
4902
5007
5134
5214
5216
5200
5247
5358
5455
5487
5473
5467
5487
5498
5478
5437
5400
5358
5289
5197
5113
5044
4961
4830
4651
4469
4320
4194
4072
3959
3875
3812
3719
3548
3312
3083
2911
2768
2584
2342
2116
1991
1971
1969
1912
1822
1778
1812
1857
1832
1743
1682
1717
1812
1874
1865
1848
1905
2042
2172
2219
2203
2204
2267
2359
2405
2375
2305
2254
2234
2220
2196
2174
2185
2234
2291
2324
2330
2315
2272
2184
2057
1919
1796
1682
1564
1457
1400
1401
1415
1389
1327
1274
1255
1229
1148
1026
933
911
943
993
1057
1143
1231
1284
1298
1329
1411
1493
1498
1420
1342
1351
1432
1505
1505
1435
1324
1191
1046
894
732
542
326
129
-9
-120
-294
-570
-876
-1100
-1218
-1327
-1519
-1769
-1961
-2002
-1902
-1732
-1532
-1284
-946
-508
0
516
982
1373
1699
2003
2331
2690
3031
3287
3434
3524
3632
3762
3820
3697
3396
3047
2786
2634
2502
2314
2095
1940
1914
1994
2107
2193
2230
2214
2155
2079
2027
2036
2115
2242
2382
2509
2630
2766
2920
3045
3079
2984
2786
2568
2395
2269
2129
1915
1641
1378
1203
1128
1092
1024
912
804
747
727
689
611
530
507
562
659
763
870
988
1090
1133
1110
1069
1052
1044
1005
938
915
996
1150
1285
1344
1359
1397
1473
1529
1516
1447
1393
1406
1481
1572
1639
1671
1689
1721
1778
1840
1876
1870
1833
1782
1732
1708
1730
1800
1875
1894
1840
1773
1775
1874
2015
2129
2202
2285
2433
2646
2875
3059
3175
3246
3323
3434
3556
3635
3638
3589
3542
3530
3545
3577
3625
3680
3710
3688
3633
3592
3577
3539
3419
3220
3001
2817
2669
2528
2391
2292
2263
2291
2328
2335
2310
2279
2251
2208
2109
1925
1656
1336
1021
768
608
527
483
441
397
382
423
511
605
663
665
629
588
569
581
613
644
667
681
692
691
671
633
592
563
547
527
476
385
277
201
175
152
49
-163
-419
-620
-733
-808
-894
-967
-956
-841
-679
-539
-437
-347
-265
-226
-259
-354
-471
-581
-666
-706
-676
-584
-466
-357
-257
-145
-28
56
72
40
12
33
111
210
294
355
434
557
679
703
594
454
422
502
550
464
353
423
693
915
847
553
338
394
579
601
369
75
-43
44
165
156
3
-199
-346
-384
-313
-191
-104
-113
-209
-339
-453
-552
-673
-865
-1152
-1488
-1748
-1803
-1638
-1383
-1202
-1135
-1085
-954
-771
-658
-673
-749
-787
-776
-787
-870
-980
-1052
-1100
-1217
-1472
-1831
-2170
-2385
-2461
-2452
-2431
-2444
-2507
-2596
-2673
-2714
-2741
-2808
-2951
-3152
-3343
-3470
-3537
-3599
-3699
-3827
-3941
-4017
-4066
-4092
-4056
-3921
-3707
-3491
-3351
-3299
-3283
-3264
-3261
-3322
-3468
-3667
-3839
-3909
-3843
-3667
-3449
-3257
-3097
-2938
-2767
-2634
-2620
-2744
-2933
-3083
-3157
-3213
-3319
-3459
-3556
-3567
-3549
-3602
-3756
-3931
-4033
-4049
-4053
-4097
-4155
-4144
-4021
-3840
-3690
-3629
-3661
-3757
-3891
-4063
-4282
-4541
-4780
-4893
-4790
-4490
-4116
-3802
-3585
-3395
-3155
-2880
-2655
-2547
-2546
-2576
-2568
-2502
-2405
-2325
-2303
-2356
-2475
-2622
-2762
-2875
-2948
-2962
-2890
-2717
-2470
-2194
-1936
-1706
-1500
-1341
-1280
-1350
-1508
-1651
-1696
-1654
-1606
-1614
-1659
-1668
-1607
-1521
-1493
-1561
-1689
-1806
-1869
-1889
-1901
-1927
-1962
-1994
-2023
-2043
-2045
-1990
-1857
-1677
-1522
-1450
-1460
-1487
-1461
-1367
-1275
-1288
-1436
-1632
-1722
-1628
-1425
-1284
-1295
-1392
-1427
-1347
-1238
-1226
-1317
-1408
-1409
-1347
-1308
-1323
-1337
-1293
-1207
-1125
-1054
-962
-860
-812
-837
-843
-699
-424
-200
-184
-333
-484
-551
-597
-697
-813
-882
-944
-1085
-1258
-1279
-1072
-832
-825
-1065
-1289
-1269
-1076
-962
-1048
-1201
-1231
-1125
-1013
-995
-1046
-1087
-1078
-1053
-1074
-1157
-1253
-1261
-1127
-901
-717
-664
-687
-666
-563
-472
-488
-593
-672
-644
-548
-498
-547
-635
-645
-535
-407
-399
-525
-617
-495
-187
37
-56
-387
-644
-615
-435
-430
-765
-1260
-1595
-1641
-1560
-1589
-1776
-1957
-1952
-1750
-1491
-1295
-1152
-972
-700
-368
-54
190
391
631
968
1375
1739
1937
1949
1895
1916
2005
1990
1708
1210
729
424
227
-47
-419
-681
-660
-449
-336
-474
-707
-768
-600
-438
-535
-858
-1134
-1140
-942
-815
-938
-1227
-1429
-1373
-1117
-871
-800
-907
-1079
-1180
-1166
-1094
-1062
-1104
-1158
-1131
-985
-763
-548
-389
-292
-254
-279
-349
-414
-442
-453
-500
-606
-742
-872
-991
-1133
-1287
-1409
-1474
-1505
-1562
-1691
-1863
-1967
-1866
-1511
-1021
-630
-483
-515
-511
-335
-66
107
71
-131
-385
-615
-795
-930
-1047
-1201
-1419
-1649
-1803
-1829
-1759
-1662
-1570
-1465
-1356
-1278
-1219
-1116
-929
-729
-637
-687
-767
-750
-633
-532
-544
-643
-725
-721
-643
-547
-468
-407
-342
-233
-41
220
441
509
419
295
257
285
253
110
-32
-20
163
391
534
587
622
658
651
583
498
435
371
278
203
240
410
599
664
586
484
474
542
576
502
362
255
217
199
155
95
62
71
89
86
68
46
14
-22
-41
-26
-2
-16
-64
-68
23
149
195
144
100
162
291
363
311
191
90
37
7
-16
-23
-19
-31
-69
-107
-127
-161
-258
-419
-568
-625
-577
-472
-374
-300
-218
-99
51
171
187
85
-69
-185
-225
-236
-282
-363
-399
-333
-201
-93
-43
5
94
164
116
-50
-201
-217
-133
-96
-173
-277
-294
-241
-233
-320
-422
-446
-416
-433
-537
-660
-718
-716
-715
-750
-801
-833
-855
-890
-930
-959
-985
-1045
-1141
-1222
-1234
-1187
-1147
-1169
-1250
-1343
-1417
-1472
-1529
-1599
-1654
-1643
-1519
-1265
-930
-597
-321
-74
223
607
1025
1367
1555
1594
1551
1503
1469
1405
1233
917
518
149
-110
-279
-444
-657
-884
-1050
-1111
-1099
-1079
-1091
-1137
-1187
-1219
-1230
-1228
-1226
-1224
-1219
-1220
-1237
-1259
-1260
-1222
-1164
-1116
-1082
-1031
-949
-871
-845
-885
-960
-1035
-1091
-1124
-1140
-1149
-1164
-1175
-1146
-1062
-971
-947
-998
-1047
-1027
-985
-1033
-1209
-1404
-1481
-1432
-1384
-1449
-1587
-1661
-1600
-1476
-1413
-1448
-1500
-1486
-1426
-1434
-1598
-1878
-2131
-2234
-2182
-2063
-1947
-1812
-1593
-1279
-939
-662
-484
-402
-415
-519
-676
-811
-884
-932
-1011
-1095
-1090
-966
-827
-808
-904
-973
-924
-857
-947
-1195
-1375
-1292
-1033
-900
-1057
-1330
-1419
-1262
-1092
-1127
-1287
-1302
-1069
-853
-1062
-1835
-2887
-3721
-3991
-3687
-3062
-2381
-1716
-918
190
1550
2774
3400
3271
2652
1974
1451
1014
558
168
32
185
432
571
593
625
693
633
286
-276
-784
-1016
-968
-798
-656
-575
-536
-558
-680
-884
-1081
-1190
-1200
-1175
-1184
-1242
-1314
-1342
-1281
-1129
-922
-710
-515
-300
-30
274
532
666
686
685
730
813
881
945
1092
1365
1657
1784
1703
1604
1704
1968
2094
1844
1349
1008
1072
1368
1505
1328
1066
1030
1271
1583
1789
1922
2084
2246
2290
2213
2124
2041
1738
929
-368
-1737
-2670
-2927
-2639
-2081
-1423
-677
207
1215
2226
3029
3405
3243
2636
1836
1115
637
409
318
250
176
161
276
505
720
795
718
578
457
376
366
506
828
1226
1497
1537
1453
1444
1590
1795
1940
2028
2155
2377
2638
2856
3021
3210
3497
3882
4306
4715
5107
5491
5830
6051
6113
6060
5976
5910
5827
5672
5438
5167
4886
4588
4278
3981
3709
3435
3123
2800
2553
2430
2372
2271
2084
1867
1702
1606
1526
1411
1248
1062
881
732
627
551
464
340
187
40
-73
-157
-227
-282
-313
-315
-293
-248
-177
-87
12
99
161
183
168
139
132
168
245
344
434
506
562
613
663
688
640
478
229
-7
-132
-149
-157
-239
-371
-455
-451
-412
-418
-478
-530
-535
-514
-513
-544
-585
-623
-672
-750
-842
-911
-935
-921
-874
-788
-659
-525
-466
-556
-772
-990
-1080
-1023
-935
-932
-997
-980
-771
-439
-184
-147
-301
-517
-704
-887
-1112
-1363
-1575
-1698
-1750
-1757
-1712
-1595
-1416
-1236
-1105
-1017
-910
-729
-483
-230
-29
110
208
304
425
570
722
865
1012
1202
1455
1728
1931
2020
2045
2084
2162
2246
2290
2299
2328
2418
2585
2817
3086
3344
3522
3588
3561
3494
3445
3451
3532
3656
3756
3784
3766
3784
3878
3989
3999
3839
3556
3258
3031
2891
2801
2694
2512
2255
1989
1817
1791
1848
1852
1740
1582
1505
1560
1662
1694
1630
1543
1504
1480
1383
1177
918
700
564
499
459
416
360
320
348
469
653
836
1004
1205
1473
1748
1928
1987
2009
2078
2191
2269
2286
2310
2419
2601
2776
2885
2964
3088
3266
3421
3476
3448
3429
3465
3498
3435
3285
3172
3188
3280
3294
3174
3027
3003
3116
3232
3233
3145
3094
3155
3281
3361
3324
3177
2990
2846
2774
2705
2523
2206
1904
1839
2079
2452
2706
2768
2796
2966
3269
3528
3601
3511
3368
3224
3056
2844
2623
2420
2189
1854
1413
969
647
471
362
240
102
13
21
105
212
307
377
403
349
220
91
54
120
201
201
124
58
65
118
149
128
76
9
-99
-249
-385
-437
-410
-408
-510
-677
-786
-784
-759
-849
-1086
-1376
-1607
-1769
-1920
-2077
-2165
-2084
-1829
-1504
-1226
-1036
-887
-720
-550
-456
-496
-642
-804
-904
-949
-989
-1037
-1055
-1022
-977
-981
-1042
-1108
-1138
-1156
-1198
-1240
-1216
-1120
-1037
-1046
-1118
-1156
-1131
-1123
-1220
-1409
-1598
-1736
-1861
-2011
-2135
-2129
-1951
-1660
-1331
-967
-539
-81
289
480
513
470
377
185
-127
-475
-721
-811
-807
-806
-826
-818
-740
-627
-548
-559
-663
-822
-972
-1039
-994
-903
-877
-967
-1104
-1156
-1093
-1031
-1109
-1328
-1555
-1698
-1816
-2021
-2293
-2432
-2251
-1799
-1337
-1093
-1047
-982
-761
-494
-431
-695
-1164
-1611
-1929
-2188
-2478
-2760
-2900
-2843
-2691
-2593
-2579
-2547
-2402
-2196
-2085
-2177
-2429
-2683
-2814
-2814
-2768
-2753
-2772
-2781
-2772
-2769
-2791
-2784
-2668
-2446
-2235
-2163
-2217
-2255
-2169
-1996
-1858
-1809
-1799
-1767
-1730
-1747
-1816
-1874
-1872
-1837
-1826
-1843
-1845
-1798
-1727
-1680
-1666
-1664
-1664
-1671
-1685
-1689
-1675
-1660
-1664
-1675
-1671
-1647
-1622
-1605
-1573
-1497
-1390
-1300
-1252
-1235
-1226
-1221
-1210
-1165
-1069
-951
-872
-846
-830
-775
-687
-611
-570
-554
-553
-568
-590
-582
-537
-515
-585
-744
-899
-977
-1009
-1075
-1196
-1316
-1400
-1495
-1649
-1802
-1808
-1594
-1255
-968
-819
-728
-558
-270
45
271
370
387
359
287
162
13
-121
-253
-445
-728
-1035
-1237
-1276
-1230
-1230
-1325
-1429
-1436
-1336
-1224
-1198
-1273
-1384
-1464
-1503
-1526
-1547
-1561
-1555
-1537
-1519
-1505
-1488
-1467
-1453
-1448
-1425
-1368
-1282
-1205
-1168
-1162
-1152
-1123
-1110
-1149
-1217
-1228
-1127
-964
-851
-848
-896
-880
-763
-631
-597
-685
-804
-859
-840
-821
-848
-890
-898
-888
-929
-1044
-1173
-1247
-1298
-1409
-1586
-1728
-1748
-1701
-1705
-1786
-1848
-1828
-1797
-1848
-1950
-1973
-1892
-1847
-1951
-2116
-2152
-2018
-1903
-1973
-2154
-2225
-2107
-1936
-1864
-1878
-1849
-1735
-1636
-1653
-1760
-1854
-1872
-1846
-1851
-1909
-1983
-1995
-1878
-1636
-1377
-1238
-1257
-1329
-1314
-1181
-1057
-1062
-1161
-1198
-1084
-905
-823
-874
-933
-869
-710
-598
-616
-684
-680
-600
-539
-550
-577
-539
-465
-473
-611
-758
-751
-585
-428
-436
-570
-642
-525
-300
-170
-247
-443
-569
-532
-413
-356
-422
-536
-566
-471
-336
-285
-339
-391
-335
-195
-100
-128
-205
-194
-81
-17
-123
-330
-444
-369
-214
-148
-212
-323
-445
-647
-987
-1369
-1609
-1604
-1430
-1221
-1000
-678
-194
364
809
1018
1027
951
852
697
459
203
66
115
265
363
359
349
435
577
643
573
437
334
277
245
260
382
590
739
707
549
452
529
684
750
671
552
510
562
651
737
799
796
662
388
78
-119
-115
58
310
586
897
1267
1677
2055
2311
2374
2206
1819
1271
651
69
-379
-660
-807
-881
-898
-805
-528
-62
500
1019
1404
1683
1962
2341
2836
3358
3774
3994
4035
3990
3934
3859
3694
3413
3070
2744
2467
2223
1996
1776
1526
1176
689
127
-361
-630
-638
-451
-174
118
433
832
1339
1837
2127
2076
1746
1334
982
681
367
67
-102
-85
37
138
178
207
248
243
131
-58
-212
-259
-217
-138
-47
55
138
154
89
-3
-61
-66
-39
-1
60
156
248
282
247
183
140
126
120
106
95
89
62
-9
-101
-154
-144
-113
-118
-165
-215
-243
-273
-339
-429
-496
-515
-515
-544
-605
-651
-641
-602
-604
-689
-825
-923
-925
-862
-818
-845
-906
-921
-864
-788
-763
-805
-865
-896
-908
-928
-957
-970
-956
-942
-958
-992
-1009
-989
-960
-948
-952
-951
-941
-941
-959
-973
-960
-928
-922
-963
-1019
-1030
-981
-907
-843
-788
-725
-657
-607
-581
-559
-524
-490
-483
-496
-485
-439
-405
-445
-563
-684
-745
-754
-771
-825
-874
-856
-756
-621
-513
-451
-421
-395
-372
-371
-404
-457
-502
-518
-504
-473
-435
-385
-325
-280
-273
-282
-271
-239
-249
-364
-546
-668
-661
-647
-846
-1333
-1903
-2212
-2079
-1633
-1176
-917
-835
-757
-534
-164
201
354
179
-243
-668
-863
-795
-628
-553
-615
-703
-693
-577
-434
-337
-308
-328
-373
-426
-470
-477
-439
-382
-333
-322
-358
-449
-583
-723
-832
-899
-958
-1045
-1146
-1186
-1072
-773
-379
-63
28
-89
-199
-69
312
677
719
418
102
114
469
847
922
676
344
138
80
55
-28
-190
-403
-615
-739
-696
-484
-194
75
307
566
927
1412
1978
2504
2841
2920
2854
2844
2988
3164
3156
2914
2623
2500
2586
2713
2660
2304
1687
985
464
316
484
643
460
-77
-622
-812
-619
-361
-383
-727
-1148
-1384
-1403
-1371
-1438
-1594
-1732
-1815
-1943
-2238
-2668
-3000
-2968
-2502
-1768
-1008
-332
331
1092
1928
2649
3021
2937
2479
1860
1285
856
559
326
110
-78
-191
-179
-46
145
318
425
451
390
249
75
-26
58
335
664
864
866
767
725
814
993
1186
1383
1627
1927
2234
2478
2644
2774
2901
3008
3044
3000
2930
2901
2930
2973
2976
2937
2890
2856
2823
2775
2724
2683
2617
2461
2217
2002
1923
1873
1554
737
-417
-1389
-1726
-1427
-895
-505
-255
148
903
1862
2652
2980
2804
2291
1651
1053
617
379
276
197
95
25
78
252
442
528
475
335
172
39
-8
104
389
756
1061
1224
1282
1320
1398
1517
1661
1826
2011
2192
2341
2439
2491
2521
2569
2667
2784
2838
2785
2693
2697
2861
3094
3256
3328
3412
3592
3813
3957
3988
3980
3990
3957
3784
3479
3177
3012
2993
3033
3064
3096
3153
3220
3269
3308
3365
3429
3414
3255
3002
2795
2729
2757
2752
2646
2485
2346
2257
2187
2124
2092
2107
2123
2074
1956
1839
1795
1819
1838
1789
1671
1545
1468
1445
1444
1442
1453
1508
1594
1655
1644
1578
1523
1524
1560
1580
1568
1549
1542
1524
1457
1342
1215
1104
1001
884
769
691
656
628
579
535
546
617
682
667
562
423
302
208
124
35
-76
-235
-440
-624
-696
-639
-531
-461
-427
-356
-222
-89
-15
57
242
567
933
1239
1509
1836
2222
2540
2681
2653
2523
2280
1867
1323
805
429
134
-218
-610
-842
-783
-556
-417
-443
-450
-264
24
123
-127
-589
-1002
-1260
-1465
-1747
-2117
-2460
-2653
-2626
-2418
-2202
-2185
-2413
-2653
-2588
-2156
-1668
-1494
-1654
-1806
-1645
-1235
-916
-932
-1211
-1511
-1668
-1671
-1570
-1407
-1229
-1086
-988
-891
-745
-575
-465
-479
-606
-774
-917
-1001
-1010
-951
-855
-769
-731
-750
-798
-822
-779
-680
-589
-569
-615
-671
-702
-718
-761
-846
-952
-1057
-1129
-1131
-1059
-970
-954
-1042
-1156
-1177
-1082
-975
-971
-1068
-1175
-1221
-1216
-1210
-1220
-1238
-1269
-1312
-1321
-1215
-976
-717
-601
-695
-909
-1103
-1208
-1262
-1321
-1375
-1377
-1290
-1106
-850
-573
-360
-290
-360
-479
-535
-483
-346
-154
102
424
768
1071
1316
1528
1716
1837
1837
1725
1575
1470
1446
1482
1551
1619
1650
1621
1549
1489
1492
1550
1610
1633
1641
1694
1815
1944
1968
1828
1592
1412
1400
1530
1671
1721
1707
1737
1868
2027
2089
1994
1797
1587
1402
1224
1042
884
773
701
635
566
511
490
482
453
391
312
241
198
197
244
321
373
356
269
163
105
118
163
167
99
-18
-116
-150
-131
-105
-98
-97
-72
-30
0
7
9
19
15
-25
-80
-88
-16
100
210
307
430
583
700
717
643
555
494
420
277
88
-57
-111
-125
-158
-157
22
445
972
1350
1450
1372
1296
1261
1120
735
156
-400
-762
-929
-1008
-1058
-1033
-886
-660
-461
-356
-321
-295
-244
-159
-26
194
510
870
1203
1491
1794
2158
2527
2765
2788
2679
2623
2740
2966
3136
3144
3018
2842
2649
2425
2170
1918
1680
1430
1138
846
658
631
701
734
634
421
197
44
-23
-71
-198
-458
-799
-1096
-1265
-1380
-1612
-2025
-2437
-2572
-2349
-1980
-1733
-1624
-1400
-865
-157
366
492
340
175
111
42
-170
-515
-878
-1191
-1455
-1663
-1784
-1832
-1906
-2091
-2334
-2492
-2549
-2701
-3161
-3891
-4565
-4879
-4866
-4839
-5014
-5215
-5023
-4197
-2958
-1810
-1120
-870
-807
-755
-760
-963
-1394
-1927
-2398
-2726
-2907
-2946
-2858
-2695
-2547
-2465
-2426
-2368
-2297
-2245
-2216
-2166
-2053
-1901
-1780
-1750
-1813
-1907
-1924
-1797
-1581
-1453
-1555
-1814
-1975
-1860
-1596
-1487
-1682
-2025
-2235
-2214
-2088
-2012
-2007
-2007
-1990
-1983
-1981
-1932
-1814
-1680
-1612
-1641
-1748
-1860
-1899
-1797
-1544
-1233
-997
-872
-757
-524
-171
128
190
-16
-347
-651
-904
-1146
-1334
-1333
-1130
-974
-1186
-1794
-2415
-2629
-2416
-2142
-2080
-2048
-1621
-642
569
1552
2123
2401
2509
2386
1943
1261
570
24
-399
-771
-1061
-1157
-1020
-770
-596
-607
-766
-960
-1108
-1220
-1346
-1504
-1656
-1744
-1753
-1717
-1695
-1730
-1819
-1914
-1935
-1832
-1634
-1443
-1355
-1372
-1417
-1421
-1387
-1367
-1377
-1383
-1346
-1276
-1220
-1190
-1149
-1082
-1017
-985
-960
-883
-748
-631
-591
-600
-572
-492
-432
-455
-520
-532
-457
-375
-368
-412
-398
-257
-40
132
192
168
157
212
271
214
-4
-282
-457
-478
-463
-542
-684
-741
-655
-603
-837
-1373
-1917
-2131
-1953
-1652
-1532
-1615
-1631
-1295
-593
201
766
975
958
945
1075
1341
1638
1857
1959
1974
1991
2074
2198
2258
2136
1803
1343
879
481
155
-102
-267
-322
-326
-376
-503
-624
-635
-553
-506
-587
-753
-894
-969
-1029
-1105
-1158
-1161
-1181
-1295
-1435
-1445
-1274
-1073
-1024
-1111
-1153
-1044
-892
-865
-980
-1111
-1177
-1228
-1326
-1428
-1441
-1356
-1258
-1207
-1171
-1095
-999
-946
-958
-985
-986
-995
-1063
-1176
-1262
-1266
-1208
-1142
-1101
-1089
-1108
-1179
-1286
-1353
-1312
-1189
-1100
-1129
-1226
-1250
-1120
-925
-846
-976
-1239
-1477
-1615
-1700
-1806
-1918
-1937
-1787
-1509
-1216
-985
-808
-627
-432
-291
-277
-410
-630
-843
-987
-1051
-1046
-1006
-966
-945
-928
-878
-779
-673
-638
-751
-1046
-1482
-1948
-2248
-2212
-1836
-1344
-1013
-909
-840
-599
-241
-38
-164
-493
-743
-773
-642
-421
-40
577
1296
1833
2031
2010
1997
2060
2039
1783
1352
977
851
974
1213
1452
1640
1767
1794
1676
1437
1190
1046
997
926
740
503
358
358
401
348
196
75
81
177
255
268
263
296
364
433
475
480
449
398
362
364
384
364
284
205
209
302
403
434
403
383
425
495
546
587
666
782
856
830
748
712
766
831
803
671
530
480
530
622
702
756
780
766
737
740
795
851
836
743
662
690
822
956
1011
994
964
955
947
924
912
932
966
968
918
848
804
809
862
954
1051
1084
1022
929
923
1044
1174
1152
954
720
609
635
681
644
534
411
309
216
130
72
40
-15
-128
-246
-241
-8
417
880
1245
1506
1757
2058
2364
2593
2726
2809
2856
2814
2647
2421
2255
2172
2046
1745
1305
909
689
593
473
267
56
-70
-118
-166
-239
-268
-206
-114
-114
-243
-394
-432
-350
-270
-312
-462
-597
-622
-575
-557
-622
-719
-764
-743
-719
-762
-873
-992
-1061
-1079
-1093
-1144
-1231
-1317
-1367
-1376
-1369
-1377
-1412
-1450
-1459
-1425
-1363
-1302
-1260
-1243
-1255
-1299
-1375
-1454
-1499
-1495
-1467
-1453
-1457
-1441
-1374
-1275
-1197
-1186
-1240
-1322
-1395
-1444
-1474
-1502
-1536
-1579
-1615
-1631
-1633
-1644
-1682
-1737
-1782
-1804
-1824
-1862
-1902
-1909
-1877
-1846
-1863
-1910
-1924
-1869
-1807
-1833
-1956
-2062
-2037
-1898
-1787
-1811
-1924
-1985
-1918
-1786
-1692
-1656
-1622
-1555
-1483
-1443
-1410
-1341
-1244
-1172
-1139
-1078
-923
-696
-486
-350
-262
-173
-79
-24
-43
-123
-224
-319
-388
-427
-454
-503
-587
-667
-703
-713
-767
-900
-1056
-1137
-1117
-1062
-1023
-968
-842
-663
-511
-426
-344
-171
69
241
231
74
-79
-113
-49
8
-14
-84
-94
56
379
768
1068
1185
1149
1061
984
895
753
585
470
446
475
521
588
677
711
572
231
-160
-396
-433
-405
-450
-520
-413
-24
505
887
952
771
537
339
103
-263
-700
-1020
-1106
-1041
-1014
-1096
-1144
-971
-589
-226
-96
-192
-305
-241
5
271
397
360
250
184
228
364
519
634
712
799
928
1086
1239
1375
1512
1647
1744
1772
1763
1805
1967
2241
2531
2719
2761
2738
2790
2975
3198
3287
3198
3085
3145
3394
3643
3709
3611
3531
3584
3732
3883
4027
4231
4524
4851
5138
5382
5613
5819
5930
5895
5729
5477
5163
4790
4370
3942
3540
3158
2763
2336
1891
1480
1150
903
670
389
84
-163
-309
-401
-523
-678
-787
-820
-844
-914
-957
-830
-528
-247
-184
-306
-390
-290
-101
-15
-68
-110
1
248
520
763
1008
1268
1488
1631
1743
1910
2155
2432
2700
2970
3242
3470
3621
3733
3867
4022
4130
4184
4300
4612
5104
5623
6038
6371
6704
7024
7210
7179
6993
6778
6584
6368
6121
5919
5837
5837
5812
5700
5528
5346
5139
4865
4533
4216
3971
3785
3618
3467
3364
3309
3252
3149
3008
2876
2773
2677
2561
2434
2318
2223
2124
2000
1860
1732
1645
1602
1581
1554
1522
1516
1561
1642
1707
1733
1756
1818
1905
1947
1907
1833
1795
1801
1796
1744
1693
1702
1760
1807
1814
1812
1825
1824
1764
1661
1568
1509
1456
1392
1344
1338
1327
1240
1081
941
881
854
758
586
433
387
424
455
442
420
421
420
366
262
167
117
84
1
-152
-340
-516
-667
-804
-924
-1014
-1073
-1128
-1195
-1250
-1251
-1205
-1186
-1272
-1448
-1635
-1768
-1859
-1944
-1998
-1952
-1791
-1605
-1503
-1498
-1509
-1475
-1432
-1454
-1553
-1656
-1695
-1680
-1658
-1646
-1622
-1594
-1607
-1686
-1784
-1803
-1701
-1532
-1391
-1314
-1255
-1145
-985
-831
-738
-707
-696
-669
-622
-559
-477
-385
-318
-310
-335
-309
-177
9
147
224
332
540
773
862
751
563
472
495
500
402
291
338
595
946
1236
1412
1525
1628
1717
1787
1858
1945
2032
2081
2096
2124
2191
2247
2218
2105
1986
1927
1916
1916
1977
2217
2685
3268
3776
4117
4353
4581
4791
4901
4886
4807
4722
4612
4445
4269
4191
4246
4323
4264
4022
3720
3509
3432
3392
3242
2921
2494
2095
1826
1691
1607
1491
1334
1197
1138
1143
1148
1110
1045
979
896
743
509
252
51
-84
-203
-340
-454
-491
-451
-390
-361
-368
-386
-400
-401
-387
-379
-429
-553
-659
-596
-319
24
219
214
176
290
528
674
557
235
-76
-226
-249
-266
-326
-379
-357
-274
-208
-209
-257
-311
-379
-505
-708
-929
-1074
-1116
-1119
-1159
-1232
-1278
-1265
-1241
-1269
-1344
-1401
-1395
-1358
-1359
-1417
-1493
-1549
-1581
-1597
-1591
-1558
-1520
-1515
-1535
-1531
-1464
-1363
-1300
-1302
-1314
-1257
-1112
-926
-757
-619
-488
-353
-241
-194
-223
-298
-381
-459
-545
-644
-733
-775
-745
-646
-515
-402
-345
-336
-333
-299
-248
-228
-264
-326
-365
-368
-363
-382
-429
-495
-579
-655
-655
-511
-243
32
204
274
353
512
704
807
758
606
453
357
311
286
261
223
168
100
30
-34
-88
-126
-143
-150
-167
-190
-175
-89
34
98
45
-75
-150
-132
-93
-131
-245
-348
-375
-349
-338
-374
-421
-458
-503
-568
-622
-630
-605
-610
-725
-1032
-1618
-2505
-3500
-4192
-4212
-3578
-2723
-2091
-1706
-1188
-236
956
1811
1894
1283
437
-245
-677
-990
-1291
-1563
-1752
-1852
-1887
-1870
-1804
-1738
-1779
-2001
-2362
-2731
-2961
-2990
-2854
-2647
-2461
-2369
-2409
-2560
-2734
-2819
-2762
-2624
-2535
-2586
-2750
-2923
-3036
-3109
-3198
-3324
-3445
-3506
-3491
-3419
-3317
-3215
-3159
-3175
-3225
-3217
-3106
-2945
-2827
-2750
-2604
-2298
-1873
-1473
-1201
-1022
-809
-495
-130
173
339
401
462
598
777
886
826
597
269
-104
-525
-986
-1414
-1736
-1960
-2156
-2337
-2415
-2319
-2129
-2034
-2135
-2358
-2554
-2685
-2829
-3031
-3202
-3211
-3038
-2782
-2540
-2318
-2079
-1830
-1635
-1545
-1533
-1535
-1516
-1492
-1481
-1477
-1443
-1357
-1236
-1125
-1058
-1027
-1005
-1009
-1107
-1343
-1665
-1937
-2067
-2085
-2083
-2097
-2074
-1957
-1770
-1595
-1483
-1437
-1451
-1547
-1733
-1965
-2163
-2275
-2306
-2281
-2222
-2152
-2097
-2071
-2064
-2068
-2128
-2301
-2582
-2854
-2983
-2942
-2823
-2731
-2672
-2586
-2442
-2281
-2182
-2174
-2217
-2244
-2217
-2144
-2061
-2002
-1964
-1913
-1827
-1730
-1668
-1653
-1644
-1608
-1578
-1604
-1673
-1695
-1610
-1473
-1386
-1372
-1347
-1235
-1083
-998
-1001
-984
-854
-649
-497
-462
-467
-387
-204
-17
33
-86
-252
-289
-140
62
116
-24
-180
-136
95
271
211
5
-102
-37
2
-195
-551
-781
-716
-498
-401
-520
-695
-723
-583
-418
-360
-423
-530
-607
-625
-601
-573
-566
-587
-629
-682
-748
-807
-814
-733
-611
-558
-647
-825
-928
-858
-708
-669
-814
-982
-947
-708
-519
-602
-853
-940
-701
-358
-273
-524
-822
-869
-697
-587
-717
-978
-1139
-1103
-958
-826
-749
-725
-764
-861
-950
-956
-908
-917
-1047
-1235
-1346
-1318
-1204
-1090
-1020
-980
-947
-906
-850
-798
-803
-918
-1105
-1228
-1185
-1020
-877
-844
-872
-856
-775
-699
-674
-651
-572
-475
-454
-528
-602
-582
-500
-470
-540
-615
-568
-392
-203
-120
-152
-228
-295
-361
-453
-564
-673
-771
-860
-933
-980
-1005
-996
-907
-675
-314
43
275
402
569
878
1271
1587
1735
1765
1786
1849
1926
1944
1831
1533
1043
430
-170
-624
-908
-1139
-1527
-2209
-3049
-3635
-3567
-2827
-1848
-1139
-826
-590
-64
744
1456
1702
1433
874
309
-101
-341
-481
-592
-711
-809
-835
-775
-683
-626
-619
-662
-769
-956
-1188
-1356
-1362
-1210
-999
-841
-785
-798
-825
-847
-858
-833
-743
-590
-440
-373
-415
-501
-534
-487
-429
-429
-484
-524
-506
-454
-425
-438
-466
-481
-488
-506
-541
-574
-586
-584
-585
-598
-620
-643
-667
-699
-741
-770
-772
-770
-798
-863
-929
-950
-929
-920
-962
-1019
-1025
-971
-917
-912
-926
-874
-739
-602
-550
-578
-599
-558
-494
-476
-515
-551
-537
-489
-442
-397
-316
-186
-61
-5
-16
-28
19
106
166
169
162
220
363
523
623
653
672
728
802
825
757
635
529
484
489
499
488
466
455
467
488
504
504
492
475
456
428
398
370
339
298
250
212
189
159
108
62
71
129
159
93
-24
-60
62
247
298
116
-161
-253
0
455
749
627
189
-195
-231
12
188
24
-424
-851
-999
-862
-619
-458
-449
-540
-629
-630
-532
-405
-351
-401
-490
-532
-509
-461
-414
-350
-263
-204
-232
-337
-425
-412
-316
-231
-224
-272
-306
-293
-267
-294
-390
-501
-557
-531
-461
-407
-391
-372
-303
-189
-91
-58
-69
-71
-40
-10
-8
-14
4
35
41
18
1
6
-11
-103
-245
-354
-382
-370
-395
-478
-591
-725
-890
-1067
-1188
-1223
-1237
-1317
-1437
-1453
-1262
-919
-582
-331
-141
13
81
9
-144
-268
-343
-448
-583
-571
-206
486
1239
1795
2127
2365
2563
2624
2439
2038
1553
1091
691
392
257
293
398
446
407
337
281
206
54
-168
-392
-550
-620
-605
-523
-427
-385
-427
-501
-530
-498
-462
-459
-453
-376
-235
-119
-103
-180
-300
-429
-543
-610
-616
-608
-650
-734
-749
-626
-461
-444
-628
-832
-840
-650
-483
-532
-748
-915
-889
-734
-628
-682
-840
-961
-964
-885
-833
-870
-915
-841
-680
-672
-1064
-1835
-2674
-3285
-3673
-4074
-4586
-4983
-4943
-4391
-3545
-2654
-1769
-838
69
720
958
871
683
508
262
-174
-756
-1271
-1516
-1473
-1294
-1157
-1120
-1107
-1037
-901
-739
-592
-468
-350
-218
-45
197
488
751
918
1024
1197
1512
1918
2308
2662
3075
3614
4234
4817
5301
5686
5976
6128
6126
6024
5903
5771
5554
5192
4726
4271
3931
3715
3534
3271
2905
2553
2404
2522
2752
2850
2734
2554
2504
2573
2546
2249
1720
1148
660
239
-158
-496
-708
-795
-817
-806
-735
-602
-472
-399
-361
-295
-214
-204
-309
-449
-515
-526
-595
-777
-980
-1059
-992
-902
-912
-1022
-1133
-1174
-1174
-1237
-1449
-1825
-2303
-2775
-3142
-3372
-3502
-3581
-3598
-3486
-3216
-2873
-2614
-2506
-2441
-2217
-1740
-1115
-539
-87
346
899
1569
2193
2614
2798
2819
2778
2742
2745
2801
2873
2907
2899
2911
2988
3083
3088
2964
2795
2701
2706
2746
2764
2786
2868
3017
3178
3289
3328
3294
3180
2992
2775
2587
2447
2322
2159
1934
1677
1453
1324
1310
1373
1456
1539
1663
1866
2115
2315
2409
2434
2491
2640
2854
3063
3219
3316
3378
3441
3528
3606
3572
3340
2939
2528
2249
2102
1964
1741
1482
1311
1279
1305
1274
1162
1037
967
945
913
837
742
674
649
648
645
625
576
485
355
211
89
0
-73
-161
-279
-418
-563
-702
-830
-958
-1090
-1212
-1295
-1321
-1314
-1316
-1348
-1385
-1397
-1382
-1365
-1365
-1366
-1332
-1262
-1186
-1130
-1103
-1097
-1105
-1120
-1136
-1152
-1171
-1194
-1213
-1223
-1224
-1226
-1228
-1233
-1265
-1352
-1492
-1628
-1697
-1688
-1658
-1669
-1716
-1731
-1666
-1546
-1460
-1481
-1603
-1757
-1875
-1935
-1966
-2009
-2057
-2058
-1956
-1752
-1523
-1346
-1230
-1105
-919
-725
-626
-658
-720
-686
-547
-426
-419
-475
-451
-288
-84
29
35
35
117
250
352
397
441
538
685
840
967
1071
1179
1302
1429
1536
1612
1688
1818
2019
2233
2385
2492
2655
2939
3257
3410
3263
2888
2497
2249
2130
2013
1815
1583
1441
1484
1702
1993
2232
2345
2338
2269
2198
2146
2102
2049
1986
1927
1886
1871
1874
1868
1837
1781
1696
1571
1393
1179
970
810
705
618
510
368
199
25
-120
-206
-223
-193
-155
-133
-123
-107
-68
-2
88
177
250
316
429
643
943
1241
1435
1512
1550
1625
1739
1822
1816
1741
1670
1674
1772
1931
2111
2282
2433
2568
2689
2788
2860
2897
2907
2900
2874
2813
2717
2616
2558
2564
2616
2670
2708
2733
2752
2752
2720
2675
2651
2652
2632
2543
2408
2311
2314
2384
2410
2324
2177
2066
2003
1885
1615
1252
956
824
781
675
495
403
557
904
1235
1411
1488
1621
1871
2137
2297
2322
2275
2212
2146
2079
2007
1913
1743
1460
1107
788
575
436
267
16
-270
-497
-627
-708
-797
-881
-898
-832
-763
-794
-924
-1034
-1016
-907
-850
-953
-1162
-1319
-1322
-1216
-1109
-1061
-1044
-1010
-950
-881
-819
-764
-734
-758
-826
-885
-893
-840
-755
-672
-605
-551
-493
-416
-327
-263
-260
-277
-200
56
419
669
620
286
-92
-245
-109
132
224
102
-65
-80
51
149
136
200
596
1279
1847
1919
1534
1097
915
893
681
106
-625
-1151
-1260
-1000
-563
-142
139
255
298
386
549
684
668
492
254
41
-118
-226
-306
-449
-837
-1592
-2595
-3487
-3900
-3697
-3001
-2039
-981
89
1116
2020
2673
2907
2589
1775
778
-12
-410
-561
-719
-942
-1050
-886
-550
-332
-414
-740
-1133
-1495
-1846
-2200
-2493
-2638
-2598
-2427
-2233
-2111
-2112
-2204
-2298
-2320
-2287
-2284
-2353
-2431
-2426
-2346
-2302
-2383
-2531
-2595
-2495
-2303
-2150
-2095
-2084
-2035
-1922
-1786
-1689
-1659
-1688
-1753
-1828
-1891
-1920
-1899
-1816
-1691
-1579
-1529
-1544
-1574
-1567
-1548
-1621
-1882
-2299
-2693
-2875
-2811
-2648
-2568
-2612
-2664
-2585
-2369
-2146
-2061
-2144
-2301
-2419
-2450
-2422
-2369
-2292
-2195
-2105
-2050
-2004
-1907
-1741
-1575
-1500
-1531
-1587
-1588
-1553
-1555
-1617
-1679
-1669
-1594
-1517
-1468
-1392
-1235
-1022
-844
-745
-669
-542
-391
-319
-369
-445
-413
-273
-200
-362
-725
-1059
-1150
-967
-642
-297
36
366
675
943
1181
1382
1443
1198
602
-151
-745
-1007
-1047
-1126
-1379
-1671
-1753
-1506
-1047
-621
-389
-325
-277
-113
178
499
741
862
901
921
947
941
854
677
448
230
50
-102
-249
-405
-580
-776
-974
-1121
-1159
-1073
-930
-833
-838
-910
-959
-934
-868
-822
-823
-847
-857
-825
-751
-656
-572
-535
-571
-655
-714
-687
-588
-497
-477
-513
-537
-517
-492
-514
-581
-640
-661
-677
-734
-816
-861
-836
-779
-766
-830
-949
-1075
-1189
-1293
-1389
-1482
-1573
-1657
-1721
-1751
-1755
-1753
-1765
-1804
-1862
-1919
-1947
-1929
-1882
-1860
-1903
-1972
-1989
-1926
-1855
-1876
-1985
-2066
-2026
-1900
-1823
-1863
-1949
-1968
-1912
-1873
-1913
-1982
-1982
-1894
-1789
-1740
-1742
-1746
-1729
-1694
-1646
-1588
-1554
-1584
-1656
-1678
-1581
-1403
-1262
-1217
-1209
-1143
-1009
-883
-828
-829
-834
-810
-764
-716
-687
-677
-650
-565
-432
-347
-414
-609
-765
-725
-514
-301
-207
-177
-67
178
481
710
806
789
698
577
466
389
337
275
187
109
78
114
188
250
272
263
241
225
226
250
300
359
397
379
317
277
321
429
493
419
213
-27
-208
-316
-377
-397
-327
-130
166
508
860
1210
1519
1701
1684
1495
1239
1021
848
676
504
406
433
542
624
623
596
624
694
684
511
246
59
47
131
143
11
-166
-239
-175
-77
-57
-103
-98
40
248
383
378
314
308
378
426
373
267
231
317
441
482
417
335
324
376
427
433
390
313
225
167
193
296
397
405
327
266
304
397
414
297
123
14
-11
-62
-234
-495
-706
-785
-790
-836
-944
-984
-825
-480
-102
187
429
758
1240
1794
2271
2594
2793
2935
3041
3085
3029
2850
2553
2166
1733
1308
937
648
441
291
144
-26
-176
-215
-120
7
5
-185
-436
-561
-505
-378
-324
-366
-415
-403
-352
-311
-290
-264
-229
-206
-205
-201
-178
-151
-151
-165
-156
-127
-125
-173
-238
-261
-229
-199
-219
-275
-303
-265
-186
-133
-153
-240
-331
-362
-324
-275
-291
-384
-477
-488
-415
-335
-321
-369
-423
-445
-449
-468
-510
-557
-593
-621
-653
-694
-720
-714
-689
-671
-683
-716
-742
-754
-767
-784
-783
-753
-734
-783
-891
-969
-939
-829
-749
-759
-809
-815
-771
-744
-767
-798
-779
-724
-705
-743
-783
-757
-665
-574
-532
-524
-508
-472
-431
-394
-358
-313
-261
-209
-157
-104
-52
-5
50
119
172
153
45
-75
-100
-16
67
38
-99
-221
-229
-143
-63
-55
-107
-169
-212
-227
-204
-159
-139
-173
-232
-241
-169
-74
-45
-91
-132
-99
-15
34
9
-31
2
112
207
200
118
63
94
159
162
78
-26
-72
-59
-53
-107
-209
-313
-384
-416
-420
-412
-419
-457
-519
-560
-538
-474
-444
-507
-617
-656
-581
-509
-625
-978
-1400
-1655
-1670
-1570
-1509
-1480
-1346
-1005
-516
-28
352
607
746
769
697
589
501
442
387
323
292
336
442
558
630
655
657
648
581
387
87
-164
-179
80
410
524
315
-71
-385
-499
-454
-366
-329
-379
-500
-645
-758
-816
-842
-876
-977
-1268
-1902
-2911
-4062
-4934
-5220
-4970
-4456
-3833
-3001
-1803
-293
1270
2615
3566
4042
4011
3595
3106
2852
2881
2962
2859
2612
2472
2607
2927
3186
3213
3012
2693
2334
1959
1587
1276
1092
1049
1036
828
203
-856
-2062
-2982
-3362
-3315
-3130
-2915
-2478
-1595
-369
753
1372
1437
1203
913
556
-4
-742
-1397
-1691
-1606
-1353
-1100
-781
-207
625
1411
1753
1523
995
584
498
599
596
405
283
580
1338
2144
2469
2165
1630
1398
1582
1797
1619
1098
714
880
1539
2297
2830
3130
3354
3573
3712
3675
3484
3219
2918
2566
2164
1788
1530
1388
1272
1041
601
-16
-676
-1209
-1525
-1675
-1791
-1939
-2034
-1959
-1761
-1650
-1778
-2050
-2227
-2225
-2207
-2328
-2484
-2426
-2108
-1800
-1781
-2008
-2197
-2185
-2106
-2149
-2263
-2202
-1836
-1293
-778
-375
-48
178
218
101
25
188
569
961
1245
1542
2057
2791
3483
3849
3816
3524
3147
2766
2403
2092
1865
1713
1603
1557
1635
1838
2051
2117
1991
1795
1710
1815
2049
2300
2490
2584
2568
2452
2279
2113
1985
1874
1752
1622
1522
1457
1383
1225
944
565
156
-208
-488
-676
-781
-821
-820
-796
-739
-614
-420
-227
-142
-208
-337
-387
-302
-176
-130
-172
-182
-57
174
381
479
507
547
616
654
629
595
631
743
848
870
821
788
825
892
922
892
853
857
892
895
841
770
735
740
725
645
516
410
381
425
479
473
385
250
147
135
191
226
173
47
-69
-121
-136
-179
-271
-358
-381
-341
-309
-355
-478
-615
-713
-785
-901
-1115
-1408
-1693
-1898
-2025
-2129
-2219
-2228
-2074
-1753
-1358
-999
-719
-496
-294
-94
119
349
578
754
845
903
1004
1142
1195
1046
728
404
204
102
-9
-157
-265
-277
-242
-255
-322
-361
-328
-302
-365
-458
-414
-164
158
342
321
212
143
106
12
-154
-291
-299
-178
6
246
587
1018
1416
1644
1704
1729
1839
2000
2079
2028
1956
2015
2219
2418
2456
2309
2069
1795
1443
959
399
-91
-405
-574
-693
-802
-856
-810
-701
-617
-619
-704
-843
-1040
-1308
-1614
-1890
-2078
-2175
-2216
-2211
-2145
-2004
-1830
-1691
-1626
-1616
-1619
-1633
-1666
-1689
-1616
-1397
-1105
-880
-790
-755
-645
-439
-241
-158
-176
-204
-187
-152
-147
-152
-102
21
160
250
286
311
359
426
503
586
666
714
719
727
809
980
1171
1300
1373
1470
1647
1851
1986
2023
2029
2079
2166
2216
2186
2117
2078
2081
2081
2052
2010
1981
1951
1899
1849
1855
1919
1935
1773
1404
949
585
404
374
414
483
591
759
970
1173
1307
1319
1173
867
448
11
-336
-504
-479
-338
-188
-87
-10
105
270
421
474
397
231
52
-74
-110
-70
-5
29
26
21
37
52
30
-2
34
178
359
460
430
331
253
227
215
173
102
37
11
36
96
153
148
38
-155
-357
-480
-476
-357
-178
4
162
329
536
767
936
964
849
673
514
388
267
154
101
160
328
548
759
931
1064
1174
1269
1342
1364
1311
1216
1159
1212
1357
1483
1492
1400
1333
1389
1510
1526
1333
1018
780
717
743
707
586
528
708
1148
1697
2168
2481
2684
2879
3130
3425
3694
3856
3870
3767
3637
3558
3516
3405
3131
2722
2307
1993
1781
1598
1406
1231
1092
959
771
497
130
-346
-933
-1538
-1961
-2009
-1634
-971
-241
374
800
1073
1265
1393
1362
1050
479
-143
-553
-644
-507
-299
-108
53
161
182
111
3
-114
-297
-593
-939
-1194
-1249
-1158
-1074
-1111
-1268
-1467
-1660
-1856
-2089
-2358
-2595
-2730
-2772
-2800
-2886
-3019
-3127
-3152
-3103
-3017
-2921
-2854
-2911
-3174
-3602
-3990
-4115
-3941
-3632
-3364
-3124
-2747
-2134
-1395
-762
-390
-255
-240
-255
-282
-342
-446
-594
-750
-859
-857
-733
-555
-419
-366
-366
-367
-362
-380
-444
-543
-641
-719
-782
-849
-935
-1033
-1119
-1157
-1122
-1027
-920
-858
-864
-899
-914
-887
-832
-780
-746
-734
-745
-786
-859
-954
-1056
-1154
-1234
-1277
-1265
-1201
-1121
-1057
-1003
-929
-815
-693
-618
-611
-630
-599
-477
-307
-179
-142
-159
-152
-80
5
24
-53
-187
-306
-381
-429
-491
-596
-761
-990
-1245
-1447
-1515
-1433
-1257
-1071
-917
-783
-646
-502
-390
-375
-502
-762
-1075
-1329
-1455
-1471
-1446
-1423
-1381
-1291
-1171
-1095
-1119
-1232
-1368
-1473
-1543
-1597
-1631
-1610
-1514
-1377
-1264
-1195
-1131
-1030
-919
-860
-855
-816
-656
-410
-226
-212
-317
-386
-324
-187
-88
-61
-53
-14
47
100
166
272
393
446
393
290
240
276
346
383
367
324
277
236
218
253
347
436
426
281
86
-7
65
195
202
11
-257
-418
-420
-377
-427
-593
-808
-1018
-1196
-1279
-1163
-837
-454
-201
-94
35
355
822
1233
1435
1444
1398
1406
1476
1523
1448
1204
852
520
284
109
-105
-386
-650
-782
-768
-691
-640
-625
-609
-576
-559
-607
-733
-907
-1068
-1171
-1206
-1194
-1169
-1145
-1118
-1069
-994
-915
-864
-854
-863
-868
-890
-966
-1080
-1157
-1130
-1018
-922
-893
-891
-854
-809
-846
-983
-1126
-1182
-1172
-1174
-1189
-1140
-1001
-871
-853
-924
-981
-980
-980
-1047
-1161
-1252
-1286
-1270
-1221
-1166
-1168
-1262
-1375
-1374
-1229
-1088
-1117
-1292
-1427
-1405
-1299
-1253
-1296
-1349
-1388
-1468
-1599
-1671
-1583
-1410
-1340
-1462
-1652
-1715
-1592
-1410
-1324
-1367
-1435
-1419
-1299
-1143
-1039
-1023
-1058
-1076
-1032
-932
-813
-707
-610
-499
-352
-172
-1
116
155
141
121
127
154
174
164
129
110
138
195
219
190
160
193
261
266
167
69
114
294
427
369
198
123
212
292
159
-159
-431
-484
-393
-353
-438
-521
-436
-172
128
324
402
446
527
639
722
725
663
595
591
664
751
780
738
692
712
797
876
882
825
770
767
825
912
977
986
936
860
795
743
679
595
529
505
491
440
375
383
488
592
562
376
150
20
8
35
29
6
34
160
364
566
689
727
736
751
733
616
431
315
370
532
624
573
505
577
772
905
843
648
491
451
467
460
444
481
568
628
613
574
589
665
720
683
580
506
519
581
611
580
521
478
444
362
210
46
-46
-48
-28
-39
-19
173
607
1171
1665
2008
2305
2705
3211
3681
3983
4116
4165
4181
4142
4014
3789
3475
3076
2624
2190
1834
1542
1255
955
701
562
515
485
411
316
245
194
128
32
-57
-105
-117
-129
-158
-184
-179
-140
-105
-116
-197
-322
-413
-413
-347
-311
-375
-499
-584
-586
-553
-556
-595
-623
-644
-715
-854
-979
-999
-929
-871
-879
-900
-857
-760
-688
-688
-734
-786
-849
-936
-1017
-1046
-1031
-1038
-1094
-1152
-1155
-1118
-1123
-1196
-1269
-1279
-1253
-1273
-1354
-1418
-1388
-1288
-1217
-1232
-1302
-1352
-1340
-1279
-1215
-1209
-1291
-1411
-1447
-1319
-1109
-1007
-1117
-1340
-1473
-1443
-1382
-1457
-1689
-1941
-2081
-2110
-2108
-2123
-2132
-2092
-1999
-1890
-1804
-1756
-1735
-1722
-1706
-1684
-1656
-1613
-1551
-1477
-1398
-1311
-1213
-1117
-1057
-1050
-1056
-997
-838
-616
-402
-240
-124
-21
93
202
249
179
-6
-207
-282
-173
42
227
334
446
671
990
1238
1247
1005
668
401
221
2
-360
-777
-1003
-865
-474
-208
-417
-1120
-1931
-2336
-2089
-1406
-752
-384
-128
418
1427
2622
3508
3776
3475
2860
2174
1612
1309
1257
1282
1204
1089
1223
1766
2453
2759
2442
1773
1214
914
624
137
-353
-461
-94
419
718
823
1033
1458
1820
1793
1413
1007
769
532
39
-673
-1303
-1645
-1795
-1924
-1999
-1863
-1514
-1187
-1072
-1059
-884
-517
-307
-638
-1460
-2278
-2587
-2325
-1860
-1541
-1358
-1036
-421
311
837
993
867
617
299
-81
-461
-745
-891
-957
-1015
-1067
-1069
-1008
-902
-750
-551
-337
-144
73
468
1159
2063
2888
3363
3466
3414
3440
3598
3786
3911
4007
4196
4547
4973
5299
5407
5319
5151
4990
4828
4612
4346
4098
3925
3789
3616
3403
3239
3188
3181
3058
2746
2365
2102
2013
1976
1847
1621
1408
1281
1191
1056
870
701
582
456
274
77
-39
-43
-37
-133
-321
-494
-576
-617
-722
-918
-1133
-1296
-1424
-1608
-1939
-2444
-3044
-3552
-3741
-3497
-2933
-2313
-1802
-1320
-676
161
970
1471
1580
1437
1229
1046
918
889
1008
1240
1463
1596
1677
1814
2036
2252
2344
2290
2174
2106
2147
2282
2456
2625
2765
2857
2882
2832
2732
2636
2602
2639
2692
2692
2637
2594
2623
2699
2734
2676
2579
2536
2577
2625
2597
2492
2386
2333
2319
2297
2258
2232
2226
2212
2153
2051
1942
1856
1798
1762
1731
1691
1644
1610
1614
1660
1716
1734
1691
1610
1535
1489
1460
1408
1292
1098
854
620
454
381
392
458
565
720
941
1217
1493
1699
1793
1786
1704
1565
1380
1180
1017
907
805
669
523
453
501
599
614
491
308
189
174
198
168
52
-103
-228
-286
-285
-268
-268
-278
-265
-208
-135
-100
-129
-189
-224
-225
-224
-242
-249
-203
-112
-28
16
32
49
67
63
46
47
68
53
-35
-146
-174
-84
37
87
80
123
273
458
560
564
568
639
730
739
648
551
534
578
604
591
602
695
838
941
979
1008
1093
1222
1324
1361
1373
1420
1507
1578
1574
1501
1412
1352
1312
1253
1169
1113
1143
1264
1434
1628
1884
2256
2723
3181
3533
3792
4057
4408
4819
5193
5467
5646
5771
5861
5892
5826
5662
5427
5153
4873
4614
4401
4262
4190
4130
4041
3924
3789
3603
3319
2956
2624
2423
2325
2213
2064
2029
2274
2747
3183
3347
3247
3052
2884
2716
2486
2211
1979
1839
1768
1736
1766
1897
2106
2304
2415
2422
2375
2335
2307
2264
2178
2050
1904
1785
1723
1718
1755
1810
1850
1843
1786
1724
1723
1803
1905
1933
1857
1747
1719
1824
2008
2182
2312
2421
2525
2599
2609
2572
2526
2467
2356
2192
2061
2047
2120
2162
2095
1970
1888
1860
1791
1625
1441
1372
1459
1623
1774
1907
2073
2274
2450
2546
2576
2589
2599
2573
2501
2425
2394
2394
2364
2268
2137
2022
1925
1800
1628
1459
1353
1304
1236
1097
927
810
762
712
593
432
320
304
328
310
238
175
166
182
165
104
38
3
-18
-49
-68
-24
91
213
276
274
252
237
202
109
-32
-172
-286
-370
-423
-441
-435
-430
-404
-265
54
461
729
700
456
231
157
138
-11
-331
-672
-863
-864
-762
-653
-579
-554
-584
-656
-722
-738
-713
-692
-693
-695
-672
-613
-528
-410
-259
-115
-41
-50
-81
-54
52
185
282
336
381
438
488
506
493
472
482
554
696
875
1018
1068
1035
961
830
578
210
-117
-189
52
435
742
945
1201
1614
2069
2331
2294
2054
1770
1504
1234
949
689
498
363
243
118
-4
-115
-212
-314
-453
-657
-884
-1044
-1103
-1156
-1307
-1522
-1678
-1788
-2107
-2840
-3784
-4395
-4299
-3672
-3024
-2634
-2306
-1703
-813
3
378
245
-196
-741
-1297
-1833
-2294
-2610
-2743
-2715
-2590
-2426
-2253
-2073
-1903
-1801
-1843
-2035
-2280
-2436
-2435
-2319
-2175
-2045
-1921
-1796
-1695
-1661
-1717
-1838
-1959
-2009
-1972
-1925
-1991
-2210
-2482
-2676
-2769
-2883
-3116
-3396
-3531
-3412
-3132
-2870
-2706
-2566
-2361
-2098
-1860
-1719
-1696
-1788
-1972
-2180
-2322
-2369
-2383
-2445
-2554
-2632
-2617
-2537
-2479
-2493
-2550
-2596
-2606
-2602
-2630
-2699
-2781
-2843
-2888
-2960
-3089
-3253
-3411
-3553
-3695
-3837
-3941
-3995
-4052
-4148
-4224
-4168
-3982
-3823
-3838
-3963
-3974
-3758
-3461
-3328
-3399
-3444
-3214
-2713
-2185
-1843
-1696
-1591
-1417
-1219
-1130
-1221
-1428
-1632
-1762
-1834
-1902
-1960
-1972
-1919
-1852
-1848
-1916
-2001
-2052
-2064
-2053
-2014
-1929
-1819
-1740
-1721
-1712
-1643
-1502
-1369
-1323
-1362
-1398
-1348
-1209
-1059
-991
-1028
-1113
-1155
-1108
-1015
-964
-1012
-1130
-1242
-1289
-1278
-1266
-1282
-1305
-1308
-1311
-1357
-1409
-1354
-1141
-906
-853
-1017
-1165
-1064
-786
-633
-750
-925
-867
-597
-442
-591
-836
-846
-598
-395
-454
-615
-582
-326
-138
-258
-581
-802
-780
-687
-756
-987
-1141
-1018
-689
-420
-399
-554
-661
-604
-501
-552
-780
-1007
-1052
-925
-787
-764
-817
-827
-756
-672
-666
-752
-860
-897
-828
-700
-602
-591
-636
-631
-521
-378
-347
-483
-678
-754
-658
-508
-469
-566
-682
-711
-686
-712
-825
-946
-1007
-1037
-1101
-1200
-1272
-1295
-1338
-1484
-1711
-1894
-1945
-1907
-1894
-1939
-1947
-1791
-1448
-1048
-752
-588
-441
-177
197
548
775
929
1125
1384
1600
1664
1588
1452
1293
1059
702
269
-133
-425
-618
-777
-922
-1014
-1013
-936
-857
-843
-895
-950
-973
-1017
-1163
-1376
-1507
-1459
-1312
-1230
-1272
-1322
-1237
-1032
-866
-864
-986
-1103
-1152
-1172
-1208
-1251
-1279
-1327
-1419
-1484
-1427
-1282
-1227
-1377
-1605
-1695
-1651
-1775
-2379
-3390
-4341
-4759
-4536
-3934
-3306
-2841
-2567
-2484
-2609
-2899
-3166
-3147
-2700
-1964
-1241
-677
-82
870
2208
3459
3964
3458
2313
1220
597
327
64
-303
-570
-502
-118
349
714
940
997
761
128
-750
-1456
-1630
-1278
-753
-398
-286
-280
-273
-291
-391
-524
-568
-447
-207
24
138
112
9
-75
-75
12
143
273
371
448
526
612
719
846
981
1096
1152
1124
1032
940
921
990
1102
1203
1269
1329
1431
1594
1783
1909
1909
1800
1667
1578
1521
1451
1366
1305
1281
1254
1204
1189
1252
1329
1286
1085
854
742
745
732
632
545
611
811
964
912
683
454
372
422
464
388
218
97
171
455
826
1137
1329
1434
1485
1479
1411
1310
1210
1095
935
751
629
636
741
848
888
863
810
767
760
796
849
854
788
699
657
669
659
578
480
451
497
534
504
443
424
444
427
331
212
145
131
104
35
-22
-4
85
182
234
244
235
202
130
38
-32
-81
-144
-238
-319
-323
-249
-177
-176
-225
-237
-179
-139
-238
-504
-828
-1064
-1158
-1178
-1212
-1253
-1190
-917
-437
115
576
871
1044
1201
1409
1643
1813
1848
1761
1657
1625
1645
1608
1428
1114
752
417
122
-157
-406
-587
-682
-707
-698
-683
-688
-743
-855
-984
-1081
-1137
-1189
-1249
-1280
-1238
-1128
-1007
-917
-855
-810
-806
-865
-942
-958
-897
-844
-891
-1008
-1072
-1023
-948
-968
-1071
-1121
-1034
-888
-845
-960
-1125
-1212
-1212
-1217
-1300
-1448
-1596
-1696
-1727
-1689
-1605
-1519
-1472
-1462
-1457
-1424
-1368
-1315
-1298
-1334
-1418
-1517
-1572
-1547
-1472
-1425
-1454
-1514
-1513
-1416
-1294
-1258
-1326
-1393
-1359
-1249
-1193
-1265
-1398
-1456
-1399
-1331
-1361
-1476
-1559
-1530
-1432
-1375
-1425
-1544
-1638
-1627
-1501
-1330
-1217
-1207
-1253
-1250
-1138
-972
-857
-855
-935
-1020
-1080
-1129
-1185
-1259
-1337
-1395
-1460
-1598
-1878
-2277
-2633
-2730
-2488
-2059
-1688
-1478
-1314
-1011
-577
-254
-277
-642
-1109
-1437
-1566
-1572
-1476
-1183
-586
258
1102
1633
1665
1208
406
-566
-1585
-2556
-3348
-3786
-3714
-3111
-2140
-1028
22
877
1447
1662
1511
1062
474
-96
-537
-808
-935
-942
-821
-577
-268
-11
117
148
144
71
-148
-436
-502
-112
591
1181
1413
1502
1814
2369
2780
2729
2378
2157
2241
2376
2242
1880
1618
1677
1952
2200
2326
2416
2557
2719
2816
2827
2795
2760
2736
2721
2729
2755
2757
2677
2510
2319
2191
2144
2087
1904
1571
1193
912
758
635
422
99
-244
-487
-582
-573
-554
-611
-773
-1001
-1233
-1437
-1634
-1862
-2130
-2403
-2645
-2836
-2953
-2973
-2916
-2843
-2784
-2667
-2376
-1916
-1481
-1274
-1282
-1257
-950
-353
315
834
1178
1491
1917
2467
3004
3337
3351
3097
2768
2537
2424
2320
2149
1982
1955
2100
2300
2432
2508
2627
2817
2960
2932
2764
2621
2612
2690
2732
2704
2683
2723
2757
2689
2535
2438
2503
2662
2755
2715
2625
2592
2614
2628
2609
2591
2580
2519
2365
2159
1963
1748
1408
911
383
12
-133
-130
-88
-29
97
301
534
727
841
861
776
579
305
31
-172
-287
-342
-369
-364
-296
-151
23
148
180
136
61
-22
-103
-159
-159
-112
-74
-75
-82
-46
25
81
118
205
386
586
669
604
502
477
501
450
279
84
-5
31
98
121
117
151
240
334
374
343
267
171
67
-28
-87
-88
-42
3
7
-31
-84
-134
-187
-250
-281
-223
-72
114
273
415
593
820
1017
1079
977
770
549
362
204
51
-105
-257
-379
-440
-437
-405
-392
-425
-476
-498
-491
-489
-496
-457
-320
-117
44
93
86
152
337
518
504
232
-141
-360
-280
38
415
740
1052
1459
2001
2594
3086
3374
3443
3344
3161
2978
2850
2772
2696
2601
2543
2564
2612
2590
2485
2387
2361
2332
2175
1901
1685
1657
1728
1715
1602
1586
1827
2232
2549
2650
2634
2656
2713
2674
2458
2122
1784
1510
1319
1250
1358
1632
1959
2211
2343
2406
2459
2498
2487
2408
2293
2192
2146
2168
2263
2412
2568
2650
2591
2398
2145
1917
1750
1638
1552
1470
1386
1315
1301
1392
1604
1891
2173
2395
2578
2803
3130
3534
3914
4167
4274
4304
4348
4439
4532
4549
4441
4229
3988
3795
3692
3656
3622
3540
3417
3299
3212
3134
3024
2877
2718
2565
2393
2167
1895
1638
1466
1388
1359
1312
1211
1057
881
720
598
505
412
300
186
104
66
54
33
2
-12
7
37
14
-106
-302
-499
-630
-698
-784
-967
-1241
-1505
-1660
-1706
-1726
-1786
-1860
-1877
-1819
-1751
-1733
-1748
-1727
-1638
-1523
-1442
-1404
-1381
-1362
-1362
-1385
-1413
-1449
-1524
-1669
-1853
-2004
-2073
-2075
-2056
-2048
-2056
-2075
-2100
-2126
-2155
-2204
-2278
-2355
-2398
-2395
-2372
-2345
-2285
-2158
-1997
-1879
-1836
-1812
-1734
-1609
-1510
-1477
-1465
-1405
-1314
-1256
-1252
-1235
-1143
-1013
-934
-929
-897
-754
-556
-429
-407
-393
-295
-177
-188
-406
-773
-1207
-1651
-1974
-1952
-1488
-843
-476
-540
-615
-138
912
1884
2117
1658
1211
1377
2044
2591
2614
2261
1941
1828
1761
1568
1300
1120
1021
848
558
357
489
931
1361
1475
1260
961
770
652
473
190
-102
-315
-460
-600
-748
-866
-933
-988
-1079
-1222
-1397
-1583
-1787
-2045
-2392
-2837
-3301
-3633
-3704
-3523
-3227
-2942
-2664
-2302
-1836
-1402
-1186
-1242
-1450
-1652
-1806
-1968
-2167
-2312
-2277
-2030
-1672
-1335
-1082
-891
-728
-604
-564
-644
-798
-949
-1047
-1104
-1160
-1220
-1239
-1197
-1124
-1076
-1067
-1069
-1072
-1105
-1220
-1450
-1777
-2137
-2426
-2533
-2400
-2069
-1646
-1211
-768
-306
108
360
380
204
-84
-439
-854
-1268
-1546
-1576
-1369
-1057
-771
-548
-350
-125
136
399
591
636
530
388
372
536
751
806
612
275
-29
-218
-330
-428
-521
-593
-663
-746
-809
-788
-686
-591
-599
-695
-783
-805
-809
-870
-989
-1089
-1120
-1137
-1224
-1384
-1521
-1548
-1491
-1461
-1531
-1666
-1769
-1796
-1808
-1888
-2041
-2179
-2216
-2153
-2069
-2032
-2024
-1967
-1819
-1617
-1459
-1410
-1444
-1461
-1387
-1236
-1102
-1081
-1195
-1385
-1562
-1666
-1695
-1692
-1695
-1697
-1647
-1515
-1335
-1201
-1185
-1260
-1325
-1329
-1333
-1435
-1632
-1796
-1788
-1625
-1456
-1409
-1465
-1493
-1401
-1226
-1084
-1054
-1102
-1139
-1117
-1054
-1001
-985
-983
-970
-969
-1029
-1141
-1206
-1133
-947
-784
-735
-757
-756
-704
-663
-677
-703
-678
-617
-580
-585
-595
-588
-609
-694
-797
-832
-797
-765
-776
-762
-634
-410
-218
-165
-226
-288
-276
-229
-249
-388
-584
-709
-687
-562
-446
-406
-407
-375
-289
-210
-198
-242
-292
-317
-326
-322
-302
-279
-293
-359
-431
-450
-416
-398
-459
-570
-661
-697
-713
-755
-810
-831
-825
-843
-903
-939
-886
-789
-773
-874
-980
-984
-940
-1015
-1258
-1491
-1512
-1347
-1213
-1242
-1318
-1241
-995
-767
-705
-758
-778
-726
-695
-750
-829
-811
-690
-566
-517
-509
-470
-393
-336
-331
-321
-263
-215
-269
-402
-462
-333
-96
47
-7
-134
-135
40
252
345
302
222
195
223
244
212
124
25
-20
9
49
9
-121
-250
-288
-258
-286
-471
-793
-1168
-1523
-1804
-1980
-2044
-2006
-1881
-1646
-1267
-771
-247
250
725
1158
1476
1625
1688
1836
2132
2444
2595
2575
2522
2535
2543
2425
2160
1830
1500
1166
838
580
454
432
432
407
348
228
7
-285
-520
-582
-523
-504
-609
-733
-712
-502
-244
-121
-170
-287
-342
-300
-237
-232
-294
-353
-350
-291
-222
-167
-115
-54
-6
-10
-73
-138
-157
-144
-159
-227
-287
-274
-213
-205
-304
-429
-446
-326
-205
-245
-457
-685
-790
-805
-879
-1091
-1327
-1407
-1278
-1077
-983
-1019
-1068
-1021
-897
-818
-866
-1012
-1165
-1257
-1273
-1239
-1186
-1127
-1052
-947
-809
-664
-540
-449
-382
-331
-309
-321
-339
-310
-210
-80
8
29
23
51
129
222
297
345
388
437
478
497
502
512
549
617
692
748
772
770
760
760
767
764
728
673
638
655
709
755
764
751
744
736
700
638
598
619
668
666
579
473
443
504
576
566
473
380
361
402
440
441
436
458
483
446
335
216
160
153
107
-28
-189
-248
-158
-9
70
42
-11
-10
33
37
-33
-126
-172
-168
-175
-232
-304
-331
-300
-260
-261
-288
-281
-215
-126
-72
-61
-42
28
129
196
196
166
162
196
230
236
228
238
268
286
263
216
175
138
70
-43
-162
-224
-214
-192
-215
-269
-289
-242
-178
-180
-256
-336
-353
-308
-247
-187
-100
14
98
95
28
-11
29
87
50
-107
-283
-360
-329
-286
-337
-488
-655
-756
-774
-767
-788
-814
-756
-538
-165
260
619
890
1134
1417
1735
2017
2200
2274
2273
2245
2227
2230
2208
2061
1721
1256
847
622
524
368
56
-293
-467
-410
-290
-300
-451
-588
-589
-506
-477
-552
-640
-626
-489
-318
-207
-178
-198
-196
-135
-57
-59
-192
-385
-516
-569
-725
-1183
-1925
-2682
-3160
-3262
-3068
-2679
-2149
-1548
-1007
-609
-275
141
609
870
690
163
-302
-366
-87
203
273
188
134
140
72
-125
-305
-342
-336
-481
-689
-517
418
1921
3244
3721
3317
2543
1876
1327
581
-556
-1885
-2970
-3491
-3456
-3120
-2747
-2449
-2186
-1921
-1721
-1726
-2016
-2520
-3063
-3517
-3842
-4015
-4002
-3799
-3490
-3194
-2955
-2751
-2611
-2678
-3059
-3637
-4143
-4456
-4737
-5174
-5621
-5622
-4882
-3622
-2384
-1472
-713
204
1258
2058
2251
1863
1219
635
259
117
199
443
747
1041
1363
1756
2110
2250
2129
1902
1756
1718
1724
1824
2201
2914
3715
4234
4356
4315
4401
4634
4813
4825
4790
4863
4982
4940
4647
4243
3943
3816
3752
3618
3396
3180
3113
3275
3612
3884
3801
3251
2410
1613
1023
478
-306
-1370
-2389
-2943
-2917
-2579
-2259
-2016
-1706
-1309
-1082
-1289
-1829
-2271
-2296
-2033
-1863
-1907
-1890
-1474
-661
221
874
1288
1607
1890
2089
2184
2246
2323
2380
2389
2422
2595
2942
3365
3737
4021
4251
4442
4561
4600
4624
4700
4814
4861
4738
4437
4058
3718
3494
3442
3621
4047
4619
5129
5401
5433
5393
5428
5485
5355
4893
4201
3576
3257
3230
3274
3200
3018
2916
3049
3407
3844
4198
4386
4441
4463
4544
4696
4843
4882
4779
4592
4405
4229
4005
3691
3316
2944
2602
2257
1875
1474
1098
775
515
338
275
334
460
553
542
439
322
256
240
233
207
182
192
237
280
287
272
274
299
305
257
177
136
176
266
339
372
416
532
709
872
951
953
938
949
966
950
899
857
873
941
1013
1050
1061
1084
1132
1178
1181
1139
1085
1056
1050
1049
1056
1104
1208
1323
1379
1354
1299
1284
1318
1344
1311
1229
1151
1116
1121
1139
1158
1178
1191
1190
1184
1196
1239
1300
1359
1397
1381
1272
1070
862
772
835
943
946
803
643
606
698
810
853
878
1006
1297
1684
2039
2285
2436
2543
2630
2659
2584
2420
2263
2205
2255
2331
2368
2393
2487
2659
2814
2846
2761
2645
2559
2477
2348
2189
2071
2036
2051
2065
2046
2006
1974
1976
2032
2140
2271
2414
2596
2843
3099
3267
3341
3455
3749
4184
4564
4740
4748
4691
4575
4359
4133
4137
4489
4971
5204
5040
4698
4457
4293
3909
3118
2093
1204
679
485
500
686
1065
1577
2049
2335
2433
2440
2421
2335
2123
1814
1538
1427
1519
1740
1991
2200
2331
2359
2277
2120
1973
1923
1992
2126
2243
2304
2316
2302
2259
2177
2071
1977
1928
1921
1931
1943
1975
2039
2118
2176
2201
2223
2289
2417
2580
2733
2864
2991
3141
3315
3478
3582
3611
3586
3544
3500
3452
3385
3291
3165
3021
2891
2802
2756
2713
2647
2604
2688
2964
3356
3705
3928
4098
4357
4751
5156
5395
5402
5269
5132
5036
4931
4742
4440
4038
3558
3027
2491
1999
1587
1247
948
658
367
89
-139
-285
-366
-454
-623
-882
-1148
-1313
-1366
-1422
-1609
-1911
-2148
-2153
-1942
-1705
-1593
-1546
-1375
-1005
-613
-468
-670
-1071
-1458
-1772
-2112
-2540
-2937
-3096
-2912
-2477
-1976
-1520
-1103
-690
-320
-109
-136
-372
-711
-1071
-1434
-1786
-2054
-2135
-2013
-1804
-1667
-1643
-1632
-1526
-1343
-1228
-1303
-1535
-1765
-1859
-1822
-1769
-1766
-1775
-1734
-1657
-1639
-1754
-1969
-2203
-2444
-2740
-3092
-3381
-3472
-3367
-3191
-3005
-2676
-2008
-1014
6
695
957
1010
1119
1304
1355
1087
564
34
-305
-439
-468
-474
-470
-455
-462
-515
-607
-700
-764
-808
-859
-934
-1047
-1183
-1318
-1433
-1511
-1538
-1506
-1439
-1416
-1513
-1714
-1893
-1924
-1828
-1785
-1969
-2361
-2709
-2702
-2197
-1349
-505
41
257
350
508
687
636
149
-708
-1643
-2374
-2815
-3054
-3209
-3335
-3430
-3481
-3502
-3521
-3573
-3693
-3884
-4088
-4233
-4283
-4256
-4199
-4126
-4008
-3814
-3569
-3348
-3214
-3158
-3103
-2991
-2831
-2674
-2554
-2454
-2349
-2240
-2148
-2067
-1941
-1725
-1456
-1227
-1114
-1119
-1192
-1290
-1404
-1531
-1652
-1747
-1824
-1897
-1949
-1936
-1844
-1728
-1670
-1697
-1760
-1793
-1788
-1784
-1798
-1800
-1758
-1661
-1520
-1348
-1185
-1096
-1118
-1208
-1276
-1301
-1368
-1552
-1784
-1888
-1787
-1603
-1513
-1548
-1588
-1542
-1485
-1564
-1801
-2067
-2245
-2362
-2514
-2722
-2917
-3027
-3045
-2980
-2805
-2487
-2055
-1592
-1169
-800
-493
-266
-114
4
123
215
212
102
-21
-35
70
158
60
-265
-684
-1026
-1231
-1404
-1676
-2045
-2345
-2420
-2311
-2227
-2335
-2571
-2719
-2659
-2523
-2550
-2816
-3132
-3235
-3046
-2745
-2595
-2702
-2932
-3076
-3050
-2959
-2955
-3059
-3143
-3082
-2895
-2714
-2609
-2508
-2302
-1999
-1758
-1708
-1811
-1901
-1871
-1775
-1748
-1855
-2026
-2130
-2094
-1962
-1845
-1846
-1982
-2164
-2269
-2252
-2191
-2198
-2317
-2469
-2543
-2489
-2346
-2208
-2151
-2199
-2315
-2415
-2442
-2420
-2433
-2537
-2679
-2753
-2733
-2698
-2736
-2818
-2837
-2753
-2652
-2618
-2610
-2502
-2269
-2043
-1966
-2020
-2049
-1957
-1827
-1801
-1896
-1986
-1970
-1867
-1779
-1764
-1789
-1805
-1786
-1736
-1659
-1569
-1498
-1467
-1452
-1417
-1349
-1272
-1216
-1176
-1142
-1121
-1138
-1200
-1271
-1291
-1223
-1081
-944
-889
-916
-934
-856
-703
-605
-659
-817
-934
-923
-832
-779
-814
-883
-913
-884
-823
-757
-696
-660
-666
-711
-770
-822
-851
-865
-875
-905
-991
-1138
-1313
-1467
-1593
-1716
-1820
-1828
-1674
-1409
-1164
-999
-831
-546
-202
-34
-223
-676
-1094
-1257
-1201
-1125
-1153
-1228
-1207
-1008
-677
-346
-144
-123
-230
-347
-389
-382
-395
-434
-424
-309
-154
-97
-209
-376
-438
-393
-379
-492
-665
-745
-706
-649
-636
-598
-489
-458
-757
-1472
-2408
-3272
-3905
-4251
-4198
-3640
-2662
-1558
-546
460
1650
2907
3746
3765
3078
2200
1547
1145
808
457
193
107
135
175
223
309
359
236
-122
-570
-840
-755
-361
134
559
880
1162
1454
1729
1946
2106
2245
2390
2525
2615
2628
2541
2330
1979
1527
1064
703
508
428
338
162
-43
-155
-131
-60
-57
-129
-190
-205
-244
-363
-498
-538
-489
-480
-579
-698
-720
-658
-644
-733
-840
-862
-828
-848
-953
-1063
-1109
-1124
-1176
-1249
-1278
-1245
-1214
-1243
-1306
-1347
-1370
-1433
-1557
-1686
-1735
-1678
-1543
-1371
-1176
-959
-737
-542
-405
-345
-355
-410
-486
-578
-692
-825
-946
-1023
-1053
-1065
-1068
-1046
-999
-974
-1025
-1134
-1209
-1181
-1089
-1045
-1110
-1232
-1311
-1309
-1288
-1325
-1424
-1532
-1594
-1606
-1588
-1563
-1540
-1523
-1516
-1524
-1537
-1540
-1530
-1513
-1492
-1473
-1460
-1455
-1453
-1448
-1432
-1402
-1352
-1287
-1219
-1162
-1113
-1047
-944
-821
-729
-699
-716
-737
-732
-693
-632
-565
-507
-473
-476
-519
-581
-636
-683
-751
-888
-1094
-1274
-1272
-993
-518
-56
200
213
82
-90
-293
-580
-987
-1480
-1982
-2391
-2601
-2548
-2272
-1926
-1672
-1561
-1517
-1464
-1417
-1460
-1614
-1801
-1929
-2002
-2082
-2169
-2150
-1919
-1547
-1254
-1180
-1223
-1169
-957
-750
-718
-808
-809
-636
-435
-380
-445
-460
-359
-295
-452
-825
-1253
-1626
-1985
-2373
-2712
-2870
-2823
-2667
-2494
-2291
-2006
-1677
-1426
-1336
-1364
-1406
-1400
-1368
-1358
-1387
-1413
-1382
-1283
-1188
-1184
-1275
-1358
-1324
-1179
-1042
-1006
-1032
-1005
-886
-781
-824
-1014
-1198
-1222
-1093
-957
-918
-914
-784
-479
-147
-2
-93
-250
-293
-237
-248
-413
-591
-581
-370
-141
-51
-22
149
537
986
1292
1399
1387
1287
1024
571
63
-308
-498
-622
-749
-760
-489
21
501
714
701
685
778
833
654
264
-102
-260
-253
-259
-358
-467
-513
-541
-643
-826
-1000
-1104
-1172
-1250
-1288
-1191
-960
-749
-721
-859
-998
-1039
-1060
-1170
-1285
-1201
-952
-999
-1857
-3463
-5001
-5547
-4905
-3766
-2962
-2640
-2227
-1170
415
1818
2376
1966
963
-145
-1058
-1710
-2148
-2441
-2628
-2708
-2656
-2466
-2176
-1872
-1657
-1609
-1760
-2063
-2383
-2538
-2392
-1942
-1350
-864
-668
-758
-967
-1106
-1092
-963
-794
-647
-548
-473
-342
-86
274
636
938
1243
1662
2200
2712
3034
3154
3197
3267
3336
3311
3169
2988
2865
2823
2796
2712
2546
2338
2155
2029
1939
1860
1805
1818
1914
2050
2196
2385
2665
2987
3178
3080
2709
2263
1959
1862
1890
1938
1973
2038
2185
2430
2740
3027
3187
3160
2972
2707
2455
2261
2132
2062
2016
1948
