-152
-193
-242
-302
-376
-461
-548
-625
-695
-766
-840
-907
-954
-976
-987
-1001
-1023
-1041
-1043
-1029
-1015
-1018
-1045
-1087
-1122
-1129
-1101
-1055
-1016
-990
-953
-872
-748
-629
-572
-585
-610
-576
-471
-346
-260
-212
-148
-23
150
321
448
528
581
620
640
641
636
639
644
632
597
558
543
564
606
648
674
684
683
678
679
694
716
727
717
700
700
717
726
709
677
664
682
711
716
697
684
712
789
892
979
1017
1001
965
965
1033
1131
1180
1132
1027
956
979
1045
1036
895
695
546
472
397
255
93
-3
-44
-136
-358
-676
-1014
-1347
-1643
-1743
-1424
-632
390
1332
2155
3085
4243
5343
5873
5587
4733
3786
3007
2321
1577
806
209
-65
-61
71
227
377
482
466
271
-57
-364
-523
-537
-506
-515
-546
-527
-440
-348
-322
-364
-412
-420
-401
-397
-417
-433
-428
-428
-469
-552
-626
-646
-610
-561
-528
-501
-451
-379
-319
-301
-319
-335
-322
-288
-264
-278
-336
-420
-503
-572
-645
-758
-929
-1124
-1260
-1273
-1182
-1074
-1022
-1020
-1008
-960
-923
-957
-1065
-1201
-1337
-1482
-1642
-1751
-1706
-1495
-1233
-1061
-985
-884
-670
-409
-264
-303
-413
-435
-331
-195
-109
-50
24
69
-4
-187
-343
-369
-315
-308
-373
-390
-258
-33
123
128
52
-5
-50
-175
-410
-661
-810
-842
-811
-751
-637
-476
-357
-379
-522
-616
-509
-268
-125
-224
-473
-667
-755
-897
-1252
-1765
-2242
-2595
-2901
-3206
-3368
-3183
-2674
-2125
-1797
-1669
-1506
-1177
-806
-608
-644
-802
-943
-1021
-1058
-1064
-1032
-1003
-1033
-1130
-1239
-1309
-1355
-1422
-1500
-2824
-2687
-2487
-2151
-1744
-1445
-1377
-1506
-1695
-1825
-1854
-1769
-1552
-1220
-863
-585
-399
-207
87
445
707
752
624
474
404
387
343
259
205
253
422
683
984
1275
1514
1662
1700
1643
1542
1452
1394
1325
1180
973
804
761
811
836
776
722
803
1005
1151
1088
864
673
649
733
776
717
655
741
1014
1371
1661
1794
1787
1712
1607
1491
1390
1307
1222
1140
1139
1327
1677
1976
2010
1825
1675
1723
1832
1730
1351
912
657
612
630
597
518
429
337
252
214
212
131
-154
-666
-1286
-1857
-2287
-2572
-2799
-3098
-3493
-3853
-3974
-3758
-3353
-2999
-2766
-2505
-2064
-1506
-1010
-633
-238
261
711
869
743
678
1025
1760
2505
2947
3171
3495
4056
4637
4944
4969
4941
4999
5051
5017
5067
5471
6208
6869
7037
6692
6161
5694
5198
4456
3466
2473
1667
987
282
-442
-1045
-1488
-1956
-2655
-3544
-4374
-4996
-5540
-6215
-6980
-7539
-7709
-7674
-7815
-8273
-8775
-8967
-8816
-8639
-8751
-9149
-9560
-9780
-9874
-10073
-10497
-11037
-11453
-11583
-11461
-11248
-11052
-10852
-10549
-10114
-9632
-9197
-8790
-8309
-7709
-7068
-6474
-5885
-5160
-4246
-3281
-2464
-1841
-1272
-624
64
636
992
1199
1409
1700
2029
2331
2619
2968
3398
3815
4070
4096
3981
3889
3924
4043
4139
4185
4281
4538
4946
5337
5515
5400
5043
4544
3955
3254
2427
1543
769
279
124
191
335
507
776
1154
1477
1523
1243
842
559
407
196
-196
-649
-902
-816
-491
-156
28
67
97
246
538
853
1002
902
658
448
385
434
494
518
527
559
633
737
844
939
1019
1094
1161
1178
1119
1027
996
1075
1209
1321
1417
1569
1813
2077
2252
2304
2275
2222
2156
2060
1972
1939
1945
1919
1827
1730
1709
1717
1601
1340
1164
1351
1880
2359
2417
2116
1898
2099
2579
2865
2661
2100
1588
1442
1715
2203
2583
2602
2255
1830
1690
1906
2131
1932
1245
477
99
184
414
462
263
-89
-572
-1206
-1809
-1974
-1434
-382
700
1554
2359
3304
4156
4397
3820
2810
1884
1112
210
-867
-1643
-1619
-902
-146
123
-3
-77
87
231
21
-513
-1019
-1221
-1165
-1063
-1018
-957
-784
-539
-368
-401
-680
-1133
-1567
-1717
-1423
-827
-328
-228
-424
-507
-182
424
904
984
740
449
304
297
308
238
77
-105
-192
-64
280
692
958
991
896
832
803
654
309
-75
-240
-119
52
-23
-386
-811
-1115
-1390
-1841
-2490
-3123
-3553
-3814
-4048
-4271
-4363
-4283
-4153
-4099
-4075
-3941
-3665
-3367
-3157
-2995
-2762
-2428
-2060
-1721
-1401
-1083
-773
-470
-138
236
597
866
1074
1347
1762
2216
2515
2582
2515
2473
2509
2565
2587
2585
2599
2640
2696
2759
2824
2861
2836
2776
2763
2849
2983
3066
3058
3041
3111
3267
3390
3371
3224
3090
3070
3121
3105
2942
2725
2617
2685
2836
2917
2873
2784
2767
2862
3002
3099
3123
3114
3116
3140
3168
3186
3196
3194
3155
3053
2927
2848
2831
2786
2612
2320
2035
1829
1634
1317
839
267
-318
-871
-1304
-1446
-1181
-603
45
647
1336
2271
3341
4173
4470
4279
3878
3458
3008
2478
1931
1486
1158
863
580
411
446
589
631
479
252
139
190
302
381
429
488
526
469
303
121
24
17
5
-99
-284
-465
-556
-531
-452
-435
-554
-777
-990
-1112
-1176
-1282
-1484
-1757
-2068
-2433
-2862
-3291
-3584
-3683
-3685
-3749
-3932
-4134
-4221
-4187
-4170
-4319
-4659
-5082
-5453
-5704
-5840
-5881
-5826
-5676
-5456
-5199
-4904
-4557
-4175
-3827
-3586
-3470
-3436
-3439
-3459
-3455
-3327
-2994
-2512
-2042
-1660
-1245
-602
248
1047
1554
1804
2032
2357
2647
2711
2574
2456
2510
2679
2817
2897
3008
3192
3398
3561
3652
3634
3428
3013
2511
2063
1644
1102
388
-300
-731
-945
-1222
-1716
-2246
-2540
-2602
-2683
-2889
-2955
-2529
-1594
-510
379
1051
1699
2396
2997
3353
3504
3623
3831
4141
4530
4990
5455
5771
5793
5493
4965
4341
3708
3120
2614
2242
2085
2253
2810
3685
4651
5440
5927
6166
6266
6264
6128
5835
5424
4934
4388
3808
3216
2576
1807
915
132
-167
226
1133
2148
3032
3909
5027
6323
7349
7644
7151
6250
5380
4702
4108
3469
2821
2319
2094
2167
2470
2902
3339
3655
3763
3633
3293
2821
2311
1819
1346
844
306
-205
-588
-787
-801
-655
-384
-66
156
164
-28
-277
-439
-490
-496
-474
-350
-53
383
841
1249
1615
1942
2163
2194
2038
1822
1703
1719
1721
1494
964
284
-278
-574
-702
-866
-1123
-1309
-1243
-942
-579
-254
115
614
1124
1387
1295
1017
799
698
563
272
-109
-399
-511
-517
-539
-636
-786
-952
-1117
-1275
-1421
-1579
-1772
-2003
-2234
-2422
-2545
-2632
-2721
-2815
-2887
-2917
-2948
-3058
-3284
-3586
-3868
-4061
-4169
-4248
-4355
-4500
-4645
-4754
-4822
-4871
-4911
-4921
-4882
-4821
-4799
-4845
-4914
-4944
-4947
-5013
-5196
-5428
-5593
-5649
-5658
-5698
-5782
-5901
-6077
-6347
-6689
-7028
-7321
-7576
-7761
-7761
-7489
-7040
-6646
-6436
-6296
-6027
-5621
-5304
-5287
-5524
-5758
-5781
-5612
-5418
-5332
-5369
-5449
-5496
-5484
-5445
-5416
-5392
-5332
-5214
-5097
-5056
-5090
-5152
-5257
-5477
-5774
-5892
-5536
-4673
-3559
-2419
-1190
325
2060
3591
4486
4692
4509
4216
3852
3348
2756
2260
1988
1919
1976
2140
2428
2777
3056
3157
3100
2972
2854
2773
2714
2671
2634
2580
2507
2451
2448
2498
2562
2615
2672
2759
2850
2887
2845
2771
2733
2754
2812
2911
3098
3387
3719
4014
4264
4523
4789
4948
4892
4664
4460
4427
4533
4616
4587
4535
4609
4860
5189
5450
5544
5460
5267
5093
5046
5107
5133
4978
4663
4360
4222
4220
4200
4075
3911
3799
3726
3592
3364
3127
2971
2864
2698
2438
2185
2071
2120
2249
2365
2436
2480
2506
2503
2466
2393
2260
2032
1717
1413
1257
1332
1594
1908
2144
2250
2250
2191
2071
1839
1452
937
401
-32
-313
-498
-677
-890
-1110
-1298
-1476
-1715
-2077
-2551
-3070
-3577
-4047
-4494
-4943
-5380
-5748
-5995
-6144
-6288
-6498
-6720
-6832
-6820
-6843
-7077
-7499
-7926
-8238
-8512
-8897
-9370
-9732
-9836
-9751
-9660
-9642
-9662
-9683
-9732
-9804
-9763
-9421
-8723
-7818
-6932
-6207
-5642
-5162
-4731
-4403
-4278
-4430
-4825
-5278
-5490
-5150
-4101
-2466
-602
1132
2649
4142
5788
7450
8730
9334
9373
9242
9271
9519
9868
10202
10469
10667
10827
11012
11282
11602
11827
11835
11627
11276
10839
10336
9808
9336
8982
8726
8498
8269
8056
7883
7726
7523
7208
6736
6107
5377
4638
3954
3336
2781
2349
2139
2184
2385
2589
2710
2759
2764
2731
2686
2732
2975
3425
3997
4612
5278
6010
6725
7263
7520
7536
7396
7114
6657
6066
5483
5040
4739
4483
4204
3922
3697
3521
3316
3007
2593
2132
1704
1370
1162
1055
972
826
591
309
58
-123
-257
-394
-564
-748
-886
-934
-907
-876
-895
-928
-868
-642
-299
23
231
354
484
665
868
1049
1211
1381
1547
1662
1706
1714
1744
1806
1851
1834
1771
1728
1749
1801
1824
1804
1785
1809
1832
1751
1521
1236
1038
954
855
608
257
-7
-70
-27
-74
-274
-497
-588
-545
-501
-536
-591
-561
-434
-298
-236
-238
-246
-223
-189
-163
-152
-169
-229
-315
-371
-347
-263
-201
-233
-358
-529
-710
-919
-1225
-1704
-2360
-3041
-3471
-3432
-2988
-2450
-2058
-1701
-1058
-33
1013
1573
1489
1067
681
385
11
-471
-837
-891
-713
-528
-395
-183
133
301
42
-610
-1304
-1735
-1937
-2148
-2471
-2750
-2785
-2578
-2313
-2156
-2119
-2120
-2114
-2111
-2131
-2159
-2172
-2163
-2140
-2100
-2031
-1938
-1836
-1742
-1653
-1567
-1500
-1465
-1444
-1389
-1275
-1127
-1004
-936
-907
-882
-859
-845
-830
-787
-719
-680
-723
-848
-999
-1114
-1170
-1179
-1160
-1123
-1067
-985
-878
-761
-673
-647
-682
-746
-816
-908
-1027
-1135
-1168
-1111
-1039
-1029
-1065
-1042
-895
-685
-535
-500
-520
-507
-445
-382
-341
-296
-231
-175
-160
-164
-142
-104
-113
-202
-322
-409
-460
-519
-599
-673
-722
-774
-840
-891
-883
-843
-844
-881
-856
-691
-440
-240
-157
-110
-14
85
51
-152
-402
-548
-574
-591
-656
-664
-463
-64
354
621
745
840
944
997
949
843
725
560
272
-110
-436
-609
-710
-902
-1206
-1460
-1526
-1445
-1397
-1497
-1701
-1867
-1931
-1948
-2046
-2317
-2746
-3213
-3617
-3981
-4367
-4686
-4685
-4187
-3341
-2506
-1846
-1154
-146
1056
1912
1985
1410
751
400
258
-28
-586
-1163
-1379
-1082
-449
200
623
765
744
710
726
718
612
441
327
350
452
501
436
303
155
-22
-261
-547
-808
-985
-1067
-1083
-1091
-1141
-1229
-1291
-1261
-1160
-1090
-1121
-1195
-1184
-1057
-938
-967
-1128
-1271
-1305
-1310
-1441
-1731
-2046
-2229
-2246
-2184
-2124
-2068
-1972
-1816
-1632
-1467
-1355
-1316
-1355
-1445
-1539
-1611
-1711
-1917
-2237
-2577
-2811
-2897
-2905
-2939
-3023
-3082
-3025
-2832
-2565
-2325
-2186
-2161
-2188
-2169
-2049
-1852
-1646
-1449
-1219
-927
-629
-410
-280
-159
5
124
27
-339
-806
-1115
-1151
-1046
-1019
-1138
-1278
-1292
-1183
-1077
-1073
-1157
-1277
-1461
-1761
-2119
-2349
-2316
-2116
-2022
-2203
-2519
-2672
-2531
-2284
-2233
-2465
-2779
-2934
-2880
-2738
-2621
-2532
-2424
-2264
-2049
-1787
-1528
-1362
-1348
-1442
-1516
-1496
-1425
-1391
-1411
-1398
-1281
-1096
-926
-833
-858
-1008
-1242
-1463
-1595
-1635
-1654
-1715
-1805
-1872
-1886
-1872
-1912
-2125
-2575
-3119
-3421
-3186
-2466
-1625
-918
-175
955
2479
3903
4713
4891
4826
4769
4565
4001
3252
2763
2758
2979
3040
2925
2989
3424
3981
4238
4068
3693
3373
3174
3057
3060
3224
3422
3417
3148
2867
2847
3012
2954
2400
1575
985
880
1000
926
564
210
140
292
379
281
152
169
274
245
13
-233
-272
-142
-97
-311
-671
-893
-821
-579
-428
-528
-815
-1074
-1137
-1041
-980
-1104
-1363
-1575
-1650
-1692
-1837
-2044
-2104
-1882
-1510
-1247
-1204
-1255
-1229
-1087
-940
-912
-1037
-1264
-1495
-1642
-1687
-1704
-1744
-1757
-1632
-1357
-1079
-944
-906
-769
-469
-199
-217
-502
-737
-666
-349
-39
115
177
251
340
437
616
952
1361
1611
1586
1438
1443
1677
1934
1998
1900
1867
2021
2244
2366
2376
2395
2484
2573
2598
2632
2772
2959
2986
2769
2476
2350
2399
2375
2077
1608
1275
1257
1427
1532
1469
1364
1388
1556
1727
1757
1646
1521
1479
1451
1264
866
431
189
144
72
-192
-495
-524
-220
99
61
-412
-1125
-1905
-2705
-3453
-3939
-3996
-3694
-3223
-2586
-1560
-29
1702
3066
3699
3699
3418
3093
2714
2207
1614
1089
764
689
868
1262
1740
2099
2184
2020
1784
1649
1631
1610
1492
1347
1327
1467
1606
1541
1255
953
850
956
1077
1047
888
748
723
787
872
933
947
882
732
583
559
696
891
1014
1060
1132
1298
1507
1656
1728
1800
1934
2110
2265
2376
2482
2637
2833
3016
3131
3161
3144
3125
3120
3109
3068
3001
2943
2938
3006
3125
3220
3209
3062
2839
2636
2479
2287
1974
1576
1249
1101
1082
1041
905
751
685
684
608
358
-8
-327
-499
-581
-698
-898
-1111
-1240
-1273
-1292
-1353
-1413
-1396
-1307
-1251
-1294
-1365
-1344
-1226
-1147
-1223
-1416
-1577
-1629
-1650
-1762
-1993
-2279
-2536
-2735
-2877
-2963
-3003
-3031
-3065
-3080
-3075
-3119
-3302
-3632
-4001
-4307
-4550
-4790
-5034
-5201
-5213
-5091
-4908
-4677
-4348
-3928
-3503
-3159
-2894
-2644
-2432
-2391
-2615
-2999
-3301
-3361
-3268
-3243
-3366
-3474
-3355
-2993
-2583
-2311
-2160
-2049
-2050
-2336
-2850
-3188
-2955
-2214
-1424
-854
-221
944
2632
4258
5298
5830
6324
6995
7583
7762
7573
7296
7019
6552
5776
4893
4207
3777
3413
2988
2628
2523
2675
2928
3170
3401
3619
3716
3603
3352
3138
3010
2827
2454
1991
1702
1728
1912
1965
1782
1532
1412
1386
1227
806
258
-191
-490
-805
-1278
-1800
-2073
-1923
-1453
-939
-583
-384
-245
-105
31
140
212
256
321
516
969
1693
2510
3164
3527
3694
3856
4089
4280
4232
3839
3178
2439
1817
1396
1147
992
895
897
1046
1319
1627
1896
2106
2265
2337
2253
1985
1606
1250
1018
916
859
760
629
563
622
731
735
568
342
186
70
-179
-646
-1186
-1573
-1749
-1861
-2024
-2142
-2018
-1602
-1050
-543
-131
208
416
367
16
-494
-941
-1202
-1308
-1321
-1240
-1033
-745
-508
-436
-508
-604
-659
-732
-912
-1153
-1289
-1227
-1041
-875
-751
-572
-341
-250
-478
-934
-1298
-1374
-1311
-1412
-1740
-2030
-1997
-1678
-1409
-1467
-1807
-2172
-2390
-2508
-2666
-2897
-3098
-3187
-3225
-3368
-3650
-3876
-3765
-3235
-2505
-1893
-1504
-1109
-394
650
1648
2139
1963
1370
743
236
-289
-1019
-1922
-2744
-3235
-3326
-3115
-2740
-2319
-1962
-1759
-1735
-1832
-1964
-2093
-2214
-2313
-2369
-2391
-2436
-2533
-2629
-2644
-2561
-2450
-2393
-2408
-2440
-2439
-2390
-2299
-2181
-2078
-2045
-2103
-2187
-2194
-2103
-2004
-2005
-2106
-2202
-2198
-2115
-2052
-2077
-2177
-2303
-2444
-2620
-2851
-3121
-3378
-3558
-3601
-3488
-3266
-3024
-2807
-2583
-2307
-2018
-1832
-1826
-1966
-2153
-2331
-2493
-2627
-2692
-2671
-2620
-2606
-2605
-2510
-2281
-2022
-1882
-1883
-1901
-1806
-1605
-1403
-1271
-1193
-1125
-1071
-1042
-1021
-976
-918
-884
-870
-796
-602
-331
-86
73
173
252
300
301
291
343
473
613
695
735
813
985
1230
1475
1665
1773
1810
1830
1906
2061
2242
2366
2409
2427
2483
2568
2622
2618
2589
2577
2576
2560
2543
2579
2678
2757
2719
2559
2379
2265
2171
1988
1690
1383
1183
1083
967
769
566
462
441
389
232
9
-207
-428
-737
-1173
-1668
-2135
-2556
-2981
-3476
-4065
-4670
-5084
-5060
-4531
-3748
-3102
-2737
-2380
-1678
-669
182
462
224
-130
-344
-539
-960
-1634
-2370
-3040
-3703
-4455
-5238
-5882
-6318
-6633
-6931
-7209
-7367
-7326
-7094
-6748
-6363
-5986
-5636
-5302
-4965
-4610
-4210
-3729
-3143
-2488
-1839
-1258
-760
-333
32
342
623
898
1155
1360
1537
1773
2142
2611
3083
3513
3952
4463
5030
5580
6074
6532
6995
7467
7938
8395
8788
9019
9008
8784
8460
8106
7667
7038
6209
5297
4450
3736
3144
2654
2283
2063
2024
2165
2442
2794
3168
3536
3868
4110
4210
4186
4128
4091
4019
3806
3464
3139
2949
2836
2632
2270
1863
1560
1362
1127
769
379
121
47
62
37
-46
-109
-84
4
84
126
179
299
492
701
868
983
1087
1216
1366
1512
1630
1722
1800
1883
1986
2100
2205
2275
2292
2264
2215
2167
2135
2119
2122
2153
2219
2319
2447
2601
2787
3004
3219
3382
3468
3509
3561
3631
3683
3675
3617
3549
3481
3387
3268
3166
3115
3076
2990
2850
2720
2638
2552
2367
2040
1598
1052
415
-195
-524
-373
186
845
1379
1899
2683
3767
4781
5250
5036
4424
3802
3305
2810
2206
1563
1062
807
755
807
902
1001
1053
995
813
554
301
103
-41
-145
-222
-289
-372
-493
-632
-740
-781
-785
-814
-894
-981
-1009
-970
-926
-940
-1013
-1096
-1152
-1185
-1217
-1267
-1344
-1444
-1536
-1570
-1524
-1445
-1403
-1415
-1429
-1391
-1310
-1216
-1104
-933
-708
-507
-400
-350
-245
-40
172
259
203
134
185
366
566
678
708
754
881
1055
1183
1212
1184
1184
1240
1298
1303
1269
1268
1336
1408
1387
1250
1084
993
986
967
853
662
504
476
563
648
630
507
368
306
335
403
459
480
482
498
546
614
671
674
600
463
298
129
-39
-200
-323
-361
-315
-255
-259
-340
-437
-491
-517
-613
-848
-1161
-1387
-1393
-1227
-1070
-1049
-1122
-1147
-1081
-1053
-1187
-1426
-1603
-1647
-1683
-1856
-2101
-2196
-2038
-1786
-1673
-1721
-1716
-1495
-1153
-909
-860
-886
-834
-694
-569
-500
-424
-294
-160
-132
-294
-671
-1204
-1706
-1942
-1823
-1560
-1483
-1645
-1678
-1170
-184
708
972
611
66
-317
-611
-1090
-1825
-2603
-3187
-3533
-3739
-3872
-3936
-3961
-4022
-4181
-4429
-4710
-4955
-5113
-5152
-5086
-4979
-4900
-4861
-4807
-4685
-4499
-4288
-4090
-3923
-3793
-3693
-3597
-3481
-3353
-3259
-3241
-3282
-3309
-3259
-3120
-2936
-2753
-2580
-2393
-2170
-1914
-1650
-1412
-1209
-1033
-885
-773
-680
-541
-294
24
286
422
531
778
1180
1544
1663
1547
1409
1375
1311
968
283
-514
-1119
-1422
-1533
-1612
-1739
-1892
-1988
-1923
-1648
-1251
-964
-1005
-1371
-1804
-2002
-1881
-1625
-1479
-1538
-1708
-1819
-1745
-1482
-1152
-935
-938
-1087
-1175
-1062
-814
-616
-565
-575
-516
-371
-240
-184
-147
-54
83
209
319
433
525
538
511
576
798
1057
1142
1011
852
872
1058
1195
1137
941
769
711
780
1004
1368
1734
1929
1957
2094
2573
3224
3565
3348
2919
2862
3316
3798
3780
3322
2968
3048
3295
3228
2760
2254
2035
2039
1999
1815
1602
1424
1215
942
700
510
138
-617
-1524
-1986
-1630
-781
-137
27
130
768
1964
3063
3385
2909
2225
1895
1927
1873
1383
605
35
-15
276
468
333
16
-215
-292
-336
-439
-576
-741
-1025
-1468
-1863
-1923
-1647
-1377
-1424
-1679
-1719
-1329
-772
-468
-516
-608
-473
-239
-242
-577
-954
-1056
-903
-801
-941
-1166
-1177
-888
-502
-275
-280
-376
-384
-265
-136
-129
-234
-300
-223
-106
-170
-492
-867
-983
-800
-594
-637
-897
-1119
-1124
-974
-854
-867
-991
-1144
-1259
-1319
-1371
-1488
-1675
-1818
-1805
-1686
-1659
-1832
-2063
-2105
-1914
-1721
-1768
-2030
-2234
-2168
-1893
-1663
-1663
-1829
-1966
-1963
-1870
-1781
-1701
-1559
-1373
-1257
-1259
-1260
-1118
-875
-730
-739
-658
-181
683
1549
2041
2137
2089
2062
1962
1616
1037
418
-57
-319
-356
-141
329
955
1571
2059
2396
2595
2646
2547
2361
2181
2056
1966
1886
1860
1974
2239
2528
2666
2585
2389
2253
2254
2315
2318
2248
2169
2119
2036
1848
1592
1356
1156
929
691
575
672
836
791
450
35
-217
-375
-695
-1210
-1579
-1445
-849
-153
435
1098
2080
3256
4162
4475
4326
4092
3966
3829
3507
3034
2617
2421
2432
2496
2471
2319
2096
1903
1783
1694
1565
1427
1406
1582
1877
2117
2213
2239
2316
2449
2535
2493
2359
2245
2252
2404
2634
2829
2899
2869
2855
2958
3151
3296
3275
3098
2880
2748
2754
2861
2951
2894
2673
2448
2438
2687
2986
3072
2911
2717
2706
2855
2971
2943
2857
2846
2924
3003
3053
3128
3222
3184
2860
2326
1871
1724
1809
1839
1647
1381
1328
1544
1749
1592
1001
236
-407
-887
-1417
-2191
-3150
-4031
-4604
-4885
-5095
-5435
-5896
-6277
-6395
-6254
-6022
-5842
-5701
-5504
-5227
-4955
-4785
-4748
-4845
-5101
-5499
-5917
-6190
-6248
-6155
-5970
-5658
-5176
-4622
-4195
-3964
-3754
-3350
-2773
-2264
-2009
-1952
-1905
-1782
-1669
-1682
-1850
-2110
-2376
-2568
-2623
-2550
-2429
-2348
-2312
-2249
-2117
-1965
-1878
-1874
-1877
-1778
-1536
-1191
-833
-558
-399
-308
-187
-7
149
188
137
180
524
1204
2012
2659
3009
3147
3222
3222
2954
2275
1368
709
686
1264
2058
2731
3314
4082
5181
6439
7505
8125
8257
8031
7672
7405
7316
7271
7068
6702
6439
6528
6892
7193
7218
7121
7206
7543
7890
8025
8013
8094
8350
8578
8508
8101
7588
7207
6964
6647
6089
5378
4826
4691
4944
5330
5651
5946
6383
7034
7756
8289
8471
8320
7960
7505
7001
6447
5859
5288
4786
4326
3809
3151
2390
1669
1092
617
155
-290
-605
-708
-668
-632
-647
-619
-479
-320
-349
-654
-1085
-1376
-1401
-1285
-1249
-1369
-1538
-1614
-1584
-1566
-1645
-1758
-1798
-1760
-1749
-1844
-1965
-1962
-1796
-1595
-1504
-1525
-1543
-1492
-1429
-1450
-1559
-1687
-1790
-1877
-1941
-1942
-1876
-1811
-1795
-1748
-1540
-1173
-823
-647
-588
-431
-53
453
916
1284
1631
1999
2314
2485
2509
2449
2340
2146
1836
1464
1127
899
779
717
659
560
400
195
-21
-213
-382
-547
-707
-819
-830
-751
-670
-648
-641
-551
-349
-160
-154
-391
-796
-1276
-1782
-2253
-2567
-2595
-2360
-2080
-1967
-2024
-2060
-1916
-1666
-1552
-1743
-2179
-2659
-3038
-3268
-3307
-3060
-2505
-1802
-1176
-647
38
1105
2373
3325
3589
3288
2872
2623
2435
2088
1596
1175
950
826
676
556
637
945
1303
1523
1582
1618
1764
2033
2351
2647
2882
3026
3047
2911
2608
2183
1736
1374
1118
899
635
326
63
-100
-216
-400
-713
-1114
-1519
-1873
-2133
-2271
-2300
-2291
-2311
-2331
-2251
-2029
-1759
-1575
-1504
-1451
-1350
-1269
-1322
-1516
-1720
-1799
-1732
-1606
-1474
-1301
-1037
-695
-371
-155
-75
-84
-128
-192
-269
-346
-390
-361
-264
-139
-30
52
115
161
185
192
210
255
325
397
463
532
611
677
684
600
433
226
41
-73
-106
-100
-127
-217
-316
-341
-265
-156
-112
-150
-182
-122
29
193
314
400
482
546
542
451
314
189
99
35
-2
19
132
338
596
853
1077
1268
1438
1578
1674
1721
1744
1772
1810
1833
1820
1763
1651
1459
1170
810
438
78
-295
-691
-1063
-1343
-1527
-1692
-1912
-2158
-2337
-2416
-2472
-2595
-2789
-3006
-3240
-3559
-3973
-4378
-4674
-4934
-5323
-5811
-6065
-5759
-4988
-4230
-3821
-3560
-2953
-1836
-619
129
263
154
238
579
913
1007
909
868
1086
1561
2124
2621
3021
3406
3840
4239
4422
4287
3917
3486
3091
2700
2275
1903
1740
1853
2140
2429
2622
2746
2868
3005
3105
3132
3127
3206
3476
3939
4479
4949
5291
5546
5782
5991
6091
6012
5783
5526
5342
5238
5155
5048
4944
4879
4832
4724
4506
4221
3972
3818
3727
3633
3518
3426
3387
3367
3301
3164
3010
2916
2893
2884
2838
2752
2655
2551
2410
2208
1969
1752
1619
1597
1674
1816
1985
2174
2409
2693
2965
3141
3194
3172
3126
3065
2973
2867
2785
2723
2636
2543
2581
2893
3476
4149
4686
4953
4914
4576
3991
3268
2517
1749
892
-42
-851
-1244
-1104
-602
-60
296
449
515
599
706
767
711
528
291
121
97
187
293
317
220
35
-166
-317
-385
-365
-261
-73
200
535
885
1200
1439
1568
1565
1449
1282
1135
1021
862
589
227
-106
-300
-343
-316
-305
-346
-436
-560
-718
-936
-1257
-1679
-2069
-2185
-1882
-1276
-660
-177
351
1192
2311
3286
3687
3495
3076
2769
2588
2329
1894
1407
1053
906
918
1026
1193
1352
1409
1317
1109
844
562
284
55
-60
-56
-12
-30
-134
-259
-334
-369
-444
-618
-865
-1084
-1197
-1209
-1192
-1195
-1194
-1140
-1029
-918
-873
-908
-986
-1068
-1141
-1202
-1238
-1228
-1192
-1169
-1166
-1140
-1049
-923
-863
-926
-1058
-1141
-1122
-1063
-1068
-1163
-1294
-1396
-1460
-1493
-1485
-1432
-1383
-1414
-1524
-1607
-1566
-1431
-1331
-1335
-1365
-1292
-1100
-916
-865
-927
-952
-838
-635
-482
-447
-460
-400
-228
-20
121
166
185
258
402
577
751
918
1066
1160
1170
1118
1067
1049
1045
1024
972
895
807
728
691
718
791
849
852
823
814
831
853
883
948
1049
1124
1105
990
859
785
760
715
612
491
421
440
532
655
784
892
961
1008
1067
1164
1257
1253
1098
846
624
512
460
353
163
-13
-49
58
180
196
110
30
17
29
-16
-133
-259
-401
-691
-1218
-1838
-2200
-2056
-1549
-1106
-981
-927
-443
671
2030
2989
3265
3129
3038
3141
3160
2786
2059
1326
877
684
524
325
259
491
909
1193
1148
922
813
898
960
779
408
111
27
27
-69
-232
-267
-67
231
394
335
160
-1
-110
-187
-247
-323
-500
-843
-1244
-1469
-1388
-1140
-1019
-1179
-1508
-1778
-1892
-1932
-2013
-2168
-2371
-2607
-2868
-3091
-3186
-3129
-3016
-2975
-3034
-3095
-3067
-2969
-2903
-2936
-3043
-3143
-3183
-3179
-3170
-3170
-3165
-3142
-3121
-3139
-3218
-3334
-3437
-3497
-3535
-3604
-3738
-3901
-4011
-4014
-3940
-3869
-3829
-3750
-3534
-3189
-2847
-2630
-2519
-2378
-2118
-1808
-1613
-1598
-1650
-1619
-1476
-1335
-1299
-1352
-1384
-1334
-1215
-1067
-905
-761
-700
-737
-777
-679
-439
-218
-191
-352
-522
-555
-474
-407
-418
-458
-451
-388
-304
-209
-104
-22
-23
-119
-223
-226
-124
-37
-65
-164
-186
-50
147
211
49
-225
-392
-349
-212
-175
-295
-445
-449
-290
-126
-85
-116
-102
-38
-88
-386
-822
-1153
-1337
-1642
-2317
-3164
-3594
-3197
-2209
-1277
-752
-337
499
1809
3024
3544
3345
2928
2721
2669
2440
1924
1383
1158
1314
1622
1831
1906
1937
1988
2029
2019
1965
1905
1839
1745
1656
1656
1760
1853
1774
1502
1197
1041
1057
1112
1107
1092
1171
1326
1416
1342
1165
1044
1056
1120
1106
978
809
711
732
825
890
851
712
553
442
366
248
66
-93
-143
-101
-68
-92
-106
-28
103
151
52
-118
-256
-351
-452
-559
-638
-703
-817
-970
-1025
-885
-663
-576
-675
-745
-578
-275
-179
-496
-1055
-1506
-1690
-1755
-1908
-2174
-2383
-2371
-2127
-1757
-1389
-1093
-887
-762
-680
-596
-504
-467
-555
-746
-891
-843
-649
-527
-636
-872
-932
-654
-234
-34
-209
-526
-582
-207
365
692
512
-25
-490
-568
-335
-163
-323
-707
-976
-922
-660
-442
-394
-450
-500
-528
-550
-533
-435
-296
-197
-168
-156
-93
24
162
314
462
561
574
547
578
694
780
727
574
482
543
681
739
640
424
181
-27
-210
-459
-911
-1591
-2281
-2617
-2427
-1927
-1483
-1171
-665
345
1689
2785
3209
3095
2905
2879
2830
2472
1831
1225
889
740
548
271
114
225
471
560
378
113
27
145
241
123
-150
-357
-390
-352
-396
-532
-645
-656
-619
-654
-803
-992
-1113
-1141
-1159
-1276
-1509
-1761
-1902
-1902
-1849
-1858
-1958
-2067
-2104
-2072
-2045
-2070
-2110
-2096
-2012
-1929
-1936
-2052
-2191
-2231
-2111
-1877
-1637
-1456
-1308
-1113
-828
-513
-286
-209
-222
-215
-132
-17
75
175
359
634
895
1037
1089
1209
1485
1834
2083
2166
2176
2232
2363
2524
2676
2795
2835
2755
2606
2524
2584
2702
2731
2643
2548
2529
2531
2442
2276
2160
2148
2124
1963
1716
1587
1702
1951
2104
2050
1881
1750
1714
1706
1646
1503
1305
1105
953
872
837
795
716
609
502
418
361
332
322
320
332
368
415
421
348
235
174
193
195
77
-122
-226
-100
183
403
411
258
114
94
161
178
17
-322
-714
-1013
-1157
-1206
-1254
-1330
-1390
-1430
-1499
-1626
-1789
-2009
-2381
-2900
-3300
-3202
-2513
-1573
-790
-147
749
2107
3578
4541
4714
4379
3996
3727
3408
2882
2213
1604
1200
1022
1019
1131
1300
1480
1666
1859
2020
2105
2122
2110
2079
1934
1567
1003
407
-68
-423
-749
-1079
-1320
-1376
-1291
-1222
-1245
-1256
-1106
-800
-507
-355
-285
-144
62
108
-202
-810
-1445
-1910
-2233
-2544
-2875
-3108
-3131
-2942
-2628
-2293
-2022
-1888
-1925
-2083
-2255
-2358
-2389
-2398
-2428
-2498
-2578
-2608
-2526
-2338
-2144
-2056
-2061
-2000
-1716
-1209
-650
-191
176
576
1066
1523
1772
1782
1718
1760
1886
1915
1748
1555
1642
2141
2891
3636
4312
5052
5923
6739
7213
7244
6981
6591
6071
5337
4444
3625
3074
2775
2574
2387
2293
2393
2645
2891
3004
2995
2967
3013
3152
3345
3557
3795
4093
4464
4870
5250
5567
5833
6062
6240
6356
6433
6528
6670
6832
6978
7118
7281
7446
7531
7481
7350
7251
7229
7208
7046
6703
6301
6023
5961
6009
5946
5642
5202
4860
4767
4829
4817
4614
4328
4117
3955
3613
2923
1989
1103
410
-244
-1060
-1927
-2408
-2154
-1319
-440
116
522
1236
2391
3562
4177
4106
3725
3461
3341
3067
2447
1630
906
400
24
-329
-617
-750
-746
-738
-847
-1081
-1359
-1606
-1802
-1961
-2128
-2349
-2606
-2798
-2833
-2735
-2644
-2669
-2754
-2754
-2627
-2491
-2463
-2494
-2428
-2231
-2053
-2055
-2203
-2312
-2288
-2229
-2277
-2408
-2457
-2323
-2086
-1909
-1840
-1759
-1565
-1360
-1418
-1941
-2832
-3738
-4363
-4722
-5048
-5475
-5809
-5729
-5163
-4396
-3791
-3438
-3148
-2760
-2381
-2274
-2542
-2978
-3247
-3199
-2962
-2745
-2610
-2416
-2053
-1645
-1480
-1697
-2098
-2322
-2226
-2025
-1993
-2104
-2046
-1629
-1062
-748
-841
-1098
-1193
-1090
-1027
-1187
-1485
-1688
-1687
-1570
-1458
-1377
-1281
-1171
-1106
-1109
-1151
-1208
-1301
-1457
-1638
-1765
-1815
-1852
-1926
-1983
-1932
-1792
-1699
-1734
-1792
-1674
-1329
-946
-763
-799
-841
-706
-454
-327
-469
-771
-1001
-1054
-1053
-1201
-1531
-1842
-1866
-1521
-1024
-716
-774
-1048
-1222
-1128
-903
-843
-1081
-1450
-1683
-1682
-1592
-1618
-1822
-2107
-2384
-2691
-3148
-3814
-4584
-5265
-5768
-6195
-6686
-7216
-7554
-7497
-7122
-6733
-6535
-6406
-6063
-5433
-4768
-4370
-4282
-4269
-4120
-3860
-3659
-3604
-3621
-3583
-3444
-3229
-2969
-2647
-2276
-1943
-1735
-1617
-1462
-1176
-796
-458
-227
-45
156
344
437
437
447
533
608
557
414
350
464
665
803
843
856
888
921
1000
1250
1703
2199
2569
2878
3362
4090
4827
5338
5731
6316
7129
7770
7862
7538
7309
7458
7710
7621
7141
6673
6596
6888
7263
7516
7661
7794
7944
8090
8191
8169
7930
7485
7013
6721
6631
6603
6551
6585
6845
7251
7536
7524
7306
7108
7030
6965
6765
6413
6029
5726
5514
5340
5172
5036
4979
5003
5058
5074
5006
4864
4681
4496
4327
4196
4121
4110
4139
4167
4168
4137
4085
4019
3939
3836
3700
3519
3296
3053
2820
2612
2425
2249
2090
1951
1821
1676
1510
1348
1219
1131
1060
987
923
899
929
1008
1112
1218
1314
1395
1459
1488
1447
1301
1041
695
304
-101
-507
-912
-1301
-1654
-1965
-2236
-2471
-2671
-2832
-2946
-3013
-3086
-3252
-3575
-3994
-4351
-4569
-4750
-5057
-5445
-5598
-5226
-4408
-3541
-2920
-2416
-1663
-545
598
1297
1417
1232
1075
1012
899
649
363
187
142
140
120
120
178
246
225
69
-172
-403
-574
-699
-805
-900
-982
-1048
-1095
-1120
-1122
-1117
-1135
-1211
-1363
-1575
-1794
-1943
-1984
-1949
-1908
-1889
-1838
-1706
-1529
-1406
-1383
-1416
-1450
-1502
-1622
-1797
-1929
-1943
-1862
-1754
-1623
-1422
-1149
-883
-698
-586
-486
-397
-378
-441
-498
-448
-304
-197
-226
-335
-373
-271
-125
-95
-216
-352
-357
-234
-114
-92
-137
-152
-90
15
111
174
188
138
55
22
102
251
372
432
489
620
838
1094
1329
1487
1517
1442
1383
1458
1644
1778
1758
1690
1765
1999
2174
2071
1703
1270
902
529
13
-656
-1324
-1788
-1947
-1864
-1726
-1708
-1804
-1819
-1544
-1015
-529
-376
-536
-686
-537
-127
252
399
403
505
794
1117
1296
1369
1551
1928
2297
2370
2135
1909
1969
2211
2246
1841
1191
691
505
428
184
-269
-751
-1102
-1326
-1506
-1671
-1791
-1861
-1904
-1944
-2046
-2312
-2776
-3244
-3354
-2923
-2190
-1631
-1429
-1224
-486
856
2253
3044
3084
2816
2724
2858
2919
2688
2270
1913
1716
1583
1444
1387
1497
1666
1655
1349
934
736
882
1142
1169
850
409
173
207
253
15
-519
-1069
-1364
-1409
-1456
-1724
-2208
-2742
-3194
-3563
-3937
-4400
-4975
-5630
-6289
-6857
-7287
-7635
-8001
-8411
-8774
-8997
-9097
-9185
-9298
-9322
-9108
-8660
-8158
-7774
-7493
-7157
-6658
-6063
-5523
-5102
-4729
-4307
-3808
-3269
-2720
-2146
-1539
-935
-379
127
636
1202
1818
2408
2874
3169
3315
3391
3470
3557
3596
3523
3332
3063
2782
2537
2359
2240
2109
1853
1409
843
316
-75
-401
-807
-1312
-1748
-1935
-1890
-1808
-1844
-1941
-1923
-1750
-1582
-1580
-1696
-1742
-1651
-1560
-1597
-1673
-1570
-1263
-1006
-1042
-1276
-1343
-1049
-610
-415
-580
-836
-861
-611
-288
-74
7
-8
-109
-264
-369
-340
-235
-198
-269
-309
-162
149
460
672
829
999
1157
1208
1119
965
824
693
548
399
296
271
320
402
462
439
316
181
122
51
-283
-951
-1604
-1706
-1113
-295
181
334
762
1911
3480
4706
5158
5068
4880
4699
4300
3605
2861
2339
2024
1730
1423
1290
1451
1733
1850
1706
1467
1324
1289
1220
1030
815
735
829
943
884
614
333
264
404
513
369
12
-279
-282
-51
148
118
-82
-228
-212
-154
-260
-554
-829
-872
-705
-559
-596
-726
-751
-644
-590
-740
-998
-1123
-1046
-970
-1135
-1516
-1825
-1803
-1495
-1178
-1076
-1168
-1261
-1229
-1113
-1035
-1041
-1070
-1075
-1077
-1121
-1170
-1118
-916
-700
-690
-964
-1347
-1541
-1416
-1158
-1078
-1281
-1542
-1552
-1272
-989
-979
-1196
-1345
-1251
-1051
-984
-1080
-1144
-1020
-808
-724
-825
-945
-934
-863
-930
-1183
-1433
-1448
-1223
-1010
-1020
-1173
-1189
-912
-536
-404
-614
-911
-999
-864
-742
-789
-895
-874
-715
-558
-472
-401
-320
-343
-538
-749
-714
-380
-13
113
39
68
375
797
1040
1017
904
891
972
1006
935
864
922
1111
1321
1421
1387
1315
1322
1446
1610
1700
1667
1549
1394
1204
941
554
-17
-802
-1696
-2420
-2679
-2413
-1869
-1327
-770
64
1295
2632
3581
3895
3761
3521
3295
2955
2398
1754
1269
1070
1076
1121
1138
1190
1347
1591
1786
1794
1612
1406
1348
1466
1623
1672
1605
1520
1481
1474
1489
1571
1734
1892
1926
1859
1878
2132
2515
2740
2644
2372
2204
2235
2274
2087
1691
1350
1287
1458
1621
1613
1499
1465
1594
1795
1934
1979
1993
2028
2046
1991
1880
1786
1747
1722
1658
1567
1491
1440
1368
1251
1126
1032
927
743
510
363
391
531
630
616
570
604
727
859
962
1056
1139
1142
1016
860
853
1059
1312
1371
1153
820
607
597
671
663
538
406
378
443
501
476
385
304
243
148
-26
-226
-339
-287
-108
81
180
137
-33
-246
-354
-263
-37
97
-49
-409
-699
-687
-415
-144
-76
-187
-307
-308
-182
10
202
337
383
364
364
439
556
632
629
594
594
630
629
553
440
356
333
352
389
446
534
655
822
1044
1305
1512
1528
1299
934
613
376
63
-476
-1102
-1409
-1135
-480
88
369
670
1406
2526
3489
3798
3478
2948
2525
2170
1700
1109
562
185
-38
-167
-202
-138
-81
-191
-547
-1069
-1607
-2070
-2460
-2809
-3108
-3331
-3475
-3574
-3668
-3734
-3693
-3498
-3236
-3088
-3153
-3322
-3368
-3185
-2900
-2732
-2744
-2782
-2662
-2366
-2025
-1755
-1545
-1311
-994
-600
-176
220
536
787
1048
1387
1758
2026
2127
2194
2431
2863
3267
3439
3464
3654
4188
4904
5487
5800
5965
6114
6189
6017
5549
4926
4318
3774
3246
2710
2211
1808
1531
1396
1416
1553
1725
1877
2018
2196
2383
2504
2518
2478
2470
2498
2487
2375
2180
1961
1737
1487
1234
1080
1126
1360
1669
1962
2262
2674
3239
3844
4294
4491
4516
4520
4558
4565
4474
4361
4398
4663
5058
5428
5710
5969
6243
6452
6451
6204
5854
5582
5448
5353
5166
4868
4550
4289
4051
3751
3379
3039
2843
2767
2681
2498
2279
2139
2090
2019
1820
1503
1152
805
412
-70
-606
-1114
-1520
-1806
-2002
-2158
-2321
-2509
-2703
-2891
-3135
-3544
-4187
-5044
-6060
-7179
-8273
-9085
-9333
-8962
-8228
-7451
-6668
-5634
-4191
-2625
-1523
-1278
-1745
-2415
-2885
-3110
-3242
-3349
-3343
-3130
-2721
-2214
-1687
-1190
-808
-645
-723
-918
-1045
-995
-807
-565
-299
20
403
798
1136
1397
1613
1809
1961
2026
2019
2009
2042
2074
2027
1876
1697
1573
1463
1241
847
399
103
45
119
155
107
76
161
337
488
519
405
153
-251
-794
-1389
-1915
-2308
-2597
-2837
-3035
-3155
-3197
-3215
-3272
-3392
-3567
-3789
-4026
-4214
-4288
-4226
-4076
-3910
-3749
-3576
-3379
-3169
-2959
-2748
-2547
-2366
-2199
-2005
-1746
-1434
-1140
-929
-803
-698
-538
-284
34
354
632
892
1200
1567
1899
2086
2136
2178
2305
2443
2425
2192
1874
1639
1509
1357
1072
691
347
147
108
195
369
584
770
867
867
804
705
563
357
90
-188
-407
-516
-498
-375
-201
-31
98
193
280
377
466
525
558
603
691
820
959
1089
1211
1338
1464
1562
1635
1703
1772
1828
1846
1822
1780
1757
1770
1795
1786
1702
1563
1424
1272
983
462
-138
-448
-222
373
908
1185
1489
2233
3390
4418
4778
4451
3863
3372
2947
2357
1547
715
90
-261
-393
-368
-232
-84
-47
-169
-390
-648
-954
-1350
-1804
-2189
-2417
-2540
-2691
-2922
-3131
-3190
-3096
-2987
-2981
-3043
-3054
-2983
-2931
-2984
-3088
-3112
-3033
-2978
-3049
-3173
-3188
-3051
-2879
-2761
-2607
-2250
-1694
-1153
-836
-728
-640
-446
-218
-97
-93
-58
168
601
1115
1593
2013
2439
2908
3354
3654
3751
3703
3627
3567
3468
3270
3015
2796
2645
2499
2277
1981
1679
1410
1158
902
669
493
369
267
198
203
279
351
353
305
259
186
-25
-429
-914
-1284
-1438
-1458
-1471
-1483
-1368
-1027
-519
-7
385
664
907
1162
1437
1738
2085
2465
2812
3068
3244
3416
3632
3831
3909
3819
3626
3445
3349
3323
3296
3220
3104
2992
2905
2816
2675
2486
2324
2270
2328
2413
2436
2384
2313
2275
2264
2241
2198
2162
2155
2168
2179
2181
2181
2177
2129
2007
1830
1648
1495
1364
1232
1091
958
829
680
504
309
63
-300
-769
-1148
-1165
-752
-172
243
474
854
1655
2706
3499
3690
3408
3050
2864
2784
2635
2377
2119
1964
1931
1994
2144
2356
2549
2635
2593
2481
2389
2368
2399
2430
2426
2381
2299
2166
1943
1622
1269
1000
878
852
820
747
699
752
871
923
792
495
160
-106
-294
-465
-642
-780
-809
-723
-592
-497
-465
-468
-473
-488
-541
-635
-725
-761
-746
-733
-766
-825
-857
-846
-834
-863
-911
-912
-845
-764
-738
-770
-806
-820
-851
-953
-1119
-1278
-1367
-1389
-1389
-1404
-1435
-1467
-1478
-1455
-1387
-1285
-1195
-1155
-1159
-1148
-1070
-944
-839
-797
-784
-720
-575
-406
-280
-193
-84
65
202
282
344
460
627
755
787
780
845
999
1136
1153
1070
987
965
984
1003
1013
1030
1045
1046
1055
1100
1169
1210
1186
1120
1052
991
929
872
858
892
911
840
695
591
616
726
784
717
595
542
599
696
765
823
913
1019
1061
996
884
800
743
657
525
385
257
108
-72
-210
-249
-323
-673
-1325
-1903
-1899
-1207
-276
355
622
951
1722
2793
3626
3825
3453
2859
2312
1861
1455
1081
770
563
513
685
1058
1491
1770
1788
1614
1388
1187
993
784
600
517
567
675
726
657
507
355
220
62
-154
-393
-595
-749
-897
-1033
-1057
-917
-709
-601
-658
-795
-905
-973
-1044
-1123
-1183
-1228
-1285
-1312
-1196
-915
-661
-682
-973
-1242
-1233
-1040
-1001
-1285
-1671
-1810
-1636
-1427
-1468
-1725
-1928
-1897
-1727
-1640
-1723
-1863
-1932
-1949
-2031
-2228
-2455
-2582
-2579
-2526
-2515
-2548
-2556
-2485
-2357
-2248
-2210
-2255
-2364
-2505
-2634
-2708
-2713
-2674
-2651
-2688
-2767
-2827
-2813
-2725
-2631
-2617
-2719
-2867
-2941
-2894
-2805
-2820
-3005
-3300
-3611
-3935
-4349
-4872
-5405
-5801
-6001
-6058
-6043
-5963
-5774
-5463
-5069
-4636
-4181
-3706
-3226
-2750
-2269
-1772
-1280
-838
-469
-153
136
392
579
669
672
630
589
568
539
454
299
138
53
36
-20
-188
-386
-448
-327
-184
-175
-249
-233
-91
-16
-204
-601
-969
-1201
-1426
-1814
-2368
-2976
-3547
-4010
-4213
-3994
-3395
-2708
-2161
-1619
-742
555
1886
2710
2836
2535
2209
2030
1896
1642
1224
747
390
294
477
831
1181
1391
1451
1444
1461
1551
1702
1861
1980
2044
2075
2113
2189
2289
2377
2410
2375
2314
2327
2475
2673
2748
2625
2435
2376
2462
2502
2365
2196
2272
2645
3021
3072
2810
2592
2678
2907
2877
2426
1822
1463
1469
1611
1620
1481
1354
1335
1375
1400
1411
1436
1410
1267
1043
847
723
607
478
430
530
678
694
552
438
500
631
578
270
-98
-310
-368
-442
-612
-787
-861
-846
-816
-786
-754
-768
-883
-1045
-1100
-975
-820
-854
-1098
-1337
-1338
-1106
-865
-826
-997
-1210
-1309
-1283
-1246
-1291
-1391
-1428
-1367
-1323
-1415
-1553
-1500
-1153
-742
-632
-916
-1271
-1309
-1000
-669
-609
-794
-971
-962
-788
-577
-424
-379
-422
-464
-369
-107
198
377
412
445
564
692
682
510
303
185
172
233
354
510
631
649
612
667
867
1067
1074
887
721
760
928
974
790
487
175
-227
-841
-1518
-1845
-1552
-850
-200
244
828
1941
3443
4691
5161
4913
4429
4072
3804
3404
2819
2210
1762
1527
1450
1478
1582
1695
1715
1578
1334
1102
988
1000
1057
1073
1032
994
1014
1090
1155
1161
1122
1087
1090
1125
1166
1188
1182
1150
1090
988
828
621
418
269
165
38
-170
-432
-660
-794
-862
-942
-1085
-1272
-1436
-1523
-1518
-1452
-1384
-1381
-1464
-1595
-1712
-1783
-1811
-1810
-1786
-1744
-1692
-1612
-1452
-1173
-818
-511
-350
-289
-177
97
491
850
1056
1135
1211
1384
1641
1894
2063
2135
2170
2249
2421
2660
2891
3057
3170
3300
3481
3649
3702
3617
3495
3442
3454
3424
3275
3081
2999
3089
3227
3226
3023
2752
2591
2577
2582
2462
2212
1972
1869
1882
1893
1817
1677
1547
1458
1364
1224
1048
874
725
590
473
391
361
380
426
498
598
716
808
826
761
648
535
459
425
403
358
277
187
137
147
177
156
37
-150
-336
-489
-624
-794
-1030
-1304
-1539
-1666
-1691
-1719
-1869
-2178
-2588
-3042
-3542
-4057
-4423
-4431
-4035
-3442
-2889
-2364
-1643
-629
417
1075
1178
948
708
540
298
-121
-613
-979
-1107
-1013
-768
-455
-177
-41
-37
-41
40
132
71
-166
-369
-321
-70
78
-98
-470
-681
-536
-209
-38
-147
-339
-359
-170
47
124
76
29
55
119
157
131
18
-196
-486
-768
-953
-1033
-1085
-1172
-1269
-1294
-1209
-1065
-943
-889
-914
-1007
-1133
-1247
-1342
-1471
-1684
-1925
-2047
-1968
-1791
-1712
-1789
-1859
-1738
-1468
-1287
-1351
-1551
-1645
-1547
-1398
-1363
-1425
-1437
-1316
-1113
-889
-618
-224
285
780
1139
1348
1490
1618
1698
1655
1458
1160
868
658
546
519
557
630
681
655
572
542
649
850
997
1019
1020
1193
1618
2188
2744
3252
3804
4454
5093
5525
5649
5559
5439
5374
5289
5052
4651
4242
4016
4010
4087
4081
3955
3785
3646
3523
3357
3142
2924
2757
2656
2613
2597
2580
2538
2459
2348
2197
1958
1554
967
294
-282
-621
-729
-718
-678
-574
-287
237
875
1391
1624
1584
1408
1196
909
436
-211
-792
-982
-644
24
676
1170
1708
2561
3683
4658
5071
4898
4484
4176
4010
3787
3372
2848
2378
2027
1771
1589
1499
1460
1360
1125
817
558
389
229
-14
-311
-558
-706
-790
-865
-926
-936
-893
-849
-854
-937
-1116
-1400
-1745
-2061
-2267
-2364
-2409
-2430
-2380
-2178
-1818
-1425
-1191
-1250
-1575
-2002
-2368
-2640
-2875
-3076
-3102
-2791
-2166
-1458
-895
-507
-192
78
170
-42
-493
-971
-1311
-1512
-1642
-1713
-1676
-1531
-1371
-1304
-1332
-1379
-1398
-1416
-1480
-1574
-1629
-1595
-1484
-1357
-1264
-1232
-1263
-1331
-1387
-1400
-1374
-1353
-1357
-1348
-1276
-1155
-1064
-1059
-1106
-1115
-1034
-912
-836
-827
-830
-790
-724
-698
-747
-829
-883
-900
-922
-982
-1067
-1128
-1130
-1080
-1014
-965
-935
-905
-868
-846
-871
-947
-1050
-1163
-1315
-1544
-1826
-2079
-2238
-2316
-2361
-2371
-2271
-2007
-1628
-1252
-962
-757
-604
-505
-495
-583
-727
-871
-969
-1010
-990
-918
-810
-685
-555
-429
-319
-249
-218
-210
-224
-265
-328
-374
-382
-396
-498
-707
-957
-1206
-1533
-2011
-2509
-2699
-2370
-1695
-1086
-716
-312
498
1664
2694
3144
3051
2781
2565
2322
1921
1440
1064
818
571
280
111
240
577
826
789
553
352
320
406
477
452
329
175
110
219
463
709
854
906
929
927
822
578
280
41
-149
-405
-777
-1135
-1288
-1191
-1014
-978
-1151
-1407
-1570
-1576
-1515
-1530
-1697
-1961
-2180
-2250
-2185
-2122
-2205
-2451
-2733
-2896
-2898
-2849
-2884
-3032
-3190
-3244
-3188
-3150
-3267
-3549
-3854
-4019
-3994
-3872
-3787
-3788
-3828
-3834
-3784
-3691
-3576
-3457
-3343
-3204
-2978
-2639
-2242
-1876
-1535
-1132
-659
-310
-312
-632
-933
-892
-514
-73
262
614
1228
2138
3128
4094
4524
4894
5095
5115
4962
4711
4453
4239
4071
3923
3760
3568
3368
3218
3148
3121
3060
2920
2730
2562
2489
2540
2673
2789
2809
2746
2696
2715
2756
2745
2702
2728
2858
2991
3014
2954
2932
2990
3039
3008
2950
2950
2943
2754
2329
1859
1584
1535
1543
1488
1463
1646
2041
2455
2709
2805
2841
2828
2652
2231
1673
1181
818
420
-177
-838
-1157
-861
-148
488
793
1038
1683
2788
3878
4421
4349
4038
3832
3710
3443
2945
2374
1934
1694
1616
1665
1844
2108
2346
2460
2442
2366
2313
2317
2360
2414
2457
2477
2475
2441
2364
2245
2102
1961
1830
1698
1556
1418
1310
1247
1224
1228
1247
1261
1246
1179
1064
933
823
747
685
607
506
401
304
214
110
-25
-191
-380
-577
-772
-956
-1136
-1321
-1505
-1667
-1787
-1869
-1943
-2032
-2131
-2215
-2268
-2308
-2363
-2441
-2521
-2582
-2617
-2637
-2649
-2646
-2620
-2568
-2509
-2463
-2435
-2415
-2382
-2320
-2230
-2139
-2073
-2026
-1961
-1839
-1667
-1499
-1387
-1324
-1250
-1130
-1001
-934
-939
-946
-876
-726
-566
-458
-396
-340
-271
-192
-92
56
242
420
546
647
797
1027
1285
1478
1570
1598
1626
1694
1803
1927
2023
2062
2065
2097
2200
2334
2414
2402
2339
2298
2299
2297
2248
2162
2104
2138
2244
2305
2212
1985
1776
1717
1757
1715
1498
1223
1085
1109
1132
1011
797
627
540
450
309
162
45
-111
-387
-759
-1139
-1529
-1995
-2464
-2661
-2375
-1739
-1118
-697
-268
493
1584
2597
3086
2950
2458
1958
1619
1383
1095
673
182
-199
-309
-132
183
446
565
571
544
529
540
584
638
647
585
506
527
725
1057
1375
1551
1590
1589
1622
1669
1653
1518
1289
1031
793
610
537
615
787
902
825
572
310
182
183
178
37
-256
-615
-930
-1147
-1296
-1484
-1802
-2228
-2641
-2930
-3086
-3175
-3235
-3235
-3159
-3106
-3208
-3445
-3627
-3587
-3402
-3328
-3533
-3900
-4129
-4048
-3794
-3686
-3941
-4498
-5066
-5364
-5329
-5144
-5074
-5223
-5435
-5451
-5192
-4841
-4676
-4810
-5120
-5407
-5585
-5662
-5638
-5476
-5190
-4890
-4684
-4556
-4356
-3965
-3447
-2990
-2735
-2636
-2509
-2203
-1732
-1242
-863
-588
-327
-33
243
449
625
862
1138
1279
1121
714
289
34
-85
-239
-502
-789
-977
-1030
-989
-864
-662
-445
-328
-357
-429
-420
-341
-302
-373
-479
-518
-460
-352
-212
-8
245
453
552
606
741
956
1126
1141
1030
895
784
675
565
514
538
563
490
288
-48
-517
-1040
-1391
-1319
-814
-137
496
1196
2258
3686
5019
5721
5713
5427
5309
5375
5306
4882
4258
3798
3736
4020
4414
4745
4966
5107
5207
5289
5386
5535
5731
5870
5856
5736
5691
5806
5916
5738
5206
4600
4249
4182
4146
3946
3647
3430
3342
3294
3220
3141
3063
2929
2737
2611
2645
2702
2526
2080
1657
1563
1703
1663
1222
638
357
474
656
573
299
157
278
436
346
20
-290
-397
-358
-302
-258
-191
-90
62
309
642
883
796
398
12
-75
13
-120
-632
-1185
-1326
-1002
-589
-433
-524
-643
-693
-745
-846
-943
-1011
-1128
-1352
-1573
-1609
-1446
-1287
-1342
-1620
-1943
-2103
-2013
-1744
-1475
-1392
-1560
-1801
-1810
-1475
-1040
-895
-1159
-1529
-1611
-1354
-1053
-971
-1061
-1083
-932
-727
-592
-478
-280
-35
86
27
-57
4
194
346
338
205
61
-22
-12
99
262
362
343
309
420
689
928
955
831
774
875
993
959
825
793
917
1024
985
924
1084
1493
1863
1917
1729
1625
1772
1955
1808
1231
482
-79
-279
-181
66
360
689
1114
1739
2581
3478
4149
4409
4313
4068
3817
3554
3218
2813
2395
2016
1722
1582
1645
1822
1890
1685
1272
860
577
356
58
-329
-686
-896
-967
-990
-1041
-1121
-1181
-1187
-1156
-1140
-1192
-1297
-1391
-1430
-1442
-1488
-1571
-1613
-1566
-1488
-1482
-1557
-1625
-1625
-1604
-1636
-1685
-1625
-1418
-1186
-1077
-1060
-947
-633
-247
-17
-13
-77
-25
128
223
184
124
205
427
632
699
675
695
803
901
884
772
680
697
832
1037
1252
1417
1484
1468
1444
1480
1542
1500
1285
1010
907
1096
1458
1754
1857
1858
1931
2125
2298
2279
2052
1764
1577
1516
1496
1458
1432
1466
1532
1533
1423
1265
1147
1078
1005
895
783
714
669
594
499
463
511
535
392
89
-185
-256
-164
-129
-319
-681
-1021
-1221
-1337
-1507
-1786
-2099
-2327
-2426
-2466
-2556
-2727
-2898
-2964
-2940
-2979
-3226
-3650
-4040
-4213
-4224
-4311
-4619
-5033
-5309
-5333
-5232
-5215
-5310
-5343
-5161
-4805
-4481
-4328
-4271
-4154
-3969
-3911
-4138
-4499
-4603
-4199
-3449
-2753
-2288
-1813
-1002
105
1071
1504
1426
1167
958
742
381
-101
-534
-788
-848
-730
-422
40
498
808
1015
1303
1735
2149
2339
2326
2354
2590
2905
3013
2792
2414
2148
2080
2068
1938
1689
1464
1385
1447
1547
1587
1524
1390
1257
1170
1096
944
659
311
52
-28
-1
-17
-136
-267
-286
-198
-135
-211
-405
-595
-689
-698
-701
-746
-795
-757
-568
-261
52
289
489
779
1247
1840
2420
2903
3320
3739
4154
4497
4755
5006
5314
5650
5922
6102
6279
6561
6933
7235
7311
7165
6976
6946
7124
7372
7514
7544
7633
7936
8384
8702
8652
8230
7635
7039
6438
5716
4822
3845
2955
2287
1861
1585
1313
950
536
200
11
-93
-224
-402
-549
-628
-727
-938
-1211
-1400
-1475
-1595
-1907
-2328
-2597
-2573
-2389
-2261
-2212
-2046
-1606
-990
-460
-174
-64
35
178
264
170
-108
-442
-679
-769
-790
-868
-1046
-1249
-1361
-1367
-1359
-1415
-1520
-1608
-1646
-1648
-1621
-1571
-1561
-1696
-1996
-2344
-2636
-2945
-3397
-3866
-3945
-3368
-2426
-1758
-1660
-1733
-1352
-435
443
734
539
445
827
1488
2007
2224
2296
2357
2339
2144
1851
1633
1529
1416
1203
959
824
832
882
864
754
570
310
-31
-404
-711
-894
-972
-1021
-1082
-1154
-1224
-1307
-1430
-1590
-1739
-1829
-1861
-1877
-1925
-2013
-2117
-2224
-2366
-2579
-2846
-3090
-3229
-3255
-3244
-3287
-3404
-3529
-3582
-3545
-3475
-3431
-3405
-3337
-3187
-2987
-2803
-2663
-2538
-2402
-2271
-2192
-2174
-2173
-2128
-2014
-1839
-1640
-1460
-1336
-1266
-1214
-1132
-1030
-962
-962
-998
-1019
-1032
-1083
-1168
-1223
-1216
-1225
-1375
-1681
-2017
-2251
-2376
-2485
-2612
-2673
-2571
-2320
-2024
-1762
-1524
-1275
-1044
-914
-931
-1051
-1182
-1269
-1314
-1345
-1362
-1338
-1245
-1090
-887
-644
-373
-107
109
261
382
525
709
909
1088
1250
1421
1598
1747
1842
1910
1999
2113
2202
2224
2185
2136
2117
2127
2142
2142
2110
2043
1947
1845
1755
1675
1583
1455
1300
1152
1040
996
1019
1065
1075
1027
940
852
758
619
432
216
-63
-505
-1115
-1650
-1724
-1177
-295
451
908
1423
2410
3795
4993
5468
5217
4678
4223
3844
3324
2584
1767
1064
564
261
132
150
235
301
314
296
259
201
122
56
34
41
39
29
34
60
92
127
188
300
435
535
556
481
328
137
-28
-111
-127
-145
-206
-276
-300
-285
-307
-447
-720
-1081
-1470
-1822
-2084
-2255
-2401
-2595
-2830
-3026
-3126
-3173
-3244
-3382
-3548
-3684
-3769
-3825
-3889
-3952
-3955
-3838
-3624
-3426
-3327
-3245
-2973
-2399
-1656
-1002
-567
-266
15
219
164
-222
-787
-1297
-1631
-1809
-1880
-1826
-1588
-1144
-556
48
524
800
919
992
1099
1206
1221
1117
965
853
790
736
671
599
498
315
36
-267
-485
-565
-547
-513
-515
-554
-605
-636
-618
-549
-473
-444
-465
-482
-459
-424
-432
-484
-511
-454
-310
-108
162
532
996
1478
1903
2252
2560
2838
3043
3123
3079
2972
2869
2800
2751
2701
2648
2623
2660
2758
2858
2898
2854
2745
2604
2470
2373
2322
2274
2149
1906
1591
1247
832
277
-325
-683
-558
-43
506
888
1295
2045
3122
4078
4457
4230
3744
3310
2940
2504
1993
1557
1307
1216
1209
1293
1521
1858
2167
2326
2333
2274
2251
2319
2472
2665
2827
2906
2912
2892
2876
2853
2809
2761
2747
2783
2851
2940
3067
3247
3457
3644
3757
3794
3790
3775
3742
3660
3503
3295
3100
2972
2900
2818
2676
2487
2315
2194
2094
1962
1776
1561
1356
1173
1007
850
711
604
549
544
566
575
557
533
526
531
504
410
259
97
-33
-129
-206
-273
-328
-373
-410
-444
-474
-496
-516
-547
-604
-685
-777
-862
-931
-989
-1045
-1097
-1129
-1126
-1088
-1020
-930
-821
-696
-562
-419
-262
-95
61
171
219
231
264
346
452
533
571
597
653
758
895
1037
1160
1243
1275
1277
1310
1409
1549
1673
1740
1775
1831
1926
2053
2198
2356
2495
2567
2563
2545
2586
2679
2725
2640
2465
2339
2341
2411
2448
2421
2375
2337
2250
2045
1751
1470
1275
1141
975
735
466
224
7
-210
-469
-857
-1454
-2205
-2807
-2870
-2300
-1435
-707
-144
644
1928
3398
4391
4540
4081
3501
3008
2485
1863
1293
947
795
706
688
870
1241
1522
1444
1049
616
370
299
259
173
81
62
210
584
1083
1439
1393
1003
624
537
650
636
340
-40
-227
-195
-142
-172
-169
-17
161
101
-259
-697
-961
-1039
-1132
-1391
-1777
-2161
-2463
-2630
-2571
-2275
-1958
-1974
-2482
-3231
-3786
-3979
-4056
-4367
-4946
-5486
-5707
-5625
-5445
-5307
-5208
-5123
-5094
-5161
-5281
-5389
-5499
-5647
-5779
-5773
-5617
-5481
-5535
-5712
-5784
-5653
-5493
-5557
-5865
-6167
-6231
-6103
-6049
-6286
-6790
-7401
-8023
-8703
-9511
-10396
-11176
-11674
-11847
-11783
-11579
-11246
-10754
-10109
-9392
-8696
-8059
-7461
-6866
-6263
-5678
-5166
-4777
-4480
-4139
-3612
-2899
-2185
-1658
-1309
-932
-365
331
951
1379
1689
2020
2403
2788
3154
3540
3968
4395
4761
5065
5361
5687
6038
6381
6677
6884
7008
7179
7584
8255
8949
9309
9199
8827
8483
8208
7770
6998
6043
5264
4878
4746
4572
4225
3833
3600
3514
3319
2770
1937
1217
982
1228
1596
1779
1854
2154
2849
3711
4341
4529
4354
3981
3463
2802
2079
1452
999
654
320
-4
-203
-178
69
438
792
1015
1052
982
964
1109
1361
1508
1410
1170
1074
1308
1785
2232
2413
2313
2110
2041
2199
2453
2549
2342
1988
1837
2091
2537
2731
2488
2111
2029
2278
2424
2102
1464
1002
951
1012
766
216
-202
-169
136
263
2
-428
-697
-720
-672
-717
-840
-906
-836
-699
-610
-619
-663
-647
-555
-500
-658
-1056
-1511
-1760
-1732
-1604
-1580
-1664
-1694
-1569
-1346
-1101
-830
-559
-437
-608
-948
-1105
-884
-529
-468
-804
-1176
-1193
-898
-675
-757
-963
-977
-774
-607
-648
-752
-649
-313
-30
-68
-381
-669
-707
-536
-397
-493
-811
-1151
-1301
-1177
-876
-598
-477
-481
-452
-265
41
319
478
595
800
1099
1325
1345
1232
1194
1334
1516
1541
1412
1342
1504
1836
2126
2267
2341
2464
2611
2657
2578
2490
2473
2450
2244
1796
1269
894
740
648
389
-88
-574
-822
-867
-1060
-1705
-2612
-3135
-2790
-1823
-1025
-872
-988
-588
587
1923
2596
2438
2003
1819
1834
1629
1059
437
126
119
132
12
-101
-28
196
356
314
133
-21
-48
32
146
228
230
134
-35
-203
-312
-372
-440
-537
-619
-636
-625
-699
-921
-1197
-1345
-1309
-1258
-1402
-1736
-2019
-2051
-1933
-1971
-2304
-2713
-2863
-2690
-2471
-2494
-2717
-2841
-2667
-2288
-1953
-1784
-1707
-1604
-1449
-1304
-1204
-1126
-1048
-994
-1002
-1061
-1117
-1116
-1055
-988
-980
-1037
-1092
-1051
-891
-696
-595
-617
-662
-611
-456
-304
-245
-230
-136
69
284
410
480
620
864
1090
1164
1107
1084
1214
1452
1653
1729
1712
1699
1758
1896
2059
2140
2049
1811
1572
1446
1381
1227
922
592
398
349
332
283
273
384
563
654
581
422
303
256
226
161
56
-68
-176
-237
-245
-268
-409
-686
-989
-1193
-1312
-1472
-1725
-1966
-2060
-2029
-2039
-2211
-2488
-2739
-2949
-3232
-3673
-4214
-4696
-5010
-5180
-5305
-5462
-5647
-5803
-5882
-5926
-6032
-6271
-6636
-7075
-7538
-7948
-8157
-8011
-7521
-6910
-6379
-5861
-5088
-3932
-2651
-1701
-1334
-1400
-1581
-1737
-1955
-2346
-2845
-3268
-3503
-3576
-3554
-3417
-3094
-2596
-2073
-1715
-1596
-1614
-1603
-1504
-1396
-1402
-1547
-1718
-1774
-1654
-1411
-1140
-898
-683
-475
-270
-87
59
164
238
321
462
675
902
1049
1074
1029
996
979
908
735
515
339
168
57
-138
-233
-93
223
485
531
432
390
487
595
542
306
19
-200
-338
-454
-555
-590
-533
-426
-346
-326
-335
-332
-326
-378
-537
-792
-1067
-1278
-1395
-1428
-1396
-1314
-1199
-1091
-1022
-994
-1001
-1059
-1204
-1441
-1706
-1906
-2012
-2086
-2201
-2335
-2385
-2274
-2046
-1831
-1705
-1607
-1402
-1040
-596
-167
253
751
1340
1912
2359
2721
3152
3695
4164
4305
4080
3748
3622
3783
4071
4340
4656
5205
6041
6998
7836
8420
8748
8845
8711
8358
7842
7228
6555
5867
5285
4954
4890
4905
4762
4374
3853
3364
2929
2430
1749
905
28
-736
-1318
-1759
-2167
-2641
-3194
-3752
-4240
-4665
-5064
-5439
-5791
-6212
-6844
-7656
-8303
-8372
-7809
-7007
-6379
-5886
-5102
-3776
-2230
-1096
-693
-793
-975
-1094
-1296
-1686
-2133
-2431
-2538
-2560
-2554
-2463
-2265
-2102
-2163
-2489
-2942
-3350
-3638
-3838
-3983
-4088
-4161
-4213
-4250
-4273
-4306
-4368
-4443
-4474
-4429
-4366
-4364
-4412
-4416
-4310
-4159
-4110
-4220
-4386
-4469
-4462
-4489
-4661
-4958
-5253
-5444
-5527
-5538
-5480
-5311
-5009
-4618
-4215
-3850
-3536
-3287
-3141
-3125
-3242
-3465
-3749
-4048
-4288
-4409
-4418
-4392
-4406
-4442
-4414
-4296
-4167
-4134
-4214
-4308
-4314
-4237
-4162
-4136
-4115
-4030
-3885
-3777
-3792
-3914
-4044
-4099
-4080
-4049
-4042
-4022
-3920
-3716
-3455
-3218
-3066
-3014
-3064
-3220
-3472
-3773
-4053
-4265
-4414
-4525
-4599
-4604
-4514
-4375
-4293
-4352
-4534
-4738
-4884
-4994
-5141
-5338
-5498
-5534
-5470
-5432
-5504
-5642
-5739
-5749
-5727
-5742
-5781
-5757
-5614
-5387
-5166
-5002
-4877
-4755
-4633
-4539
-4488
-4453
-4389
-4272
-4129
-4007
-3928
-3859
-3729
-3497
-3206
-2946
-2787
-2701
-2615
-2487
-2345
-2270
-2301
-2391
-2465
-2498
-2536
-2630
-2754
-2833
-2871
-3024
-3439
-3974
-4210
-3802
-2862
-1886
-1215
-666
238
1645
3100
3948
3956
3458
2929
2529
2099
1499
821
274
-30
-126
-101
1
151
268
265
101
-181
-484
-735
-927
-1095
-1267
-1451
-1630
-1772
-1864
-1922
-1976
-2049
-2133
-2175
-2126
-2001
-1877
-1806
-1756
-1643
-1435
-1209
-1066
-1026
-1007
-915
-727
-498
-286
-99
99
336
602
829
933
884
753
660
663
686
605
398
200
159
253
288
100
-258
-582
-750
-857
-1070
-1416
-1736
-1879
-1863
-1842
-1927
-2088
-2245
-2381
-2527
-2702
-2915
-3181
-3497
-3776
-3876
-3730
-3455
-3243
-3172
-3150
-3080
-3002
-3063
-3344
-3781
-4250
-4674
-5016
-5249
-5370
-5450
-5592
-5811
-5998
-6056
-6049
-6150
-6440
-6791
-6982
-6918
-6682
-6402
-6108
-5755
-5341
-4922
-4519
-4077
-3560
-3055
-2702
-2537
-2421
-2181
-1795
-1423
-1223
-1202
-1239
-1218
-1107
-929
-713
-493
-299
-142
8
192
417
652
866
1066
1279
1511
1732
1932
2119
2266
2296
2138
1804
1408
1062
786
532
280
64
-98
-273
-531
-834
-1082
-1303
-1692
-2343
-2972
-3061
-2359
-1188
-113
669
1504
2793
4429
5820
6464
6398
6046
5729
5442
5067
4624
4240
3981
3818
3736
3770
3903
3976
3845
3600
3505
3705
4045
4250
4275
4350
4652
5028
5133
4824
4317
3934
3748
3550
3159
2652
2277
2155
2174
2135
1979
1826
1796
1874
1943
1941
1915
1951
2062
2185
2280
2381
2543
2751
2928
3021
3057
3113
3240
3419
3593
3689
3658
3517
3355
3266
3250
3210
3060
2839
2679
2667
2765
2873
2948
3019
3111
3189
3192
3106
2964
2793
2590
2355
2119
1942
1856
1865
1945
2057
2163
2238
2272
2271
2238
2173
2079
1967
1837
1680
1498
1328
1227
1210
1224
1195
1103
1011
989
1047
1132
1180
1166
1101
1002
892
797
723
646
541
419
333
318
352
370
322
209
57
-100
-239
-346
-424
-487
-535
-552
-518
-458
-424
-438
-477
-509
-544
-614
-703
-748
-707
-613
-536
-501
-476
-429
-375
-355
-394
-483
-624
-813
-1003
-1116
-1130
-1113
-1159
-1282
-1409
-1488
-1556
-1693
-1933
-2267
-2688
-3156
-3509
-3504
-3046
-2344
-1738
-1313
-784
147
1356
2310
2580
2251
1787
1518
1357
1031
483
-58
-346
-381
-356
-397
-448
-403
-290
-262
-430
-730
-960
-1001
-926
-923
-1090
-1321
-1421
-1316
-1138
-1083
-1227
-1455
-1614
-1664
-1683
-1756
-1895
-2058
-2186
-2251
-2267
-2276
-2322
-2415
-2525
-2586
-2536
-2373
-2153
-1964
-1844
-1760
-1643
-1463
-1276
-1164
-1140
-1153
-1152
-1149
-1190
-1275
-1354
-1394
-1423
-1478
-1545
-1566
-1534
-1492
-1470
-1432
-1307
-1099
-907
-854
-940
-1037
-1007
-852
-717
-736
-891
-1011
-918
-599
-243
-103
-299
-709
-1082
-1249
-1281
-1390
-1658
-1934
-2040
-2044
-2238
-2743
-3281
-3453
-3261
-3183
-3612
-4320
-4650
-4276
-3618
-3409
-3879
-4535
-4768
-4568
-4495
-5028
-6038
-6965
-7410
-7462
-7488
-7708
-8044
-8290
-8342
-8258
-8188
-8258
-8501
-8827
-9071
-9126
-9018
-8847
-8662
-8416
-8087
-7733
-7393
-6993
-6423
-5730
-5130
-4768
-4529
-4166
-3615
-3074
-2767
-2673
-2585
-2376
-2142
-2060
-2152
-2249
-2183
-1943
-1644
-1400
-1234
-1097
-955
-809
-703
-718
-915
-1262
-1571
-1586
-1175
-445
365
1158
2089
3387
5042
6719
8011
8771
9185
9524
9882
10146
10202
10099
9998
9981
9941
9696
9201
8592
8021
7496
6885
6095
5227
4495
4043
3870
3867
3922
3937
3819
3537
3178
2911
2835
2877
2855
2665
2375
2152
2078
2084
2031
1844
1567
1299
1070
840
585
363
230
151
16
-234
-521
-712
-768
-784
-838
-888
-841
-703
-578
-550
-574
-577
-571
-626
-751
-846
-842
-799
-828
-912
-890
-648
-300
-98
-162
-339
-368
-160
128
299
322
347
497
701
780
646
423
307
333
354
223
-31
-208
-153
122
460
688
737
662
597
657
838
991
938
637
247
-1
-31
31
-16
-253
-579
-818
-896
-886
-924
-1063
-1240
-1364
-1399
-1367
-1307
-1227
-1176
-1232
-1415
-1618
-1672
-1529
-1353
-1358
-1618
-2033
-2424
-2664
-2723
-2644
-2556
-2608
-2835
-3078
-3078
-2772
-2412
-2343
-2645
-3022
-3092
-2813
-2514
-2501
-2713
-2802
-2588
-2263
-2130
-2219
-2242
-2003
-1697
-1662
-1948
-2238
-2235
-2035
-2007
-2362
-2897
-3189
-2987
-2426
-1865
-1523
-1279
-762
265
1600
2682
3076
2888
2627
2657
2826
2702
2100
1294
700
470
436
391
331
355
473
588
621
608
626
657
603
423
196
31
-43
-74
-90
-53
63
188
210
101
-45
-140
-210
-348
-585
-840
-1028
-1151
-1269
-1395
-1476
-1465
-1388
-1325
-1321
-1343
-1330
-1266
-1204
-1230
-1395
-1664
-1932
-2105
-2167
-2174
-2192
-2230
-2251
-2217
-2122
-1978
-1815
-1669
-1572
-1547
-1579
-1616
-1607
-1526
-1387
-1227
-1082
-958
-840
-713
-589
-496
-448
-431
-415
-378
-317
-244
-173
-106
-32
64
191
333
458
540
571
562
533
505
500
531
601
704
824
937
1019
1075
1135
1227
1333
1397
1397
1386
1455
1635
1859
2039
2147
2211
2252
2253
2205
2143
2112
2085
1997
1843
1730
1774
1976
2202
2318
2315
2279
2295
2359
2405
2379
2265
2080
1870
1704
1645
1692
1751
1691
1469
1187
1030
1103
1295
1376
1224
969
882
1058
1281
1258
959
638
516
494
288
-185
-697
-1058
-1410
-2025
-2835
-3341
-3126
-2381
-1723
-1466
-1252
-505
799
2013
2474
2168
1637
1320
1150
792
146
-530
-954
-1090
-1116
-1186
-1311
-1463
-1646
-1888
-2191
-2530
-2859
-3125
-3282
-3331
-3355
-3445
-3598
-3739
-3851
-4031
-4348
-4707
-4907
-4862
-4725
-4702
-4810
-4878
-4777
-4574
-4420
-4369
-4350
-4316
-4305
-4336
-4306
-4079
-3673
-3260
-2960
-2700
-2313
-1765
-1209
-815
-582
-381
-149
39
93
57
78
243
474
640
708
750
839
965
1063
1096
1062
969
833
707
671
753
885
981
1047
1175
1416
1684
1830
1814
1744
1744
1815
1847
1776
1657
1613
1697
1829
1886
1819
1683
1566
1490
1382
1165
852
559
391
340
326
318
392
616
920
1129
1151
1078
1055
1077
969
607
100
-307
-487
-538
-638
-819
-960
-959
-855
-769
-750
-737
-667
-546
-396
-184
163
656
1212
1756
2307
2928
3587
4128
4440
4606
4833
5241
5738
6139
6371
6518
6670
6791
6765
6528
6147
5769
5499
5372
5387
5576
5962
6477
6939
7163
7107
6831
6334
5487
4257
2967
2203
2308
3041
3834
4427
5114
6281
7786
8952
9186
8486
7330
6146
5029
3923
2878
2038
1453
1047
746
586
604
677
590
228
-305
-818
-1202
-1490
-1734
-1897
-1919
-1828
-1752
-1787
-1871
-1870
-1741
-1591
-1558
-1648
-1746
-1763
-1736
-1752
-1823
-1867
-1807
-1669
-1540
-1472
-1438
-1385
-1307
-1243
-1223
-1233
-1239
-1237
-1251
-1295
-1351
-1392
-1418
-1476
-1618
-1849
-2134
-2440
-2757
-3086
-3424
-3760
-4099
-4458
-4817
-5117
-5305
-5382
-5409
-5428
-5406
-5260
-4946
-4510
-4069
-3711
-3424
-3119
-2740
-2342
-2027
-1824
-1632
-1334
-946
-614
-439
-363
-238
-15
203
291
250
205
261
405
542
603
589
555
544
543
489
327
74
-169
-312
-361
-404
-492
-584
-611
-575
-552
-591
-661
-709
-754
-862
-1058
-1274
-1417
-1477
-1532
-1652
-1823
-1952
-1978
-1934
-1911
-1963
-2054
-2108
-2115
-2148
-2283
-2491
-2650
-2678
-2625
-2612
-2678
-2728
-2644
-2430
-2203
-2066
-2018
-1992
-1972
-1998
-2079
-2168
-2217
-2238
-2282
-2373
-2495
-2641
-2810
-2981
-3142
-3338
-3662
-4075
-4290
-3953
-3007
-1813
-818
-88
733
1963
3433
4571
4949
4667
4183
3840
3608
3244
2635
1919
1328
982
834
773
727
660
557
410
237
85
-11
-77
-170
-326
-534
-753
-961
-1172
-1402
-1656
-1925
-2200
-2467
-2698
-2858
-2941
-2974
-2997
-3022
-3024
-2966
-2837
-2666
-2519
-2440
-2419
-2408
-2355
-2252
-2125
-1995
-1867
-1741
-1620
-1507
-1387
-1258
-1142
-1081
-1095
-1139
-1127
-989
-736
-439
-177
23
196
392
607
769
786
644
437
305
319
411
458
414
370
452
667
895
1005
982
916
879
866
856
875
963
1101
1200
1196
1091
903
636
313
21
-148
-182
-158
-122
-33
156
385
503
413
136
-253
-711
-1219
-1717
-2119
-2404
-2631
-2858
-3058
-3152
-3113
-3008
-2955
-3041
-3271
-3553
-3782
-3945
-4130
-4420
-4763
-4987
-4982
-4820
-4659
-4557
-4422
-4180
-3910
-3753
-3743
-3777
-3783
-3826
-3988
-4210
-4292
-4092
-3680
-3258
-2956
-2729
-2462
-2120
-1786
-1573
-1493
-1476
-1445
-1376
-1273
-1132
-964
-836
-839
-996
-1235
-1490
-1815
-2295
-2821
-3067
-2790
-2133
-1511
-1156
-843
-164
930
1999
2555
2567
2422
2438
2556
2542
2377
2326
2604
3132
3667
4107
4574
5172
5807
6271
6490
6617
6877
7359
7976
8633
9343
10206
11243
12293
13098
13504
13595
13591
13613
13567
13278
12716
12070
11600
11406
11381
11331
11148
10842
10461
10021
9516
8958
8389
7854
7367
6918
6511
6180
5953
5798
5630
5372
5018
4624
4238
3865
3504
3165
2865
2601
2369
2187
2072
1983
1828
1550
1202
894
645
353
-76
-595
-1039
-1284
-1352
-1345
-1302
-1166
-892
-522
-166
102
300
479
646
743
711
551
336
155
43
-52
-219
-486
-772
-944
-954
-888
-882
-994
-1159
-1275
-1319
-1361
-1480
-1682
-1915
-2124
-2298
-2455
-2617
-2784
-2941
-3069
-3163
-3237
-3314
-3407
-3505
-3593
-3671
-3745
-3818
-3876
-3900
-3889
-3870
-3872
-3895
-3904
-3858
-3747
-3608
-3498
-3432
-3372
-3259
-3075
-2864
-2682
-2538
-2385
-2182
-1942
-1727
-1589
-1527
-1486
-1419
-1336
-1291
-1334
-1451
-1556
-1567
-1497
-1444
-1503
-1673
-1858
-2002
-2176
-2514
-2996
-3377
-3379
-2984
-2472
-2108
-1833
-1317
-374
759
1600
1876
1747
1549
1424
1226
796
184
-389
-771
-976
-1072
-1033
-796
-420
-99
8
-69
-128
-32
139
177
-9
-280
-399
-288
-86
-8
-107
-227
-203
-43
70
-24
-315
-659
-925
-1091
-1223
-1388
-1620
-1912
-2231
-2533
-2779
-2965
-3129
-3321
-3564
-3834
-4045
-4095
-3948
-3694
-3522
-3586
-3843
-4092
-4168
-4080
-4000
-4053
-4173
-4213
-4113
-3922
-3663
-3279
-2755
-2283
-2149
-2394
-2719
-2789
-2614
-2558
-2880
-3391
-3658
-3486
-3085
-2749
-2516
-2221
-1822
-1520
-1489
-1652
-1752
-1648
-1450
-1353
-1401
-1463
-1390
-1147
-859
-674
-635
-677
-723
-782
-909
-1074
-1130
-1009
-865
-941
-1284
-1648
-1756
-1633
-1574
-1812
-2258
-2587
-2561
-2228
-1850
-1655
-1659
-1725
-1720
-1656
-1656
-1787
-1983
-2142
-2283
-2540
-2975
-3438
-3691
-3649
-3467
-3364
-3409
-3477
-3393
-3095
-2667
-2288
-2109
-2157
-2298
-2332
-2172
-1931
-1846
-2054
-2459
-2822
-2995
-3067
-3268
-3715
-4294
-4786
-5081
-5286
-5583
-6026
-6512
-6909
-7194
-7479
-7899
-8477
-9050
-9324
-9082
-8414
-7694
-7231
-6933
-6381
-5325
-4057
-3185
-3048
-3385
-3629
-3488
-3161
-3027
-3227
-3564
-3736
-3583
-3128
-2481
-1756
-1064
-475
16
491
1033
1631
2172
2578
2886
3204
3588
3990
4380
4836
5453
6131
6564
6485
5939
5240
4638
4068
3292
2231
1130
359
116
334
833
1445
2069
2639
3097
3434
3677
3835
3872
3737
3443
3111
2902
2898
3028
3131
3089
2929
2740
2561
2366
2143
1944
1799
1653
1422
1128
900
850
940
1030
1018
922
843
884
1091
1405
1657
1683
1495
1311
1353
1602
1808
1780
1610
1577
1820
2191
2450
2522
2528
2602
2714
2725
2561
2299
2075
1961
1923
1884
1800
1669
1532
1465
1525
1695
1845
1811
1560
1256
1128
1218
1327
1232
959
744
736
830
823
701
653
793
942
848
530
291
348
540
484
34
-528
-801
-699
-509
-543
-813
-1064
-1078
-882
-678
-624
-719
-856
-939
-961
-965
-999
-1090
-1227
-1392
-1557
-1687
-1758
-1800
-1875
-2003
-2124
-2155
-2133
-2189
-2419
-2815
-3328
-3962
-4685
-5296
-5482
-5108
-4392
-3692
-3108
-2366
-1187
276
1464
1900
1645
1186
930
846
632
164
-324
-481
-249
68
176
118
172
438
654
486
-41
-482
-471
-127
97
-72
-406
-478
-183
149
179
-12
-53
218
521
488
133
-131
25
447
690
528
203
144
501
1037
1389
1376
1098
830
818
1077
1355
1353
1022
643
544
779
1092
1220
1155
1055
1006
936
794
687
753
950
1057
919
647
486
524
578
412
-22
-534
-897
-1038
-1050
-1059
-1112
-1174
-1163
-1000
-707
-417
-296
-364
-452
-372
-128
91
147
117
192
421
655
722
634
571
657
834
956
966
942
994
1130
1267
1324
1279
1157
1001
845
719
624
519
364
189
81
93
155
133
-22
-220
-340
-382
-463
-661
-925
-1135
-1225
-1236
-1237
-1257
-1263
-1210
-1089
-932
-780
-651
-526
-370
-191
-42
44
110
237
448
670
831
945
1084
1275
1445
1503
1490
1531
1685
1867
1941
1876
1769
1700
1645
1524
1288
904
331
-402
-1065
-1315
-1010
-394
145
528
1088
2151
3576
4786
5322
5223
4877
4559
4234
3749
3113
2517
2138
2006
2043
2171
2359
2573
2757
2840
2760
2509
2173
1884
1719
1649
1560
1390
1207
1109
1115
1138
1089
969
847
758
663
519
360
260
237
213
105
-79
-251
-360
-440
-550
-681
-762
-765
-748
-759
-735
-583
-334
-163
-199
-370
-496
-526
-609
-892
-1295
-1580
-1622
-1539
-1516
-1561
-1509
-1276
-999
-874
-925
-999
-979
-934
-1015
-1237
-1456
-1545
-1538
-1572
-1698
-1788
-1682
-1389
-1079
-900
-823
-703
-483
-277
-238
-364
-486
-469
-355
-293
-334
-358
-220
57
298
352
247
139
131
160
65
-210
-519
-650
-540
-337
-253
-340
-468
-492
-426
-401
-511
-724
-941
-1109
-1223
-1278
-1261
-1189
-1106
-1025
-914
-751
-579
-484
-510
-632
-799
-992
-1195
-1375
-1494
-1542
-1538
-1497
-1415
-1298
-1181
-1098
-1043
-993
-982
-1076
-1295
-1551
-1733
-1844
-1962
-2121
-2249
-2246
-2099
-1898
-1729
-1626
-1593
-1632
-1748
-1969
-2358
-2939
-3572
-3941
-3792
-3201
-2503
-1900
-1202
-82
1416
2755
3380
3224
2691
2181
1741
1188
460
-272
-781
-965
-840
-440
208
1008
1787
2394
2811
3136
3473
3827
4098
4209
4216
4262
4453
4779
5166
5587
6060
6560
6991
7304
7579
7941
8394
8786
8958
8925
8844
8815
8752
8481
7935
7222
6500
5803
5054
4226
3468
3006
2908
3007
3092
3163
3417
3969
4639
5098
5211
5143
5103
5044
4727
4047
3188
2410
1759
1076
264
-546
-1131
-1436
-1599
-1772
-1982
-2184
-2389
-2680
-3088
-3526
-3846
-3964
-3888
-3663
-3313
-2819
-2163
-1360
-483
370
1120
1757
2327
2887
3500
4210
5018
5843
6524
6912
6979
6837
6621
6349
5915
5235
4389
3613
3123
2955
2955
2942
2859
2786
2809
2901
2941
2843
2647
2455
2312
2148
1855
1393
826
252
-304
-909
-1635
-2459
-3242
-3839
-4202
-4400
-4547
-4698
-4832
-4923
-4977
-5009
-4999
-4910
-4748
-4579
-4446
-4295
-4017
-3579
-3082
-2675
-2394
-2126
-1733
-1230
-754
-396
-85
313
825
1335
1733
2032
2324
2661
2984
3175
3138
2890
2605
2582
3048
3923
4817
5374
5639
5991
6674
7411
7624
7003
5801
4523
3437
2424
1282
37
-1101
-1969
-2574
-3022
-3375
-3650
-3881
-4118
-4367
-4605
-4810
-4981
-5119
-5214
-5279
-5364
-5507
-5689
-5841
-5918
-5936
-5936
-5911
-5811
-5637
-5493
-5512
-5741
-6072
-6310
-6321
-6118
-5804
-5452
-5011
-4369
-3501
-2560
-1788
-1338
-1157
-1083
-1032
-1061
-1255
-1583
-1884
-2010
-1938
-1761
-1600
-1517
-1495
-1458
-1332
-1112
-881
-738
-690
-637
-469
-171
171
454
619
639
510
282
83
29
116
214
212
137
125
252
451
587
597
524
441
377
317
244
146
13
-144
-295
-426
-554
-703
-872
-1035
-1196
-1401
-1667
-1919
-2065
-2096
-2103
-2170
-2282
-2357
-2376
-2402
-2497
-2638
-2764
-2853
-2933
-3024
-3109
-3166
-3179
-3112
-2886
-2441
-1808
-1081
-328
471
1359
2310
3203
3923
4443
4823
5140
5429
5677
5867
6006
6128
6274
6465
6684
6888
7013
7016
6889
6682
6472
6295
6113
5871
5550
5182
4800
4387
3903
3371
2880
2486
2144
1752
1281
848
554
311
-111
-807
-1550
-1960
-1929
-1763
-1840
-2170
-2381
-2162
-1670
-1383
-1617
-2262
-3016
-3708
-4375
-5054
-5660
-6085
-6319
-6391
-6279
-5940
-5472
-5108
-5000
-5059
-5088
-5008
-4895
-4835
-4767
-4551
-4140
-3628
-3132
-2690
-2240
-1689
-1013
-262
455
1049
1541
2054
2678
3365
3945
4291
4427
4493
4584
4681
4719
4671
4570
4449
4286
4042
3717
3362
3030
2731
2435
2135
1884
1772
1862
2109
2372
2517
2551
2617
2856
3262
3678
3963
4135
4355
4751
5286
5810
6217
6538
6855
7171
7397
7465
7413
7346
7309
7252
7094
6829
6541
6323
6195
6103
5978
5799
5613
5492
5472
5527
5584
5585
5520
5410
5264
5062
4778
4433
4077
3748
3433
3113
2817
2610
2527
2515
2471
2343
2169
2008
1850
1634
1339
1033
807
675
561
391
194
71
71
119
81
-93
-304
-403
-350
-256
-270
-421
-592
-651
-595
-542
-608
-791
-988
-1105
-1144
-1171
-1233
-1324
-1398
-1407
-1353
-1288
-1272
-1314
-1368
-1401
-1449
-1567
-1755
-1940
-2043
-2066
-2064
-2058
-2025
-1951
-1869
-1843
-1937
-2191
-2559
-2862
-2866
-2496
-1959
-1554
-1323
-964
-177
916
1808
2087
1828
1451
1255
1169
947
515
40
-273
-366
-317
-218
-124
-62
-44
-70
-139
-242
-344
-399
-379
-313
-289
-373
-540
-706
-810
-858
-905
-980
-1044
-1020
-861
-625
-438
-404
-496
-582
-549
-419
-330
-385
-547
-676
-669
-538
-376
-275
-255
-295
-379
-492
-606
-683
-710
-734
-809
-929
-1007
-952
-785
-639
-637
-771
-905
-916
-792
-628
-528
-544
-671
-843
-963
-985
-958
-1016
-1237
-1520
-1647
-1494
-1181
-939
-854
-781
-527
-129
148
132
-75
-229
-245
-289
-527
-866
-1038
-903
-609
-433
-515
-751
-916
-851
-547
-149
131
166
36
-29
137
483
793
869
691
417
276
400
727
1022
1086
951
892
1117
1530
1821
1781
1498
1208
1017
846
605
313
72
-51
-63
4
120
243
329
363
370
351
266
84
-167
-389
-478
-408
-222
6
217
369
415
304
22
-366
-738
-1023
-1265
-1514
-1707
-1686
-1403
-1057
-909
-1041
-1318
-1598
-1899
-2279
-2615
-2674
-2407
-2045
-1834
-1688
-1272
-459
415
801
462
-307
-1000
-1360
-1500
-1660
-1930
-2214
-2367
-2316
-2083
-1778
-1565
-1587
-1830
-2119
-2282
-2322
-2402
-2637
-2909
-3020
-2976
-3040
-3483
-4271
-5085
-5679
-6127
-6678
-7441
-8229
-8744
-8835
-8570
-8136
-7679
-7246
-6792
-6223
-5522
-4831
-4357
-4148
-4013
-3710
-3231
-2844
-2775
-2907
-2875
-2426
-1675
-976
-557
-328
-32
502
1225
1969
2606
3118
3565
4006
4477
4983
5493
5919
6138
6089
5832
5522
5257
4988
4577
3984
3317
2728
2280
1940
1685
1552
1543
1547
1444
1253
1140
1214
1346
1271
897
435
183
221
350
368
306
331
476
592
547
420
401
537
655
585
391
326
555
972
1296
1344
1170
966
862
825
715
449
89
-211
-339
-289
-125
92
335
551
674
678
612
558
522
442
306
215
293
529
753
841
879
1050
1376
1651
1665
1467
1308
1336
1412
1333
1125
1030
1168
1330
1210
798
415
332
430
359
-41
-539
-786
-707
-522
-509
-786
-1284
-1852
-2267
-2297
-1896
-1345
-1047
-1060
-932
-190
1056
2134
2489
2229
1916
1855
1800
1362
570
-158
-522
-629
-742
-908
-964
-856
-750
-799
-913
-922
-862
-961
-1298
-1626
-1638
-1362
-1172
-1375
-1853
-2198
-2169
-1914
-1760
-1850
-2049
-2139
-2024
-1779
-1565
-1490
-1531
-1576
-1545
-1505
-1610
-1884
-2106
-1995
-1546
-1099
-973
-1108
-1140
-854
-475
-408
-741
-1110
-1102
-737
-442
-558
-923
-1053
-698
-149
79
-175
-549
-583
-229
142
187
-41
-243
-259
-212
-282
-449
-551
-528
-489
-529
-544
-360
44
452
615
494
266
111
46
-54
-281
-571
-764
-755
-589
-399
-279
-223
-170
-87
-2
52
61
32
-40
-165
-298
-340
-240
-72
29
8
-33
42
245
450
531
506
479
505
539
533
511
526
555
512
367
234
246
391
498
412
188
37
89
243
272
80
-211
-407
-442
-415
-432
-513
-611
-682
-718
-716
-658
-565
-532
-632
-819
-957
-968
-902
-867
-907
-986
-1082
-1208
-1363
-1529
-1738
-2095
-2596
-2981
-2891
-2233
-1324
-538
144
1093
2503
4006
4969
5137
4862
4660
4656
4579
4201
3647
3233
3122
3228
3413
3637
3875
4023
3977
3758
3515
3373
3302
3178
2934
2626
2366
2217
2133
2025
1843
1626
1474
1446
1505
1566
1583
1590
1627
1669
1658
1585
1513
1478
1424
1281
1096
1022
1125
1266
1242
1021
816
841
1057
1207
1105
799
486
306
244
210
137
2
-188
-386
-509
-509
-441
-443
-588
-797
-922
-904
-835
-845
-952
-1053
-1055
-997
-1022
-1219
-1506
-1705
-1731
-1681
-1729
-1903
-2042
-1977
-1757
-1620
-1738
-2037
-2283
-2356
-2365
-2486
-2746
-3006
-3128
-3105
-3032
-2973
-2920
-2854
-2787
-2740
-2687
-2558
-2312
-1984
-1674
-1462
-1347
-1249
-1079
-825
-564
-387
-313
-260
-131
108
407
699
947
1143
1267
1311
1314
1338
1399
1422
1331
1160
1055
1120
1297
1438
1482
1506
1604
1757
1871
1906
1920
1969
2007
1957
1826
1712
1699
1757
1797
1759
1634
1475
1347
1290
1286
1252
1108
879
691
631
634
542
249
-235
-809
-1320
-1563
-1361
-714
123
857
1460
2194
3255
4417
5120
4975
4119
3052
2167
1473
758
-66
-845
-1344
-1470
-1326
-1090
-905
-835
-887
-1068
-1387
-1817
-2262
-2604
-2780
-2810
-2763
-2682
-2555
-2343
-2025
-1606
-1137
-723
-459
-329
-169
179
695
1181
1487
1677
1942
2359
2802
3103
3242
3338
3499
3731
4010
4349
4782
5280
5766
6195
6597
7015
7429
7740
7837
7682
7312
6816
6275
5709
5092
4409
3707
3062
2520
2094
1803
1686
1748
1898
1982
1926
1811
1770
1830
1877
1807
1659
1576
1660
1889
2171
2457
2748
3058
3408
3837
4364
4929
5412
5738
5967
6232
6563
6854
6983
6959
6920
6983
7133
7278
7352
7349
7276
7134
6931
6689
6404
6020
5487
4849
4234
3753
3405
3116
2852
2638
2501
2397
2236
1987
1706
1464
1255
1014
700
354
62
-139
-297
-479
-700
-912
-1069
-1183
-1302
-1425
-1482
-1446
-1400
-1468
-1650
-1789
-1756
-1628
-1622
-1822
-2050
-2068
-1868
-1669
-1625
-1649
-1576
-1407
-1318
-1428
-1653
-1855
-2028
-2266
-2611
-3021
-3469
-3961
-4384
-4474
-4064
-3347
-2727
-2341
-1863
-896
474
1644
2105
1941
1644
1538
1492
1210
656
85
-277
-440
-520
-525
-377
-113
75
23
-231
-500
-644
-707
-811
-991
-1158
-1208
-1158
-1133
-1254
-1539
-1902
-2258
-2613
-3058
-3657
-4325
-4858
-5097
-5056
-4899
-4762
-4643
-4463
-4196
-3918
-3735
-3696
-3761
-3860
-3941
-3975
-3960
-3905
-3811
-3669
-3484
-3301
-3195
-3198
-3272
-3361
-3455
-3593
-3791
-3994
-4130
-4161
-4113
-4013
-3835
-3528
-3088
-2590
-2160
-1882
-1744
-1656
-1537
-1393
-1297
-1289
-1318
-1282
-1121
-872
-615
-403
-248
-131
-18
100
217
309
371
433
532
663
786
865
902
919
907
842
726
592
469
343
196
55
-12
16
75
60
-85
-314
-534
-688
-802
-939
-1130
-1323
-1419
-1353
-1148
-889
-652
-456
-281
-113
28
117
158
166
157
140
119
107
108
132
185
253
298
281
227
219
322
492
608
583
459
364
368
416
399
276
89
-103
-293
-506
-729
-912
-1035
-1142
-1291
-1482
-1632
-1666
-1646
-1793
-2263
-2900
-3251
-2955
-2129
-1279
-750
-327
509
1911
3400
4334
4557
4451
4400
4376
4118
3573
2947
2383
1747
869
-135
-937
-1409
-1791
-2400
-3232
-3971
-4363
-4480
-4601
-4868
-5187
-5408
-5531
-5686
-5952
-6244
-6421
-6451
-6422
-6401
-6340
-6164
-5903
-5666
-5482
-5226
-4759
-4119
-3470
-2896
-2286
-1485
-516
408
1111
1620
2076
2543
2971
3309
3601
3907
4209
4430
4566
4731
5021
5379
5632
5672
5573
5496
5506
5521
5427
5214
5004
4922
4986
5085
5103
4994
4801
4583
4364
4140
3929
3774
3705
3699
3708
3725
3800
3988
4266
4542
4727
4807
4845
4933
5122
5377
5581
5630
5518
5352
5259
5266
5295
5250
5112
4934
4790
4724
4761
4883
5012
5049
4969
4838
4741
4695
4646
4537
4366
4148
3894
3624
3388
3225
3113
2998
2861
2728
2612
2490
2328
2138
1958
1792
1608
1384
1134
884
657
485
384
295
103
-253
-679
-988
-1095
-1077
-1089
-1193
-1313
-1342
-1245
-1078
-944
-946
-1112
-1365
-1589
-1732
-1857
-2031
-2207
-2273
-2209
-2114
-2093
-2169
-2335
-2612
-2954
-3156
-2979
-2441
-1841
-1405
-966
-147
1121
2383
3077
3072
2726
2443
2294
2101
1762
1369
1069
919
907
1019
1230
1450
1546
1469
1284
1104
985
910
839
769
721
702
695
659
558
401
246
145
100
81
68
66
70
54
-3
-96
-213
-367
-572
-794
-962
-1053
-1121
-1236
-1387
-1490
-1498
-1467
-1497
-1616
-1764
-1871
-1921
-1940
-1959
-2006
-2098
-2214
-2284
-2249
-2147
-2083
-2113
-2162
-2111
-1938
-1737
-1588
-1462
-1300
-1127
-1039
-1050
-1049
-933
-762
-693
-781
-905
-902
-765
-620
-566
-549
-455
-256
-28
154
275
335
320
233
123
34
-51
-177
-328
-409
-351
-214
-110
-43
127
499
977
1326
1409
1314
1243
1287
1364
1360
1251
1111
1006
955
952
1004
1103
1189
1197
1148
1155
1312
1576
1798
1882
1858
1835
1864
1878
1781
1572
1356
1229
1195
1191
1159
1118
1137
1261
1459
1611
1598
1401
1118
862
652
415
129
-104
-169
-109
-81
-194
-407
-612
-815
-1137
-1602
-2058
-2334
-2425
-2543
-2906
-3511
-4087
-4255
-3819
-2950
-2071
-1484
-1083
-485
521
1667
2392
2359
1706
874
243
-62
-122
-124
-241
-478
-631
-462
9
478
616
419
149
-4
-64
-102
-71
105
358
466
343
132
-12
-163
-513
-1042
-1415
-1316
-836
-423
-422
-735
-1002
-1040
-1028
-1245
-1717
-2199
-2470
-2530
-2511
-2477
-2401
-2296
-2278
-2446
-2755
-3039
-3203
-3315
-3506
-3826
-4179
-4408
-4444
-4347
-4222
-4108
-3960
-3747
-3539
-3440
-3425
-3317
-3017
-2737
-2906
-3761
-5062
-6287
-7124
-7727
-8483
-9539
-10608
-11217
-11133
-10549
-9878
-9410
-9125
-8806
-8299
-7652
-7042
-6568
-6153
-5647
-4982
-4209
-3396
-2526
-1533
-408
1731
2498
3118
3739
4420
5075
5581
5894
6059
6087
5922
5563
5151
4858
4692
4469
4048
3557
3295
3391
3655
3779
3665
3490
3465
3572
3592
3333
2832
2320
2005
1886
1756
1438
1000
711
732
917
950
715
437
415
656
886
906
810
837
1059
1303
1384
1316
1249
1273
1365
1463
1518
1521
1466
1367
1277
1225
1148
930
501
-77
-649
-1096
-1448
-1833
-2288
-2627
-2549
-1938
-1018
-149
552
1300
2331
3523
4442
4766
4604
4329
4142
3924
3492
2910
2460
2334
2453
2600
2661
2703
2835
3050
3238
3281
3166
2984
2838
2765
2703
2562
2313
2028
1821
1738
1697
1563
1293
1019
953
1151
1433
1516
1310
1022
933
1085
1233
1132
801
474
332
341
351
269
104
-99
-308
-500
-658
-805
-989
-1213
-1419
-1584
-1788
-2091
-2411
-2579
-2567
-2576
-2793
-3129
-3306
-3193
-2980
-2937
-3067
-3144
-3031
-2845
-2757
-2721
-2545
-2198
-1888
-1780
-1755
-1523
-999
-439
-150
-150
-146
152
744
1338
1639
1619
1519
1596
1864
2073
1972
1612
1304
1289
1488
1599
1451
1195
1099
1236
1417
1404
1154
844
669
644
623
461
202
83
279
659
845
618
226
157
610
1242
1548
1394
1117
1088
1312
1509
1489
1310
1120
972
839
757
813
996
1150
1113
897
680
627
710
750
601
270
-113
-423
-644
-828
-1013
-1196
-1368
-1569
-1832
-2124
-2373
-2537
-2644
-2738
-2823
-2883
-2943
-3041
-3177
-3320
-3515
-3844
-4245
-4446
-4179
-3486
-2718
-2148
-1637
-794
500
1862
2745
2980
2882
2853
2966
2993
2754
2347
2025
1940
2047
2213
2367
2509
2627
2675
2625
2505
2390
2318
2258
2144
1958
1779
1710
1765
1833
1768
1545
1290
1137
1099
1076
960
743
497
280
109
-19
-99
-136
-174
-259
-393
-528
-629
-705
-797
-914
-1015
-1055
-1023
-941
-848
-773
-717
-631
-463
-204
53
168
85
-93
-180
-84
106
207
128
-33
-85
84
395
640
669
510
326
259
297
299
162
-56
-201
-182
-66
-2
-59
-177
-244
-237
-240
-356
-588
-838
-1009
-1064
-1039
-968
-863
-747
-658
-622
-609
-552
-444
-381
-482
-766
-1136
-1469
-1703
-1851
-1949
-2010
-2043
-2078
-2134
-2204
-2265
-2300
-2345
-2471
-2716
-3040
-3319
-3438
-3385
-3256
-3171
-3166
-3167
-3069
-2840
-2525
-2189
-1880
-1649
-1554
-1601
-1672
-1579
-1231
-750
-392
-291
-317
-218
121
550
818
810
620
421
310
280
295
340
404
479
588
787
1120
1534
1894
2094
2123
2044
1887
1656
1432
1405
1747
2403
3095
3608
4057
4799
5981
7245
7980
7907
7360
6914
6789
6674
6160
5256
4394
3985
4037
4238
4332
4327
4341
4379
4317
4093
3833
3684
3617
3444
3043
2540
2178
2033
1943
1723
1393
1136
1073
1150
1266
1423
1691
2075
2468
2766
2960
3078
3079
2870
2459
1998
1656
1445
1247
993
790
813
1080
1423
1640
1673
1617
1589
1650
1812
2062
2352
2603
2777
2941
3183
3463
3626
3591
3468
3454
3580
3683
3639
3548
3602
3772
3757
3283
2418
1506
799
257
-303
-925
-1447
-1693
-1653
-1443
-1162
-844
-527
-295
-213
-242
-251
-133
93
301
391
404
480
706
1003
1204
1247
1260
1393
1620
1763
1729
1637
1676
1844
1939
1821
1592
1472
1535
1642
1639
1513
1344
1156
916
647
451
381
346
226
45
-26
138
461
752
921
1023
1146
1292
1411
1509
1631
1759
1780
1606
1295
993
768
558
292
35
-61
77
367
679
949
1187
1394
1513
1465
1207
753
174
-408
-900
-1280
-1610
-1955
-2333
-2741
-3155
-3467
-3487
-3106
-2480
-1939
-1640
-1320
-568
647
1813
2341
2148
1683
1394
1276
1008
439
-222
-674
-860
-954
-1068
-1108
-938
-593
-261
-97
-86
-117
-129
-152
-245
-432
-677
-929
-1136
-1263
-1301
-1269
-1176
-1034
-883
-791
-815
-950
-1112
-1233
-1331
-1494
-1769
-2086
-2324
-2447
-2549
-2728
-2975
-3179
-3263
-3275
-3308
-3345
-3288
-3125
-3004
-3092
-3360
-3604
-3707
-3780
-3989
-4286
-4411
-4189
-3743
-3322
-2991
-2593
-2011
-1392
-1018
-992
-1126
-1176
-1103
-1069
-1194
-1396
-1478
-1331
-1011
-760
-338
-103
59
147
178
190
192
153
47
-99
-198
-184
-92
-25
-51
-148
-242
-297
-339
-404
-489
-563
-622
-696
-798
-890
-922
-911
-946
-1102
-1355
-1599
-1747
-1806
-1852
-1956
-2110
-2243
-2286
-2233
-2156
-2135
-2186
-2251
-2271
-2247
-2213
-2174
-2080
-1886
-1617
-1360
-1186
-1090
-1019
-939
-861
-825
-857
-932
-971
-893
-678
-396
-158
-18
77
205
370
489
493
424
402
501
667
775
782
799
969
1277
1521
1479
1142
720
351
-115
-949
-2126
-3185
-3610
-3366
-2905
-2632
-2411
-1758
-484
967
1915
2097
1852
1653
1606
1476
1101
643
402
490
779
1116
1477
1870
2200
2331
2245
2091
2044
2143
2287
2382
2423
2418
2308
2009
1540
1065
763
656
602
475
325
316
509
744
779
531
145
-182
-409
-650
-997
-1383
-1656
-1755
-1767
-1806
-1889
-1950
-1950
-1950
-2042
-2239
-2462
-2622
-2703
-2752
-2806
-2846
-2848
-2840
-2876
-2952
-2970
-2817
-2480
-2050
-1638
-1285
-961
-641
-331
-53
169
335
472
635
878
1202
1546
1858
2173
2568
3059
3558
3942
4166
4285
4376
4471
4557
4630
4704
4796
4921
5098
5344
5643
5931
6132
6222
6240
6243
6241
6198
6069
5841
5532
5163
4746
4309
3908
3570
3258
2901
2482
2066
1748
1543
1388
1205
980
760
596
488
389
256
88
-82
-215
-289
-313
-305
-277
-234
-190
-165
-161
-146
-71
83
272
438
553
655
799
1004
1226
1397
1495
1556
1620
1679
1701
1686
1668
1646
1564
1374
1117
894
733
534
215
-179
-550
-905
-1320
-1724
-1825
-1386
-563
204
672
1096
1922
3182
4348
4834
4562
3961
3455
3070
2570
1845
1061
471
178
130
236
438
666
835
894
860
784
707
632
558
504
490
512
553
591
601
569
499
409
315
207
78
-64
-192
-285
-344
-379
-395
-388
-353
-289
-200
-106
-32
21
76
137
141
6
-270
-567
-758
-856
-995
-1246
-1499
-1574
-1434
-1249
-1209
-1331
-1461
-1470
-1388
-1344
-1415
-1556
-1663
-1672
-1593
-1468
-1340
-1237
-1166
-1112
-1054
-970
-868
-773
-689
-587
-431
-232
-55
66
186
389
665
860
829
611
418
418
568
671
596
397
229
202
333
559
749
764
578
354
325
558
850
928
757
568
582
768
881
762
477
203
49
-1
-2
20
67
157
341
658
1046
1325
1316
1030
700
573
663
724
486
-53
-587
-797
-668
-485
-543
-836
-1077
-1013
-661
-276
-66
-50
-117
-162
-162
-146
-177
-344
-676
-1062
-1349
-1501
-1631
-1837
-2025
-2033
-1904
-1877
-2090
-2399
-2614
-2799
-3150
-3554
-3522
-2743
-1578
-791
-697
-777
-319
699
1521
1438
537
-464
-989
-1119
-1341
-1939
-2735
-3335
-3535
-3491
-3502
-3728
-4094
-4417
-4609
-4746
-4931
-5181
-5472
-5813
-6285
-6944
-7762
-8664
-9581
-10447
-11165
-11652
-11901
-11966
-11891
-11676
-11347
-10972
-10602
-10191
-9635
-8910
-8119
-7399
-6797
-6246
-5663
-5045
-4461
-3997
-3694
-3541
-3484
-3444
-3371
-3262
-3129
-2978
-2805
-2617
-2459
-2360
-2274
-2118
-1877
-1654
-1540
-1461
-1218
-716
-125
288
501
818
1539
2654
3894
5075
6289
7683
9203
10627
11823
12792
13447
13515
12812
11575
10379
9589
9025
8292
7357
6644
6555
6978
7393
7420
7119
6748
6387
5879
5096
4164
3343
2776
2395
2069
1770
1577
1549
1623
1669
1614
1501
1426
1431
1431
1329
1154
1058
1160
1380
1509
1437
1296
1331
1622
1968
2100
1982
1813
1792
1931
2079
2133
2159
2285
2525
2737
2776
2652
2532
2588
2810
3027
3064
2909
2747
2786
3028
3258
3246
2978
2704
2659
2816
2922
2776
2438
2123
1951
1842
1679
1482
1349
1259
1024
494
-229
-802
-912
-556
-49
269
369
558
1162
2194
3297
4011
4128
3756
3167
2584
2089
1644
1151
545
-97
-560
-693
-567
-429
-438
-511
-500
-443
-531
-826
-1132
-1206
-1044
-879
-889
-1010
-1064
-1038
-1053
-1167
-1257
-1180
-1003
-951
-1148
-1453
-1561
-1361
-1082
-1028
-1227
-1414
-1375
-1226
-1232
-1396
-1390
-989
-445
-281
-667
-1189
-1346
-1162
-1126
-1540
-2151
-2495
-2456
-2315
-2299
-2287
-2047
-1634
-1359
-1441
-1775
-2105
-2292
-2374
-2454
-2608
-2831
-3049
-3104
-2883
-2470
-2101
-1951
-1965
-1968
-1875
-1722
-1558
-1379
-1194
-1070
-1040
-1013
-853
-561
-283
-103
82
401
781
991
933
786
791
957
1083
1024
877
865
1091
1449
1772
1984
2098
2148
2165
2176
2152
1997
1623
1058
472
37
-244
-503
-833
-1162
-1337
-1306
-1175
-1085
-1082
-1106
-1106
-1078
-1045
-1019
-1004
-1015
-1054
-1078
-1051
-979
-907
-816
-617
-286
47
210
222
321
701
1238
1588
1576
1394
1360
1576
1848
1951
1883
1803
1810
1853
1841
1751
1611
1402
1049
501
-157
-732
-1024
-966
-700
-434
-236
52
654
1556
2442
2932
2914
2616
2365
2277
2189
1885
1346
782
439
371
413
377
236
93
1
-142
-441
-826
-1099
-1173
-1191
-1363
-1706
-2022
-2127
-2052
-1979
-2022
-2147
-2244
-2228
-2064
-1798
-1558
-1460
-1462
-1361
-1029
-611
-383
-401
-414
-176
219
452
413
354
565
988
1278
1227
992
868
917
952
787
429
20
-321
-560
-728
-892
-1127
-1434
-1695
-1772
-1677
-1616
-1782
-2154
-2530
-2753
-2876
-3059
-3380
-3770
-4102
-4310
-4414
-4470
-4530
-4625
-4760
-4888
-4927
-4847
-4720
-4657
-4692
-4750
-4720
-4572
-4349
-4098
-3843
-3627
-3524
-3547
-3590
-3497
-3237
-2961
-2844
-2883
-2883
-2672
-2280
-1891
-1670
-1614
-1595
-1498
-1291
-1031
-792
-615
-473
-295
-23
331
705
1034
1287
1459
1553
1600
1658
1761
1874
1932
1918
1914
2032
2305
2646
2936
3122
3260
3433
3686
3988
4270
4484
4629
4743
4869
5015
5160
5284
5378
5447
5480
5454
5367
5231
5044
4798
4512
4215
3898
3497
2964
2380
1896
1539
1131
498
-217
-595
-384
174
573
618
647
1100
1932
2590
2591
2023
1381
1015
826
527
39
-429
-672
-696
-670
-680
-657
-537
-419
-516
-938
-1526
-1949
-2003
-1786
-1549
-1381
-1080
-393
661
1756
2566
3065
3481
3980
4495
4848
4984
5015
5079
5208
5340
5425
5475
5538
5626
5702
5734
5733
5737
5747
5713
5567
5298
4996
4785
4722
4736
4700
4591
4553
4746
5137
5463
5484
5272
5173
5424
5854
6039
5757
5200
4701
4332
3853
3058
2030
1026
182
-563
-1265
-1832
-2123
-2153
-2095
-2106
-2207
-2323
-2416
-2493
-2543
-2524
-2422
-2273
-2103
-1898
-1613
-1241
-858
-605
-573
-708
-831
-781
-553
-305
-195
-216
-220
-108
25
-1
-229
-474
-496
-242
121
381
491
567
726
948
1099
1059
812
454
119
-99
-194
-226
-247
-265
-229
-87
142
376
531
581
563
539
533
515
455
377
329
318
302
268
277
391
563
641
543
365
285
358
423
293
-24
-348
-544
-662
-836
-1097
-1343
-1485
-1542
-1603
-1749
-2042
-2521
-3108
-3553
-3588
-3212
-2725
-2392
-2099
-1463
-327
945
1766
1885
1552
1149
796
358
-230
-823
-1250
-1496
-1651
-1732
-1647
-1376
-1067
-922
-1012
-1237
-1459
-1614
-1700
-1719
-1687
-1657
-1696
-1806
-1908
-1931
-1920
-2009
-2277
-2636
-2904
-2984
-2962
-3007
-3186
-3397
-3510
-3521
-3568
-3761
-4053
-4295
-4410
-4476
-4603
-4769
-4828
-4717
-4558
-4527
-4640
-4713
-4583
-4291
-4002
-3775
-3484
-2995
-2363
-1785
-1380
-1074
-732
-347
-65
-9
-154
-352
-474
-500
-504
-552
-645
-723
-731
-679
-623
-610
-624
-604
-511
-369
-228
-121
-17
116
265
376
395
313
190
93
47
20
-44
-177
-353
-509
-594
-588
-515
-439
-427
-498
-586
-596
-534
-527
-706
-1034
-1300
-1339
-1218
-1168
-1313
-1526
-1598
-1503
-1429
-1554
-1817
-2003
-1985
-1851
-1778
-1823
-1887
-1862
-1753
-1665
-1681
-1793
-1933
-2065
-2191
-2312
-2386
-2365
-2252
-2106
-1972
-1826
-1619
-1341
-1052
-805
-586
-338
-53
209
373
438
505
663
915
1173
1324
1332
1247
1137
1035
946
827
592
161
-391
-747
-528
350
1514
2463
3069
3682
4665
5872
6709
6732
6045
5105
4223
3382
2502
1665
1029
599
236
-110
-318
-286
-167
-252
-663
-1214
-1613
-1747
-1735
-1714
-1679
-1550
-1342
-1178
-1155
-1242
-1365
-1547
-1892
-2393
-2848
-3043
-2997
-2961
-3135
-3420
-3526
-3311
-2951
-2758
-2841
-3000
-2938
-2543
-1942
-1331
-809
-346
115
582
994
1260
1315
1161
856
481
93
-291
-663
-999
-1276
-1514
-1772
-2077
-2384
-2629
-2812
-2995
-3222
-3456
-3635
-3752
-3850
-3937
-3939
-3782
-3488
-3152
-2842
-2534
-2179
-1779
-1384
-1026
-692
-356
-8
395
932
1653
2510
3389
4219
5037
5915
6838
7689
8349
8807
9154
9487
9830
10148
10417
10654
10921
11254
11630
11975
12219
12353
12399
12375
12278
12122
11934
11732
11498
11211
10885
10554
10221
9850
9421
8976
8564
8160
7656
6995
6270
5652
5208
4805
4265
3578
2941
2543
2347
2104
1608
898
200
-321
-700
-1068
-1467
-1798
-1960
-1967
-1929
-1934
-1970
-1994
-2027
-2142
-2375
-2675
-2958
-3194
-3405
-3595
-3747
-3894
-4131
-4478
-4751
-4636
-3996
-3051
-2179
-1492
-690
563
2168
3580
4300
4326
4074
3900
3828
3701
3476
3285
3256
3396
3648
3976
4352
4664
4775
4644
4364
4061
3792
3535
3265
2992
2719
2426
2088
1720
1367
1064
814
600
415
260
142
54
-13
-73
-140
-229
-350
-497
-658
-816
-950
-1047
-1104
-1129
-1140
-1150
-1155
-1147
-1123
-1091
-1059
-1040
-1039
-1050
-1050
-1029
-1011
-1044
-1166
-1338
-1468
-1483
-1402
-1317
-1295
-1329
-1355
-1339
-1304
-1298
-1358
-1491
-1681
-1894
-2069
-2169
-2217
-2276
-2373
-2447
-2414
-2255
-2053
-1909
-1836
-1770
-1664
-1558
-1506
-1484
-1394
-1181
-927
-781
-783
-818
-768
-653
-602
-665
-721
-623
-385
-186
-172
-309
-452
-520
-563
-665
-835
-1019
-1169
-1272
-1325
-1334
-1307
-1274
-1279
-1352
-1498
-1704
-1928
-2118
-2252
-2357
-2467
-2559
-2554
-2372
-1985
-1451
-925
-599
-597
-825
-1017
-971
-766
-675
-854
-1128
-1184
-935
-603
-458
-525
-635
-678
-729
-905
-1205
-1500
-1686
-1747
-1713
-1636
-1600
-1686
-1891
-2080
-2141
-2178
-2461
-3123
-3892
-4229
-3823
-2900
-2006
-1454
-1046
-354
724
1811
2446
2534
2359
2173
1936
1497
888
319
-84
-413
-767
-1039
-1027
-757
-537
-614
-858
-905
-612
-262
-238
-570
-899
-903
-693
-741
-1363
-2395
-3397
-4125
-4719
-5443
-6329
-7132
-7632
-7833
-7868
-7814
-7652
-7394
-7129
-6900
-6635
-6270
-5905
-5750
-5847
-5977
-5872
-5544
-5294
-5399
-5784
-6104
-6108
-5895
-5769
-5886
-6080
-6071
-5796
-5474
-5346
-5429
-5538
-5524
-5430
-5387
-5416
-5404
-5252
-4992
-4719
-4484
-4263
-4043
-3842
-3636
-3363
-3008
-2660
-2389
-2106
-1643
-953
-231
332
791
1412
2312
3273
3986
4447
4969
5781
6718
7426
7786
8008
8256
8337
7912
6936
5782
4857
4192
3519
2671
1823
1274
1093
1083
1047
977
945
944
887
761
682
759
954
1108
1131
1070
1061
1168
1318
1394
1336
1177
1000
864
794
807
933
1158
1365
1391
1198
946
861
998
1192
1248
1155
1065
1125
1361
1681
1933
1962
1707
1326
1145
1339
1667
1682
1235
698
583
970
1415
1458
1078
596
273
144
178
428
917
1510
2066
2666
3556
4781
5990
6717
6793
6469
6103
5814
5456
4879
4130
3435
3020
2928
2985
2974
2835
2704
2744
2888
2844
2420
1790
1340
1267
1363
1286
955
601
464
518
559
487
404
424
498
456
212
-122
-381
-500
-541
-620
-799
-1043
-1255
-1352
-1335
-1261
-1190
-1165
-1204
-1303
-1414
-1477
-1524
-1691
-2054
-2467
-2642
-2457
-2154
-2111
-2408
-2734
-2749
-2494
-2355
-2591
-3015
-3213
-2993
-2578
-2301
-2221
-2130
-1871
-1566
-1458
-1548
-1553
-1283
-953
-971
-1424
-1893
-1887
-1383
-869
-779
-1026
-1174
-963
-545
-225
-103
-54
49
195
315
392
442
455
392
250
76
-69
-138
-113
-29
39
27
-18
13
172
373
494
515
517
540
507
347
129
25
103
247
300
261
278
431
613
659
572
507
569
681
696
591
504
548
653
650
492
317
315
523
807
1019
1153
1294
1489
1660
1688
1522
1201
799
380
-9
-342
-607
-805
-939
-1009
-1040
-1082
-1170
-1316
-1555
-1961
-2536
-3084
-3268
-2915
-2219
-1545
-1035
-450
502
1741
2805
3306
3290
3112
3025
2981
2815
2518
2252
2156
2226
2350
2436
2478
2510
2551
2568
2489
2285
2067
2031
2262
2602
2760
2617
2340
2185
2191
2155
1887
1459
1117
1010
1057
1083
1020
943
943
1014
1065
1014
856
660
525
507
582
665
691
681
713
814
914
909
759
525
317
185
91
-25
-172
-303
-380
-425
-497
-608
-707
-737
-722
-763
-940
-1211
-1455
-1602
-1713
-1893
-2153
-2377
-2464
-2440
-2430
-2495
-2577
-2591
-2538
-2488
-2458
-2391
-2260
-2124
-2048
-1981
-1808
-1515
-1234
-1101
-1099
-1101
-1044
-1005
-1074
-1221
-1345
-1399
-1418
-1428
-1395
-1285
-1145
-1060
-1055
-1069
-1041
-983
-951
-963
-989
-986
-942
-879
-830
-826
-872
-947
-1021
-1093
-1195
-1336
-1460
-1489
-1403
-1273
-1178
-1109
-991
-780
-527
-337
-251
-208
-125
21
184
316
424
541
670
775
821
814
770
689
545
359
218
179
197
174
72
-51
-130
-217
-415
-734
-1089
-1466
-1963
-2583
-3056
-3004
-2345
-1436
-704
-162
588
1820
3273
4353
4701
4478
4101
3808
3555
3248
2936
2751
2749
2878
3064
3276
3496
3653
3681
3571
3366
3112
2855
2644
2541
2554
2594
2545
2380
2177
2016
1896
1778
1668
1637
1725
1873
1965
1963
1913
1841
1687
1377
921
441
60
-135
-77
259
768
1226
1460
1527
1674
2049
2491
2686
2534
2264
2168
2264
2285
1995
1443
881
510
348
330
429
648
948
1264
1599
2062
2757
3630
4487
5175
5705
6229
6858
7550
8159
8566
8755
8783
8693
8474
8122
7709
7352
7105
6909
6677
6416
6224
6140
6018
5651
5004
4296
3778
3451
3083
2509
1832
1277
885
469
-127
-816
-1357
-1618
-1648
-1529
-1244
-772
-228
208
500
801
1260
1803
2176
2229
2087
2025
2193
2482
2651
2578
2348
2135
2000
1850
1576
1211
907
784
806
852
852
825
804
756
608
324
-75
-552
-1065
-1549
-1923
-2153
-2282
-2371
-2441
-2482
-2511
-2591
-2776
-3055
-3370
-3700
-4070
-4499
-4943
-5326
-5633
-5951
-6368
-6802
-6979
-6654
-5867
-4946
-4191
-3550
-2705
-1490
-187
691
877
570
168
-125
-392
-774
-1251
-1691
-2005
-2185
-2239
-2159
-2006
-1930
-2039
-2283
-2490
-2548
-2497
-2463
-2510
-2592
-2642
-2656
-2687
-2781
-2933
-3104
-3258
-3384
-3476
-3501
-3444
-3347
-3270
-3222
-3141
-2981
-2791
-2694
-2741
-2860
-2928
-2918
-2877
-2812
-2657
-2378
-2061
-1844
-1765
-1744
-1703
-1668
-1719
-1875
-2094
-2332
-2577
-2797
-2943
-3011
-3080
-3239
-3479
-3710
-3873
-3999
-4146
-4316
-4465
-4568
-4634
-4661
-4628
-4554
-4524
-4618
-4818
-5017
-5112
-5100
-5050
-5013
-4964
-4843
-4630
-4367
-4102
-3826
-3494
-3089
-2664
-2288
-1974
-1684
-1397
-1156
-1011
-955
-930
-886
-826
-759
-674
-551
-400
-255
-129
-5
130
245
301
311
308
300
263
198
167
240
410
590
699
726
705
644
529
378
256
217
240
263
258
259
304
369
408
412
426
472
518
526
540
664
944
1295
1587
1793
2007
2289
2560
2708
2728
2734
2793
2836
2748
2548
2375
2326
2345
2283
2021
1543
957
502
452
927
1729
2503
3112
3794
4853
6198
7302
7671
7297
6584
5877
5196
4399
3506
2731
2248
2033
1964
2004
2183
2431
2568
2440
2086
1681
1359
1110
856
582
319
44
-302
-723
-1126
-1419
-1616
-1808
-2048
-2328
-2684
-3235
-4046
-4985
-5823
-6481
-7089
-7767
-8392
-8674
-8484
-8019
-7605
-7375
-7226
-7014
-6743
-6507
-6332
-6141
-5857
-5484
-5063
-4593
-4059
-3476
-2912
-2431
-2036
-1686
-1335
-955
-530
-58
441
928
1339
1608
1706
1665
1572
1491
1410
1260
1001
685
400
179
-17
-233
-462
-656
-787
-872
-931
-971
-997
-1034
-1110
-1224
-1344
-1435
-1491
-1524
-1520
-1444
-1257
-958
-573
-132
362
922
1544
2196
2828
3432
4070
4834
5772
6821
7854
8784
9633
10483
11377
12256
13006
13564
13942
14179
14286
14244
14060
13773
13399
12900
12236
11431
10583
9793
9085
8399
7666
6876
6098
5428
4895
4412
3833
3082
2224
1401
685
31
-630
-1278
-1811
-2183
-2485
-2821
-3171
-3397
-3399
-3234
-3063
-2973
-2911
-2792
-2615
-2473
-2482
-2697
-3065
-3410
-3495
-3176
-2550
-1880
-1309
-679
296
1634
2944
3751
3949
3853
3825
3898
3844
3536
3133
2912
2992
3270
3594
3919
4268
4624
4911
5058
5055
4967
4867
4786
4690
4512
4217
3866
3576
3405
3291
3128
2893
2678
2585
2604
2628
2568
2431
2282
2157
2032
1886
1742
1636
1560
1455
1271
1034
822
681
560
368
73
-264
-547
-739
-881
-1035
-1214
-1382
-1498
-1545
-1539
-1511
-1495
-1505
-1512
-1475
-1396
-1334
-1357
-1463
-1591
-1689
-1773
-1899
-2074
-2239
-2327
-2336
-2316
-2292
-2245
-2148
-2027
-1937
-1909
-1931
-1984
-2058
-2132
-2151
-2077
-1930
-1775
-1630
-1450
-1197
-931
-770
-764
-840
-902
-929
-974
-1054
-1118
-1122
-1087
-1042
-973
-863
-756
-748
-854
-960
-957
-880
-874
-1013
-1201
-1293
-1256
-1177
-1156
-1216
-1311
-1374
-1370
-1321
-1319
-1456
-1704
-1911
-1943
-1861
-1835
-1918
-1967
-1819
-1550
-1403
-1515
-1757
-1884
-1828
-1754
-1854
-2151
-2508
-2776
-2891
-2862
-2744
-2644
-2686
-2891
-3095
-3079
-2786
-2439
-2342
-2584
-2988
-3332
-3571
-3794
-3969
-3912
-3530
-2995
-2553
-2165
-1498
-349
1008
1993
2285
2080
1804
1680
1605
1392
1001
526
98
-153
-138
105
339
313
16
-290
-338
-166
-72
-272
-652
-915
-948
-957
-1218
-1741
-2246
-2507
-2621
-2860
-3288
-3643
-3646
-3373
-3195
-3333
-3562
-3469
-2943
-2308
-1947
-1880
-1793
-1425
-829
-254
139
383
573
741
860
924
961
978
958
893
800
695
570
400
166
-141
-508
-896
-1257
-1566
-1851
-2165
-2515
-2864
-3170
-3432
-3677
-3918
-4142
-4352
-4581
-4859
-5171
-5467
-5720
-5939
-6140
-6317
-6458
-6569
-6656
-6698
-6651
-6525
-6396
-6346
-6360
-6327
-6157
-5881
-5609
-5378
-5110
-4716
-4211
-3675
-3138
-2538
-1829
-1072
-370
241
832
1495
2248
3033
3757
4361
4862
5391
6100
6949
7610
7671
7036
6079
5317
4922
4611
4029
3171
2368
1947
1965
2244
2552
2710
2633
2370
2115
2058
2195
2294
2151
1813
1558
1609
1909
2181
2209
2020
1817
1747
1752
1653
1395
1142
1083
1207
1301
1183
912
686
589
516
327
-12
-449
-919
-1336
-1527
-1358
-915
-455
-115
294
1058
2126
3027
3308
2989
2502
2226
2150
2018
1696
1309
1067
1056
1195
1345
1427
1433
1415
1439
1512
1544
1450
1272
1179
1313
1617
1866
1906
1795
1698
1680
1631
1430
1113
816
629
523
436
378
394
455
462
392
337
375
436
348
60
-269
-439
-436
-443
-621
-902
-1066
-1000
-824
-766
-918
-1172
-1354
-1398
-1386
-1423
-1529
-1632
-1662
-1633
-1633
-1719
-1828
-1812
-1597
-1291
-1080
-1032
-1026
-924
-772
-772
-1025
-1387
-1629
-1683
-1677
-1738
-1833
-1832
-1671
-1408
-1132
-911
-801
-844
-1012
-1187
-1269
-1286
-1331
-1390
-1325
-1053
-702
-500
-519
-590
-524
-347
-266
-407
-657
-784
-684
-459
-287
-250
-300
-346
-338
-295
-262
-281
-358
-446
-477
-419
-298
-186
-128
-105
-70
-14
26
16
-33
-73
-78
-70
-86
-137
-197
-246
-299
-367
-418
-393
-283
-170
-135
-163
-171
-123
-107
-218
-409
-538
-541
-511
-542
-573
-457
-213
-61
-182
-521
-902
-1279
-1725
-2168
-2301
-1876
-1032
-173
515
1265
2371
3696
4702
4975
4614
4052
3599
3230
2787
2257
1771
1451
1327
1357
1491
1662
1776
1768
1646
1476
1306
1154
1041
993
994
953
790
535
338
305
381
397
272
108
52
106
117
-34
-283
-464
-507
-503
-575
-738
-912
-1038
-1124
-1200
-1275
-1344
-1403
-1445
-1452
-1432
-1434
-1495
-1585
-1642
-1659
-1718
-1865
-2032
-2090
-2000
-1844
-1722
-1646
-1564
-1460
-1377
-1350
-1345
-1308
-1237
-1175
-1160
-1170
-1132
-990
-751
-504
-344
-293
-270
-193
-74
-13
-62
-150
-163
-94
-51
-92
-123
-5
249
466
495
389
315
365
457
453
316
116
-59
-167
-211
-217
-240
-337
-528
-753
-953
-1136
-1374
-1714
-2088
-2382
-2553
-2689
-2926
-3287
-3650
-3877
-3950
-3975
-4057
-4203
-4361
-4507
-4657
-4811
-4947
-5063
-5222
-5474
-5760
-5929
-5872
-5642
-5386
-5201
-5061
-4870
-4578
-4228
-3896
-3602
-3304
-2960
-2607
-2364
-2305
-2339
-2288
-2108
-1982
-2132
-2553
-2968
-3115
-3017
-2917
-2999
-3274
-3682
-4179
-4632
-4751
-4310
-3439
-2555
-1907
-1269
-217
1291
2732
3497
3452
2982
2521
2166
1764
1256
798
592
686
984
1385
1840
2297
2662
2861
2895
2809
2671
2547
2511
2605
2770
2878
2850
2751
2716
2801
2909
2908
2775
2625
2587
2658
2714
2643
2478
2357
2360
2433
2438
2308
2086
1863
1681
1535
1437
1430
1512
1610
1631
1567
1508
1534
1608
1599
1389
1005
619
405
369
354
184
-156
-519
-750
-858
-988
-1279
-1738
-2233
-2577
-2627
-2340
-1803
-1162
-514
138
788
1317
1545
1412
1077
755
507
255
-18
-147
69
662
1457
2241
2920
3518
4086
4624
5091
5433
5623
5710
5811
6031
6363
6707
6994
7260
7569
7901
8173
8374
8595
8908
9245
9466
9540
9585
9696
9774
9633
9244
8800
8507
8361
8180
7845
7443
7138
6958
6774
6475
6091
5726
5416
5092
4702
4300
3992
3835
3782
3765
3774
3846
3995
4180
4346
4482
4605
4693
4662
4446
4071
3673
3350
3047
2604
1967
1256
649
159
-365
-1020
-1740
-2428
-3139
-4007
-4959
-5652
-5806
-5549
-5309
-5284
-5175
-4521
-3299
-2052
-1376
-1373
-1669
-1896
-2050
-2369
-2980
-3754
-4461
-4979
-5313
-5513
-5589
-5562
-5491
-5432
-5390
-5326
-5190
-4974
-4711
-4435
-4174
-3936
-3705
-3463
-3192
-2904
-2613
-2311
-1977
-1603
-1222
-867
-549
-263
-32
114
189
262
379
492
509
395
215
35
-176
-513
-1013
-1614
-2226
-2821
-3420
-4024
-4593
-5107
-5593
-6084
-6571
-7026
-7450
-7862
-8256
-8574
-8767
-8845
-8853
-8811
-8702
-8518
-8309
-8133
-7999
-7871
-7711
-7505
-7249
-6934
-6559
-6135
-5663
-5146
-4621
-4159
-3814
-3561
-3347
-3192
-3223
-3528
-4025
-4500
-4809
-4986
-5121
-5184
-5052
-4677
-4160
-3634
-3127
-2594
-2053
-1611
-1332
-1143
-915
-615
-319
-77
183
570
1083
1599
2006
2318
2634
3002
3350
3568
3637
3652
3719
3848
3939
3895
3719
3486
3255
3019
2757
2482
2247
2080
1950
1798
1595
1360
1134
948
809
696
553
337
70
-162
-272
-245
-138
-10
119
270
472
711
942
1117
1216
1244
1238
1214
1174
1118
1015
775
318
-271
-690
-633
-113
491
810
925
1278
2126
3140
3665
3376
2555
1726
1108
522
-240
-1109
-1835
-2253
-2366
-2234
-1879
-1362
-841
-456
-208
27
347
743
1119
1428
1703
1985
2272
2510
2644
2669
2641
2645
2715
2815
2895
2956
3046
3217
3459
3700
3860
3892
3793
3601
3372
3128
2828
2417
1925
1495
1261
1187
1097
857
516
240
101
-8
-220
-530
-802
-945
-1004
-1072
-1158
-1187
-1120
-1033
-1044
-1187
-1374
-1488
-1480
-1372
-1223
-1079
-949
-800
-586
-301
-38
46
-146
-540
-936
-1171
-1249
-1296
-1408
-1552
-1601
-1461
-1175
-871
-653
-530
-446
-354
-259
-184
-120
-34
97
250
386
504
632
797
991
1173
1308
1396
1483
1630
1837
2031
2114
2067
1980
1962
1999
1960
1754
1457
1245
1198
1220
1165
993
791
628
480
279
-4
-351
-752
-1201
-1648
-1982
-2125
-2096
-1991
-1882
-1761
-1583
-1334
-1050
-793
-600
-478
-401
-300
-90
255
698
1153
1555
1919
2307
2747
3200
3582
3847
4022
4143
4177
4052
3786
3565
3607
3940
4338
4550
4584
4696
5089
5647
6002
5881
5338
4653
4049
3533
2997
2420
1918
1629
1595
1760
2056
2472
2971
3445
3756
3840
3765
3662
3592
3530
3459
3427
3502
3678
3875
4040
4217
4482
4812
5076
5144
5018
4822
4675
4584
4459
4244
3987
3799
3716
3660
3533
3341
3194
3156
3157
3069
2855
2610
2433
2308
2127
1835
1487
1172
925
721
544
412
336
285
209
107
17
-39
-72
-104
-131
-135
-114
-80
-42
25
158
367
623
883
1122
1376
1709
2138
2589
2925
3048
2995
2887
2813
2741
2560
2211
1765
1371
1126
1018
964
892
790
693
637
631
656
682
682
638
549
432
316
233
182
117
-19
-233
-465
-640
-737
-811
-920
-1066
-1202
-1302
-1387
-1513
-1690
-1864
-1968
-1989
-1990
-2060
-2225
-2424
-2559
-2580
-2515
-2446
-2432
-2458
-2468
-2413
-2283
-2100
-1883
-1666
-1502
-1444
-1494
-1580
-1615
-1583
-1555
-1620
-1791
-1979
-2060
-1964
-1730
-1500
-1412
-1502
-1682
-1808
-1833
-1876
-2123
-2623
-3177
-3480
-3369
-2971
-2557
-2270
-1981
-1470
-709
35
414
315
-57
-414
-631
-792
-983
-1161
-1219
-1138
-1021
-963
-932
-846
-724
-715
-941
-1337
-1661
-1692
-1406
-964
-579
-349
-230
-136
-49
-38
-153
-354
-511
-520
-379
-154
128
511
1020
1545
1880
1916
1759
1624
1596
1545
1317
956
697
713
905
1019
919
727
635
652
591
288
-201
-674
-1016
-1307
-1721
-2321
-2956
-3425
-3679
-3860
-4136
-4543
-4983
-5368
-5710
-6061
-6402
-6671
-6867
-7056
-7259
-7366
-7267
-7014
-6801
-6723
-6627
-6265
-5591
-4839
-4307
-4082
-4014
-3910
-3713
-3525
-3466
-3576
-3779
-3922
-3902
-3727
-3506
-3358
-3306
-3298
-3314
-3407
-3640
-4037
-4588
-5288
-6067
-6736
-7057
-6939
-6555
-6213
-6080
-6066
-5978
-5747
-5478
-5307
-5269
-5282
-5223
-5019
-4702
-4385
-4163
-4005
-3766
-3365
-2930
-2681
-2664
-2672
-2497
-2205
-2085
-2276
-2549
-2527
-2128
-1672
-1525
-1721
-1958
-1957
-1729
-1471
-1310
-1223
-1166
-1148
-1178
-1206
-1177
-1168
-1350
-1788
-2339
-2788
-3057
-3305
-3768
-4508
-5288
-5709
-5497
-4687
-3551
-2321
-973
658
2547
4304
5436
5766
5575
5285
5053
4712
4082
3254
2556
2291
2520
3045
3545
3779
3700
3459
3264
3181
3089
2829
2372
1861
1487
1330
1337
1388
1378
1238
968
649
408
340
442
598
682
655
583
535
492
376
143
-161
-433
-601
-685
-758
-862
-962
-992
-949
-921
-991
-1134
-1239
-1257
-1262
-1341
-1452
-1460
-1321
-1159
-1086
-1029
-796
-348
88
251
164
121
357
798
1159
1272
1261
1384
1753
2225
2539
2577
2429
2280
2222
2184
2045
1806
1600
1552
1620
1658
1602
1542
1594
1741
1818
1708
1467
1258
1157
1089
957
795
724
782
845
747
479
205
86
100
68
-155
-509
-771
-782
-597
-448
-508
-714
-829
-676
-329
-45
-1
-132
-230
-167
-26
46
0
-100
-166
-168
-112
17
227
470
666
789
887
1029
1211
1359
1407
1359
1292
1304
1445
1677
1907
2047
2100
2140
2204
2245
2167
1954
1697
1504
1370
1196
910
577
350
301
285
23
-602
-1320
-1624
-1226
-393
293
557
749
1427
2658
3852
4365
4130
3617
3234
2943
2503
1905
1400
1150
1053
941
817
815
940
1016
894
626
370
202
60
-123
-310
-418
-430
-411
-437
-523
-637
-733
-785
-790
-765
-742
-767
-895
-1123
-1360
-1487
-1461
-1399
-1474
-1728
-1995
-2075
-1945
-1784
-1766
-1868
-1923
-1829
-1655
-1524
-1447
-1329
-1111
-853
-651
-512
-357
-138
99
275
381
485
652
875
1108
1339
1591
1864
2100
2245
2314
2373
2445
2457
2332
2087
1844
1685
1557
1341
1021
731
595
574
502
280
-19
-242
-337
-393
-533
-787
-1094
-1386
-1632
-1831
-1987
-2127
-2300
-2518
-2717
-2812
-2787
-2724
-2729
-2830
-2974
-3102
-3210
-3326
-3457
-3567
-3617
-3594
-3508
-3365
-3165
-2922
-2653
-2350
-2006
-1655
-1361
-1143
-931
-628
-219
209
574
887
1221
1591
1948
2256
2539
2813
3014
3057
2982
2946
3061
3241
3279
3070
2732
2476
2380
2317
2097
1681
1224
905
760
672
510
249
-51
-354
-654
-959
-1294
-1739
-2384
-3150
-3715
-3748
-3254
-2605
-2130
-1736
-1031
161
1498
2395
2574
2250
1829
1514
1237
855
335
-234
-711
-959
-908
-623
-310
-173
-239
-356
-375
-306
-282
-390
-549
-610
-519
-374
-307
-341
-365
-267
-53
156
257
257
252
316
422
495
505
492
519
608
741
903
1109
1348
1565
1697
1745
1773
1820
1845
1789
1681
1638
1740
1927
2057
2068
2043
2094
2218
2292
2208
1984
1727
1527
1375
1210
1000
762
540
355
192
16
-189
-402
-587
-724
-839
-976
-1133
-1267
-1360
-1446
-1572
-1713
-1790
-1774
-1751
-1830
-1995
-2100
-2019
-1795
-1600
-1548
-1596
-1614
-1550
-1480
-1535
-1765
-2105
-2425
-2639
-2799
-3036
-3397
-3773
-3975
-3934
-3792
-3737
-3770
-3705
-3402
-2957
-2618
-2512
-2513
-2419
-2182
-1942
-1799
-1658
-1325
-714
63
829
1518
2202
2982
3872
4773
5571
6220
6784
7393
8135
8954
9651
10036
10115
10065
10016
9902
9550
8932
8277
7856
7722
7692
7589
7459
7481
7697
7942
8021
7921
7787
7704
7587
7322
6919
6464
5940
5230
4344
3555
3210
3358
3683
3878
4040
4556
5594
6784
7511
7478
6936
6355
5969
5658
5225
4679
4224
4058
4225
4641
5189
5756
6265
6698
7101
7542
8054
8633
9254
9915
10625
11372
12119
12824
13445
13946
14295
14467
14439
14201
13770
13204
12587
11966
11308
10544
9652
8697
7783
6931
6060
5089
4031
2979
2003
1084
164
-754
-1601
-2347
-3053
-3805
-4615
-5394
-6067
-6661
-7264
-7908
-8518
-8981
-9260
-9403
-9482
-9538
-9576
-9587
-9544
-9410
-9164
-8851
-8558
-8328
-8109
-7798
-7360
-6879
-6461
-6116
-5760
-5328
-4844
-4381
-3962
-3531
-3044
-2544
-2114
-1785
-1510
-1226
-933
-677
-483
-342
-243
-204
-228
-273
-285
-265
-280
-390
-583
-798
-1000
-1223
-1516
-1900
-2361
-2875
-3409
-3900
-4286
-4579
-4849
-5133
-5360
-5445
-5425
-5467
-5699
-6051
-6330
-6428
-6419
-6414
-6385
-6198
-5797
-5300
-4890
-4641
-4513
-4479
-4594
-4915
-5394
-5883
-6264
-6535
-6750
-6902
-6890
-6624
-6150
-5645
-5268
-5010
-4724
-4312
-3854
-3525
-3416
-3439
-3430
-3316
-3162
-3063
-3060
-3117
-3164
-3151
-3093
-3068
-3099
-3056
-2714
-1987
-1084
-323
239
894
1934
3229
4258
4609
4373
3982
3730
3549
3216
2680
2092
1616
1312
1188
1275
1550
1846
1949
1807
1579
1466
1498
1518
1376
1086
777
524
282
-26
-395
-760
-1080
-1390
-1716
-2009
-2185
-2240
-2269
-2360
-2509
-2645
-2729
-2775
-2797
-2778
-2709
-2628
-2564
-2494
-2371
-2197
-2046
-1967
-1916
-1818
-1667
-1531
-1434
-1308
-1076
-753
-433
-177
44
278
507
667
731
736
714
665
580
493
446
435
395
297
189
154
208
282
317
320
336
376
408
424
439
443
375
208
25
-34
55
148
92
-82
-198
-162
-83
-131
-313
-472
-512
-532
-689
-954
-1132
-1095
-958
-954
-1176
-1506
-1770
-1917
-2016
-2144
-2309
-2478
-2626
-2734
-2784
-2783
-2774
-2803
-2869
-2923
-2932
-2902
-2853
-2765
-2583
-2274
-1868
-1429
-987
-517
14
586
1125
1582
1980
2382
2800
3174
3458
3704
4022
4441
4851
5106
5176
5159
5143
5070
4810
4322
3706
3087
2496
1880
1219
572
-2
-518
-1052
-1675
-2438
-3344
-4301
-5086
-5458
-5388
-5107
-4863
-4628
-4116
-3152
-1950
-956
-425
-212
2
367
795
1164
1489
1883
2408
3045
3759
4527
5301
5976
6468
6779
6975
7121
7246
7364
7495
7644
7777
7851
7870
7874
7885
7863
7725
7437
7052
6674
6367
6100
5799
5446
5108
4867
4717
4562
4308
3954
3564
3189
2818
2412
1978
1569
1209
867
496
93
-291
-629
-955
-1317
-1699
-2016
-2198
-2262
-2285
-2308
-2299
-2211
-2064
-1939
-1908
-1967
-2050
-2098
-2098
-2084
-2097
-2140
-2175
-2145
-2007
-1767
-1477
-1191
-922
-635
-274
186
714
1256
1777
2273
2771
3293
3842
4399
4916
5346
5670
5912
6123
6324
6503
6648
6777
6895
6936
6775
6354
5777
5229
4780
4319
3693
2917
2196
1744
1588
1579
1559
1478
1381
1312
1266
1220
1154
1079
1005
939
885
853
857
902
961
970
880
706
527
411
350
286
197
132
143
207
243
203
135
123
182
241
228
154
79
35
-16
-127
-292
-462
-607
-743
-908
-1097
-1281
-1442
-1575
-1687
-1816
-2073
-2567
-3227
-3728
-3725
-3210
-2564
-2167
-1962
-1505
-499
782
1709
1913
1599
1247
1067
871
422
-233
-833
-1211
-1421
-1584
-1691
-1668
-1537
-1428
-1451
-1580
-1712
-1805
-1907
-2060
-2252
-2445
-2630
-2823
-3020
-3179
-3245
-3193
-3059
-2930
-2892
-2949
-2998
-2912
-2696
-2534
-2604
-2871
-3102
-3136
-3065
-3113
-3346
-3610
-3741
-3789
-3923
-4164
-4314
-4193
-3894
-3674
-3646
-3650
-3433
-2942
-2398
-2062
-1977
-1958
-1777
-1393
-987
-774
-780
-817
-690
-409
-185
-175
-293
-308
-120
128
219
96
-136
-362
-568
-799
-1055
-1304
-1539
-1759
-1943
-2045
-2055
-2032
-2050
-2129
-2237
-2335
-2407
-2415
-2327
-2201
-2157
-2250
-2348
-2228
-1836
-1419
-1306
-1559
-1897
-1960
-1669
-1257
-996
-938
-944
-889
-785
-700
-670
-693
-770
-905
-1052
-1096
-975
-746
-561
-531
-640
-810
-997
-1224
-1507
-1801
-2030
-2176
-2289
-2415
-2521
-2548
-2520
-2574
-2825
-3246
-3693
-4059
-4397
-4853
-5498
-6233
-6877
-7336
-7701
-8169
-8839
-9591
-10165
-10411
-10443
-10513
-10733
-10958
-10972
-10762
-10535
-10447
-10399
-10206
-9884
-9668
-9661
-9606
-9116
-8139
-7067
-6286
-5724
-4947
-3700
-2264
-1170
-645
-443
-186
204
531
690
826
1140
1642
2218
2868
3734
4852
6012
6973
7748
8519
9283
9715
9482
8649
7619
6708
5891
4971
3922
2948
2271
1960
1963
2192
2486
2623
2480
2179
1973
1968
1993
1826
1462
1117
965
969
997
997
1002
1010
938
729
453
283
330
522
665
609
382
167
116
183
171
-73
-479
-817
-909
-782
-639
-671
-899
-1158
-1239
-1053
-710
-422
-323
-342
-292
-90
145
228
119
-20
-9
163
369
514
621
764
958
1142
1281
1395
1502
1569
1556
1480
1430
1475
1593
1700
1746
1776
1849
1949
1982
1899
1779
1741
1771
1722
1495
1204
1079
1189
1359
1364
1205
1088
1147
1269
1260
1088
901
806
720
508
219
61
147
341
404
251
45
-19
69
136
55
-100
-154
-19
200
345
396
473
662
867
891
663
345
145
85
-8
-281
-653
-910
-937
-809
-657
-548
-509
-614
-887
-1165
-1221
-1116
-1283
-2066
-3177
-3788
-3353
-2226
-1300
-1014
-874
-67
1566
3286
4224
4180
3644
3167
2866
2529
2013
1409
876
482
237
181
346
617
752
604
276
32
6
59
-58
-406
-779
-924
-812
-659
-703
-970
-1286
-1463
-1463
-1402
-1414
-1528
-1666
-1732
-1698
-1621
-1570
-1569
-1595
-1622
-1630
-1603
-1527
-1407
-1275
-1154
-1022
-832
-558
-210
174
540
813
957
1032
1161
1397
1628
1689
1563
1434
1481
1667
1785
1691
1452
1243
1144
1080
958
792
670
642
663
650
575
483
439
461
508
521
482
423
384
375
369
351
323
282
203
65
-103
-245
-335
-411
-524
-663
-774
-825
-860
-957
-1134
-1322
-1444
-1496
-1546
-1647
-1773
-1852
-1852
-1814
-1799
-1826
-1857
-1855
-1812
-1733
-1621
-1483
-1347
-1240
-1147
-1024
-871
-751
-724
-765
-778
-706
-582
-494
-475
-475
-430
-332
-218
-117
-36
30
79
118
183
302
464
614
711
764
823
913
990
981
873
731
640
630
655
656
628
586
536
449
280
-28
-492
-1014
-1369
-1339
-917
-333
194
724
1510
2642
3821
4581
4713
4414
4023
3681
3309
2805
2198
1596
1093
759
637
693
774
690
405
56
-212
-386
-573
-862
-1211
-1508
-1696
-1804
-1902
-2040
-2215
-2377
-2460
-2424
-2289
-2117
-1969
-1853
-1727
-1554
-1332
-1101
-898
-726
-567
-408
-259
-128
16
212
463
726
957
1161
1392
1687
2036
2400
2725
2953
3047
3043
3058
3211
3488
3722
3750
3572
3354
3263
3306
3363
3312
3142
2936
2786
2740
2778
2835
2839
2759
2622
2481
2368
2296
2252
2223
2200
2179
2189
2262
2387
2492
2503
2426
2343
2309
2285
2198
2057
1976
2044
2225
2385
2438
2427
2459
2584
2758
2905
2992
3051
3142
3314
3582
3892
4142
4253
4239
4171
4099
3994
3833
3674
3611
3660
3730
3740
3704
3682
3642
3448
3008
2410
1836
1354
882
349
-157
-481
-606
-690
-871
-1100
-1228
-1208
-1150
-1133
-1084
-879
-544
-270
-186
-208
-161
-9
118
126
112
279
738
1446
2306
3280
4356
5499
6632
7681
8571
9209
9558
9746
10028
10531
11096
11409
11358
11186
11257
11643
12027
12027
11584
11003
10600
10395
10154
9678
8983
8199
7378
6461
5428
4395
3509
2790
2109
1361
617
61
-219
-331
-462
-678
-925
-1175
-1500
-1963
-2492
-2901
-3071
-3052
-2971
-2860
-2622
-2192
-1626
-1047
-523
-31
488
1063
1694
2368
3055
3727
4398
5134
5959
6763
7339
7546
7424
7120
6739
6258
5610
4779
3846
2945
2203
1693
1389
1152
823
352
-171
-599
-882
-1089
-1319
-1609
-1918
-2207
-2481
-2749
-2989
-3208
-3495
-3971
-4688
-5573
-6502
-7402
-8261
-9045
-9679
-10125
-10451
-10761
-11054
-11230
-11237
-11169
-11216
-11452
-11755
-11937
-11916
-11768
-11588
-11394
-11146
-10817
-10435
-10029
-9615
-9201
-8812
-8479
-8205
-7966
-7726
-7449
-7110
-6698
-6228
-5732
-5229
-4690
-4068
-3344
-2548
-1738
-945
-168
598
1320
1954
2488
2937
3333
3682
3973
4209
4409
4584
4700
4729
4688
4635
4607
4565
4454
4289
4175
4202
4334
4431
4395
4253
4099
3962
3778
3471
3035
2532
2031
1566
1139
734
343
-4
-272
-489
-774
-1201
-1623
-1728
-1349
-688
-127
196
562
1322
2422
3378
3738
3500
3038
2666
2379
2010
1509
1017
694
566
562
630
762
920
1015
971
808
622
491
401
294
164
78
100
203
279
260
189
169
232
307
304
233
194
251
363
436
442
432
456
497
495
437
370
329
291
212
101
13
-39
-104
-217
-328
-361
-326
-329
-455
-666
-847
-950
-1051
-1248
-1540
-1828
-2023
-2124
-2195
-2284
-2387
-2465
-2490
-2460
-2398
-2346
-2343
-2387
-2430
-2414
-2327
-2210
-2110
-2026
-1904
-1696
-1428
-1189
-1058
-1030
-1031
-981
-863
-740
-687
-718
-771
-772
-710
-653
-664
-724
-765
-765
-784
-881
-1017
-1092
-1085
-1103
-1253
-1492
-1654
-1643
-1545
-1523
-1631
-1759
-1779
-1675
-1534
-1447
-1433
-1452
-1457
-1414
-1318
-1214
-1174
-1195
-1171
-1002
-731
-536
-531
-589
-450
-17
515
864
974
1034
1189
1331
1228
844
412
163
60
-114
-432
-706
-717
-511
-364
-464
-731
-945
-1017
-1055
-1180
-1385
-1575
-1692
-1749
-1802
-1926
-2170
-2477
-2642
-2436
-1849
-1141
-565
-51
724
1916
3218
4101
4305
4052
3746
3558
3368
3033
2600
2225
1980
1809
1650
1528
1492
1494
1399
1105
661
251
33
4
9
-107
-357
-615
-771
-856
-982
-1204
-1464
-1690
-1885
-2093
-2306
-2443
-2458
-2418
-2438
-2548
-2650
-2617
-2416
-2117
-1795
-1453
-1047
-555
-15
525
1053
1587
2104
2523
2780
2911
3036
3214
3349
3277
2964
2580
2343
2307
2355
2383
2442
2656
3033
3441
3756
3985
4191
4352
4365
4183
3899
3650
3494
3395
3332
3342
3467
3678
3898
4079
4239
4401
4553
4650
4677
4671
4695
4789
4944
5103
5209
5253
5275
5327
5421
5531
5620
5684
5745
5817
5885
5923
5910
5854
5773
5677
5563
5429
5279
5131
4997
4884
4796
4731
4670
4577
4424
4223
4018
3841
3681
3516
3350
3213
3120
3051
2982
2922
2893
2895
2903
2896
2887
2899
2929
2950
2954
2967
3010
3064
3079
3033
2956
2902
2898
2914
2879
2747
2552
2374
2257
2170
2045
1844
1596
1330
1062
815
602
363
-28
-597
-1101
-1173
-688
35
540
754
1075
1875
2974
3750
3765
3176
2490
2017
1655
1180
580
56
-232
-294
-219
-52
171
349
370
225
20
-144
-267
-414
-591
-731
-777
-746
-703
-676
-653
-650
-723
-894
-1093
-1233
-1326
-1476
-1713
-1894
-1837
-1548
-1230
-1058
-993
-879
-699
-633
-826
-1171
-1437
-1547
-1664
-1944
-2316
-2549
-2543
-2441
-2429
-2528
-2614
-2616
-2610
-2685
-2834
-2971
-3052
-3116
-3203
-3300
-3377
-3430
-3453
-3408
-3256
-3050
-2933
-2982
-3106
-3114
-2919
-2631
-2419
-2305
-2170
-1915
-1589
-1281
-1001
-699
-401
-243
-307
-456
-453
-239
-22
-24
-230
-419
-438
-365
-362
-480
-665
-903
-1261
-1718
-2089
-2199
-2128
-2177
-2530
-3019
-3306
-3252
-3071
-3113
-3509
-4085
-4568
-4841
-4997
-5210
-5580
-6026
-6345
-6381
-6158
-5859
-5655
-5541
-5367
-5025
-4558
-4073
-3608
-3140
-2661
-2217
-1849
-1551
-1313
-1161
-1109
-1119
-1139
-1206
-1403
-1715
-2005
-2160
-2241
-2414
-2730
-3047
-3202
-3202
-3183
-3218
-3269
-3299
-3371
-3590
-3949
-4324
-4655
-5072
-5751
-6625
-7311
-7377
-6763
-5865
-5161
-4724
-4153
-3070
-1633
-473
-92
-376
-748
-791
-610
-602
-953
-1434
-1683
-1576
-1266
-966
-746
-578
-437
-344
-312
-284
-170
58
348
604
765
859
949
1068
1188
1247
1208
1115
1103
1313
1777
2391
3024
3690
4538
5617
6672
7224
6993
6173
5242
4463
3639
2416
785
-811
-1869
-2266
-2267
-2196
-2173
-2155
-2104
-2012
-1825
-1489
-1085
-860
-997
-1376
-1648
-1565
-1209
-880
-785
-859
-900
-796
-597
-382
-147
124
361
436
321
141
56
99
132
-11
-319
-580
-576
-295
56
255
292
364
641
1083
1483
1690
1749
1809
1932
2036
2015
1869
1735
1769
1992
2274
2465
2537
2590
2718
2858
2913
2933
3095
3449
3753
3718
3418
3241
3403
3654
3612
3321
3259
3681
4187
4176
3601
3053
3015
3251
3107
2316
1317
741
760
1012
1073
897
747
876
1254
1598
1637
1344
954
710
646
587
371
76
-86
-11
180
198
-167
-852
-1540
-1913
-1943
-1947
-2248
-2793
-3226
-3368
-3495
-3963
-4608
-4788
-4128
-3053
-2342
-2160
-1822
-623
1200
2596
2786
2039
1298
1117
1162
789
-108
-948
-1116
-582
137
597
831
1140
1636
2076
2156
1860
1504
1410
1644
2023
2302
2356
2250
2152
2190
2332
2408
2282
2006
1761
1673
1714
1784
1833
1869
1856
1739
1559
1462
1539
1646
1524
1113
653
425
426
377
67
-418
-809
-980
-1067
-1239
-1477
-1632
-1638
-1618
-1710
-1872
-1933
-1797
-1560
-1409
-1420
-1476
-1403
-1132
-757
-447
-306
-316
-379
-399
-352
-285
-270
-346
-492
-651
-748
-736
-629
-519
-515
-647
-821
-919
-924
-950
-1091
-1302
-1438
-1433
-1385
-1432
-1582
-1722
-1783
-1827
-1947
-2123
-2236
-2227
-2166
-2152
-2187
-2196
-2162
-2164
-2276
-2442
-2536
-2509
-2447
-2453
-2518
-2522
-2381
-2133
-1892
-1730
-1636
-1569
-1510
-1461
-1407
-1328
-1218
-1093
-951
-749
-436
-4
497
996
1436
1798
2098
2363
2617
2862
3083
3277
3457
3628
3771
3878
3980
4142
4362
4543
4580
4473
4324
4219
4134
3994
3769
3470
3063
2475
1760
1187
1069
1441
1979
2324
2491
2857
3704
4810
5592
5642
5088
4397
3872
3447
2911
2233
1583
1122
868
756
750
827
888
832
653
446
286
165
64
33
110
218
225
125
60
147
286
262
15
-283
-406
-307
-132
-55
-131
-292
-404
-356
-165
-16
-142
-561
-1002
-1138
-929
-677
-691
-960
-1204
-1199
-997
-816
-802
-938
-1135
-1323
-1469
-1577
-1686
-1839
-2022
-2154
-2189
-2172
-2165
-2161
-2088
-1945
-1827
-1789
-1722
-1477
-1099
-830
-840
-1004
-1040
-850
-649
-679
-894
-1004
-807
-397
-28
179
306
473
679
841
928
1001
1112
1231
1295
1309
1361
1534
1806
2069
2223
2260
2253
2272
2329
2378
2370
2293
2184
2117
2147
2262
2392
2469
2496
2550
2690
2892
3074
3182
3251
3358
3523
3697
3826
3915
4031
4227
4485
4737
4926
5061
5198
5373
5560
5685
5705
5646
5579
5539
5505
5430
5285
5068
4808
4548
4325
4135
3916
3591
3170
2746
2386
2047
1619
1054
424
-175
-681
-1061
-1303
-1466
-1681
-1982
-2136
-1782
-838
300
1120
1556
2057
2990
4116
4804
4750
4316
4087
4231
4445
4491
4547
4977
5884
7028
8144
9206
10346
11576
12762
13796
14710
15582
16406
17079
17531
17769
17828
17694
17304
16638
15743
14711
13599
12388
11052
9630
8234
6935
5682
4371
2989
1691
676
11
-417
-759
-1079
-1343
-1498
-1540
-1512
-1483
-1541
-1745
-2045
-2297
-2373
-2271
-2102
-1955
-1817
-1627
-1367
-1075
-782
-475
-145
177
446
676
947
1314
1734
2105
2382
2633
2958
3379
3788
4052
4150
4178
4208
4190
4031
3722
3365
3033
2660
2138
1479
830
311
-113
-552
-1016
-1393
-1603
-1705
-1819
-1976
-2111
-2189
-2292
-2529
-2908
-3324
-3686
-3995
-4302
-4613
-4876
-5051
-5156
-5243
-5329
-5390
-5419
-5453
-5532
-5654
-5774
-5851
-5884
-5904
-5934
-5983
-6057
-6154
-6228
-6209
-6051
-5790
-5499
-5201
-4843
-4375
-3831
-3314
-2879
-2490
-2082
-1672
-1344
-1134
-964
-719
-415
-197
-181
-306
-398
-380
-356
-453
-626
-686
-528
-261
-84
-67
-122
-175
-280
-560
-1071
-1755
-2472
-3020
-3193
-2919
-2374
-1845
-1422
-890
-13
1057
1792
1798
1221
570
178
-63
-428
-931
-1299
-1312
-1037
-716
-473
-256
-16
155
117
-140
-459
-670
-753
-812
-930
-1082
-1185
-1200
-1175
-1186
-1261
-1371
-1484
-1589
-1679
-1734
-1731
-1694
-1665
-1661
-1671
-1679
-1701
-1771
-1888
-1998
-2051
-2051
-2043
-2053
-2054
-2009
-1918
-1825
-1769
-1749
-1733
-1703
-1664
-1646
-1682
-1780
-1915
-2030
-2083
-2081
-2071
-2091
-2124
-2120
-2060
-1989
-1973
-2036
-2140
-2228
-2283
-2328
-2386
-2449
-2492
-2503
-2483
-2425
-2317
-2180
-2069
-2021
-2012
-1994
-1963
-1966
-2028
-2107
-2128
-2060
-1928
-1779
-1649
-1568
-1562
-1631
-1728
-1808
-1891
-2032
-2230
-2395
-2436
-2378
-2337
-2379
-2450
-2473
-2470
-2561
-2828
-3210
-3566
-3811
-3972
-4111
-4226
-4259
-4174
-4007
-3828
-3670
-3520
-3360
-3211
-3104
-3033
-2964
-2885
-2841
-2877
-2959
-2979
-2858
-2628
-2398
-2249
-2175
-2106
-1982
-1788
-1560
-1351
-1204
-1103
-973
-743
-400
-15
307
503
579
564
467
274
-29
-396
-753
-1090
-1513
-2122
-2789
-3146
-2893
-2142
-1372
-937
-680
-121
957
2203
3037
3227
3045
2862
2761
2580
2241
1889
1700
1681
1706
1722
1819
2058
2343
2516
2520
2434
2349
2264
2152
2075
2122
2261
2302
2083
1676
1326
1187
1168
1091
952
938
1180
1577
1914
2099
2217
2362
2486
2468
2275
2005
1797
1750
1898
2233
2708
3257
3846
4499
5248
6041
6753
7295
7677
7950
8120
8164
8115
8072
8097
8137
8090
7945
7816
7826
7981
8178
8316
8356
8285
8066
7669
7126
6532
5958
5409
4861
4329
3891
3622
3531
3553
3592
3572
3471
3304
3098
2874
2646
2428
2238
2083
1962
1876
1848
1906
2043
2202
2314
2355
2360
2391
2480
2617
2760
2863
2908
2926
2963
3042
3130
3174
3160
3138
3167
3256
3358
3436
3507
3618
3790
3989
4155
4273
4381
4530
4722
4900
5000
5016
5004
5021
5055
5048
4966
4842
4727
4626
4487
4279
4040
3847
3732
3654
3551
3402
3225
3049
2893
2751
2593
2390
2136
1861
1594
1322
1018
696
371
-20
-594
-1333
-1949
-2079
-1670
-1077
-701
-524
-123
796
1991
2866
3049
2695
2224
1875
1579
1198
745
360
145
98
185
399
711
1026
1227
1256
1152
1012
914
865
837
802
774
779
808
815
788
782
858
993
1089
1075
984
910
899
921
939
959
993
1018
986
873
697
500
304
109
-101
-342
-598
-812
-925
-952
-976
-1061
-1164
-1181
-1086
-976
-963
-1043
-1114
-1101
-1036
-1004
-1054
-1170
-1303
-1406
-1456
-1481
-1547
-1682
-1835
-1901
-1847
-1746
-1694
-1691
-1641
-1494
-1326
-1268
-1372
-1551
-1660
-1623
-1489
-1407
-1481
-1661
-1757
-1618
-1315
-1099
-1160
-1408
-1589
-1555
-1418
-1386
-1497
-1593
-1519
-1298
-1060
-881
-737
-610
-542
-541
-524
-400
-202
-58
-20
17
207
554
916
1173
1342
1509
1702
1849
1871
1785
1689
1684
1776
1858
1786
1547
1294
1205
1281
1298
1045
559
93
-166
-246
-296
-394
-546
-778
-1125
-1495
-1680
-1638
-1644
-2049
-2839
-3543
-3676
-3273
-2853
-2902
-3402
-3883
-3952
-3720
-3710
-4318
-5319
-5957
-5591
-4334
-2962
-2140
-1748
-1099
175
1587
2257
1838
839
18
-411
-823
-1563
-2486
-3142
-3298
-3122
-2913
-2767
-2584
-2296
-1975
-1742
-1655
-1667
-1709
-1750
-1784
-1835
-1946
-2158
-2478
-2880
-3318
-3731
-4044
-4197
-4205
-4207
-4358
-4649
-4873
-4817
-4503
-4194
-4131
-4286
-4407
-4302
-4036
-3819
-3773
-3811
-3769
-3588
-3342
-3130
-2972
-2809
-2602
-2394
-2264
-2239
-2240
-2142
-1892
-1564
-1288
-1112
-961
-739
-444
-184
-46
-29
-60
-73
-63
-73
-145
-265
-347
-300
-112
132
374
697
1235
1926
2438
2434
1924
1274
825
535
90
-668
-1494
-1963
-1873
-1391
-846
-434
-128
191
571
950
1222
1341
1370
1415
1529
1674
1800
1940
2158
2406
2506
2342
2041
1857
1884
1944
1820
1544
1372
1439
1551
1396
917
394
127
125
130
-44
-305
-389
-172
200
460
467
348
367
655
1065
1299
1220
