-447
236
768
1228
1727
2220
2526
2538
2349
2141
1992
1825
1546
1170
808
545
380
252
111
-50
-213
-352
-449
-515
-574
-638
-692
-714
-718
-744
-817
-911
-981
-1008
-1011
-1012
-1010
-989
-942
-892
-868
-883
-925
-969
-996
-1003
-998
-991
-987
-982
-967
-944
-922
-913
-921
-939
-958
-967
-957
-931
-901
-887
-899
-932
-962
-974
-963
-937
-913
-902
-909
-933
-961
-979
-976
-954
-923
-898
-890
-904
-935
-973
-1008
-1031
-1044
-1045
-1038
-1029
-1037
-1068
-1113
-1140
-1133
-1102
-1081
-1096
-1142
-1193
-1231
-1252
-1262
-1257
-1237
-1212
-1206
-1225
-1256
-1269
-1248
-1205
-1167
-1152
-1155
-1162
-1163
-1158
-1150
-1134
-1100
-1051
-1001
-967
-955
-957
-956
-935
-890
-829
-770
-730
-715
-712
-695
-645
-566
-480
-413
-373
-352
-338
-325
-308
-286
-253
-211
-178
-167
-169
-163
-140
-107
-81
-61
-31
8
29
5
-46
-77
-59
-12
14
-2
-38
-63
-71
-77
-89
-93
-76
-49
-42
-69
-118
-159
-176
-175
-167
-165
-171
-181
-193
-201
-202
-198
-190
-178
-165
-161
-181
-226
-279
-309
-300
-268
-248
-253
-278
-303
-321
-335
-340
-322
-290
-268
-281
-319
-350
-350
-334
-324
-321
-312
-295
-292
-321
-361
-377
-356
-322
-301
-299
-303
-308
-321
-340
-347
-334
-319
-330
-371
-421
-456
-469
-470
-465
-456
-446
-439
-441
-450
-472
-503
-527
-527
-502
-476
-480
-519
-567
-600
-618
-632
-650
-667
-689
-722
-763
-791
-786
-750
-700
-647
-594
-554
-542
-558
-570
-544
-478
-411
-383
-392
-410
-414
-407
-399
-387
-363
-333
-311
-305
-312
-328
-346
-354
-335
-291
-251
-248
-289
-341
-369
-361
-329
-285
-248
-234
-253
-287
-303
-282
-246
-228
-235
-248
-256
-273
-311
-351
-359
-328
-284
-267
-288
-343
-422
-523
-645
-793
-965
-1149
-1317
-1455
-1581
-1706
-1778
-1659
-1243
-592
76
578
930
1300
1785
2261
2509
2444
2195
1960
1800
1629
1368
1054
785
593
426
231
29
-127
-221
-302
-408
-524
-599
-614
-598
-605
-664
-763
-870
-955
-1004
-1022
-1026
-1036
-1051
-1050
-1021
-975
-942
-941
-969
-1006
-1039
-1060
-1064
-1043
-997
-945
-913
-910
-924
-932
-928
-919
-918
-924
-923
-904
-876
-864
-886
-933
-969
-959
-907
-849
-826
-847
-888
-921
-933
-926
-904
-879
-866
-880
-920
-957
-970
-957
-935
-924
-927
-946
-986
-1041
-1093
-1113
-1098
-1075
-1074
-1099
-1128
-1143
-1151
-1165
-1184
-1193
-1186
-1179
-1194
-1231
-1265
-1274
-1261
-1243
-1232
-1216
-1186
-1151
-1137
-1156
-1185
-1185
-1132
-1046
-973
-942
-948
-959
-943
-890
-811
-731
-673
-642
-631
-621
-595
-551
-493
-431
-371
-321
-291
-281
-270
-237
-175
-104
-51
-17
11
39
53
44
28
36
75
115
121
94
61
45
46
50
53
59
65
57
33
4
-13
-18
-15
-7
4
6
-19
-76
-139
-173
-163
-129
-104
-108
-134
-160
-177
-184
-186
-191
-197
-203
-207
-216
-235
-260
-279
-274
-244
-209
-198
-226
-280
-332
-357
-357
-344
-335
-329
-325
-327
-342
-364
-375
-355
-311
-277
-282
-318
-350
-352
-335
-324
-325
-323
-305
-285
-291
-332
-380
-399
-377
-337
-311
-323
-363
-403
-417
-401
-376
-362
-364
-371
-374
-385
-414
-450
-470
-465
-455
-470
-514
-565
-604
-629
-648
-651
-622
-565
-515
-505
-527
-537
-505
-439
-379
-350
-343
-340
-338
-343
-354
-349
-314
-259
-212
-198
-210
-223
-224
-214
-206
-204
-210
-221
-241
-271
-299
-313
-303
-276
-250
-242
-247
-254
-255
-257
-268
-282
-284
-260
-225
-212
-237
-281
-308
-294
-252
-215
-203
-208
-215
-221
-234
-264
-313
-381
-473
-606
-796
-1029
-1255
-1428
-1539
-1622
-1682
-1639
-1370
-849
-207
369
819
1244
1746
2258
2583
2596
2376
2115
1926
1771
1564
1293
1012
757
521
296
102
-34
-118
-187
-269
-362
-451
-525
-570
-583
-579
-596
-651
-731
-805
-860
-901
-930
-929
-880
-801
-743
-745
-800
-870
-916
-927
-914
-891
-863
-834
-818
-827
-857
-885
-892
-874
-846
-829
-832
-846
-863
-875
-881
-879
-869
-856
-851
-858
-877
-895
-902
-887
-854
-820
-802
-815
-849
-883
-898
-894
-884
-882
-900
-942
-1003
-1069
-1117
-1128
-1105
-1069
-1045
-1043
-1063
-1096
-1133
-1163
-1177
-1178
-1186
-1220
-1275
-1324
-1341
-1328
-1307
-1292
-1279
-1262
-1245
-1246
-1271
-1302
-1311
-1285
-1232
-1176
-1135
-1116
-1112
-1106
-1084
-1046
-1001
-962
-931
-903
-875
-845
-811
-760
-687
-596
-506
-436
-401
-395
-392
-362
-298
-227
-183
-171
-164
-133
-82
-36
-9
16
62
126
174
181
151
117
108
131
169
197
201
180
148
120
109
116
137
160
169
152
112
69
42
36
39
35
24
11
-2
-23
-57
-91
-101
-77
-42
-29
-58
-111
-157
-173
-163
-144
-127
-121
-132
-163
-198
-217
-208
-183
-166
-171
-187
-200
-206
-215
-233
-255
-268
-267
-260
-264
-287
-318
-337
-332
-310
-289
-276
-267
-257
-254
-266
-289
-295
-263
-203
-151
-141
-169
-202
-208
-185
-155
-139
-136
-140
-151
-174
-205
-227
-228
-212
-193
-184
-185
-192
-208
-228
-233
-205
-153
-113
-124
-189
-264
-298
-278
-236
-216
-229
-246
-241
-226
-238
-283
-322
-319
-288
-279
-321
-380
-412
-416
-427
-459
-480
-464
-434
-445
-512
-583
-595
-547
-488
-460
-454
-440
-408
-376
-354
-329
-283
-218
-162
-140
-152
-172
-180
-170
-150
-132
-121
-121
-131
-140
-141
-129
-113
-99
-88
-76
-69
-81
-114
-147
-151
-121
-81
-60
-64
-80
-99
-122
-144
-149
-127
-95
-94
-141
-215
-270
-280
-256
-232
-225
-242
-284
-363
-479
-621
-785
-978
-1186
-1375
-1522
-1652
-1791
-1873
-1737
-1273
-570
138
692
1136
1607
2114
2489
2580
2432
2226
2078
1938
1702
1360
1014
759
600
481
348
187
9
-155
-274
-340
-378
-424
-484
-533
-554
-567
-606
-675
-748
-801
-829
-836
-828
-806
-783
-774
-781
-795
-809
-828
-857
-891
-909
-900
-871
-836
-806
-792
-799
-821
-846
-860
-860
-853
-843
-824
-795
-773
-773
-796
-818
-824
-816
-804
-787
-761
-734
-732
-761
-802
-820
-807
-786
-779
-788
-800
-815
-844
-883
-907
-893
-855
-833
-853
-899
-935
-947
-949
-958
-966
-961
-951
-964
-1017
-1085
-1124
-1120
-1098
-1094
-1115
-1143
-1168
-1193
-1219
-1228
-1205
-1164
-1140
-1148
-1167
-1165
-1138
-1107
-1086
-1061
-1012
-946
-893
-872
-870
-853
-803
-735
-669
-618
-575
-536
-501
-471
-437
-389
-324
-253
-195
-166
-162
-162
-143
-93
-26
33
67
80
81
79
78
88
118
167
213
234
227
212
208
218
232
240
243
239
222
192
154
126
120
132
148
157
151
129
98
71
61
69
82
88
81
65
43
18
-9
-31
-40
-32
-21
-20
-36
-62
-88
-98
-82
-46
-13
-10
-45
-96
-131
-137
-131
-132
-139
-140
-3416
-3513
-3619
-3665
-3627
-3531
-3436
-3393
-3416
-3481
-3547
-3589
-3600
-3578
-3521
-3439
-3376
-3387
-3495
-3654
-3774
-3789
-3706
-3598
-3540
-3562
-3639
-3726
-3785
-3791
-3730
-3614
-3484
-3403
-3417
-3513
-3616
-3639
-3541
-3363
-3193
-3104
-3111
-3170
-3222
-3230
-3181
-3081
-2951
-2830
-2772
-2809
-2921
-3035
-3071
-2995
-2851
-2724
-2685
-2741
-2833
-2891
-2881
-2817
-2733
-2652
-2584
-2544
-2552
-2612
-2690
-2733
-2703
-2609
-2502
-2447
-2484
-2604
-2745
-2837
-2836
-2761
-2670
-2619
-2640
-2732
-2867
-2986
-3027
-2964
-2844
-2762
-2791
-2930
-3115
-3260
-3314
-3273
-3174
-3074
-3028
-3072
-3191
-3326
-3405
-3384
-3274
-3143
-3065
-3089
-3203
-3338
-3414
-3388
-3276
-3143
-3052
-3033
-3083
-3170
-3250
-3278
-3224
-3103
-2979
-2924
-2965
-3066
-3159
-3201
-3188
-3137
-3065
-2992
-2959
-3008
-3134
-3269
-3324
-3266
-3144
-3042
-3019
-3086
-3209
-3338
-3417
-3405
-3304
-3172
-3094
-3128
-3264
-3427
-3525
-3509
-3399
-3266
-3176
-3166
-3236
-3355
-3471
-3516
-3449
-3304
-3177
-3160
-3267
-3425
-3539
-3562
-3503
-3398
-3288
-3223
-3249
-3382
-3582
-3763
-3848
-3811
-3700
-3607
-3612
-3730
-3891
-3993
-3980
-3879
-3756
-3657
-3594
-3578
-3626
-3713
-3762
-3703
-3552
-3407
-3337
-3304
-3217
-3044
-2861
-2758
-2728
-2686
-2571
-2423
-2346
-2404
-2566
-2745
-2861
-2880
-2820
-2723
-2643
-2623
-2676
-2776
-2869
-2903
-2865
-2782
-2707
-2687
-2736
-2827
-2916
-2961
-2938
-2856
-2762
-2722
-2776
-2904
-3031
-3082
-3041
-2950
-2866
-2825
-2843
-2918
-3040
-3178
-3289
-3348
-3380
-3456
-3640
-3921
-4214
-4439
-4571
-4615
-4529
-4224
-3677
-3015
-2438
-2026
-1663
-1185
-609
-153
-28
-232
-574
-874
-1107
-1338
-1598
-1837
-2008
-2140
-2316
-2575
-2871
-3104
-3202
-3172
-3092
-3058
-3126
-3272
-3421
-3499
-3486
-3418
-3355
-3342
-3396
-3496
-3609
-3691
-3700
-3619
-3469
-3320
-3251
-3301
-3435
-3569
-3627
-3586
-3474
-3342
-3246
-3235
-3323
-3467
-3584
-3603
-3517
-3386
-3278
-3232
-3252
-3327
-3431
-3520
-3537
-3461
-3328
-3221
-3205
-3282
-3392
-3452
-3423
-3322
-3215
-3155
-3159
-3214
-3298
-3386
-3443
-3427
-3330
-3198
-3111
-3129
-3238
-3366
-3441
-3436
-3376
-3303
-3256
-3262
-3323
-3424
-3527
-3590
-3589
-3528
-3441
-3380
-3398
-3510
-3669
-3786
-3792
-3697
-3578
-3513
-3529
-3594
-3663
-3706
-3700
-3625
-3493
-3358
-3290
-3319
-3409
-3489
-3508
-3453
-3336
-3183
-3039
-2962
-2983
-3067
-3128
-3094
-2956
-2775
-2633
-2587
-2639
-2742
-2820
-2818
-2725
-2584
-2454
-2382
-2384
-2452
-2556
-2635
-2624
-2497
-2307
-2164
-2156
-2270
-2410
-2477
-2445
-2354
-2261
-2195
-2169
-2204
-2307
-2441
-2525
-2497
-2370
-2227
-2157
-2202
-2331
-2482
-2580
-2574
-2468
-2324
-2227
-2228
-2313
-2418
-2489
-2505
-2470
-2401
-2328
-2296
-2346
-2472
-2616
-2702
-2688
-2587
-2456
-2360
-2347
-2426
-2555
-2663
-2688
-2624
-2522
-2443
-2425
-2471
-2565
-2671
-2734
-2708
-2597
-2461
-2378
-2394
-2493
-2623
-2723
-2746
-2679
-2552
-2437
-2406
-2481
-2610
-2706
-2711
-2624
-2495
-2387
-2343
-2380
-2481
-2608
-2707
-2727
-2652
-2519
-2408
-2395
-2490
-2632
-2727
-2723
-2633
-2517
-2427
-2396
-2434
-2533
-2656
-2743
-2742
-2645
-2506
-2412
-2425
-2542
-2692
-2782
-2761
-2647
-2515
-2436
-2438
-2507
-2604
-2692
-2735
-2704
-2602
-2472
-2390
-2414
-2538
-2688
-2773
-2746
-2637
-2526
-2476
-2496
-2550
-2601
-2642
-2674
-2676
-2619
-2511
-2422
-2439
-2581
-2764
-2869
-2838
-2715
-2598
-2557
-2606
-2719
-2858
-2971
-3005
-2934
-2789
-2646
-2576
-2600
-2679
-2751
-2758
-2677
-2529
-2372
-2280
-2299
-2406
-2527
-2584
-2544
-2428
-2293
-2192
-2161
-2210
-2315
-2414
-2442
-2371
-2243
-2136
-2111
-2181
-2306
-2428
-2498
-2488
-2398
-2265
-2150
-2121
-2203
-2349
-2464
-2471
-2368
-2228
-2143
-2154
-2240
-2352
-2441
-2476
-2439
-2334
-2212
-2149
-2217
-2420
-2687
-2927
-3091
-3196
-3282
-3371
-3485
-3652
-3859
-3981
-3812
-3247
-2422
-1633
-1084
-730
-390
5
333
451
372
239
137
2
-276
-690
-1099
-1361
-1455
-1479
-1545
-1703
-1932
-2173
-2368
-2481
-2503
-2459
-2388
-2328
-2316
-2370
-2477
-2597
-2684
-2710
-2679
-2625
-2599
-2633
-2719
-2807
-2848
-2826
-2761
-2692
-2648
-2656
-2726
-2832
-2921
-2936
-2854
-2722
-2618
-2609
-2696
-2821
-2907
-2907
-2821
-2692
-2577
-2529
-2583
-2725
-2884
-2966
-2915
-2761
-2601
-2519
-2539
-2624
-2721
-2786
-2786
-2708
-2579
-2469
-2459
-2577
-2759
-2905
-2941
-180
-160
-172
-214
-260
-278
-262
-235
-237
-281
-342
-380
-381
-370
-381
-421
-463
-479
-471
-461
-468
-487
-503
-505
-491
-461
-413
-354
-305
-277
-264
-248
-222
-194
-184
-197
-218
-225
-208
-170
-127
-91
-68
-56
-43
-17
16
36
23
-21
-63
-75
-55
-35
-41
-72
-92
-76
-30
10
22
16
19
39
57
48
16
-12
-12
8
22
11
-12
-25
-24
-29
-74
-168
-293
-439
-619
-840
-1063
-1233
-1341
-1431
-1513
-1480
-1174
-569
158
787
1274
1758
2330
2867
3137
3057
2793
2563
2408
2206
1873
1481
1166
967
805
600
365
169
43
-42
-142
-270
-394
-465
-467
-433
-422
-459
-515
-551
-577
-635
-732
-809
-804
-731
-673
-680
-724
-748
-752
-787
-870
-940
-932
-862
-813
-841
-908
-937
-910
-884
-909
-965
-986
-944
-881
-860
-897
-949
-970
-949
-916
-900
-912
-938
-959
-959
-934
-898
-874
-878
-904
-930
-939
-934
-928
-924
-924
-932
-952
-975
-988
-991
-1000
-1022
-1048
-1060
-1063
-1076
-1108
-1137
-1140
-1121
-1109
-1124
-1160
-1201
-1233
-1259
-1278
-1290
-1293
-1283
-1251
-1199
-1155
-1161
-1227
-1315
-1373
-1395
-1426
-1508
-1625
-1723
-1765
-1768
-1765
-1761
-1737
-1692
-1651
-1635
-1631
-1606
-1542
-1452
-1369
-1314
-1289
-1277
-1251
-1191
-1099
-1005
-941
-912
-892
-852
-786
-713
-658
-632
-630
-638
-633
-606
-571
-558
-581
-615
-615
-569
-516
-506
-546
-600
-626
-617
-598
-591
-592
-589
-579
-573
-576
-587
-596
-593
-580
-568
-569
-592
-624
-643
-633
-603
-575
-567
-580
-598
-602
-586
-563
-555
-571
-593
-595
-569
-539
-538
-571
-603
-602
-569
-539
-536
-556
-576
-584
-578
-562
-539
-515
-501
-502
-514
-531
-542
-538
-515
-488
-478
-501
-541
-562
-545
-511
-497
-512
-535
-541
-538
-546
-566
-578
-562
-526
-497
-494
-511
-533
-552
-572
-598
-633
-673
-711
-741
-759
-766
-758
-724
-663
-590
-538
-514
-500
-469
-423
-391
-392
-402
-383
-329
-276
-256
-268
-273
-249
-204
-168
-162
-182
-210
-223
-208
176
197
194
162
119
85
55
20
-14
-29
-16
8
16
-2
-24
-31
-23
-18
-35
-67
-99
-119
-126
-128
-134
-142
-147
-144
-137
-135
-144
-159
-167
-165
-160
-165
-180
-199
-221
-254
-303
-348
-354
-307
-234
-180
-159
-136
-73
2
10
-89
-236
-326
-338
-343
-404
-476
-459
-340
-245
-312
-527
-738
-814
-773
-707
-657
-589
-467
-318
-177
-44
87
167
133
10
-90
-87
-38
-60
-184
-301
-288
-131
91
319
540
722
774
633
358
98
-47
-96
-145
-257
-389
-424
-266
102
585
1020
1268
1291
1165
995
839
674
459
218
34
-30
39
230
536
904
1156
1083
673
212
16
35
-188
-1041
-2310
-3278
-3419
-2939
-2523
-2555
-2672
-2181
-833
890
2251
2902
3037
3026
3026
2992
2880
2740
2631
2555
2524
2606
2830
3093
3219
3113
2807
2342
1668
753
-233
-943
-1142
-921
-601
-433
-398
-294
29
505
892
927
495
-279
-1085
-1614
-1733
-1535
-1228
-984
-856
-776
-631
-365
-77
18
-237
-771
-1299
-1528
-1365
-945
-496
-162
68
299
590
842
814
316
-559
-1431
-1898
-1862
-1557
-1253
-969
-531
128
797
1161
1104
780
407
69
-279
-633
-881
-916
-761
-549
-402
-365
-438
-584
-741
-854
-928
-1018
-1137
-1177
-1005
-654
-383
-448
-813
-1167
-1239
-1066
-912
-937
-1009
-874
-443
109
505
603
432
98
-302
-684
-972
-1125
-1167
-1141
-1047
-863
-595
-301
-38
171
293
257
1
-418
-811
-988
-919
-744
-612
-543
-452
-263
14
311
545
644
564
321
8
-247
-374
-373
-288
-159
-8
147
298
449
590
665
598
369
57
-215
-369
-411
-387
-332
-245
-116
41
182
269
304
324
340
303
140
-157
-483
-696
-728
-640
-535
-455
-366
-213
7
226
363
371
249
37
-219
-483
-723
-891
-944
-875
-729
-572
-436
-301
-148
9
122
146
65
-94
-266
-366
-351
-264
-206
-241
-338
-420
-453
-465
-495
-558
-647
-762
-890
-968
-909
-681
-330
62
429
699
753
491
-58
-696
-1182
-1414
-1477
-1505
-1516
-1391
-1007
-385
299
823
1044
963
688
352
32
-266
-553
-798
-922
-860
-623
-286
75
410
666
784
735
575
426
374
406
439
411
333
264
247
283
345
405
457
501
519
473
343
152
-56
-277
-564
-948
-1352
-1609
-1602
-1408
-1230
-1200
-1234
-1136
-796
-292
190
515
707
909
1279
1879
2622
3310
3743
3855
3728
3483
3149
2668
2010
1258
563
23
-343
-542
-549
-352
-35
235
321
223
49
-95
-184
-273
-418
-633
-884
-1119
-1288
-1371
-1373
-1294
-1133
-914
-669
-405
-83
324
752
1064
1148
1008
729
383
-3
-372
-605
-616
-455
-295
-257
-303
-303
-205
-110
-173
-456
-862
-1209
-1362
-1303
-1128
-958
-860
-815
-783
-758
-777
-877
-1033
-1174
-1249
-1248
-1185
-1067
-887
-654
-409
-218
-136
-184
-335
-519
-665
-731
-720
-658
-567
-459
-345
-249
-177
-120
-83
-107
-244
-486
-736
-888
-921
-905
-916
-952
-963
-931
-899
-934
-1055
-1218
-1372
-1480
-1525
-1512
-1447
-1337
-1202
-1071
-972
-902
-829
-722
-604
-534
-520
-488
-370
-194
-57
4
56
169
289
307
204
85
51
79
82
55
67
140
192
161
113
170
322
428
379
244
175
217
257
192
65
5
55
135
152
125
166
309
452
458
320
180
187
323
420
350
173
58
98
211
252
172
39
-64
-123
-163
-197
-210
-204
-196
-194
-190
-179
-171
-162
-144
-115
-96
-88
-52
46
169
246
252
247
300
392
442
410
359
376
473
575
613
592
567
575
596
586
532
462
416
396
374
333
296
297
336
369
359
315
267
219
144
36
-59
-87
-55
-25
-40
-73
-59
24
119
147
101
50
59
119
161
134
54
-26
-86
-142
-206
-258
-278
-285
-318
-384
-444
-464
-462
-490
-583
-727
-898
-1082
-1256
-1393
-1494
-1600
-1734
-1832
-1749
-1399
-850
-279
191
593
1046
1589
2130
2531
2706
2666
2489
2279
2107
1979
1827
1572
1212
852
612
514
464
369
225
97
19
-49
-152
-282
-380
-416
-416
-434
-501
-613
-731
-816
-827
-748
-620
-538
-575
-717
-842
-831
-672
-486
-422
-525
-689
-771
-753
-762
-917
-1173
-1343
-1291
-1102
-987
-1032
-1076
-908
-546
-271
-334
-651
-874
-782
-520
-412
-595
-881
-995
-882
-727
-725
-873
-1012
-1019
-916
-830
-862
-996
-1086
-1002
-765
-569
-589
-792
-980
-1012
-955
-970
-1105
-1242
-1273
-1235
-1250
-1338
-1411
-1411
-1375
-1371
-1382
-1339
-1243
-1200
-1293
-1452
-1514
-1405
-1221
-1126
-1172
-1233
-1174
-1001
-874
-912
-1053
-1111
-974
-725
-544
-499
-484
-382
-223
-138
-198
-333
-440
-504
-560
-583
-485
-255
-19
66
3
-44
54
205
188
-94
-466
-646
-512
-210
11
60
29
63
183
300
328
261
139
1
-116
-171
-142
-69
-14
10
46
136
236
263
196
110
89
127
144
88
-16
-95
-94
-21
87
180
223
202
142
82
31
-19
-82
-156
-233
-292
-303
-231
-88
46
65
-68
-269
-412
-438
-397
-387
-460
-572
-628
-572
-424
-253
-126
-61
-35
-6
56
130
167
150
124
152
230
287
258
184
168
235
282
214
85
37
95
118
2
-138
-80
199
429
358
71
-99
41
310
389
196
-46
-116
-47
-40
-176
-343
-413
-409
-442
-530
-549
-378
-59
238
389
417
429
461
440
286
10
-297
-555
-755
-906
-998
-1007
-957
-912
-901
-845
-632
-237
224
611
901
1207
1637
2164
2640
2936
3033
3004
2910
2752
2514
2229
1954
1694
1389
997
583
317
314
481
572
392
1
-344
-435
-318
-241
-371
-621
-772
-709
-530
-412
-418
-445
-384
-275
-262
-436
-715
-896
-849
-655
-536
-639
-849
-912
-715
-460
-475
-860
-1374
-1673
-1639
-1437
-1290
-1241
-1176
-995
-724
-468
-302
-231
-235
-310
-468
-667
-807
-777
-572
-332
-256
-404
-608
-660
-547
-484
-676
-1065
-1383
-1434
-1267
-1060
-906
-792
-734
-841
-1180
-1648
-2039
-2240
-2287
-2262
-2170
-1980
-1724
-1494
-1353
-1291
-1283
-1341
-1475
-1611
-1625
-1449
-1121
-733
-350
-9
230
285
155
-63
-267
-437
-629
-870
-1071
-1098
-897
-547
-212
-19
11
-54
-128
-183
-260
-409
-597
-721
-698
-568
-463
-477
-564
-595
-520
-406
-334
-293
-199
-17
198
379
530
701
878
968
907
743
567
408
237
66
-14
69
264
450
587
741
930
996
715
73
-630
-1020
-984
-735
-548
-455
-246
243
898
1410
1558
1388
1098
808
495
119
-247
-476
-537
-520
-518
-507
-385
-127
157
334
372
330
249
118
-66
-242
-341
-357
-338
-301
-198
11
291
559
762
912
1013
1014
865
607
379
302
368
461
487
457
459
532
604
560
355
73
-143
-222
-213
-229
-314
-392
-381
-303
-269
-325
-386
-353
-260
-242
-326
-373
-271
-161
-341
-924
-1656
-2131
-2186
-1982
-1758
-1560
-1261
-776
-178
388
803
997
933
641
232
-159
-460
-684
-832
-846
-644
-230
276
755
1167
1545
1917
2237
2406
2364
2166
1956
1851
1860
1878
1788
1528
1112
620
183
-64
-78
34
78
-48
-247
-328
-199
28
161
102
-89
-298
-457
-566
-637
-686
-737
-815
-896
-910
-810
-628
-474
-437
-503
-576
-574
-503
-442
-449
-499
-521
-491
-455
-480
-567
-642
-642
-582
-528
-517
-517
-479
-415
-395
-454
-557
-628
-621
-580
-577
-647
-757
-845
-866
-820
-738
-678
-699
-825
-1008
-1145
-1151
-1052
-970
-996
-1086
-1085
-887
-551
-255
-138
-188
-288
-348
-366
-406
-519
-699
-897
-1048
-1095
-1017
-834
-602
-405
-302
-292
-333
-388
-474
-661
-977
-1351
-1642
-1754
-1717
-1637
-1581
-1529
-1422
-1253
-1077
-959
-919
-924
-926
-895
-833
-764
-707
-654
-585
-492
-397
-322
-274
-243
-223
-217
-218
-205
-164
-113
-88
-106
-148
-186
-202
-189
-150
-100
-69
-73
-92
-89
-57
-42
-84
-170
-230
-217
-152
-113
-153
-253
-340
-359
-310
-246
-210
-204
-196
-158
-92
-24
17
7
-76
-226
-396
-516
-553
-549
-582
-690
-828
-916
-904
-802
-663
-545
-492
-508
-548
-550
-494
-428
-409
-440
-468
-448
-389
-311
-204
-63
62
82
-17
-148
-224
-269
-381
-584
-767
-809
-711
-585
-503
-422
-275
-105
-46
-169
-393
-556
-569
-487
-432
-447
-472
-409
-214
61
328
521
627
673
697
720
736
706
586
371
136
-18
-49
-9
7
-37
-65
12
182
302
211
-135
-612
-1023
-1243
-1296
-1312
-1373
-1426
-1333
-1020
-568
-161
91
252
471
816
1216
1567
1867
2208
2641
3084
3386
3474
3407
3298
3192
3046
2798
2433
1989
1551
1201
986
882
801
660
446
219
51
-41
-90
-133
-174
-197
-206
-214
-224
-209
-136
-24
68
94
62
4
-88
-266
-547
-839
-1008
-1006
-920
-865
-848
-776
-611
-430
-331
-310
-297
-300
-442
-792
-1228
-1532
-1620
-1617
-1660
-1700
-1563
-1182
-693
-279
9
228
364
280
-107
-670
-1131
-1303
-1227
-1076
-950
-803
-545
-177
195
441
499
372
97
-266
-627
-880
-970
-931
-870
-855
-878
-890
-876
-888
-979
-1140
-1300
-1405
-1457
-1494
-1521
-1495
-1379
-1198
-1044
-1019
-1149
-1368
-1571
-1693
-1738
-1756
-1793
-1833
-1802
-1616
-1265
-833
-447
-185
-43
9
-31
-187
-444
-716
-893
-916
-797
-573
-265
122
570
1019
1390
1617
1686
1629
1503
1360
1234
1138
1067
1011
961
930
942
999
1047
1009
849
629
464
428
489
547
511
381
245
203
285
426
528
549
530
551
657
834
1030
1166
1158
964
631
294
79
-7
-63
-184
-351
-445
-369
-126
189
452
586
586
499
379
243
85
-86
-242
-370
-496
-646
-799
-872
-827
-712
-625
-602
-610
-621
-672
-799
-965
-1069
-1053
-964
-900
-891
-879
-775
-555
-294
-99
-28
-53
-89
-74
-24
-2
-47
-122
-167
-150
-86
-18
17
-18
-142
-325
-482
-532
-473
-379
-313
-257
-154
10
165
228
175
43
-135
-356
-613
-865
-1038
-1086
-1018
-861
-634
-349
-30
269
504
665
759
764
640
388
115
-39
-25
59
57
-67
-190
-170
-28
65
-50
-365
-733
-1033
-1274
-1531
-1809
-1993
-1927
-1558
-992
-401
118
587
1073
1573
1976
2175
2168
2047
1909
1781
1644
1480
1295
1090
864
625
403
222
61
-99
-252
-364
-403
-360
-263
-164
-119
-156
-248
-336
-396
-472
-595
-734
-808
-779
-696
-625
-589
-569
-564
-592
-639
-642
-576
-509
-543
-680
-794
-763
-625
-539
-595
-702
-704
-565
-426
-432
-559
-647
-607
-525
-547
-699
-850
-860
-741
-630
-624
-696
-758
-771
-771
-797
-835
-859
-890
-978
-1110
-1188
-1129
-962
-810
-760
-778
-760
-662
-552
-528
-613
-742
-840
-892
-915
-912
-869
-798
-757
-789
-866
-904
-852
-770
-761
-858
-977
-1016
-953
-867
-838
-868
-909
-925
-918
-904
-880
-840
-790
-741
-700
-672
-656
-651
-635
-589
-536
-520
-554
-582
-535
-412
-285
-213
-183
-131
-39
45
76
60
49
61
70
50
16
0
4
7
-3
-10
0
13
-4
-46
-65
-32
23
43
17
-10
14
69
83
20
-80
-147
-154
-140
-149
-189
-231
-232
-177
-81
11
52
23
-59
-154
-233
-291
-325
-326
-300
-282
-294
-302
-246
-129
-58
-131
-304
-405
-324
-156
-103
-245
-438
-474
-320
-145
-121
-238
-340
-316
-224
-195
-273
-383
-422
-368
-297
-283
-334
-390
-399
-369
-355
-377
-400
-371
-296
-237
-226
-215
-144
-38
-6
-113
-281
-360
-310
-255
-314
-451
-526
-474
-390
-385
-436
-419
-303
-217
-300
-508
-636
-540
-301
-117
-96
-155
-156
-51
80
151
152
132
113
70
-6
-67
-51
23
69
22
-81
-135
-84
23
102
117
93
71
39
-23
-108
-197
-291
-430
-632
-866
-1105
-1366
-1666
-1957
-2137
-2118
-1882
-1465
-928
-315
341
1014
1683
2291
2745
2956
2926
2766
2599
2458
2288
2052
1790
1554
1347
1120
859
624
471
378
237
-26
-362
-644
-764
-729
-643
-614
-675
-768
-810
-735
-552
-373
-350
-545
-848
-1050
-1033
-907
-894
-1079
-1299
-1334
-1158
-963
-948
-1136
-1409
-1656
-1837
-1920
-1851
-1629
-1351
-1104
-845
-453
64
511
681
578
413
350
331
213
-8
-186
-251
-328
-548
-824
-915
-731
-494
-486
-718
-922
-891
-719
-663
-821
-1044
-1149
-1116
-1038
-965
-883
-826
-889
-1112
-1384
-1552
-1573
-1529
-1488
-1438
-1319
-1119
-876
-617
-350
-126
-50
-175
-429
-664
-789
-840
-897
-971
-1000
-940
-822
-706
-622
-569
-558
-613
-723
-801
-757
-600
-443
-384
-411
-430
-361
-209
-55
36
59
47
48
84
150
227
308
382
423
400
311
195
95
5
-110
-253
-364
-346
-179
33
149
137
104
174
337
448
415
341
433
749
1089
1203
1061
867
798
810
719
449
128
-67
-70
65
267
472
613
638
558
450
362
252
64
-172
-356
-388
-261
-46
149
215
116
-63
-176
-168
-124
-165
-281
-325
-198
30
177
136
-47
-231
-312
-293
-271
-349
-528
-679
-644
-401
-107
42
-4
-117
-149
-78
-7
-37
-181
-351
-459
-479
-456
-447
-449
-409
-293
-145
-51
-33
-28
31
104
94
-41
-216
-318
-323
-313
-360
-433
-436
-324
-164
-77
-129
-270
-391
-425
-397
-382
-401
-404
-337
-220
-125
-114
-186
-299
-416
-517
-588
-608
-583
-549
-525
-481
-378
-245
-171
-222
-353
-452
-469
-472
-546
-663
-688
-552
-365
-324
-506
-780
-963
-1034
-1154
-1470
-1904
-2210
-2179
-1798
-1213
-592
-26
474
944
1438
1965
2429
2659
2562
2259
1985
1860
1794
1610
1282
959
777
704
600
409
217
131
143
143
57
-86
-196
-225
-203
-187
-207
-261
-329
-381
-393
-359
-313
-304
-361
-470
-591
-690
-752
-769
-727
-636
-540
-500
-516
-540
-530
-507
-526
-604
-692
-730
-705
-655
-607
-563
-521
-503
-541
-638
-761
-868
-935
-955
-928
-870
-814
-775
-743
-688
-608
-545
-540
-590
-649
-669
-637
-589
-574
-608
-666
-708
-717
-711
-731
-781
-821
-817
-801
-863
-1057
-1318
-1509
-1543
-1470
-1406
-1407
-1406
-1304
-1092
-866
-721
-670
-660
-662
-699
-792
-904
-965
-955
-922
-917
-937
-940
-908
-863
-825
-777
-715
-676
-702
-752
-720
-545
-308
-166
-188
-276
-280
-156
-8
44
-13
-82
-71
18
114
158
145
114
106
131
177
217
228
209
169
121
82
73
105
162
210
231
246
289
358
395
347
240
164
186
274
335
312
246
229
298
385
392
302
192
154
194
251
283
300
316
306
240
146
93
90
60
-66
-251
-385
-410
-366
-318
-277
-230
-205
-244
-314
-331
-285
-278
-399
-567
-599
-424
-185
-94
-204
-380
-455
-401
-307
-276
-327
-414
-463
-417
-275
-115
-47
-119
-271
-389
-407
-352
-304
-302
-325
-329
-298
-252
-217
-200
-205
-250
-350
-481
-584
-604
-558
-507
-484
-469
-421
-339
-254
-196
-163
-152
-165
-195
-218
-220
-227
-280
-370
-414
-350
-207
-80
-41
-71
-91
-55
4
15
-52
-167
-267
-323
-357
-415
-530
-687
-851
-1017
-1221
-1491
-1775
-1931
-1807
-1371
-760
-181
260
635
1090
1649
2144
2360
2243
1953
1706
1579
1486
1328
1102
873
673
458
190
-88
-291
-396
-468
-586
-751
-886
-912
-826
-708
-654
-704
-806
-872
-855
-805
-812
-901
-992
-986
-894
-825
-866
-986
-1079
-1098
-1085
-1094
-1108
-1076
-1003
-957
-982
-1043
-1069
-1037
-999
-1002
-1041
-1071
-1059
-1009
-952
-915
-924
-982
-1058
-1111
-1117
-1093
-1074
-1080
-1104
-1132
-1147
-1134
-1088
-1028
-1001
-1031
-1090
-1128
-1127
-1122
-1151
-1206
-1246
-1254
-1255
-1277
-1306
-1302
-1256
-1204
-1180
-1177
-1166
-1144
-1135
-1139
-1137
-1119
-1140
-1270
-1506
-1748
-1887
-1909
-1888
-1870
-1808
-1633
-1354
-1072
-882
-782
-701
-608
-576
-692
-922
-1112
-1138
-1036
-956
-968
-989
-921
-802
-782
-926
-1123
-1235
-1296
-1464
-1802
-2130
-2184
-1875
-1355
-841
-427
-61
329
745
1125
1382
1460
1377
1208
1049
937
851
771
728
743
768
737
657
596
579
558
483
381
308
256
190
158
253
437
470
130
-502
-1085
-1342
-1311
-1207
-1115
-905
-458
161
775
1282
1681
1950
1999
1787
1414
1053
787
567
317
52
-140
-208
-186
-146
-143
-189
-269
-361
-443
-503
-543
-573
-601
-623
-636
-679
-823
-1095
-1431
-1710
-1848
-1852
-1768
-1609
-1369
-1065
-769
-546
-398
-289
-207
-197
-317
-587
-957
-1317
-1534
-1533
-1351
-1106
-885
-660
-351
49
432
661
686
560
369
176
13
-118
-228
-337
-431
-470
-435
-372
-355
-407
-483
-525
-538
-561
-603
-627
-600
-534
-482
-474
-495
-517
-526
-535
-551
-551
-508
-427
-350
-338
-411
-521
-600
-525
-650
-738
-898
-1062
-1170
-1237
-1327
-1461
-1554
-1463
-1122
-608
-80
369
778
1253
1822
2370
2719
2786
2651
2474
2348
2230
2026
1700
1313
958
681
467
288
121
-49
-218
-358
-426
-401
-322
-270
-293
-398
-552
-721
-883
-1012
-1082
-1086
-1040
-980
-929
-881
-807
-694
-574
-514
-567
-712
-868
-962
-993
-1033
-1148
-1338
-1541
-1696
-1776
-1793
-1773
-1748
-1743
-1765
-1794
-1800
-1771
-1723
-1683
-1672
-1697
-1746
-1797
-1815
-1782
-1716
-1662
-1659
-1702
-1759
-1798
-1808
-1792
-1763
-1733
-1710
-1689
-1662
-1632
-1614
-1623
-1656
-1683
-1677
-1626
-1541
-1440
-1338
-1257
-1217
-1232
-1293
-1389
-1513
-1669
-1850
-2028
-2157
-2206
-2179
-2118
-2069
-2048
-2044
-2031
-2011
-2009
-2047
-2123
-2204
-2247
-2226
-2145
-2038
-1943
-1876
-1819
-1741
-1633
-1532
-1480
-1483
-1492
-1461
-1388
-1302
-1232
-1180
-1136
-1092
-1042
-977
-887
-777
-683
-638
-648
-676
-679
-631
-552
-490
-475
-482
-451
-355
-238
-170
-174
-206
-216
-205
-213
-257
-310
-338
-342
-348
-361
-364
-355
-345
-341
-340
-346
-375
-424
-458
-443
-409
-416
-471
-511
-476
-408
-391
-458
-532
-530
-466
-431
-483
-580
-646
-653
-641
-650
-682
-707
-705
-684
-658
-623
-565
-488
-438
-470
-576
-680
-706
-664
-649
-737
-884
-985
-988
-953
-966
-1036
-1097
-1097
-1049
-1007
-993
-990
-967
-915
-847
-774
-702
-626
-554
-500
-471
-456
-422
-365
-317
-318
-369
-412
-392
-319
-248
-216
-205
-171
-107
-43
-3
6
-14
-81
-209
-363
-470
-482
-425
-362
-325
-290
-227
-136
-50
9
39
36
-10
-87
-157
-193
-208
-235
-279
-308
-309
-312
-342
-387
-405
-395
-390
-396
-392
-379
-423
-588
-845
-1087
-1256
-1425
-1691
-2017
-2192
-2002
-1443
-731
-107
365
796
1302
1839
2237
2363
2248
2043
1869
1743
1613
1435
1219
994
778
568
360
158
-33
-205
-346
-439
-477
-468
-447
-456
-519
-620
-725
-820
-924
-1051
-1163
-1196
-1131
-1022
-949
-931
-921
-883
-849
-872
-964
-1073
-1139
-1144
-1105
-1050
-1001
-981
-1001
-1048
-1082
-1074
-1040
-1025
-1054
-1115
-1174
-1209
-1231
-1253
-1271
-1273
-1261
-1251
-1254
-1261
-1250
-1226
-1216
-1232
-1256
-1261
-1257
-1281
-1340
-1373
-1322
-1209
-1133
-1145
-1176
-1130
-1019
-955
-1012
-1127
-1182
-1167
-1183
-1275
-1356
-1310
-1161
-1059
-1104
-1220
-1249
-1143
-1005
-976
-1090
-1261
-1379
-1400
-1355
-1302
-1290
-1330
-1396
-1439
-1428
-1366
-1271
-1169
-1081
-1028
-1016
-1021
-998
-927
-841
-806
-852
-932
-963
-896
-772
-662
-610
-593
-566
-522
-487
-482
-499
-509
-484
-413
-309
-203
-131
-87
-22
103
241
275
152
-29
-120
-92
-62
-140
-280
-342
-281
-219
-273
-400
-442
-327
-170
-120
-181
-212
-136
-28
-10
-101
-204
-248
-281
-373
-504
-564
-491
-354
-283
-300
-316
-249
-150
-142
-256
-386
-409
-348
-335
-430
-537
-514
-352
-199
-186
-297
-414
-460
-468
-500
-544
-543
-485
-428
-425
-462
-469
-410
-339
-341
-435
-564
-680
-783
-891
-967
-954
-853
-754
-749
-805
-785
-607
-367
-254
-348
-533
-622
-547
-413
-350
-390
-448
-436
-366
-323
-374
-480
-532
-460
-310
-206
-214
-268
-244
-93
93
170
85
-86
-225
-275
-263
-249
-269
-309
-319
-256
-132
-13
28
-6
-60
-104
-177
-329
-524
-662
-668
-587
-518
-497
-460
-335
-131
71
196
205
87
-144
-431
-686
-868
-1012
-1201
-1452
-1677
-1761
-1672
-1447
-1119
-682
-169
312
685
1005
1411
1930
2379
2547
2419
2193
2043
1931
1694
1266
766
344
34
-215
-412
-498
-448
-335
-253
-220
-189
-135
-109
-178
-364
-625
-877
-1038
-1062
-969
-819
-685
-574
-430
-234
-75
-96
-360
-757
-1075
-1185
-1154
-1150
-1238
-1294
-1157
-848
-578
-514
-605
-680
-694
-798
-1130
-1597
-1939
-1995
-1849
-1692
-1582
-1406
-1069
-632
-256
-49
5
-24
-129
-318
-549
-741
-831
-828
-772
-671
-503
-280
-88
-16
-82
-219
-351
-457
-568
-703
-840
-931
-936
-860
-755
-705
-780
-981
-1223
-1384
-1408
-1342
-1295
-1328
-1405
-1445
-1392
-1260
-1111
-1005
-973
-1015
-1092
-1148
-1134
-1052
-969
-954
-1013
-1064
-1036
-948
-890
-913
-968
-970
-901
-816
-751
-683
-578
-464
-400
-387
-364
-296
-231
-230
-289
-337
-332
-307
-304
-305
-262
-174
-101
-74
-54
24
145
234
238
201
201
261
322
334
311
303
334
373
372
317
239
183
179
218
261
272
245
217
227
273
318
325
287
218
144
91
76
90
105
94
59
30
23
11
-40
-133
-235
-314
-358
-357
-306
-212
-101
-8
56
102
138
138
80
-21
-119
-186
-230
-277
-320
-335
-308
-262
-236
-232
-229
-206
-173
-153
-149
-139
-98
-25
41
64
54
65
136
234
279
236
168
173
264
338
292
152
48
65
147
174
117
62
89
162
177
86
-46
-122
-118
-88
-84
-109
-127
-114
-71
-23
1
-16
-62
-92
-66
7
76
103
100
105
127
137
118
96
100
115
85
-17
-143
-227
-262
-326
-492
-737
-972
-1146
-1296
-1476
-1654
-1706
-1527
-1136
-645
-152
331
842
1402
2014
2686
3406
4076
4508
4549
4209
3664
3091
2508
1783
810
-315
-1298
-1832
-1821
-1449
-1033
-792
-726
-691
-577
-413
-355
-530
-910
-1328
-1601
-1656
-1546
-1370
-1171
-946
-725
-609
-681
-890
-1068
-1084
-968
-866
-858
-879
-802
-608
-409
-332
-386
-475
-521
-527
-540
-573
-585
-540
-446
-345
-268
-217
-193
-204
-255
-339
-442
-555
-667
-754
-788
-772
-728
-667
-565
-394
-185
-32
-15
-120
-247
-327
-382
-477
-620
-732
-740
-680
-672
-786
-972
-1126
-1210
-1278
-1372
-1442
-1405
-1241
-1027
-840
-701
-598
-547
-581
-692
-812
-879
-904
-929
-975
-1004
-968
-879
-796
-765
-787
-842
-916
-999
-1058
-1058
-982
-850
-703
-573
-502
-530
-664
-844
-972
-987
-910
-800
-675
-498
-256
-1
187
270
266
185
34
-158
-325
-414
-441
-446
-419
-312
-147
-65
-170
-357
-374
-65
449
883
1074
1077
1025
936
715
307
-236
-812
-1359
-1836
-2159
-2223
-2011
-1644
-1299
-1063
-911
-792
-720
-738
-827
-922
-987
-1045
-1119
-1150
-1051
-821
-599
-546
-678
-879
-1032
-1120
-1184
-1216
-1144
-953
-760
-723
-888
-1137
-1313
-1369
-1383
-1447
-1557
-1615
-1537
-1317
-1038
-801
-656
-591
-573
-599
-699
-893
-1148
-1373
-1498
-1518
-1477
-1410
-1303
-1122
-881
-671
-577
-614
-713
-791
-823
-838
-854
-859
-828
-765
-709
-694
-718
-764
-826
-912
-1023
-1133
-1204
-1220
-1186
-1131
-1081
-1055
-1061
-1092
-1137
-1199
-1293
-1418
-1545
-1634
-1666
-1655
-1617
-1541
-1407
-1232
-1081
-1017
-1054
-1162
-1313
-1496
-1701
-1900
-2060
-2164
-2218
-2235
-2237
-2271
-2393
-2617
-2904
-3198
-3491
-3815
-4173
-4494
-4657
-4564
-4201
-3643
-3008
-2401
-1857
-1335
-803
-321
-32
-30
-247
-494
-636
-708
-846
-1135
-1520
-1887
-2189
-2453
-2693
-2865
-2935
-2936
-2950
-2996
-3000
-2891
-2706
-2574
-2587
-2701
-2804
-2847
-2873
-2933
-2999
-3007
-2939
-2835
-2739
-2648
-2556
-2487
-2470
-2491
-2503
-2499
-2527
-2635
-2814
-2998
-3123
-3179
-3189
-3160
-3071
-2891
-2618
-2310
-2093
-2105
-2387
-2839
-3274
-3544
-3620
-3547
-3360
-3035
-2535
-1875
-1167
-570
-216
-144
-302
-575
-872
-1148
-1394
-1591
-1700
-1693
-1575
-1405
-1254
-1174
-1184
-1271
-1406
-1553
-1681
-1767
-1790
-1748
-1666
-1614
-1530
-1524
-1553
-1611
-1686
-1764
-1817
-1828
-1827
-1865
-1958
-2052
-2071
-2021
-2008
-2121
-2329
-2517
-2608
-2633
-2651
-2652
-2576
-2417
-2238
-2090
-1929
-1693
-1423
-1256
-1278
-1415
-1514
-1505
-1459
-1469
-1545
-1614
-1615
-1553
-1464
-1370
-1273
-1180
-1118
-1109
-1136
-1143
-1076
-953
-862
-881
-997
-1105
-1109
-1026
-951
-946
-963
-921
-807
-695
-661
-715
-805
-878
-922
-955
-1003
-1067
-1126
-1147
-1127
-1108
-1137
-1205
-1237
-1159
-988
-827
-770
-816
-889
-941
-1002
-1134
-1357
-1618
-1850
-2009
-2085
-2078
-2003
-1884
-1747
-1610
-1492
-1413
-1382
-1372
-1356
-1344
-1387
-1504
-1622
-1623
-1452
-1175
-914
-726
-594
-501
-468
-529
-667
-817
-924
-984
-1024
-1068
-1114
-1143
-1130
-1066
-989
-978
-1091
-1297
-1493
-1600
-1639
-1681
-1746
-1775
-1704
-1538
-1325
-1086
-836
-625
-538
-614
-774
-884
-904
-923
-1051
-1261
-1409
-1384
-1231
-1093
-1062
-1100
-1103
-1030
-946
-945
-1056
-1216
-1343
-1397
-1395
-1369
-1331
-1287
-1251
-1239
-1251
-1265
-1265
-1247
-1189
-1062
-890
-770
-805
-990
-1204
-1337
-1411
-1519
-1677
-1770
-1678
-1434
-1205
-1129
-1211
-1380
-1614
-1950
-2400
-2896
-3348
-3720
-4006
-4148
-4027
-3568
-2848
-2077
-1421
-896
-405
108
577
875
946
851
699
565
458
342
176
-72
-392
-723
-979
-1108
-1148
-1192
-1284
-1391
-1454
-1464
-1473
-1516
-1566
-1579
-1557
-1567
-1653
-1784
-1865
-1844
-1758
-1693
-1688
-1716
-1728
-1729
-1761
-1843
-1935
-1971
-1945
-1912
-1919
-1937
-1895
-1777
-1656
-1628
-1690
-1749
-1723
-1632
-1562
-1553
-1560
-1518
-1440
-1403
-1461
-1590
-1709
-1765
-1752
-1695
-1628
-1577
-1560
-1567
-1591
-1641
-1756
-1970
-2263
-2564
-2801
-2953
-3042
-3066
-3002
-2842
-2657
-2543
-2528
-2538
-2496
-2438
-2477
-2666
-2903
-3013
-2942
-2808
-2774
-2862
-2951
-2947
-2891
-2903
-3022
-3153
-3168
-3046
-2883
-2783
-2760
-2740
-2677
-2614
-2639
-2782
-2962
-3046
-2977
-2814
-2666
-2585
-2530
-2432
-2280
-2133
-2063
-2085
-2160
-2237
-2284
-2296
-2270
-2205
-2106
-1994
-1900
-1834
-1768
-1680
-1588
-1533
-1530
-1554
-1561
-1535
-1503
-1488
-1494
-1502
-1500
-1493
-1481
-1456
-1429
-1423
-1452
-1492
-1491
-1431
-1369
-1390
-1507
-1636
-1668
-1578
-1450
-1386
-1409
-1451
-1442
-1388
-1362
-1417
-1530
-1622
-1633
-1578
-1530
-1545
-1601
-1631
-1611
-1592
-1646
-1767
-1874
-1913
-1926
-1998
-2128
-2204
-2141
-2007
-1974
-2123
-2342
-2436
-2342
-2201
-2188
-2336
-2505
-2542
-2441
-2334
-2340
-2459
-2595
-2667
-2684
-2712
-2783
-2863
-2903
-2884
-2838
-2807
-2813
-2841
-2866
-2875
-2896
-2976
-3119
-3266
-3337
-3312
-3251
-3223
-3225
-3190
-3082
-2950
-2879
-2899
-2967
-3019
-3017
-2967
-2898
-2859
-2873
-2909
-2881
-2730
-2524
-2419
-2487
-2626
-2669
-2595
-2556
-2658
-2792
-2741
-2470
-2209
-2210
-2461
-2696
-2699
-2538
-2457
-2596
-2847
-2981
-2882
-2635
-2416
-2321
-2320
-2312
-2244
-2151
-2104
-2119
-2147
-2129
-2080
-2056
-2073
-2083
-2037
-1943
-1871
-1886
-1997
-2169
-2365
-2571
-2786
-3014
-3243
-3412
-3436
-3261
-2903
-2426
-1873
-1265
-624
-15
493
877
1152
1335
1396
1306
1097
878
747
697
615
389
34
-303
-487
-529
-576
-741
-994
-1202
-1278
-1270
-1278
-1335
-1398
-1428
-1444
-1496
-1587
-1657
-1646
-1557
-1443
-1353
-1295
-1257
-1227
-1217
-1248
-1299
-1331
-1322
-1291
-1282
-1296
-1276
-1164
-1000
-897
-929
-1053
-1147
-1139
-1090
-1106
-1192
-1227
-1127
-948
-823
-800
-798
-738
-676
-728
-895
-1043
-1050
-970
-949
-1034
-1118
-1075
-944
-879
-964
-1130
-1238
-1229
-1156
-1082
-1002
-892
-780
-726
-744
-794
-825
-860
-967
-1147
-1307
-1352
-1297
-1228
-1206
-1207
-1174
-1106
-1051
-1033
-1014
-980
-970
-1029
-1117
-1144
-1102
-1082
-1170
-1316
-1377
-1286
-1124
-1023
-1024
-1061
-1054
-996
-922
-859
-817
-810
-831
-838
-767
-607
-439
-355
-370
-407
-397
-349
-318
-335
-366
-354
-286
-197
-118
-43
50
164
268
325
342
378
472
593
667
667
640
652
693
683
575
433
358
380
436
462
462
476
516
558
586
613
647
676
690
691
673
608
498
398
354
308
148
-147
-450
-617
-647
-661
-725
-762
-666
-457
-253
-109
27
196
328
311
148
-25
-78
-41
-45
-146
-265
-292
-214
-110
-40
34
163
304
337
199
-22
-171
-187
-154
-174
-236
-229
-83
145
331
402
370
294
218
154
82
-20
-128
-172
-97
61
185
208
190
240
370
458
401
263
203
297
450
521
491
477
557
660
636
436
183
42
50
107
92
3
-63
-34
49
98
79
45
61
114
119
20
-151
-315
-428
-515
-622
-763
-925
-1083
-1206
-1246
-1156
-958
-722
-507
-275
69
564
1135
1647
2013
2237
2357
2387
2317
2143
1883
1559
1198
848
563
358
207
98
41
26
-4
-119
-309
-482
-565
-587
-616
-662
-646
-525
-370
-307
-364
-425
-370
-217
-124
-225
-477
-705
-766
-676
-580
-596
-709
-804
-795
-702
-608
-576
-608
-672
-737
-789
-828
-855
-885
-932
-975
-981
-939
-883
-868
-894
-896
-815
-680
-597
-635
-744
-807
-756
-649
-595
-631
-703
-740
-737
-736
-754
-768
-762
-769
-814
-864
-862
-806
-761
-789
-867
-913
-887
-848
-877
-979
-1081
-1125
-1132
-1172
-1256
-1333
-1357
-1337
-1325
-1339
-1345
-1318
-1287
-1295
-1343
-1385
-1395
-1396
-1407
-1396
-1303
-1134
-963
-845
-753
-626
-468
-363
-369
-436
-458
-403
-360
-410
-517
-571
-515
-405
-321
-270
-215
-160
-133
-113
-31
93
81
-264
-924
-1632
-2114
-2302
-2303
-2192
-1930
-1461
-819
-78
752
1686
2617
3283
3452
3126
2545
1979
1522
1084
533
-127
-703
-900
-518
357
1334
1954
2006
1643
1214
924
683
244
-475
-1274
-1843
-2019
-1866
-1546
-1146
-691
-266
-37
-133
-500
-919
-1209
-1362
-1501
-1702
-1889
-1906
-1686
-1322
-988
-769
-610
-408
-129
178
465
732
980
1156
1183
1038
791
552
393
335
356
410
461
496
548
654
790
868
821
684
560
508
483
410
284
176
155
211
263
250
176
94
53
67
128
209
269
274
220
155
139
183
239
257
225
184
167
167
158
128
98
92
104
123
158
226
309
345
289
173
66
-18
-148
-392
-707
-956
-1033
-945
-742
-429
18
557
1060
1439
1738
2047
2355
2532
2497
2338
2216
2186
2156
2027
1817
1610
1440
1255
1015
751
536
406
333
265
182
105
87
152
258
307
232
81
-13
42
220
415
536
566
525
442
343
246
145
-1
-212
-424
-514
-402
-114
228
495
613
581
460
328
216
89
-113
-400
-686
-852
-838
-681
-489
-364
-354
-438
-536
-579
-555
-518
-525
-561
-558
-475
-351
-267
-252
-266
-270
-271
-302
-361
-407
-409
-375
-332
-287
-237
-207
-234
-321
-414
-467
-490
-527
-587
-623
-599
-555
-554
-593
-596
-518
-424
-425
-551
-714
-808
-819
-807
-806
-798
-762
-721
-701
-680
-614
-507
-430
-447
-546
-646
-670
-601
-480
-366
-297
-277
-275
-261
-239
-234
-247
-241
-175
-60
65
190
360
595
835
976
972
879
792
751
725
675
616
591
617
671
726
767
787
776
729
664
608
571
551
558
600
656
675
634
586
631
812
1046
1179
1127
958
804
722
635
423
81
-252
-416
-396
-337
-388
-538
-630
-545
-332
-136
-21
90
300
600
878
1060
1176
1285
1376
1375
1254
1072
910
805
737
685
656
662
702
772
859
935
965
945
911
906
911
861
713
515
371
338
399
495
600
730
920
1200
1565
1936
2157
2084
1733
1297
993
879
849
797
743
782
947
1183
1435
1690
1915
2007
1875
1573
1291
1175
1190
1192
1097
959
870
846
830
784
731
692
648
569
470
405
390
363
244
14
-264
-511
-700
-868
-1058
-1261
-1394
-1338
-1015
-464
182
777
1274
1734
2225
2725
3119
3298
3250
3061
2841
2653
2485
2273
1962
1566
1171
867
680
559
439
308
193
117
80
72
87
89
16
-161
-387
-565
-639
-634
-599
-545
-446
-286
-93
89
220
277
256
177
85
0
-97
-231
-375
-464
-452
-376
-304
-260
-195
-68
104
251
319
320
294
269
243
206
169
147
134
114
83
53
42
59
91
117
111
69
17
-3
26
71
79
27
-53
-104
-108
-88
-70
-49
-5
66
141
196
231
244
223
154
44
-69
-146
-172
-164
-157
-171
-198
-215
-207
-188
-182
-204
-237
-249
-228
-191
-160
-134
-109
-87
-86
-116
-154
-165
-150
-150
-192
-247
-258
-203
-112
-28
47
136
242
338
418
498
552
469
137
-415
-997
-1392
-1516
-1416
-1148
-714
-114
591
1297
1921
2406
2665
2602
2221
1700
1274
1044
933
842
809
946
1255
1566
1696
1635
1448
1093
412
-609
-1658
-2283
-2295
-1867
-1251
-493
464
1481
2197
2349
2041
1573
1097
549
-74
-537
-546
-49
732
1572
2417
3278
4024
4428
4366
3922
3283
2586
1894
1257
761
493
476
659
927
1132
1170
1030
791
555
377
268
218
204
181
106
-7
-86
-71
33
165
277
388
531
682
753
690
544
435
442
527
597
604
581
576
575
530
436
349
330
374
424
454
489
566
658
703
680
636
631
651
620
493
327
229
252
330
368
343
323
368
456
521
525
482
406
285
129
9
-9
39
47
-37
-146
-188
-175
-231
-425
-691
-914
-1073
-1219
-1326
-1250
-876
-275
351
873
1339
1842
2355
2736
2896
2895
2852
2809
2726
2587
2441
2323
2195
1993
1718
1434
1183
930
648
392
268
300
393
427
396
389
452
523
508
400
283
220
193
159
131
174
305
443
478
390
266
205
206
203
152
80
47
66
98
114
132
192
294
385
416
397
377
391
422
435
409
364
325
302
282
261
249
251
244
193
95
-8
-63
-58
-33
-35
-66
-90
-78
-44
-28
-51
-97
-135
-159
-183
-220
-262
-290
-300
-310
-339
-391
-438
-456
-455
-464
-500
-549
-588
-615
-646
-687
-719
-729
-738
-771
-826
-864
-866
-861
-882
-908
-882
-797
-726
-751
-857
-940
-918
-817
-731
-711
-717
-677
-572
-440
-326
-248
-200
-185
-197
-206
-183
-130
-70
-4
88
204
300
344
378
483
661
791
769
646
592
700
867
924
850
794
874
1028
1091
1012
895
855
873
856
779
717
712
720
683
618
597
643
699
700
642
564
494
448
443
481
524
524
492
493
551
588
502
312
168
181
284
304
182
67
127
348
524
493
315
198
250
378
405
277
101
2
14
73
120
153
181
191
167
143
184
319
483
574
539
434
376
437
565
639
592
477
426
512
682
813
836
781
716
674
645
616
595
595
609
623
622
602
570
551
570
624
653
600
475
376
393
505
586
543
416
335
372
472
522
484
407
359
356
365
367
374
389
386
342
282
261
293
310
233
44
-191
-403
-586
-802
-1092
-1404
-1599
-1538
-1165
-559
114
711
1203
1672
2198
2734
3112
3183
2961
2609
2305
2107
1954
1772
1538
1283
1049
862
742
688
672
647
582
489
407
353
317
273
203
106
-21
-181
-360
-517
-600
-591
-522
-459
-440
-450
-454
-451
-480
-555
-620
-610
-534
-488
-543
-648
-681
-599
-495
-502
-638
-772
-771
-644
-522
-508
-578
-620
-568
-465
-391
-359
-320
-253
-221
-288
-395
-408
-298
-210
-328
-644
-940
-1025
-936
-878
-977
-1159
-1265
-1240
-1151
-1063
-952
-759
-485
-200
32
205
350
482
561
523
335
57
-194
-331
-368
-397
-481
-583
-624
-583
-521
-509
-536
-537
-493
-458
-497
-602
-687
-675
-579
-485
-467
-522
-591
-622
-621
-623
-632
-615
-544
-445
-368
-333
-316
-281
-225
-175
-152
-142
-118
-71
-12
40
73
70
29
-19
-16
62
177
244
233
194
201
266
337
365
354
325
274
197
128
120
173
207
162
80
72
179
322
386
334
217
103
26
-5
6
32
28
-12
-35
6
84
113
70
23
35
68
15
-146
-312
-355
-261
-129
-60
-65
-89
-93
-79
-50
-12
18
-3
-111
-277
-419
-463
-412
-327
-269
-247
-228
-186
-123
-45
44
129
165
122
38
9
90
228
315
308
273
290
349
376
338
286
281
314
320
276
227
224
272
336
382
404
397
368
340
354
414
473
484
463
465
518
584
602
574
551
561
573
528
432
355
353
405
429
386
326
333
411
477
459
376
303
268
202
31
-211
-417
-527
-602
-730
-892
-934
-712
-229
357
866
1243
1575
1971
2424
2804
2961
2858
2597
2313
2086
1911
1746
1553
1300
978
641
389
292
298
259
71
-216
-442
-495
-398
-261
-177
-170
-209
-258
-288
-282
-250
-246
-312
-428
-513
-504
-417
-334
-309
-321
-328
-348
-471
-753
-1109
-1369
-1419
-1310
-1181
-1090
-958
-672
-246
168
417
471
396
249
44
-188
-374
-455
-451
-439
-437
-365
-143
200
528
712
734
671
602
552
506
462
454
516
653
811
902
852
646
333
-28
-428
-905
-1473
-2058
-2514
-2716
-2655
-2431
-2163
-1909
-1661
-1392
-1114
-889
-806
-935
-1275
-1738
-2172
-2450
-2526
-2441
-2273
-2081
-1874
-1616
-1256
-794
-317
26
126
13
-180
-334
-438
-547
-680
-788
-806
-725
-569
-349
-73
209
396
412
275
93
-19
-27
19
38
-2
-58
-56
37
185
318
405
466
521
529
440
275
133
78
58
-12
-132
-199
-148
-38
51
150
352
620
722
454
-108
-633
-868
-870
-879
-1009
-1127
-1027
-666
-188
231
515
669
696
588
375
142
-24
-98
-118
-129
-131
-89
16
152
259
285
236
153
65
-15
-61
-34
82
227
311
289
193
84
-12
-94
-130
-44
202
527
769
854
858
910
1024
1067
911
581
234
-3
-124
-166
-100
154
588
1054
1364
1443
1371
1251
1096
835
420
-97
-569
-851
-874
-687
-419
-202
-92
-61
-50
-32
-17
-20
-44
-90
-169
-264
-307
-227
-33
154
196
72
-111
-232
-270
-294
-356
-438
-505
-577
-709
-905
-1103
-1257
-1389
-1528
-1602
-1457
-1028
-440
110
562
1031
1641
2325
2846
3017
2861
2556
2267
2028
1774
1427
968
459
17
-251
-321
-279
-256
-314
-401
-425
-360
-271
-240
-290
-392
-523
-687
-871
-1016
-1058
-998
-917
-881
-869
-810
-675
-526
-470
-534
-646
-720
-745
-774
-844
-920
-942
-896
-829
-795
-804
-826
-832
-822
-801
-770
-740
-740
-791
-874
-931
-929
-885
-835
-791
-737
-679
-648
-656
-665
-634
-590
-612
-732
-868
-909
-851
-798
-838
-936
-974
-907
-814
-796
-847
-883
-865
-873
-1013
-1296
-1618
-1858
-1971
-1969
-1860
-1650
-1371
-1083
-813
-534
-232
19
82
-108
-465
-803
-993
-1046
-1045
-1047
-1034
-963
-822
-627
-434
-326
-368
-539
-714
-764
-693
-652
-764
-964
-1065
-968
-796
-756
-909
-1093
-1108
-904
-578
-244
68
381
702
1020
1318
1580
1757
1800
1694
1489
1256
1037
851
724
663
640
597
514
440
438
504
556
520
392
225
79
-18
-54
-28
24
53
43
30
69
150
194
142
14
-111
-199
-298
-470
-706
-915
-1013
-989
-899
-805
-729
-656
-569
-468
-385
-352
-387
-490
-647
-820
-944
-963
-875
-750
-678
-681
-704
-676
-593
-527
-546
-643
-737
-766
-720
-640
-586
-597
-656
-686
-626
-515
-473
-564
-678
-630
-402
-239
-448
-1067
-1797
-2275
-2388
-2280
-2101
-1842
-1402
-772
-52
649
1272
1739
1908
1682
1152
587
213
42
-60
-186
-278
-233
-51
165
320
395
416
370
223
1
-201
-288
-249
-159
-103
-113
-180
-281
-384
-452
-473
-487
-554
-707
-924
-1167
-1423
-1688
-1923
-2018
-1860
-1427
-824
-201
364
905
1483
2070
2521
2700
2623
2444
2321
2279
2219
2033
1708
1336
1033
851
743
617
415
169
-27
-118
-134
-155
-225
-323
-408
-469
-531
-619
-739
-898
-1092
-1270
-1349
-1287
-1143
-1027
-979
-914
-735
-483
-348
-491
-865
-1244
-1436
-1435
-1374
-1345
-1304
-1136
-778
-278
255
706
979
1026
865
578
271
3
-219
-411
-578
-696
-734
-682
-565
-442
-378
-400
-474
-545
-588
-606
-610
-597
-568
-558
-606
-714
-831
-901
-928
-955
-1002
-1032
-998
-900
-798
-750
-760
-789
-806
-827
-875
-944
-1009
-1043
-1057
-1061
-1050
-1002
-924
-866
-869
-926
-979
-988
-973
-971
-986
-974
-903
-790
-691
-646
-636
-614
-554
-480
-455
-508
-595
-630
-565
-445
-347
-283
-171
62
374
640
774
810
817
801
693
448
118
-191
-409
-535
-592
-583
-501
-357
-188
-39
66
129
153
137
86
16
-53
-101
-124
-121
-102
-83
-83
-107
-142
-161
-151
-130
-124
-136
-144
-127
-84
-30
18
36
-6
-116
-240
-283
-212
-101
-82
-201
-361
-428
-362
-240
-166
-167
-197
-213
-212
-196
-172
-142
-128
-153
-224
-325
-416
-454
-419
-352
-339
-426
-546
-563
-411
-168
31
135
197
256
295
292
297
370
473
487
376
251
240
323
362
293
206
212
293
339
306
286
367
509
588
551
481
488
595
724
785
756
684
637
649
692
692
609
490
429
471
554
588
560
544
592
665
683
630
571
556
563
548
515
521
590
675
697
608
414
155
-120
-368
-578
-762
-926
-1014
-908
-526
86
755
1327
1786
2210
2642
3007
3180
3119
2909
2672
2470
2285
2081
1850
1607
1357
1111
899
745
626
490
311
125
-4
-56
-71
-95
-130
-166
-203
-254
-321
-392
-454
-496
-508
-482
-443
-448
-531
-646
-712
-703
-671
-665
-671
-629
-537
-463
-444
-447
-422
-392
-447
-627
-848
-977
-961
-875
-826
-851
-898
-894
-812
-693
-597
-561
-579
-622
-661
-686
-692
-687
-693
-735
-807
-861
-844
-756
-656
-604
-605
-615
-604
-577
-570
-613
-719
-877
-1049
-1167
-1180
-1120
-1076
-1096
-1130
-1082
-945
-814
-785
-843
-890
-871
-838
-871
-967
-1053
-1075
-1056
-1046
-1049
-1025
-955
-872
-824
-809
-770
-675
-568
-542
-644
-811
-904
-839
-674
-553
-554
-617
-601
-440
-207
-50
-45
-134
-186
-128
-3
80
55
-23
-40
57
194
265
257
258
332
430
456
389
314
314
372
391
322
211
141
158
237
323
374
366
296
184
97
102
199
298
292
171
61
83
221
304
192
-61
-243
-203
-11
129
91
-52
-119
-9
191
299
221
21
-155
-223
-218
-218
-248
-260
-239
-226
-250
-257
-181
-63
-38
-179
-374
-432
-290
-63
97
138
105
48
-6
-25
9
54
24
-82
-154
-104
19
67
-11
-86
-28
123
202
126
-9
-59
-8
53
60
58
100
176
235
260
271
286
313
344
356
302
163
-5
-110
-121
-120
-200
-337
-406
-329
-153
17
123
185
219
214
185
183
214
186
-13
-370
-730
-968
-1115
-1322
-1657
-1989
-2097
-1878
-1402
-787
-102
604
1215
1621
1842
2040
2332
2606
2610
2264
1827
1650
1821
2081
2118
1874
1517
1205
940
664
381
139
-71
-277
-431
-435
-273
-68
44
50
39
33
-51
-250
-442
-461
-317
-203
-266
-428
-490
-393
-295
-362
-559
-692
-654
-555
-544
-627
-674
-608
-514
-502
-541
-509
-378
-285
-375
-611
-802
-814
-700
-608
-621
-695
-752
-779
-804
-849
-904
-959
-1022
-1096
-1150
-1144
-1066
-944
-821
-726
-669
-636
-598
-549
-517
-556
-698
-914
-1111
-1179
-1072
-876
-733
-720
-791
-832
-792
-733
-756
-890
-1058
-1157
-1140
-1034
-912
-860
-926
-1083
-1218
-1219
-1096
-982
-1002
-1125
-1198
-1089
-817
-525
-355
-358
-470
-574
-590
-539
-525
-631
-800
-867
-709
-398
-128
-18
-15
-4
49
69
-3
-113
-156
-103
-30
-7
-17
20
149
323
455
498
484
472
484
497
465
371
236
109
38
50
141
254
318
304
266
288
392
496
492
365
204
112
113
137
124
82
57
81
142
196
203
162
120
120
153
156
87
-10
-42
14
50
-53
-272
-440
-431
-308
-243
-311
-411
-401
-264
-111
-34
-20
0
46
79
79
75
96
127
129
99
86
134
230
315
334
296
264
306
425
546
568
470
334
263
287
337
335
270
197
187
258
378
493
540
487
359
225
152
145
173
215
285
384
485
559
620
700
790
818
727
542
351
227
175
167
191
252
342
425
455
412
308
149
-70
-349
-680
-1045
-1406
-1685
-1770
-1574
-1113
-511
106
702
1320
1950
2456
2656
2480
2020
1430
823
287
-51
-72
196
565
872
1155
1571
2134
2615
2772
2635
2489
2529
2620
2458
1951
1310
792
416
15
-456
-779
-681
-157
483
890
959
851
741
622
340
-211
-934
-1599
-2006
-2094
-1927
-1606
-1224
-867
-617
-514
-550
-682
-874
-1086
-1261
-1341
-1314
-1205
-1029
-784
-505
-293
-252
-372
-513
-537
-438
-330
-306
-348
-392
-427
-501
-638
-780
-846
-814
-744
-687
-644
-594
-546
-534
-548
-528
-444
-371
-411
-551
-631
-500
-209
45
109
13
-126
-269
-453
-689
-911
-1068
-1180
-1285
-1340
-1274
-1102
-961
-965
-1088
-1225
-1329
-1454
-1650
-1855
-1943
-1847
-1623
-1377
-1171
-987
-780
-554
-382
-331
-394
-493
-540
-513
-444
-354
-220
-8
270
548
762
888
953
991
1001
961
846
672
477
284
118
71
297
868
1617
2183
2307
2062
1751
1573
1430
1104
552
-24
-388
-455
-281
55
471
827
974
898
731
621
547
395
128
-140
-273
-273
-231
-184
-82
103
261
244
61
-98
-57
141
284
245
125
131
311
506
545
454
404
483
582
546
384
257
257
294
213
6
-152
-99
118
320
398
412
470
579
655
630
522
385
230
49
-128
-251
-299
-295
-258
-156
28
236
367
377
332
319
328
277
130
-55
-182
-218
-194
-129
-17
119
214
217
150
85
74
100
124
132
125
107
88
93
130
172
176
148
138
183
247
266
225
171
144
98
-52
-337
-693
-1022
-1277
-1481
-1641
-1695
-1531
-1082
-411
314
941
1440
1880
2322
2717
2929
2874
2615
2318
2140
2103
2094
1954
1615
1151
704
365
127
-76
-281
-469
-598
-633
-566
-406
-210
-93
-158
-406
-739
-1041
-1264
-1407
-1445
-1333
-1058
-695
-341
-44
201
369
373
151
-244
-669
-1001
-1206
-1300
-1274
-1112
-838
-538
-275
-53
153
327
385
266
7
-251
-389
-404
-387
-418
-497
-559
-548
-484
-429
-430
-473
-498
-442
-291
-105
-1
-79
-329
-618
-786
-766
-616
-430
-241
-4
314
690
1049
1324
1456
1394
1140
785
469
281
194
113
2
-96
-131
-102
-41
19
37
-55
-306
-660
-938
-960
-710
-351
-65
109
277
530
827
1034
1056
925
758
648
585
501
353
191
112
167
290
346
262
102
-10
-30
-48
-166
-353
-456
-366
-142
57
149
190
253
312
273
116
-60
-148
-160
-202
-332
-478
-534
-475
-365
-280
-227
-169
-77
32
123
165
145
77
2
-46
-71
-108
-176
-246
-273
-260
-248
-272
-318
-342
-319
-270
-231
-227
-259
-310
-358
-385
-401
-429
-483
-542
-569
-558
-530
-504
-455
-362
-256
-203
-226
-278
-292
-270
-262
-281
-258
-117
129
392
613
796
951
1030
970
797
605
463
354
244
171
219
391
569
625
559
476
444
405
261
21
-202
-292
-241
-122
-3
96
178
230
232
200
186
224
306
392
458
529
644
797
926
950
846
666
498
402
379
394
410
417
436
482
537
555
513
448
422
445
438
325
121
-68
-184
-318
-622
-1122
-1622
-1846
-1675
-1239
-788
-451
-141
314
961
1633
2080
2181
2029
1823
1692
1621
1520
1341
1108
861
633
447
327
271
235
160
30
-107
-179
-148
-40
76
128
82
-27
-133
-189
-207
-223
-259
-285
-258
-167
-52
25
24
-48
-139
-189
-176
-132
-118
-161
-226
-259
-241
-210
-225
-301
-392
-436
-410
-348
-296
-263
-219
-132
-15
77
97
51
-14
-50
-45
-26
-25
-47
-65
-50
-1
44
45
-4
-74
-134
-178
-213
-232
-219
-169
-110
-77
-77
-87
-80
-65
-78
-142
-247
-340
-385
-397
-429
-503
-572
-565
-471
-366
-337
-382
-419
-386
-311
-275
-322
-421
-513
-558
-556
-531
-513
-524
-555
-565
-524
-461
-430
-438
-420
-330
-195
-87
-51
-74
-136
-211
-255
-211
-78
44
49
-31
-36
134
380
508
451
328
290
350
417
448
492
590
702
753
741
736
789
874
911
829
640
438
348
444
672
872
904
785
660
659
761
842
814
716
655
697
802
897
956
1004
1041
1017
887
700
569
554
576
525
402
330
406
565
655
617
534
502
511
473
358
251
244
344
484
597
663
695
722
779
873
963
980
903
789
731
765
847
906
912
875
842
852
920
1015
1073
1042
927
795
718
711
736
737
686
598
523
504
549
606
616
585
568
608
679
724
740
782
877
950
892
692
480
406
467
504
392
200
124
240
400
398
220
33
-46
-128
-414
-882
-1269
-1386
-1378
-1537
-1886
-2053
-1657
-787
44
432
486
655
1190
1852
2204
2069
1680
1394
1348
1405
1370
1202
986
773
525
191
-176
-443
-540
-551
-608
-742
-830
-750
-537
-345
-298
-386
-522
-675
-868
-1069
-1173
-1117
-971
-883
-898
-912
-818
-656
-561
-593
-663
-662
-605
-603
-696
-770
-701
-512
-366
-386
-515
-590
-517
-377
-301
-338
-422
-476
-508
-563
-637
-656
-570
-446
-407
-481
-570
-567
-480
-428
-466
-528
-518
-466
-498
-662
-833
-831
-644
-466
-494
-705
-882
-849
-652
-509
-567
-749
-854
-811
-753
-835
-1014
-1068
-880
-626
-592
-824
-1055
-1017
-752
-553
-611
-818
-944
-927
-870
-850
-790
-630
-450
-382
-431
-448
-335
-157
-64
-94
-138
-94
12
83
74
34
32
90
186
286
348
326
220
118
137
300
468
484
346
221
261
428
548
524
430
386
390
347
237
185
287
465
524
391
198
143
250
360
325
167
16
-58
-106
-199
-309
-334
-241
-133
-133
-238
-309
-240
-96
-50
-174
-345
-385
-278
-185
-247
-423
-549
-555
-524
-567
-671
-729
-681
-589
-543
-558
-571
-527
-439
-360
-329
-346
-398
-466
-518
-528
-482
-397
-298
-191
-81
12
64
79
88
113
138
133
108
123
204
287
296
229
181
227
322
352
276
167
107
86
48
9
45
163
247
192
52
11
172
413
517
390
175
107
279
561
719
634
415
287
371
560
660
599
470
398
388
345
209
5
-207
-420
-658
-929
-1209
-1482
-1752
-2002
-2156
-2102
-1759
-1148
-399
326
946
1503
2093
2708
3191
3364
3211
2894
2599
2374
2149
1858
1524
1207
948
753
617
526
426
287
150
82
94
100
13
-136
-232
-233
-241
-385
-640
-831
-821
-691
-646
-765
-913
-923
-807
-740
-819
-928
-895
-728
-612
-663
-772
-765
-633
-562
-692
-932
-1054
-951
-742
-621
-662
-763
-785
-698
-606
-618
-743
-889
-960
-969
-997
-1064
-1082
-969
-781
-673
-707
-773
-729
-603
-563
-700
-916
-1048
-1070
-1100
-1229
-1390
-1454
-1393
-1294
-1239
-1207
-1124
-975
-830
-760
-760
-768
-758
-785
-934
-1213
-1515
-1710
-1770
-1748
-1684
-1547
-1305
-1035
-880
-879
-926
-920
-916
-1047
-1302
-1476
-1386
-1091
-814
-668
-545
-310
-9
178
152
8
-105
-138
-135
-108
-12
170
374
519
599
656
698
678
568
416
290
226
215
236
288
368
448
493
499
493
508
554
605
595
474
279
122
113
255
438
541
524
444
377
358
355
294
103
-239
-649
-969
-1077
-982
-815
-689
-588
-410
-105
248
500
568
472
298
115
-35
-138
-199
-237
-275
-314
-325
-274
-167
-49
10
-31
-132
-201
-173
-85
-38
-80
-144
-121
10
167
255
250
157
-47
-374
-762
-1081
-1244
-1279
-1261
-1188
-966
-536
40
634
1145
1526
1744
1766
1627
1448
1353
1347
1330
1217
1046
914
851
777
605
375
243
324
570
805
900
880
849
834
742
460
-13
-553
-1014
-1309
-1415
-1319
-1050
-698
-380
-162
-23
70
74
-91
-435
-844
-1180
-1417
-1614
-1803
-1921
-1867
-1609
-1201
-711
-182
369
943
1563
2235
2886
3349
3468
3264
2974
2867
3029
3285
3346
3040
2422
1722
1137
697
263
-302
-952
-1450
-1559
-1271
-834
-534
-454
-470
-434
-358
-381
-575
-845
-1023
-1037
-953
-879
-848
-819
-760
-697
-680
-734
-835
-938
-998
-974
-846
-639
-407
-207
-60
21
12
-101
-278
-428
-485
-473
-479
-544
-623
-633
-543
-411
-319
-311
-366
-429
-448
-413
-369
-402
-537
-694
-753
-690
-620
-668
-821
-947
-970
-970
-1046
-1141
-1049
-642
-40
478
722
707
556
336
20
-430
-981
-1536
-1985
-2238
-2253
-2054
-1724
-1365
-1031
-731
-479
-309
-256
-303
-386
-472
-581
-741
-919
-1014
-928
-645
-242
163
466
614
627
597
611
671
683
551
305
99
45
113
176
155
74
-21
-137
-290
-444
-524
-514
-479
-457
-388
-206
58
269
316
230
126
56
-24
-158
-299
-346
-264
-120
-5
57
115
229
414
628
793
832
722
512
293
113
-85
-394
-811
-1192
-1365
-1283
-1055
-833
-681
-570
-463
-366
-316
-336
-410
-500
-573
-615
-636
-655
-666
-639
-560
-474
-453
-518
-603
-613
-523
-385
-263
-183
-143
-143
-184
-246
-289
-283
-227
-149
-82
-57
-81
-127
-139
-85
2
47
7
-77
-121
-93
-39
-31
-90
-169
-213
-215
-204
-198
-183
-146
-108
-97
-111
-119
-96
-62
-58
-115
-229
-367
-485
-544
-536
-511
-549
-691
-878
-999
-992
-913
-861
-858
-822
-666
-414
-197
-123
-190
-319
-464
-655
-908
-1170
-1361
-1456
-1494
-1487
-1348
-971
-378
246
717
1016
1273
1575
1858
1998
1967
1845
1686
1469
1194
938
759
549
97
-675
-1538
-2121
-2241
-2064
-1898
-1894
-1942
-1851
-1580
-1265
-1048
-951
-896
-828
-753
-676
-536
-268
101
426
569
507
322
110
-79
-220
-294
-311
-334
-409
-481
-429
-210
44
126
-53
-371
-629
-725
-704
-669
-664
-665
-643
-610
-608
-653
-719
-768
-797
-821
-839
-813
-713
-581
-523
-637
-933
-1338
-1742
-2057
-2239
-2284
-2223
-2098
-1922
-1667
-1279
-761
-217
186
328
213
-35
-272
-431
-550
-707
-932
-1165
-1304
-1296
-1178
-1062
-1036
-1104
-1206
-1288
-1337
-1363
-1367
-1347
-1320
-1307
-1295
-1247
-1151
-1061
-1044
-1102
-1165
-1184
-1176
-1190
-1229
-1247
-1213
-1130
-1018
-874
-711
-588
-550
-580
-612
-619
-657
-783
-957
-1062
-1034
-924
-835
-797
-742
-599
-380
-176
-78
-112
-249
-459
-721
-999
-1227
-1337
-1313
-1200
-1036
-808
-474
-40
405
748
936
995
967
865
700
511
349
243
178
126
85
66
65
60
29
-18
-62
-93
-123
-158
-177
-153
-113
-119
-210
-341
-430
-455
-483
-571
-671
-677
-560
-444
-480
-670
-859
-906
-833
-778
-833
-950
-1021
-985
-884
-807
-810
-897
-1024
-1122
-1144
-1118
-1109
-1147
-1181
-1142
-1047
-1008
-1108
-1309
-1498
-1611
-1673
-1712
-1702
-1619
-1525
-1517
-1581
-1583
-1409
-1116
-875
-769
-704
-539
-240
106
399
575
591
441
204
19
-43
-62
-179
-409
-600
-604
-436
-234
-111
-76
-91
-163
-315
-529
-754
-959
-1165
-1392
-1616
-1795
-1923
-2007
-2002
-1797
-1331
-688
-61
443
883
1376
1893
2243
2283
2109
1992
2074
2219
2154
1772
1231
770
472
232
-75
-456
-818
-1065
-1164
-1124
-994
-857
-792
-822
-894
-941
-975
-1058
-1217
-1380
-1433
-1353
-1239
-1189
-1173
-1075
-865
-689
-717
-948
-1174
-1217
-1131
-1109
-1240
-1396
-1412
-1314
-1279
-1392
-1523
-1491
-1309
-1160
-1170
-1252
-1250
-1149
-1087
-1148
-1239
-1213
-1071
-957
-977
-1072
-1104
-1030
-943
-954
-1058
-1154
-1149
-1055
-964
-952
-1021
-1108
-1155
-1149
-1129
-1148
-1227
-1334
-1414
-1423
-1355
-1242
-1134
-1062
-1036
-1049
-1079
-1104
-1103
-1090
-1114
-1229
-1413
-1561
-1545
-1355
-1141
-1096
-1260
-1456
-1465
-1234
-945
-827
-923
-1067
-1079
-946
-796
-736
-744
-740
-708
-696
-725
-738
-679
-574
-503
-514
-578
-621
-602
-533
-461
-426
-433
-453
-456
-431
-383
-312
-210
-103
-56
-115
-229
-279
-214
-121
-124
-252
-405
-480
-475
-470
-512
-566
-576
-535
-487
-484
-532
-590
-611
-590
-566
-585
-645
-680
-633
-535
-488
-551
-653
-679
-601
-518
-532
-618
-652
-568
-456
-466
-628
-813
-874
-812
-760
-820
-954
-1041
-1014
-923
-859
-851
-860
-850
-831
-831
-845
-840
-800
-745
-690
-626
-537
-440
-386
-384
-388
-350
-281
-241
-256
-274
-245
-208
-246
-361
-444
-400
-283
-243
-340
-459
-442
-288
-164
-223
-430
-622
-688
-667
-665
-732
-827
-892
-905
-878
-824
-762
-722
-732
-782
-825
-847
-881
-952
-1033
-1069
-1046
-1021
-1043
-1085
-1073
-990
-888
-832
-833
-855
-885
-951
-1079
-1271
-1509
-1763
-2002
-2179
-2271
-2304
-2297
-2183
-1847
-1265
-575
25
453
821
1274
1795
2203
2324
2180
1950
1794
1732
1640
1406
1031
609
247
-9
-170
-276
-367
-479
-617
-730
-737
-636
-547
-617
-869
-1139
-1241
-1167
-1080
-1132
-1279
-1345
-1223
-997
-828
-782
-800
-812
-811
-845
-912
-932
-853
-725
-666
-713
-780
-767
-677
-615
-641
-679
-613
-453
-344
-414
-617
-791
-823
-764
-742
-822
-952
-1012
-918
-692
-457
-344
-397
-522
-575
-506
-403
-389
-476
-556
-540
-460
-436
-509
-582
-550
-437
-389
-516
-771
-984
-1029
-933
-837
-843
-932
-996
-957
-835
-721
-707
-800
-917
-956
-910
-854
-880
-978
-1044
-987
-828
-689
-667
-754
-853
-886
-859
-830
-849
-911
-967
-967
-881
-728
-579
-510
-562
-684
-774
-767
-697
-649
-667
-696
-637
-461
-249
-101
-54
-70
-86
-66
-29
-5
-24
-89
-163
-180
-106
4
52
-7
-109
-147
-89
-15
-18
-99
-181
-201
-177
-173
-206
-212
-129
17
131
136
55
-12
18
113
157
60
-158
-362
-409
-281
-107
-33
-66
-71
63
283
414
354
200
128
191
267
222
86
20
117
285
370
331
259
255
315
361
356
343
385
488
582
606
578
575
637
706
687
562
434
414
500
582
588
560
571
619
627
547
422
334
308
309
292
247
209
223
315
459
580
608
548
476
474
530
558
496
372
273
247
259
261
250
268
337
419
450
413
368
379
432
429
297
69
-152
-299
-404
-534
-677
-771
-810
-883
-1057
-1227
-1148
-680
26
613
875
979
1285
1940
2664
3015
2827
2354
1980
1833
1747
1552
1280
1072
934
719
356
-3
-119
40
211
89
-361
-852
-1037
-838
-482
-255
-227
-222
-63
235
511
659
736
840
942
908
685
408
257
264
308
280
206
156
128
60
-30
-32
93
205
120
-158
-400
-403
-218
-69
-81
-156
-142
-51
-22
-110
-197
-146
8
107
60
-68
-143
-121
-56
10
87
157
155
54
-75
-138
-130
-146
-257
-422
-530
-536
-479
-410
-354
-335
-393
-515
-615
-611
-534
-506
-590
-703
-717
-611
-495
-474
-534
-588
-594
-575
-553
-521
-468
-411
-385
-390
-384
-343
-290
-269
-290
-331
-359
-353
-301
-212
-107
-9
73
154
253
359
428
437
415
430
509
604
643
612
574
600
688
762
769
736
731
770
800
775
716
681
674
638
543
435
377
353
289
159
43
33
126
227
270
298
394
560
705
752
706
620
517
397
287
236
239
217
115
0
7
161
300
226
-87
-454
-675
-703
-641
-577
-494
-323
-43
295
617
875
1041
1091
1036
928
831
774
745
731
726
726
725
733
771
819
804
668
476
390
535
869
1227
1478
1611
1671
1645
1466
1135
777
538
442
382
272
164
202
442
749
895
761
450
170
51
60
83
55
-1
-27
17
147
353
575
708
677
526
378
326
353
378
351
272
153
-13
-212
-384
-473
-494
-505
-535
-542
-439
-165
251
686
1009
1193
1352
1649
2129
2663
3069
3276
3341
3343
3294
3169
2952
2633
2170
1544
857
299
2
-88
-125
-179
-168
23
389
800
1128
1343
1478
1547
1504
1301
966
590
245
-55
-339
-596
-768
-807
-731
-599
-443
-237
25
279
423
434
382
356
363
342
248
106
-22
-90
-97
-62
0
80
174
289
436
613
777
861
811
620
336
25
-247
-426
-473
-372
-154
109
354
551
693
767
740
592
342
46
-219
-384
-408
-302
-132
19
103
124
99
23
-112
-288
-436
-476
-366
-125
175
444
609
638
550
380
137
-181
-530
-806
-915
-870
-785
-763
-772
-682
-437
-149
9
-13
-77
-24
150
301
316
250
237
317
387
347
228
158
204
301
344
316
304
390
554
703
763
745
722
747
810
856
843
793
757
764
774
725
606
491
462
529
608
613
542
476
470
500
505
484
497
573
645
625
507
396
373
406
396
295
150
35
-30
-68
-87
-80
-59
-66
-115
-163
-156
-101
-63
-87
-153
-200
-186
-119
-38
27
71
114
190
307
417
442
348
177
15
-89
-152
-194
-194
-111
59
277
498
704
876
965
921
750
519
310
176
134
185
304
433
515
539
552
603
676
711
652
518
401
411
580
819
979
976
867
780
766
748
633
458
359
417
545
592
516
419
402
434
407
275
103
-16
-77
-136
-232
-340
-413
-435
-399
-267
5
431
949
1474
1982
2495
3003
3402
3553
3407
3071
2731
2492
2313
2079
1740
1362
1068
922
883
849
734
531
297
119
52
95
195
284
321
312
297
312
360
408
430
422
407
405
421
438
433
392
323
258
236
273
339
377
367
342
352
393
414
379
315
271
262
260
234
188
133
67
-20
-123
-215
-274
-298
-303
-305
-302
-292
-273
-265
-276
-287
-257
-169
-71
-35
-87
-168
-205
-193
-201
-294
-455
-617
-726
-762
-731
-653
-569
-524
-535
-573
-597
-613
-666
-782
-932
-1065
-1150
-1168
-1118
-1010
-890
-820
-822
-861
-902
-954
-1045
-1161
-1239
-1239
-1178
-1089
-962
-754
-495
-301
-272
-372
-466
-487
-517
-669
-904
-1049
-987
-788
-614
-521
-416
-219
13
147
148
114
140
205
222
170
135
201
353
501
591
638
681
729
770
809
859
913
953
985
1039
1133
1254
1375
1483
1565
1589
1522
1372
1183
985
779
582
474
541
781
1083
1338
1526
1679
1787
1783
1626
1367
1096
846
594
337
146
102
190
301
325
237
105
-4
-70
-134
-231
-349
-430
-418
-302
-133
24
131
179
185
169
149
138
139
140
140
151
183
238
300
365
451
570
692
758
729
636
547
494
441
350
259
261
395
607
796
927
1037
1152
1235
1216
1077
861
609
320
1
-281
-418
-343
-82
290
692
1080
1438
1755
2011
2167
2179
2048
1829
1598
1385
1167
929
691
494
346
203
30
-158
-313
-373
-273
30
500
1019
1482
1882
2314
2824
3306
3571
3529
3277
3028
2918
2922
2900
2740
2443
2117
1870
1711
1557
1337
1082
896
824
802
738
631
559
566
583
510
335
152
56
39
33
-4
-41
-30
15
33
-25
-131
-202
-194
-160
-198
-323
-413
-350
-179
-85
-196
-422
-556
-513
-424
-457
-611
-735
-723
-646
-634
-711
-775
-746
-657
-590
-584
-600
-592
-560
-525
-505
-502
-513
-546
-599
-656
-694
-691
-645
-598
-603
-660
-694
-628
-485
-384
-410
-506
-540
-463
-364
-351
-426
-491
-475
-420
-401
-434
-457
-412
-309
-221
-189
-197
-189
-115
6
118
163
144
120
140
186
209
198
204
283
431
586
683
714
712
699
678
642
594
561
563
603
673
756
844
939
1033
1112
1161
1175
1163
1145
1133
1125
1122
1123
1138
1171
1212
1238
1219
1144
1043
957
917
920
943
954
934
884
826
781
764
755
710
603
457
335
292
321
363
362
321
285
291
334
374
373
322
220
72
-90
-214
-258
-243
-235
-278
-343
-367
-330
-285
-293
-350
-399
-398
-368
-370
-421
-467
-432
-309
-167
-98
-128
-197
-209
-135
-28
27
3
-44
-33
45
128
143
91
34
29
59
74
51
21
30
86
152
179
138
55
-6
14
115
230
281
254
212
225
304
398
458
481
487
475
438
392
382
416
454
438
366
302
306
356
363
252
51
-136
-252
-348
-520
-783
-1043
-1187
-1202
-1139
-998
-692
-167
477
1056
1477
1824
2212
2606
2838
2794
2552
2297
2153
2097
2016
1826
1525
1177
869
670
590
573
521
384
199
66
56
142
216
180
42
-94
-127
-71
-25
-58
-132
-168
-135
-73
-38
-59
-143
-277
-400
-436
-378
-335
-419
-591
-656
-495
-250
-195
-430
-740
-831
-649
-422
-389
-557
-742
-801
-769
-763
-826
-896
-894
-825
-759
-737
-731
-691
-605
-523
-519
-620
-774
-894
-940
-937
-942
-988
-1063
-1120
-1113
-1014
-840
-657
-529
-479
-475
-481
-513
-602
-742
-872
-941
-967
-994
-1019
-983
-845
-650
-482
-391
-361
-376
-440
-543
-631
-656
-642
-666
-760
-849
-820
-657
-463
-354
-362
-446
-562
-685
-788
-817
-747
-625
-541
-524
-501
-369
-109
181
368
394
314
236
223
248
241
165
62
-3
-7
14
25
35
75
134
168
152
114
101
125
153
149
98
-8
-159
-305
-373
-330
-250
-241
-318
-369
-286
-119
-34
-130
-330
-472
-474
-407
-378
-424
-504
-565
-585
-569
-526
-490
-498
-564
-650
-687
-649
-578
-538
-547
-558
-508
-391
-268
-196
-179
-172
-148
-127
-135
-167
-211
-278
-395
-542
-632
-592
-450
-318
-287
-322
-317
-222
-96
-28
-39
-65
-67
-59
-70
-82
-43
45
115
110
64
62
133
214
219
142
49
-3
-16
-17
-25
-52
-131
-287
-483
-636
-688
-674
-656
-636
-545
-324
3
341
600
736
741
624
394
81
-278
-646
-996
-1304
-1521
-1561
-1328
-786
-36
717
1306
1733
2130
2584
2997
3165
2991
2600
2224
1989
1843
1663
1399
1102
849
686
621
634
659
624
516
387
290
205
93
-29
-90
-75
-65
-140
-254
-275
-158
-17
-7
-132
-256
-282
-269
-328
-464
-569
-566
-498
-460
-472
-468
-413
-368
-416
-547
-669
-710
-697
-710
-768
-817
-809
-763
-745
-779
-832
-866
-881
-898
-918
-913
-867
-807
-773
-783
-817
-848
-870
-901
-956
-1028
-1075
-1064
-1010
-976
-1007
-1065
-1076
-1014
-953
-991
-1133
-1273
-1313
-1269
-1239
-1280
-1350
-1366
-1315
-1251
-1216
-1195
-1147
-1076
-1023
-1011
-1028
-1052
-1073
-1088
-1093
-1087
-1102
-1164
-1243
-1269
-1214
-1142
-1140
-1206
-1241
-1174
-1048
-958
-929
-882
-763
-616
-533
-529
-523
-448
-331
-263
-286
-355
-390
-357
-293
-250
-248
-256
-229
-153
-54
19
39
12
-30
-55
-39
24
128
249
363
458
542
602
602
517
376
254
184
119
-11
-205
-368
-394
-278
-105
39
143
242
349
425
422
333
169
-59
-342
-642
-888
-1033
-1094
-1128
-1157
-1144
-1043
-863
-654
-454
-275
-141
-98
-165
-282
-354
-327
-238
-159
-106
-27
122
320
482
557
582
627
720
809
817
727
605
533
529
537
504
436
395
416
465
484
453
416
418
444
441
401
413
597
972
1394
1673
1734
1648
1523
1367
1092
643
94
-411
-768
-948
-951
-779
-482
-181
7
62
70
102
125
25
-251
-617
-920
-1080
-1155
-1258
-1446
-1668
-1834
-1881
-1791
-1556
-1167
-635
-9
656
1316
1928
2428
2740
2835
2756
2592
2432
2303
2186
2028
1791
1494
1207
971
761
513
213
-51
-159
-38
283
694
1032
1137
969
660
422
319
185
-188
-771
-1263
-1376
-1115
-754
-541
-496
-483
-416
-339
-327
-380
-443
-510
-635
-821
-950
-867
-550
-169
77
150
185
311
471
518
414
269
171
44
-233
-576
-669
-273
492
1209
1527
1430
1141
856
557
93
-643
-1591
-2520
-3145
-3293
-3014
-2544
-2132
-1872
-1695
-1514
-1342
-1259
-1309
-1455
-1617
-1728
-1756
-1703
-1586
-1439
-1308
-1224
-1195
-1209
-1251
-1297
-1330
-1327
-1268
-1143
-970
-805
-731
-793
-953
-1111
-1188
-1183
-1149
-1125
-1095
-1018
-890
-757
-664
-612
-560
-485
-416
-405
-450
-495
-487
-432
-379
-363
-359
-318
-225
-126
-86
-122
-195
-241
-229
-187
-163
-171
-177
-142
-74
-22
-32
-89
-153
-202
-245
-290
-319
-315
-291
-275
-270
-253
-216
-186
-192
-228
-262
-283
-305
-341
-371
-378
-386
-429
-501
-538
-495
-407
-364
-418
-520
-585
-582
-557
-567
-626
-704
-760
-785
-795
-807
-830
-853
-865
-867
-876
-903
-907
-808
-558
-195
166
417
534
560
524
400
138
-258
-712
-1120
-1409
-1546
-1523
-1358
-1121
-916
-819
-813
-827
-829
-870
-1010
-1245
-1482
-1615
-1590
-1448
-1274
-1151
-1103
-1075
-1005
-915
-925
-1137
-1514
-1898
-2141
-2217
-2204
-2164
-2080
-1893
-1561
-1131
-736
-544
-658
-1034
-1497
-1874
-2094
-2182
-2170
-2057
-1846
-1567
-1265
-959
-689
-573
-742
-1180
-1645
-1827
-1594
-1074
-493
44
607
1275
1971
2486
2653
2478
2118
1741
1413
1108
791
473
198
-6
-153
-298
-490
-730
-964
-1117
-1159
-1132
-1112
-1139
-1190
-1220
-1219
-1221
-1270
-1383
-1544
-1719
-1874
-1984
-2046
-2069
-2064
-2031
-1971
-1883
-1772
-1644
-1511
-1420
-1440
-1631
-1973
-2347
-2608
-2678
-2595
-2458
-2325
-2170
-1934
-1605
-1261
-1034
-1016
-1190
-1455
-1692
-1842
-1930
-1996
-2037
-2023
-1954
-1874
-1828
-1813
-1785
-1728
-1680
-1678
-1708
-1719
-1696
-1694
-1774
-1919
-2043
-2081
-2047
-2001
-1960
-1872
-1693
-1449
-1219
-1062
-977
-945
-982
-1110
-1302
-1473
-1545
-1536
-1530
-1575
-1624
-1594
-1463
-1305
-1189
-1110
-1016
-890
-776
-700
-614
-431
-112
285
640
832
788
523
153
-170
-384
-570
-861
-1258
-1584
-1632
-1371
-985
-695
-570
-519
-446
-353
-313
-358
-445
-522
-587
-666
-749
-776
-702
-566
-465
-470
-575
-707
-800
-840
-855
-874
-907
-958
-1031
-1110
-1141
-1047
-806
-495
-231
-79
-16
-16
-140
-493
-1090
-1785
-2364
-2712
-2866
-2904
-2833
-2598
-2185
-1683
-1222
-893
-709
-644
-662
-734
-834
-925
-977
-968
-897
-789
-673
-561
-442
-317
-217
-171
-180
-194
-153
-48
84
193
250
263
269
292
335
373
386
385
405
466
541
569
521
434
379
392
436
458
452
461
511
570
583
540
487
464
460
430
361
285
245
258
304
352
378
372
333
279
237
214
181
106
5
-53
-17
80
139
101
-1
-83
-130
-234
-484
-833
-1137
-1305
-1396
-1517
-1649
-1624
-1297
-708
-64
446
806
1129
1512
1922
2239
2367
2311
2160
2013
1911
1825
1698
1496
1235
957
719
552
456
389
309
190
66
-14
-34
-24
-24
-70
-167
-279
-356
-356
-283
-195
-161
-197
-236
-209
-128
-67
-89
-184
-287
-337
-312
-225
-126
-84
-137
-249
-327
-330
-307
-335
-401
-400
-267
-86
-7
-72
-170
-174
-93
-58
-146
-282
-337
-268
-144
-54
-11
17
47
53
10
-72
-170
-258
-323
-360
-377
-388
-390
-355
-261
-144
-89
-152
-271
-340
-321
-292
-354
-493
-594
-563
-449
-367
-366
-379
-324
-212
-146
-190
-285
-316
-227
-80
16
18
-18
9
139
316
431
424
336
263
273
349
423
451
455
487
570
672
763
845
931
1009
1032
987
922
910
954
982
936
856
845
945
1093
1187
1211
1241
1335
1454
1491
1402
1250
1129
1064
997
878
736
652
660
705
703
640
577
575
595
542
382
193
91
104
145
121
35
-37
-38
10
55
68
48
-3
-91
-195
-275
-302
-288
-255
-214
-157
-92
-42
-15
5
35
72
89
84
88
126
200
292
392
497
588
631
612
564
523
498
481
477
509
561
577
529
473
487
568
614
540
393
301
330
413
465
497
571
681
730
673
598
621
716
739
614
455
421
516
592
556
486
505
616
717
747
749
779
797
729
597
493
454
392
216
-35
-249
-389
-546
-776
-981
-970
-654
-146
337
680
966
1376
1977
2598
2940
2866
2563
2378
2455
2571
2417
1976
1563
1458
1571
1572
1315
1011
919
1009
1018
815
575
517
624
653
462
189
61
115
181
114
-28
-98
-49
24
13
-75
-149
-146
-83
-26
-2
22
74
136
165
126
47
-24
-76
-124
-190
-269
-332
-354
-329
-245
-76
176
445
613
597
438
276
219
233
154
-125
-505
-749
-714
-494
-310
-280
-323
-303
-204
-126
-148
-264
-418
-589
-764
-869
-827
-656
-480
-409
-434
-466
-474
-523
-663
-849
-974
-986
-931
-886
-851
-758
-564
-333
-223
-345
-651
-958
-1094
-1031
-898
-809
-741
-571
-235
181
515
674
697
693
714
712
623
456
314
305
431
576
601
482
341
332
473
624
657
607
636
832
1101
1273
1289
1241
1231
1237
1176
1026
868
782
786
850
936
1009
1011
917
783
714
742
804
827
813
808
824
823
804
817
883
920
841
665
515
473
480
422
284
189
244
404
499
411
204
72
130
277
282
49
-273
-426
-318
-110
-31
-110
-176
-71
177
391
459
418
353
296
236
191
206
255
231
65
-125
-97
242
677
851
636
272
114
232
370
274
17
-105
62
359
542
569
615
786
968
965
759
540
474
539
589
567
538
577
665
722
724
727
773
809
751
588
396
255
182
124
10
-197
-476
-759
-947
-975
-841
-573
-185
328
942
1558
2068
2430
2679
2863
2948
2850
2536
2120
1781
1597
1482
1298
1017
759
642
638
613
509
416
437
515
484
284
64
35
214
392
350
68
-266
-449
-430
-324
-291
-405
-601
-740
-748
-664
-583
-533
-452
-288
-82
68
140
195
285
363
349
224
52
-74
-103
-29
114
272
370
363
279
199
172
187
194
165
112
75
86
159
257
305
245
113
-1
-57
-121
-272
-476
-604
-564
-427
-333
-332
-336
-264
-184
-256
-546
-981
-1417
-1744
-1933
-1979
-1893
-1689
-1363
-910
-392
-28
-110
-748
-1702
-2519
-2898
-2875
-2662
-2357
-1834
-956
207
1394
2336
2896
3043
2802
2265
1598
1006
611
417
358
391
512
717
955
1151
1226
1120
841
487
218
143
237
361
397
365
361
409
398
199
-162
-494
-615
-512
-338
-231
-183
-89
116
393
667
891
1052
1137
1107
944
681
384
133
-12
-18
117
384
791
1336
1936
2381
2440
2070
1470
902
442
-53
-703
-1401
-1873
-1938
-1673
-1319
-1062
-922
-804
-653
-517
-493
-620
-826
-976
-991
-900
-779
-635
-416
-147
21
-68
-387
-729
-917
-964
-979
-960
-759
-289
309
770
985
1095
1290
1561
1702
1566
1253
999
924
934
890
791
734
760
776
680
495
324
213
115
19
33
271
690
1068
1200
1075
855
674
517
274
-115
-587
-991
-1214
-1262
-1245
-1265
-1320
-1329
-1245
-1112
-970
-752
-330
289
897
1277
1435
1606
1937
2280
2338
2013
1555
1312
1396
1626
1764
1743
1649
1554
1421
1182
834
445
63
-297
-616
-826
-854
-710
-502
-350
-297
-291
-264
-217
-208
-272
-380
-464
-477
-426
-352
-290
-277
-332
-428
-504
-510
-450
-372
-303
-228
-129
-34
5
-37
-135
-246
-350
-441
-499
-498
-440
-345
-239
-131
-42
-13
-53
-120
-171
-217
-315
-481
-632
-657
-537
-378
-293
-286
-288
-271
-291
-397
-542
-624
-622
-645
-813
-1117
-1418
-1598
-1658
-1681
-1695
-1644
-1468
-1180
-852
-536
-255
-30
94
86
-37
-219
-408
-573
-693
-771
-841
-922
-972
-913
-721
-500
-403
-476
-615
-679
-629
-532
-469
-455
-458
-463
-474
-481
-454
-380
-283
-197
-126
-51
37
116
151
143
120
105
97
77
42
13
7
8
-21
-98
-190
-245
-230
-168
-110
-86
-88
-92
-91
-99
-130
-183
-238
-273
-286
-282
-251
-182
-81
7
36
1
-50
-81
-113
-199
-355
-525
-631
-644
-599
-545
-513
-497
-479
-454
-431
-447
-553
-764
-1019
-1212
-1259
-1168
-1017
-865
-709
-495
-204
104
330
423
481
344
237
67
-165
-402
-564
-610
-561
-473
-392
-331
-259
-132
39
153
64
-289
-812
-1308
-1622
-1736
-1715
-1599
-1372
-999
-483
110
658
1008
1042
759
303
-121
-379
-477
-489
-451
-304
17
483
950
1234
1228
948
504
23
-405
-760
-1053
-1289
-1434
-1466
-1395
-1265
-1095
-857
-519
-117
268
610
993
1508
2099
2560
2713
2560
2244
1893
1523
1107
660
250
-61
-244
-290
-212
-62
83
190
281
369
392
257
-53
-420
-690
-802
-801
-758
-698
-600
-443
-236
-25
132
178
84
-136
-446
-805
-1172
-1476
-1641
-1636
-1507
-1329
-1128
-865
-516
-142
153
309
338
262
70
-254
-667
-1063
-1354
-1524
-1597
-1588
-1485
-1273
-970
-616
-277
-37
35
-63
-250
-418
-527
-615
-734
-877
-991
-1041
-1051
-1066
-1103
-1142
-1170
-1209
-1299
-1439
-1581
-1659
-1649
-1585
-1522
-1493
-1486
-1475
-1450
-1419
-1390
-1359
-1331
-1326
-1370
-1466
-1586
-1690
-1760
-1792
-1779
-1712
-1594
-1447
-1301
-1166
-1050
-972
-969
-1058
-1210
-1344
-1385
-1308
-1148
-956
-761
-561
-352
-147
24
133
168
131
45
-58
-140
-167
-127
-37
74
179
269
353
438
513
557
562
550
554
588
629
641
612
561
511
468
423
376
340
326
329
329
314
291
268
244
200
126
38
-34
-70
-80
-94
-130
-177
-205
-200
-186
-201
-264
-352
-426
-467
-496
-545
-619
-686
-708
-686
-650
-623
-605
-590
-589
-615
-661
-696
-711
-724
-759
-802
-813
-768
-689
-620
-573
-531
-471
-398
-341
-327
-374
-507
-741
-1048
-1335
-1475
-1398
-1148
-840
-558
-288
31
414
767
959
924
719
460
235
61
-76
-182
-233
-209
-135
-65
-37
-43
-56
-82
-164
-333
-549
-715
-759
-702
-622
-580
-586
-634
-745
-950
-1236
-1540
-1788
-1937
-1996
-2004
-2004
-1989
-1868
-1518
-914
-200
417
848
1187
1568
1985
2275
2302
2104
1845
1644
1504
1362
1176
953
702
442
206
23
-111
-233
-372
-508
-608
-667
-707
-747
-785
-799
-781
-743
-714
-730
-807
-924
-1020
-1049
-1028
-1028
-1092
-1185
-1233
-1203
-1136
-1098
-1110
-1135
-1121
-1053
-967
-903
-885
-902
-927
-946
-958
-959
-939
-889
-823
-773
-762
-792
-838
-886
-936
-993
-1050
-1100
-1146
-1210
-1284
-1331
-1316
-1247
-1184
-1178
-1208
-1214
-1183
-1172
-1244
-1384
-1503
-1543
-1524
-1496
-1460
-1364
-1200
-1043
-983
-1017
-1057
-1034
-985
-1002
-1114
-1245
-1301
-1267
-1200
-1165
-1176
-1204
-1215
-1198
-1153
-1098
-1069
-1084
-1112
-1097
-1009
-891
-810
-791
-812
-838
-858
-874
-875
-837
-771
-720
-713
-713
-652
-505
-323
-185
-129
-122
-103
-38
52
124
138
91
25
-13
9
90
212
332
410
433
425
429
464
480
416
270
115
23
-14
-55
-119
-149
-82
54
169
210
222
280
378
430
371
236
115
38
-38
-146
-246
-262
-193
-132
-156
-245
-309
-303
-274
-298
-384
-464
-488
-466
-451
-453
-438
-391
-353
-398
-550
-740
-870
-901
-882
-888
-941
-986
-957
-838
-682
-563
-516
-510
-483
-407
-304
-229
-208
-219
-216
-179
-146
-163
-233
-307
-325
-282
-224
-195
-209
-244
-280
-318
-360
-401
-426
-419
-390
-368
-366
-373
-350
-278
-196
-174
-248
-383
-491
-513
-470
-428
-436
-479
-507
-491
-455
-440
-468
-515
-549
-576
-612
-657
-691
-710
-756
-899
-1163
-1497
-1814
-2060
-2226
-2306
-2252
-1989
-1485
-818
-122
504
1044
1535
1982
2319
2460
2392
2196
1991
1839
1706
1513
1214
842
481
192
-20
-196
-370
-535
-675
-797
-917
-1014
-1044
-995
-935
-964
-1110
-1284
-1389
-1412
-1419
-1461
-1518
-1540
-1530
-1529
-1560
-1591
-1593
-1577
-1575
-1599
-1629
-1654
-1708
-1814
-1948
-2045
-2063
-2023
-1984
-1976
-1981
-1963
-1924
-1895
-1919
-2000
-2104
-2197
-2262
-2307
-2353
-2408
-2471
-2534
-2594
-2667
-2779
-2918
-3028
-3050
-2989
-2926
-2943
-3031
-3110
-3125
-3114
-3161
-3288
-3427
-3506
-3534
-3568
-3641
-3706
-3697
-3610
-3515
-3492
-3563
-3689
-3794
-3822
-3768
-3676
-3611
-3605
-3624
-3613
-3544
-3442
-3350
-3303
-3303
-3336
-3386
-3416
-3400
-3331
-3222
-3109
-3009
-2925
-2841
-2735
-2606
-2479
-2403
-2401
-2441
-2437
-2331
-2151
-1981
-1877
-1806
-1695
-1523
-1341
-1207
-1127
-1063
-991
-918
-847
-768
-688
-650
-685
-756
-787
-748
-692
-684
-723
-743
-711
-659
-639
-649
-653
-641
-644
-686
-733
-740
-705
-664
-643
-630
-608
-591
-598
-627
-656
-674
-694
-728
-766
-799
-835
-883
-920
-918
-890
-891
-950
-1020
-1023
-956
-914
-984
-1135
-1247
-1252
-1217
-1266
-1429
-1598
-1651
-1570
-1454
-1403
-1425
-1455
-1437
-1370
-1289
-1219
-1162
-1119
-1090
-1064
-1020
-941
-841
-756
-714
-699
-674
-606
-512
-428
-375
-340
-299
-254
-224
-217
-208
-165
-93
-26
22
74
153
228
232
146
40
5
45
71
9
-103
-149
-86
2
0
-88
-142
-71
73
159
140
99
137
236
285
211
52
-116
-272
-452
-675
-887
-1016
-1066
-1107
-1191
-1273
-1221
-913
-345
344
980
1490
1947
2471
3064
3569
3794
3693
3408
3137
2962
2823
2609
2279
1893
1567
1367
1268
1170
984
718
469
329
305
323
302
234
163
131
141
157
144
95
38
6
25
96
183
234
222
156
70
-6
-63
-107
-140
-136
-73
28
114
136
106
72
68
81
70
23
-26
-34
6
59
88
84
78
104
175
259
293
236
117
23
26
101
161
145
93
87
158
257
310
296
245
188
120
41
-19
-32
-13
-15
-68
-148
-207
-221
-212
-209
-230
-275
-339
-412
-470
-488
-453
-387
-318
-264
-221
-170
-97
-16
41
53
31
9
13
30
31
13
6
43
126
222
295
330
351
389
462
539
574
559
540
583
695
812
871
876
883
912
886
685
263
-289
-778
-1032
-1021
-847
-607
-260
356
1325
2495
3532
4176
4421
4441
4365
4163
3740
3086
2310
1565
980
631
502
478
408
241
77
46
142
223
178
50
-26
18
122
183
167
117
81
63
54
58
96
182
308
461
640
852
1080
1276
1410
1498
1572
1628
1630
1575
1541
1610
1767
1907
1982
2074
2280
2537
2647
2491
2173
1893
1720
1554
1289
980
762
681
643
555
439
379
410
469
480
412
294
179
126
182
341
535
691
806
938
1134
1366
1544
1610
1588
1533
1466
1364
1216
1057
941
898
913
963
1041
1137
1228
1268
1223
1102
940
757
561
366
196
71
-3
-17
61
280
666
1179
1739
2303
2899
3562
4242
4782
5010
4869
4445
3891
3336
2825
2331
1828
1331
916
673
645
777
933
998
949
842
745
685
658
650
631
579
510
492
583
736
810
677
368
51
-115
-109
-16
99
244
446
704
981
1247
1481
1644
1689
1608
1453
1306
1205
1135
1061
981
930
932
969
998
996
978
963
939
874
761
646
598
644
737
790
747
623
486
404
407
469
533
546
509
471
486
546
580
519
357
155
-17
-129
-182
-186
-141
-52
61
170
267
362
457
525
522
428
268
106
3
-25
5
62
118
152
152
131
123
144
167
139
44
-69
-117
-52
102
277
418
522
614
709
801
861
871
833
779
740
713
673
620
601
673
838
1024
1157
1224
1275
1353
1447
1503
1477
1365
1197
1010
846
737
703
736
798
847
857
843
841
864
895
891
831
733
631
547
490
468
499
586
688
750
743
689
635
604
578
521
416
281
161
102
118
179
237
266
291
355
464
580
656
702
758
833
894
911
912
941
992
1013
981
947
977
1048
1060
967
856
842
914
926
771
524
370
404
553
694
808
977
1227
1450
1505
1375
1186
1061
998
925
831
816
975
1274
1573
1754
1815
1827
1809
1714
1505
1229
994
870
864
950
1099
1263
1378
1387
1278
1080
809
454
12
-463
-874
-1112
-1101
-814
-298
320
900
1402
1908
2524
3229
3860
4237
4303
4145
3895
3635
3378
3096
2766
2379
1939
1480
1068
786
666
676
738
800
873
999
1194
1397
1511
1475
1299
1037
759
530
401
393
487
632
774
864
878
799
634
427
238
105
0
-138
-338
-548
-672
-658
-554
-456
-417
-399
-327
-174
20
210
384
537
640
644
535
349
141
-51
-217
-349
-433
-466
-457
-416
-356
-303
-295
-358
-475
-591
-654
-663
-657
-666
-692
-724
-763
-815
-871
-899
-884
-851
-845
-873
-893
-858
-771
-698
-691
-735
-759
-704
-589
-493
-467
-493
-513
-500
-478
-483
-507
-513
-479
-429
-391
-355
-295
-204
-117
-65
-28
43
175
341
502
669
885
1151
1377
1443
1335
1159
1044
1003
938
776
570
448
474
597
729
835
911
939
889
787
719
728
762
735
648
606
696
888
1067
1164
1202
1239
1283
1296
1253
1178
1114
1073
1042
999
938
848
719
559
409
337
378
486
549
486
332
228
274
418
513
473
368
345
463
634
723
697
602
480
323
154
74
162
350
461
412
351
511
921
1323
1405
1114
705
488
560
786
997
1147
1305
1544
1879
2268
2621
2828
2808
2574
2244
1964
1814
1769
1754
1713
1641
1568
1546
1586
1647
1654
1567
1421
1296
1246
1262
1297
1308
1294
1286
1308
1346
1339
1227
1004
743
537
407
284
89
-173
-417
-583
-696
-796
-834
-665
-212
427
1060
1584
2067
2616
3195
3617
3727
3547
3250
3007
2848
2690
2445
2120
1808
1596
1486
1399
1250
1039
833
684
584
509
468
487
543
568
520
423
338
287
255
225
202
193
196
218
280
367
398
309
126
-53
-151
-169
-143
-77
30
134
185
199
234
300
320
239
111
37
21
-31
-171
-298
-261
-64
118
142
56
26
124
238
226
77
-97
-193
-218
-238
-273
-272
-205
-116
-69
-74
-82
-47
16
43
-13
-148
-315
-443
-470
-386
-276
-259
-381
-553
-630
-562
-449
-428
-513
-589
-554
-426
-296
-211
-149
-81
-42
-56
-98
-112
-79
-41
-35
-46
-13
103
279
463
598
646
616
569
587
689
804
841
798
771
852
1025
1191
1262
1245
1213
1218
1255
1291
1309
1326
1360
1414
1471
1508
1527
1542
1564
1583
1572
1523
1465
1441
1458
1488
1508
1513
1497
1439
1315
1160
1052
1034
1069
1072
1004
925
923
1023
1145
1197
1145
1029
913
827
760
693
625
564
527
523
552
606
655
666
627
555
499
494
534
572
576
567
596
685
774
786
694
559
474
467
489
480
438
424
486
601
692
715
714
755
824
829
718
555
478
544
686
791
815
777
702
608
552
607
762
885
837
646
505
570
785
953
950
834
742
732
752
754
751
772
787
725
555
340
180
106
40
-123
-400
-710
-941
-1037
-1002
-827
-475
45
648
1231
1764
2288
2814
3252
3480
3466
3285
3038
2778
2532
2322
2156
1987
1753
1458
1192
1036
969
887
715
488
314
258
305
381
422
407
343
265
210
188
183
159
88
-19
-98
-87
0
69
15
-150
-294
-289
-146
1
42
-1
-21
38
132
182
145
40
-88
-191
-221
-160
-51
20
1
-67
-86
-10
106
153
84
-37
-111
-108
-93
-132
-202
-214
-128
-12
35
-2
-36
18
119
141
12
-190
-319
-306
-233
-232
-337
-450
-449
-333
-213
-181
-220
-249
-238
-246
-332
-465
-551
-555
-534
-548
-583
-569
-474
-344
-246
-215
-242
-304
-362
-383
-364
-368
-469
-643
-745
-650
-403
-188
-138
-197
-187
-20
212
354
370
351
379
432
444
401
379
431
521
566
542
515
562
689
824
892
880
835
821
866
934
958
889
752
626
581
608
634
599
523
483
519
593
631
611
577
582
619
641
628
612
635
698
757
762
720
683
686
705
687
626
573
566
569
523
437
411
527
717
827
772
644
605
699
815
819
687
508
384
353
384
414
400
373
401
516
649
682
597
520
580
749
855
779
593
480
526
650
714
660
548
467
467
536
612
647
644
656
721
790
774
655
531
504
548
541
439
341
355
459
521
485
414
378
335
175
-130
-471
-714
-817
-836
-832
-813
-716
-450
32
674
1322
1835
2189
2465
2741
2993
3115
3028
2752
2386
2043
1796
1630
1472
1265
1039
872
804
785
742
662
577
484
355
212
148
205
285
253
106
-10
3
82
93
14
-49
-13
67
78
1
-67
-51
15
33
-48
-182
-277
-272
-175
-53
14
-4
-60
-79
-37
0
-59
-208
-337
-332
-200
-65
-28
-66
-67
19
114
95
-61
-262
-401
-451
-448
-412
-331
-209
-89
-12
33
58
32
-78
-239
-361
-408
-465
-633
-891
-1108
-1177
-1125
-1058
-1027
-980
-858
-664
-449
-255
-95
19
59
2
-147
-339
-497
-562
-531
-461
-416
-386
-309
-152
30
137
128
54
-10
-38
-46
-30
30
123
209
262
303
368
441
468
440
416
456
552
634
650
616
589
603
641
666
667
668
694
740
775
779
767
767
775
753
676
583
543
576
624
614
547
492
496
534
542
508
481
497
531
527
469
395
342
304
244
154
75
52
86
132
154
164
186
215
221
205
218
301
431
558
703
955
1350
1753
1936
1783
1414
1055
812
590
249
-207
-604
-771
-687
-474
-253
-67
88
187
189
129
110
202
358
461
490
534
681
884
1025
1067
1094
1173
1246
1198
1009
802
744
943
1429
2127
2798
3083
2775
2054
1364
978
716
168
-794
-1833
-2448
-2443
-2041
-1601
-1324
-1207
-1187
-1222
-1263
-1229
-1039
-693
-261
174
606
1118
1795
2598
3325
3730
3717
3421
3083
2843
2685
2538
2383
2233
2069
1829
1495
1136
832
612
450
325
237
190
190
250
355
425
361
146
-104
-251
-263
-225
-211
-202
-144
-39
54
118
190
278
317
237
75
-46
-41
56
145
171
167
190
252
314
318
246
123
-6
-104
-178
-253
-330
-372
-347
-272
-215
-217
-257
-292
-313
-353
-431
-514
-547
-524
-486
-473
-479
-469
-429
-373
-322
-297
-314
-378
-456
-479
-399
-243
-95
-17
-3
-26
-75
-128
-108
64
356
588
584
355
100
-26
-90
-293
-687
-1066
-1152
-892
-526
-335
-372
-461
-444
-370
-425
-710
-1109
-1399
-1452
-1318
-1145
-1026
-923
-745
-466
-160
65
149
119
38
-27
-24
82
275
493
657
735
746
728
712
736
839
1025
1219
1298
1195
965
723
518
301
25
-279
-497
-543
-435
-263
-127
-64
-55
-59
-29
52
156
216
198
142
138
224
329
334
205
42
-28
21
91
85
15
-30
12
108
170
146
37
-122
-290
-411
-437
-346
-162
52
238
379
492
595
683
734
723
648
541
450
418
443
484
487
426
332
254
215
198
171
122
79
78
121
178
202
174
123
98
124
174
179
109
15
-9
66
178
229
193
119
58
1
-80
-163
-187
-140
-88
-116
-226
-350
-439
-521
-665
-898
-1181
-1434
-1565
-1493
-1165
-616
33
649
1186
1701
2237
2720
2992
2946
2655
2314
2075
1923
1718
1364
911
499
226
64
-70
-218
-347
-414
-413
-371
-305
-224
-149
-120
-160
-245
-334
-394
-423
-432
-437
-451
-460
-446
-421
-437
-537
-681
-767
-746
-705
-792
-1045
-1322
-1451
-1403
-1311
-1291
-1317
-1276
-1096
-806
-468
-126
155
270
153
-147
-490
-762
-954
-1096
-1167
-1113
-935
-706
-494
-288
-54
175
293
222
2
-244
-405
-455
-439
-426
-452
-519
-598
-652
-652
-592
-492
-421
-471
-711
-1105
-1508
-1776
-1863
-1830
-1739
-1582
-1331
-999
-622
-220
192
538
687
560
244
-74
-268
-378
-513
-704
-865
-904
-819
-696
-598
-514
-411
-298
-227
-236
-287
-291
-206
-81
-9
-17
-55
-68
-61
-67
-77
-39
58
145
138
48
-30
-29
6
-17
-112
-190
-167
-62
18
6
-61
-94
-49
24
47
1
-69
-111
-131
-175
-258
-348
-406
-417
-393
-362
-348
-367
-407
-428
-398
-361
-411
-592
-827
-978
-1006
-1013
-1115
-1291
-1389
-1295
-1048
-789
-614
-506
-396
-252
-106
-8
19
-18
-112
-271
-503
-775
-999
-1080
-985
-789
-605
-463
-277
37
423
694
684
397
7
-294
-435
-459
-430
-348
-165
149
563
996
1369
1622
1723
1663
1478
1222
950
706
542
493
558
679
766
784
798
845
818
528
-48
-642
-913
-789
-524
-370
-265
50
545
713
56
-1299
-2644
-3389
-3591
-3671
-3703
-3252
-1981
-227
1230
1921
2016
1887
1583
941
92
-417
-109
947
2272
3515
4676
5792
6628
6789
6105
4784
3220
1718
452
-432
-789
-589
-13
636
1099
1242
1044
575
-48
-708
-1299
-1738
-1973
-2003
-1885
-1718
-1585
-1533
-1564
-1653
-1762
-1836
-1814
-1679
-1479
-1307
-1213
-1173
-1125
-1050
-995
-1007
-1063
-1096
-1077
-1041
-1021
-980
-870
-716
-616
-619
-655
-628
-569
-642
-963
-1437
-1839
-2050
-2173
-2395
-2748
-3073
-3201
-3138
-3051
-3074
-3192
-3297
-3329
-3325
-3347
-3398
-3431
-3427
-3420
-3451
-3501
-3510
-3444
-3340
-3268
-3252
-3250
-3207
-3129
-3078
-3092
-3142
-3155
-3098
-3011
-2962
-2969
-2984
-2935
-2809
-2664
-2572
-2542
-2512
-2431
-2313
-2214
-2182
-2203
-2232
-2243
-2238
-2223
-2185
-2127
-2071
-2026
-1953
-1795
-1562
-1352
-1264
-1285
-1294
-1216
-1111
-1111
-1253
-1413
-1449
-1347
-1209
-1122
-1085
-1057
-1036
-1050
-1072
-1038
-943
-883
-937
-1049
-1079
-950
-762
-665
-698
-760
-754
-708
-711
-793
-889
-930
-912
-884
-863
-827
-758
-698
-700
-773
-864
-908
-884
-825
-780
-771
-773
-733
-613
-450
-342
-346
-408
-408
-280
-102
0
0
0
96
259
376
387
345
323
313
267
193
161
210
301
357
368
394
466
533
526
449
375
358
380
386
363
342
353
382
396
395
390
372
316
218
132
121
173
197
131
24
-2
101
254
339
330
303
318
335
264
70
-174
-380
-539
-705
-916
-1154
-1365
-1508
-1554
-1482
-1279
-954
-535
-59
443
938
1400
1806
2115
2270
2239
2065
1856
1685
1535
1340
1081
818
616
471
339
198
62
-69
-219
-387
-515
-535
-459
-373
-344
-354
-339
-286
-253
-300
-424
-568
-682
-738
-714
-613
-505
-486
-590
-719
-735
-613
-472
-449
-547
-648
-656
-599
-567
-600
-648
-664
-658
-664
-673
-643
-568
-509
-528
-609
-663
-630
-531
-450
-437
-458
-446
-372
-285
-251
-293
-371
-436
-475
-510
-565
-630
-684
-711
-698
-639
-548
-482
-506
-633
-793
-883
-870
-810
-777
-786
-775
-685
-524
-362
-269
-268
-339
-436
-511
-540
-542
-567
-627
-673
-637
-511
-368
-297
-311
-350
-365
-358
-364
-401
-452
-485
-464
-361
-180
16
153
221
279
387
511
555
481
377
368
453
505
415
236
144
240
437
568
573
540
567
650
692
641
553
506
500
459
340
199
131
164
215
162
-20
-230
-335
-311
-293
-463
-860
-1317
-1561
-1452
-1099
-747
-535
-384
-110
373
942
1375
1523
1422
1225
1060
942
805
597
366
206
161
205
288
390
508
602
619
560
490
455
435
390
335
319
344
347
284
208
196
252
283
240
179
187
229
176
-15
-215
-257
-141
-67
-230
-613
-995
-1151
-1034
-765
-479
-215
70
392
704
947
1119
1252
1352
1370
1275
1121
1020
1025
1055
970
716
359
16
-277
-561
-877
-1199
-1469
-1646
-1685
-1501
-1024
-311
434
1024
1458
1871
2323
2693
2809
2662
2431
2291
2238
2129
1856
1451
1031
700
499
425
433
455
423
322
219
202
296
421
447
323
130
1
-9
8
-80
-291
-489
-523
-388
-237
-206
-274
-309
-241
-145
-140
-238
-336
-355
-339
-394
-540
-672
-688
-606
-532
-529
-549
-516
-430
-351
-326
-350
-401
-474
-559
-617
-600
-517
-430
-383
-361
-325
-276
-250
-272
-321
-371
-423
-493
-561
-583
-533
-443
-371
-347
-350
-345
-320
-299
-316
-383
-480
-566
-602
-593
-582
-606
-646
-658
-635
-620
-648
-693
-702
-673
-665
-710
-750
-709
-586
-466
-415
-410
-389
-343
-314
-322
-328
-285
-209
-152
-137
-133
-88
2
105
185
241
301
388
490
579
640
687
737
783
794
748
667
594
545
502
442
383
372
432
522
572
548
490
472
511
542
483
355
264
295
411
498
502
480
521
619
686
669
609
582
600
610
575
520
488
484
478
439
373
305
239
158
41
-118
-283
-397
-409
-320
-166
15
204
390
550
670
754
817
840
783
637
468
363
356
403
430
415
411
490
665
863
979
962
850
750
734
766
728
530
207
-109
-312
-390
-397
-368
-275
-75
218
536
796
949
997
967
890
778
633
468
339
307
376
457
433
273
56
-126
-273
-461
-725
-1013
-1249
-1420
-1558
-1623
-1467
-999
-325
308
752
1093
1513
2052
2551
2827
2851
2729
2531
2238
1829
1379
1017
796
650
494
326
228
268
407
527
526
392
202
55
-15
-50
-114
-219
-314
-365
-395
-460
-579
-706
-775
-776
-758
-766
-793
-783
-692
-533
-359
-219
-129
-92
-122
-221
-357
-466
-495
-452
-376
-293
-177
29
368
818
1281
1615
1709
1550
1199
725
180
-368
-800
-1020
-1075
-1138
-1316
-1513
-1529
-1323
-1114
-1166
-1527
-1980
-2263
-2291
-2159
-1990
-1836
-1683
-1522
-1347
-1154
-968
-861
-895
-1046
-1205
-1265
-1223
-1160
-1131
-1109
-1032
-878
-678
-472
-276
-114
-21
-14
-69
-164
-345
-700
-1222
-1718
-1896
-1582
-877
-100
435
616
548
416
315
164
-183
-769
-1424
-1860
-1882
-1543
-1059
-616
-271
3
209
317
319
261
190
110
13
-77
-106
-49
52
131
147
100
19
-67
-120
-105
-9
137
277
361
371
321
240
163
114
97
100
121
170
231
257
209
121
69
89
134
140
113
110
140
136
39
-110
-206
-210
-199
-259
-370
-426
-365
-238
-140
-106
-101
-96
-107
-167
-277
-395
-483
-523
-509
-438
-312
-145
37
218
385
513
563
526
433
353
334
366
401
421
464
580
742
854
831
689
510
347
174
-62
-355
-623
-778
-793
-703
-576
-467
-404
-368
-314
-217
-112
-63
-101
-186
-252
-276
-291
-343
-446
-593
-771
-980
-1209
-1424
-1592
-1714
-1812
-1883
-1842
-1576
-1058
-404
198
656
1029
1422
1846
2205
2419
2521
2595
2663
2658
2505
2195
1764
1251
683
107
-420
-870
-1240
-1512
-1630
-1556
-1333
-1066
-850
-712
-631
-593
-609
-693
-827
-967
-1070
-1122
-1133
-1116
-1074
-1006
-934
-888
-873
-855
-788
-676
-569
-503
-471
-449
-451
-508
-630
-774
-875
-905
-877
-823
-751
-646
-473
-215
85
322
397
313
196
188
333
544
670
585
244
-272
-769
-1052
-1102
-1132
-1396
-1925
-2449
-2645
-2442
-2066
-1816
-1797
-1888
-1910
-1786
-1567
-1363
-1270
-1320
-1471
-1630
-1704
-1646
-1484
-1297
-1170
-1145
-1192
-1242
-1247
-1211
-1160
-1096
-1016
-963
-1035
-1278
-1610
-1871
-1975
-1975
-1962
-1926
-1775
-1464
-1070
-696
-367
-38
288
519
549
352
-8
-434
-839
-1140
-1277
-1242
-1075
-808
-432
64
614
1083
1347
1380
1250
1056
875
725
576
396
197
45
10
95
233
336
352
272
111
-85
-243
-296
-233
-98
79
293
542
789
985
1114
1182
1157
978
619
173
-206
-413
-453
-394
-287
-140
64
328
632
909
1055
992
723
342
-42
-362
-571
-627
-523
-327
-143
-5
160
424
726
889
797
513
216
20
-96
-207
-329
-410
-427
-419
-444
-502
-542
-533
-511
-528
-580
-612
-579
-516
-494
-545
-624
-678
-702
-751
-850
-948
-971
-902
-805
-745
-719
-660
-531
-371
-258
-229
-263
-319
-375
-452
-583
-776
-1003
-1230
-1432
-1603
-1746
-1869
-1978
-2068
-2081
-1903
-1421
-649
242
1018
1568
1951
2274
2532
2612
2426
2014
1510
1039
668
414
263
165
59
-68
-184
-262
-322
-389
-428
-372
-246
-179
-272
-459
-560
-494
-383
-430
-696
-1035
-1230
-1175
-926
-616
-359
-218
-204
-279
-385
-488
-598
-751
-950
-1141
-1247
-1221
-1090
-952
-893
-930
-1007
-1051
-1039
-998
-951
-896
-837
-813
-865
-971
-1047
-1026
-942
-890
-930
-1036
-1148
-1236
-1321
-1415
-1513
-1604
-1691
-1766
-1791
-1725
-1569
-1392
-1279
-1273
-1333
-1387
-1403
-1416
-1469
-1541
-1542
-1407
-1191
-1032
-1003
-1033
-1001
-884
-778
-777
-843
-850
-727
-521
-325
-181
-80
-23
-40
-130
-249
-340
-388
-415
-434
-430
-380
-286
-168
-51
45
100
102
59
-11
-79
-105
-58
59
202
321
408
500
617
725
775
776
772
770
704
519
259
47
-38
-39
-62
-152
-261
-308
-258
-134
0
69
17
-134
-284
-329
-265
-192
-204
-286
-334
-274
-132
4
80
106
117
124
102
35
-54
-116
-121
-95
-101
-177
-288
-358
-345
-287
-255
-272
-298
-286
-237
-186
-160
-153
-148
-143
-160
-211
-279
-329
-334
-292
-217
-130
-57
-24
-42
-104
-176
-211
-191
-143
-113
-120
-135
-122
-72
-18
-8
-68
-192
-340
-463
-536
-568
-575
-558
-501
-416
-342
-307
-272
-173
-7
126
114
-40
-212
-290
-286
-295
-366
-455
-497
-500
-546
-685
-887
-1072
-1194
-1271
-1348
-1455
-1557
-1543
-1272
-690
66
749
1206
1504
1825
2231
2575
2661
2464
2153
1914
1795
1720
1614
1457
1265
1054
834
632
465
331
212
112
44
3
-26
-51
-56
-34
-18
-55
-155
-268
-334
-331
-295
-281
-310
-362
-405
-427
-444
-480
-531
-566
-565
-546
-540
-552
-546
-505
-459
-461
-525
-608
-653
-644
-602
-554
-521
-518
-553
-613
-663
-689
-707
-741
-790
-821
-812
-775
-742
-727
-735
-767
-813
-842
-828
-783
-764
-806
-867
-878
-827
-779
-800
-874
-931
-936
-933
-972
-1042
-1079
-1057
-1032
-1071
-1173
-1254
-1246
-1154
-1047
-984
-977
-991
-979
-917
-819
-731
-687
-685
-685
-660
-625
-619
-652
-690
-692
-664
-641
-626
-581
-478
-337
-201
-93
5
111
205
252
252
247
284
367
461
528
572
631
733
858
942
933
856
810
861
972
1024
948
809
750
825
928
895
674
387
220
245
368
437
386
275
224
297
460
622
715
727
672
585
506
470
482
497
463
371
282
270
358
498
634
740
818
852
811
693
555
476
481
532
562
553
550
605
716
830
886
876
837
795
756
719
714
769
862
930
929
890
888
940
983
941
836
771
808
900
950
923
880
883
916
905
821
721
682
720
793
853
889
883
791
590
324
101
-2
2
43
70
99
167
271
342
299
120
-147
-426
-680
-899
-1036
-988
-645
-14
768
1526
2183
2772
3329
3788
4018
3950
3659
3302
3003
2781
2562
2273
1907
1527
1217
1010
865
715
532
349
204
105
12
-102
-213
-263
-226
-134
-48
-9
0
34
124
251
377
466
508
493
407
254
85
-30
-82
-139
-282
-497
-677
-706
-579
-406
-308
-320
-375
-388
-333
-263
-259
-362
-556
-778
-963
-1077
-1126
-1145
-1167
-1190
-1187
-1145
-1097
-1085
-1123
-1171
-1182
-1167
-1186
-1258
-1321
-1282
-1134
-974
-905
-932
-972
-961
-939
-985
-1118
-1253
-1292
-1228
-1145
-1116
-1116
-1053
-892
-710
-637
-711
-837
-884
-818
-716
-682
-734
-819
-871
-863
-790
-676
-585
-581
-665
-744
-703
-506
-249
-77
-63
-144
-199
-145
4
162
279
382
535
755
989
1160
1248
1288
1291
1224
1061
853
700
646
635
597
534
525
626
802
973
1100
1199
1293
1353
1342
1266
1170
1078
967
819
673
607
657
772
863
911
973
1099
1243
1309
1257
1143
1065
1047
1024
925
750
580
492
492
516
504
463
447
507
642
799
901
912
873
865
915
962
909
759
648
708
884
956
767
452
331
541
874
1003
868
732
840
1106
1209
980
608
400
437
525
502
468
664
1150
1722
2118
2301
2440
2631
2718
2469
1882
1261
896
759
614
408
405
807
1322
1316
457
-885
-2009
-2583
-2845
-3122
-3287
-2890
-1709
-24
1670
3070
4101
4687
4684
4079
3117
2151
1403
941
791
1021
1639
2515
3469
4377
5130
5570
5528
5000
4226
3543
3135
2943
2815
2664
2479
2257
1991
1701
1446
1241
1040
800
565
441
459
518
496
382
266
221
219
191
130
97
126
173
170
101
19
-19
-18
-18
-44
-75
-69
-17
49
81
78
83
128
184
190
135
94
143
269
371
369
289
214
191
198
195
177
165
165
169
195
263
354
398
334
180
24
-44
3
153
393
702
1004
1184
1169
983
708
401
54
-364
-842
-1296
-1610
-1680
-1482
-1118
-761
-522
-352
-109
258
631
843
848
711
493
192
-155
-378
-289
109
570
826
813
692
654
723
769
649
327
-109
-499
-700
-666
-464
-201
53
295
530
728
860
925
934
865
679
399
170
157
405
775
1062
1175
1185
1222
1346
1501
1599
1614
1599
1596
1575
1475
1293
1119
1057
1123
1228
1291
1305
1311
1303
1203
952
606
307
169
199
318
433
502
560
690
943
1262
1494
1520
1367
1178
1063
999
899
745
612
570
595
619
629
678
800
929
970
894
782
740
794
884
941
952
940
924
908
914
977
1110
1256
1330
1299
1231
1229
1318
1407
1388
1248
1097
1061
1159
1294
1352
1296
1196
1146
1193
1306
1409
1448
1426
1383
1347
1300
1196
1016
784
555
366
234
168
163
196
225
224
199
153
49
-168
-489
-821
-1057
-1168
-1196
-1135
-889
-378
332
1070
1707
2243
2716
3086
3245
3144
2884
2612
2404
2226
2022
1779
1541
1384
1392
1594
1900
2108
2045
1708
1265
878
559
218
-185
-569
-805
-842
-715
-492
-238
-26
73
40
-59
-127
-129
-113
-149
-247
-352
-391
-328
-200
-81
-27
-40
-69
-69
-35
3
29
63
131
215
259
221
119
13
-50
-69
-74
-79
-78
-63
-46
-56
-106
-173
-216
-221
-209
-213
-240
-266
-269
-244
-200
-157
-141
-179
-261
-324
-294
-176
-76
-102
-252
-401
-432
-351
-266
-267
-337
-396
-389
-325
-240
-161
-103
-90
-128
-188
-216
-191
-157
-192
-333
-536
-702
-750
-673
-546
-465
-439
-363
-133
205
436
347
-73
-605
-986
-1104
-1009
-788
-453
32
669
1391
2083
2607
2841
2742
2389
1960
1612
1384
1225
1105
1067
1165
1386
1643
1849
1967
1994
1943
1834
1698
1554
1395
1193
932
634
353
149
86
209
497
861
1191
1441
1646
1845
1991
1968
1715
1331
1017
927
1059
1310
1587
1873
2175
2452
2625
2640
2510
2291
2031
1777
1586
1519
1571
1654
1683
1654
1642
1688
1718
1623
1405
1210
1167
1254
1336
1320
1248
1207
1206
1176
1084
996
993
1063
1104
1037
877
695
540
430
368
369
431
512
576
641
763
956
1141
1205
1109
925
763
669
609
526
410
302
236
215
221
228
203
108
-70
-289
-478
-611
-702
-735
-612
-231
384
1062
1645
2122
2584
3055
3412
3500
3300
2943
2577
2263
1982
1699
1402
1110
861
691
595
516
404
276
200
211
259
272
238
194
152
68
-84
-266
-409
-503
-586
-667
-695
-626
-476
-312
-171
-47
79
191
273
331
381
413
399
341
276
208
80
-148
-433
-665
-775
-799
-816
-850
-860
-834
-832
-915
-1056
-1143
-1091
-928
-742
-584
-431
-248
-36
161
297
346
304
195
67
-31
-68
-55
-26
-15
-35
-73
-91
-63
-16
-18
-119
-284
-415
-453
-433
-444
-525
-635
-725
-821
-995
-1257
-1494
-1564
-1427
-1216
-1132
-1257
-1483
-1611
-1519
-1229
-854
-486
-147
197
588
1013
1408
1674
1729
1574
1297
1025
845
774
783
834
907
992
1075
1159
1251
1341
1380
1314
1146
951
828
815
865
902
915
947
1007
1021
919
751
662
736
897
995
967
862
753
650
554
527
608
698
611
281
-103
-265
-113
190
416
511
600
809
1137
1471
1703
1779
1697
1490
1230
1012
890
834
782
699
624
627
723
864
977
1013
981
910
836
777
733
708
700
696
677
628
556
487
453
471
533
621
718
805
856
858
824
795
804
840
868
862
833
794
755
719
699
710
729
707
641
587
611
696
749
710
616
566
595
643
650
626
622
637
600
466
281
131
25
-117
-363
-661
-905
-1038
-1089
-1080
-939
-560
27
642
1134
1526
1970
2519
3004
3197
3055
2774
2575
2480
2341
2047
1650
1294
1056
897
742
569
409
290
210
145
83
33
2
-15
-37
-82
-143
-194
-219
-246
-300
-363
-389
-344
-267
-237
-270
-311
-311
-280
-271
-289
-287
-236
-171
-153
-193
-236
-240
-223
-225
-246
-247
-200
-125
-54
9
82
156
196
189
163
158
183
213
217
194
157
122
100
93
86
68
39
24
39
60
41
-23
-88
-104
-70
-36
-42
-90
-147
-187
-205
-215
-239
-290
-367
-449
-508
-532
-531
-523
-519
-504
-466
-409
-349
-295
-255
-234
-235
-263
-312
-368
-414
-442
-453
-450
-433
-395
-336
-255
-164
-79
-14
30
69
113
163
217
271
329
384
432
472
516
565
611
644
665
683
693
684
653
624
622
633
611
542
459
411
402
399
376
346
339
352
354
320
259
200
160
141
142
159
175
172
157
163
209
271
299
269
212
172
152
120
52
-16
-29
28
110
160
173
193
256
351
427
445
415
375
361
376
403
430
465
527
604
659
666
638
621
628
630
590
523
485
498
525
527
524
573
678
750
709
584
493
508
579
598
546
498
518
576
602
590
586
616
627
572
498
503
609
726
742
648
529
461
420
310
67
-266
-571
-770
-871
-938
-989
-919
-575
71
848
1513
1969
2332
2765
3252
3596
3617
3339
2962
2675
2521
2410
2231
1935
1571
1249
1040
939
870
760
612
483
402
335
255
195
211
281
272
76
-253
-513
-533
-352
-180
-180
-302
-342
-172
113
283
198
-67
-299
-353
-254
-131
-83
-118
-172
-178
-125
-58
-27
-45
-70
-54
-22
-52
-160
-257
-235
-113
-44
-151
-385
-571
-599
-518
-453
-458
-486
-496
-494
-496
-478
-412
-340
-351
-459
-565
-551
-411
-263
-211
-245
-285
-292
-296
-338
-395
-420
-398
-373
-390
-438
-471
-464
-450
-478
-554
-653
-737
-788
-807
-800
-780
-752
-719
-676
-626
-593
-593
-610
-592
-511
-396
-304
-249
-197
-121
-46
-6
15
89
241
400
456
404
356
420
576
684
642
498
401
446
595
739
808
814
807
806
799
776
746
711
643
527
392
287
205
92
-86
-272
-368
-333
-235
-166
-135
-44
173
451
639
643
513
372
287
213
82
-92
-219
-219
-127
-58
-94
-190
-236
-174
-55
19
9
-21
18
152
317
437
487
482
424
310
166
79
120
259
378
386
303
231
238
296
331
288
160
-33
-224
-302
-187
55
239
239
128
108
276
512
623
548
396
294
251
203
127
74
75
100
102
90
120
245
441
630
743
750
666
537
397
245
42
-243
-582
-896
-1109
-1200
-1197
-1112
-886
-465
122
745
1259
1641
1985
2368
2721
2862
2683
2286
1914
1717
1609
1382
953
465
141
49
55
-1
-143
-279
-347
-388
-455
-513
-474
-316
-122
8
80
163
291
420
494
508
496
464
377
232
83
-4
-24
-44
-124
-241
-314
-291
-213
-164
-178
-209
-207
-186
-193
-234
-260
-237
-213
-257
-355
-420
-415
-406
-479
-612
-684
-620
-492
-440
-515
-634
-672
-594
-467
-388
-402
-478
-548
-568
-545
-526
-550
-605
-646
-653
-655
-688
-748
-800
-820
-832
-864
-920
-970
-982
-956
-923
-920
-945
-959
-934
-880
-849
-877
-937
-965
-930
-863
-823
-828
-846
-831
-770
-683
-595
-528
-493
-478
-447
-373
-271
-190
-157
-144
-103
-33
30
58
73
108
156
178
175
201
300
439
524
499
411
350
360
391
378
315
254
256
349
528
757
969
1089
1099
1059
1035
1023
967
866
810
867
950
865
510
12
-403
-642
-811
-1073
-1444
-1780
-1918
-1803
-1504
-1153
-876
-740
-717
-699
-604
-451
-340
-337
-405
-451
-418
-316
-178
-44
50
67
17
-27
-1
78
134
137
149
244
386
453
388
282
279
401
536
584
577
616
718
789
738
605
518
551
645
695
660
585
530
510
484
409
299
203
161
145
97
9
-29
54
209
269
109
-205
-505
-708
-899
-1195
-1573
-1884
-2037
-2104
-2199
-2290
-2192
-1749
-1030
-293
245
594
941
1436
2021
2493
2696
2652
2520
2436
2404
2304
2018
1533
960
445
61
-236
-525
-822
-1047
-1109
-1014
-881
-818
-830
-843
-794
-698
-625
-637
-745
-895
-991
-976
-886
-819
-845
-932
-1003
-1040
-1105
-1244
-1386
-1397
-1242
-1023
-884
-870
-913
-956
-1026
-1172
-1369
-1501
-1465
-1282
-1084
-989
-1006
-1038
-996
-898
-852
-959
-1216
-1514
-1745
-1871
-1919
-1914
-1854
-1740
-1616
-1526
-1463
-1379
-1264
-1189
-1251
-1461
-1717
-1880
-1892
-1803
-1696
-1624
-1592
-1581
-1574
-1551
-1511
-1494
-1553
-1703
-1892
-2043
-2124
-2159
-2174
-2157
-2081
-1964
-1859
-1807
-1799
-1811
-1842
-1908
-1996
-2059
-2067
-2026
-1946
-1816
-1632
-1459
-1402
-1486
-1598
-1586
-1429
-1266
-1237
-1317
-1337
-1186
-935
-757
-745
-825
-868
-844
-823
-868
-964
-1052
-1115
-1182
-1254
-1289
-1250
-1171
-1127
-1139
-1153
-1114
-1041
-993
-1007
-1061
-1120
-1182
-1259
-1352
-1444
-1527
-1607
-1675
-1713
-1711
-1688
-1682
-1699
-1723
-1739
-1740
-1721
-1691
-1670
-1697
-1786
-1909
-2014
-2076
-2103
-2133
-2192
-2270
-2302
-2215
-2002
-1772
-1683
-1785
-1972
-2078
-2047
-1967
-1931
-1922
-1868
-1760
-1670
-1621
-1553
-1446
-1434
-1706
-2272
-2877
-3206
-3153
-2872
-2580
-2347
-2103
-1772
-1374
-1008
-776
-728
-844
-1038
-1192
-1234
-1166
-1048
-940
-849
-776
-755
-835
-1026
-1261
-1435
-1521
-1590
-1722
-1886
-1959
-1872
-1722
-1693
-1889
-2228
-2546
-2755
-2897
-3052
-3220
-3334
-3369
-3365
-3349
-3266
-3008
-2542
-1948
-1344
-786
-264
211
557
671
540
265
-8
-194
-306
-396
-492
-583
-632
-642
-660
-762
-975
-1256
-1524
-1742
-1919
-2077
-2195
-2230
-2187
-2133
-2130
-2175
-2205
-2208
-2238
-2336
-2456
-2492
-2397
-2236
-2129
-2139
-2227
-2325
-2401
-2467
-2532
-2568
-2556
-2515
-2491
-2507
-2540
-2558
-2560
-2583
-2646
-2722
-2755
-2713
-2630
-2573
-2579
-2624
-2655
-2649
-2641
-2677
-2758
-2847
-2908
-2953
-3015
-3091
-3135
-3111
-3041
-2975
-2932
-2892
-2833
-2775
-2756
-2794
-2868
-2942
-2997
-3047
-3111
-3189
-3277
-3366
-3447
-3505
-3513
-3434
-3271
-3085
-2962
-2942
-2971
-2960
-2895
-2866
-2971
-3187
-3372
-3405
-3298
-3152
-3032
-2914
-2768
-2636
-2600
-2679
-2795
-2860
-2868
-2885
-2952
-3030
-3030
-2904
-2683
-2456
-2309
-2270
-2304
-2351
-2374
-2372
-2363
-2345
-2298
-2221
-2138
-2073
-2017
-1941
-1842
-1757
-1732
-1762
-1787
-1758
-1690
-1653
-1697
-1801
-1903
-1967
-2000
-2013
-1995
-1941
-1871
-1819
-1773
-1701
-1646
-1756
-2162
-2805
-3420
-3735
-3686
-3422
-3118
-2810
-2410
-1859
-1241
-736
-502
-594
-949
-1435
-1912
-2272
-2455
-2460
-2333
-2145
-1951
-1756
-1537
-1301
-1120
-1087
-1227
-1468
-1689
-1807
-1807
-1723
-1602
-1506
-1486
-1547
-1634
-1683
-1676
-1650
-1643
-1643
-1612
-1548
-1491
-1471
-1477
-1486
-1504
-1551
-1614
-1640
-1602
-1541
-1525
-1565
-1611
-1615
-1595
-1604
-1664
-1748
-1823
-1868
-1868
-1811
-1714
-1629
-1595
-1591
-1547
-1439
-1332
-1329
-1463
-1668
-1849
-1979
-2115
-2313
-2546
-2726
-2804
-2822
-2852
-2868
-2735
-2335
-1731
-1136
-691
-331
101
614
1011
1089
863
532
262
57
-161
-412
-646
-848
-1053
-1268
-1432
-1490
-1489
-1543
-1703
-1892
-1988
-1947
-1838
-1762
-1775
-1863
-1967
-2034
-2053
-2065
-2121
-2220
-2287
-2257
-2136
-2018
-1965
-1941
-1889
-1833
-1866
-2022
-2185
-2198
-2053
-1918
-1938
-2049
-2046
-1846
-1619
-1597
-1807
-2026
-2055
-1950
-1925
-2088
-2316
-2427
-2387
-2312
-2288
-2273
-2184
-2035
-1914
-1867
-1845
-1775
-1665
-1590
-1588
-1623
-1639
-1624
-1613
-1630
-1659
-1667
-1642
-1600
-1571
-1576
-1611
-1651
-1660
-1639
-1623
-1652
-1723
-1788
-1792
-1731
-1647
-1592
-1584
-1605
-1621
-1612
-1579
-1542
-1519
-1520
-1536
-1539
-1500
-1406
-1273
-1131
-1000
-885
-792
-733
-707
-676
-600
-492
-422
-436
-491
-490
-385
-238
-132
-88
-71
-59
-72
-120
-158
-145
-106
-111
-178
-229
-184
-63
26
11
-71
-131
-146
-168
-249
-372
-472
-514
-523
-547
-593
-631
-640
-636
-651
-697
-757
-817
-879
-947
-1006
-1039
-1039
-1020
-996
-977
-972
-995
-1051
-1117
-1158
-1162
-1152
-1154
-1165
-1169
-1161
-1145
-1124
-1096
-1077
-1092
-1138
-1162
-1112
-1000
-910
-913
-973
-988
-905
-784
-738
-815
-954
-1053
-1076
-1058
-1050
-1078
-1125
-1157
-1146
-1083
-986
-894
-823
-767
-717
-696
-724
-776
-783
-718
-657
-696
-837
-954
-930
-785
-659
-658
-748
-814
-796
-739
-720
-759
-826
-890
-936
-950
-936
-932
-1006
-1181
-1397
-1553
-1626
-1705
-1874
-2086
-2160
-1926
-1398
-769
-230
195
632
1181
1756
2154
2244
2093
1876
1690
1501
1252
973
763
648
537
333
56
-179
-308
-371
-451
-560
-641
-657
-644
-660
-697
-703
-657
-595
-583
-639
-717
-752
-715
-646
-624
-695
-824
-936
-989
-1016
-1063
-1112
-1080
-929
-727
-583
-526
-484
-386
-272
-264
-414
-637
-795
-833
-810
-813
-863
-925
-970
-998
-1023
-1040
-1039
-1034
-1042
-1063
-1067
-1032
-968
-904
-860
-821
-764
-683
-613
-600
-673
-819
-981
-1096
-1130
-1116
-1128
-1215
-1347
-1437
-1418
-1319
-1234
-1232
-1296
-1341
-1291
-1166
-1067
-1084
-1209
-1344
-1397
-1376
-1362
-1401
-1454
-1451
-1390
-1348
-1385
-1446
-1420
-1247
-999
-802
-723
-715
-689
-610
-510
-437
-405
-393
-379
-349
-305
-249
-192
-160
-189
-298
-468
-636
-724
-700
-588
-444
-289
-118
87
321
541
694
732
625
392
105
-128
-245
-279
-316
-404
-485
-454
-283
-63
70
63
-15
-65
-44
4
12
-54
-186
-349
-486
-556
-569
-577
-620
-672
-666
-575
-458
-408
-446
-517
-557
-573
-610
-659
-650
-556
-470
-519
-711
-897
-926
-800
-678
-699
-843
-955
-898
-660
-360
-161
-168
-363
-613
-772
-787
-733
-708
-716
-686
-558
-341
-87
176
410
538
480
257
15
-107
-100
-72
-100
-159
-169
-106
-2
110
222
310
316
231
131
118
194
245
168
-14
-185
-287
-385
-589
-918
-1259
-1493
-1617
-1738
-1920
-2065
-1951
-1453
-702
24
551
965
1473
2130
2745
3064
3008
2728
2432
2214
2024
1760
1377
919
504
228
81
-53
-247
-438
-496
-396
-267
-254
-353
-447
-476
-522
-675
-904
-1104
-1231
-1328
-1417
-1425
-1283
-1059
-907
-905
-972
-980
-912
-886
-995
-1198
-1350
-1348
-1229
-1106
-1065
-1087
-1105
-1085
-1069
-1121
-1252
-1377
-1403
-1320
-1212
-1139
-1052
-847
-523
-215
-63
-88
-192
-300
-440
-660
-937
-1170
-1293
-1323
-1307
-1251
-1140
-983
-809
-636
-486
-402
-444
-591
-741
-818
-860
-960
-1132
-1279
-1330
-1322
-1340
-1378
-1349
-1227
-1115
-1127
-1233
-1298
-1268
-1257
-1396
-1667
-1916
-2024
-2006
-1937
-1836
-1648
-1367
-1068
-850
-727
-657
-621
-649
-746
-851
-872
-763
-547
-271
47
399
747
1011
1131
1117
1038
946
817
610
365
223
289
514
711
732
627
563
610
668
591
379
191
154
239
315
314
261
212
186
180
206
257
279
228
141
118
195
290
301
229
173
201
270
301
289
290
326
347
315
250
188
115
-20
-209
-342
-336
-257
-285
-535
-925
-1232
-1295
-1146
-951
-824
-725
-512
-105
425
906
1202
1315
1339
1355
1377
1371
1315
1234
1176
1163
1157
1128
1115
1180
1311
1395
1378
1423
1815
2648
3626
4251
4241
3742
3099
2474
1753
789
-331
-1312
-1888
-2001
-1774
-1378
-954
-590
-327
-174
-128
-196
-367
-582
-750
-821
-831
-853
-899
-900
-804
-681
-669
-813
-958
-856
-396
311
1062
1758
2442
3135
3713
3988
3897
3573
3219
2948
2750
2563
2329
2019
1633
1230
907
728
656
575
410
210
99
140
255
288
159
-41
-155
-122
-45
-86
-284
-504
-581
-486
-331
-243
-227
-204
-122
-10
67
81
55
32
28
22
-27
-112
-190
-211
-170
-125
-130
-169
-161
-62
77
153
109
-14
-133
-212
-293
-428
-627
-845
-1056
-1282
-1573
-1931
-2262
-2454
-2486
-2469
-2512
-2590
-2568
-2378
-2142
-2087
-2332
-2775
-3204
-3471
-3556
-3496
-3318
-3062
-2782
-2488
-2126
-1666
-1212
-974
-1077
-1407
-1707
-1819
-1816
-1870
-2044
-2232
-2301
-2232
-2106
-1985
-1867
-1746
-1654
-1624
-1627
-1589
-1480
-1356
-1308
-1369
-1492
-1599
-1642
-1625
-1572
-1517
-1465
-1391
-1258
-1059
-850
-719
-712
-786
-837
-795
-671
-545
-482
-486
-505
-495
-465
-466
-539
-656
-745
-750
-692
-643
-655
-708
-742
-717
-657
-623
-657
-741
-819
-858
-872
-901
-954
-1005
-1027
-1022
-1016
-1024
-1037
-1035
-1015
-993
-988
-1007
-1049
-1103
-1139
-1137
-1122
-1164
-1297
-1469
-1580
-1588
-1543
-1495
-1422
-1266
-1057
-923
-950
-1079
-1172
-1177
-1171
-1215
-1242
-1132
-864
-534
-239
21
280
497
575
481
291
105
-49
-194
-329
-402
-380
-306
-251
-232
-220
-204
-216
-283
-381
-451
-473
-472
-481
-477
-417
-303
-217
-246
-390
-543
-594
-527
-435
-422
-516
-663
-809
-931
-1021
-1072
-1097
-1151
-1277
-1458
-1632
-1755
-1818
-1784
-1552
-1057
-404
185
594
935
1417
2047
2561
2686
2423
2048
1821
1753
1673
1442
1087
715
400
147
-61
-228
-350
-441
-532
-653
-805
-935
-968
-868
-700
-592
-638
-822
-1047
-1224
-1320
-1360
-1383
-1398
-1372
-1269
-1100
-941
-861
-851
-838
-806
-840
-1041
-1362
-1625
-1700
-1651
-1634
-1683
-1668
-1476
-1169
-923
-823
-820
-853
-936
-1085
-1229
-1269
-1198
-1102
-1032
-955
-849
-775
-789
-841
-845
-855
-1056
-1528
-2087
-2429
-2443
-2290
-2171
-2093
-1935
-1645
-1316
-1065
-914
-848
-890
-1058
-1263
-1338
-1210
-982
-808
-729
-655
-527
-406
-405
-548
-753
-938
-1101
-1273
-1431
-1499
-1423
-1248
-1064
-932
-862
-860
-934
-1061
-1171
-1216
-1222
-1259
-1340
-1386
-1327
-1195
-1086
-1034
-965
-798
-563
-370
-281
-262
-246
-238
-290
-407
-516
-562
-589
-702
-929
-1160
-1252
-1183
-1073
-1055
-1115
-1121
-974
-730
-557
-569
-710
-826
-827
-786
-853
-1081
-1354
-1489
-1425
-1270
-1186
-1228
-1297
-1262
-1111
-944
-856
-841
-823
-763
-706
-716
-789
-864
-903
-933
-985
-1031
-998
-865
-720
-673
-734
-793
-742
-590
-435
-348
-310
-252
-147
-42
-5
-67
-203
-367
-514
-627
-703
-743
-735
-661
-538
-421
-350
-314
-269
-205
-169
-207
-302
-384
-400
-352
-271
-172
-63
32
83
93
102
128
138
85
-18
-111
-158
-191
-258
-354
-427
-447
-439
-440
-447
-438
-436
-512
-698
-949
-1173
-1335
-1487
-1709
-2005
-2270
-2370
-2236
-1889
-1405
-845
-261
291
760
1109
1328
1411
1352
1169
923
711
600
588
624
651
644
596
519
426
313
174
0
-187
-328
-370
-301
-156
14
168
273
311
284
212
118
7
-127
-268
-374
-411
-383
-322
-256
-198
-160
-147
-133
-79
6
59
11
-134
-313
-473
-618
-765
-879
-889
-778
-615
-487
-421
-377
-321
-273
-288
-392
-549
-696
-780
-784
-733
-674
-640
-620
-583
-520
-468
-472
-553
-692
-848
-980
-1057
-1071
-1043
-1023
-1047
-1104
-1149
-1153
-1131
-1127
-1177
-1279
-1393
-1463
-1442
-1339
-1225
-1184
-1241
-1347
-1423
-1431
-1399
-1376
-1381
-1392
-1376
-1319
-1230
-1124
-1016
-940
-939
-1023
-1144
-1231
-1247
-1227
-1227
-1258
-1267
-1198
-1055
-892
-776
-718
-678
-595
-463
-358
-375
-515
-633
-560
-300
-63
-68
-313
-568
-612
-461
-337
-418
-672
-919
-999
-904
-756
-684
-736
-853
-921
-872
-739
-629
-615
-674
-719
-706
-673
-696
-767
-811
-780
-734
-794
-985
-1173
-1181
-996
-792
-744
-836
-887
-772
-544
-363
-318
-370
-445
-510
-532
-477
-353
-241
-224
-283
-296
-181
7
133
126
41
-30
-35
24
115
186
193
147
135
249
458
610
577
397
244
264
425
575
591
483
351
283
291
319
292
180
10
-156
-273
-339
-383
-416
-431
-424
-420
-458
-526
-565
-520
-428
-411
-553
-796
-986
-1042
-1053
-1178
-1445
-1720
-1871
-1893
-1859
-1742
-1411
-823
-142
399
756
1123
1664
2273
2639
2576
2218
1882
1758
1756
1640
1293
822
442
260
201
115
-49
-217
-301
-314
-341
-412
-479
-491
-486
-548
-688
-817
-846
-795
-762
-795
-844
-839
-786
-757
-799
-878
-922
-914
-904
-932
-961
-909
-759
-608
-586
-725
-908
-995
-949
-864
-851
-918
-973
-942
-851
-783
-774
-790
-776
-739
-727
-758
-770
-705
-593
-539
-608
-740
-820
-811
-789
-831
-917
-959
-908
-815
-761
-763
-784
-792
-791
-798
-814
-853
-936
-1063
-1186
-1238
-1201
-1136
-1098
-1081
-1041
-980
-950
-992
-1057
-1059
-972
-865
-830
-869
-893
-822
-676
-550
-512
-538
-559
-541
-506
-480
-446
-372
-257
-124
19
175
327
438
483
492
521
591
663
691
701
765
908
1080
1205
1248
1242
1240
1268
1323
1379
1403
1349
1224
1112
1117
1237
1350
1322
1168
1057
1125
1315
1452
1438
1340
1274
1272
1291
1297
1290
1252
1151
1025
978
1059
1179
1189
1073
976
1008
1113
1157
1115
1086
1132
1184
1162
1101
1102
1164
1165
1027
844
770
836
921
901
797
736
784
887
965
1000
1031
1061
1024
871
672
576
658
814
878
819
795
969
1279
1481
1402
1153
996
1051
1183
1185
1030
899
962
1171
1324
1284
1112
975
950
974
942
832
727
711
793
919
1030
1109
1163
1194
1178
1080
894
642
358
60
-249
-538
-768
-931
-1076
-1225
-1294
-1111
-594
139
871
1503
2101
2726
3275
3558
3526
3321
3101
2887
2613
2281
1976
1730
1483
1197
938
796
726
578
285
-35
-209
-214
-182
-227
-337
-425
-454
-460
-468
-470
-480
-531
-626
-699
-683
-595
-520
-510
-535
-562
-622
-753
-905
-963
-879
-744
-684
-726
-786
-805
-799
-815
-847
-856
-844
-851
-885
-923
-958
-1025
-1141
-1265
-1350
-1405
-1481
-1582
-1630
-1557
-1402
-1278
-1264
-1335
-1410
-1434
-1410
-1377
-1382
-1439
-1510
-1521
-1424
-1255
-1118
-1101
-1192
-1313
-1377
-1364
-1315
-1296
-1350
-1449
-1521
-1503
-1406
-1313
-1307
-1384
-1464
-1482
-1457
-1449
-1476
-1489
-1443
-1370
-1352
-1424
-1519
-1558
-1547
-1563
-1647
-1722
-1694
-1587
-1532
-1592
-1664
-1598
-1392
-1214
-1201
-1292
-1315
-1194
-1045
-1016
-1105
-1189
-1184
-1128
-1093
-1075
-1009
-883
-758
-693
-676
-650
-604
-585
-629
-709
-765
-760
-710
-635
-544
-438
-330
-225
-126
-45
-23
-90
-206
-291
-294
-237
-186
-171
-172
-163
-143
-125
-89
-15
60
59
-39
-150
-145
0
170
216
100
-63
-124
-46
61
64
-59
-191
-188
-25
189
331
366
387
486
650
766
740
616
542
608
744
782
651
470
428
565
728
757
660
571
558
563
509
420
373
366
321
221
173
279
476
595
554
461
471
583
661
614
512
463
472
444
330
210
188
249
268
156
-39
-197
-266
-302
-375
-496
-636
-776
-925
-1088
-1243
-1366
-1428
-1373
-1108
-598
63
697
1206
1644
2105
2570
2886
2908
2654
2289
1981
1767
1579
1334
1021
700
436
246
103
-34
-178
-312
-424
-520
-605
-658
-647
-576
-507
-511
-609
-758
-881
-921
-887
-833
-816
-844
-876
-869
-824
-778
-755
-718
-626
-499
-415
-424
-503
-612
-746
-931
-1171
-1407
-1574
-1650
-1648
-1608
-1571
-1557
-1534
-1422
-1178
-850
-559
-399
-348
-331
-329
-409
-622
-940
-1262
-1491
-1582
-1544
-1445
-1381
-1405
-1459
-1442
-1337
-1284
-1460
-1889
-2397
-2762
-2895
-2881
-2846
-2852
-2880
-2893
-2853
-2746
-2601
-2503
-2537
-2699
-2852
-2836
-2614
-2318
-2144
-2165
-2274
-2314
-2238
-2113
-2022
-1975
-1927
-1860
-1792
-1719
-1605
-1433
-1272
-1218
-1264
-1290
-1190
-1014
-918
-991
-1148
-1219
-1129
-963
-868
-912
-1034
-1124
-1131
-1100
-1113
-1218
-1388
-1533
-1565
-1485
-1380
-1347
-1406
-1487
-1519
-1502
-1503
-1565
-1626
-1580
-1397
-1176
-1071
-1125
-1232
-1276
-1281
-1407
-1760
-2239
-2569
-2517
-2101
-1577
-1225
-1150
-1251
-1353
-1384
-1442
-1683
-2149
-2705
-3126
-3279
-3189
-2980
-2768
-2604
-2499
-2449
-2433
-2407
-2346
-2283
-2286
-2354
-2385
-2266
-2001
-1725
-1599
-1659
-1808
-1910
-1922
-1902
-1925
-1999
-2043
-1954
-1739
-1519
-1434
-1516
-1649
-1699
-1663
-1660
-1784
-1975
-2071
-1998
-1850
-1777
-1825
-1898
-1886
-1794
-1718
-1718
-1743
-1691
-1516
-1265
-1034
-893
-867
-938
-1080
-1276
-1530
-1849
-2202
-2525
-2754
-2873
-2915
-2911
-2855
-2760
-2703
-2797
-3059
-3363
-3521
-3428
-3108
-2650
-2128
-1566
-980
-383
204
716
1018
971
573
26
-393
-563
-588
-645
-778
-857
-768
-581
-500
-670
-1054
-1509
-1935
-2347
-2777
-3194
-3521
-3707
-3757
-3688
-3511
-3261
-3027
-2896
-2880
-2902
-2878
-2803
-2752
-2791
-2906
-3030
-3098
-3084
-3005
-2908
-2848
-2853
-2900
-2924
-2875
-2759
-2639
-2581
-2602
-2661
-2706
-2716
-2715
-2741
-2803
-2866
-2890
-2869
-2835
-2825
-2840
-2846
-2819
-2773
-2742
-2739
-2752
-2760
-2767
-2794
-2848
-2902
-2921
-2909
-2910
-2958
-3036
-3091
