4216
4196
4219
4240
4189
4051
3885
3748
3616
3425
3174
2951
2818
2733
2629
2577
2769
3298
3996
4562
4861
5043
5327
5711
5961
5870
5480
5025
4702
4524
4400
4276
4172
4128
4147
4199
4260
4317
4356
4361
4327
4268
4204
4156
4136
4145
4172
4197
4203
4183
4151
4123
4110
4108
4108
4108
4109
4110
4103
4082
4052
4028
4019
4021
4025
4024
4021
4017
4009
3992
3971
3951
3933
3915
3897
3883
3878
3878
3876
3871
3861
3846
3821
3792
3766
3750
3734
3704
3658
3613
3585
3573
3557
3528
3492
3467
3459
3459
3456
3447
3442
3452
3476
3504
3529
3550
3573
3601
3636
3675
3713
3752
3790
3829
3869
3915
3969
4026
4078
4122
4168
4223
4284
4336
4364
4376
4391
4421
4456
4476
4475
4468
4474
4496
4520
4530
4530
4534
4549
4562
4558
4539
4522
4521
4531
4537
4531
4523
4521
4529
4538
4542
4544
4544
4541
4533
4521
4512
4510
4512
4513
4508
4499
4490
4484
4481
4476
4463
4445
4430
4424
4427
4428
4420
4404
4391
4389
4393
4393
4385
4372
4364
4364
4364
4358
4349
4343
4345
4350
4347
4334
4318
4307
4305
4307
4308
4305
4298
4292
4295
4308
4319
4317
4299
4278
4269
4272
4272
4257
4235
4223
4226
4238
4247
4244
4231
4212
4197
4195
4207
4223
4228
4219
4208
4212
4237
4269
4291
4293
4279
4262
4247
4234
4218
4200
4184
4176
4179
4190
4202
4209
4210
4207
4202
4193
4176
4151
4123
4103
4100
4108
4118
4117
4111
4110
4127
4160
4192
4211
4218
4230
4256
4291
4324
4348
4366
4383
4395
4396
4386
4373
4368
4373
4380
4382
4375
4366
4362
4365
4369
4369
4363
4355
4342
4327
4319
4324
4334
4325
4290
4260
4272
4305
4288
4176
4002
3829
3661
3448
3175
2918
2756
2668
2582
2533
2697
3197
3908
4526
4875
5068
5335
5718
6001
5951
5574
5100
4749
4560
4440
4318
4205
4150
4169
4234
4306
4365
4397
4394
4365
4322
4277
4237
4205
4192
4203
4230
4251
4241
4197
4141
4099
4082
4079
4077
4077
4084
4098
4106
4096
4075
4059
4057
4058
4050
4033
4018
4012
4004
3984
3953
3926
3913
3906
3893
3874
3854
3840
3824
3799
3769
3747
3735
3723
3698
3663
3633
3619
3613
3598
3570
3540
3521
3511
3498
3474
3450
3439
3446
3463
3474
3479
3484
3500
3528
3561
3592
3620
3649
3685
3727
3772
3813
3853
3893
3936
3982
4030
4079
4129
4174
4212
4244
4277
4316
4354
4380
4392
4403
4424
4448
4465
4472
4483
4505
4525
4525
4507
4497
4510
4539
4558
4554
4540
4533
4542
4557
4564
4560
4548
4539
4540
4549
4556
4549
4531
4515
4509
4505
4491
4468
4449
4443
4448
4454
4458
4463
4468
4468
4461
4450
4437
4420
4395
4367
4349
4344
4341
4329
4312
4306
4317
4333
4338
4331
4323
4321
4322
4319
4311
4303
4300
4299
4294
4285
4277
4274
4280
4292
4301
4299
4285
4270
4266
4273
4278
4271
4259
4257
4267
4278
4276
4262
4252
4257
4271
4280
4278
4270
4266
4267
4263
4252
4238
4228
4221
4213
4204
4204
4218
4240
4256
4255
4237
4213
4191
4173
4157
4137
4113
4092
4091
4118
4160
4192
4195
4181
4170
4170
4164
4136
4096
4072
4077
4097
4106
4102
4107
4137
4179
4207
4210
4207
4219
4251
4284
4304
4319
4344
4382
4412
4418
4401
4382
4377
4384
4385
4372
4350
4335
4332
4337
4343
4344
4343
4340
4331
4321
4316
4320
4325
4313
4283
4262
4269
4275
4223
4091
3925
3766
3595
3364
3083
2845
2716
2646
2559
2508
2683
3196
3901
4497
4827
5022
5301
5688
5962
5907
5545
5101
4773
4584
4446
4307
4193
4151
4179
4237
4291
4336
4370
4379
4350
4285
4206
4143
4111
4108
4117
4124
4121
4102
4071
4037
4012
3999
3996
4000
4009
4020
4025
4016
3994
3971
3952
3938
3926
3917
3915
3920
3921
3913
3899
3887
3880
3872
3854
3829
3804
3785
3772
3760
3747
3729
3710
3693
3681
3672
3660
3639
3609
3576
3546
3516
3487
3465
3454
3451
3443
3426
3408
3407
3427
3459
3486
3502
3514
3531
3559
3601
3654
3709
3753
3784
3811
3850
3900
3951
3994
4036
4084
4137
4187
4231
4274
4319
4362
4396
4421
4440
4456
4464
4471
4486
4513
4539
4550
4547
4549
4572
4603
4619
4613
4605
4616
4645
4669
4671
4659
4651
4652
4651
4638
4615
4596
4582
4569
4554
4541
4538
4540
4540
4541
4550
4562
4563
4540
4511
4503
4525
4556
4567
4556
4545
4553
4573
4588
4588
4577
4562
4544
4524
4508
4497
4487
4475
4465
4469
4484
4496
4489
4469
4458
4469
4487
4487
4461
4428
4414
4422
4435
4434
4415
4398
4398
4413
4430
4435
4434
4436
4448
4459
4457
4441
4422
4412
4411
4410
4403
4394
4390
4397
4409
4421
4426
4422
4410
4398
4394
4397
4398
4390
4373
4358
4354
4363
4378
4389
4385
4362
4328
4301
4294
4297
4290
4264
4237
4234
4259
4288
4293
4271
4246
4232
4225
4211
4188
4163
4140
4118
4100
4095
4109
4127
4135
4129
4127
4143
4176
4214
4247
4275
4300
4325
4349
4372
4390
4397
4390
4382
4382
4390
4394
4388
4373
4358
4346
4336
4327
4313
4292
4262
4233
4223
4235
4251
4243
4213
4191
4207
4240
4230
4143
4012
3891
3757
3614
3375
3132
2971
2885
2794
2693
2739
3093
3712
4340
4758
4996
5243
5583
5876
5918
5670
5270
4884
4587
4374
4239
4178
4161
4150
4148
4187
4276
4362
4383
4330
4247
4177
4131
4103
4093
4105
4126
4145
4156
4154
4138
4104
4066
4047
4057
4085
4102
4096
4073
4050
4038
4036
4037
4033
4018
3998
3980
3961
3933
3898
3870
3859
3854
3837
3812
3799
3810
3827
3819
3784
3750
3738
3737
3723
3692
3667
3668
3687
3696
3678
3647
3624
3618
3616
3599
3569
3541
3535
3553
3579
3591
3590
3587
3597
3618
3641
3661
3684
3714
3746
3781
3822
3872
3926
3976
4018
4059
4106
4148
4179
4196
4212
4243
4290
4338
4378
4410
4436
4463
4487
4510
4527
4539
4543
4543
4541
4540
4539
4542
4552
4572
4597
4615
4618
4612
4608
4610
4613
4607
4591
4573
4559
4551
4546
4542
4537
4527
4512
4497
4489
4495
4507
4512
4502
4483
4468
4467
4477
4486
4478
4448
4411
4390
4393
4402
4393
4363
4335
4330
4347
4362
4359
4347
4344
4354
4361
4353
4337
4330
4338
4352
4361
4358
4352
4350
4353
4359
4361
4354
4342
4330
4325
4327
4333
4340
4346
4350
4354
4361
4371
4378
4376
4365
4355
4353
4354
4349
4335
4320
4311
4307
4297
4283
4277
4287
4306
4313
4297
4269
4249
4242
4233
4207
4173
4153
4160
4179
4188
4180
4169
4169
4171
4160
4134
4107
4091
4082
4066
4044
4034
4051
4081
4100
4096
4082
4082
4102
4131
4156
4171
4186
4209
4240
4268
4284
4286
4280
4273
4268
4260
4245
4227
4213
4206
4202
4195
4189
4187
4185
4176
4160
4150
4154
4158
4143
4112
4093
4104
4114
4072
3974
3878
3826
3776
3653
3458
3291
3228
3212
3135
3020
3065
3431
4031
4585
4910
5091
5333
5683
5956
6058
5245
4890
4627
4415
4238
4125
4090
4107
4138
4175
4225
4280
4312
4295
4229
4138
4055
4007
4006
4038
4075
4096
4095
4073
4039
4005
3984
3982
3994
4003
4001
3988
3970
3951
3931
3913
3903
3897
3891
3883
3878
3878
3878
3864
3835
3805
3789
3785
3776
3756
3732
3715
3704
3688
3660
3631
3613
3604
3592
3567
3537
3514
3503
3498
3486
3466
3441
3419
3401
3383
3365
3347
3334
3331
3336
3346
3355
3364
3382
3417
3465
3514
3551
3577
3607
3650
3698
3738
3768
3800
3849
3908
3958
3988
4011
4046
4097
4150
4186
4205
4220
4237
4254
4268
4283
4305
4329
4344
4347
4348
4362
4389
4416
4430
4428
4423
4425
4435
4446
4449
4442
4429
4419
4415
4416
4414
4408
4398
4389
4382
4373
4356
4331
4306
4289
4283
4280
4269
4249
4230
4222
4225
4229
4223
4207
4189
4179
4177
4178
4175
4167
4158
4154
4153
4153
4148
4141
4139
4144
4150
4148
4137
4125
4122
4127
4133
4133
4128
4123
4117
4110
4105
4107
4115
4122
4120
4112
4107
4106
4104
4095
4085
4085
4093
4099
4093
4081
4081
4095
4107
4102
4086
4080
4098
4126
4135
4118
4094
4088
4102
4112
4100
4071
4048
4048
4066
4082
4086
4078
4071
4071
4074
4067
4047
4021
4006
4007
4013
4005
3986
3973
3985
4013
4034
4039
4043
4064
4098
4121
4123
4119
4136
4176
4213
4219
4197
4178
4183
4209
4229
4226
4204
4184
4177
4175
4166
4148
4129
4118
4113
4109
4108
4112
4111
4095
4068
4052
4060
4063
4013
3901
3773
3665
3547
3365
3129
2926
2814
2743
2638
2562
2706
3182
3852
4426
4752
4950
5226
5597
5849
5775
5400
4939
4583
4364
4205
4059
3946
3900
3916
3964
4023
4084
4130
4134
4085
4003
3929
3891
3894
3918
3944
3962
3969
3960
3930
3886
3845
3819
3808
3802
3799
3801
3807
3807
3792
3764
3739
3727
3725
3720
3707
3692
3684
3683
3679
3668
3651
3632
3615
3600
3589
3583
3578
3566
3544
3519
3503
3495
3486
3467
3437
3409
3391
3382
3372
3351
3318
3284
3261
3254
3253
3248
3234
3221
3222
3242
3275
3306
3325
3339
3362
3401
3449
3490
3518
3540
3572
3617
3667
3713
3750
3785
3828
3876
3926
3973
4014
4050
4082
4114
4144
4172
4195
4211
4222
4230
4239
4250
4263
4274
4281
4283
4288
4300
4316
4326
4325
4321
4325
4342
4365
4383
4392
4393
4390
4389
4391
4396
4397
4386
4364
4342
4329
4326
4323
4314
4301
4293
4294
4296
4292
4281
4271
4266
4264
4259
4250
4241
4235
4232
4228
4222
4217
4213
4211
4207
4201
4194
4189
4184
4176
4165
4155
4151
4151
4153
4154
4155
4160
4168
4173
4172
4164
4153
4141
4131
4126
4126
4132
4139
4143
4146
4151
4164
4180
4190
4188
4182
4178
4180
4180
4172
4157
4142
4135
4136
4144
4156
4167
4169
4161
4146
4133
4124
4116
4101
4080
4061
4052
4052
4053
4050
4044
4039
4035
4025
4002
3970
3940
3925
3920
3916
3905
3894
3893
3904
3920
3932
3940
3956
3981
4007
4023
4031
4045
4074
4111
4136
4140
4132
4128
4134
4141
4140
4132
4125
4128
4135
4134
4120
4102
4092
4097
4109
4111
4101
4090
4088
4086
4068
4041
4034
4050
4047
3977
3850
3719
3600
3442
3206
2951
2777
2701
2630
2524
2518
2814
3428
4110
4583
4821
5031
5369
5728
5853
5628
5189
4772
4492
4307
4144
3997
3907
3896
3936
3991
4047
4099
4130
4122
4070
3993
3922
3880
3872
3887
3910
3928
3933
3919
3888
3855
3832
3820
3811
3799
3784
3772
3759
3739
3712
3688
3677
3676
3679
3679
3676
3668
3658
3650
3648
3652
3650
3637
3620
3613
3618
3622
3616
3598
3578
3559
3534
3501
3470
3454
3454
3454
3438
3407
3375
3355
3344
3334
3318
3301
3289
3282
3279
3280
3292
3317
3349
3374
3390
3407
3434
3471
3511
3549
3583
3619
3655
3693
3731
3770
3812
3858
3909
3961
4008
4046
4082
4123
4171
4213
4234
4238
4244
4266
4298
4324
4333
4334
4340
4356
4374
4388
4394
4396
4401
4410
4421
4429
4432
4432
4435
4441
4440
4424
4397
4373
4362
4359
4352
4334
4310
4294
4286
4279
4269
4259
4250
4240
4224
4205
4191
4185
4183
4175
4161
4148
4143
4140
4129
4112
4095
4089
4093
4098
4095
4087
4082
4088
4099
4101
4087
4064
4049
4049
4051
4039
4013
3992
3993
4009
4018
4008
3994
3993
4004
4009
3997
3980
3976
3989
4004
4004
3990
3979
3985
4004
4018
4017
4003
3990
3983
3978
3968
3958
3960
3973
3988
3992
3984
3972
3962
3953
3944
3933
3919
3900
3879
3868
3873
3889
3899
3894
3884
3879
3875
3855
3816
3778
3763
3769
3776
3768
3757
3762
3786
3814
3834
3847
3865
3891
3918
3942
3970
4008
4047
4073
4077
4068
4062
4062
4062
4048
4023
4002
3999
4008
4010
3990
3962
3951
3967
3990
3990
3967
3954
3974
4007
4019
4003
3996
4011
4009
3944
3826
3701
3575
3391
3127
2862
2705
2651
2589
2478
2470
2780
3415
4119
4613
4872
5097
5429
5764
5864
5625
5178
4736
4414
4191
4015
3882
3813
3813
3858
3923
3995
4061
4096
4082
4019
3929
3843
3789
3778
3795
3817
3828
3825
3809
3787
3763
3740
3721
3709
3704
3703
3707
3707
3696
3675
3657
3652
3659
3661
3651
3635
3623
3611
3591
3561
3532
3515
3506
3492
3470
3450
3441
3441
3437
3424
3406
3391
3374
3349
3314
3281
3260
3249
3235
3207
3171
3142
3133
3137
3141
3137
3128
3122
3121
3126
3134
3149
3169
3189
3209
3235
3273
3320
3369
3413
3455
3496
3535
3572
3611
3655
3704
3749
3788
3826
3873
3928
3982
4026
4060
4088
4115
4140
4161
4178
4190
4200
4212
4226
4242
4254
4259
4263
4276
4300
4320
4326
4318
4313
4320
4333
4339
4337
4334
4332
4327
4312
4295
4286
4282
4269
4241
4212
4199
4198
4191
4169
4149
4152
4173
4185
4171
4145
4133
4145
4163
4168
4158
4147
4143
4144
4142
4138
4138
4139
4135
4123
4108
4097
4096
4102
4111
4116
4114
4104
4093
4089
4090
4088
4078
4061
4044
4035
4038
4051
4069
4081
4080
4072
4074
4095
4126
4145
4144
4135
4140
4161
4183
4187
4174
4160
4159
4170
4179
4177
4164
4146
4129
4113
4097
4083
4073
4064
4051
4040
4042
4062
4088
4098
4084
4062
4051
4051
4041
4007
3964
3936
3931
3934
3935
3942
3967
4002
4029
4042
4056
4089
4132
4162
4167
4166
4180
4215
4249
4261
4247
4227
4220
4232
4247
4248
4230
4206
4192
4191
4197
4204
4211
4218
4220
4213
4206
4204
4200
4172
4122
4082
4081
4092
4050
3937
3805
3710
3614
3436
3172
2937
2827
2792
2704
2579
2633
3055
3756
4413
4795
4986
5235
5621
5946
5955
5617
5136
4737
4483
4300
4127
3982
3913
3929
3993
4065
4124
4168
4182
4157
4092
4008
3933
3891
3883
3891
3898
3901
3899
3890
3868
3837
3812
3803
3808
3816
3821
3822
3818
3801
3765
3720
3689
3681
3690
3695
3685
3668
3659
3662
3668
3665
3650
3630
3611
3595
3580
3565
3551
3534
3512
3486
3463
3450
3444
3436
3417
3389
3359
3331
3308
3286
3265
3245
3227
3215
3211
3217
3232
3252
3276
3303
3332
3359
3386
3417
3452
3488
3522
3556
3596
3644
3694
3737
3771
3801
3835
3876
3920
3960
3992
4015
4038
4072
4114
4155
4185
4207
4230
4260
4290
4309
4317
4320
4332
4356
4385
4410
4425
4435
4448
4469
4492
4503
4496
4480
4467
4462
4457
4448
4436
4425
4413
4397
4378
4364
4357
4348
4332
4316
4311
4317
4319
4305
4284
4276
4283
4290
4280
4258
4241
4238
4238
4230
4218
4216
4226
4237
4236
4225
4218
4221
4228
4231
4227
4220
4215
4209
4202
4196
4196
4200
4203
4204
4206
4213
4223
4231
4233
4232
4230
4233
4241
4248
4247
4235
4220
4215
4226
4243
4250
4240
4223
4216
4226
4242
4252
4250
4244
4246
4248
4234
4193
4143
4111
4106
4105
4087
4058
4051
4079
4120
4139
4130
4120
4131
4147
4138
4094
4043
4016
4019
4034
4042
4041
4040
4045
4058
4078
4105
4130
4145
4148
4155
4183
4232
4280
4310
4317
4317
4321
4327
4326
4312
4290
4273
4264
4259
4252
4246
4246
4247
4237
4211
4185
4176
4185
4184
4153
4111
4101
4126
4132
4066
3947
3833
3730
3572
3322
3062
2914
2881
2837
2718
2674
2943
3562
4278
4787
5040
5238
5550
5893
6026
5823
5391
4946
4617
4398
4228
4087
3993
3964
3997
4067
4139
4188
4201
4180
4140
4083
4013
3949
3915
3923
3956
3982
3979
3949
3907
3868
3833
3806
3794
3805
3834
3857
3851
3821
3791
3781
3783
3776
3755
3737
3735
3748
3761
3759
3743
3721
3703
3693
3691
3685
3662
3623
3584
3563
3558
3552
3531
3500
3475
3459
3442
3415
3382
3353
3335
3321
3310
3299
3291
3289
3289
3291
3293
3296
3302
3313
3330
3350
3368
3386
3409
3441
3477
3511
3539
3565
3596
3640
3692
3740
3778
3813
3859
3919
3977
4012
4024
4035
4065
4109
4147
4163
4165
4173
4197
4231
4259
4273
4277
4279
4288
4307
4329
4341
4346
4355
4374
4390
4380
4343
4309
4304
4319
4321
4289
4242
4218
4227
4245
4242
4214
4179
4153
4138
4122
4103
4087
4080
4084
4097
4110
4112
4101
4084
4071
4066
4061
4046
4027
4014
4013
4017
4016
4013
4013
4015
4013
4007
4002
4002
4001
3990
3973
3960
3954
3950
3944
3941
3952
3976
3995
3995
3986
3987
4007
4030
4033
4009
3978
3959
3961
3971
3974
3968
3965
3978
4004
4029
4038
4027
4003
3974
3950
3934
3921
3906
3886
3870
3870
3889
3914
3925
3916
3895
3875
3859
3845
3830
3814
3798
3780
3766
3761
3767
3782
3797
3806
3810
3817
3835
3861
3882
3891
3898
3921
3962
3993
3986
3946
3913
3916
3939
3946
3924
3893
3876
3868
3852
3829
3818
3821
3820
3801
3785
3795
3820
3817
3777
3740
3746
3769
3730
3601
3454
3371
3329
3222
3010
2796
2704
2713
2691
2608
2643
3006
3662
4322
4728
4913
5105
5418
5700
5709
5381
4879
4422
4106
3899
3743
3620
3548
3542
3599
3688
3758
3774
3737
3685
3645
3608
3552
3487
3451
3466
3513
3557
3577
3563
3514
3445
3390
3385
3428
3474
3476
3435
3391
3382
3399
3407
3386
3344
3310
3304
3324
3347
3345
3315
3277
3262
3274
3289
3275
3234
3197
3181
3174
3153
3121
3097
3086
3069
3029
2983
2964
2980
3000
2992
2956
2916
2886
2868
2859
2860
2860
2838
2797
2775
2805
2872
2914
2900
2869
2880
2944
3007
3029
3033
3070
3149
3219
3238
3228
3242
3296
3351
3365
3351
3355
3407
3488
3558
3598
3622
3654
3693
3719
3722
3713
3715
3732
3741
3725
3698
3696
3741
3806
3847
3841
3810
3792
3801
3827
3841
3824
3783
3744
3731
3744
3760
3754
3727
3700
3694
3707
3713
3692
3651
3616
3607
3622
3634
3619
3582
3553
3555
3581
3599
3589
3564
3545
3535
3519
3499
3498
3530
3569
3568
3521
3477
3487
3542
3585
3579
3551
3543
3564
3581
3566
3539
3535
3555
3567
3540
3488
3449
3452
3486
3514
3505
3462
3423
3431
3487
3551
3573
3546
3504
3488
3495
3503
3499
3493
3487
3470
3438
3417
3432
3477
3509
3498
3465
3454
3475
3494
3481
3443
3419
3431
3456
3460
3434
3401
3393
3411
3429
3426
3413
3420
3460
3510
3535
3531
3527
3549
3581
3589
3563
3527
3516
3530
3545
3549
3549
3553
3548
3521
3492
3487
3515
3542
3530
3483
3441
3435
3451
3456
3440
3415
3383
3321
3213
3089
2985
2889
2745
2539
2339
2225
2186
2135
2061
2107
2445
3053
3693
4124
4336
4525
4821
5121
5188
4922
4459
4028
3748
3579
3435
3301
3220
3217
3270
3336
3394
3438
3456
3433
3374
3305
3250
3218
3202
3203
3219
3238
3235
3198
3142
3106
3103
3117
3126
3130
3143
3163
3167
3140
3095
3061
3053
3057
3049
3028
3012
3014
3034
3050
3045
3020
2994
2981
2976
2965
2938
2904
2877
2867
2858
2843
2827
2822
2827
2822
2794
2760
2744
2748
2747
2713
2660
2626
2635
2665
2677
2663
2647
2659
2694
2727
2740
2748
2772
2811
2846
2865
2883
2923
2984
3040
3065
3065
3071
3111
3174
3227
3252
3257
3269
3302
3347
3391
3428
3456
3477
3493
3512
3539
3564
3575
3567
3556
3559
3572
3577
3567
3560
3573
3597
3604
3585
3565
3569
3590
3590
3546
3489
3464
3483
3509
3508
3482
3466
3477
3497
3499
3481
3462
3457
3457
3450
3437
3430
3435
3448
3457
3464
3467
3465
3456
3449
3452
3460
3460
3448
3432
3429
3439
3449
3446
3438
3434
3437
3435
3426
3417
3415
3419
3419
3412
3405
3404
3409
3414
3415
3411
3405
3400
3405
3426
3453
3464
3445
3412
3395
3407
3419
3392
3328
3271
3271
3324
3379
3387
3353
3322
3331
3365
3385
3369
3330
3293
3272
3262
3258
3262
3271
3278
3279
3285
3307
3344
3377
3390
3388
3393
3416
3446
3464
3464
3462
3467
3478
3484
3481
3475
3469
3461
3448
3438
3440
3452
3458
3449
3434
3431
3440
3443
3430
3405
3385
3373
3360
3343
3318
3275
3206
3125
3053
2972
2838
2641
2445
2330
2282
2208
2093
2090
2393
2989
3619
4025
4210
4391
4712
5044
5133
4880
4438
4034
3766
3586
3428
3296
3224
3215
3239
3280
3342
3412
3448
3419
3338
3255
3206
3190
3186
3181
3188
3213
3236
3222
3159
3081
3036
3045
3085
3114
3117
3106
3105
3112
3114
3100
3080
3070
3071
3071
3056
3027
3000
2990
2994
2998
2987
2966
2951
2951
2954
2942
2912
2881
2864
2853
2834
2802
2773
2757
2746
2725
2692
2663
2649
2641
2629
2609
2589
2578
2578
2590
2616
2650
2680
2704
2732
2774
2821
2855
2871
2885
2910
2945
2978
3004
3030
3061
3097
3139
3188
3239
3282
3311
3330
3354
3387
3420
3443
3458
3469
3478
3490
3503
3518
3531
3541
3548
3559
3570
3581
3592
3610
3635
3649
3643
3630
3632
3652
3669
3662
3641
3628
3636
3646
3637
3608
3578
3557
3541
3522
3503
3492
3493
3493
3481
3461
3451
3458
3473
3476
3455
3425
3408
3410
3419
3421
3413
3406
3407
3413
3419
3423
3423
3421
3416
3409
3405
3407
3410
3405
3391
3372
3360
3355
3349
3335
3314
3301
3308
3330
3351
3361
3362
3364
3365
3353
3326
3291
3266
3255
3251
3247
3248
3257
3272
3287
3297
3304
3306
3300
3280
3249
3217
3195
3185
3189
3200
3213
3221
3226
3235
3255
3281
3300
3307
3313
3331
3360
3383
3392
3399
3419
3442
3448
3433
3421
3436
3465
3473
3445
3407
3396
3410
3419
3401
3370
3352
3356
3368
3371
3364
3346
3319
3292
3282
3287
3271
3200
3093
3009
2966
2899
2740
2523
2362
2308
2278
2180
2092
2229
2703
3353
3880
4152
4311
4561
4894
5088
4956
4551
4086
3731
3503
3334
3190
3091
3056
3075
3122
3177
3226
3252
3240
3193
3125
3055
3002
2982
3000
3037
3063
3066
3050
3025
2992
2956
2933
2939
2975
3019
3046
3045
3022
2991
2965
2949
2942
2936
2923
2909
2906
2914
2920
2911
2892
2878
2874
2869
2851
2825
2803
2790
2775
2754
2729
2710
2697
2681
2659
2637
2625
2622
2616
2602
2588
2579
2571
2558
2539
2524
2520
2525
2532
2539
2550
2572
2604
2639
2673
2704
2733
2760
2787
2817
2850
2880
2908
2938
2977
3022
3061
3092
3122
3159
3201
3234
3254
3270
3295
3327
3351
3363
3369
3383
3405
3424
3431
3429
3428
3429
3430
3424
3413
3407
3411
3424
3438
3446
3446
3442
3440
3445
3447
3435
3408
3377
3353
3343
3345
3351
3355
3346
3321
3292
3276
3275
3273
3253
3217
3192
3190
3200
3200
3187
3177
3176
3177
3165
3147
3139
3145
3153
3149
3139
3139
3153
3170
3177
3173
3165
3160
3158
3157
3157
3158
3158
3156
3152
3144
3134
3128
3132
3147
3161
3166
3160
3150
3144
3138
3126
3103
3077
3060
3062
3077
3088
3085
3074
3072
3088
3106
3105
3076
3037
3011
3007
3015
3021
3022
3026
3033
3042
3049
3059
3075
3097
3117
3128
3132
3141
3164
3196
3224
3234
3224
3203
3182
3168
3163
3158
3143
3118
3093
3090
3112
3142
3151
3132
3105
3100
3121
3145
3141
3108
3076
3081
3124
3162
3141
3061
2974
2916
2854
2714
2496
2293
2189
2146
2062
1949
1994
2371
3015
3637
4014
4198
4411
4740
5016
5002
4658
4170
3756
3488
3301
3138
3012
2961
2986
3048
3110
3163
3204
3219
3192
3120
3023
2934
2885
2887
2924
2965
2986
2978
2951
2920
2894
2880
2878
2884
2891
2892
2888
2876
2854
2821
2786
2764
2765
2778
2786
2783
2776
2778
2784
2783
2766
2739
2714
2696
2678
2654
2627
2605
2594
2591
2590
2584
2569
2549
2527
2505
2481
2455
2426
2396
2364
2337
2322
2325
2341
2360
2377
2396
2423
2455
2482
2500
2523
2559
2604
2640
2660
2676
2705
2746
2786
2815
2837
2866
2906
2951
2989
3021
3054
3089
3122
3147
3164
3181
3201
3221
3236
3245
3253
3268
3289
3308
3319
3326
3339
3360
3382
3396
3405
3417
3432
3440
3436
3424
3416
3409
3395
3369
3343
3333
3338
3343
3333
3315
3304
3307
3314
3310
3293
3270
3252
3241
3236
3234
3233
3230
3220
3204
3187
3176
3174
3176
3173
3164
3156
3154
3162
3170
3172
3168
3162
3158
3156
3152
3145
3139
3136
3136
3137
3133
3126
3118
3112
3108
3102
3093
3089
3100
3125
3151
3160
3145
3118
3099
3098
3104
3097
3073
3051
3058
3095
3139
3160
3158
3152
3157
3165
3153
3113
3062
3029
3021
3026
3026
3018
3014
3024
3045
3070
3089
3103
3119
3141
3167
3189
3206
3223
3243
3263
3276
3274
3258
3239
3228
3230
3236
3233
3220
3205
3200
3206
3211
3205
3191
3182
3184
3192
3190
3170
3140
3120
3127
3154
3169
3133
3052
2969
2909
2828
2664
2431
2234
2151
2127
2045
1919
1948
2320
2974
3614
4007
4198
4408
4727
4996
4983
4647
4163
3737
3440
3227
3052
2929
2882
2901
2952
3013
3072
3116
3125
3092
3024
2939
2859
2807
2801
2833
2871
2890
2884
2861
2830
2791
2750
2724
2728
2754
2780
2785
2772
2755
2745
2738
2727
2711
2693
2678
2669
2663
2655
2643
2632
2623
2614
2602
2587
2573
2562
2550
2530
2504
2481
2465
2451
2432
2409
2391
2381
2374
2364
2353
2346
2342
2337
2333
2335
2347
2359
2364
2362
2366
2382
2408
2437
2466
2501
2540
2575
2602
2625
2654
2690
2725
2752
2773
2800
2835
2874
2909
2942
2977
3012
3042
3068
3095
3127
3161
3187
3202
3213
3230
3252
3271
3284
3293
3302
3312
3321
3326
3334
3345
3353
3347
3329
3312
3307
3308
3298
3270
3240
3228
3239
3255
3259
3254
3257
3275
3296
3302
3291
3274
3262
3252
3238
3220
3203
3191
3180
3165
3153
3149
3157
3166
3168
3163
3157
3157
3161
3165
3167
3165
3160
3152
3146
3145
3147
3148
3145
3141
3142
3153
3167
3175
3174
3167
3165
3169
3170
3164
3149
3135
3130
3134
3140
3142
3135
3123
3111
3101
3095
3088
3076
3058
3039
3032
3041
3057
3064
3056
3042
3035
3038
3039
3026
2999
2972
2953
2942
2933
2930
2938
2957
2976
2989
3002
3028
3069
3107
3125
3126
3130
3148
3175
3191
3187
3172
3161
3160
3166
3169
3165
3157
3150
3148
3152
3161
3170
3177
3182
3185
3185
3183
3178
3166
3142
3110
3087
3082
3068
3010
2913
2822
2755
2664
2494
2279
2126
2078
2048
1948
1861
2013
2522
3215
3775
4059
4217
4464
4794
4976
4820
4384
3893
3520
3270
3066
2885
2770
2754
2808
2876
2925
2958
2982
2984
2949
2875
2787
2717
2687
2695
2725
2757
2772
2761
2726
2685
2655
2641
2637
2633
2631
2637
2644
2639
2614
2583
2562
2560
2563
2561
2556
2555
2560
2556
2536
2511
2496
2494
2491
2477
2453
2433
2422
2415
2404
2386
2366
2345
2326
2311
2301
2291
2276
2255
2231
2206
2181
2157
2142
2141
2150
2160
2170
2189
2222
2265
2305
2339
2374
2412
2448
2479
2509
2549
2598
2641
2674
2703
2738
2777
2809
2831
2857
2895
2940
2975
2992
3008
3040
3084
3123
3142
3142
3136
3137
3149
3170
3195
3214
3219
3215
3215
3226
3245
3258
3255
3243
3235
3238
3247
3251
3242
3225
3212
3210
3211
3202
3180
3155
3139
3132
3125
3112
3097
3087
3083
3081
3074
3063
3050
3037
3023
3012
3006
3005
3001
2987
2971
2965
2978
3001
3020
3026
3025
3024
3025
3022
3014
3008
3007
3007
2999
2985
2973
2971
2974
2975
2970
2963
2956
2948
2937
2933
2943
2963
2977
2972
2957
2952
2965
2982
2980
2954
2920
2897
2888
2885
2878
2866
2858
2856
2862
2876
2894
2908
2907
2892
2871
2850
2828
2798
2761
2723
2693
2677
2676
2692
2722
2757
2790
2822
2860
2906
2950
2979
2990
2993
2999
3011
3019
3019
3016
3014
3017
3025
3032
3040
3049
3058
3066
3066
3061
3055
3055
3058
3056
3044
3022
2993
2961
2932
2917
2927
2945
2930
2864
2780
2720
2666
2548
2339
2121
1999
1961
1890
1745
1687
1946
2545
3226
3698
3926
4119
4433
4766
4868
4623
4159
3699
3361
3121
2926
2780
2711
2718
2763
2819
2878
2935
2966
2952
2898
2823
2747
2686
2658
2669
2707
2738
2731
2683
2619
2567
2537
2524
2519
2522
2536
2561
2592
2612
2607
2573
2529
2505
2510
2524
2515
2481
2449
2443
2462
2482
2484
2472
2459
2450
2439
2427
2415
2398
2370
2330
2292
2269
2259
2247
2228
2207
2197
2197
2197
2187
2174
2172
2189
2213
2227
2224
2211
2208
2226
2257
2287
2309
2330
2358
2391
2426
2460
2501
2547
2586
2608
2620
2643
2688
2742
2781
2792
2791
2806
2843
2884
2908
2914
2924
2952
2988
3013
3026
3044
3076
3108
3118
3106
3095
3108
3137
3158
3156
3142
3134
3135
3137
3131
3122
3115
3107
3091
3064
3036
3017
3009
3000
280
336
354
324
301
319
345
323
265
246
301
362
326
180
16
-87
-173
-345
-611
-853
-960
-966
-975
-970
-769
-250
455
1034
1319
1430
1601
1866
2017
1844
1371
833
443
246
155
90
35
15
47
126
228
322
375
375
325
232
117
29
21
89
159
158
96
59
99
169
182
121
55
52
94
118
100
63
24
-25
-71
-53
71
243
340
306
215
188
249
320
323
268
195
105
-29
-178
-255
-228
-180
-230
-382
-500
-456
-279
-129
-116
-208
-288
-292
-261
-272
-341
-426
-486
-516
-524
-500
-420
-277
-109
28
94
96
89
115
162
168
88
-35
-99
-45
79
190
271
397
613
839
919
791
564
401
351
300
131
-112
-256
-180
62
295
390
373
357
404
468
466
382
296
285
350
424
458
479
543
657
750
742
633
507
444
453
487
501
494
498
531
570
574
538
503
507
543
554
508
445
430
476
509
463
367
316
362
443
467
420
381
415
492
537
519
488
496
534
550
511
439
389
401
477
582
669
700
667
590
497
398
293
178
50
-87
-206
-255
-191
-36
127
213
212
196
234
311
349
290
174
104
148
265
348
344
318
367
489
576
532
400
312
331
392
392
327
290
345
443
482
423
320
249
247
292
326
289
168
33
-19
20
27
-111
-353
-535
-564
-546
-641
-802
-770
-354
323
921
1237
1392
1618
1949
2165
2053
1654
1203
882
677
490
309
225
271
362
388
347
326
371
416
377
268
187
183
203
185
147
165
258
339
322
231
155
150
190
227
244
239
201
132
75
72
104
101
43
-14
-7
55
104
111
119
166
213
196
117
44
27
36
10
-68
-156
-210
-220
-196
-152
-117
-122
-172
-230
-240
-200
-170
-197
-265
-307
-288
-224
-155
-104
-82
-98
-150
-201
-193
-102
25
115
152
185
266
381
468
493
486
492
512
509
482
500
632
845
998
972
791
603
522
518
470
312
105
-28
-29
65
183
286
374
435
443
393
326
301
335
394
422
398
363
378
456
545
586
569
537
530
536
514
460
419
435
487
511
472
406
381
421
479
498
454
377
320
319
373
445
488
489
480
508
584
662
687
637
541
438
349
286
257
257
262
246
222
231
297
391
441
399
286
175
128
154
210
251
265
269
287
328
385
441
479
485
451
400
366
370
406
441
453
449
449
471
516
556
568
552
522
498
488
486
493
506
516
509
486
466
466
483
495
493
484
459
380
233
72
-30
-77
-173
-396
-664
-800
-726
-558
-459
-406
-194
311
966
1475
1695
1770
1911
2120
2185
1951
1520
1142
948
849
706
514
397
436
554
618
593
565
605
674
675
577
448
366
318
239
121
38
54
129
171
159
185
330
550
699
672
497
296
176
159
212
295
377
448
508
581
669
748
765
680
510
333
231
242
334
441
520
576
642
715
738
659
503
363
301
275
190
39
-48
64
333
550
558
436
400
539
715
736
582
410
342
341
314
257
241
301
400
502
611
734
832
860
850
862
896
896
856
884
1061
1290
1373
1245
1064
1048
1213
1370
1354
1224
1167
1264
1404
1435
1338
1206
1107
1003
820
578
387
320
335
336
282
224
226
291
367
408
414
372
253
67
-104
-156
-64
87
194
236
284
406
597
783
900
935
927
921
926
913
853
767
716
732
773
783
748
722
752
805
798
699
554
438
382
375
395
410
396
338
260
214
233
300
390
473
527
526
463
372
332
387
495
558
512
395
314
356
513
698
817
824
734
620
585
687
880
1002
900
603
321
258
404
526
429
161
-49
-39
128
251
225
122
93
200
353
415
317
105
-90
-147
-71
-14
-151
-509
-897
-1079
-1017
-923
-1003
-1177
-1142
-713
-30
584
943
1155
1412
1731
1928
1815
1413
937
603
451
340
142
-49
34
515
1157
1519
1397
1059
942
1145
1334
1129
549
-24
-263
-153
72
193
125
-108
-406
-607
-578
-333
-78
-15
-134
-265
-278
-200
-145
-184
-291
-429
-588
-752
-859
-869
-823
-809
-845
-862
-835
-829
-929
-1110
-1221
-1178
-1071
-1059
-1177
-1298
-1288
-1159
-1041
-1030
-1142
-1336
-1541
-1675
-1690
-1612
-1560
-1633
-1773
-1791
-1588
-1303
-1187
-1333
-1534
-1520
-1259
-1044
-1138
-1451
-1622
-1437
-1092
-941
-1065
-1215
-1113
-778
-501
-480
-653
-811
-800
-627
-412
-292
-340
-479
-524
-377
-154
-87
-270
-516
-576
-436
-326
-405
-555
-571
-449
-406
-564
-795
-849
-670
-445
-364
-419
-460
-405
-320
-279
-287
-334
-427
-579
-749
-867
-917
-925
-883
-766
-609
-533
-608
-710
-666
-496
-418
-586
-871
-1022
-983
-903
-886
-843
-687
-539
-578
-745
-778
-550
-297
-365
-752
-1069
-988
-622
-362
-415
-613
-683
-576
-463
-501
-682
-889
-1036
-1048
-885
-627
-423
-364
-346
-183
102
269
181
-8
-70
-46
-189
-540
-757
-521
-13
251
85
-142
-8
396
601
393
64
-40
-6
-119
-385
-497
-295
-15
26
-166
-342
-343
-251
-187
-145
-150
-334
-733
-1137
-1275
-1158
-1105
-1339
-1726
-2013
-2134
-2165
-2053
-1610
-819
5
494
663
866
1330
1827
1944
1533
853
306
44
-65
-186
-314
-326
-194
-51
-45
-141
-159
-10
158
135
-69
-224
-164
4
50
-60
-131
-30
117
79
-167
-389
-374
-178
-42
-96
-241
-307
-254
-185
-194
-255
-263
-186
-98
-84
-143
-191
-158
-74
-31
-68
-138
-161
-121
-72
-66
-105
-149
-175
-197
-237
-290
-322
-305
-262
-235
-244
-251
-210
-131
-88
-134
-226
-254
-167
-50
-33
-140
-250
-227
-79
53
48
-63
-149
-132
-65
-54
-129
-215
-228
-169
-110
-98
-104
-66
31
145
241
326
422
527
614
681
772
908
1050
1126
1122
1103
1147
1251
1333
1328
1260
1213
1241
1307
1330
1279
1191
1125
1092
1052
971
870
801
798
844
886
886
845
795
775
795
833
854
856
877
957
1075
1147
1114
1025
1001
1101
1241
1271
1122
873
662
556
519
497
491
529
592
650
752
1048
1619
2263
2547
2165
1256
322
-251
-529
-858
-1396
-1887
-1912
-1317
-324
703
1540
2149
2554
2751
2731
2514
2178
1836
1587
1447
1356
1263
1212
1315
1600
1912
2037
1917
1720
1629
1658
1666
1545
1325
1117
988
949
983
1064
1159
1238
1308
1393
1466
1452
1318
1133
984
882
779
673
644
758
947
1045
952
717
449
227
101
116
297
593
907
1198
1517
1924
2374
2718
2821
2651
2284
1876
1588
1489
1499
1454
1296
1160
1226
1481
1703
1709
1559
1472
1548
1645
1559
1282
1012
924
985
1029
962
856
842
930
1013
995
901
840
856
874
800
652
550
560
626
637
576
517
518
537
503
430
393
412
416
342
238
203
248
273
192
60
15
88
162
110
-55
-197
-220
-163
-125
-152
-221
-297
-362
-384
-324
-212
-162
-264
-464
-608
-603
-514
-466
-491
-512
-470
-407
-391
-407
-378
-287
-220
-247
-322
-330
-230
-92
-9
13
28
67
114
161
231
317
370
358
314
305
336
340
282
210
192
213
196
129
99
185
338
421
364
242
186
233
292
264
141
5
-58
-32
30
60
31
-32
-90
-125
-141
-134
-96
-59
-62
-115
-165
-154
-97
-75
-119
-178
-186
-147
-124
-151
-212
-275
-328
-359
-351
-314
-313
-393
-483
-450
-269
-84
-49
-151
-236
-194
-87
-51
-123
-212
-222
-158
-104
-127
-201
-243
-196
-86
-8
-42
-153
-220
-145
31
168
178
107
72
121
206
247
223
170
130
110
99
81
56
37
36
62
100
119
94
50
40
84
118
57
-113
-306
-418
-435
-452
-557
-730
-865
-909
-919
-974
-1043
-985
-680
-173
361
773
1049
1285
1543
1767
1829
1646
1269
851
509
259
61
-103
-203
-215
-164
-100
-33
70
199
286
268
187
149
193
244
214
118
53
65
92
39
-84
-165
-124
-8
67
56
17
21
59
66
16
-34
-20
48
93
66
0
-45
-49
-41
-45
-51
-49
-63
-114
-180
-206
-170
-116
-115
-195
-311
-386
-390
-366
-393
-499
-630
-709
-727
-736
-784
-847
-863
-819
-765
-723
-652
-531
-424
-426
-515
-551
-462
-344
-360
-528
-676
-655
-499
-369
-335
-322
-242
-105
11
81
139
199
219
174
118
122
188
248
258
256
303
399
482
510
502
511
543
566
569
581
620
653
632
577
565
633
713
688
533
355
297
383
498
515
427
345
355
431
472
430
351
297
279
261
232
220
239
254
236
218
266
386
498
529
497
477
507
542
522
441
339
251
181
129
102
97
101
129
210
342
457
484
437
405
435
460
391
243
134
151
239
275
212
139
168
292
395
402
363
383
486
590
598
512
433
440
508
551
509
401
299
260
289
346
372
334
261
212
227
284
317
296
253
232
226
205
168
168
225
269
204
35
-131
-212
-261
-383
-600
-830
-983
-1047
-1032
-886
-535
-7
533
937
1212
1468
1740
1915
1856
1569
1201
891
673
508
377
301
294
337
393
450
496
510
466
365
251
175
154
158
155
149
162
207
262
296
294
263
212
152
103
89
112
133
124
102
111
172
258
334
393
440
458
427
367
330
341
354
314
238
205
248
301
273
159
42
10
62
114
106
55
26
60
128
157
103
-1
-84
-108
-113
-157
-231
-258
-175
-32
61
53
12
34
124
198
189
117
53
39
55
80
123
201
308
418
516
620
727
792
789
760
759
785
768
663
536
519
655
823
879
827
812
941
1129
1190
1057
868
816
955
1135
1167
1024
869
887
1092
1305
1328
1169
1038
1115
1337
1467
1369
1155
1025
1030
1046
954
814
761
809
855
821
748
708
697
632
474
289
167
128
115
60
-42
-109
-65
77
203
206
123
116
267
462
544
531
610
871
1142
1174
958
750
758
897
914
734
544
539
701
860
912
907
916
916
860
788
783
845
867
773
640
613
729
864
888
801
699
655
653
652
641
632
623
613
630
685
744
739
655
565
546
588
590
479
298
149
71
3
-151
-403
-658
-803
-813
-768
-756
-739
-567
-142
425
887
1116
1219
1382
1612
1703
1499
1117
816
692
589
356
107
81
291
469
373
103
-11
168
422
458
250
34
11
133
225
202
118
46
3
-31
-73
-130
-192
-201
-94
114
298
354
319
346
497
655
664
522
378
340
355
300
164
65
95
212
265
170
2
-79
-1
121
102
-113
-362
-424
-275
-122
-153
-312
-354
-176
39
38
-185
-372
-335
-188
-211
-483
-766
-787
-565
-384
-454
-672
-740
-515
-156
46
-52
-327
-533
-511
-329
-186
-229
-415
-547
-453
-176
54
55
-111
-191
-48
163
147
-159
-474
-493
-235
-22
-88
-301
-349
-154
14
-136
-532
-836
-853
-750
-814
-1053
-1157
-867
-308
134
232
131
121
285
453
458
309
128
-24
-152
-232
-175
35
261
323
190
9
-60
-12
14
-88
-276
-413
-407
-279
-128
-24
5
-27
-91
-141
-109
39
220
278
171
36
47
225
419
463
350
173
-11
-174
-256
-204
-87
-82
-263
-444
-366
-8
348
443
336
283
402
541
515
352
233
255
324
317
231
166
178
216
220
211
215
183
47
-145
-252
-185
-19
92
89
60
69
42
-102
-293
-375
-345
-401
-689
-1069
-1237
-1074
-794
-682
-802
-1007
-1159
-1235
-1237
-1104
-798
-391
8
334
579
762
937
1175
1462
1576
1258
567
-56
-214
-20
43
-256
-604
-580
-222
10
-113
-290
-110
329
500
122
-430
-580
-217
204
202
-208
-607
-647
-374
-102
-67
-246
-439
-442
-207
112
269
158
-86
-201
-63
175
250
28
-338
-579
-565
-378
-212
-170
-215
-249
-219
-161
-139
-175
-248
-348
-482
-638
-752
-734
-581
-400
-322
-363
-410
-353
-215
-125
-168
-294
-374
-346
-270
-242
-286
-320
-271
-161
-77
-71
-106
-88
16
136
160
60
-53
-24
190
449
543
408
201
143
307
545
662
617
533
543
652
770
830
840
827
790
722
665
681
766
828
794
701
654
695
759
753
682
621
616
632
620
588
578
590
575
508
435
410
413
370
255
140
118
193
280
316
317
337
385
417
420
429
467
495
450
333
230
220
279
311
270
204
196
265
354
399
406
426
486
551
568
528
475
467
514
556
525
411
294
268
345
442
470
439
445
553
726
867
926
940
966
1007
1021
984
930
907
916
912
871
828
836
905
986
1036
1063
1107
1171
1206
1166
1074
989
949
930
900
866
869
927
1013
1079
1089
1040
948
818
642
417
170
-49
-212
-338
-453
-511
-399
-26
558
1174
1662
2012
2324
2645
2873
2849
2518
2001
1500
1141
920
767
646
578
608
753
958
1130
1203
1169
1061
919
768
630
547
550
641
792
990
1216
1414
1512
1490
1421
1403
1447
1460
1370
1223
1126
1102
1057
905
714
652
795
1023
1167
1192
1209
1325
1490
1556
1448
1211
903
529
100
-295
-512
-474
-262
-31
138
311
588
970
1329
1493
1389
1109
846
747
805
877
832
702
647
773
1006
1161
1125
975
899
980
1125
1191
1123
1004
961
1036
1157
1220
1175
1066
988
998
1074
1144
1168
1169
1205
1273
1297
1217
1075
992
1051
1192
1277
1235
1131
1079
1114
1185
1241
1271
1263
1186
1036
892
858
933
992
912
718
558
548
643
703
633
468
326
306
439
674
908
1027
974
817
705
739
851
852
605
189
-149
-219
-61
103
107
-21
-122
-91
28
111
102
28
-65
-149
-212
-227
-192
-155
-174
-239
-291
-294
-275
-276
-284
-259
-212
-228
-351
-504
-557
-477
-381
-387
-468
-486
-369
-200
-123
-165
-236
-255
-249
-294
-402
-495
-504
-449
-408
-414
-428
-395
-318
-247
-230
-257
-287
-297
-295
-300
-312
-327
-347
-387
-452
-519
-564
-585
-600
-615
-603
-549
-501
-546
-717
-934
-1082
-1148
-1250
-1483
-1788
-2014
-2102
-2135
-2181
-2140
-1840
-1292
-733
-385
-208
21
390
708
723
413
0
-308
-496
-672
-878
-1042
-1089
-1040
-970
-919
-879
-835
-788
-756
-769
-858
-998
-1101
-1075
-926
-787
-789
-922
-1041
-1028
-923
-858
-905
-1004
-1044
-995
-913
-867
-866
-881
-899
-913
-912
-895
-885
-909
-968
-1025
-1047
-1047
-1060
-1098
-1139
-1160
-1170
-1183
-1189
-1164
-1112
-1062
-1022
-966
-867
-757
-721
-822
-1019
-1194
-1268
-1284
-1344
-1495
-1659
-1706
-1596
-1415
-1282
-1228
-1209
-1191
-1170
-1148
-1080
-933
-759
-672
-738
-894
-1015
-1037
-1012
-1035
-1127
-1216
-1224
-1135
-994
-858
-760
-709
-692
-688
-687
-695
-725
-773
-799
-773
-704
-634
-599
-585
-545
-475
-430
-476
-612
-756
-804
-725
-593
-515
-546
-643
-717
-712
-655
-617
-657
-775
-925
-1032
-1058
-1032
-1033
-1117
-1249
-1327
-1272
-1125
-1005
-994
-1055
-1110
-1133
-1162
-1238
-1346
-1433
-1456
-1418
-1351
-1305
-1304
-1333
-1341
-1287
-1200
-1173
-1256
-1395
-1483
-1468
-1402
-1366
-1373
-1376
-1354
-1348
-1404
-1502
-1575
-1581
-1562
-1586
-1678
-1774
-1790
-1708
-1605
-1575
-1628
-1686
-1671
-1604
-1571
-1612
-1653
-1600
-1463
-1357
-1361
-1423
-1427
-1347
-1278
-1316
-1431
-1495
-1449
-1367
-1352
-1400
-1415
-1340
-1235
-1196
-1233
-1270
-1255
-1226
-1235
-1267
-1271
-1261
-1305
-1418
-1500
-1450
-1337
-1354
-1589
-1909
-2121
-2203
-2309
-2546
-2831
-3020
-3097
-3134
-3107
-2857
-2303
-1615
-1087
-822
-657
-389
-49
125
-48
-506
-1018
-1390
-1589
-1697
-1797
-1909
-1999
-2026
-1978
-1883
-1794
-1758
-1795
-1897
-2024
-2123
-2167
-2168
-2159
-2150
-2120
-2054
-1987
-1961
-1974
-1993
-2000
-2024
-2092
-2185
-2263
-2316
-2356
-2380
-2354
-2266
-2173
-2141
-2161
-2162
-2105
-2049
-2086
-2232
-2396
-2471
-2437
-2358
-2310
-2311
-2325
-2311
-2264
-2210
-2185
-2215
-2290
-2374
-2423
-2430
-2437
-2496
-2601
-2688
-2692
-2618
-2537
-2503
-2484
-2408
-2252
-2080
-1976
-1958
-1976
-1980
-1973
-1980
-1993
-1975
-1912
-1834
-1788
-1769
-1720
-1605
-1469
-1398
-1418
-1447
-1380
-1221
-1096
-1105
-1200
-1232
-1122
-957
-866
-874
-892
-844
-739
-624
-501
-369
-278
-307
-449
-589
-641
-649
-727
-897
-1035
-1008
-820
-610
-507
-496
-459
-335
-198
-170
-284
-432
-487
-456
-443
-498
-542
-473
-325
-257
-351
-505
-549
-457
-388
-492
-708
-820
-677
-376
-164
-182
-329
-365
-193
24
51
-149
-375
-421
-311
-235
-289
-362
-301
-140
-62
-144
-244
-186
10
124
8
-224
-321
-178
50
117
-54
-303
-412
-334
-231
-283
-487
-681
-723
-641
-584
-632
-713
-707
-585
-440
-367
-363
-353
-290
-211
-177
-194
-204
-176
-121
-75
-61
-72
-88
-80
-20
90
200
261
288
349
478
623
681
604
440
259
72
-167
-472
-802
-1090
-1308
-1483
-1626
-1676
-1522
-1089
-456
185
685
1041
1354
1664
1870
1839
1549
1113
672
285
-56
-326
-450
-414
-307
-246
-239
-200
-70
82
131
36
-112
-201
-228
-270
-362
-423
-363
-228
-180
-306
-511
-616
-559
-439
-404
-500
-652
-764
-808
-823
-860
-935
-1015
-1055
-1040
-1029
-1101
-1261
-1408
-1434
-1348
-1277
-1336
-1505
-1653
-1676
-1592
-1514
-1543
-1690
-1876
-2010
-2057
-2048
-2046
-2076
-2130
-2191
-2256
-2323
-2382
-2404
-2388
-2366
-2376
-2417
-2440
-2413
-2343
-2286
-2288
-2335
-2368
-2330
-2237
-2165
-2164
-2205
-2224
-2186
-2107
-2032
-1977
-1949
-1959
-2000
-2017
-1945
-1790
-1646
-1612
-1675
-1709
-1619
-1436
-1278
-1242
-1325
-1452
-1537
-1541
-1486
-1460
-1553
-1741
-1893
-1881
-1722
-1578
-1575
-1686
-1790
-1806
-1758
-1721
-1744
-1825
-1943
-2036
-2034
-1925
-1812
-1814
-1937
-2061
-2078
-2024
-2002
-2040
-2076
-2070
-2075
-2137
-2206
-2185
-2077
-2003
-2047
-2156
-2215
-2181
-2100
-2034
-2001
-2018
-2101
-2228
-2326
-2335
-2293
-2307
-2402
-2465
-2385
-2195
-2041
-2022
-2087
-2095
-1989
-1868
-1869
-2014
-2179
-2212
-2086
-1917
-1835
-1858
-1899
-1880
-1815
-1769
-1758
-1748
-1731
-1743
-1798
-1843
-1811
-1712
-1642
-1655
-1703
-1713
-1694
-1720
-1787
-1790
-1657
-1465
-1382
-1478
-1621
-1620
-1449
-1291
-1311
-1474
-1587
-1534
-1410
-1375
-1449
-1502
-1440
-1333
-1329
-1473
-1674
-1838
-1967
-2106
-2275
-2448
-2594
-2684
-2652
-2416
-1970
-1443
-984
-627
-287
88
421
568
479
249
11
-203
-463
-800
-1127
-1297
-1261
-1133
-1070
-1104
-1118
-1013
-844
-754
-798
-875
-878
-836
-858
-973
-1072
-1042
-914
-826
-865
-977
-1041
-994
-859
-716
-661
-765
-983
-1164
-1157
-971
-793
-803
-1000
-1201
-1251
-1146
-1003
-942
-992
-1104
-1180
-1118
-923
-748
-772
-990
-1186
-1171
-1037
-1036
-1242
-1448
-1439
-1273
-1199
-1303
-1403
-1312
-1120
-1070
-1221
-1364
-1296
-1110
-1051
-1187
-1332
-1293
-1104
-961
-984
-1102
-1162
-1110
-990
-893
-846
-802
-726
-640
-599
-629
-674
-639
-516
-397
-402
-530
-638
-578
-366
-159
-105
-210
-339
-350
-232
-105
-100
-218
-354
-419
-414
-388
-354
-294
-210
-152
-155
-180
-168
-125
-123
-194
-289
-346
-371
-435
-527
-543
-417
-225
-135
-210
-348
-398
-326
-240
-265
-419
-601
-709
-724
-691
-653
-617
-581
-552
-534
-510
-454
-366
-281
-244
-271
-332
-388
-399
-357
-286
-231
-212
-207
-174
-94
5
73
92
69
23
-22
-40
-16
31
65
62
45
56
100
146
152
111
62
50
88
148
196
221
252
314
400
474
517
556
625
711
751
720
665
672
763
868
898
850
808
851
981
1118
1174
1145
1089
1067
1071
1043
958
869
839
870
899
876
808
729
633
487
293
94
-88
-272
-423
-405
-68
572
1294
1863
2226
2511
2827
3123
3249
3118
2777
2358
1992
1763
1687
1709
1734
1721
1707
1745
1814
1839
1784
1697
1651
1654
1665
1664
1694
1817
2028
2244
2354
2301
2122
1927
1823
1833
1874
1847
1738
1648
1677
1811
1928
1933
1853
1804
1837
1889
1877
1823
1842
1992
2192
2298
2251
2139
2083
2107
2124
2033
1827
1570
1339
1175
1070
999
942
883
815
742
684
666
713
825
958
1048
1061
1035
1028
1044
1035
986
962
1044
1221
1380
1441
1458
1553
1761
1986
2107
2102
2059
2048
2062
2051
1994
1925
1870
1814
1735
1644
1582
1591
1657
1717
1705
1621
1525
1464
1411
1300
1123
968
921
947
933
835
776
914
1249
1574
1657
1453
1129
899
815
744
532
187
-104
-166
-32
80
-6
-217
-332
-253
-115
-114
-271
-432
-477
-464
-516
-642
-734
-726
-692
-737
-848
-901
-803
-599
-415
-322
-283
-238
-167
-117
-138
-242
-398
-560
-683
-726
-683
-593
-522
-516
-555
-586
-595
-607
-646
-712
-777
-825
-848
-843
-813
-805
-877
-1017
-1129
-1107
-968
-848
-858
-966
-1045
-1012
-921
-896
-997
-1173
-1315
-1366
-1371
-1415
-1520
-1614
-1621
-1536
-1454
-1459
-1544
-1633
-1666
-1649
-1630
-1649
-1711
-1788
-1826
-1774
-1647
-1538
-1531
-1611
-1675
-1647
-1556
-1491
-1497
-1553
-1627
-1733
-1897
-2105
-2314
-2495
-2661
-2837
-3009
-3095
-2967
-2546
-1908
-1270
-820
-543
-275
72
355
329
-67
-623
-1056
-1282
-1431
-1617
-1780
-1777
-1568
-1290
-1129
-1140
-1222
-1240
-1163
-1084
-1111
-1249
-1391
-1418
-1318
-1188
-1125
-1139
-1171
-1172
-1149
-1130
-1127
-1127
-1115
-1090
-1055
-1018
-1009
-1056
-1135
-1180
-1141
-1056
-1008
-1034
-1085
-1084
-1014
-941
-931
-993
-1077
-1135
-1161
-1175
-1193
-1214
-1226
-1219
-1187
-1144
-1111
-1108
-1130
-1144
-1127
-1088
-1065
-1084
-1143
-1211
-1246
-1229
-1172
-1116
-1090
-1093
-1100
-1079
-1025
-954
-898
-882
-901
-932
-937
-900
-835
-771
-724
-675
-605
-526
-455
-384
-286
-170
-72
-3
96
293
548
709
653
434
243
209
276
298
235
189
248
373
459
478
493
545
572
493
341
236
257
360
462
543
637
759
863
907
918
948
996
1012
967
902
889
958
1078
1198
1281
1308
1278
1191
1073
977
958
1016
1084
1080
997
917
936
1048
1159
1198
1196
1221
1275
1289
1226
1141
1106
1110
1073
971
887
919
1052
1177
1197
1131
1065
1044
1041
999
900
781
695
659
673
716
774
841
915
995
1062
1089
1065
1010
953
908
861
786
685
594
551
544
523
464
425
490
669
853
914
839
742
725
761
719
532
272
80
17
34
54
66
104
191
300
388
424
399
322
204
55
-120
-299
-447
-548
-627
-712
-752
-614
-205
402
1010
1467
1797
2122
2478
2751
2786
2548
2139
1697
1324
1049
876
790
759
766
804
880
971
1043
1072
1050
976
855
710
592
544
568
628
676
689
672
664
708
815
937
993
934
797
674
617
588
506
343
159
53
71
173
282
349
380
411
456
508
548
571
572
533
451
353
285
277
298
295
248
199
199
246
285
281
257
246
234
172
61
-30
-30
39
85
66
49
125
295
452
510
494
488
526
570
585
594
626
664
668
651
667
740
825
861
857
881
962
1047
1071
1050
1068
1164
1276
1295
1197
1076
1058
1174
1325
1393
1356
1304
1327
1423
1505
1502
1429
1339
1270
1215
1163
1130
1127
1140
1145
1139
1142
1159
1172
1162
1150
1170
1222
1269
1269
1232
1209
1236
1278
1258
1150
1032
997
1037
1052
979
881
879
986
1073
1029
900
817
827
852
813
753
777
906
1058
1172
1278
1419
1560
1624
1604
1567
1555
1532
1467
1398
1391
1411
1356
1193
1028
985
1060
1137
1134
1081
1068
1141
1262
1374
1441
1454
1411
1336
1289
1320
1413
1471
1413
1280
1234
1384
1634
1748
1601
1323
1192
1336
1587
1692
1607
1520
1604
1785
1850
1716
1540
1521
1619
1607
1377
1090
996
1109
1190
1026
663
340
198
166
88
-76
-252
-376
-428
-345
-13
575
1227
1684
1877
1983
2202
2511
2683
2548
2160
1730
1442
1331
1302
1252
1159
1081
1090
1191
1303
1332
1270
1186
1140
1125
1105
1077
1076
1126
1203
1255
1237
1168
1085
1018
963
903
851
827
819
790
723
654
649
705
724
636
512
480
558
603
499
323
282
428
575
541
402
396
585
726
559
159
-131
-101
84
97
-140
-374
-339
-53
221
270
127
-22
-68
-53
-83
-194
-330
-413
-422
-395
-371
-337
-230
-53
73
17
-177
-311
-242
-53
26
-94
-241
-179
109
402
509
452
391
421
502
558
556
507
429
349
322
361
398
348
226
153
205
324
368
281
159
147
292
496
602
520
305
111
61
126
139
6
-174
-218
-77
104
158
85
24
55
126
155
121
53
-42
-157
-227
-207
-147
-168
-294
-387
-316
-144
-61
-146
-257
-238
-138
-128
-245
-359
-359
-319
-370
-478
-485
-327
-130
-56
-97
-118
-63
-10
-47
-148
-221
-248
-295
-385
-466
-471
-416
-367
-355
-354
-313
-202
-39
114
186
140
27
-58
-64
-53
-109
-232
-330
-339
-313
-322
-362
-357
-281
-226
-300
-483
-632
-624
-481
-349
-342
-438
-508
-451
-307
-200
-230
-372
-510
-539
-480
-448
-528
-689
-823
-891
-974
-1191
-1528
-1820
-1911
-1842
-1797
-1848
-1816
-1432
-672
145
652
785
815
1010
1307
1404
1115
589
142
-50
-84
-158
-340
-512
-532
-399
-254
-240
-382
-568
-673
-672
-626
-608
-629
-644
-608
-532
-460
-414
-400
-439
-561
-734
-848
-813
-677
-614
-734
-936
-1003
-834
-579
-476
-581
-729
-745
-640
-564
-608
-709
-759
-744
-724
-726
-705
-651
-636
-732
-891
-987
-961
-897
-903
-979
-1030
-994
-902
-826
-801
-822
-873
-929
-951
-922
-876
-865
-877
-811
-597
-318
-172
-259
-466
-570
-491
-372
-398
-556
-646
-533
-321
-213
-258
-293
-147
99
211
86
-117
-156
21
239
302
214
127
147
252
356
412
431
426
385
311
253
254
318
376
339
190
22
-38
40
171
233
194
116
66
59
71
87
110
124
145
196
271
342
363
344
351
415
474
443
321
191
140
181
261
331
356
318
231
156
146
192
219
172
84
34
62
123
165
185
227
297
346
339
284
223
196
204
229
245
213
121
-8
-95
-52
122
303
354
261
146
132
204
227
128
-12
-71
-35
-18
-109
-235
-247
-93
103
169
77
-26
27
228
401
396
245
141
229
429
532
437
284
279
445
581
502
292
224
437
752
890
808
715
752
804
663
321
-18
-243
-494
-934
-1467
-1811
-1844
-1742
-1691
-1575
-1116
-281
591
1138
1352
1515
1805
2076
2083
1781
1362
1021
793
612
447
338
307
325
346
359
390
453
522
557
523
432
345
337
416
510
524
440
349
356
469
602
672
682
696
733
737
647
482
318
217
188
226
348
553
764
875
854
784
759
767
693
462
145
-108
-215
-235
-273
-354
-399
-316
-78
264
620
891
1001
944
789
628
475
245
-135
-576
-843
-764
-400
7
263
377
494
695
892
921
709
351
33
-106
-55
101
280
448
621
805
959
1045
1072
1097
1157
1212
1182
1039
876
836
971
1175
1269
1174
1005
961
1111
1320
1401
1322
1222
1243
1384
1540
1653
1772
1956
2172
2314
2327
2255
2170
2104
2044
1974
1888
1769
1626
1505
1492
1624
1802
1859
1726
1522
1434
1511
1594
1506
1279
1128
1178
1292
1236
989
804
897
1164
1301
1164
945
918
1096
1235
1156
958
856
911
1003
1022
1007
1066
1205
1337
1387
1368
1315
1228
1115
1030
1003
990
921
798
735
833
1056
1269
1369
1354
1280
1191
1112
1071
1074
1063
969
814
719
795
1015
1213
1246
1121
986
957
1010
1037
973
868
819
869
961
1017
1010
962
893
814
743
704
703
701
652
575
545
603
689
678
532
345
226
152
-5
-306
-650
-890
-1005
-1107
-1237
-1249
-953
-380
222
629
875
1164
1579
1941
2001
1721
1305
969
751
553
309
84
-16
34
142
205
205
200
249
320
331
234
91
22
69
149
151
62
-31
-56
-29
-13
-30
-42
-15
30
61
72
84
106
125
125
104
70
27
-22
-64
-94
-125
-171
-226
-265
-270
-253
-240
-245
-259
-280
-313
-360
-404
-427
-437
-465
-542
-659
-751
-749
-647
-535
-524
-634
-762
-784
-687
-579
-563
-626
-677
-660
-604
-564
-545
-515
-462
-416
-409
-432
-435
-393
-316
-232
-163
-126
-122
-120
-75
31
148
191
129
32
6
78
175
212
174
127
122
150
177
189
195
195
180
151
142
178
240
268
239
189
160
148
117
53
-6
-22
-20
-52
-122
-166
-128
-24
67
84
33
-22
-27
25
87
86
-7
-116
-114
58
310
481
496
435
400
381
287
86
-131
-258
-304
-359
-446
-484
-393
-206
-30
69
112
143
167
163
137
112
88
52
4
-26
2
95
204
264
255
226
261
393
558
659
684
738
919
1173
1316
1227
990
798
725
669
523
377
450
805
1214
1358
1174
919
873
1008
1017
665
83
-364
-436
-217
40
196
300
447
629
760
805
796
748
621
399
155
-2
-51
-82
-185
-350
-508
-634
-748
-821
-724
-353
224
792
1190
1448
1691
1940
2054
1906
1557
1212
1001
873
712
499
346
356
509
688
814
907
1014
1121
1143
1014
767
514
350
270
195
66
-84
-163
-117
5
107
138
140
165
224
281
310
313
294
256
216
214
268
342
373
353
353
428
539
593
556
501
505
547
525
369
135
-61
-149
-150
-136
-161
-222
-273
-261
-177
-75
-35
-74
-127
-114
-42
1
-58
-186
-278
-280
-251
-282
-382
-457
-419
-287
-165
-116
-113
-82
9
125
229
320
403
459
468
456
473
520
539
487
401
343
321
294
252
252
341
455
474
385
313
385
560
670
626
529
531
652
759
737
613
513
505
538
522
432
337
316
375
459
497
453
359
275
245
257
272
260
233
218
230
261
298
328
348
356
353
346
331
289
223
175
200
305
425
476
450
410
404
398
321
155
-24
-126
-137
-86
15
196
477
781
982
1004
882
715
555
385
185
-17
-160
-193
-105
94
369
632
780
794
791
912
1154
1325
1230
889
542
402
458
515
424
222
54
21
122
287
440
511
473
368
293
312
385
418
382
361
434
568
649
624
570
565
564
441
174
-81
-165
-105
-77
-168
-267
-240
-149
-181
-362
-450
-195
346
855
1115
1228
1434
1780
2049
2024
1708
1276
888
577
318
107
-37
-101
-86
-7
89
153
175
193
232
257
205
62
-102
-186
-143
-23
71
54
-72
-202
-218
-119
-41
-101
-242
-284
-156
6
22
-109
-206
-145
-36
-70
-260
-418
-397
-259
-190
-272
-405
-445
-361
-249
-214
-281
-402
-487
-465
-349
-259
-324
-533
-732
-774
-677
-620
-756
-1029
-1236
-1237
-1109
-1042
-1127
-1275
-1330
-1234
-1092
-1058
-1158
-1272
-1271
-1137
-970
-896
-960
-1098
-1205
-1202
-1087
-933
-822
-761
-649
-379
30
422
644
681
633
594
562
474
325
170
58
-23
-93
-126
-87
6
74
48
-39
-97
-87
-58
-76
-128
-132
-38
116
237
264
223
187
193
221
193
56
-156
-338
-408
-400
-425
-531
-638
-636
-525
-414
-370
-342
-273
-199
-207
-310
-402
-398
-338
-312
-321
-307
-255
-233
-268
-283
-194
-67
-72
-266
-493
-548
-415
-259
-246
-355
-429
-359
-181
-24
24
-35
-146
-241
-284
-276
-243
-216
-208
-215
-231
-245
-233
-189
-139
-116
-118
-128
-133
-134
-117
-68
19
93
92
36
-6
-4
2
-45
-136
-212
-240
-241
-212
-119
19
95
34
-67
-43
109
184
12
-281
-389
-202
29
-15
-341
-666
-796
-855
-1070
-1444
-1764
-1905
-1985
-2125
-2173
-1832
-1032
-103
557
879
1110
1465
1824
1891
1551
988
464
73
-220
-434
-530
-505
-437
-394
-377
-346
-325
-368
-468
-537
-546
-579
-708
-857
-857
-645
-382
-301
-472
-747
-935
-988
-992
-1023
-1066
-1067
-1011
-922
-848
-792
-738
-693
-672
-677
-686
-686
-688
-694
-685
-655
-625
-623
-646
-653
-635
-619
-640
-673
-672
-652
-669
-724
-735
-628
-474
-434
-582
-801
-918
-888
-816
-825
-909
-980
-985
-927
-829
-717
-627
-587
-590
-574
-499
-414
-417
-537
-676
-728
-666
-574
-535
-527
-467
-303
-96
31
26
-40
-42
80
270
417
438
325
147
24
38
142
189
70
-130
-181
41
370
516
379
160
134
316
453
332
45
-131
-59
127
197
105
-2
-10
48
75
54
29
21
12
6
51
151
228
199
102
62
120
150
16
-227
-376
-295
-87
21
-52
-195
-270
-266
-260
-280
-270
-196
-115
-92
-106
-78
11
79
53
-52
-151
-198
-225
-283
-359
-397
-361
-300
-294
-363
-411
-317
-75
161
208
41
-162
-171
28
203
129
-160
-383
-325
-53
182
232
180
188
303
423
461
448
434
382
212
-40
-210
-150
75
239
188
33
22
245
513
578
428
285
302
355
205
-172
-508
-592
-545
-685
-1098
-1503
-1586
-1380
-1195
-1181
-1105
-647
167
944
1346
1439
1532
1778
2000
1913
1463
887
457
253
179
135
123
171
244
265
219
184
231
310
285
114
-75
-117
27
220
319
306
263
250
241
178
69
-21
-28
44
140
210
229
211
190
181
158
82
-44
-165
-217
-198
-159
-147
-148
-98
17
119
124
28
-73
-91
-41
-14
-80
-212
-322
-355
-320
-268
-250
-290
-360
-397
-341
-217
-118
-125
-217
-279
-236
-135
-98
-183
-322
-393
-344
-238
-166
-152
-155
-119
-41
57
160
262
359
445
540
668
822
950
988
935
869
863
891
865
743
593
532
597
712
769
741
706
751
880
1007
1035
959
874
881
984
1090
1105
1045
1013
1069
1155
1166
1077
965
901
875
824
733
676
722
849
974
1042
1075
1131
1220
1293
1290
1200
1052
887
734
618
562
573
620
656
670
705
812
976
1114
1158
1132
1117
1154
1193
1163
1068
979
961
1028
1168
1378
1614
1748
1654
1356
1051
928
963
938
691
310
60
124
423
710
800
711
599
593
704
846
933
946
947
1031
1261
1597
1894
2005
1912
1746
1637
1553
1347
968
588
454
610
840
918
852
831
942
1048
954
652
326
144
85
-16
-259
-584
-843
-936
-894
-845
-910
-1064
-1122
-871
-269
497
1171
1652
2054
2517
2985
3225
3059
2564
1996
1537
1158
736
296
38
105
384
600
615
557
630
849
986
828
403
-58
-380
-590
-814
-1069
-1196
-1044
-681
-389
-370
-525
-542
-241
188
369
159
-161
-157
308
946
1362
1428
1341
1337
1425
1424
1206
863
595
484
442
342
202
162
311
556
690
580
290
-10
-189
-246
-268
-309
-358
-385
-399
-431
-481
-516
-507
-480
-492
-552
-590
-525
-386
-312
-384
-529
-596
-534
-451
-475
-576
-608
-508
-388
-403
-552
-669
-617
-454
-372
-467
-642
-720
-644
-527
-507
-597
-699
-727
-687
-647
-643
-660
-681
-701
-724
-745
-760
-783
-820
-848
-843
-821
-827
-882
-946
-958
-906
-849
-838
-875
-927
-976
-1040
-1131
-1233
-1333
-1445
-1567
-1668
-1725
-1754
-1796
-1848
-1857
-1801
-1755
-1808
-1949
-2075
-2105
-2077
-2094
-2202
-2335
-2410
-2417
-2399
-2391
-2394
-2396
-2413
-2462
-2537
-2615
-2661
-2667
-2659
-2668
-2723
-2805
-2854
-2855
-2866
-2943
-3070
-3154
-3139
-3116
-3217
-3444
-3642
-3662
-3523
-3393
-3393
-3477
-3503
-3405
-3275
-3252
-3376
-3548
-3651
-3680
-3733
-3868
-4017
-4054
-3956
-3834
-3809
-3870
-3895
-3815
-3709
-3705
-3812
-3927
-3960
-3941
-3974
-4089
-4202
-4236
-4199
-4184
-4268
-4425
-4566
-4633
-4667
-4756
-4929
-5102
-5175
-5148
-5128
-5179
-5195
-4988
-4511
-3949
-3558
-3411
-3363
-3255
-3104
-3064
-3228
-3520
-3799
-3994
-4141
-4282
-4397
-4443
-4410
-4358
-4343
-4383
-4427
-4416
-4348
-4281
-4291
-4373
-4446
-4440
-4378
-4345
-4385
-4456
-4481
-4459
-4451
-4497
-4552
-4534
-4436
-4326
-4286
-4331
-4409
-4466
-4489
-4484
-4454
-4401
-4343
-4314
-4329
-4367
-4378
-4351
-4324
-4361
-4492
-4668
-4791
-4800
-4734
-4686
-4705
-4729
-4653
-4455
-4238
-4130
-4155
-4223
-4246
-4241
-4287
-4401
-4503
-4509
-4431
-4346
-4294
-4234
-4122
-3968
-3831
-3743
-3680
-3601
-3491
-3363
-3242
-3153
-3108
-3086
-3033
-2924
-2808
-2759
-2786
-2802
-2725
-2564
-2412
-2316
-2240
-2130
-1999
-1912
-1895
-1894
-1851
-1780
-1749
-1772
-1786
-1731
-1646
-1611
-1639
-1648
-1563
-1416
-1313
-1296
-1290
-1203
-1044
-916
-883
-899
-892
-867
-897
-1011
-1141
-1198
-1164
-1112
-1111
-1160
-1194
-1146
-1012
-857
-781
-841
-990
-1100
-1087
-1009
-1013
-1149
-1298
-1312
-1187
-1047
-992
-990
-955
-876
-816
-816
-840
-843
-830
-824
-812
-759
-679
-628
-622
-592
-487
-353
-281
-288
-289
-241
-217
-299
-427
-450
-319
-185
-214
-367
-435
-301
-100
-55
-196
-332
-299
-148
-57
-102
-165
-114
26
110
55
-70
-140
-120
-77
-87
-157
-222
-221
-145
-40
29
38
13
-16
-56
-129
-217
-256
-213
-143
-140
-223
-328
-400
-457
-550
-686
-833
-967
-1068
-1051
-800
-299
284
723
961
1151
1442
1764
1888
1676
1236
801
505
313
146
-10
-117
-142
-103
-40
17
41
21
-37
-100
-147
-186
-232
-273
-275
-224
-164
-170
-270
-412
-502
-494
-433
-403
-429
-453
-406
-296
-196
-171
-204
-232
-231
-246
-323
-434
-507
-501
-455
-442
-473
-481
-410
-299
-242
-295
-414
-508
-527
-499
-478
-493
-540
-598
-635
-616
-542
-462
-442
-490
-536
-515
-445
-405
-434
-483
-477
-411
-349
-336
-349
-333
-275
-211
-173
-156
-132
-82
-19
38
80
106
119
125
134
150
179
221
275
331
376
409
442
480
513
527
529
545
578
606
619
649
737
861
946
940
888
881
941
979
899
721
588
621
799
980
1046
1001
944
961
1038
1085
1022
860
697
640
708
827
903
903
872
855
840
790
699
609
567
571
600
645
722
822
903
931
926
927
942
937
881
790
722
703
707
693
646
574
492
427
420
487
589
659
684
742
900
1093
1161
1026
803
686
741
847
852
767
739
850
1033
1160
1178
1125
1046
963
917
946
1012
1013
897
752
735
889
1067
1101
983
854
848
952
1060
1097
1054
960
850
760
723
722
702
620
492
343
180
26
-80
-136
-215
-399
-615
-595
-135
640
1324
1612
1605
1652
1919
2185
2104
1583
883
364
158
147
162
150
180
301
472
601
637
606
579
592
621
632
638
700
861
1084
1278
1370
1373
1343
1317
1303
1287
1263
1254
1288
1359
1407
1368
1247
1139
1133
1222
1284
1213
1054
957
1009
1136
1196
1139
1039
981
963
920
827
722
650
617
610
624
655
685
684
662
652
667
681
652
573
488
439
434
446
458
493
580
700
793
814
781
760
772
766
699
623
635
747
843
822
730
726
873
1048
1087
983
900
964
1133
1259
1268
1223
1214
1255
1293
1286
1246
1212
1200
1196
1195
1187
1159
1120
1101
1120
1147
1106
959
781
706
788
905
882
705
539
536
655
707
595
430
389
494
567
474
302
236
316
377
271
81
11
113
205
110
-92
-144
38
230
161
-136
-340
-233
6
14
-302
-642
-656
-369
-134
-220
-513
-693
-611
-432
-389
-516
-647
-649
-557
-494
-516
-582
-621
-607
-565
-551
-604
-710
-787
-748
-597
-453
-437
-533
-616
-586
-464
-359
-370
-501
-680
-818
-841
-750
-634
-599
-646
-682
-628
-525
-467
-486
-516
-536
-611
-810
-1061
-1204
-1177
-1107
-1171
-1373
-1542
-1559
-1528
-1665
-2021
-2379
-2515
-2464
-2482
-2691
-2858
-2611
-1859
-932
-269
-4
91
256
470
536
347
-48
-531
-1012
-1383
-1530
-1435
-1264
-1213
-1303
-1360
-1248
-1072
-1023
-1135
-1256
-1280
-1256
-1285
-1351
-1365
-1309
-1271
-1295
-1331
-1329
-1330
-1397
-1513
-1590
-1587
-1560
-1569
-1606
-1627
-1636
-1659
-1688
-1673
-1602
-1514
-1431
-1332
-1215
-1147
-1189
-1284
-1316
-1261
-1225
-1325
-1537
-1726
-1793
-1777
-1755
-1771
-1809
-1849
-1870
-1847
-1772
-1674
-1609
-1606
-1636
-1657
-1647
-1611
-1568
-1529
-1495
-1456
-1395
-1313
-1246
-1223
-1221
-1195
-1133
-1089
-1093
-1086
-1000
-853
-758
-782
-851
-817
-659
-505
-459
-484
-456
-353
-257
-233
-231
-182
-114
-106
-152
-150
-36
103
124
15
-80
-44
66
78
-71
-247
-266
-97
101
151
53
-36
20
185
285
201
1
-140
-161
-140
-186
-285
-307
-188
-12
78
29
-86
-153
-131
-46
31
41
-32
-129
-151
-59
75
108
-15
-190
-251
-145
7
34
-88
-206
-155
52
226
186
-34
-214
-186
-18
69
-60
-292
-394
-278
-74
25
-41
-151
-160
-56
67
118
100
75
85
111
109
71
12
-42
-65
-46
16
98
153
167
168
203
270
311
280
196
114
71
59
50
25
-17
-56
-63
-26
26
47
20
-13
7
71
93
-6
-218
-448
-622
-762
-944
-1205
-1465
-1565
-1393
-977
-457
21
407
752
1099
1414
1609
1619
1442
1130
763
424
179
45
-24
-82
-138
-156
-115
-38
24
38
-1
-94
-225
-348
-405
-367
-265
-154
-53
49
154
233
258
245
234
232
207
132
33
-36
-54
-49
-36
22
172
385
566
644
652
669
708
691
545
302
72
-63
-111
-131
-154
-164
-145
-99
-33
53
135
160
98
-8
-66
-22
78
144
157
178
268
400
486
476
425
430
527
655
733
738
715
719
759
809
840
857
879
915
964
1024
1105
1209
1316
1404
1481
1570
1655
1688
1624
1462
1264
1122
1074
1069
1005
813
570
464
594
795
732
213
-567
-1192
-1411
-1362
-1339
-1401
-1292
-748
187
1204
2025
2603
3031
3322
3369
3086
2559
2002
1612
1430
1377
1372
1395
1471
1617
1786
1902
1928
1899
1867
1849
1822
1775
1735
1751
1826
1898
1880
1753
1577
1429
1337
1283
1268
1334
1480
1609
1582
1354
1008
673
425
290
274
360
479
588
764
1141
1703
2180
2263
1915
1393
942
576
203
-115
-178
57
381
574
702
1019
1587
2100
2177
1788
1295
1073
1176
1366
1433
1405
1453
1653
1885
1982
1903
1769
1714
1722
1653
1442
1213
1153
1286
1420
1366
1140
922
819
738
536
234
5
-58
-74
-187
-305
-142
436
1197
1740
1912
1934
2099
2415
2611
2463
2038
1575
1211
906
597
330
193
161
101
-63
-236
-253
-72
151
224
115
-27
-59
5
51
15
-61
-139
-242
-408
-590
-672
-604
-472
-406
-436
-477
-461
-405
-374
-390
-420
-450
-500
-590
-692
-765
-803
-849
-951
-1099
-1225
-1265
-1214
-1150
-1152
-1233
-1331
-1389
-1418
-1464
-1539
-1595
-1600
-1586
-1597
-1619
-1597
-1536
-1509
-1575
-1687
-1744
-1723
-1702
-1749
-1828
-1852
-1802
-1752
-1758
-1782
-1755
-1680
-1639
-1670
-1708
-1667
-1556
-1482
-1516
-1584
-1558
-1410
-1258
-1243
-1352
-1434
-1380
-1250
-1197
-1273
-1365
-1337
-1199
-1089
-1109
-1211
-1272
-1248
-1206
-1215
-1262
-1278
-1235
-1182
-1175
-1211
-1235
-1218
-1185
-1177
-1210
-1265
-1306
-1326
-1335
-1347
-1372
-1411
-1452
-1470
-1454
-1421
-1406
-1422
-1446
-1449
-1435
-1427
-1426
-1410
-1374
-1362
-1417
-1518
-1587
-1567
-1488
-1430
-1435
-1471
-1482
-1450
-1393
-1328
-1244
-1121
-964
-811
-716
-707
-753
-789
-786
-798
-907
-1125
-1350
-1441
-1354
-1189
-1080
-1069
-1092
-1064
-966
-852
-787
-799
-866
-944
-989
-978
-915
-827
-744
-680
-624
-563
-497
-447
-418
-383
-316
-234
-188
-197
-207
-152
-56
-29
-132
-291
-364
-303
-198
-146
-129
-78
-1
7
-96
-233
-306
-337
-425
-594
-746
-793
-762
-714
-593
-264
279
819
1112
1176
1271
1591
2029
2275
2140
1727
1293
1009
858
724
529
280
54
-47
30
272
603
946
1256
1500
1628
1589
1403
1173
989
849
674
426
186
78
149
328
512
659
795
924
1002
980
889
802
766
757
726
663
612
617
674
732
746
709
647
594
546
481
390
305
278
325
394
394
289
150
89
157
296
396
402
334
240
149
62
-31
-130
-205
-226
-186
-116
-47
33
154
299
380
327
193
123
198
338
398
340
274
315
456
602
690
734
774
821
873
938
1008
1044
1038
1045
1114
1193
1177
1063
983
1034
1127
1094
963
968
1257
1648
1793
1574
1241
1104
1182
1224
1044
729
525
546
695
822
875
887
890
883
870
864
853
793
671
539
473
487
521
522
502
513
567
628
652
650
661
690
710
705
697
712
732
706
608
484
401
378
395
428
489
589
685
719
686
641
636
654
633
561
483
451
445
416
370
390
534
751
912
952
924
925
972
982
877
685
501
388
333
312
365
551
841
1091
1166
1067
919
832
797
722
543
292
67
-35
25
191
336
348
248
176
233
350
375
268
139
84
39
-109
-339
-515
-585
-659
-801
-830
-479
264
1067
1590
1846
2108
2518
2888
2916
2532
1937
1371
935
613
391
273
236
239
268
343
453
543
567
538
498
453
385
313
288
330
394
423
427
448
484
489
450
432
492
586
608
531
453
479
583
633
549
391
267
215
187
137
65
-10
-84
-143
-153
-94
-15
4
-70
-179
-228
-187
-114
-85
-120
-171
-171
-91
24
93
66
-32
-128
-181
-224
-309
-430
-512
-482
-353
-209
-125
-103
-90
-59
-42
-95
-224
-354
-391
-320
-215
-173
-226
-308
-324
-244
-145
-117
-153
-143
17
321
661
927
1090
1194
1276
1327
1308
1187
977
734
539
462
511
624
721
755
759
797
872
907
819
630
468
450
551
625
572
481
513
672
772
653
384
198
217
321
312
149
-46
-144
-136
-83
-38
-48
-179
-423
-651
-716
-646
-638
-820
-1082
-1200
-1120
-1008
-1010
-1071
-1022
-819
-595
-477
-421
-285
-43
169
224
158
106
136
190
175
85
2
9
103
224
324
403
494
604
687
698
638
554
498
472
441
394
371
402
460
471
424
390
429
501
499
380
234
189
269
371
393
342
316
378
493
594
642
633
552
393
202
62
1
-76
-290
-620
-901
-997
-957
-941
-965
-836
-369
344
988
1336
1481
1661
1945
2145
2031
1604
1101
741
547
406
251
118
78
123
181
222
264
313
337
309
256
222
197
151
87
67
123
187
148
-10
-156
-163
-59
-2
-90
-255
-342
-290
-202
-214
-371
-580
-720
-741
-682
-632
-661
-768
-864
-862
-769
-682
-686
-735
-713
-608
-555
-682
-924
-1072
-1021
-892
-901
-1108
-1335
-1368
-1200
-1018
-990
-1105
-1208
-1204
-1138
-1117
-1174
-1229
-1187
-1069
-1007
-1082
-1200
-1180
-979
-756
-705
-832
-943
-888
-715
-589
-609
-725
-826
-844
-771
-652
-563
-565
-639
-667
-555
-335
-154
-135
-271
-450
-554
-551
-472
-377
-353
-458
-633
-714
-568
-263
-36
-76
-321
-493
-408
-162
-15
-118
-352
-485
-429
-299
-264
-347
-426
-412
-339
-302
-331
-389
-448
-527
-646
-781
-892
-965
-1011
-1037
-1049
-1068
-1107
-1109
-1001
-832
-761
-899
-1157
-1310
-1238
-1058
-982
-1084
-1239
-1288
-1194
-1025
-846
-705
-650
-716
-846
-909
-829
-685
-643
-784
-1012
-1158
-1135
-1008
-913
-912
-947
-908
-771
-618
-560
-591
-618
-587
-555
-612
-740
-824
-793
-706
-668
-692
-699
-636
-540
-478
-453
-431
-391
-365
-387
-437
-482
-518
-552
-564
-540
-535
-637
-851
-1043
-1076
-1005
-1038
-1289
-1608
-1746
-1649
-1515
-1506
-1497
-1205
-568
130
570
732
868
1145
1410
1370
954
407
24
-144
-261
-447
-621
-629
-457
-263
-186
-220
-255
-220
-151
-127
-173
-252
-314
-319
-247
-111
17
25
-132
-364
-510
-483
-358
-288
-331
-396
-367
-238
-122
-108
-156
-176
-149
-147
-219
-306
-315
-244
-183
-205
-254
-237
-139
-48
-57
-154
-264
-339
-385
-408
-410
-394
-367
-346
-317
-282
-272
-312
-374
-406
-398
-426
-537
-638
-578
-316
0
143
44
-118
-118
87
285
236
-74
-400
-455
-186
188
390
343
218
229
421
649
751
699
583
513
511
571
679
797
878
891
859
837
842
848
826
788
779
807
827
808
782
796
866
955
1007
988
910
818
761
753
766
755
692
610
557
548
557
555
547
562
591
591
531
444
419
491
581
565
408
225
169
276
429
482
416
334
340
416
456
403
308
265
304
358
346
274
230
279
380
441
410
340
312
352
408
420
397
382
393
403
386
360
361
396
439
466
482
515
584
687
799
887
923
911
888
896
930
950
945
942
978
1033
1053
1019
977
981
1007
987
887
759
684
689
737
770
759
711
654
629
641
627
515
308
115
36
39
17
-32
71
495
1165
1780
2122
2276
2491
2850
3143
3091
2650
2049
1565
1294
1144
984
785
629
625
792
1038
1221
1273
1252
1249
1269
1228
1069
885
835
973
1187
1324
1371
1436
1571
1717
1799
1849
1950
2030
1846
1224
328
-416
-721
-709
-713
-827
-750
-125
1005
2179
2969
3358
3624
3916
4051
3768
3074
2259
1617
1216
996
967
1206
1695
2248
2666
2935
3181
3465
3644
3489
2975
2377
2038
2050
2176
2118
1852
1636
1702
1982
2191
2177
2089
2151
2336
2368
2073
1625
1369
1444
1645
1691
1530
1357
1378
1615
1927
2170
2309
2385
2438
2466
2454
2400
2331
2259
2173
2047
1919
1883
1989
2147
2202
2103
1977
1984
2122
2230
2176
2016
1907
1923
1992
2004
1950
1891
1853
1803
1711
1612
1563
1560
1547
1489
1407
1332
1276
1239
1238
1279
1329
1311
1190
1021
909
893
906
850
710
568
509
532
573
581
571
567
548
477
380
339
390
447
398
271
214
313
452
432
220
7
-17
98
131
-32
-250
-314
-209
-120
-184
-324
-367
-279
-201
-257
-393
-449
-363
-232
-186
-250
-335
-381
-412
-475
-558
-608
-627
-682
-820
-986
-1071
-1034
-956
-942
-1007
-1081
-1112
-1122
-1149
-1169
-1147
-1111
-1149
-1293
-1474
-1606
-1702
-1849
-2062
-2243
-2313
-2349
-2479
-2661
-2654
-2263
-1603
-1023
-763
-722
-612
-309
8
59
-256
-785
-1277
-1596
-1762
-1863
-1949
-2027
-2074
-2083
-2065
-2034
-2013
-2017
-2057
-2155
-2323
-2517
-2635
-2592
-2419
-2267
-2269
-2405
-2517
-2491
-2385
-2367
-2514
-2719
-2803
-2722
-2612
-2624
-2754
-2859
-2826
-2706
-2643
-2712
-2841
-2908
-2872
-2807
-2796
-2842
-2884
-2875
-2827
-2793
-2802
-2835
-2855
-2846
-2820
-2800
-2795
-2808
-2831
-2848
-2851
-2850
-2868
-2909
-2946
-2945
-2910
-2891
-2915
-2950
-2937
-2867
-2792
-2763
-2774
-2773
-2734
-2676
-2622
-2576
-2534
-2517
-2540
-2563
-2520
-2397
-2262
-2191
-2173
-2122
-1983
-1800
-1664
-1617
-1626
-1645
-1675
-1740
-1829
-1886
-1868
-1793
-1715
-1667
-1628
-1557
-1453
-1363
-1330
-1351
-1375
-1346
-1271
-1216
-1231
-1297
-1338
-1305
-1238
-1233
-1332
-1466
-1537
-1532
-1516
-1522
-1492
-1369
-1197
-1096
-1098
-1098
-998
-859
-848
-1033
-1276
-1378
-1305
-1208
-1230
-1344
-1409
-1349
-1237
-1193
-1258
-1352
-1393
-1387
-1391
-1430
-1460
-1432
-1370
-1331
-1319
-1273
-1159
-1038
-992
-1014
-989
-843
-653
-574
-658
-805
-893
-923
-988
-1143
-1329
-1442
-1435
-1327
-1161
-967
-761
-568
-413
-304
-230
-172
-127
-126
-207
-364
-517
-583
-560
-538
-583
-647
-631
-521
-421
-415
-472
-502
-497
-530
-636
-741
-780
-797
-896
-1091
-1269
-1343
-1384
-1523
-1780
-2041
-2204
-2283
-2328
-2280
-1988
-1394
-655
-23
376
638
916
1208
1333
1117
593
-5
-433
-638
-729
-813
-874
-824
-650
-442
-301
-241
-210
-199
-276
-487
-760
-951
-974
-885
-808
-815
-853
-841
-768
-711
-745
-860
-967
-976
-885
-770
-714
-723
-717
-614
-412
-212
-134
-204
-316
-342
-266
-189
-217
-333
-423
-405
-328
-311
-409
-557
-663
-706
-736
-786
-831
-841
-826
-834
-880
-923
-919
-890
-897
-968
-1058
-1086
-1009
-868
-744
-692
-695
-684
-609
-482
-374
-349
-392
-424
-381
-276
-173
-114
-85
-50
-3
30
38
47
76
114
139
153
200
310
457
579
641
669
713
784
839
836
781
717
675
647
623
617
642
684
712
742
828
992
1153
1190
1071
901
798
761
675
452
154
-64
-103
15
191
355
495
627
749
839
873
840
745
608
455
308
207
196
283
412
500
519
516
559
640
694
676
622
598
618
645
649
650
691
775
853
879
844
783
748
765
826
895
940
973
1029
1124
1219
1252
1199
1107
1053
1073
1139
1199
1232
1254
1289
1338
1391
1435
1460
1442
1365
1247
1145
1107
1125
1138
1114
1089
1128
1234
1315
1289
1175
1080
1060
1050
941
741
574
520
495
354
104
-64
-13
147
162
-29
-162
96
766
1493
1910
1997
2044
2292
2667
2877
2731
2314
1863
1536
1307
1083
855
708
706
803
884
905
924
1007
1113
1141
1050
923
850
829
794
734
727
828
975
1047
1015
972
1008
1087
1104
1024
934
912
900
758
460
167
58
129
182
51
-221
-438
-459
-327
-193
-160
-205
-246
-230
-170
-113
-82
-71
-68
-76
-90
-89
-60
-21
-16
-54
-80
-46
17
36
-12
-56
-11
100
166
118
14
-39
0
91
188
280
366
433
492
587
739
903
998
999
959
948
984
1037
1077
1092
1081
1043
1024
1063
1139
1175
1138
1086
1110
1215
1308
1302
1235
1226
1331
1477
1535
1462
1334
1258
1268
1311
1317
1256
1146
1033
960
954
1009
1082
1127
1125
1100
1087
1091
1092
1056
978
890
813
749
689
630
602
622
668
686
633
547
490
477
463
393
279
183
151
152
130
84
79
163
304
403
374
225
50
-56
-80
-80
-127
-232
-346
-404
-361
-225
-52
81
112
36
-89
-192
-245
-265
-270
-251
-214
-191
-218
-267
-242
-84
121
177
-25
-366
-590
-573
-434
-400
-552
-753
-843
-820
-796
-807
-781
-677
-612
-715
-927
-1029
-919
-777
-875
-1247
-1647
-1844
-1878
-1957
-2157
-2353
-2423
-2410
-2404
-2330
-1988
-1356
-708
-371
-373
-416
-241
58
141
-200
-815
-1355
-1611
-1636
-1611
-1647
-1732
-1798
-1801
-1737
-1643
-1588
-1632
-1769
-1906
-1947
-1888
-1817
-1801
-1809
-1761
-1657
-1606
-1691
-1855
-1955
-1928
-1862
-1871
-1942
-1969
-1899
-1821
-1849
-1967
-2056
-2045
-1991
-1982
-2016
-2031
-1994
-1953
-1961
-2007
-2032
-2006
-1966
-1961
-1999
-2046
-2074
-2086
-2098
-2110
-2108
-2092
-2091
-2138
-2200
-2200
-2111
-1996
-1940
-1955
-1974
-1950
-1910
-1904
-1921
-1911
-1878
-1891
-1962
-1999
-1906
-1726
-1604
-1619
-1674
-1609
-1406
-1195
-1114
-1159
-1213
-1178
-1065
-956
-920
-951
-989
-974
-910
-848
-823
-821
-807
-780
-775
-798
-793
-716
-605
-538
-536
-534
-473
-385
-351
-391
-435
-425
-378
-354
-359
-358
-348
-374
-451
-513
-492
-415
-391
-459
-527
-480
-336
-238
-279
-401
-475
-460
-440
-495
-603
-680
-677
-630
-590
-564
-532
-495
-481
-492
-490
-444
-400
-433
-552
-656
-640
-518
-432
-492
-639
-705
-602
-433
-367
-440
-542
-551
-476
-418
-441
-508
-553
-550
-527
-502
-469
-437
-422
-418
-388
-298
-181
-106
-100
-122
-130
-117
-119
-150
-182
-190
-196
-235
-305
-344
-305
-226
-199
-270
-388
-438
-375
-286
-318
-500
-687
-701
-534
-390
-491
-829
-1177
-1320
-1256
-1167
-1207
-1366
-1515
-1533
-1364
-1015
-546
-76
283
525
757
1040
1303
1410
1296
1029
714
413
155
-20
-91
-90
-95
-144
-196
-209
-194
-174
-126
-28
66
66
-33
-116
-80
33
85
9
-110
-177
-204
-262
-348
-357
-223
-25
78
27
-66
-61
35
96
32
-100
-155
-75
50
94
35
-24
-7
47
42
-44
-119
-88
42
174
231
219
198
201
213
206
172
118
62
16
-14
-43
-87
-129
-118
-17
134
247
283
300
383
531
663
704
667
630
650
715
761
745
674
603
606
710
851
929
918
925
1087
1404
1719
1889
1934
2001
2167
2338
2371
2249
2102
2063
2133
2208
2210
2163
2143
2191
2269
2296
2225
2080
1938
1861
1859
1887
1909
1939
1998
2083
2156
2196
2209
2210
2187
2113
2007
1926
1915
1954
1981
1972
1956
1964
1968
1912
1786
1652
1580
1562
1528
1434
1319
1261
1276
1304
1285
1237
1229
1290
1371
1407
1400
1415
1478
1539
1533
1472
1424
1414
1407
1388
1438
1633
1891
2011
1904
1719
1665
1702
1534
944
86
-635
-948
-938
-853
-780
-582
-125
514
1121
1552
1821
1986
2038
1933
1690
1415
1209
1094
1045
1059
1138
1255
1339
1343
1281
1214
1187
1177
1120
976
774
602
531
528
471
269
-41
-344
-607
-919
-1333
-1693
-1714
-1276
-584
25
423
784
1312
1948
2406
2472
2189
1766
1364
1016
702
439
257
160
125
128
170
230
250
185
42
-108
-193
-199
-174
-162
-146
-70
88
263
331
217
-20
-218
-246
-123
7
10
-108
-214
-182
-21
149
213
160
75
37
51
60
10
-97
-215
-299
-336
-338
-313
-262
-198
-153
-160
-217
-290
-353
-428
-543
-676
-782
-846
-909
-1016
-1124
-1128
-1004
-873
-879
-1012
-1108
-1039
-877
-821
-957
-1150
-1207
-1100
-976
-966
-1033
-1048
-960
-846
-791
-785
-753
-671
-582
-537
-531
-521
-487
-443
-411
-406
-423
-433
-406
-349
-297
-270
-231
-110
89
257
291
223
186
246
313
253
58
-137
-205
-161
-117
-150
-251
-366
-436
-431
-358
-284
-286
-379
-469
-451
-339
-246
-259
-341
-392
-386
-386
-441
-500
-491
-417
-357
-357
-358
-286
-164
-110
-191
-333
-413
-408
-413
-486
-555
-505
-344
-233
-280
-383
-373
-247
-181
-300
-489
-529
-402
-316
-416
-571
-534
-269
-21
-5
-160
-253
-197
-115
-149
-272
-362
-388
-415
-449
-380
-148
120
228
141
29
41
128
118
-68
-299
-415
-417
-414
-446
-424
-271
-69
2
-98
-213
-186
-79
-106
-368
-699
-875
-891
-945
-1159
-1417
-1530
-1485
-1434
-1428
-1284
-805
-64
619
1008
1178
1362
1636
1827
1730
1340
847
439
173
5
-111
-193
-247
-267
-234
-131
1
92
107
106
188
373
562
638
587
511
504
542
523
379
163
-16
-88
-67
11
124
251
344
355
292
229
240
325
401
383
273
167
151
227
326
375
352
267
138
1
-74
-16
145
289
311
230
164
177
212
162
25
-104
-158
-174
-222
-279
-250
-106
64
146
133
114
153
206
186
70
-73
-168
-196
-189
-172
-127
-13
181
399
555
614
631
683
786
867
794
812
805
875
950
957
921
932
1022
1109
1096
987
874
830
841
853
847
836
822
798
787
836
952
1071
1101
1025
926
897
944
985
942
813
669
586
582
619
648
659
678
730
804
863
878
845
766
652
537
471
469
469
400
288
260
405
665
868
911
854
820
844
849
762
588
396
240
149
145
244
428
637
804
905
950
961
961
963
960
926
849
775
766
842
956
1046
1094
1125
1156
1171
1152
1121
1127
1188
1276
1336
1347
1334
1338
1373
1398
1374
1299
1229
1222
1273
1321
1310
1250
1185
1129
1050
935
827
789
805
785
678
546
490
509
477
316
106
-10
-17
-28
-85
-38
299
890
1469
1816
1986
2190
2490
2702
2631
2286
1862
1511
1242
1020
857
774
736
697
684
764
932
1081
1104
1032
985
1009
1022
927
749
619
613
667
655
539
424
444
613
807
884
831
764
782
853
854
732
579
539
650
811
917
978
1064
1177
1222
1117
903
707
600
532
430
301
228
260
352
421
440
446
466
470
408
284
171
120
126
138
143
176
270
405
520
576
591
603
607
560
444
319
280
358
489
581
627
711
902
1167
1387
1475
1469
1479
1567
1664
1644
1475
1277
1217
1346
1549
1682
1712
1729
1806
1924
2000
1995
1947
1904
1867
1817
1759
1717
1695
1675
1647
1596
1520
1455
1465
1585
1758
1879
1926
1969
2052
2113
2061
1959
1963
2090
2140
1925
1566
1404
1591
1890
1978
1839
1746
1869
2041
2018
1824
1708
1802
1952
1944
1807
1754
1879
2042
2071
2000
1976
2043
2104
2065
1965
1918
1945
1968
1908
1756
1592
1505
1551
1706
1850
1848
1690
1527
1530
1687
1777
1626
1310
1070
1031
1045
899
580
319
322
535
697
635
451
376
500
685
725
581
402
360
477
622
673
642
621
671
744
755
687
603
552
511
427
299
193
162
184
197
154
44
-128
-309
-370
-178
262
778
1171
1409
1630
1927
2210
2293
2087
1683
1225
805
468
257
183
187
183
171
239
420
610
664
556
391
271
189
100
35
54
135
168
104
45
117
285
367
263
94
60
206
375
388
238
74
16
54
107
119
79
10
-57
-83
-48
19
63
50
6
-21
-19
-18
-56
-141
-249
-340
-397
-429
-461
-517
-577
-601
-575
-549
-589
-694
-785
-805
-780
-790
-867
-945
-942
-856
-777
-768
-805
-816
-776
-721
-681
-646
-601
-570
-564
-531
-419
-262
-170
-211
-310
-331
-232
-105
-70
-136
-211
-215
-146
-53
27
86
121
131
118
82
32
4
33
95
104
5
-143
-192
-72
94
103
-94
-319
-365
-232
-134
-238
-447
-521
-377
-169
-104
-189
-242
-153
-28
-41
-203
-343
-337
-274
-328
-511
-651
-624
-527
-555
-753
-947
-952
-795
-670
-699
-798
-796
-658
-517
-513
-628
-713
-681
-598
-596
-706
-834
-853
-738
-590
-535
-601
-708
-742
-650
-492
-401
-463
-624
-721
-645
-467
-352
-388
-494
-523
-438
-336
-306
-337
-358
-322
-257
-219
-213
-220
-230
-240
-250
-262
-285
-329
-374
-388
-370
-353
-367
-401
-416
-403
-400
-455
-603
-850
-1161
-1458
-1637
-1659
-1621
-1670
-1819
-1865
-1549
-844
-30
534
735
789
965
1302
1567
1504
1102
591
199
-25
-171
-313
-411
-409
-324
-245
-219
-219
-199
-181
-227
-349
-479
-542
-530
-503
-504
-514
-486
-398
-304
-291
-394
-551
-635
-583
-455
-380
-433
-553
-624
-567
-421
-290
-251
-313
-411
-448
-375
-256
-217
-320
-472
-520
-438
-363
-425
-563
-603
-481
-333
-320
-436
-537
-546
-523
-549
-605
-643
-693
-806
-918
-897
-750
-670
-813
-1074
-1178
-1018
-777
-677
-717
-700
-539
-377
-357
-428
-433
-333
-262
-329
-456
-479
-354
-183
-73
-19
45
135
214
249
249
245
255
280
303
305
292
295
343
410
420
348
265
269
356
413
355
231
165
222
335
389
334
234
182
218
304
362
342
261
177
134
124
120
129
169
221
230
167
87
74
149
241
265
218
163
147
174
229
304
376
394
326
199
102
112
200
274
260
183
124
129
184
240
268
259
208
124
53
58
149
251
271
211
154
159
195
189
137
111
160
240
276
259
254
326
462
586
630
595
534
512
543
586
577
507
437
435
500
561
552
498
471
508
573
595
542
436
336
300
336
379
333
167
-49
-225
-359
-535
-789
-1043
-1200
-1259
-1298
-1305
-1114
-590
166
857
1266
1449
1620
1878
2104
2106
1824
1376
941
646
519
516
551
545
499
482
563
716
838
852
784
720
704
704
684
659
685
782
893
942
905
837
808
825
848
822
736
633
568
573
631
694
730
753
786
826
841
822
794
773
721
599
445
372
439
577
647
595
491
446
519
724
1064
1502
1910
2113
2030
1739
1391
1068
735
299
-265
-864
-1323
-1482
-1309
-949
-608
-368
-132
228
673
1017
1142
1143
1221
1450
1713
1867
1913
1961
2051
2099
2014
1847
1737
1745
1788
1768
1719
1769
1976
2237
2374
2322
2179
2092
2125
2240
2360
2427
2407
2288
2104
1891
1636
1304
940
707
720
886
976
902
865
1144
1718
2209
2262
1907
1495
1297
1247
1111
834
610
630
856
1069
1119
1057
1028
1084
1135
1059
834
554
356
310
394
522
613
640
619
584
558
545
532
502
441
368
322
312
304
262
200
162
161
137
29
-128
-227
-215
-148
-116
-128
-111
-44
0
-48
-163
-244
-249
-242
-297
-400
-474
-477
-434
-395
-394
-441
-531
-624
-672
-679
-708
-801
-914
-958
-927
-910
-981
-1089
-1133
-1119
-1157
-1306
-1474
-1526
-1476
-1478
-1619
-1814
-1926
-1952
-2024
-2228
-2484
-2663
-2742
-2792
-2796
-2613
-2156
-1567
-1102
-839
-599
-202
241
423
195
-244
-579
-726
-868
-1147
-1460
-1606
-1556
-1481
-1507
-1579
-1568
-1473
-1424
-1505
-1646
-1732
-1739
-1730
-1758
-1811
-1867
-1929
-1995
-2042
-2067
-2112
-2202
-2281
-2261
-2144
-2038
-2033
-2100
-2141
-2118
-2090
-2116
-2182
-2235
-2272
-2325
-2393
-2429
-2422
-2427
-2497
-2600
-2654
-2629
-2579
-2573
-2630
-2717
-2781
-2797
-2772
-2741
-2743
-2794
-2872
-2943
-2996
-3046
-3094
-3130
-3158
-3206
-3266
-3282
-3201
-3032
-2858
-2746
-2695
-2674
-2676
-2700
-2728
-2741
-2753
-2800
-2884
-2935
-2882
-2726
-2534
-2364
-2217
-2086
-2004
-2030
-2166
-2333
-2430
-2433
-2412
-2454
-2558
-2628
-2561
-2356
-2125
-2002
-2018
-2103
-2175
-2205
-2235
-2286
-2333
-2341
-2318
-2295
-2282
-2250
-2169
-2069
-2018
-2055
-2147
-2215
-2214
-2161
-2093
-2030
-1980
-1956
-1963
-1968
-1909
-1795
-1732
-1824
-2044
-2222
-2213
-2050
-1915
-1940
-2068
-2128
-2019
-1798
-1617
-1565
-1617
-1695
-1753
-1798
-1859
-1936
-1999
-2031
-2057
-2116
-2195
-2232
-2165
-1994
-1777
-1583
-1447
-1389
-1432
-1570
-1742
-1869
-1933
-1989
-2109
-2283
-2420
-2442
-2348
-2193
-2040
-1926
-1866
-1863
-1903
-1961
-2024
-2090
-2161
-2238
-2318
-2400
-2470
-2496
-2445
-2340
-2261
-2273
-2365
-2440
-2422
-2333
-2265
-2285
-2372
-2450
-2484
-2499
-2545
-2622
-2699
-2754
-2799
-2857
-2925
-2988
-3034
-3034
-2920
-2622
-2144
-1593
-1127
-816
-615
-446
-300
-248
-364
-634
-963
-1253
-1458
-1593
-1691
-1758
-1769
-1703
-1572
-1428
-1325
-1282
-1287
-1310
-1339
-1397
-1512
-1688
-1897
-2085
-2199
-2224
-2195
-2159
-2136
-2095
-1994
-1833
-1668
-1566
-1559
-1625
-1702
-1746
-1752
-1747
-1767
-1818
-1861
-1853
-1787
-1717
-1705
-1749
-1777
-1721
-1599
-1487
-1448
-1468
-1489
-1481
-1474
-1512
-1607
-1718
-1795
-1815
-1787
-1737
-1690
-1660
-1640
-1611
-1567
-1532
-1527
-1545
-1556
-1544
-1514
-1477
-1416
-1292
-1101
-903
-778
-745
-753
-752
-754
-830
-1021
-1274
-1487
-1599
-1624
-1605
-1550
-1442
-1292
-1149
-1041
-946
-833
-729
-704
-779
-871
-862
-729
-565
-487
-506
-536
-507
-446
-435
-503
-580
-583
-508
-419
-366
-331
-269
-183
-138
-169
-216
-194
-113
-86
-216
-461
-665
-732
-719
-762
-904
-1054
-1104
-1047
-957
-883
-808
-715
-647
-660
-736
-794
-782
-735
-717
-734
-732
-669
-556
-420
-277
-148
-89
-149
-297
-435
-490
-482
-477
-507
-548
-560
-535
-476
-379
-247
-118
-39
-31
-65
-94
-95
-75
-54
-51
-71
-97
-101
-74
-36
-17
-12
0
32
63
72
78
115
175
195
129
2
-108
-161
-184
-224
-277
-296
-257
-189
-146
-161
-237
-367
-536
-704
-841
-973
-1155
-1377
-1529
-1506
-1330
-1117
-905
-574
-10
697
1292
1624
1796
1994
2225
2294
2053
1594
1146
827
581
329
107
3
33
123
202
275
364
457
522
533
488
391
275
217
263
355
356
212
46
37
219
419
451
327
249
364
588
698
565
294
101
100
203
230
92
-137
-304
-338
-295
-285
-357
-446
-468
-430
-437
-573
-797
-985
-1081
-1171
-1380
-1709
-2022
-2186
-2218
-2239
-2313
-2386
-2374
-2283
-2201
-2179
-2180
-2140
-2064
-1999
-1973
-1956
-1917
-1857
-1792
-1724
-1653
-1605
-1595
-1603
-1582
-1508
-1415
-1343
-1293
-1233
-1157
-1095
-1057
-1001
-903
-815
-807
-870
-900
-814
-652
-530
-502
-515
-490
-418
-359
-355
-391
-431
-460
-480
-493
-506
-531
-571
-601
-598
-584
-606
-668
-714
-701
-666
-682
-753
-793
-736
-641
-639
-775
-930
-954
-846
-755
-811
-977
-1095
-1066
-947
-871
-889
-935
-923
-844
-773
-759
-785
-796
-793
-832
-938
-1050
-1066
-971
-866
-864
-961
-1022
-939
-771
-687
-783
-973
-1076
-1008
-866
-830
-958
-1126
-1157
-1007
-817
-760
-856
-957
-938
-842
-821
-935
-1071
-1089
-997
-929
-958
-1010
-982
-877
-797
-785
-774
-712
-666
-735
-900
-1021
-1006
-925
-925
-1056
-1217
-1281
-1229
-1138
-1088
-1113
-1207
-1333
-1442
-1500
-1561
-1745
-2096
-2496
-2768
-2874
-2936
-3031
-3004
-2599
-1810
-962
-396
-114
156
570
929
917
495
-59
-505
-849
-1211
-1561
-1736
-1682
-1560
-1559
-1676
-1757
-1723
-1658
-1687
-1828
-2009
-2169
-2286
-2337
-2292
-2196
-2157
-2238
-2383
-2480
-2493
-2481
-2509
-2548
-2544
-2505
-2502
-2565
-2639
-2649
-2608
-2600
-2686
-2810
-2890
-2917
-2964
-3077
-3209
-3282
-3286
-3305
-3423
-3604
-3725
-3706
-3600
-3549
-3638
-3813
-3938
-3925
-3820
-3768
-3868
-4071
-4228
-4248
-4185
-4161
-4230
-4337
-4399
-4392
-4335
-4258
-4186
-4156
-4184
-4208
-4145
-3973
-3785
-3703
-3740
-3788
-3730
-3557
-3370
-3264
-3272
-3350
-3420
-3409
-3305
-3171
-3092
-3094
-3123
-3099
-2999
-2862
-2737
-2640
-2582
-2582
-2627
-2641
-2552
-2382
-2252
-2252
-2340
-2399
-2362
-2283
-2238
-2236
-2226
-2174
-2114
-2088
-2087
-2072
-2030
-1987
-2000
-2083
-2206
-2309
-2347
-2323
-2284
-2288
-2347
-2402
-2376
-2275
-2185
-2176
-2233
-2275
-2254
-2201
-2164
-2136
-2094
-2045
-2027
-2044
-2049
-2016
-1991
-2017
-2054
-2009
-1874
-1771
-1822
-1972
-2011
-1822
-1544
-1436
-1577
-1768
-1758
-1539
-1341
-1369
-1573
-1716
-1660
-1496
-1407
-1454
-1536
-1518
-1387
-1250
-1195
-1205
-1185
-1082
-948
-895
-964
-1062
-1076
-991
-912
-921
-969
-961
-892
-860
-928
-1017
-984
-822
-685
-692
-792
-850
-829
-816
-872
-945
-991
-1066
-1263
-1533
-1705
-1720
-1735
-1949
-2351
-2727
-2879
-2812
-2642
-2407
-2023
-1448
-781
-186
258
601
920
1186
1254
996
476
-49
-334
-355
-333
-460
-700
-839
-743
-516
-359
-343
-391
-421
-443
-463
-426
-286
-125
-91
-217
-343
-311
-169
-107
-201
-331
-343
-236
-127
-90
-82
-59
-60
-142
-261
-290
-184
-49
-27
-139
-243
-203
-33
137
197
149
67
27
43
71
53
-35
-154
-224
-192
-90
-15
-39
-121
-146
-54
101
209
227
217
261
365
455
474
442
412
411
412
408
423
480
552
592
611
663
787
942
1046
1064
1046
1075
1181
1313
1400
1420
1415
1440
1494
1529
1515
1472
1461
1512
1588
1634
1638
1643
1696
1793
1893
1948
1947
1919
1903
1932
1996
2046
2035
1966
1900
1890
1930
1965
1956
1926
1917
1939
1971
2002
2043
2102
2159
2176
2138
2064
1997
1969
1980
2002
2014
2043
2148
2336
2512
2526
2337
2076
1911
1862
1768
1512
1214
1130
1361
1705
1872
1801
1704
1779
1939
1913
1585
1152
917
968
1109
1111
963
850
914
1103
1248
1245
1123
960
785
599
434
373
473
679
882
1039
1238
1609
2114
2526
2640
2488
2279
2099
1801
1251
642
367
568
938
1095
1063
1235
1824
2524
2843
2647
2253
2001
1898
1739
1436
1102
865
716
596
506
502
604
779
995
1241
1521
1869
2300
2741
3011
2971
2713
2464
2317
2132
1781
1403
1244
1292
1226
832
306
3
-36
-138
-507
-880
-822
-268
397
786
891
986
1231
1499
1573
1386
1058
748
544
450
436
472
560
712
878
958
904
799
778
846
838
640
385
320
507
735
760
569
352
240
191
135
116
225
430
565
521
378
269
215
127
-44
-256
-458
-656
-876
-1075
-1167
-1116
-1000
-906
-832
-710
-502
-257
-61
20
-23
-152
-299
-371
-335
-266
-274
-355
-368
-196
80
240
181
63
119
341
445
203
-267
-625
-679
-567
-515
-539
-471
-223
65
210
220
253
383
504
483
332
192
149
167
178
171
175
182
164
121
110
163
250
298
263
155
25
-66
-73
-16
23
-27
-124
-137
25
286
456
433
322
315
462
595
486
110
-293
-428
-212
167
419
430
346
400
661
955
1044
880
652
574
666
772
777
751
842
1055
1227
1230
1144
1147
1260
1325
1249
1165
1289
1631
1991
2256
2571
3103
3707
3987
3762
3284
2934
2739
2362
1603
734
252
338
697
936
996
1125
1510
2032
2412
2492
2345
2133
1942
1774
1618
1508
1494
1596
1812
2095
2340
2421
2300
2117
2075
2209
2297
2095
1659
1353
1474
1924
2335
2501
2571
2786
3130
3329
3190
2827
2510
2353
2237
2003
1690
1512
1631
2005
2420
2675
2742
2711
2649
2525
2315
2086
1937
1875
1816
1750
1839
2206
2715
3040
3014
2812
2720
2779
2784
2610
2375
2278
2315
2261
1976
1601
1390
1419
1528
1544
1507
1605
1941
2424
2879
3244
3614
4049
4438
4573
4348
3864
3310
2784
2255
1690
1173
820
683
712
831
1011
1256
1547
1825
2039
2174
2253
2296
2310
2296
2256
2195
2131
2088
2108
2236
2454
2659
2718
2603
2451
2452
2646
2876
2964
2908
2860
2916
2974
2855
2520
2139
1931
1958
2091
2164
2143
2114
2147
2215
2212
2060
1787
1515
1365
1351
1395
1425
1462
1587
1823
2081
2293
2537
2953
3528
4021
4149
3844
3297
2750
2276
1786
1185
468
-277
-924
-1322
-1369
-1107
-743
-509
-498
-620
-716
-690
-573
-465
-451
-539
-633
-583
-292
166
572
726
598
326
88
-37
-75
-65
7
156
326
461
603
904
1445
2039
2313
2049
1413
811
489
332
66
-391
-811
-870
-442
304
1040
1508
1658
1626
1579
1561
1478
1219
802
396
168
150
280
531
947
1538
2152
2516
2462
2093
1685
1436
1305
1079
639
117
-179
-49
400
853
1087
1136
1156
1168
1007
550
-91
-684
-1146
-1530
-1727
-1370
-184
1541
3043
3740
3754
3674
3843
3998
3635
2631
1405
525
261
484
889
1218
1370
1390
1397
1456
1521
1488
1324
1115
956
888
924
1133
1572
2154
2617
2708
2395
1899
1484
1237
1053
827
639
692
1064
1556
1859
1862
1732
1676
1675
1571
1314
1026
790
554
364
567
1517
3033
4312
4613
3986
3197
2883
2939
2770
2017
926
67
-141
328
1148
1795
1824
1193
315
-303
-530
-679
-1052
-1534
-1741
-1478
-924
-380
46
425
767
957
920
733
540
430
430
600
1001
1580
2147
2531
2701
2747
2717
2566
2296
2029
1920
1978
2016
1808
1321
781
507
649
1051
1362
1373
1215
1227
1578
2040
2182
1814
1178
661
406
277
151
98
241
513
715
785
877
1120
1405
1499
1351
1129
970
834
623
405
330
396
418
304
203
307
567
737
714
697
919
1332
1659
1735
1673
1673
1747
1741
1588
1420
1402
1528
1629
1581
1440
1397
1592
1967
2288
2329
2060
1685
1462
1439
1394
1095
585
203
251
678
1143
1376
1410
1444
1535
1528
1261
788
313
-25
-225
-306
-220
62
439
736
875
931
998
1062
1045
939
825
764
734
706
716
813
949
973
821
603
487
496
486
326
61
-151
-243
-295
-405
-568
-717
-828
-922
-948
-749
-221
505
1122
1451
1639
1968
2484
2867
2741
2135
1535
1426
1799
2145
1994
1405
873
765
921
893
487
-3
-158
88
413
516
457
503
760
1040
1089
886
635
528
572
655
701
720
780
915
1109
1305
1414
1364
1160
920
806
887
1074
1195
1146
957
730
520
320
113
-84
-230
-291
-257
-140
22
157
185
93
-43
-128
-142
-165
-259
-381
-437
-416
-402
-448
-483
-393
-194
-66
-157
-398
-560
-502
-334
-277
-399
-554
-546
-353
-131
-27
-42
-69
-34
23
40
51
171
454
788
975
922
734
608
607
602
427
73
-274
-412
-297
-46
196
376
520
647
729
727
636
504
380
285
214
169
170
239
364
514
663
787
857
845
743
606
515
509
533
492
352
195
148
271
488
648
666
595
562
630
723
711
552
346
234
254
326
367
379
421
511
587
580
498
407
358
346
324
276
253
327
530
806
1035
1118
1054
941
868
825
717
476
157
-88
-144
-36
112
212
287
418
622
809
870
792
676
617
610
574
473
379
389
510
660
775
877
1020
1181
1244
1135
921
754
712
704
565
236
-156
-387
-306
42
430
581
355
-125
-531
-590
-319
1
127
106
198
570
1114
1590
1864
1948
1860
1564
1096
651
440
476
559
504
340
248
320
464
545
568
694
1046
1529
1873
1852
1497
1074
829
734
513
-45
-814
-1401
-1481
-1067
-463
26
303
455
584
684
678
522
271
37
-113
-192
-247
-278
-239
-105
60
148
104
-16
-93
-60
42
113
92
-7
-143
-297
-477
-671
-823
-887
-862
-773
-602
-306
72
367
415
223
-22
-139
-153
-249
-545
-936
-1190
-1174
-966
-742
-599
-508
-381
-204
-66
-48
-109
-142
-94
-15
24
58
218
571
997
1284
1332
1234
1138
1082
996
826
642
577
664
782
786
651
487
400
365
262
30
-231
-371
-334
-213
-126
-74
34
242
477
610
582
461
371
343
322
246
131
82
206
506
838
996
883
588
329
269
347
336
76
-333
-593
-488
-88
313
475
404
275
217
206
138
-53
-346
-669
-924
-1012
-896
-638
-366
-170
-65
-19
-13
-39
-83
-122
-154
-189
-215
-186
-71
114
327
525
663
681
569
413
336
336
261
-8
-373
-577
-506
-327
-300
-447
-540
-389
-81
137
154
79
46
57
63
83
160
229
146
-94
-309
-374
-416
-659
-1088
-1413
-1416
-1185
-936
-665
-166
601
1316
1610
1507
1363
1409
1467
1211
598
-56
-423
-464
-360
-261
-173
-69
33
93
123
162
196
164
40
-111
-181
-115
43
207
316
360
362
339
298
247
204
197
215
217
173
116
111
204
357
468
465
381
321
346
398
366
227
83
65
178
304
334
289
271
325
389
386
325
302
368
446
414
244
46
-52
-49
-76
-235
-463
-584
-500
-300
-153
-129
-142
-75
73
215
312
432
648
919
1110
1126
1014
893
834
804
714
512
241
21
-35
79
254
375
432
503
603
652
599
564
721
1072
1394
1483
1370
1239
1181
1106
928
709
543
420
291
266
555
1171
1814
2158
2187
2147
2186
2154
1842
1296
784
517
501
636
834
998
989
733
323
-72
-399
-770
-1242
-1634
-1659
-1168
-300
660
1529
2278
2929
3451
3732
3692
3378
2972
2645
2409
2157
1840
1604
1655
1961
2182
1992
1448
981
968
1328
1610
1503
1178
1074
1364
1758
1830
1500
1069
822
738
643
573
768
1311
1919
2210
2149
2063
2186
2361
2237
1704
1018
504
265
193
183
238
378
576
790
1007
1195
1258
1108
806
514
319
142
-126
-457
-704
-761
-676
-590
-585
-643
-717
-787
-824
-758
-519
-117
347
776
1158
1533
1913
2251
2462
2491
2333
2023
1632
1231
872
568
313
123
29
24
50
58
75
157
266
278
131
-61
-122
-24
65
-20
-219
-324
-257
-157
-189
-316
-365
-291
-258
-403
-625
-698
-581
-498
-662
-993
-1198
-1124
-929
-871
-1010
-1168
-1173
-1054
-968
-993
-1071
-1111
-1107
-1110
-1137
-1149
-1127
-1112
-1156
-1236
-1267
-1218
-1158
-1172
-1244
-1267
-1186
-1086
-1084
-1173
-1223
-1139
-984
-907
-954
-1024
-997
-866
-738
-693
-705
-686
-616
-547
-536
-587
-651
-680
-664
-620
-582
-567
-573
-576
-553
-506
-469
-480
-537
-595
-598
-545
-496
-506
-560
-595
-568
-513
-509
-580
-667
-695
-648
-577
-554
-600
-677
-712
-667
-584
-567
-680
-854
-953
-923
-867
-919
-1083
-1220
-1218
-1114
-1043
-1065
-1123
-1141
-1127
-1126
-1147
-1153
-1132
-1130
-1182
-1246
-1257
-1208
-1163
-1175
-1232
-1266
-1237
-1171
-1113
-1084
-1062
-1015
-947
-907
-940
-1031
-1110
-1136
-1152
-1223
-1346
-1434
-1430
-1372
-1335
-1317
-1248
-1101
-942
-859
-844
-805
-702
-615
-635
-740
-815
-791
-726
-741
-867
-1012
-1070
-1017
-924
-874
-891
-932
-927
-845
-710
-591
-554
-610
-701
-732
-674
-612
-679
-901
-1143
-1249
-1213
-1191
-1309
-1513
-1654
-1684
-1695
-1730
-1665
-1346
-813
-288
51
245
454
725
944
983
837
591
314
38
-194
-336
-384
-406
-473
-585
-678
-700
-670
-637
-637
-659
-647
-534
-294
-4
212
286
262
234
221
140
-86
-408
-666
-747
-682
-594
-556
-533
-454
-309
-160
-65
-20
16
53
58
12
-60
-115
-133
-124
-107
-96
-112
-181
-297
-406
-445
-418
-391
-401
-416
-386
-320
-281
-299
-321
-283
-211
-203
-308
-444
-490
-424
-344
-340
-389
-392
-302
-164
-52
29
119
231
328
376
388
407
452
494
500
473
455
477
526
560
558
539
539
568
589
571
528
500
499
485
428
348
300
299
314
313
308
332
383
415
405
380
375
383
370
336
327
377
458
518
548
593
682
784
841
833
802
798
830
870
897
909
914
915
914
913
905
883
842
797
771
764
764
764
778
827
903
966
975
937
900
911
965
1007
978
881
775
732
763
812
810
746
674
646
651
644
605
564
560
584
594
574
555
587
676
766
803
767
683
583
494
429
390
366
334
284
237
241
318
440
552
614
623
591
533
473
445
449
416
264
-9
-320
-589
-829
-1088
-1371
-1615
-1773
-1855
-1851
-1663
-1179
-442
323
894
1266
1608
2025
2401
2509
2256
1776
1300
944
666
376
58
-211
-353
-369
-325
-288
-274
-255
-204
-127
-54
-11
12
37
89
165
243
301
335
362
394
415
396
348
323
348
374
330
207
104
121
249
372
397
347
315
341
365
328
262
243
291
334
319
292
338
458
554
555
507
520
622
725
729
637
545
526
573
629
652
648
644
668
730
815
899
971
1054
1183
1334
1438
1470
1500
1614
1806
1972
2026
2001
1992
2044
2120
2176
2206
2225
2228
2223
2251
2339
2451
2502
2473
2431
2441
2478
2467
2386
2308
2297
2327
2328
2290
2257
2243
2217
2162
2119
2127
2148
2090
1940
1786
1720
1727
1735
1711
1693
1711
1734
1708
1636
1576
1568
1598
1615
1600
1564
1534
1523
1530
1538
1531
1509
1488
1478
1467
1451
1453
1518
1643
1762
1798
1755
1715
1736
1779
1759
1656
1538
1473
1458
1452
1437
1441
1479
1525
1550
1560
1592
1665
1750
1808
1826
1823
1834
1879
1939
1965
1904
1751
1572
1457
1417
1369
1224
998
816
780
857
917
896
872
955
1150
1324
1345
1223
1089
1041
1045
981
783
513
288
155
62
-63
-222
-374
-508
-652
-794
-814
-576
-99
422
779
954
1096
1320
1557
1617
1396
963
482
88
-157
-252
-253
-269
-390
-582
-717
-724
-671
-683
-793
-921
-998
-1048
-1142
-1262
-1312
-1249
-1157
-1173
-1346
-1582
-1725
-1692
-1538
-1399
-1376
-1446
-1502
-1490
-1461
-1487
-1548
-1539
-1448
-1408
-1529
-1705
-1701
-1454
-1202
-1235
-1558
-1874
-1949
-1858
-1821
-1910
-2009
-2037
-2068
-2187
-2325
-2358
-2287
-2250
-2327
-2445
-2488
-2465
-2459
-2486
-2488
-2454
-2445
-2487
-2494
-2390
-2227
-2135
-2158
-2195
-2153
-2076
-2071
-2152
-2205
-2130
-1969
-1850
-1842
-1886
-1873
-1763
-1598
-1452
-1362
-1348
-1419
-1556
-1672
-1657
-1494
-1326
-1331
-1531
-1712
-1632
-1292
-946
-849
-1016
-1237
-1302
-1180
-1024
-1002
-1155
-1378
-1510
-1475
-1347
-1266
-1286
-1337
-1333
-1295
-1323
-1429
-1508
-1472
-1387
-1372
-1455
-1535
-1522
-1444
-1400
-1432
-1506
-1582
-1626
-1612
-1535
-1463
-1485
-1619
-1754
-1759
-1630
-1522
-1558
-1683
-1732
-1623
-1443
-1354
-1408
-1516
-1551
-1500
-1448
-1473
-1555
-1619
-1622
-1588
-1549
-1491
-1400
-1302
-1248
-1249
-1273
-1272
-1250
-1248
-1265
-1281
-1289
-1303
-1319
-1289
-1178
-1056
-1042
-1171
-1314
-1320
-1190
-1056
-1036
-1108
-1155
-1109
-1001
-919
-913
-965
-1020
-1039
-1015
-1018
-1126
-1329
-1515
-1575
-1547
-1589
-1774
-1985
-2059
-2004
-1993
-2111
-2183
-1953
-1430
-912
-658
-595
-420
1
446
580
313
-113
-411
-514
-567
-719
-958
-1169
-1239
-1181
-1099
-1052
-1004
-890
-742
-696
-844
-1075
-1173
-1068
-955
-1061
-1340
-1491
-1337
-1056
-974
-1134
-1254
-1093
-772
-611
-709
-845
-810
-676
-692
-913
-1112
-1061
-825
-678
-752
-907
-925
-807
-745
-858
-1062
-1179
-1167
-1126
-1127
-1116
-992
-779
-618
-587
-625
-637
-628
-682
-811
-920
-935
-910
-939
-1006
-987
-810
-560
-405
-418
-514
-565
-547
-516
-494
-439
-338
-265
-298
-407
-455
-354
-192
-130
-214
-325
-327
-216
-97
-14
91
249
380
379
272
202
260
373
387
260
102
30
75
165
212
202
163
124
87
65
69
108
166
213
228
231
266
339
402
406
354
292
232
128
-37
-183
-203
-99
6
7
-50
-13
177
382
408
209
-63
-225
-241
-248
-383
-621
-802
-779
-560
-290
-123
-86
-85
-13
147
311
372
293
135
-12
-94
-123
-148
-200
-269
-317
-314
-255
-162
-70
-2
53
119
202
278
318
331
375
477
587
627
575
492
451
447
413
322
236
234
312
392
417
424
496
641
760
733
553
341
220
174
78
-139
-383
-517
-547
-623
-810
-929
-711
-128
525
924
1073
1261
1672
2126
2254
1907
1326
879
696
606
400
90
-138
-161
-65
-22
-82
-143
-125
-115
-279
-645
-1037
-1252
-1277
-1283
-1396
-1539
-1511
-1222
-777
-332
69
475
880
1193
1333
1335
1281
1168
892
415
-128
-538
-735
-820
-900
-944
-847
-587
-277
-41
113
277
514
776
932
872
586
215
-22
-2
196
379
467
563
783
1075
1279
1344
1383
1475
1501
1304
942
681
693
866
942
837
696
663
719
760
754
772
844
907
907
873
872
926
1022
1148
1282
1363
1323
1177
1034
981
977
916
770
631
592
638
699
753
840
993
1175
1315
1379
1394
1419
1513
1708
1975
2216
2341
2345
2324
2360
2416
2377
2201
1993
1894
1940
2030
2051
2002
1993
2115
2320
2431
2292
1925
1534
1335
1353
1398
1254
894
497
273
279
425
593
732
850
987
1183
1453
1755
1980
2032
1900
1649
1366
1109
916
807
748
674
555
458
491
651
802
814
715
639
669
746
759
694
654
727
864
936
880
774
740
810
890
867
739
604
553
577
598
580
556
576
647
728
791
844
897
928
897
790
638
483
338
171
-55
-328
-594
-812
-972
-1058
-1002
-720
-215
377
887
1261
1585
1944
2282
2427
2276
1901
1480
1156
953
815
702
627
611
640
659
627
564
523
512
468
331
135
0
7
111
187
164
79
2
-41
-84
-155
-245
-329
-394
-434
-449
-449
-444
-463
-524
-629
-739
-786
-746
-695
-751
-948
-1178
-1289
-1248
-1180
-1237
-1435
-1660
-1795
-1822
-1812
-1839
-1913
-2003
-2081
-2147
-2215
-2288
-2345
-2370
-2385
-2433
-2530
-2634
-2683
-2666
-2629
-2621
-2647
-2671
-2669
-2656
-2656
-2663
-2656
-2621
-2564
-2492
-2397
-2262
-2090
-1918
-1801
-1775
-1805
-1816
-1777
-1738
-1779
-1905
-2025
-2047
-1986
-1932
-1948
-2002
-2017
-1966
-1888
-1832
-1814
-1817
-1828
-1851
-1882
-1893
-1864
-1816
-1805
-1868
-1961
-1968
-1816
-1589
-1462
-1523
-1674
-1736
-1657
-1570
-1621
-1779
-1864
-1776
-1613
-1539
-1583
-1622
-1549
-1412
-1365
-1512
-1820
-2155
-2377
-2448
-2465
-2558
-2762
-2953
-2966
-2758
-2438
-2117
-1787
-1414
-1102
-1055
-1358
-1834
-2215
-2438
-2688
-3139
-3709
-4111
-4111
-3718
-3150
-2647
-2349
-2252
-2255
-2240
-2167
-2120
-2211
-2439
-2646
-2662
-2450
-2137
-1875
-1711
-1598
-1488
-1401
-1398
-1499
-1637
-1720
-1702
-1600
-1459
-1315
-1185
-1090
-1047
-1049
-1051
-1011
-941
-904
-958
-1077
-1182
-1243
-1333
-1550
-1880
-2177
-2287
-2197
-2041
-1936
-1840
-1609
-1184
-681
-286
-92
-19
53
126
95
-105
-405
-659
-801
-887
-996
-1112
-1160
-1123
-1089
-1158
-1322
-1467
-1495
-1444
-1435
-1540
-1701
-1792
-1759
-1673
-1649
-1716
-1796
-1803
-1736
-1682
-1709
-1786
-1832
-1811
-1767
-1735
-1701
-1623
-1501
-1387
-1327
-1312
-1313
-1326
-1359
-1397
-1403
-1364
-1322
-1319
-1339
-1314
-1211
-1067
-940
-839
-748
-694
-747
-931
-1157
-1295
-1318
-1317
-1356
-1348
-1128
-694
-285
-174
-396
-711
-875
-898
-999
-1319
-1744
-2018
-1988
-1725
-1406
-1158
-991
-867
-763
-679
-625
-610
-634
-680
-711
-705
-671
-618
-545
-454
-382
-369
-417
-471
-481
-449
-412
-383
-333
-248
-172
-160
-218
-288
-308
-263
-191
-136
-136
-208
-331
-446
-490
-457
-395
-354
-336
-316
-299
-313
-369
-441
-502
-552
-590
-584
-510
-418
-409
-514
-641
-692
-702
-803
-1036
-1273
-1361
-1279
-1109
-854
-426
154
624
713
476
295
471
845
943
508
-197
-627
-474
65
494
435
-104
-796
-1273
-1416
-1397
-1487
-1792
-2157
-2325
-2173
-1779
-1324
-938
-664
-482
-351
-232
-123
-63
-77
-132
-158
-134
-99
-94
-101
-50
74
214
292
287
248
237
290
395
494
504
396
236
113
41
-71
-293
-564
-746
-812
-894
-1096
-1289
-1164
-569
291
1012
1367
1477
1614
1875
2084
2007
1610
1097
723
604
666
772
839
872
905
937
941
903
840
766
673
555
447
422
501
623
704
714
686
654
608
514
391
310
323
397
446
430
402
436
515
530
397
165
-10
-26
47
53
-78
-238
-257
-103
77
149
154
228
411
564
527
336
183
194
291
288
124
-80
-178
-136
-33
43
42
-54
-219
-357
-364
-244
-156
-278
-593
-892
-1003
-977
-1031
-1301
-1698
-2004
-2094
-2024
-1927
-1866
-1802
-1655
-1373
-992
-618
-341
-180
-66
96
326
560
716
778
818
903
1028
1126
1148
1104
1040
983
933
882
831
796
786
799
834
876
896
889
866
835
787
717
647
616
636
665
659
628
630
688
754
751
661
554
513
542
565
497
342
192
142
197
266
259
180
126
171
276
323
252
128
67
96
128
78
-29
-94
-75
-38
-74
-185
-285
-300
-241
-186
-198
-266
-323
-306
-199
-67
-6
-60
-178
-253
-236
-179
-171
-226
-283
-283
-236
-199
-202
-228
-248
-252
-250
-247
-240
-230
-224
-234
-262
-288
-290
-278
-310
-449
-671
-874
-982
-1035
-1144
-1343
-1539
-1634
-1639
-1619
-1556
-1340
-921
-429
-55
161
346
602
837
860
623
276
2
-175
-361
-596
-778
-800
-697
-614
-643
-719
-723
-634
-545
-552
-653
-771
-838
-835
-784
-710
-650
-658
-754
-892
-997
-1046
-1079
-1138
-1204
-1242
-1263
-1299
-1342
-1330
-1237
-1128
-1105
-1181
-1271
-1303
-1313
-1394
-1549
-1683
-1730
-1719
-1751
-1841
-1896
-1841
-1722
-1663
-1730
-1852
-1918
-1900
-1872
-1908
-1986
-2031
-2017
-1995
-2026
-2101
-2151
-2134
-2094
-2123
-2238
-2346
-2338
-2206
-2057
-2004
-2057
-2116
-2081
-1961
-1847
-1825
-1895
-1967
-1960
-1860
-1736
-1682
-1725
-1808
-1831
-1733
-1571
-1475
-1530
-1684
-1786
-1747
-1624
-1519
-1465
-1422
-1359
-1313
-1341
-1423
-1465
-1428
-1382
-1427
-1535
-1591
-1519
-1384
-1332
-1413
-1514
-1555
-1593
-1721
-1920
-2057
-2066
-2045
-2100
-2157
-2033
-1720
-1480
-1530
-1734
-1727
-1391
-1048
-1093
-1485
-1769
-1608
-1176
-945
-1144
-1525
-1697
-1571
-1380
-1355
-1484
-1615
-1646
-1611
-1589
-1602
-1605
-1590
-1558
-1511
-1468
-1452
-1475
-1507
-1490
-1407
-1333
-1339
-1392
-1390
-1286
-1153
-1096
-1137
-1200
-1219
-1200
-1180
-1151
-1085
-986
-896
-856
-875
-929
-959
-928
-861
-853
-981
-1192
-1304
-1186
-955
-854
-983
-1148
-1131
-990
-996
-1248
-1507
-1503
-1330
-1347
-1690
-2054
-2066
-1760
-1521
-1577
-1731
-1634
-1216
-728
-405
-231
-70
86
126
-2
-217
-405
-535
-638
-747
-859
-940
-958
-899
-774
-659
-607
-612
-610
-577
-564
-608
-681
-735
-756
-774
-795
-783
-724
-660
-649
-702
-740
-702
-612
-600
-760
-1002
-1111
-926
-581
-409
-573
-837
-843
-583
-446
-757
-1336
-1665
-1488
-1073
-823
-803
-741
-439
-69
25
-251
-655
-889
-883
-782
-729
-714
-630
-438
-242
-180
-279
-401
-428
-414
-532
-818
-1043
-960
-599
-270
-203
-323
-379
-279
-195
-275
-421
-457
-379
-340
-399
-420
-258
21
204
201
107
49
48
49
53
96
164
174
102
35
65
165
242
279
341
450
514
448
316
260
327
405
370
245
161
175
237
248
197
138
112
99
64
15
-7
28
83
92
28
-64
-114
-100
-61
-42
-32
23
135
238
249
165
69
40
59
40
-47
-139
-145
-65
10
21
7
46
153
259
327
405
562
770
911
909
804
688
607
536
430
287
152
73
80
180
346
526
675
778
838
847
806
759
751
781
784
716
637
655
789
931
965
904
859
881
902
850
775
793
914
998
920
736
614
607
586
425
169
-29
-91
-65
37
322
881
1592
2172
2445
2506
2566
2673
2669
2396
1891
1343
923
676
582
614
725
842
901
915
944
1016
1093
1108
1039
922
812
755
785
906
1064
1176
1189
1135
1084
1065
1020
875
632
381
212
146
153
220
375
629
932
1205
1418
1609
1843
2116
2334
2388
2275
2144
2176
2410
2680
2769
2631
2434
2362
2414
2412
2225
1938
1744
1737
1843
1930
1954
1973
2037
2100
2068
1909
1680
1488
1381
1342
1334
1347
1398
1497
1643
1866
2201
2614
2942
2991
2712
2277
1929
1731
1541
1223
838
580
579
786
1078
1369
1607
1732
1703
1584
1516
1569
1659
1653
1537
1417
1375
1388
1405
1423
1448
1406
1186
797
426
277
356
469
438
280
158
168
234
213
66
-113
-238
-320
-426
-581
-722
-783
-782
-806
-910
-1057
-1167
-1206
-1218
-1265
-1363
-1475
-1559
-1603
-1622
-1649
-1706
-1788
-1854
-1869
-1847
-1851
-1931
-2064
-2173
-2214
-2215
-2229
-2270
-2313
-2331
-2325
-2309
-2294
-2300
-2345
-2415
-2461
-2455
-2423
-2416
-2438
-2439
-2401
-2378
-2431
-2517
-2524
-2425
-2344
-2425
-2624
-2727
-2598
-2353
-2227
-2305
-2427
-2419
-2310
-2277
-2409
-2604
-2714
-2724
-2740
-2822
-2914
-2938
-2910
-2928
-3044
-3211
-3335
-3386
-3432
-3545
-3698
-3755
-3588
-3200
-2726
-2304
-1968
-1671
-1399
-1219
-1193
-1305
-1479
-1690
-1966
-2311
-2621
-2772
-2741
-2643
-2618
-2703
-2804
-2815
-2725
-2632
-2649
-2799
-2998
-3119
-3111
-3036
-2996
-3022
-3066
-3060
-3001
-2955
-2990
-3102
-3215
-3243
-3166
-3054
-3007
-3061
-3155
-3208
-3197
-3158
-3123
-3098
-3087
-3112
-3177
-3231
-3212
-3133
-3081
-3128
-3235
-3301
-3286
-3252
-3278
-3366
-3447
-3472
-3467
-3465
-3463
-3427
-3364
-3343
-3415
-3547
-3645
-3653
-3597
-3550
-3549
-3568
-3558
-3500
-3410
-3328
-3287
-3291
-3318
-3335
-3337
-3346
-3379
-3416
-3407
-3331
-3223
-3139
-3092
-3046
-2958
-2837
-2716
-2625
-2563
-2516
-2488
-2475
-2447
-2361
-2213
-2059
-1957
-1907
-1854
-1760
-1672
-1674
-1797
-1971
-2098
-2151
-2185
-2255
-2327
-2316
-2188
-2013
-1909
-1911
-1943
-1913
-1816
-1747
-1780
-1881
-1940
-1902
-1811
-1756
-1755
-1753
-1708
-1649
-1647
-1715
-1800
-1838
-1823
-1801
-1812
-1845
-1855
-1814
-1738
-1659
-1597
-1543
-1480
-1419
-1388
-1395
-1405
-1387
-1351
-1338
-1358
-1360
-1294
-1176
-1075
-1026
-1008
-993
-995
-1042
-1119
-1168
-1162
-1138
-1155
-1211
-1251
-1225
-1154
-1107
-1132
-1196
-1223
-1167
-1061
-1001
-1042
-1131
-1150
-1055
-945
-963
-1130
-1316
-1386
-1348
-1342
-1449
-1595
-1656
-1609
-1562
-1615
-1750
-1884
-2002
-2177
-2458
-2782
-3035
-3168
-3216
-3179
-2965
-2480
-1783
-1091
-604
-336
-158
14
108
-25
-428
-970
-1446
-1731
-1845
-1888
-1930
-1964
-1941
-1856
-1765
-1733
-1771
-1825
-1839
-1815
-1801
-1825
-1858
-1843
-1766
-1679
-1647
-1688
-1756
-1795
-1788
-1755
-1704
-1617
-1484
-1352
-1296
-1336
-1398
-1389
-1297
-1218
-1251
-1388
-1524
-1565
-1513
-1447
-1437
-1481
-1520
-1494
-1391
-1263
-1192
-1228
-1345
-1463
-1521
-1527
-1536
-1584
-1646
-1667
-1626
-1562
-1529
-1542
-1566
-1568
-1553
-1561
-1606
-1668
-1712
-1726
-1716
-1694
-1662
-1620
-1580
-1542
-1494
-1430
-1373
-1354
-1374
-1389
-1361
-1305
-1271
-1289
-1336
-1357
-1319
-1231
-1135
-1072
-1058
-1068
-1054
-998
-936
-929
-986
-1052
-1063
-1024
-998
-1023
-1065
-1068
-1030
-1007
-1031
-1067
-1059
-1000
-941
-928
-952
-976
-987
-997
-1006
-997
-970
-965
-1018
-1096
-1120
-1049
-932
-853
-840
-854
-853
-843
-854
-881
-897
-908
-950
-1025
-1072
-1023
-893
-778
-748
-776
-782
-738
-690
-702
-780
-869
-916
-904
-851
-782
-716
-656
-596
-524
-433
-340
-271
-243
-252
-280
-307
-317
-307
-287
-277
-298
-349
-413
-454
-444
-386
-312
-271
-279
-310
-327
-328
-346
-405
-484
-544
-580
-623
-674
-676
-580
-440
-391
-512
-720
-876
-957
-1082
-1344
-1670
-1897
-1970
-1971
-1953
-1814
-1411
-774
-139
281
503
693
930
1104
1058
767
347
-63
-387
-584
-624
-527
-391
-319
-307
-269
-161
-68
-114
-325
-592
-777
-844
-845
-827
-778
-670
-515
-368
-267
-213
-189
-194
-229
-264
-252
-174
-70
-14
-36
-79
-58
50
169
185
72
-71
-117
-48
30
15
-95
-205
-246
-234
-218
-204
-168
-119
-106
-143
-188
-196
-184
-218
-323
-442
-496
-480
-462
-494
-542
-528
-430
-312
-237
-203
-158
-74
17
75
120
206
348
504
637
762
917
1092
1222
1277
1322
1436
1599
1705
1700
1657
1684
1788
1869
1862
1833
1891
2035
2148
2134
2043
2000
2047
2098
2056
1927
1811
1773
1781
1766
1710
1657
1644
1660
1659
1625
1573
1529
1497
1461
1411
1355
1307
1282
1293
1337
1394
1433
1426
1372
1305
1268
1276
1302
1295
1231
1139
1085
1115
1209
1290
1286
1206
1122
1094
1107
1094
1015
910
851
861
896
895
857
835
867
928
955
925
883
892
959
1020
1020
971
937
952
975
947
857
761
716
717
707
657
605
608
673
729
707
616
542
560
654
732
705
580
459
449
550
631
544
269
-31
-158
-111
-94
-285
-627
-899
-981
-972
-993
-953
-655
-97
466
806
1000
1297
1729
2000
1849
1388
980
788
623
267
-181
-418
-335
-147
-111
-207
-222
-75
81
74
-62
-149
-117
-88
-167
-298
-340
-247
-127
-119
-232
-358
-394
-300
-125
-4
-78
-359
-665
-742
-543
-333
-391
-650
-754
-486
-83
14
-315
-713
-774
-548
-435
-659
-984
-1044
-827
-658
-768
-1006
-1072
-929
-805
-857
-969
-937
-771
-687
-801
-976
-1012
-913
-872
-1011
-1216
-1275
-1136
-964
-923
-989
-992
-835
-654
-662
-875
-1060
-975
-665
-413
-435
-628
-703
-520
-249
-175
-368
-607
-632
-403
-123
-5
-88
-225
-263
-194
-146
-214
-374
-510
-541
-488
-431
-410
-423
-427
-382
-283
-199
-230
-392
-564
-590
-459
-341
-403
-596
-696
-566
-324
-212
-320
-498
-539
-406
-230
-154
-215
-363
-525
-654
-736
-768
-759
-741
-727
-702
-628
-496
-350
-264
-273
-337
-376
-355
-326
-371
-479
-552
-515
-392
-296
-300
-361
-371
-284
-153
-90
-162
-322
-448
-434
-296
-162
-156
-276
-382
-344
-190
-106
-209
-398
-465
-338
-179
-177
-322
-424
-357
-200
-113
-138
-190
-226
-309
-477
-618
-607
-501
-502
-693
-914
-941
-789
-716
-908
-1254
-1496
-1551
-1555
-1613
-1611
-1333
-776
-206
122
247
411
729
1015
996
647
235
16
-40
-153
-408
-618
-583
-366
-239
-340
-499
-454
-191
32
4
-193
-306
-235
-118
-127
-246
-334
-330
-319
-383
-471
-450
-294
-122
-51
-85
-138
-147
-134
-151
-216
-310
-407
-483
-526
-551
-590
-654
-689
-633
-502
-392
-370
-398
-384
-289
-169
-106
-99
-95
-73
-71
-133
-245
-343
-380
-356
-316
-317
-373
-419
-377
-224
-46
33
-20
-115
-131
-43
73
131
118
100
154
287
440
542
574
568
562
553
511
431
361
357
408
459
496
561
689
842
948
991
1025
1082
1121
1070
926
783
728
752
774
752
729
776
901
1041
1120
1116
1064
1014
996
1016
1057
1093
1093
1050
1001
1003
1071
1151
1171
1113
1043
1051
1167
1325
1431
1443
1404
1383
1396
1392
1319
1194
1089
1057
1085
1125
1148
1169
1201
1219
1189
1124
1080
1094
1138
1162
1154
1161
1227
1342
1452
1506
1497
1459
1427
1425
1448
1471
1468
1435
1406
1413
1448
1473
1455
1402
1348
1317
1305
1302
1308
1339
1409
1522
1666
1815
1944
2033
2069
2026
1880
1632
1335
1069
866
693
496
279
112
69
156
302
390
333
160
44
191
653
1245
1700
1926
2100
2438
2921
3276
3249
2855
2336
1921
1655
1467
1323
1272
1359
1562
1813
2067
2302
2489
2587
2591
2541
2485
2425
2336
2222
2142
2139
2183
2191
2124
2042
2031
2098
2159
2134
2034
1936
1888
1857
1782
1647
1500
1398
1358
1351
1335
1300
1271
1272
1297
1297
1235
1138
1059
1013
947
808
627
503
500
580
645
642
607
618
705
814
860
798
663
547
509
525
512
427
331
320
412
528
593
615
655
727
768
737
678
660
702
750
746
699
651
627
613
596
573
541
489
414
343
307
313
330
315
243
135
42
8
18
14
-55
-170
-262
-279
-236
-195
-189
-198
-201
-204
-223
-250
-255
-228
-203
-220
-271
-300
-256
-148
-41
-10
-63
-127
-112
-6
98
93
-29
-163
-206
-162
-127
-169
-260
-322
-315
-257
-176
-90
-24
-18
-71
-124
-121
-81
-85
-176
-292
-342
-310
-265
-261
-281
-269
-214
-159
-140
-145
-145
-138
-151
-186
-214
-217
-212
-224
-244
-237
-208
-202
-243
-286
-272
-218
-215
-331
-495
-572
-525
-455
-448
-468
-429
-340
-307
-366
-406
-334
-239
-309
-569
-833
-941
-979
-1157
-1502
-1807
-1901
-1862
-1849
-1815
-1521
-879
-140
355
562
734
1065
1418
1500
1203
710
281
12
-165
-302
-383
-394
-364
-311
-213
-54
104
149
44
-114
-176
-106
-7
-2
-90
-158
-101
44
140
108
3
-52
-8
75
111
79
30
12
31
66
97
115
113
94
80
88
106
112
111
134
202
288
338
329
286
242
198
135
38
-59
-103
-74
-27
-46
-133
-173
-35
262
515
512
258
-34
-158
-127
-117
-261
-513
-708
-720
-538
-244
60
301
471
610
750
881
961
979
967
953
922
868
839
898
1032
1137
1135
1083
1094
1183
1241
1190
1111
1156
1355
1553
1576
1418
1237
1179
1231
1272
1219
1110
1050
1102
1227
1327
1323
1207
1032
846
661
470
283
129
17
-49
-69
-23
98
257
373
398
361
340
377
437
463
444
425
461
552
640
677
676
689
750
839
903
914
908
937
999
1026
966
845
747
729
746
719
637
588
651
800
918
937
900
907
986
1061
1045
936
816
754
747
744
716
666
618
605
637
696
733
715
665
645
679
723
727
726
817
1029
1238
1272
1082
818
663
630
559
305
-68
-358
-448
-414
-401
-444
-476
-483
-554
-715
-797
-555
53
770
1292
1569
1807
2190
2642
2911
2824
2431
1915
1445
1100
896
811
784
754
716
715
783
874
906
852
768
737
783
859
913
942
977
1022
1020
911
699
466
301
224
197
178
173
204
280
378
471
530
532
472
399
375
407
429
380
280
219
266
419
628
853
1065
1223
1284
1231
1101
966
906
959
1070
1071
817
391
129
325
878
1291
1113
404
-331
-653
-599
-549
-766
-1151
-1428
-1445
-1239
-892
-427
93
505
667
620
566
665
905
1139
1263
1270
1210
1152
1168
1321
1587
1813
1840
1677
1528
1594
1887
2247
2528
2720
2862
2910
2757
2390
1956
1633
1443
1254
971
693
630
872
1273
1586
1689
1670
1675
1751
1824
1811
1727
1639
1594
1595
1623
1677
1761
1845
1870
1798
1646
1471
1323
1222
1174
1201
1313
1478
1632
1747
1866
2031
2207
2292
2240
2126
2054
2032
1970
1833
1738
1825
2063
2247
2226
2055
1911
1865
1822
1671
1440
1263
1208
1229
1262
1318
1441
1615
1758
1810
1797
1794
1843
1916
1958
1941
1876
1809
1785
1803
1812
1757
1649
1564
1551
1556
1493
1362
1273
1316
1429
1447
1297
1098
1007
1002
887
550
130
-112
-109
-69
-195
-371
-251
335
1142
1746
1992
2093
2302
2581
2659
2377
1859
1360
1012
781
606
491
444
411
340
254
229
280
301
196
3
-130
-108
12
97
112
154
321
572
746
746
644
595
661
763
797
761
740
790
891
993
1082
1154
1172
1103
979
893
892
924
908
841
788
790
831
886
978
1123
1267
1306
1212
1068
986
1000
1054
1074
1031
944
872
886
1002
1146
1208
1140
1028
973
969
929
818
720
722
788
803
743
722
855
1116
1361
1474
1465
1418
1388
1380
1377
1371
1356
1335
1318
1316
1329
1353
1393
1449
1491
1481
1415
1329
1267
1235
1214
1216
1244
1266
1248
1189
1141
1156
1214
1244
1208
1135
1060
979
883
793
748
732
669
517
339
245
287
409
501
507
460
428
440
456
409
275
111
10
20
98
154
151
137
177
269
335
310
206
95
33
20
5
-48
-123
-174
-170
-123
-86
-98
-155
-209
-211
-163
-114
-111
-147
-172
-147
-84
-31
-22
-53
-99
-150
-198
-224
-212
-178
-171
-218
-271
-266
-212
-194
-260
-341
-327
-224
-170
-267
-435
-476
-315
-125
-142
-407
-706
-817
-771
-794
-1009
-1288
-1422
-1394
-1377
-1459
-1479
-1215
-676
-128
221
434
709
1070
1307
1238
932
592
310
21
-335
-660
-809
-765
-654
-583
-544
-476
-376
-299
-270
-275
-311
-400
-537
-638
-617
-484
-342
-299
-360
-445
-481
-479
-497
-555
-594
-549
-441
-370
-401
-490
-521
-461
-389
-406
-499
-557
-512
-427
-414
-487
-551
-534
-486
-506
-608
-705
-721
-679
-670
-730
-810
-835
-799
-751
-731
-739
-760
-789
-816
-832
-830
-803
-754
-681
-600
-541
-519
-508
-460
-373
-310
-322
-359
-311
-151
20
86
58
58
162
299
349
299
242
249
275
239
150
114
195
329
390
346
308
398
592
732
688
505
363
396
561
677
609
403
238
258
435
591
570
386
212
213
350
433
331
124
12
81
223
277
224
193
280
414
460
393
303
254
214
119
-19
-132
-193
-238
-285
-278
-149
57
197
175
47
-44
-16
63
54
-94
-263
-273
-84
150
223
111
2
81
279
337
108
-229
-366
-202
63
174
99
10
67
243
428
539
547
448
273
121
107
226
351
368
301
259
293
347
350
315
291
277
216
75
-81
-154
-106
-5
29
-71
-276
-478
-584
-607
-649
-786
-949
-949
-652
-128
413
813
1102
1403
1739
1979
1979
1745
1409
1085
778
463
190
53
61
127
173
224
351
534
668
666
568
465
385
293
181
115
146
215
212
115
20
22
88
107
33
-65
-96
-66
-57
-113
-184
-190
-121
-42
-10
-17
-18
8
43
59
50
43
54
78
92
80
35
-31
-90
-119
-122
-128
-153
-184
-182
-134
-83
-88
-154
-217
-210
-132
-52
-37
-79
-113
-84
-5
64
82
68
75
132
222
300
336
347
369
422
486
528
536
536
559
600
628
623
602
598
623
662
698
727
752
764
755
740
748
797
861
895
886
867
887
964
1065
1138
1147
1113
1082
1082
1088
1043
933
808
729
702
672
615
589
665
828
979
1037
1023
1005
1004
969
865
729
614
522
413
301
272
387
590
745
777
746
765
878
1019
1097
1086
1034
1010
1031
1060
1050
991
926
898
894
855
768
718
812
1036
1218
1185
930
598
307
46
-224
-451
-492
-276
91
441
736
1097
1647
2330
2910
3151
3019
2701
2454
2403
2454
2404
2126
1699
1353
1273
1451
1696
1787
1658
1453
1366
1426
1448
1215
716
168
-215
-421
-565
-658
-540
-74
633
1289
1690
1866
1955
2006
1929
1646
1225
859
709
796
1017
1257
1481
1736
2065
2407
2628
2630
2447
2195
1964
1762
1556
1356
1226
1215
1303
1420
1489
1458
1316
1116
940
820
696
462
100
-266
-475
-490
-432
-429
-486
-502
-428
-338
-333
-416
-507
-549
-573
-647
-771
-881
-917
-885
-838
-833
-893
-1000
-1097
-1130
-1097
-1059
-1088
-1199
-1336
-1442
-1519
-1602
-1706
-1808
-1875
-1901
-1897
-1882
-1869
-1862
-1857
-1833
-1789
-1744
-1726
-1746
-1782
-1809
-1810
-1794
-1780
-1782
-1808
-1833
-1816
-1743
-1658
-1629
-1660
-1676
-1624
-1552
-1551
-1633
-1704
-1679
-1603
-1584
-1655
-1719
-1686
-1602
-1595
-1710
-1841
-1876
-1834
-1847
-1984
-2161
-2247
-2228
-2219
-2308
-2452
-2524
-2475
-2394
-2401
-2516
-2639
-2673
-2628
-2600
-2658
-2771
-2853
-2861
-2826
-2812
-2847
-2898
-2934
-2959
-3007
-3099
-3198
-3243
-3215
-3156
-3120
-3117
-3104
-3052
-2987
-2958
-2986
-3049
-3115
-3171
-3217
-3234
-3212
-3160
-3108
-3076
-3054
-3026
-2991
-2966
-2967
-2992
-3021
-3030
-3012
-2987
-2983
-3006
-3031
-3021
-2974
-2929
-2918
-2946
-2974
-2964
-2925
-2900
-2930
-2997
-3045
-3037
-2985
-2938
-2925
-2933
-2926
-2894
-2862
-2848
-2848
-2861
-2903
-3003
-3151
-3289
-3388
-3480
-3628
-3840
-4049
-4192
-4287
-4372
-4408
-4266
-3854
-3244
-2628
-2153
-1797
-1451
-1101
-873
-906
-1213
-1666
-2098
-2410
-2590
-2674
-2705
-2722
-2719
-2646
-2477
-2262
-2111
-2090
-2154
-2203
-2197
-2188
-2240
-2346
-2450
-2510
-2551
-2614
-2698
-2762
-2774
-2752
-2736
-2733
-2719
-2667
-2604
-2583
-2632
-2711
-2754
-2719
-2626
-2524
-2430
-2325
-2211
-2142
-2177
-2303
-2433
-2485
-2476
-2483
-2536
-2577
-2519
-2361
-2191
-2086
-2041
-1999
-1956
-1971
-2092
-2273
-2412
-2465
-2485
-2549
-2673
-2782
-2805
-2742
-2644
-2548
-2462
-2391
-2341
-2306
-2259
-2181
-2103
-2073
-2090
-2086
-1995
-1834
-1685
-1605
-1572
-1526
-1460
-1426
-1461
-1526
-1545
-1490
-1414
-1378
-1371
-1330
-1216
-1072
-972
-945
-957
-943
-879
-794
-725
-686
-669
-642
-588
-506
-435
-427
-506
-636
-744
-796
-820
-861
-923
-967
-971
-960
-970
-976
-920
-792
-675
-666
-770
-887
-937
-950
-1024
-1209
-1437
-1598
-1640
-1598
-1549
-1536
-1546
-1526
-1431
-1260
-1073
-953
-942
-1010
-1096
-1177
-1283
-1445
-1639
-1811
-1916
-1948
-1929
-1879
-1803
-1708
-1601
-1496
-1405
-1330
-1269
-1216
-1181
-1173
-1181
-1158
-1060
-906
-778
-741
-775
-796
-749
-665
-618
-635
-677
-696
-683
-655
-630
-619
-625
-651
-675
-660
-594
-499
-419
-382
-398
-474
-601
-765
-948
-1135
-1312
-1455
-1555
-1640
-1738
-1796
-1677
-1272
-646
-18
428
704
960
1279
1562
1621
1368
891
370
-60
-362
-564
-694
-766
-782
-737
-633
-494
-369
-304
-311
-360
-419
-486
-578
-689
-770
-775
-717
-672
-699
-781
-848
-863
-844
-820
-787
-727
-657
-619
-633
-671
-692
-697
-721
-778
-841
-873
-879
-882
-880
-833
-716
-563
-444
-397
-407
-429
-449
-495
-599
-761
-951
-1122
-1237
-1285
-1281
-1251
-1209
-1151
-1069
-973
-878
-784
-673
-536
-400
-305
-257
-223
-169
-102
-64
-82
-132
-163
-139
-70
18
113
209
289
320
302
270
262
279
283
264
259
303
367
391
377
403
528
705
826
855
880
1003
1207
1371
1401
1319
1219
1160
1133
1102
1040
942
829
758
782
883
970
963
878
807
801
811
767
674
613
644
738
816
833
810
793
813
887
1012
1158
1255
1270
1252
1301
1452
1596
1585
1397
1180
1109
1203
1307
1273
1127
1028
1079
1226
1332
1331
1285
1285
1336
1367
1321
1229
1179
1222
1318
1376
1345
1255
1186
1178
1195
1167
1072
952
864
809
739
633
519
456
457
475
455
396
352
373
450
512
506
461
444
475
508
485
413
337
248
80
-178
-417
-522
-524
-561
-666
-646
-278
412
1121
1574
1788
1987
2282
2521
2474
2095
1565
1091
745
486
280
143
91
104
153
224
310
379
391
340
266
218
208
205
175
125
101
138
215
264
239
170
124
138
180
204
207
214
223
202
136
65
43
81
131
134
77
-3
-53
-46
-8
7
-34
-111
-164
-175
-180
-227
-307
-376
-416
-442
-470
-492
-499
-512
-555
-609
-637
-642
-677
-763
-858
-923
-965
-1005
-1026
-986
-911
-888
-942
-972
-873
-696
-617
-730
-908
-949
-823
-724
-827
-1074
-1230
-1152
-940
-820
-865
-909
-752
-403
-104
-77
-274
-423
-328
-91
14
-142
-402
-509
-385
-207
-184
-324
-464
-489
-459
-512
-663
-785
-782
-723
-755
-905
-1026
-973
-804
-735
-878
-1109
-1226
-1196
-1155
-1219
-1329
-1346
-1262
-1222
-1347
-1555
-1646
-1550
-1413
-1429
-1617
-1804
-1813
-1646
-1465
-1409
-1463
-1522
-1517
-1494
-1522
-1605
-1670
-1680
-1680
-1729
-1810
-1834
-1746
-1597
-1507
-1547
-1663
-1723
-1641
-1454
-1287
-1252
-1345
-1454
-1475
-1406
-1339
-1356
-1430
-1484
-1483
-1450
-1415
-1386
-1352
-1310
-1284
-1289
-1318
-1367
-1408
-1400
-1331
-1249
-1257
-1388
-1545
-1591
-1523
-1511
-1696
-2021
-2295
-2397
-2400
-2441
-2569
-2700
-2753
-2706
-2538
-2194
-1679
-1129
-723
-512
-354
-106
164
213
-101
-631
-1066
-1226
-1209
-1243
-1406
-1562
-1534
-1320
-1104
-1055
-1167
-1295
-1323
-1277
-1266
-1337
-1415
-1406
-1319
-1240
-1233
-1277
-1327
-1362
-1377
-1358
-1286
-1171
-1048
-930
-818
-737
-734
-819
-920
-951
-918
-909
-990
-1109
-1160
-1113
-1039
-1018
-1055
-1099
-1114
-1115
-1121
-1123
-1116
-1107
-1101
-1091
-1059
-1017
-1013
-1057
-1100
-1098
-1053
-1033
-1090
-1187
-1228
-1152
-1013
-929
-963
-1038
-1008
-823
-599
-507
-597
-725
-723
-595
-492
-541
-686
-764
-694
-581
-568
-645
-667
-536
-338
-253
-345
-484
-498
-363
-214
-188
-265
-326
-285
-162
-50
-9
-38
-94
-149
-195
-225
-224
-202
-197
-232
-286
-303
-254
-165
-104
-128
-230
-325
-348
-297
-232
-215
-256
-311
-335
-326
-315
-332
-391
-464
-515
-516
-480
-455
-470
-489
-447
-343
-267
-292
-365
-359
-226
-83
-72
-189
-294
-280
-197
-173
-234
-282
-228
-114
-53
-76
-103
-68
-5
17
-10
-42
-63
-104
-180
-225
-157
8
140
133
31
-24
53
199
284
249
156
106
143
224
272
248
178
123
119
138
129
92
75
106
134
79
-61
-201
-276
-330
-453
-640
-800
-873
-902
-924
-858
-562
-36
519
899
1105
1307
1600
1872
1935
1727
1352
960
643
428
309
245
160
-3
-237
-490
-703
-816
-759
-508
-158
131
293
440
740
1191
1592
1742
1638
1460
1370
1396
1491
1630
1813
2014
2158
2199
2169
2147
2168
2183
2111
1933
1714
1563
1546
1637
1746
1799
1786
1735
1676
1629
1622
1681
1785
1869
1885
1848
1807
1776
1724
1637
1554
1532
1574
1638
1678
1679
1647
1588
1521
1476
1449
1382
1232
1065
1025
1179
1426
1615
1720
1846
2052
2243
2285
2193
2116
2134
2143
2017
1817
1754
1939
2245
2467
2554
2600
2693
2796
2820
2736
2584
2415
2285
2255
2337
2461
2527
2524
2542
2611
2575
2226
1559
829
337
181
267
