4919
4893
4852
4835
4815
4780
4780
4857
4974
5051
5033
4941
4850
4822
4876
4972
5037
5032
4997
5007
5090
5179
5174
5061
4923
4841
4800
4731
4616
4530
4560
4692
4816
4845
4804
4798
4883
5016
5126
5195
5268
5372
5489
5597
5718
5870
6001
6011
5879
5722
5667
5690
5639
5419
5128
4939
4905
4925
4909
4893
4960
5088
5177
5231
5394
5752
6142
6287
6119
5877
5855
6079
6318
6376
6285
6203
6212
6283
6383
6514
6610
6511
6138
5639
5290
5215
5261
5196
4987
4813
4859
5122
5439
5663
5770
5838
5930
6024
6064
6038
5995
5978
5956
5872
5761
5783
6078
6578
7031
7244
7235
7143
7011
6750
6293
5725
5184
4716
4283
3905
3707
3778
4028
4251
4329
4314
4320
4367
4377
4293
4149
4014
3928
3898
3927
4010
4121
4216
4267
4270
4237
4193
4172
4217
4361
4595
4865
5102
5262
5338
5347
5300
5174
4940
4613
4287
4073
4009
4013
3973
3871
3808
3886
4085
4262
4282
4135
3922
3766
3722
3761
3820
3857
3871
3899
3983
4121
4272
4372
4381
4326
4275
4291
4384
4519
4682
4910
5240
5621
5896
5917
5672
5289
4895
4507
4065
3570
3156
2996
3156
3538
3966
4315
4556
4715
4788
4740
4546
4227
3850
3506
3275
3207
3305
3512
3744
3950
4146
4378
4627
4793
4787
4653
4550
4593
4735
4834
4814
4726
4650
4596
4527
4465
4495
4640
4792
4808
4668
4490
4372
4276
4089
3791
3497
3331
3318
3407
3555
3747
3963
4160
4304
4388
4419
4407
4389
4409
4444
4408
4271
4169
4321
4809
5456
5965
6166
6113
5956
5784
5567
5228
4734
4160
3675
3445
3498
3684
3809
3812
3783
3801
3822
3748
3576
3407
3330
3333
3366
3439
3618
3921
4264
4531
4671
4734
4799
4918
5075
5209
5264
5264
5298
5433
5611
5710
5686
5666
5858
6358
7054
7709
8099
8099
7691
6954
6040
5100
4175
3193
2135
1186
660
723
1213
1778
2182
2449
2725
3063
3376
3573
3664
3738
3854
4006
4170
4341
4536
4770
5035
5270
5361
5231
4947
4703
4639
4705
4727
4652
4657
4942
5440
5823
5842
5608
5467
5590
5763
5634
5110
4441
3941
3709
3630
3582
3555
3579
3641
3715
3813
3983
4223
4451
4582
4609
4607
4661
4792
4936
5003
4963
4884
4875
4976
5143
5347
5637
6061
6523
6787
6668
6227
5713
5320
5026
4706
4335
4058
4041
4295
4687
5068
5367
5569
5649
5584
5403
5176
4953
4749
4585
4528
4650
4941
5302
5627
5878
6072
6187
6162
5976
5700
5471
5398
5511
5748
5989
6135
6187
6262
6465
6737
6853
6631
6129
5596
5209
4922
4577
4136
3737
3537
3547
3650
3745
3817
3897
3980
4016
3973
3876
3778
3734
3746
3776
3794
3803
3839
3918
4001
4035
4032
4072
4206
4366
4430
4382
4346
4431
4596
4695
4659
4560
4485
4397
4208
3938
3737
3700
3728
3640
3406
3203
3211
3407
3595
3616
3494
3367
3317
3336
3369
3380
3372
3363
3384
3477
3659
3873
4020
4043
3997
4006
4149
4376
4564
4644
4662
4700
4755
4718
4498
4142
3792
3557
3430
3354
3314
3346
3462
3604
3697
3709
3666
3590
3478
3342
3235
3218
3297
3418
3550
3738
4029
4366
4591
4591
4438
4338
4419
4595
4676
4610
4547
4648
4863
4949
4741
4346
4033
3951
3993
3961
3796
3625
3584
3670
3769
3795
3759
3718
3700
3700
3716
3755
3814
3875
3939
4031
4166
4327
4467
4562
4619
4665
4722
4803
4911
5030
5118
5146
5143
5171
5240
5261
5110
4759
4320
3955
3732
3586
3426
3258
3170
3234
3436
3714
4025
4324
4534
4606
4593
4594
4628
4596
4439
4283
4346
4658
5001
5164
5213
5376
5700
5921
5763
5277
4786
4515
4363
4102
3689
3316
3175
3263
3431
3572
3697
3874
4122
4394
4624
4758
4759
4616
4374
4146
4057
4147
4330
4474
4549
4655
4878
5145
5272
5161
4888
4607
4389
4228
4154
4267
4622
5146
5701
6210
6670
7056
7279
7252
6946
6376
5570
4609
3655
2881
2335
1922
1554
1268
1166
1277
1533
1864
2273
2772
3306
3804
4266
4726
5141
5396
5432
5347
5278
5222
5049
4701
4319
4107
4107
4175
4178
4148
4195
4328
4417
4347
4144
3925
3761
3648
3568
3528
3550
3641
3802
4033
4279
4427
4411
4320
4356
4607
4929
5102
5101
5103
5235
5383
5339
5095
4872
4828
4850
4736
4506
4409
4594
4880
4961
4760
4483
4325
4245
4087
3822
3599
3542
3625
3767
3947
4179
4423
4586
4643
4662
4710
4776
4841
4985
5334
5869
6351
6510
6315
5999
5824
5810
5761
5525
5171
4906
4857
4966
5103
5222
5366
5550
5701
5716
5582
5381
5211
5096
4998
4887
4773
4698
4692
4766
4913
5102
5266
5338
5305
5241
5250
5373
5547
5672
5685
5610
5529
5506
5516
5451
5211
4825
4449
4222
4115
3976
3733
3518
3533
3793
4076
4138
3953
3692
3504
3379
3236
3074
2972
2982
3080
3220
3390
3585
3767
3891
3961
4025
4111
4192
4248
4326
4495
4723
4862
4788
4559
4395
4448
4622
4666
4452
4113
3874
3788
3702
3488
3226
3105
3183
3318
3358
3328
3370
3530
3689
3701
3558
3382
3277
3246
3258
3335
3535
3856
4210
4489
4652
4734
4778
4776
4672
4429
4087
3762
3580
3602
3778
3984
4098
4058
3891
3688
3546
3497
3482
3428
3319
3237
3273
3424
3599
3719
3803
3930
4124
4311
4401
4391
4351
4336
4339
4352
4417
4579
4771
4834
4659
4315
3995
3821
3734
3579
3296
2999
2858
2938
3152
3358
3484
3552
3609
3674
3740
3803
3863
3895
3855
3748
3650
3678
3894
4227
4522
4659
4645
4585
4585
4670
4783
4849
4815
4678
4485
4303
4164
4034
3846
3585
3334
3199
3209
3289
3350
3364
3368
3397
3444
3497
3556
3622
3676
3695
3696
3747
3902
4147
4412
4637
4809
4931
4966
4855
4608
4340
4202
4259
4431
4590
4681
4742
4809
4845
4777
4584
4322
4060
3837
3686
3658
3790
4045
4312
4495
4579
4613
4637
4638
4578
4437
4237
4028
3862
3770
3743
3745
3739
3718
3698
3701
3740
3821
3950
4123
4309
4467
4567
4598
4564
4487
4393
4311
4262
4253
4286
4362
4477
4612
4728
4778
4747
4696
4735
4937
5254
5552
5748
5896
6113
6411
6657
6711
6555
6250
5815
5213
4478
3756
3173
2689
2174
1622
1205
1082
1228
1505
1854
2328
2947
3604
4188
4704
5199
5592
5697
5449
5026
4677
4464
4251
3935
3610
3462
3566
3838
4138
4371
4481
4436
4262
4057
3903
3787
3647
3504
3489
3713
4123
4535
4798
4903
4917
4856
4661
4325
3968
3783
3876
4190
4560
4856
5062
5228
5366
5406
5261
4917
4462
4012
3635
3344
3158
3144
3357
3751
4178
4495
4661
4738
4781
4776
4672
4476
4262
4115
4071
4121
4241
4400
4546
4642
4712
4823
5012
5237
5442
5623
5816
6004
6116
6127
6110
6138
6159
6038
5725
5320
4950
4642
4372
4195
4241
4536
4915
5181
5317
5458
5657
5776
5650
5321
4990
4781
4624
4433
4286
4351
4643
4968
5131
5126
5099
5129
5149
5041
4771
4394
3998
3689
3597
3792
4175
4515
4652
4636
4640
4725
4764
4601
4246
3885
3680
3622
3591
3522
3480
3553
3725
3867
3855
3701
3519
3389
3285
3138
2957
2846
2892
3060
3235
3350
3416
3461
3467
3416
3342
3310
3351
3453
3625
3901
4270
4620
4822
4865
4866
4918
4953
4822
4475
4047
3737
3623
3632
3657
3656
3641
3602
3515
3395
3307
3287
3294
3249
3146
3084
3171
3394
3628
3766
3814
3834
3837
3783
3696
3718
3966
4371
4710
4854
4904
5040
5262
5358
5144
4666
4149
3763
3524
3385
3342
3409
3532
3631
3695
3801
3990
4168
4173
3951
3621
3366
3255
3199
3088
2926
2835
2916
3143
3389
3563
3678
3789
3900
3953
3905
3800
3740
3811
4038
4368
4686
4870
4879
4781
4666
4552
4374
4102
3820
3640
3571
3523
3453
3449
3617
3902
4096
4049
3809
3558
3404
3320
3227
3104
3001
2977
3051
3195
3342
3437
3507
3669
3986
4346
4557
4567
4551
4690
4893
4866
4459
3891
3520
3467
3560
3623
3682
3831
3996
3996
3819
3690
3776
3929
3852
3506
3200
3244
3594
3942
4091
4133
4251
4459
4596
4555
4399
4259
4171
4065
3884
3683
3591
3694
3947
4192
4275
4179
4039
4004
4090
4153
4051
3785
3488
3274
3151
3073
3026
3047
3149
3289
3420
3561
3772
4047
4285
4366
4291
4211
4295
4552
4827
4968
4983
4991
5060
5139
5160
5147
5171
5227
5209
5023
4689
4311
3986
3757
3626
3570
3544
3517
3520
3617
3810
3985
4002
3833
3582
3371
3229
3129
3077
3120
3268
3465
3651
3823
4018
4234
4400
4439
4337
4164
4021
3996
4129
4407
4771
5151
5490
5748
5920
6033
6136
6264
6410
6546
6668
6806
6965
7062
6941
6488
5723
4803
3888
3038
2213
1377
602
55
-129
61
514
1079
1661
2227
2767
3262
3679
3994
4208
4358
4501
4697
4973
5304
5625
5857
5920
5754
5367
4863
4390
4035
3758
3474
3178
2977
2977
3166
3417
3606
3694
3704
3667
3599
3526
3483
3474
3470
3466
3503
3643
3881
4128
4289
4352
4391
4472
4580
4659
4680
4672
4671
4688
4739
4867
5098
5373
5565
5565
5376
5098
4829
4600
4385
4140
3853
3568
3375
3362
3529
3770
3947
3995
3963
3938
3961
4024
4115
4230
4352
4453
4540
4653
4812
4984
5108
5156
5136
5058
4940
4856
4911
5138
5439
5673
5796
5871
5924
5885
5697
5445
5301
5321
5365
5265
5030
4827
4773
4811
4820
4789
4814
4947
5117
5224
5269
5323
5387
5371
5211
4958
4710
4501
4299
4093
3915
3782
3687
3669
3835
4224
4692
5006
5078
5059
5110
5173
5051
4706
4349
4184
4154
4031
3730
3412
3250
3188
3026
2690
2333
2147
2169
2285
2403
2538
2742
3012
3280
3487
3625
3719
3776
3771
3696
3602
3588
3711
3938
4168
4315
4361
4319
4213
4095
4052
4135
4285
4364
4297
4139
4000
3901
3758
3493
3129
2770
2517
2429
2522
2768
3081
3349
3513
3604
3688
3787
3863
3877
3824
3731
3643
3598
3617
3706
3864
4076
4276
4356
4247
4025
3888
3991
4288
4583
4708
4644
4476
4285
4122
4024
3993
3948
3780
3484
3202
3080
3099
3099
2964
2745
2585
2560
2645
2789
2975
3184
3370
3489
3559
3634
3734
3830
3898
3949
3983
3975
3912
3845
3859
3980
4135
4215
4169
4032
3868
3719
3599
3535
3553
3656
3808
3967
4109
4233
4332
4385
4360
4232
3994
3681
3363
3121
2987
2933
2919
2961
3123
3438
3846
4220
4467
4571
4564
4473
4302
4080
3884
3797
3866
4070
4352
4644
4882
4995
4925
4672
4317
3980
3728
3539
3342
3125
2960
2943
3078
3259
3359
3335
3239
3140
3066
3018
3003
3054
3183
3358
3527
3659
3774
3893
3996
4022
3929
3769
3662
3680
3772
3836
3875
4017
4342
4725
4939
4924
4884
5049
5369
5536
5335
4879
4449
4158
3889
3538
3214
3101
3217
3417
3632
3976
4547
5189
5579
5555
5260
4933
4648
4310
3866
3428
3153
3091
3185
3380
3676
4059
4432
4635
4556
4231
3860
3703
3886
4292
4648
4768
4711
4665
4699
4676
4420
3918
3333
2844
2535
2424
2535
2872
3375
3912
4373
4731
5027
5284
5478
5575
5576
5546
5574
5732
6039
6453
6885
7230
7398
7340
7041
6513
5803
5002
4218
3495
2789
2044
1341
887
842
1131
1498
1752
1937
2214
2630
3047
3320
3436
3489
3544
3610
3705
3875
4109
4302
4354
4295
4259
4339
4509
4696
4889
5095
5239
5179
4855
4391
4007
3822
3778
3747
3680
3629
3648
3740
3870
3990
4040
3962
3762
3551
3479
3614
3898
4245
4621
5002
5311
5451
5412
5295
5186
5038
4735
4275
3827
3599
3642
3825
3996
4114
4232
4366
4449
4425
4328
4257
4256
4249
4151
3995
3934
4087
4395
4668
4760
4697
4614
4604
4641
4641
4575
4501
4524
4724
5087
5503
5831
5985
5973
5839
5602
5259
4840
4424
4083
3847
3728
3775
4056
4556
5131
5594
5855
5942
5917
5795
5575
5289
4986
4687
4398
4180
4179
4503
5057
5558
5759
5638
5345
5008
4635
4204
3776
3440
3195
2985
2834
2887
3235
3739
4109
4179
4046
3927
3911
3902
3780
3550
3318
3180
3144
3181
3246
3294
3289
3238
3199
3233
3344
3472
3558
3611
3675
3762
3827
3825
3772
3733
3769
3884
4028
4151
4227
4258
4247
4189
4075
3909
3720
3558
3459
3419
3402
3375
3338
3306
3283
3267
3256
3270
3332
3434
3530
3586
3611
3638
3693
3767
3837
3886
3904
3890
3868
3885
3978
4149
4365
4592
4813
4997
5092
5070
4966
4859
4792
4729
4606
4419
4224
4074
3966
3863
3756
3668
3607
3542
3444
3326
3242
3234
3275
3302
3265
3174
3084
3042
3065
3138
3229
3303
3340
3366
3448
3632
3884
4097
4214
4290
4406
4537
4556
4410
4236
4238
4426
4568
4449
4130
3890
3900
4041
4063
3870
3579
3346
3186
3026
2856
2752
2778
2909
3095
3350
3724
4171
4517
4582
4360
4020
3734
3513
3259
2956
2768
2902
3393
4030
4537
4804
4922
5003
5029
4888
4538
4094
3740
3579
3593
3710
3883
4086
4265
4338
4257
4044
3764
3476
3204
2977
2845
2846
2965
3136
3305
3473
3665
3870
4035
4103
4060
3938
3802
3732
3799
4010
4285
4526
4713
4887
5046
5083
4876
4444
3946
3527
3188
2850
2516
2318
2382
2669
3021
3318
3555
3775
3956
4028
3976
3875
3827
3867
3958
4048
4119
4185
4256
4314
4330
4288
4221
4198
4279
4460
4688
4920
5149
5373
5541
5571
5439
5236
5111
5139
5266
5381
5444
5503
5600
5663
5531
5121
4527
3934
3445
2991
2473
1945
1618
1637
1916
2226
2441
2635
2924
3288
3595
3800
3994
4257
4536
4718
4790
4841
4900
4863
4632
4285
4039
4020
4128
4161
4036
3855
3757
3761
3771
3704
3564
3407
3290
3256
3341
3542
3797
4025
4187
4295
4360
4367
4324
4302
4376
4539
4700
4798
4876
4998
5137
5191
5102
4902
4632
4281
3886
3618
3685
4099
4599
4883
4892
4801
4759
4719
4552
4255
3972
3826
3816
3896
4077
4388
4757
5020
5055
4890
4653
4432
4233
4039
3888
3848
3955
4170
4416
4639
4841
5027
5155
5154
5023
4860
4781
4796
4831
4884
5098
5597
6261
6760
6845
6587
6260
6018
5751
5292
4673
4112
3785
3679
3690
3782
3992
4313
4636
4837
4886
4841
4763
4662
4520
4343
4162
4012
3920
3902
3949
4020
4055
4008
3884
3739
3644
3636
3689
3748
3775
3765
3729
3662
3557
3423
3297
3211
3180
3194
3236
3288
3331
3345
3334
3321
3332
3361
3379
3361
3317
3280
3275
3303
3338
3359
3363
3378
3433
3517
3579
3584
3578
3660
3888
4212
4512
4699
4762
4740
4672
4573
4447
4300
4151
4036
3984
3992
4010
3987
3914
3813
3687
3517
3314
3141
3048
3022
3026
3078
3244
3535
3848
4061
4153
4204
4279
4351
4346
4236
4065
3900
3789
3758
3804
3889
3943
3912
3794
3646
3550
3568
3703
3879
3966
3884
3673
3447
3292
3197
3098
2961
2822
2749
2793
2957
3201
3466
3700
3885
4012
4068
4059
4031
4055
4135
4190
4120
3925
3716
3612
3630
3694
3718
3685
3631
3597
3607
3666
3765
3878
3968
3999
3957
3861
3761
3696
3683
3720
3816
3978
4177
4326
4332
4176
3926
3667
3438
3229
3022
2845
2753
2800
2987
3233
3425
3505
3529
3604
3754
3874
3856
3743
3694
3786
3909
3900
3760
3673
3803
4117
4450
4677
4793
4838
4798
4636
4367
4070
3803
3555
3282
2996
2783
2742
2900
3198
3545
3856
4072
4143
4065
3912
3826
3905
4089
4197
4113
3927
3839
3933
4059
4004
3747
3506
3509
3754
4041
4195
4228
4263
4346
4381
4265
4022
3793
3678
3647
3619
3590
3622
3722
3794
3764
3709
3791
4043
4290
4349
4259
4233
4378
4547
4508
4229
3905
3697
3544
3285
2915
2626
2583
2745
2941
3073
3183
3329
3504
3703
4005
4505
5143
5678
5883
5744
5437
5120
4784
4310
3650
2927
2358
2104
2190
2536
3037
3600
4145
4596
4913
5137
5383
5760
6271
6801
7210
7442
7535
7506
7261
6665
5698
4520
3348
2295
1359
561
43
-32
328
897
1416
1807
2182
2636
3119
3513
3817
4176
4707
5340
5877
6180
6250
6146
5873
5396
4729
3973
3271
2744
2461
2439
2652
3052
3588
4190
4736
5079
5152
5037
4887
4760
4558
4164
3633
3188
3018
3118
3336
3535
3699
3869
4065
4266
4449
4606
4735
4822
4851
4816
4739
4666
4648
4708
4821
4946
5071
5196
5272
5218
5007
4720
4461
4234
3972
3674
3467
3470
3644
3829
3946
4069
4301
4604
4838
4924
4923
4940
4991
5019
4978
4892
4825
4815
4858
4886
4823
4665
4542
4629
4960
5361
5601
5610
5525
5496
5509
5425
5173
4840
4581
4458
4415
4391
4402
4502
4687
4868
4956
4949
4923
4929
4961
5011
5112
5290
5501
5649
5675
5610
5504
5335
5030
4577
4083
3698
3492
3416
3379
3348
3360
3449
3572
3623
3522
3330
3210
3271
3439
3532
3446
3271
3178
3214
3253
3166
2978
2837
2839
2934
3019
3071
3151
3295
3444
3508
3461
3340
3178
2983
2793
2709
2820
3083
3334
3450
3476
3554
3718
3833
3749
3493
3258
3199
3311
3494
3682
3873
4044
4120
4048
3864
3652
3455
3263
3077
2953
2964
3136
3427
3764
4065
4261
4330
4312
4265
4197
4049
3779
3450
3201
3125
3191
3294
3359
3386
3407
3438
3491
3590
3744
3916
4034
4046
3971
3868
3785
3720
3635
3509
3372
3285
3289
3384
3547
3773
4062
4365
4574
4610
4503
4373
4307
4266
4133
3859
3520
3245
3116
3136
3270
3487
3747
3995
4181
4292
4337
4317
4212
4003
3708
3394
3145
3030
3072
3241
3474
3706
3899
4046
4154
4216
4197
4061
3828
3593
3449
3408
3407
3406
3450
3597
3805
3946
3950
3901
3939
4088
4221
4207
4057
3882
3751
3641
3514
3384
3289
3225
3166
3133
3203
3426
3748
4054
4273
4414
4507
4545
4499
4361
4145
3859
3520
3194
2975
2909
2947
3021
3140
3379
3757
4177
4502
4674
4720
4669
4522
4289
4027
3790
3572
3338
3109
2963
2949
3030
3140
3258
3407
3578
3721
3818
3910
4021
4106
4089
3978
3858
3786
3730
3640
3545
3516
3561
3610
3622
3656
3789
3995
4149
4167
4083
3983
3888
3758
3580
3414
3327
3318
3345
3389
3460
3546
3616
3691
3868
4207
4614
4948
4893
4691
4422
4159
3879
3565
3266
3045
2913
2869
2970
3292
3810
4363
4756
4913
4883
4735
4485
4128
3712
3330
3051
2889
2845
2965
3307
3845
4412
4781
4831
4648
4432
4312
4244
4097
3830
3553
3412
3441
3554
3671
3803
4003
4251
4461
4577
4651
4780
5000
5258
5507
5768
6078
6396
6622
6685
6606
6413
6059
5457
4615
3689
2866
2209
1660
1191
892
879
1139
1514
1864
2179
2519
2885
3195
3403
3559
3723
3868
3934
3972
4145
4547
5035
5322
5253
4948
4657
4488
4342
4088
3734
3411
3225
3183
3249
3402
3614
3825
3968
4033
4062
4096
4132
4143
4115
4058
3991
3938
3930
3987
4091
4196
4267
4308
4342
4385
4441
4507
4565
4593
4578
4526
4452
4362
4267
4190
4159
4181
4226
4267
4316
4403
4528
4650
4727
4755
4759
4749
4707
4619
4480
4298
4091
3906
3816
3864
4016
4190
4337
4471
4627
4794
4914
4930
4838
4704
4600
4563
4591
4664
4769
4893
5016
5128
5251
5415
5613
5781
5862
5877
5898
5953
5971
5865
5634
5362
5108
4856
4582
4344
4251
4341
4545
4770
4968
5111
5147
5023
4775
4502
4269
4040
3774
3538
3472
3637
3929
4166
4247
4195
4082
3935
3738
3474
3158
2850
2640
2607
2761
3020
3268
3442
3559
3657
3734
3751
3687
3566
3437
3321
3208
3096
3014
3004
3073
3170
3228
3233
3237
3301
3415
3503
3499
3422
3345
3306
3281
3253
3272
3409
3646
3878
4029
4137
4292
4497
4632
4558
4261
3858
3487
3213
3027
2892
2795
2747
2786
2955
3255
3599
3853
3933
3887
3835
3838
3833
3713
3489
3310
3313
3487
3702
3880
4079
4372
4691
4852
4754
4501
4275
4122
3934
3625
3282
3081
3092
3219
3343
3459
3624
3826
3965
3976
3913
3879
3890
3877
3793
3683
3625
3646
3714
3801
3919
4071
4225
4331
4366
4344
4290
4210
4100
3947
3747
3521
3330
3240
3276
3397
3530
3634
3706
3758
3798
3832
3855
3854
3816
3765
3753
3814
3917
3997
4021
4010
3982
3919
3800
3643
3487
3353
3249
3221
3345
3629
3946
4140
4179
4170
4207
4242
4158
3939
3731
3676
3756
3825
3795
3756
3849
4081
4287
4302
4118
3877
3709
3624
3542
3400
3213
3057
3009
3103
3306
3523
3672
3734
3755
3786
3828
3853
3843
3809
3768
3738
3760
3874
4054
4202
4225
4129
4002
3902
3797
3630
3425
3274
3241
3310
3451
3682
4014
4355
4539
4473
4228
3966
3778
3629
3453
3260
3116
3067
3115
3263
3534
3903
4246
4407
4341
4164
4037
4001
3953
3800
3590
3485
3598
3891
4218
4456
4584
4633
4614
4510
4321
4087
3851
3621
3397
3214
3133
3194
3375
3610
3841
4029
4151
4217
4265
4331
4408
4462
4470
4446
4403
4344
4297
4329
4469
4619
4613
4404
4139
4005
4004
3961
3768
3526
3413
3453
3512
3514
3544
3700
3917
4031
4011
4012
4193
4527
4849
5057
5191
5337
5526
5733
5933
6105
6228
6294
6313
6284
6149
5852
5413
4917
4398
3791
3029
2199
1513
1116
982
1005
1159
1494
2011
2590
3093
3499
3880
4272
4608
4796
4826
4761
4664
4543
4359
4083
3739
3405
3174
3101
3165
3302
3488
3759
4120
4475
4662
4610
4419
4247
4144
4029
3833
3613
3508
3599
3837
4107
4323
4452
4502
4517
4557
4627
4643
4521
4300
4135
4131
4209
4188
4004
3786
3700
3770
3900
4028
4209
4497
4822
5045
5112
5093
5062
4995
4808
4494
4144
3864
3700
3658
3755
3988
4291
4547
4695
4775
4859
4948
4969
4886
4760
4681
4674
4696
4727
4804
4954
5122
5217
5207
5151
5109
5079
5028
4969
4950
4981
5012
5022
5077
5252
5504
5681
5679
5550
5427
5345
5211
4947
4626
4401
4331
4339
4328
4289
4274
4295
4298
4244
4157
4071
3984
3890
3836
3886
4022
4134
4139
4081
4079
4164
4236
4187
4028
3859
3735
3612
3435
3243
3142
3183
3297
3368
3340
3246
3164
3148
3197
3261
3278
3246
3251
3397
3684
3985
4144
4131
4049
3997
3953
3815
3547
3240
3023
2942
2947
2988
3063
3183
3319
3424
3495
3563
3640
3688
3673
3623
3610
3676
3790
3888
3938
3946
3932
3912
3909
3937
3980
3988
3930
3841
3785
3773
3748
3652
3520
3462
3555
3752
3915
3940
3861
3821
3929
4145
4304
4270
4072
3874
3803
3814
3756
3544
3259
3059
3006
3024
3019
2994
3028
3158
3320
3439
3528
3679
3927
4181
4301
4244
4103
3986
3904
3794
3639
3538
3605
3831
4078
4211
4226
4222
4259
4281
4181
3919
3568
3242
3014
2900
2891
2972
3113
3258
3357
3406
3438
3472
3481
3438
3358
3305
3313
3356
3410
3521
3766
4124
4442
4588
4621
4739
5032
5328
5357
5036
4548
4116
3772
3395
2938
2537
2359
2419
2584
2739
2888
3076
3281
3426
3474
3469
3473
3502
3534
3562
3605
3671
3741
3786
3806
3821
3841
3854
3847
3833
3856
3963
4174
4452
4721
4897
4934
4838
4641
4383
4102
3842
3634
3478
3358
3286
3315
3474
3706
3877
3890
3767
3618
3517
3444
3343
3211
3122
3141
3268
3446
3624
3783
3922
4024
4068
4050
3998
3946
3924
3944
4005
4088
4164
4201
4191
4150
4106
4076
4055
4027
3983
3933
3898
3887
3891
3892
3882
3868
3862
3872
3895
3928
3965
3998
4016
4014
4000
3990
4000
4024
4045
4041
4016
3987
3979
3998
4035
4068
4086
4092
4094
4102
4127
4187
4294
4441
4615
4804
5004
5204
5392
5571
5771
6017
6274
6463
6527
6475
6332
6062
5589
4913
4162
3483
2900
2326
1724
1225
1013
1130
1433
1758
2078
2457
2918
3386
3773
4068
4303
4480
4564
4546
4476
4414
4372
4318
4232
4132
4054
4021
4035
4087
4161
4236
4287
4302
4291
4275
4275
4296
4323
4336
4333
4331
4348
4380
4394
4362
4295
4230
4199
4202
4219
4240
4266
4297
4325
4335
4333
4350
4401
4450
4435
4343
4235
4180
4155
4068
3885
3704
3658
3751
3849
3841
3780
3806
3967
4152
4231
4202
4165
4183
4228
4249
4249
4263
4297
4336
4383
4454
4539
4594
4598
4595
4647
4745
4816
4817
4800
4849
4979
5116
5177
5163
5145
5185
5266
5320
5318
5303
5345
5462
5595
5665
5650
5595
5548
5500
5398
5206
4943
4664
4419
4224
4082
3993
3955
3957
4005
4116
4296
4510
4697
4818
4881
4899
4845
4665
4360
4006
3687
3415
3148
2887
2716
2706
2819
2924
2924
2838
2753
2706
2658
2569
2455
2374
2364
2420
2523
2660
2817
2980
3141
3295
3410
3434
3353
3228
3158
3194
3291
3362
3374
3360
3366
3400
3436
3458
3472
3491
3519
3567
3650
3761
3871
3945
3989
4041
4125
4225
4309
4375
4455
4565
4679
4753
4775
4788
4836
4920
4988
4994
4941
4876
4842
4834
4813
4745
4641
4534
4445
4370
4292
4212
4145
4102
4078
4066
4075
4124
4205
4271
4276
4223
4164
4160
4217
4279
4279
4204
4111
4067
4084
4104
4060
3952
3860
3867
3968
4075
4102
4051
3998
3999
4027
4016
3934
3820
3732
3691
3669
3641
3613
3610
3644
3698
3744
3771
3783
3785
3774
3745
3706
3684
3702
3750
3793
3799
3775
3755
3769
3813
3863
3894
3900
3885
3862
3849
3861
3904
3957
3988
3986
3973
3980
4014
4049
4057
4037
4012
3995
3987
3978
3967
3956
3944
3924
3900
3878
3859
3836
3808
3789
3788
3795
3794
3782
3770
3759
3728
3673
3622
3614
3640
3649
3601
3527
3486
3497
3515
3493
3447
3427
3462
3511
3511
3455
3397
3394
3444
3490
3480
3418
3362
3357
3392
3411
3376
3308
3259
3260
3290
3313
3318
3325
3349
3378
3393
3398
3412
3443
3472
3476
3458
3446
3466
3512
3563
3600
3620
3627
3629
3633
3646
3676
3713
3736
3727
3691
3663
3674
3727
3786
3810
3793
3769
3778
3822
3871
3900
3911
3927
3958
3985
3989
3966
3930
3901
3896
3913
3934
3932
3897
3849
3809
3780
3753
3730
3731
3752
3755
3704
3615
3551
3543
3552
3513
3414
3315
3270
3271
3266
3231
3188
3174
3198
3231
3242
3222
3185
3156
3149
3158
3168
3167
3159
3154
3148
3131
3101
3076
3072
3099
3158
3246
3363
3503
3670
3868
4099
4341
4572
4789
5006
5218
5388
5480
5484
5392
5144
4664
3955
3148
2410
1806
1277
766
338
135
222
523
911
1315
1737
2172
2584
2936
3222
3445
3586
3627
3594
3547
3519
3489
3421
3315
3206
3114
3036
2982
2991
3077
3192
3259
3254
3231
3251
3310
3355
3360
3354
3376
3416
3433
3415
3391
3388
3391
3379
3359
3358
3381
3405
3414
3433
3490
3568
3606
3565
3469
3383
3340
3325
3308
3288
3292
3335
3400
3456
3492
3518
3548
3582
3600
3583
3534
3478
3439
3428
3436
3454
3477
3497
3507
3506
3503
3514
3541
3579
3615
3647
3686
3733
3779
3806
3809
3805
3818
3859
3902
3914
3888
3859
3871
3933
4019
4095
4155
4220
4304
4405
4507
4604
4693
4776
4854
4926
4993
5046
5075
5083
5086
5097
5119
5138
5133
5102
5057
5016
4990
4973
4949
4905
4849
4802
4781
4767
4725
4635
4528
4459
4450
4455
4415
4323
4239
4221
4251
4259
4210
4140
4107
4117
4126
4099
4057
4037
4041
4030
3979
3904
3845
3830
3854
3896
3937
3966
3987
4006
4028
4040
4030
3995
3953
3916
3883
3840
3789
3745
3719
3717
3738
3781
3833
3874
3884
3870
3856
3867
3898
3928
3948
3961
3971
3970
3949
3918
3905
3921
3940
3924
3866
3799
3767
3777
3808
3840
3874
3916
3956
3971
3961
3947
3939
3920
3873
3807
3755
3733
3724
3707
3683
3667
3669
3683
3706
3730
3735
3692
3597
3498
3460
3495
3543
3531
3458
3394
3403
3474
3543
3562
3543
3520
3508
3495
3472
3446
3426
3404
3367
3322
3292
3279
3274
3264
3245
3231
3235
3260
3308
3366
3416
3450
3479
3514
3560
3603
3625
3613
3566
3498
3442
3436
3480
3526
3517
3455
3398
3393
3416
3403
3335
3277
3306
3416
3527
3570
3556
3556
3617
3716
3790
3809
3797
3800
3836
3877
3892
3896
3937
4053
4212
4345
4402
4398
4394
4432
4487
4498
4428
4306
4199
4142
4113
4068
3999
3937
3921
3952
4001
4037
4047
4027
3996
3997
4066
4176
4238
4197
4096
4049
4117
4240
4308
4286
4234
4216
4230
4241
4246
4281
4358
4428
4434
4372
4305
4289
4328
4374
4374
4315
4234
4192
4225
4301
4359
4370
4362
4390
4469
4565
4632
4665
4684
4700
4708
4718
4757
4828
4905
4945
4943
4926
4936
4981
5041
5074
5048
4965
4868
4811
4818
4852
4867
4854
4844
4862
4889
4886
4846
4803
4798
4830
4858
4837
4758
4659
4592
4587
4616
4619
4566
4480
4407
4361
4308
4233
4160
4120
4095
4028
3904
3789
3767
3836
3901
3892
3856
3914
4131
4436
4706
4895
5069
5317
5649
6005
6320
6577
6783
6938
7022
6996
6797
6359
5683
4884
4119
3454
2832
2198
1631
1298
1265
1418
1590
1734
1930
2219
2519
2723
2845
2997
3228
3440
3498
3406
3309
3339
3480
3600
3599
3497
3401
3404
3513
3661
3771
3808
3789
3754
3722
3684
3621
3544
3483
3465
3489
3535
3575
3595
3590
3561
3516
3460
3399
3340
3297
3282
3299
3338
3388
3450
3523
3594
3641
3646
3624
3600
3585
3565
3519
3455
3395
3354
3325
3289
3249
3229
3252
3309
3358
3360
3312
3250
3217
3220
3230
3214
3167
3120
3100
3113
3143
3175
3216
3284
3385
3501
3598
3653
3668
3666
3679
3723
3792
3869
3940
4000
4051
4097
4142
4189
4237
4281
4311
4321
4311
4292
4285
4315
4388
4476
4539
4553
4532
4504
4486
4464
4425
4377
4326
4263
4175
4077
4004
3968
3933
3855
3739
3640
3587
3548
3475
3378
3315
3318
3345
3338
3285
3228
3186
3143
3085
3034
3016
3017
2993
2926
2858
2833
2849
2863
2844
2797
2756
2737
2743
2773
2815
2843
2845
2846
2888
2980
3065
3073
2999
2922
2926
3015
3110
3140
3115
3105
3149
3212
3234
3218
3221
3281
3354
3366
3306
3251
3275
3351
3385
3342
3289
3312
3396
3449
3429
3407
3475
3625
3748
3769
3730
3734
3818
3922
3978
3983
3978
3986
3988
3975
3969
4005
4074
4133
4151
4159
4217
4330
4423
4412
4302
4188
4160
4200
4207
4121
3993
3916
3919
3959
3981
3973
3943
3881
3777
3654
3563
3522
3506
3488
3475
3477
3480
3458
3420
3409
3435
3451
3409
3322
3254
3243
3256
3236
3182
3151
3180
3236
3244
3165
3047
2969
2971
3013
3030
2997
2950
2941
2972
3005
3010
2993
2983
2982
2971
2942
2916
2924
2961
2995
3006
3011
3042
3104
3162
3182
3167
3138
3114
3087
3052
3019
2994
2964
2915
2868
2863
2904
2945
2940
2898
2872
2886
2907
2899
2881
2891
2926
2944
2934
2947
3019
3104
3121
3058
3000
3024
3093
3104
3020
2917
2888
2934
2982
2985
2967
2967
2976
2948
2875
2799
2770
2781
2778
2731
2664
2624
2627
2659
2697
2740
2792
2834
2836
2799
2773
2796
2848
2875
2855
2819
2817
2852
2887
2901
2915
2963
3031
3072
3063
3041
3069
3168
3301
3423
3537
3682
3879
4085
4236
4331
4458
4714
5107
5525
5828
5981
6047
6078
6007
5704
5119
4350
3568
2866
2222
1612
1117
862
882
1082
1332
1587
1866
2167
2431
2620
2789
3012
3266
3446
3506
3536
3655
3840
3930
3815
3571
3383
3360
3441
3501
3501
3505
3589
3748
3920
4043
4090
4070
4001
3911
3835
3813
3848
3908
3952
3968
3992
4078
4239
4421
4548
4580
4535
4456
4368
4260
4117
3944
3780
3663
3598
3562
3534
3529
3585
3718
3897
4075
4228
4359
4473
4561
4611
4620
4572
4426
4160
3824
3545
3437
3506
3660
3818
3990
4253
4646
5093
5442
5591
5574
5509
5488
5492
5436
5307
5194
5183
5247
5260
5165
5052
5053
5143
5146
4927
4562
4271
4180
4212
4219
4179
4218
4435
4763
5044
5188
5259
5375
5544
5641
5546
5280
4996
4842
4835
4891
4922
4906
4879
4873
4886
4857
4705
4394
3973
3520
3031
2418
1673
1005
727
916
1274
1411
1301
1347
1921
2919
3840
4304
4410
4525
4843
5223
5424
5375
5189
4976
4765
4554
4372
4237
4102
3929
3761
3677
3667
3603
3367
3004
2675
2479
2329
2081
1733
1453
1389
1513
1678
1822
2020
2357
2788
3175
3447
3661
3914
4225
4513
4677
4677
4541
4350
4197
4117
4047
3892
3619
3323
3140
3102
3151
3223
3301
3358
3315
3126
2879
2734
2714
2621
2256
1682
1217
1113
1306
1529
1655
1824
2239
2911
3638
4206
4552
4729
4798
4796
4752
4687
4578
4372
4078
3799
3623
3550
3492
3403
3336
3349
3417
3457
3432
3385
3383
3413
3403
3308
3163
3040
2961
2908
2866
2845
2854
2870
2873
2879
2903
2893
2761
2490
2193
2039
2082
2224
2335
2396
2501
2731
3059
3388
3641
3798
3870
3882
3879
3910
3994
4086
4118
4070
3990
3936
3918
3910
3883
3846
3810
3774
3735
3708
3712
3748
3799
3844
3872
3867
3811
3715
3627
3592
3578
3502
3331
3141
3051
3093
3179
3216
3219
3291
3482
3710
3841
3819
3707
3600
3531
3479
3430
3417
3483
3619
3751
3809
3793
3769
3806
3892
3942
3892
3788
3760
3896
4155
4408
4573
4689
4859
5115
5379
5548
5586
5533
5418
5196
4790
4186
3463
2730
2055
1458
971
660
579
706
946
1212
1479
1774
2094
2388
2605
2749
2866
2989
3106
3201
3288
3400
3515
3564
3498
3363
3264
3253
3296
3324
3319
3331
3401
3499
3558
3538
3463
3392
3364
3375
3394
3407
3432
3491
3583
3670
3717
3730
3744
3789
3856
3906
3916
3906
3916
3969
4049
4115
4136
4127
4127
4164
4228
4281
4303
4310
4330
4374
4417
4437
4441
4456
4496
4548
4584
4598
4604
4623
4667
4729
4801
4872
4933
4981
5017
5043
5060
5071
5091
5141
5218
5282
5300
5280
5267
5300
5364
5419
5447
5467
5490
5494
5461
5414
5404
5441
5481
5472
5428
5405
5429
5464
5462
5434
5426
5459
5495
5479
5408
5330
5292
5279
5240
5145
5017
4904
4815
4724
4615
4514
4464
4463
4448
4355
4203
4085
4063
4089
4053
3903
3713
3611
3638
3702
3682
3559
3431
3396
3441
3464
3399
3279
3189
3167
3188
3208
3213
3201
3171
3116
3055
3018
3006
2988
2948
2912
2911
2934
2944
2926
2905
2903
2913
2917
2924
2952
2997
3021
2999
2956
2933
2940
2951
2944
2923
2906
2897
2885
2868
2859
2881
2943
3018
3049
2990
2865
2765
2772
2864
2936
2908
2795
2684
2652
2703
2783
2828
2804
2732
2679
2702
2782
2836
2804
2723
2681
2705
2736
2721
2689
2700
2751
2775
2736
2683
2684
2728
2736
2666
2571
2528
2555
2602
2626
2639
2670
2716
2744
2739
2724
2728
2760
2802
2838
2858
2862
2860
2879
2947
3052
3135
3137
3071
3028
3085
3225
3352
3398
3389
3399
3454
3516
3543
3535
3522
3516
3500
3466
3424
3386
3343
3281
3206
3142
3098
3068
3047
3042
3057
3075
3079
3077
3103
3167
3235
3263
3242
3205
3180
3172
3168
3178
3213
3248
3228
3135
3030
3006
3076
3159
3175
3135
3129
3206
3306
3342
3307
3286
3347
3463
3542
3541
3513
3556
3711
3928
4114
4211
4247
4318
4509
4814
5138
5372
5483
5510
5470
5301
4919
4321
3619
2945
2346
1809
1344
1032
963
1132
1436
1761
2067
2384
2733
3071
3332
3481
3544
3578
3629
3696
3751
3768
3740
3680
3607
3537
3481
3446
3442
3479
3552
3629
3676
3684
3678
3687
3705
3690
3609
3490
3414
3440
3543
3634
3650
3626
3651
3759
3882
3920
3846
3725
3645
3636
3665
3682
3672
3640
3606
3600
3644
3726
3795
3804
3760
3706
3674
3656
3636
3615
3614
3637
3663
3677
3689
3712
3729
3715
3683
3678
3730
3806
3852
3845
3825
3846
3920
4008
4060
4064
4053
4067
4117
4180
4229
4255
4265
4278
4303
4341
4375
4383
4363
4347
4377
4445
4500
4495
4439
4390
4387
4419
4447
4448
4414
4357
4292
4253
4256
4283
4290
4266
4245
4263
4313
4341
4310
4244
4199
4201
4214
4183
4095
3995
3930
3907
3899
3896
3924
4000
4072
4058
3951
3846
3848
3947
4015
3952
3803
3706
3733
3822
3865
3835
3794
3809
3873
3925
3910
3835
3758
3733
3777
3851
3887
3854
3790
3764
3816
3910
3975
3970
3912
3842
3784
3731
3673
3627
3618
3651
3697
3731
3751
3784
3838
3883
3883
3833
3776
3749
3752
3756
3744
3730
3733
3756
3780
3791
3792
3783
3758
3714
3661
3621
3607
3611
3613
3595
3559
3534
3547
3594
3637
3639
3617
3623
3680
3743
3747
3692
3648
3671
3726
3736
3689
3654
3684
3746
3770
3754
3766
3834
3886
3837
3705
3601
3595
3632
3617
3533
3460
3452
3473
3455
3401
3393
3478
3603
3667
3648
3630
3704
3852
3964
3948
3844
3754
3727
3715
3664
3588
3551
3562
3563
3520
3490
3555
3684
3760
3721
3654
3668
3739
3728
3580
3428
3454
3640
3776
3699
3478
3318
3320
3391
3385
3285
3185
3158
3186
3231
3303
3414
3493
3451
3298
3157
3125
3176
3190
3141
3131
3252
3458
3620
3727
3917
4295
4770
5123
5257
5320
5549
6012
6547
6933
7067
6968
6696
6296
5818
5319
4812
4272
3728
3298
3103
3142
3295
3448
3607
3815
4047
4218
4310
4413
4615
4863
5017
5022
4987
5053
5214
5328
5273
5066
4824
4649
4564
4552
4587
4644
4694
4722
4742
4776
4820
4849
4842
4803
4754
4706
4667
4652
4672
4715
4753
4759
4738
4722
4733
4760
4773
4760
4741
4736
4742
4725
4665
4583
4530
4536
4575
4602
4598
4584
4585
4595
4595
4588
4599
4646
4708
4753
4773
4786
4803
4810
4796
4781
4795
4841
4883
4891
4876
4883
4940
5044
5168
5280
5351
5356
5304
5236
5199
5201
5211
5201
5177
5159
5163
5197
5263
5348
5426
5471
5485
5487
5480
5450
5401
5371
5399
5464
5503
5471
5398
5347
5346
5371
5382
5359
5299
5214
5130
5075
5045
4992
4877
4727
4616
4582
4563
4475
4324
4210
4209
4267
4262
4150
4025
4002
4068
4090
3975
3785
3664
3674
3721
3676
3521
3363
3321
3397
3499
3547
3531
3492
3465
3453
3448
3448
3443
3415
3355
3286
3243
3242
3265
3283
3289
3293
3297
3282
3240
3190
3172
3201
3251
3280
3278
3272
3289
3335
3390
3431
3445
3437
3425
3428
3449
3470
3469
3447
3429
3436
3457
3470
3472
3475
3487
3492
3472
3436
3414
3423
3452
3470
3460
3425
3380
3341
3324
3328
3337
3328
3291
3241
3211
3225
3279
3350
3409
3445
3457
3457
3460
3477
3515
3570
3624
3661
3679
3689
3704
3715
3702
3663
3619
3602
3611
3621
3613
3606
3634
3703
3786
3845
3866
3855
3824
3785
3747
3717
3685
3640
3586
3552
3563
3602
3622
3598
3559
3555
3598
3653
3677
3665
3642
3631
3625
3619
3619
3638
3660
3658
3632
3615
3637
3685
3724
3743
3773
3841
3928
3988
4007
4017
4056
4117
4166
4193
4221
4269
4325
4362
4391
4458
4582
4732
4858
4955
5068
5234
5440
5644
5826
6010
6239
6526
6845
7155
7418
7596
7645
7519
7194
6690
6071
5417
4779
4171
3610
3161
2920
2927
3120
3381
3646
3945
4329
4770
5172
5467
5673
5850
6013
6134
6203
6255
6325
6391
6394
6317
6210
6143
6145
6196
6263
6330
6397
6458
6506
6536
6548
6550
6560
6592
6639
6673
6672
6643
6617
6622
6661
6709
6738
6746
6751
6776
6822
6870
6902
6910
6900
6874
6833
6783
6742
6721
6708
6680
6634
6596
6588
6604
6618
6616
6617
6644
6690
6729
6744
6746
6764
6810
6863
6890
6878
6853
6851
6882
6916
6925
6912
6908
6933
6965
6977
6970
6972
6991
6998
6970
6925
6914
6955
7006
7014
6977
6945
6956
6992
7008
6991
6968
6970
6982
6959
6881
6781
6721
6723
6755
6754
6690
6592
6523
6512
6527
6505
6407
6259
6118
6014
5925
5815
5679
5555
5478
5444
5414
5359
5278
5187
5095
5006
4926
4860
4802
4743
4686
4643
4614
4580
4523
4453
4399
4367
4335
4270
4178
4092
4037
4009
3997
3991
3985
3958
3893
3802
3726
3698
3704
3704
3665
3596
3531
3502
3514
3545
3555
3515
3434
3353
3306
3287
3263
3214
3159
3132
3136
3140
3118
3078
3055
3063
3082
3085
3068
3054
3051
3045
3022
2985
2960
2964
2985
2993
2969
2928
2896
2890
2894
2888
2870
2855
2850
2842
2816
2779
2764
2787
2830
2855
2852
2845
2855
2865
2847
2801
2762
2756
2768
2762
2727
2684
2660
2662
2679
2705
2742
2783
2811
2816
2813
2825
2853
2876
2871
2841
2812
2800
2795
2771
2727
2691
2691
2719
2732
2696
2627
2576
2579
2621
2657
2657
2631
2607
2596
2588
2572
2548
2523
2503
2488
2478
2476
2479
2481
2478
2474
2471
2472
2476
2476
2468
2455
2455
2481
2538
2611
2678
2724
2747
2755
2763
2791
2863
2979
3119
3250
3362
3472
3599
3747
3900
4061
4246
4467
4697
4880
4965
4923
4730
4367
3839
3200
2526
1862
1216
621
167
-37
31
272
562
855
1194
1609
2049
2415
2665
2844
3010
3166
3269
3298
3287
3284
3297
3294
3246
3168
3102
3083
3110
3166
3233
3304
3375
3433
3459
3437
3375
3310
3289
3326
3388
3426
3419
3386
3363
3368
3394
3433
3477
3514
3531
3528
3531
3562
3615
3654
3663
3659
3668
3685
3677
3630
3577
3552
3556
3560
3547
3533
3541
3575
3611
3633
3646
3666
3695
3715
3711
3686
3657
3644
3660
3702
3761
3822
3869
3892
3895
3895
3913
3953
3998
4026
4025
4009
4003
4026
4072
4118
4140
4139
4133
4141
4158
4171
4174
4176
4193
4226
4263
4289
4297
4290
4264
4221
4173
4137
4117
4095
4046
3964
3875
3811
3781
3765
3739
3688
3617
3535
3452
3376
3317
3273
3230
3177
3120
3077
3051
3025
2983
2932
2894
2875
2859
2831
2795
2770
2762
2758
2756
2767
2797
2827
2829
2798
2763
2757
2782
2814
2830
2827
2820
2821
2836
2862
2892
2910
2904
2878
2848
2830
2825
2817
2804
2795
2807
2845
2891
2928
2953
-32766
1646
1620
1609
1624
1648
1664
1668
1672
1681
1692
1704
1717
1730
1737
1739
1744
1762
1778
1771
1735
1700
1705
1753
1806
1827
1823
1829
1861
1893
1895
1871
1851
1844
1824
1774
1720
1708
1745
1783
1778
1745
1741
1799
1874
1898
1852
1787
1767
1800
1834
1818
1750
1672
1624
1610
1605
1587
1557
1533
1536
1572
1622
1654
1651
1630
1625
1645
1664
1637
1555
1451
1371
1327
1290
1227
1139
1054
1001
990
1013
1057
1107
1145
1164
1176
1203
1248
1284
1275
1219
1153
1120
1128
1146
1140
1104
1066
1059
1088
1129
1153
1151
1138
1133
1139
1149
1155
1161
1166
1163
1135
1084
1031
1006
1013
1028
1028
1020
1026
1058
1093
1106
1100
1103
1132
1168
1175
1149
1125
1137
1175
1205
1208
1202
1210
1225
1226
1222
1257
1363
1516
1668
1804
1944
2105
2285
2475
2692
2948
3217
3429
3534
3541
3476
3310
2968
2412
1721
1036
432
-118
-655
-1126
-1401
-1416
-1245
-1023
-802
-530
-146
317
752
1079
1308
1488
1646
1770
1842
1861
1835
1764
1651
1515
1401
1351
1372
1427
1472
1496
1524
1575
1628
1632
1568
1480
1420
1390
1342
1259
1190
1192
1256
1307
1291
1234
1209
1250
1323
1378
1393
1385
1380
1397
1443
1522
1632
1759
1875
1941
1922
1831
1723
1655
1638
1636
1611
1574
1569
1632
1756
1900
2012
2064
2063
2046
2036
2025
1986
1919
1865
1861
1896
1920
1917
1923
1977
2071
2151
2183
2194
2236
2321
2419
2518
2654
2875
3173
3468
3680
3785
3809
3762
3603
3297
2894
2526
2293
2181
2098
2001
1945
1996
2123
2214
2186
2058
1909
1788
1687
1600
1550
1564
1632
1711
1757
1754
1699
1605
1496
1405
1337
1268
1184
1125
1165
1314
1466
1475
1299
1063
938
967
1027
985
863
811
923
1111
1196
1101
923
803
759
705
605
539
596
746
863
872
829
839
910
967
958
915
895
900
898
885
887
903
889
823
754
757
846
965
1058
1110
1134
1117
1035
895
742
608
485
350
218
142
174
312
502
676
792
852
894
941
985
995
968
947
983
1075
1174
1235
1257
1273
1298
1320
1330
1352
1422
1542
1669
1746
1747
1681
1577
1458
1336
1211
1079
943
819
743
751
837
939
993
1005
1041
1149
1278
1334
1296
1252
1278
1335
1325
1250
1246
1424
1713
1932
1994
2001
2081
2215
2259
2126
1877
1612
1347
1042
711
447
313
278
266
259
306
439
613
752
831
887
956
1035
1087
1091
1074
1082
1133
1199
1226
1198
1153
1148
1187
1213
1179
1095
1026
1022
1069
1114
1137
1172
1266
1409
1517
1515
1408
1283
1226
1227
1201
1083
913
803
817
913
988
982
930
918
1001
1144
1268
1319
1318
1318
1352
1408
1466
1521
1561
1561
1501
1413
1372
1428
1550
1664
1735
1800
1912
2094
2345
2675
3078
3492
3813
3982
4014
3947
3746
3323
2656
1852
1080
429
-131
-641
-1052
-1264
-1233
-1038
-808
-621
-452
-230
88
466
817
1080
1261
1428
1633
1849
1993
2017
1962
1911
1890
1841
1707
1529
1419
1444
1543
1586
1508
1374
1320
1401
1541
1618
1597
1566
1615
1718
1748
1638
1491
1478
1625
1754
1686
1471
1364
1539
1890
2130
2093
1876
1698
1651
1642
1548
1375
1221
1150
1142
1161
1227
1380
1599
1798
1905
1931
1946
1987
2020
1998
1920
1839
1797
1790
1800
1835
1919
2045
2156
2199
2197
2234
2364
2538
2647
2634
2543
2453
2387
2301
2162
2005
1905
1907
1993
2104
2197
2258
2297
2320
2327
2310
2263
2175
2050
1926
1860
1904
2057
2256
2424
2536
2646
2808
2982
3037
2873
2541
2206
1980
1824
1627
1373
1167
1107
1148
1152
1053
922
850
813
700
465
198
18
-48
-62
-79
-75
4
161
339
484
584
649
692
731
788
863
913
877
747
599
527
572
684
783
819
796
746
690
627
545
433
280
95
-68
-124
-35
145
309
414
512
656
809
883
869
886
1043
1296
1503
1593
1632
1714
1829
1880
1811
1656
1484
1327
1201
1133
1135
1163
1133
1005
809
599
402
226
98
52
89
177
287
423
602
813
1009
1126
1131
1049
967
985
1130
1326
1471
1531
1546
1547
1512
1419
1327
1314
1394
1497
1563
1613
1705
1837
1943
1966
1892
1722
1453
1120
824
662
619
577
454
298
228
290
406
490
539
608
713
821
906
994
1128
1280
1363
1320
1187
1060
1011
1048
1143
1293
1508
1784
2075
2312
2431
2411
2273
2067
1847
1650
1490
1358
1243
1146
1081
1054
1059
1069
1049
985
894
815
780
798
863
974
1121
1262
1343
1346
1326
1382
1552
1771
1917
1929
1853
1784
1760
1741
1661
1500
1300
1123
1016
1001
1077
1222
1375
1459
1423
1280
1097
941
844
818
879
1038
1265
1493
1676
1837
2033
2261
2432
2461
2377
2324
2418
2646
2898
3070
3117
3004
2681
2139
1472
828
288
-196
-691
-1161
-1468
-1503
-1296
-976
-658
-377
-103
210
591
1030
1461
1783
1923
1902
1814
1717
1585
1361
1063
798
666
680
784
936
1136
1373
1580
1671
1615
1467
1305
1170
1045
917
809
781
881
1118
1456
1824
2122
2258
2200
2004
1763
1530
1282
985
671
427
327
367
496
675
885
1101
1284
1412
1495
1537
1507
1366
1137
917
786
740
706
646
599
630
740
864
939
967
997
1057
1132
1195
1238
1274
1309
1335
1350
1377
1448
1559
1668
1730
1741
1729
1714
1683
1620
1548
1510
1533
1597
1659
1696
1715
1732
1759
1793
1824
1840
1839
1827
1818
1813
1803
1781
1759
1755
1772
1785
1771
1732
1686
1646
1604
1546
1469
1386
1312
1248
1188
1122
1046
963
888
836
806
784
748
693
631
581
550
535
530
532
535
529
511
483
452
427
415
420
433
436
420
396
394
425
477
527
572
620
670
703
711
708
716
729
721
688
667
698
777
859
911
949
1010
1097
1176
1211
1203
1184
1182
1199
1223
1240
1255
1277
1310
1352
1390
1412
1417
1412
1409
1418
-21763
22266
-14344
16886
15093
16373
25846
13303
8696
3065
9466
-29188
5373
28414
-31233
29440
16384
-13312
-512
-3584
-9216
-12544
-20736
23551
-7425
31231
19967
24319
-28161
-12288
5632
26368
-19712
-7936
-9984
-23296
27136
21248
26880
-28160
-22528
-23296
-24576
-19456
-8447
1537
7681
12545
21249
-31999
-21503
-16127
-12799
-6910
1282
6658
6658
5122
7938
17410
28674
-29438
-27646
-28414
-26110
-18942
-9470
-1021
3587
6147
9731
16643
25347
32003
-30717
-29181
-26621
-22269
-18173
-14333
-8444
2052
15108
25860
32516
-27644
-19964
-10236
-3324
-1276
-1275
2309
10501
18949
24069
26629
31237
-25851
-16379
-9467
-4859
-762
4614
8710
8966
5638
3846
5894
9222
8966
1797
-8699
-17403
-22011
-24827
-29691
29189
22277
15877
7172
-6652
-24316
23812
7939
-9469
-32253
6146
-20734
21249
-2047
-27135
13056
-6400
-19456
-30976
18687
-1793
-20993
30975
19711
5374
-12802
-28930
26110
18942
10493
-515
-9987
-13571
-13059
-13315
-15107
-16131
-14339
-11267
-10499
-12291
-13571
-12291
-10755
-10755
-11523
-10243
-7683
-7939
-13571
-19459
-17667
-6914
3838
5117
-3843
-13059
-12547
-2050
10238
15870
14078
10238
9470
12798
17150
19710
19198
17662
17918
20222
23038
24062
24062
25598
30974
-26626
-20226
-18690
-24066
31486
22014
18430
21758
27134
27646
21758
13310
9726
12286
17150
19454
17150
12286
6397
-1027
-11267
-22531
-31491
28157
20989
6396
-14852
31228
20988
19196
15612
2811
-15621
-30213
29179
25339
17147
3066
-13318
-29702
17913
-1799
-19719
32249
18681
248
-22024
24056
11255
-9
-15625
31479
18935
14583
10998
-2314
-25610
17654
5878
1525
-5899
-23051
18932
-2060
-13324
-13836
-8716
-6156
-11788
-24332
29172
25076
29172
-30988
-30476
32756
-31244
-21260
-5899
7413
16373
24309
-29963
-15371
-1546
8182
16118
26102
-25866
-9737
8439
30455
-6664
25592
-11015
10233
27129
-18182
8698
-27910
-2565
19195
-24068
508
24828
-19972
-515
22013
-17666
6142
23806
-27906
-12033
7679
26879
-25089
-15105
-2560
16384
-29440
-14592
-5375
4097
17409
32001
-23039
-16639
-9983
-254
8962
12290
10242
11010
19202
31746
-24318
-20990
-19966
-15358
-5629
6915
19459
32003
-20989
-9981
-1276
5892
14340
24836
-30972
-25596
-24572
-25084
-23804
-19196
-13052
-8444
-7676
-9212
-9212
-4603
2565
6405
2820
-3068
-3579
4869
17157
2051
-5885
-12797
-21245
31491
17411
6915
3587
3330
-254
-7678
-14590
-15870
-12286
-8446
-8446
-10750
-12542
-12798
-14334
-18686
-24062
-27134
-26366
-23550
-22270
-23294
-21502
-8445
19203
-9980
27140
-3067
-30714
12550
-7929
-31992
9736
-3575
-1525
4875
-4596
21260
10763
24585
-9977
-26108
-5886
9215
29436
-15110
7671
-11274
27126
4342
31991
12791
-775
762
27132
3325
-27138
-12033
-12288
-17407
-26366
17154
-25598
-22782
-31230
19970
1025
-23551
15104
-7936
-19200
-16640
-2047
19201
-24831
-7678
2050
4098
1025
-2815
-4863
-4607
-3327
-1534
2306
7682
12034
11266
6914
3842
7682
17922
31234
-20990
-8957
515
5891
7683
8451
9987
10243
5378
-3070
-9726
-9470
-4862
-2046
-3326
-4093
515
8963
14851
14339
9987
8707
13059
20483
25859
27907
28931
32003
-28413
-23037
-18685
-15357
-12029
-8445
-5885
-5885
-6653
-6653
-5629
-5373
-7165
-10493
-12797
-13309
-13309
-13053
-12029
-10493
-9725
-10749
-11773
-8701
-764
8196
10500
4867
-3069
-6141
-3068
3076
7428
9476
9220
6404
1283
-4093
-6909
-8445
-14077
-27901
18434
-254
-15614
-31230
14849
-7167
-27135
21505
2304
-22528
15871
-7425
-25089
24831
7678
-9986
-25090
27646
14589
-3
-13827
-24579
31229
19965
7676
-2564
-9988
-17412
-28420
24828
15612
10748
5627
-4101
-17157
-27397
-32517
28411
17915
762
-17926
31226
15865
-2055
-23815
18680
-5128
-29192
14327
-521
-8201
-14601
-26121
23543
12279
12023
19191
25079
27127
29431
-29961
-21513
-14601
-8200
1528
14328
26360
-31496
-25608
-17672
-6663
5881
18937
-30727
-11782
5882
18682
27130
-28422
-13061
3835
16891
24571
31739
-21765
-6148
6908
12284
13820
19196
-32260
-13827
1021
8445
13309
23293
-24835
-4098
11518
18430
19710
21758
28670
-27394
-21250
-21506
-24834
-24322
-16642
-5377
3327
8191
13567
23039
-30209
-22017
-19969
-18689
-11520
1280
11776
14080
10496
10752
19200
32000
-24832
-23296
-24064
-21504
-13824
-4095
4609
11009
15361
16385
14849
13825
16641
23809
32001
-28671
-28671
-31231
32001
32257
-29439
-22527
-14847
-9471
-7423
-6911
-5887
-5375
-8703
-16127
-23295
-24319
-20991
-20223
-27135
28929
26881
-30207
-18943
-14335
-16639
-18175
-15103
-11775
-13311
-19711
-25087
-28159
32001
23297
15873
14593
16385
13313
2816
-7424
-9216
-4096
-2816
-11008
-24576
29184
20992
13056
4864
1024
3840
8704
9728
6400
4352
7168
10240
7167
-1281
-7425
-8193
-8193
-13825
-21761
-24065
-17665
-10241
-11777
-22529
-32257
32511
-26881
-23297
-27137
30463
26367
29951
-26881
-19713
-20737
-29441
26623
23807
26879
27647
18431
2814
-8450
-8706
-3074
-1538
-8194
-16898
-20738
-18178
-13314
-8962
-5634
-3074
-257
4607
12799
21759
26623
23295
15871
11519
12799
13567
7678
-5378
-19202
-27906
-30978
32766
28670
23294
20478
22526
28158
-32514
-30722
-32002
31230
27390
20478
10238
509
-5123
-6403
-7683
-10755
-12547
-7426
5630
19966
27134
25342
20222
17406
17918
18174
14846
8958
4862
6398
14078
23550
29182
30206
29694
-31234
-17665
4351
29951
-9728
18176
-11519
-29950
25859
16388
2564
-12027
-16378
-5112
13577
18953
-8951
-14327
2311
-23803
-24061
9728
28157
-19461
5368
-22538
-24843
18676
-13068
-1035
29942
2550
-9224
4089
-31750
-9477
-6148
-10243
-6401
2303
-3328
28160
-23552
-7679
12033
16384
-8960
16639
-5888
4608
-32256
-8191
7169
27649
-7934
17154
25090
22274
26114
-25086
-14078
-16126
-19966
-8445
14595
26115
14594
-3070
-253
25859
-13309
-6909
-13053
-9212
14596
-17403
8965
18181
13829
4869
773
7941
21253
27141
15620
-4604
-13564
-2043
18181
30725
29445
24325
20485
17413
15621
18949
25349
19972
-6396
25092
12548
32004
-9468
-16636
12035
-14076
5124
-9211
29957
32517
17925
17669
-32763
-31739
2564
17155
-23549
22531
11522
-8702
25601
-4863
-28415
18688
-512
-26368
2559
20222
32253
-14595
18172
-4868
-26372
16379
-5637
-28677
5882
30457
-14343
11256
-23304
5879
30198
-11274
17397
-15627
18932
-4108
-14348
-19980
26099
-15373
1522
-30990
26098
26354
16881
-5903
-32527
9712
-9488
-26384
24304
7151
-18705
9454
-32019
-3347
26860
-18197
-14358
-20247
-25624
32487
11237
-25628
4322
-11295
-7968
-7713
-31011
-8740
16346
-1062
3545
13016
13783
8918
12757
-27179
19669
10708
-1580
-24108
11731
-17453
27091
16851
15571
19923
26579
-28461
-5932
-29227
-32298
-22825
-11304
-3879
-549
3292
13533
31966
-10528
6113
9698
6371
12260
-28186
7399
-31512
-22295
-19990
-8212
16365
-23314
-4368
13041
-27405
2548
25845
-29706
-24841
-11015
15354
-23813
-10500
-10499
-11522
-3328
12033
23042
23555
19460
22789
-28154
-12537
-11000
-26615
18186
6667
4875
-1780
-27124
-5107
12301
-28146
4878
-29170
-8689
271
3087
7695
17935
32271
-20209
-13041
-9713
-5360
4880
18448
27664
28432
24080
22544
28688
-25584
-16624
-12528
-9712
-2031
12305
28689
-24815
-18159
-12783
-6126
274
1553
-494
1810
12050
22546
21778
8465
-5103
-8175
-5103
-12015
26896
-11504
21520
2063
-11249
-28657
14862
-5106
-18418
-27634
27662
14349
-243
-14835
-30707
13580
-13044
24844
3339
-9205
-17141
-27893
21515
3594
-10230
-18166
-23030
-27382
-30198
-31478
32266
27914
22538
20234
22538
25866
26378
23306
18442
13066
6409
-1783
-8695
-12023
-12279
-14327
-22007
32009
22025
17417
18953
21769
22281
19721
16393
15625
17673
19209
17929
13321
9737
11017
16649
25097
-26103
-1526
-32757
3083
32267
-8692
20236
-6387
-27634
15630
-3057
-3311
22802
-4588
1762
1686
1598
1514
1448
1396
1344
1285
1224
1167
1116
1065
1010
951
893
840
791
738
685
641
621
617
607
572
526
497
492
488
461
416
385
388
410
421
410
393
392
410
435
452
458
461
472
493
520
542
555
567
587
611
625
625
624
641
675
704
714
719
748
807
869
898
889
874
891
943
990
992
947
900
891
918
938
914
858
813
802
807
800
780
763
761
767
778
807
850
884
884
865
873
925
983
985
915
818
763
777
836
885
884
841
805
825
891
943
933
882
854
850
799
649
459
336
294
223
31
-209
-323
-245
-89
-16
-43
-43
81
270
389
377
305
275
310
362
379
356
332
355
441
562
660
691
658
612
596
617
671
745
814
830
765
665
616
666
764
818
802
787
858
1015
1189
1325
1428
1528
1623
1688
1710
1713
1730
1778
1857
1963
2090
2219
2331
2437
2564
2725
2903
3072
3228
3390
3588
3827
4104
4410
4734
5055
5346
5599
5838
6110
6441
6809
7155
7448
7709
7972
8220
8397
8472
8490
8530
8607
8655
8613
8513
8444
8449
8478
8456
8372
8261
8135
7953
7698
7426
7206
7039
6856
6622
6387
6224
6132
6041
5901
5752
5653
5607
5549
5432
5290
5187
5134
5069
4934
4743
4557
4413
4290
4155
4010
3884
3791
3708
3600
3461
3309
3167
3029
2872
2674
2441
2198
1977
1786
1611
1431
1247
1080
943
818
677
508
332
171
29
-104
-233
-358
-485
-622
-769
-906
-1020
-1132
-1277
-1460
-1647
-1810
-1962
-2146
-2370
-2594
-2775
-2912
-3038
-3172
-3306
-3421
-3516
-3604
-3693
-3786
-3880
-3978
-4075
-4162
-4241
-4318
-4387
-4411
-4359
-4255
-4151
-4071
-3968
-3780
-3506
-3205
-2914
-2595
-2184
-1693
-1231
-918
-800
-847
-1024
-1341
-1812
-2411
-3062
-3689
-4248
-4717
-5062
-5248
-5276
-5202
-5097
-4988
-4836
-4593
-4268
-3937
-3658
-3417
-3152
-2837
-2524
-2298
-2201
-2194
-2220
-2255
-2314
-2407
-2508
-2577
-2584
-2532
-2450
-2374
-2328
-2320
-2334
-2349
-2349
-2339
-2329
-2323
-2311
-2280
-2232
-2181
-2139
-2104
-2070
-2040
-2022
-2010
-1981
-1927
-1866
-1822
-1792
-1749
-1678
-1599
-1552
-1542
-1537
-1497
-1423
-1347
-1292
-1256
-1223
-1186
-1147
-1102
-1055
-1018
-1010
-1033
-1060
-1059
-1024
-982
-959
-961
-974
-976
-959
-923
-873
-823
-793
-785
-775
-733
-654
-570
-507
-464
-425
-395
-395
-425
-441
-403
-333
-296
-324
-364
-343
-254
-166
-134
-143
-133
-85
-38
-29
-48
-53
-31
-7
0
-6
-15
-25
-44
-64
-78
-96
-136
-195
-250
-291
-336
-404
-483
-546
-588
-634
-698
-758
-780
-764
-745
-749
-773
-798
-820
-847
-881
-909
-922
-920
-909
-883
-833
-759
-672
-590
-525
-480
-446
-400
-329
-253
-211
-219
-240
-214
-128
-34
8
-9
-29
0
75
150
192
208
230
276
340
399
428
410
351
290
271
300
333
312
228
130
72
63
69
57
25
-11
-36
-45
-42
-31
-32
-65
-125
-191
-250
-314
-399
-501
-594
-665
-722
-788
-863
-935
-1001
-1065
-1124
-1172
-1210
-1265
-1356
-1461
-1530
-1542
-1536
-1567
-1653
-1752
-1817
-1851
-1892
-1967
-2058
-2125
-2156
-2183
-2244
-2331
-2396
-2407
-2398
-2435
-2549
-2703
-2833
-2928
-3045
-3238
-3496
-3750
-3948
-4096
-4236
-4392
-4550
-4691
-4814
-4929
-5033
-5113
-5167
-5204
-5230
-5240
-5226
-5184
-5115
-5017
-4886
-4736
-4593
-4475
-4370
-4254
-4105
-3933
-3761
-3604
-3454
-3298
-3131
-2959
-2787
-2619
-2463
-2325
-2208
-2099
-1980
-1848
-1716
-1597
-1489
-1378
-1260
-1150
-1056
-964
-855
-730
-614
-523
-449
-373
-292
-221
-172
-140
-111
-81
-52
-22
13
51
82
106
138
186
242
285
308
321
329
332
331
338
359
383
389
369
344
340
363
389
390
360
318
288
280
288
297
300
302
307
317
332
353
384
416
435
434
419
407
407
421
440
460
474
477
481
504
552
604
628
617
599
608
641
666
669
666
689
751
837
935
1042
1165
1312
1482
1668
1858
2046
2248
2496
2809
3155
3461
3659
3724
3652
3431
3036
2471
1795
1093
417
-221
-811
-1297
-1604
-1706
-1656
-1545
-1418
-1252
-1010
-710
-414
-165
49
260
466
627
705
711
677
615
512
362
201
82
25
10
13
30
72
130
166
151
94
41
26
38
43
31
29
66
128
177
195
212
260
328
369
360
336
348
407
476
514
523
534
567
614
656
684
699
704
697
690
701
735
773
791
785
776
786
807
809
777
733
711
719
725
703
662
642
657
681
686
673
667
678
691
690
681
669
647
616
610
652
709
719
667
628
699
880
1060
1134
1119
1123
1215
1357
1446
1420
1324
1261
1297
1409
1505
1515
1441
1362
1347
1391
1428
1413
1360
1311
1276
1230
1161
1094
1038
955
798
581
394
303
253
135
-93
-344
-487
-497
-475
-546
-734
-955
-1122
-1224
-1319
-1474
-1694
-1925
-2096
-2183
-2237
-2343
-2526
-2726
-2862
-2925
-2993
-3124
-3279
-3377
-3413
-3469
-3624
-3839
-3996
-4039
-4036
-4104
-4273
-4463
-4578
-4607
-4622
-4683
-4778
-4843
-4842
-4802
-4782
-4821
-4915
-5026
-5118
-5179
-5223
-5284
-5389
-5545
-5736
-5937
-6128
-6302
-6479
-6689
-6959
-7284
-7631
-7964
-8270
-8557
-8826
-9079
-9339
-9639
-9982
-10324
-10615
-10867
-11144
-11489
-11861
-12178
-12393
-12521
-12594
-12616
-12589
-12544
-12535
-12579
-12640
-12666
-12641
-12587
-12528
-12462
-12362
-12196
-11948
-11640
-11316
-11012
-10723
-10426
-10117
-9817
-9532
-9226
-8853
-8421
-7991
-7612
-7268
-6906
-6516
-6144
-5828
-5551
-5263
-4940
-4600
-4265
-3929
-3583
-3240
-2928
-2646
-2362
-2054
-1751
-1498
-1304
-1124
-903
-639
-374
-153
22
184
366
575
799
1018
1216
1381
1514
1633
1760
1898
2035
2155
2263
2374
2496
2625
2757
2894
3038
3181
3302
3402
3504
3632
3778
3910
4010
4092
4186
4300
4419
4529
4630
4725
4808
4874
4934
5007
5088
5150
5167
5151
5135
5143
5171
5201
5229
5250
5257
5243
5216
5199
5202
5201
5158
5072
4990
4966
5001
5041
5028
4962
4888
4855
4870
4894
4885
4824
4737
4663
4629
4629
4630
4602
4552
4505
4472
4435
4375
4301
4241
4203
4161
4085
3988
3917
3893
3891
3861
3801
3762
3800
3912
4035
4119
4188
4316
4536
4800
5035
5232
5461
5772
6120
6391
6512
6493
6365
6094
5620
4947
4187
3462
2798
2145
1494
945
629
570
660
775
894
1085
1394
1767
2110
2386
2639
2916
3190
3393
3485
3498
3474
3414
3284
3077
2849
2672
2580
2548
2540
2537
2544
2566
2592
2608
2608
2594
2575
2557
2540
2525
2514
2508
2505
2497
2480
2457
2441
2434
2426
2406
2376
2352
2348
2361
2370
2352
2298
2224
2159
2121
2103
2085
2056
2019
1985
1951
1916
1887
1871
1864
1854
1841
1843
1868
1895
1895
1879
1892
1964
2064
2144
2202
2278
2393
2510
2578
2597
2619
2671
2724
2739
2728
2751
2839
2956
3038
3062
3067
3096
3155
3206
3216
3188
3156
3146
3164
3192
3218
3241
3270
3301
3319
3308
3268
3217
3172
3143
3118
3077
3012
2929
2836
2733
2606
2450
2283
2131
2000
1875
1735
1584
1444
1327
1219
1111
1019
972
965
960
929
888
881
921
976
1006
1014
1035
1084
1137
1167
1180
1206
1250
1282
1269
1220
1177
1169
1178
1162
1104
1030
979
966
969
961
935
901
871
850
839
842
859
880
893
900
917
963
1037
1116
1182
1236
1300
1390
1499
1606
1696
1772
1846
1920
1978
2008
2014
2012
2010
1991
1936
1847
1752
1675
1612
1544
1470
1411
1378
1354
1316
1262
1216
1188
1159
1105
1033
982
977
996
1000
973
944
948
988
1028
1034
1006
977
967
965
940
873
784
705
651
609
546
439
300
175
117
133
173
167
102
25
-20
-59
-142
-263
-352
-374
-392
-494
-646
-700
-576
-385
-322
-446
-610
-639
-535
-463
-542
-713
-832
-839
-801
-804
-848
-873
-844
-799
-779
-785
-783
-752
-707
-672
-646
-605
-543
-483
-452
-453
-452
-404
-300
-186
-120
-116
-123
-75
39
149
180
130
75
89
166
240
253
202
128
79
78
113
146
136
71
-20
-100
-145
-160
-155
-140
-139
-179
-246
-272
-202
-69
27
18
-48
-59
35
166
231
216
189
220
300
367
403
453
572
753
924
1022
1059
1105
1209
1351
1472
1536
1576
1643
1759
1911
2095
2320
2580
2820
3004
3186
3502
4025
4651
5151
5371
5372
5370
5529
5835
6146
6359
6519
6768
7204
7808
8457
9021
9454
9787
10059
10273
10406
10453
10446
10427
10424
10458
10552
10699
10854
10954
10974
10929
10826
10656
10428
10225
10137
10165
10199
10136
9996
9886
9857
9833
9712
9496
9291
9169
9090
8968
8782
8592
8446
8304
8094
7813
7541
7343
7189
7001
6743
6463
6233
6075
5954
5825
5674
5504
5305
5064
4775
4460
4149
3862
3603
3358
3106
2834
2544
2257
1993
1753
1532
1321
1122
934
752
568
388
222
73
-63
-173
-245
-290
-346
-434
-517
-534
-478
-410
-388
-389
-331
-188
-51
-42
-199
-463
-794
-1247
-1907
-2752
-3632
-4399
-5033
-5610
-6154
-6573
-6755
-6710
-6568
-6441
-6318
-6116
-5817
-5504
-5268
-5108
-4941
-4720
-4478
-4292
-4195
-4166
-4178
-4224
-4305
-4401
-4481
-4536
-4573
-4591
-4572
-4514
-4440
-4381
-4350
-4332
-4309
-4275
-4235
-4196
-4168
-4156
-4159
-4173
-4191
-4214
-4242
-4271
-4289
-4293
-4286
-4271
-4249
-4220
-4192
-4167
-4136
-4086
-4025
-3986
-3991
-4016
-4001
-3913
-3784
-3681
-3643
-3641
-3617
-3541
-3442
-3371
-3350
-3355
-3349
-3322
-3283
-3241
-3195
-3145
-3095
-3057
-3020
-2961
-2867
-2752
-2648
-2573
-2517
-2458
-2383
-2301
-2224
-2158
-2100
-2044
-1983
-1913
-1834
-1755
-1690
-1639
-1595
-1553
-1513
-1475
-1435
-1389
-1344
-1316
-1306
-1291
-1246
-1173
-1103
-1072
-1085
-1120
-1143
-1137
-1116
-1116
-1156
-1222
-1279
-1311
-1337
-1390
-1475
-1564
-1628
-1672
-1718
-1773
-1822
-1849
-1866
-1897
-1944
-1986
-1998
-1987
-1982
-2009
-2063
-2116
-2141
-2142
-2140
-2145
-2146
-2126
-2093
-2072
-1491
-1473
-1423
-1347
-1280
-1240
-1206
-1148
-1063
-977
-913
-870
-838
-812
-785
-745
-679
-588
-485
-380
-268
-160
-76
-20
36
119
211
261
245
211
233
324
421
452
429
441
541
683
762
726
633
580
601
654
691
719
772
854
922
945
960
1027
1150
1259
1286
1254
1265
1394
1610
1814
1943
2026
2139
2303
2464
2568
2632
2711
2810
2856
2773
2584
2390
2262
2162
1998
1743
1464
1248
1102
965
779
547
304
72
-164
-429
-732
-1055
-1358
-1609
-1802
-1964
-2136
-2343
-2590
-2868
-3156
-3426
-3659
-3859
-4070
-4330
-4628
-4891
-5052
-5125
-5199
-5366
-5629
-5903
-6101
-6197
-6240
-6284
-6339
-6380
-6380
-6332
-6245
-6123
-5972
-5808
-5655
-5519
-5378
-5200
-4982
-4750
-4534
-4338
-4152
-3962
-3766
-3561
-3343
-3117
-2901
-2716
-2561
-2410
-2237
-2041
-1846
-1672
-1524
-1391
-1263
-1130
-987
-837
-704
-614
-563
-513
-430
-320
-222
-157
-104
-20
110
256
365
419
440
462
501
545
576
593
610
634
661
684
713
762
830
889
918
921
933
971
1021
1058
1078
1108
1166
1234
1272
1261
1226
1210
1231
1270
1297
1307
1321
1362
1429
1496
1541
1565
1581
1592
1587
1567
1547
1541
1535
1502
1436
1369
1337
1337
1326
1276
1203
1151
1142
1151
1141
1103
1059
1031
1020
1007
985
963
947
934
914
889
873
881
912
949
970
964
935
902
881
874
862
827
770
718
701
717
740
760
804
912
1083
1269
1432
1590
1783
2013
2240
2438
2640
2897
3184
3404
3486
3458
3385
3250
2939
2363
1579
767
63
-540
-1132
-1723
-2197
-2422
-2388
-2213
-2015
-1807
-1532
-1197
-889
-681
-537
-373
-184
-61
-77
-177
-237
-221
-229
-372
-635
-886
-1024
-1069
-1114
-1213
-1329
-1392
-1378
-1332
-1313
-1340
-1403
-1480
-1559
-1643
-1728
-1806
-1872
-1934
-1993
-2033
-2034
-2001
-1957
-1923
-1904
-1901
-1919
-1951
-1966
-1930
-1864
-1836
-1888
-1978
-2023
-1986
-1917
-1881
-1885
-1891
-1865
-1816
-1765
-1715
-1665
-1633
-1636
-1658
-1670
-1648
-1602
-1555
-1525
-1513
-1505
-1490
-1461
-1425
-1398
-1400
-1431
-1458
-1445
-1381
-1292
-1223
-1201
-1217
-1239
-1242
-1231
-1231
-1254
-1278
-1276
-1253
-1252
-1301
-1369
-1393
-1357
-1322
-1362
-1484
-1619
-1696
-1719
-1744
-1809
-1885
-1931
-1945
-1969
-2025
-2081
-2099
-2093
-2124
-2223
-2346
-2433
-2499
-2614
-2805
-2995
-3093
-3109
-3155
-3304
-3505
-3646
-3693
-3723
-3820
-3974
-4123
-4255
-4430
-4694
-5006
-5292
-5548
-5857
-6281
-6773
-7230
-7613
-7992
-8465
-9031
-9590
-10052
-10433
-10828
-11285
-11746
-12114
-12369
-12585
-12833
-13093
-13288
-13393
-13467
-13568
-13683
-13749
-13754
-13762
-13818
-13874
-13840
-13692
-13502
-13358
-13252
-13097
-12832
-12487
-12142
-11837
-11532
-11165
-10737
-10320
-9992
-9754
-9533
-9250
-8899
-8540
-8233
-7968
-7689
-7352
-6967
-6569
-6174
-5779
-5381
-4990
-4615
-4253
-3895
-3539
-3190
-2846
-2493
-2121
-1734
-1345
-954
-562
-182
161
453
717
986
1274
1550
1775
1944
2095
2268
2473
2689
2884
3037
3151
3246
3346
3459
3569
3649
3692
3727
3787
3875
3966
4047
4137
4258
4401
4528
4619
4698
4800
4925
5036
5105
5152
5220
5327
5442
5528
5582
5625
5675
5719
5742
5747
5747
5736
5702
5645
5588
5553
5533
5509
5483
5485
5525
5568
5562
5504
5451
5452
5484
5478
5395
5270
5174
5134
5123
5102
5058
4998
4923
4836
4754
4710
4708
4708
4669
4596
4539
4526
4534
4517
4466
4417
4399
4404
4401
4380
4355
4336
4322
4309
4297
4273
4204
4078
3936
3856
3867
3910
3893
3796
3696
3678
3735
3776
3732
3628
3541
3502
3474
3420
3355
3322
3324
3319
3272
3203
3156
3141
3125
3084
3032
2996
2976
2952
2919
2893
2883
2866
2819
2756
2718
2724
2745
2742
2717
2703
2732
2799
2891
2995
3110
3247
3429
3668
3944
4210
4447
4698
5023
5411
5767
5996
6078
6035
5848
5451
4825
4058
3278
2538
1804
1065
418
-15
-207
-248
-224
-130
81
396
731
1019
1290
1609
1972
2294
2485
2537
2515
2470
2394
2247
2019
1752
1511
1338
1238
1192
1177
1173
1176
1186
1202
1208
1195
1173
1169
1203
1258
1298
1304
1296
1308
1346
1385
1398
1380
1351
1326
1312
1310
1323
1345
1347
1305
1226
1155
1135
1158
1175
1143
1070
1007
998
1039
1080
1079
1036
991
979
990
983
936
867
800
728
629
514
443
456
519
547
497
419
389
423
462
451
408
393
436
504
552
581
628
713
820
921
1020
1146
1311
1486
1634
1741
1832
1935
2051
2158
2239
2301
2368
2447
2531
2609
2690
2783
2878
2947
2976
2972
2952
2922
2885
2853
2834
2817
2775
2698
2610
2545
2499
2438
2344
2247
2192
2188
2195
2180
2151
2135
2137
2129
2089
2033
2002
2013
2040
2053
2049
2053
2073
2089
2076
2037
1999
1973
1943
1898
1860
1868
1913
1935
1880
1768
1676
1645
1634
1574
1459
1354
1317
1339
1363
1357
1344
1347
1356
1332
1258
1159
1076
1031
1014
989
918
806
700
645
627
576
445
262
104
8
-61
-154
-271
-376
-454
-528
-613
-695
-745
-764
-795
-866
-952
-1001
-983
-920
-857
-831
-835
-831
-788
-711
-633
-579
-545
-498
-412
-295
-189
-126
-95
-59
2
52
31
-65
-167
-190
-127
-68
-102
-228
-364
-446
-483
-531
-625
-748
-875
-987
-1069
-1098
-1064
-992
-927
-886
-854
-800
-720
-640
-590
-573
-566
-539
-482
-406
-320
-223
-99
46
186
294
377
477
620
784
916
979
995
1027
1113
1243
1367
1454
1509
1560
1627
1700
1770
1838
1917
2026
2183
2405
2684
2990
3291
3593
3930
4311
4698
5040
5345
5681
6105
6601
7104
7586
8080
8624
9198
9738
10196
10576
10895
11145
11300
11373
11417
11479
11545
11555
11470
11318
11171
11062
10967
10840
10675
10500
10344
10205
10085
10008
9987
9974
9891
9707
9485
9316
9214
9106
8923
8676
8431
8231
8058
7888
7732
7603
7480
7316
7098
6874
6696
6565
6430
6243
5998
5716
5408
5073
4722
4368
4020
3669
3312
2971
2670
2409
2159
1902
1648
1425
1233
1039
815
565
324
111
-81
-272
-467
-661
-848
-1026
-1195
-1349
-1476
-1565
-1611
-1629
-1641
-1654
-1650
-1601
-1507
-1395
-1281
-1143
-960
-766
-640
-641
-761
-972
-1300
-1813
-2521
-3325
-4072
-4691
-5222
-5719
-6144
-6391
-6402
-6238
-6020
-5811
-5582
-5286
-4930
-4573
-4257
-3971
-3683
-3402
-3181
-3063
-3032
-3042
-3066
-3124
-3242
-3403
-3544
-3605
-3581
-3517
-3465
-3428
-3372
-3283
-3196
-3163
-3185
-3209
-3182
-3113
-3060
-3051
-3050
-3003
-2908
-2817
-2782
-2807
-2861
-2918
-2985
-3083
-3229
-3417
-3610
-3753
-3816
-3819
-3813
-3821
-3826
-3790
-3704
-3602
-3529
-3500
-3505
-3522
-3540
-3544
-3530
-3502
-3470
-3444
-3425
-3412
-3404
-3394
-3377
-3364
-3376
-3415
-3455
-3458
-3420
-3371
-3340
-3312
-3255
-3158
-3050
-2960
-2879
-2778
-2658
-2551
-2484
-2431
-2347
-2230
-2125
-2080
-2081
-2071
-2012
-1923
-1854
-1826
-1807
-1759
-1671
-1573
-1497
-1449
-1417
-1386
-1348
-1309
-1276
-1260
-1264
-1277
-1283
-1275
-1264
-1277
-1326
-1393
-1444
-1469
-1491
-1546
-1634
-1711
-1733
-1713
-1708
-1763
-1858
-1932
-1946
-1928
-1937
-1999
-2086
-2149
-2170
-2168
-2171
-2182
-2185
-2170
-2143
-2119
-2101
-2084
-2069
-2051
-2012
-1938
-1852
-1803
-1812
-1842
-1835
-1784
-1748
-1777
-1847
-1884
-1856
-1797
-1752
-1724
-1685
-1634
-1598
-1591
-1587
-1554
-1494
-1428
-1377
-1336
-1303
-1283
-1267
-1227
-1153
-1083
-1061
-1081
-1083
-1016
-896
-774
-675
-571
-441
-310
-226
-208
-216
-194
-131
-74
-69
-105
-114
-48
68
154
156
96
44
48
103
176
244
305
362
414
477
565
682
813
945
1070
1183
1273
1344
1417
1504
1587
1630
1621
1587
1554
1519
1472
1426
1408
1413
1402
1369
1360
1404
1443
1376
1193
1003
920
932
914
786
603
492
507
581
603
527
397
275
180
80
-66
-262
-482
-698
-910
-1132
-1369
-1604
-1825
-2047
-2295
-2582
-2894
-3203
-3494
-3760
-3995
-4195
-4358
-4481
-4557
-4589
-4595
-4602
-4609
-4589
-4522
-4431
-4350
-4290
-4227
-4141
-4031
-3903
-3750
-3568
-3390
-3259
-3180
-3103
-2981
-2823
-2688
-2606
-2542
-2439
-2286
-2129
-2011
-1930
-1851
-1747
-1627
-1520
-1450
-1418
-1405
-1385
-1346
-1301
-1271
-1250
-1199
-1079
-893
-688
-496
-297
-50
243
535
800
1071
1407
1790
2130
2352
2469
2527
2493
2247
1721
1010
306
-286
-819
-1377
-1924
-2296
-2372
-2191
-1909
-1639
-1384
-1096
-762
-418
-96
203
483
727
912
1042
1142
1225
1265
1235
1140
1027
944
915
937
1006
1107
1213
1288
1322
1340
1376
1426
1448
1418
1362
1340
1380
1451
1508
1539
1570
1615
1651
1647
1610
1583
1595
1633
1661
1668
1672
1692
1725
1756
1782
1811
1845
1875
1896
1911
1930
1954
1976
1996
2016
2037
2056
2071
2089
2113
2131
2131
2112
2098
2112
2152
2190
2195
2164
2121
2097
2099
2109
2099
2063
2014
1974
1954
1948
1939
1920
1895
1875
1866
1855
1824
1773
1718
1676
1644
1603
1542
1474
1418
1375
1317
1222
1097
976
887
826
769
688
566
417
275
173
121
80
-8
-167
-356
-502
-571
-611
-699
-865
-1055
-1201
-1291
-1384
-1526
-1689
-1807
-1864
-1910
-1991
-2085
-2120
-2064
-1975
-1946
-2011
-2108
-2150
-2113
-2052
-2034
-2068
-2109
-2118
-2122
-2165
-2240
-2290
-2263
-2189
-2142
-2153
-2168
-2121
-2006
-1883
-1806
-1774
-1752
-1724
-1693
-1671
-1660
-1652
-1649
-1659
-1675
-1661
-1585
-1459
-1346
-1328
-1426
-1569
-1651
-1637
-1603
-1647
-1775
-1889
-1903
-1826
-1735
-1680
-1648
-1615
-1598
-1630
-1706
-1786
-1839
-1884
-1959
-2072
-2189
-2265
-2285
-2284
-2311
-2385
-2487
-2581
-2654
-2725
-2817
-2908
-2962
-2975
-2995
-3066
-3174
-3263
-3305
-3337
-3407
-3516
-3679
-3618
-3564
-3505
-3485
-3501
-3519
-3513
-3493
-3490
-3530
-3609
-3704
-3800
-3907
-4042
-4203
-4366
-4508
-4642
-4818
-5066
-5371
-5690
-5995
-6297
-6636
-7022
-7425
-7805
-8159
-8528
-8961
-9474
-10038
-10608
-11145
-11622
-12023
-12352
-12629
-12859
-13015
-13056
-12972
-12812
-12656
-12558
-12514
-12478
-12411
-12302
-12165
-12014
-11851
-11668
-11456
-11205
-10910
-10574
-10214
-9864
-9546
-9255
-8955
-8609
-8207
-7771
-7335
-6923
-6538
-6165
-5795
-5426
-5065
-4717
-4375
-4029
-3690
-3380
-3103
-2830
-2525
-2182
-1831
-1501
-1192
-885
-569
-261
23
280
518
737
936
1116
1286
1459
1637
1820
2012
2211
2405
2578
2732
2896
3117
3408
3743
4081
4410
4753
5132
5539
5949
6358
6780
7199
7556
7790
7885
7864
7716
7384
6831
6119
5382
4716
4116
3539
3007
2620
2467
2531
2713
2921
3137
3394
3715
4091
4486
4862
5190
5450
5638
5762
5832
5840
5769
5611
5394
5178
5020
4943
4941
4989
5061
5140
5211
5261
5289
5302
5309
5317
5324
5327
5327
5331
5352
5394
5445
5487
5500
5487
5464
5450
5454
5473
5489
5489
5467
5434
5411
5410
5422
5423
5393
5338
5282
5238
5197
5145
5082
5027
4985
4946
4890
4823
4780
4780
4801
4790
4720
4630
4585
4599
4623
4594
4512
4443
4436
4476
4499
4472
4417
4379
4370
4368
4348
4314
4280
4252
4223
4191
4160
4131
4099
4065
4030
3994
3952
3898
3837
3780
3730
3677
3611
3543
3495
3474
3457
3412
3335
3253
3192
3143
3077
2973
2843
2712
2595
2484
2372
2259
2145
2034
1924
1816
1707
1596
1489
1395
1318
1244
1156
1059
978
932
909
875
814
746
699
673
645
595
534
490
470
458
429
387
357
354
364
363
342
314
301
311
336
355
340
273
175
95
71
84
75
12
-81
-154
-196
-233
-280
-317
-326
-333
-376
-444
-483
-467
-445
-487
-604
-725
-781
-778
-776
-815
-869
-888
-856
-812
-797
-823
-861
-881
-880
-883
-915
-967
-1001
-988
-939
-890
-865
-854
-835
-808
-799
-822
-856
-866
-852
-846
-872
-909
-922
-904
-892
-920
-976
-1020
-1033
-1032
-1055
-1118
-1208
-1300
-1373
-1422
-1450
-1472
-1500
-1535
-1562
-1561
-1540
-1524
-1532
-1551
-1554
-1529
-1494
-1476
-1474
-1462
-1423
-1369
-1330
-1319
-1327
-1338
-1346
-1356
-1365
-1366
-1353
-1329
-1298
-1262
-1217
-1160
-1089
-1005
-916
-839
-786
-757
-728
-676
-601
-524
-463
-410
-340
-236
-110
13
106
170
222
289
385
510
650
782
892
991
1099
1232
1380
1508
1591
1633
1666
1720
1802
1892
1967
2024
2079
2153
2245
2326
2374
2395
2421
2479
2550
2590
2576
2543
2548
2604
2661
2658
2598
2553
2595
2728
2885
3010
3127
3312
3600
3925
4182
4341
4492
4739
5075
5366
5484
5419
5244
4986
4570
3917
3066
2163
1319
520
-286
-1054
-1630
-1898
-1909
-1814
-1703
-1528
-1217
-791
-366
-21
263
550
842
1072
1183
1189
1144
1083
1000
883
748
636
574
564
597
669
778
904
1001
1026
981
909
847
802
760
721
702
699
676
612
538
507
522
524
457
343
261
264
336
423
488
529
553
571
592
618
630
608
557
511
493
490
498
548
690
917
1148
1311
1419
1538
1685
1782
1758
1639
1536
1529
1584
1611
1575
1541
1594
1751
1937
2054
2063
2016
2002
2064
2160
2213
2203
2201
2285
2448
2602
2683
2728
2818
2975
3118
3168
3142
3144
3247
3422
3574
3648
3692
3805
4030
4307
4542
4710
4874
5104
5380
5607
5715
5739
5770
5855
5969
6063
6136
6234
6388
6584
6787
6979
7177
7401
7659
7936
8198
8415
8593
8782
9019
9277
9463
9508
9440
9363
9356
9398
9391
9269
9072
8908
8848
8865
8869
8788
8634
8477
8367
8295
8213
8089
7940
7806
7699
7600
7479
7341
7215
7115
7026
6925
6813
6722
6674
6662
6657
6641
6609
6559
6484
6386
6284
6198
6128
6047
5932
5790
5650
5530
5407
5247
5040
4817
4609
4412
4189
3923
3637
3370
3138
2909
2644
2343
2041
1770
1528
1288
1024
744
471
220
-16
-251
-489
-720
-931
-1121
-1303
-1487
-1665
-1825
-1971
-2099
-2280
-2446
-2602
-2747
-2896
-3058
-3220
-3360
-3469
-3559
-3644
-3729
-3807
-3874
-3927
-3965
-3987
-3995
-3989
-3973
-3957
-3955
-3973
-4000
-4012
-4008
-4004
-4017
-4044
-4062
-4062
-4052
-4044
-4035
-4019
-4001
-3989
-3983
-3963
-3920
-3864
-3815
-3778
-3736
-3669
-3573
-3466
-3374
-3314
-3283
-3263
-3235
-3202
-3181
-3175
-3161
-3115
-3053
-3023
-3048
-3090
-3092
-3040
-2987
-2988
-3039
-3088
-3088
-3041
-2976
-2921
-2890
-2895
-2938
-2994
-3029
-3038
-3050
-3094
-3155
-3193
-3179
-3130
-3080
-3047
-3028
-3022
-3036
-3077
-3127
-3162
-3177
-3188
-3211
-3237
-3245
-3225
-3197
-3183
-3175
-3125
-2988
-2776
-2554
-2366
-2180
-1931
-1605
-1265
-974
-718
-427
-77
261
486
554
479
253
-162
-770
-1491
-2220
-2914
-3592
-4246
-4773
-5064
-5107
-4998
-4834
-4622
-4326
-3951
-3568
-3237
-2944
-2636
-2303
-2004
-1813
-1751
-1773
-1829
-1905
-2028
-2206
-2396
-2524
-2543
-2471
-2364
-2259
-2151
-2036
-1942
-1907
-1928
-1951
-1935
-1897
-1880
-1878
-1824
-1683
-1513
-1413
-1413
-1439
-1405
-1313
-1237
-1225
-1241
-1227
-1165
-1085
-1018
-965
-918
-883
-869
-870
-863
-838
-808
-791
-789
-786
-769
-736
-700
-672
-656
-651
-650
-646
-629
-597
-564
-540
-522
-490
-422
-314
-182
-39
99
219
313
395
493
613
717
757
730
692
690
711
711
670
627
622
645
641
587
512
456
422
382
316
232
148
70
-16
-123
-247
-373
-485
-583
-683
-805
-947
-1088
-1202
-1289
-1368
-1456
-1538
-1593
-1622
-1655
-1714
-1787
-1844
-1883
-1930
-2004
-2093
-2190
-2325
-2548
-2871
-3240
-3592
-3928
-4304
-4751
-5223
-5633
-5938
-6169
-6382
-6597
-6798
-6963
-7088
-7182
-7249
-7277
-7257
-7198
-7130
-7078
-7030
-6940
-6780
-6584
-6426
-6342
-6289
-6190
-6026
-5847
-5702
-5580
-5439
-5269
-5101
-4959
-4824
-4672
-4511
-4371
-4259
-4134
-3955
-3739
-3541
-3404
-3317
-3219
-3071
-2885
-2714
-2593
-2508
-2406
-2258
-2080
-1923
-1803
-1698
-1572
-1424
-1281
-1161
-1051
-929
-795
-666
-559
-467
-380
-293
-209
-128
-47
33
108
178
252
327
393
442
482
529
585
633
657
665
678
702
723
724
714
717
745
780
799
804
814
840
867
880
880
881
879
861
832
818
842
892
933
955
987
1061
1160
1233
1258
1261
1283
1324
1340
1306
1250
1218
1223
1240
1243
1237
1236
1242
1236
1215
1197
1202
1216
1206
1155
1086
1038
1025
1023
995
932
863
830
837
853
841
795
740
701
680
662
644
628
616
591
548
502
480
489
512
520
505
472
435
404
378
364
376
428
513
609
707
824
985
1190
1408
1609
1807
2034
2298
2557
2748
2831
2785
2582
2183
1588
864
117
-587
-1246
-1872
-2428
-2833
-3023
-2997
-2816
-2568
-2320
-2090
-1856
-1582
-1265
-959
-727
-590
-508
-430
-357
-331
-376
-461
-548
-632
-737
-856
-927
-894
-779
-675
-663
-726
-782
-781
-748
-763
-859
-996
-1098
-1123
-1082
-1010
-932
-863
-822
-830
-889
-956
-993
-1014
-1074
-1203
-1350
-1426
-1404
-1343
-1316
-1331
-1336
-1283
-1185
-1083
-984
-874
-756
-658
-594
-540
-480
-432
-429
-469
-508
-513
-504
-523
-575
-610
-573
-462
-334
-264
-296
-408
-535
-619
-659
-706
-805
-956
-1123
-1292
-1492
-1747
-2035
-2300
-2514
-2703
-2914
-3163
-3420
-3640
-3799
-3909
-4013
-4160
-4370
-4602
-4785
-4886
-4948
-5047
-5211
-5382
-5490
-5532
-5578
-5682
-5819
-5913
-5937
-5948
-6033
-6200
-6377
-6495
-6561
-6650
-6812
-7031
-7263
-7499
-7767
-8075
-8393
-8696
-9004
-9355
-9752
-10149
-10521
-10913
-11394
-11974
-12572
-13092
-13506
-13855
-14179
-14468
-14682
-14809
-14874
-14905
-14908
-14885
-14849
-14815
-14767
-14647
-14404
-14040
-13619
-13216
-12849
-12467
-12009
-11480
-10950
-10496
-10130
-9791
-9411
-8972
-8510
-8062
-7635
-7208
-6776
-6361
-5975
-5603
-5220
-4822
-4421
-4022
-3604
-3154
-2707
-2315
-2000
-1722
-1419
-1078
-744
-468
-250
-49
170
408
642
860
1072
1290
1517
1739
1941
2119
2284
2447
2608
2758
2900
3055
3232
3412
3573
3718
3880
4076
4276
4428
4520
4598
4719
4882
5032
5125
5173
5224
5313
5429
5528
5583
5603
5619
5653
5695
5722
5725
5715
5717
5737
5761
5784
5812
5849
5880
5883
5857
5818
5778
5727
5650
5566
5505
5482
5472
5446
5406
5377
5369
5365
5344
5314
5293
5279
5248
5183
5108
5064
5071
5102
5115
5084
5023
4968
4939
4935
4934
4908
4852
4790
4762
4784
4827
4850
4835
4806
4788
4773
4735
4663
4588
4542
4518
4478
4405
4322
4278
4300
4386
4503
4617
4706
4787
4903
5082
5301
5504
5672
5848
6086
6368
6599
6676
6565
6288
5860
5273
4547
3757
2989
2278
1611
1008
558
362
423
631
852
1042
1250
1530
1862
2175
2421
2608
2758
2871
2925
2923
2891
2834
2727
2546
2330
2153
2060
2029
2013
1991
1981
1992
2004
1988
1944
1892
1845
1801
1760
1733
1725
1720
1696
1648
1593
1551
1524
1497
1457
1398
1325
1249
1192
1162
1143
1105
1030
931
835
760
695
621
528
416
296
188
113
74
47
3
-55
-96
-93
-64
-48
-67
-104
-132
-134
-110
-62
-3
41
48
34
46
105
168
164
83
-7
-29
22
79
89
59
37
51
95
146
196
250
316
394
479
559
633
710
796
867
883
827
742
695
703
715
678
601
548
556
592
598
561
526
527
548
545
515
504
546
621
669
656
612
591
614
643
631
570
497
456
463
496
525
536
540
553
579
608
625
623
606
588
576
570
562
546
524
507
506
523
553
589
630
680
744
817
888
952
1008
1060
1108
1147
1180
1211
1245
1284
1326
1364
1392
1409
1424
1449
1484
1509
1502
1465
1423
1403
1403
1397
1373
1340
1313
1288
1249
1196
1148
1116
1092
1060
1026
1014
1037
1077
1107
1116
1116
1122
1142
1176
1217
1249
1248
1220
1207
1250
1339
1416
1437
1425
1437
1489
1538
1539
1502
1481
1502
1535
1530
1484
1438
1426
1434
1422
1371
1300
1246
1227
1231
1229
1199
1147
1095
1069
1073
1084
1062
991
896
822
803
829
852
830
765
710
719
791
870
893
862
837
868
936
980
969
938
947
1003
1051
1031
949
871
848
862
853
790
707
663
680
725
741
712
673
668
697
717
681
587
484
421
410
420
424
427
450
501
556
592
621
673
738
770
729
646
606
656
760
836
849
844
896
1036
1214
1353
1421
1451
1504
1616
1775
1953
2139
2340
2555
2785
3054
3401
3826
4244
4529
4617
4538
4344
4017
3498
2783
1983
1234
585
-10
-570
-1006
-1195
-1115
-882
-639
-428
-180
170
600
1034
1429
1794
2146
2455
2664
2761
2806
2859
2904
2869
2726
2564
2534
2723
3081
3491
3893
4318
4809
5325
5763
6072
6302
6534
6775
6960
7055
7125
7276
7547
7881
8219
8566
8979
9471
9985
10457
10866
11232
11566
11850
12070
12230
12341
12401
12401
12355
12279
12166
11990
11752
11500
11296
11151
11037
10935
10857
10814
10785
10738
10676
10615
10546
10438
10291
10157
10080
10036
9959
9836
9731
9693
9678
9585
9384
9160
9009
8929
8829
8643
8396
8156
7951
7745
7491
7187
6855
6516
6188
5894
5653
5459
5277
5077
4857
4624
4365
4055
3697
3332
3001
2704
2404
2084
1768
1493
1262
1043
806
551
290
33
-228
-496
-762
-1013
-1248
-1475
-1702
-1933
-2167
-2403
-2636
-2859
-3063
-3248
-3428
-3621
-3828
-4030
-4203
-4348
-4490
-4650
-4822
-4971
-5079
-5164
-5259
-5370
-5471
-5538
-5574
-5598
-5618
-5624
-5607
-5579
-5561
-5553
-5533
-5482
-5409
-5342
-5296
-5251
-5168
-5034
-4874
-4732
-4624
-4528
-4417
-4294
-4190
-4122
-4074
-4007
-3905
-3788
-3690
-3614
-3539
-3437
-3310
-3185
-3089
-3023
-2971
-2910
-2835
-2758
-2696
-2655
-2627
-2597
-2557
-2518
-2501
-2514
-2551
-2589
-2618
-2651
-2707
-2782
-2845
-2877
-2897
-2938
-3010
-3079
-3111
-3114
-3128
-3177
-3250
-3316
-3363
-3401
-3442
-3486
-3537
-3602
-3675
-3733
-3763
-3772
-3785
-3815
-3846
-3866
-3880
-3901
-3926
-3938
-3933
-3927
-3937
-3954
-3956
-3931
-3888
-3834
-3760
-3664
-3561
-3462
-3353
-3211
-3047
-2910
-2843
-2824
-2792
-2712
-2617
-2563
-2563
-2576
-2553
-2492
-2424
-2371
-2320
-2259
-2199
-2163
-2157
-2156
-2128
-2071
-2015
-1989
-1998
-2019
-2024
-2008
-1986
-1977
-1985
-1992
-1983
-1948
-1894
-1837
-1791
-1760
-1736
-1705
-1655
-1597
-1560
-1558
-1574
-1570
-1523
-1452
-1393
-1355
-1302
-1209
-1101
-1034
-1029
-1034
-972
-823
-642
-489
-358
-174
109
446
753
1001
1251
1567
1921
2223
2417
2521
2554
2460
2141
1579
880
175
-495
-1170
-1864
-2490
-2920
-3101
-3080
-2941
-2727
-2440
-2083
-1681
-1264
-851
-460
-120
138
303
390
413
367
234
17
-252
-528
-777
-974
-1093
-1117
-1074
-1038
-1073
-1180
-1302
-1408
-1534
-1733
-1986
-2207
-2337
-2410
-2516
-2683
-2846
-2918
-2894
-2854
-2865
-2919
-2944
-2893
-2780
-2647
-2521
-2394
-2258
-2125
-2017
-1945
-1894
-1840
-1774
-1717
-1709
-1774
-1902
-2059
-2225
-2417
-2664
-2979
-3342
-3722
-4096
-4450
-4763
-5022
-5235
-5429
-5622
-5795
-5920
-5988
-6020
-6034
-6022
-5964
-5855
-5710
-5541
-5352
-5142
-4918
-4687
-4454
-4230
-4028
-3857
-3708
-3555
-3382
-3199
-3023
-2864
-2716
-2575
-2440
-2312
-2181
-2042
-1896
-1752
-1615
-1484
-1352
-1217
-1083
-959
-851
-762
-685
-610
-536
-475
-439
-423
-406
-375
-343
-323
-312
-284
-234
-182
-151
-129
-90
-30
17
22
-2
-13
14
62
96
111
125
153
190
223
259
304
356
398
425
447
478
516
550
577
613
676
760
845
914
972
1038
1118
1202
1272
1322
1366
1419
1485
1556
1621
1676
1726
1777
1834
1899
1963
2012
2035
2034
2032
2049
2090
2136
2166
2174
2177
2190
2212
2229
2231
2221
2219
2231
2244
2234
2199
2170
2175
2203
2214
2188
2147
2123
2116
2097
2058
2028
2035
2061
2050
1977
1867
1758
1666
1572
1462
1336
1206
1086
992
936
911
886
835
763
680
581
456
319
213
161
127
59
-50
-153
-206
-235
-320
-482
-666
-799
-876
-958
-1091
-1241
-1328
-1326
-1294
-1309
-1384
-1466
-1505
-1511
-1529
-1573
-1616
-1640
-1664
-1727
-1819
-1893
-1917
-1912
-1928
-1986
-2039
-2034
-1985
-1952
-1969
-1999
-1984
-1917
-1857
-1840
-1846
-1826
-1780
-1758
-1782
-1804
-1765
-1681
-1622
-1606
-1568
-1433
-1223
-1040
-944
-879
-767
-611
-491
-461
-466
-424
-332
-269
-282
-319
-302
-246
-245
-339
-436
-412
-268
-131
-101
-119
-60
114
298
374
346
314
360
453
472
294
-146
-821
-1620
-2426
-3211
-4054
-5020
-6038
-6917
-7492
-7761
-7851
-7880
-7872
-7783
-7579
-7283
-6961
-6675
-6449
-6270
-6116
-5998
-5950
-5983
-6059
-6135
-6223
-6378
-6614
-6858
-7013
-7057
-7067
-7135
-7280
-7466
-7660
-7878
-8167
-8553
-9014
-9495
-9962
-10419
-10884
-11381
-11912
-12473
-13056
-13645
-14208
-14714
-15153
-15537
-15872
-16146
-16353
-16524
-16705
-16915
-17126
-17299
-17434
-17561
-17691
-17785
-17771
-17612
-17329
-16968
-16557
-16094
-15575
-15023
-14481
-13971
-13466
-12918
-12314
-11697
-11124
-10595
-10043
-9417
-8740
-8096
-7544
-7065
-6594
-6094
-5581
-5095
-4642
-4198
-3729
-3219
-2680
-2146
-1649
-1201
-775
-338
106
510
834
1089
1335
1613
1924
2251
2586
2931
3266
3556
3796
4019
4261
4510
4719
4866
4980
5102
5248
5410
5585
5764
5918
6009
6044
6087
6198
6352
6460
6471
6435
6457
6569
6696
6746
6715
6682
6711
6789
6861
6896
6912
6942
6989
7037
7078
7109
7124
7122
7120
7139
7176
7197
7184
7171
7212
7310
7395
7403
7346
7298
7297
7303
7258
7162
7083
7064
7076
7061
7011
6970
6968
6977
6950
6879
6808
6772
6754
6704
6614
6526
6493
6517
6544
6526
6461
6386
6334
6298
6239
6142
6030
5950
5919
5906
5864
5776
5668
5581
5521
5462
5374
5257
5134
5027
4944
4890
4863
4855
4841
4797
4724
4649
4592
4552
4507
4437
4344
4249
4179
4156
4174
4200
4200
4165
4118
4085
4062
4033
3995
3956
3915
3859
3796
3774
3829
3916
3940
3852
3716
3643
3667
3714
3690
3589
3482
3433
3435
3447
3439
3412
3363
3280
3169
3062
2989
2950
2918
2875
2825
2782
2746
2699
2631
2550
2468
2385
2294
2192
2091
2010
1950
1899
1844
1779
1709
1635
1547
1437
1310
1183
1074
993
938
891
830
740
624
506
405
317
218
89
-55
-158
-164
-64
90
246
405
618
906
1223
1498
1718
1951
2258
2614
2926
3116
3158
3047
2753
2250
1573
814
51
-699
-1445
-2140
-2669
-2929
-2918
-2741
-2514
-2276
-1991
-1622
-1191
-760
-370
-19
308
595
816
965
1062
1115
1102
1001
840
686
592
558
561
587
645
729
811
862
877
874
873
881
904
940
987
1034
1073
1101
1120
1142
1180
1235
1286
1302
1282
1267
1304
1395
1482
1513
1496
1488
1538
1637
1739
1810
1851
1881
1913
1944
1972
1995
2015
2035
2061
2097
2142
2191
2247
2306
2362
2406
2437
2461
2480
2492
2495
2502
2532
2590
2655
2698
2712
2723
2762
2832
2900
2932
2931
2933
2962
3003
3022
3012
3003
3024
3062
3081
3065
3039
3032
3047
3063
3065
3063
3069
3079
3079
3061
3039
3022
3007
2982
2938
2876
2800
2719
2635
2551
2476
2420
2383
2348
2289
2207
2127
2063
1997
1898
1772
1667
1608
1544
1408
1211
1063
1057
1156
1223
1167
1044
981
1025
1092
1068
937
780
682
658
664
663
655
655
670
686
688
677
666
661
648
599
509
412
356
360
393
411
393
363
356
376
388
351
260
169
137
163
175
102
-30
-118
-87
6
30
-77
-233
-311
-277
-223
-257
-389
-530
-601
-602
-585
-582
-573
-528
-449
-376
-337
-317
-271
-176
-57
35
75
80
84
105
133
149
136
99
56
32
32
41
46
55
90
148
194
195
169
161
195
240
253
235
224
241
264
269
260
264
289
301
272
222
212
279
388
469
484
465
464
493
516
504
483
497
550
601
620
632
688
791
883
907
866
816
799
802
792
769
768
809
872
916
924
925
968
1069
1195
1292
1341
1385
1510
1780
2182
2636
3057
3417
3754
4125
4544
4969
5338
5633
5898
6206
6612
7114
7670
8241
8818
9409
10008
10586
11109
11569
11976
12331
12615
12821
12980
13148
13333
13495
13595
13645
13689
13758
13842
13930
14034
14164
14307
14440
14576
14751
14971
15169
15246
15131
14815
14309
13622
12778
11843
10895
9974
9080
8234
7521
7040
6811
6749
6733
6712
6723
6816
6974
7126
7234
7317
7410
7496
7514
7419
7232
6999
6737
6428
6059
5663
5294
4984
4735
4535
4366
4206
4027
3817
3584
3339
3082
2819
2572
2371
2212
2055
1862
1635
1418
1237
1078
901
698
496
329
196
67
-83
-249
-414
-570
-731
-905
-1085
-1257
-1418
-1583
-1764
-1953
-2132
-2303
-2484
-2688
-2902
-3105
-3290
-3470
-3648
-3810
-3942
-4049
-4150
-4257
-4362
-4456
-4537
-4605
-4659
-4688
-4688
-4660
-4606
-4523
-4409
-4266
-4105
-3941
-3790
-3660
-3541
-3416
-3280
-3156
-3063
-2987
-2896
-2777
-2659
-2579
-2525
-2454
-2345
-2235
-2176
-2180
-2197
-2180
-2124
-2063
-2035
-2063
-2136
-2212
-2245
-2218
-2183
-2211
-2317
-2438
-2502
-2505
-2516
-2589
-2709
-2819
-2900
-2989
-3128
-3311
-3481
-3601
-3690
-3798
-3948
-4109
-4221
-4259
-4257
-4267
-4309
-4360
-4387
-4388
-4388
-4403
-4421
-4423
-4408
-4397
-4399
-4402
-4380
-4323
-4234
-4135
-4054
-4005
-3972
-3920
-3839
-3754
-3699
-3672
-3636
-3570
-3493
-3443
-3426
-3411
-3374
-3322
-3277
-3240
-3208
-3179
-3164
-3153
-3116
-3040
-2954
-2897
-2872
-2847
-2799
-2745
-2719
-2730
-2747
-2748
-2742
-2751
-2768
-2754
-2693
-2617
-2578
-2590
-2611
-2584
-2509
-2450
-2458
-2515
-2556
-2534
-2476
-2441
-2452
-2473
-2462
-2417
-2380
-2385
-2420
-2452
-2455
-2428
-2390
-2359
-2338
-2318
-2284
-2232
-2184
-2174
-2199
-2206
-2148
-2033
-1927
-1876
-1851
-1779
-1638
-1486
-1405
-1406
-1425
-1400
-1335
-1274
-1248
-1240
-1221
-1183
-1151
-1128
-1103
-1071
-1047
-1048
-1060
-1054
-1027
-1007
-1015
-1035
-1020
-959
-910
-936
-1025
-1092
-1075
-1001
-955
-981
-1031
-1036
-981
-913
-863
-812
-722
-605
-517
-497
-519
-515
-446
-351
-293
-285
-268
-176
-3
183
333
485
703
986
1246
1409
1509
1634
1825
2036
2224
2420
2679
2973
3176
3167
2950
2604
2170
1605
869
17
-828
-1574
-2207
-2732
-3108
-3284
-3277
-3186
-3096
-2996
-2813
-2526
-2219
-2000
-1881
-1788
-1659
-1522
-1461
-1523
-1677
-1867
-2060
-2259
-2467
-2671
-2843
-2949
-2968
-2925
-2885
-2911
-3000
-3087
-3127
-3148
-3214
-3332
-3445
-3499
-3518
-3579
-3724
-3921
-4114
-4298
-4524
-4836
-5220
-5617
-5976
-6287
-6564
-6815
-7031
-7202
-7336
-7455
-7568
-7660
-7716
-7733
-7726
-7705
-7654
-7548
-7379
-7170
-6955
-6745
-6523
-6274
-6004
-5738
-5489
-5252
-5011
-4756
-4485
-4202
-3913
-3631
-3371
-3137
-2922
-2711
-2499
-2287
-2084
-1889
-1700
-1509
-1313
-1110
-910
-722
-550
-385
-216
-43
131
306
484
664
827
958
1063
1167
1281
1391
1474
1518
1544
1578
1628
1677
1710
1728
1738
1746
1741
1721
1699
1692
1698
1694
1656
1598
1551
1527
1507
1475
1436
1405
1382
1351
1310
1284
1292
1321
1333
1317
1291
1265
1209
1092
937
801
723
680
634
588
583
637
722
804
882
977
1080
1160
1199
1219
1261
1334
1411
1457
1466
1455
1439
1421
1402
1375
1339
1295
1251
1208
1175
1163
1186
1238
1290
1305
1282
1254
1253
1269
1266
1231
1190
1178
1194
1208
1194
1160
1128
1108
1096
1083
1070
1051
1014
962
916
896
894
884
851
806
774
762
750
709
640
573
533
517
495
450
390
342
310
272
210
141
95
87
89
70
27
-23
-65
-99
-125
-134
-134
-158
-222
-298
-332
-308
-273
-286
-353
-421
-432
-393
-360
-382
-450
-522
-561
-567
-579
-631
-734
-865
-984
-1067
-1121
-1176
-1260
-1384
-1524
-1644
-1698
-1668
-1588
-1535
-1581
-1714
-1811
-1724
-1441
-1143
-1056
-1222
-1440
-1478
-1314
-1157
-1195
-1408
-1604
-1645
-1578
-1542
-1594
-1687
-1754
-1778
-1773
-1746
-1704
-1668
-1649
-1630
-1586
-1531
-1499
-1500
-1492
-1451
-1402
-1380
-1369
-1312
-1185
-1029
-892
-755
-578
-376
-230
-206
-323
-585
-1025
-1657
-2406
-3141
-3797
-4422
-5069
-5689
-6142
-6341
-6335
-6229
-6050
-5762
-5375
-4978
-4652
-4369
-4041
-3659
-3344
-3226
-3296
-3412
-3439
-3386
-3380
-3521
-3776
-4012
-4115
-4081
-4002
-3968
-4004
-4064
-4101
-4123
-4178
-4311
-4517
-4737
-4907
-5016
-5111
-5258
-5494
-5790
-6088
-6348
-6583
-6838
-7147
-7506
-7879
-8233
-8566
-8906
-9284
-9701
-10130
-10536
-10900
-11227
-11524
-11784
-11987
-12130
-12238
-12343
-12454
-12549
-12609
-12648
-12699
-12773
-12825
-12798
-12673
-12477
-12238
-11945
-11569
-11121
-10671
-10284
-9948
-9590
-9161
-8701
-8292
-7950
-7590
-7116
-6541
-5985
-5540
-5168
-4750
-4231
-3681
-3216
-2869
-2565
-2213
-1794
-1369
-993
-670
-363
-43
285
598
876
1121
1346
1558
1747
1912
2061
2218
2393
2573
2727
2841
2933
3028
3130
3223
3288
3330
3364
3398
3428
3455
3487
3535
3588
3624
3633
3632
3649
3696
3754
3789
3788
3772
3773
3807
3857
3896
3899
3871
3837
3827
3847
3878
3902
3915
3936
3977
4035
4094
4149
4193
4211
4194
4163
4156
4192
4247
4283
4294
4307
4340
4387
4431
4475
4529
4575
4585
4556
4532
4559
4633
4701
4720
4699
4688
4716
4770
4816
4839
4850
4865
4887
4910
4926
4941
4966
4992
5001
4979
4935
4893
4863
4843
4823
4798
4763
4713
4650
4602
4589
4595
4573
4502
4422
4393
4415
4422
4356
4242
4159
4137
4129
4066
3946
3835
3779
3757
3713
3634
3564
3547
3578
3600
3568
3481
3388
3334
3322
3302
3220
3075
2928
2844
2828
2820
2760
2643
2519
2429
2380
2346
2301
2228
2121
1994
1884
1817
1788
1746
1651
1519
1401
1333
1297
1246
1164
1084
1042
1033
1017
963
882
813
778
761
745
725
709
698
677
639
599
584
591
581
538
492
505
604
758
918
1074
1250
1461
1695
1946
2233
2559
2868
3077
3159
3157
3104
2939
2549
1914
1163
474
-95
-623
-1178
-1691
-2001
-2019
-1822
-1568
-1349
-1130
-841
-490
-150
126
352
566
773
938
1043
1112
1170
1202
1179
1117
1075
1090
1141
1189
1240
1332
1478
1628
1723
1765
1808
1883
1965
2011
2014
2010
2031
2072
2109
2129
2143
2163
2186
2198
2195
2197
2218
2248
2250
2196
2109
2043
2028
2037
2014
1940
1845
1777
1753
1748
1739
1722
1700
1670
1632
1601
1592
1590
1568
1527
1506
1544
1625
1699
1738
1761
1808
1880
1945
1977
1979
1969
1962
1964
1983
2018
2057
2092
2126
2171
2226
2269
2289
2300
2321
2350
2368
2368
2366
2380
2407
2426
2427
2423
2426
2439
2457
2482
2511
2532
2534
2518
2499
2475
2418
2309
2168
2039
1949
1880
1796
1682
1556
1437
1330
1223
1115
1016
944
899
871
842
808
790
810
862
907
907
860
805
780
784
781
744
685
638
627
639
651
637
593
534
482
452
447
449
437
408
381
384
418
455
461
437
409
395
385
353
300
264
267
293
304
290
282
309
356
389
395
390
388
374
333
275
234
223
225
217
196
176
167
171
181
186
169
126
77
60
87
128
141
116
81
62
64
82
119
170
216
231
227
245
307
378
399
353
287
260
284
323
341
337
335
357
409
481
563
633
670
673
660
666
714
802
906
1004
1091
1186
1307
1450
1712
1784
1840
1908
1993
2071
2117
2128
2116
2098
2073
2040
2007
1993
2016
2075
2146
2191
2192
2175
2188
2261
2361
2423
2413
2365
2343
2374
2433
2500
2595
2747
2935
3117
3291
3508
3796
4104
4350
4527
4719
5004
5365
5722
6033
6336
6680
7074
7504
7966
8451
8906
9261
9515
9754
10042
10335
10531
10608
10669
10836
11107
11374
11552
11664
11806
12038
12339
12640
12887
13050
13129
13138
13073
12877
12457
11757
10836
9846
8919
8074
7253
6442
5729
5242
5023
5006
5081
5191
5333
5498
5661
5803
5941
6089
6227
6302
6278
6177
6050
5914
5747
5511
5205
4879
4598
4398
4267
4164
4051
3924
3800
3685
3555
3392
3207
3026
2861
2697
2525
2364
2230
2115
1987
1831
1665
1517
1388
1256
1108
958
829
724
624
507
371
226
81
-65
-213
-357
-493
-626
-759
-889
-1009
-1109
-1191
-1269
-1351
-1438
-1515
-1571
-1610
-1653
-1713
-1777
-1815
-1818
-1813
-1835
-1883
-1926
-1939
-1939
-1960
-2011
-2068
-2112
-2151
-2204
-2270
-2320
-2338
-2338
-2350
-2385
-2426
-2443
-2431
-2418
-2436
-2483
-2524
-2529
-2515
-2530
-2594
-2670
-2709
-2713
-2721
-2767
-2831
-2877
-2913
-2973
-3073
-3175
-3240
-3273
-3308
-3365
-3422
-3452
-3462
-3475
-3506
-3543
-3576
-3604
-3638
-3688
-3750
-3813
-3867
-3904
-3924
-3940
-3956
-3966
-3961
-3941
-3915
-3893
-3874
-3854
-3828
-3799
-3765
-3732
-3708
-3693
-3676
-3645
-3609
-3599
-3635
-3702
-3751
-3745
-3697
-3659
-3668
-3700
-3693
-3611
-3489
-3404
-3394
-3424
-3425
-3377
-3322
-3313
-3340
-3336
-3256
-3128
-3032
-3006
-3017
-2998
-2927
-2844
-2802
-2813
-2835
-2818
-2758
-2681
-2608
-2527
-2431
-2344
-2308
-2333
-2369
-2360
-2299
-2242
-2238
-2273
-2282
-2226
-2123
-2025
-1959
-1913
-1869
-1834
-1829
-1852
-1866
-1846
-1814
-1812
-1835
-1823
-1722
-1549
-1389
-1303
-1274
-1239
-1176
-1110
-1068
-1037
-991
-923
-852
-783
-700
-604
-522
-470
-421
-337
-224
-129
-79
-46
18
115
199
231
229
237
268
295
291
261
232
233
279
383
535
698
815
848
835
858
957
1079
1120
1039
901
818
826
867
864
804
734
686
640
564
465
384
338
293
202
62
-72
-147
-154
-134
-131
-155
-184
-197
-201
-208
-218
-228
-249
-337
-393
-482
-536
-555
-574
-595
-573
-467
-310
-186
-163
-255
-463
-826
-1389
-2133
-2961
-3778
-4574
-5386
-6198
-6895
-7357
-7580
-7682
-7783
-7900
-7968
-7952
-7903
-7901
-7959
-8036
-8105
-8198
-8344
-8509
-8613
-8633
-8632
-8685
-8780
-8820
-8720
-8492
-8216
-7959
-7715
-7449
-7147
-6833
-6529
-6236
-5945
-5656
-5368
-5069
-4740
-4377
-4011
-3677
-3386
-3118
-2847
-2568
-2293
-2032
-1777
-1519
-1259
-1013
-786
-571
-354
-136
66
235
371
497
630
766
889
998
1107
1222
1321
1376
1387
1388
1411
1457
1503
1539
1573
1614
1651
1679
1712
1768
1836
1879
1875
1846
1834
1855
1890
1918
1944
1986
2040
2091
2136
2190
2266
2347
2401
2422
2434
2468
2524
2577
2610
2626
2640
2660
2679
2694
2709
2726
2740
2747
2749
2755
2762
2758
2738
2706
2669
2625
2569
2506
2449
2405
2359
2294
2210
2126
2064
2023
1983
1925
1848
1767
1694
1631
1571
1508
1441
1373
1308
1248
1192
1138
1087
1038
990
942
897
864
843
826
795
750
706
679
669
660
634
595
559
535
515
488
452
418
393
378
370
365
358
343
320
295
275
257
236
215
201
195
182
149
102
64
51
52
40
-1
-55
-87
-74
-32
-6
-32
-98
-161
-198
-226
-272
-327
-355
-351
-370
-462
-593
-680
-691
-694
-767
-892
-971
-959
-915
-911
-928
-894
-794
-713
-728
-815
-890
-918
-926
-942
-950
-931
-902
-889
-869
-801
-701
-654
-708
-798
-809
-710
-591
-549
-575
-587
-542
-499
-530
-613
-658
-620
-549
-525
-549
-536
-422
-238
-80
-4
22
64
138
198
189
110
8
-56
-70
-74
-114
-182
-227
-204
-152
-166
-286
-447
-557
-606
-687
-878
-1146
-1390
-1566
-1723
-1927
-2169
-2390
-2564
-2726
-2927
-3186
-3479
-3783
-4077
-4345
-4580
-4805
-5047
-5289
-5467
-5545
-5581
-5680
-5867
-6045
-6089
-6004
-5918
-5940
-6040
-6078
-5964
-5745
-5552
-5464
-5438
-5367
-5185
-4918
-4661
-4503
-4486
-4618
-4901
-5358
-6017
-6860
-7807
-8775
-9727
-10680
-11635
-12517
-13203
-13630
-13854
-14003
-14170
-14351
-14496
-14596
-14685
-14796
-14925
-15054
-15192
-15358
-15549
-15728
-15884
-16046
-16263
-16539
-16812
-16994
-17040
-16963
-16814
-16641
-16448
-16194
-15836
-15375
-14874
-14415
-14018
-13618
-13132
-12545
-11928
-11361
-10853
-10334
-9731
-9053
-8388
-7820
-7352
-6916
-6441
-5918
-5393
-4910
-4464
-4022
-3557
-3076
-2602
-2155
-1741
-1365
-1013
-663
-295
85
450
782
1090
1402
1714
1994
2218
2404
2592
2797
2995
3152
3275
3411
3593
3797
3965
4067
4125
4201
4324
4464
4571
4641
4720
4852
5025
5179
5275
5328
5380
5451
5519
5564
5586
5605
5638
5695
5773
5862
5941
6000
6047
6102
6159
6195
6194
6179
6187
6232
6295
6340
6350
6336
6315
6301
6293
6273
6225
6147
6058
5983
5935
5908
5889
5859
5806
5721
5620
5542
5505
5490
5461
5406
5356
5348
5381
5411
5389
5307
5207
5139
5118
5106
5058
4975
4908
4911
4978
5046
5058
5022
4994
5009
5046
5054
5010
4936
4875
4850
4856
4870
4875
4868
4854
4843
4841
4841
4831
4807
4785
4792
4833
4872
4857
4778
4679
4624
4628
4640
4605
4517
4425
4374
4366
4377
4384
4376
4346
4291
4233
4205
4217
4238
4223
4158
4080
4028
4007
3990
3949
3888
3836
3815
3822
3833
3820
3777
3723
3682
3664
3654
3624
3563
3482
3410
3373
3371
3379
3369
3329
3275
3228
3193
3156
3098
3023
2947
2887
2841
2799
2750
2694
2642
2602
2575
2548
2507
2450
2394
2353
2323
2273
2182
2060
1948
1879
1846
1803
1714
1591
1485
1427
1396
1343
1249
1142
1061
1002
937
866
817
810
816
801
775
787
857
946
992
978
947
947
981
1019
1041
1048
1060
1094
1156
1231
1302
1357
1406
1465
1540
1618
1687
1764
1885
2071
2308
2564
2816
3068
3330
3596
3857
4119
4408
4736
5071
5346
5512
5560
5499
5303
4915
4313
3570
2809
2106
1455
836
300
-50
-162
-97
30
173
373
685
1082
1471
1794
2074
2365
2656
2868
2928
2849
2716
2596
2453
2200
1815
1400
1112
1023
1062
1097
1066
1021
1036
1111
1174
1174
1134
1109
1105
1080
1006
918
881
917
983
1016
999
972
982
1036
1094
1113
1099
1093
1127
1190
1253
1309
1377
1469
1568
1645
1699
1759
1850
1963
2074
2178
2285
2405
2538
2675
2814
2946
3051
3115
3151
3195
3276
3402
3555
3701
3797
3814
3777
3753
3787
3847
3849
3751
3611
3541
3598
3738
3872
3949
3983
4004
4018
4014
3980
3920
3848
3770
3694
3624
3564
3517
3485
3464
3443
3408
3345
3250
3127
2991
2864
2758
2659
2545
2398
2234
2079
1947
1820
1673
1509
1351
1214
1086
939
771
613
495
415
336
230
113
22
-30
-64
-106
-145
-166
-181
-221
-286
-324
-288
-195
-119
-101
-117
-121
-113
-121
-149
-169
-181
-223
-308
-365
-309
-144
16
65
23
-4
52
145
190
164
114
92
96
104
107
128
187
280
389
493
568
604
622
656
728
830
925
982
984
936
870
844
897
997
1036
930
714
528
472
506
496
364
181
89
151
297
407
434
427
459
536
606
616
570
525
532
604
706
792
835
843
855
910
1024
1163
1261
1284
1271
1317
1469
1674
1831
1897
1928
2000
2114
2206
2240
2260
2325
2440
2561
2677
2831
3060
3332
3568
3730
3867
4061
4337
4645
4913
5127
5343
5632
6013
6447
6862
7216
7536
7891
8340
8866
9367
9739
9978
10185
10477
10857
11208
11409
11465
11486
11565
11692
11787
11807
11798
11839
11936
12019
12010
11913
11804
11747
11725
11657
11498
11288
11103
10969
10820
10566
10190
9767
9377
9025
8644
8181
7656
7165
6789
6525
6295
6028
5741
5536
5486
5542
5578
5525
5452
5484
5641
5800
5816
5662
5406
5090
4654
4014
3185
2298
1486
783
136
-473
-979
-1296
-1426
-1480
-1561
-1656
-1672
-1555
-1380
-1274
-1286
-1338
-1322
-1213
-1088
-1044
-1104
-1222
-1349
-1468
-1585
-1702
-1817
-1926
-2022
-2090
-2123
-2134
-2158
-2218
-2306
-2398
-2477
-2542
-2598
-2645
-2680
-2713
-2757
-2820
-2900
-2985
-3055
-3095
-3117
-3147
-3201
-3262
-3292
-3273
-3223
-3177
-3110
-3153
-3183
-3229
-3266
-3269
-3242
-3220
-3224
-3229
-3193
-3110
-3028
-2991
-2986
-2972
-2942
-2936
-2981
-3043
-3060
-3017
-2960
-2938
-2939
-2916
-2856
-2805
-2802
-2828
-2832
-2796
-2754
-2742
-2736
-2686
-2581
-2470
-2408
-2393
-2382
-2343
-2291
-2266
-2293
-2365
-2457
-2549
-2636
-2731
-2852
-2992
-3110
-3162
-3152
-3131
-3141
-3173
-3182
-3154
-3123
-3140
-3213
-3308
-3387
-3446
-3498
-3549
-3589
-3614
-3636
-3665
-3694
-3710
-3716
-3727
-3749
-3761
-3734
-3674
-3616
-3590
-3577
-3534
-3455
-3388
-3389
-3453
-3515
-3509
-3427
-3317
-3233
-3184
-3144
-3090
-3013
-2917
-2811
-2713
-2638
-2594
-2569
-2541
-2493
-2425
-2340
-2249
-2172
-2122
-2088
-2037
-1944
-1827
-1745
-1743
-1796
-1820
-1751
-1612
-1492
-1452
-1463
-1438
-1322
-1160
-1049
-1049
-1118
-1161
-1124
-1041
-985
-981
-987
-951
-879
-831
-840
-886
-926
-959
-1016
-1098
-1147
-1103
-979
-855
-800
-803
-812
-812
-845
-944
-1070
-1154
-1172
-1165
-1169
-1161
-1100
-998
-914
-879
-852
-769
-623
-468
-350
-256
-150
-19
112
215
275
285
240
167
123
148
224
282
277
239
233
288
359
372
298
178
81
45
55
71
63
27
-21
-67
-116
-185
-276
-378
-472
-555
-648
-781
-956
-1143
-1309
-1454
-1611
-1799
-1996
-2155
-2266
-2360
-2473
-2606
-2727
-2804
-2839
-2860
-2895
-2950
-3009
-3048
-3065
-3092
-3169
-3299
-3439
-3541
-3608
-3684
-3793
-3903
-3957
-3948
-3927
-3949
-4017
-4077
-4089
-4076
-4088
-4144
-4199
-4197
-4135
-4073
-4063
-4106
-4191
-4362
-4718
-5311
-6060
-6801
-7435
-8008
-8602
-9183
-9592
-9706
-9553
-9261
-8903
-8451
-7882
-7266
-6714
-6247
-5789
-5286
-4797
-4432
-4215
-4050
-3830
-3556
-3314
-3163
-3068
-2951
-2774
-2556
-2325
-2086
-1838
-1603
-1408
-1250
-1092
-912
-735
-605
-525
-444
-314
-152
-26
22
27
61
151
257
326
358
399
482
590
684
747
797
858
929
998
1057
1117
1186
1263
1338
1403
1463
1523
1591
1661
1722
1764
1788
1815
1863
1928
1988
2031
2073
2136
2214
2269
2274
2253
2260
2319
2393
2421
2385
2330
2309
2335
2373
2387
2377
2365
2368
2385
2408
2433
2462
2488
2499
2486
2457
2431
2423
2421
2397
2335
2253
2185
2150
2134
2106
2061
2017
1986
1958
1911
1845
1783
1735
1684
1601
1485
1366
1260
1151
1017
868
739
650
585
523
471
449
447
426
367
298
264
265
246
159
24
-88
-132
-130
-141
-193
-256
-284
-268
-242
-244
-275
-307
-320
-320
-331
-358
-379
-371
-344
-330
-344
-371
-378
-360
-338
-337
-361
-393
-416
-432
-447
-460
-463
-452
-433
-417
-411
-418
-441
-480
-522
-553
-571
-595
-644
-714
-766
-774
-753
-746
-778
-825
-837
-795
-735
-707
-735
-793
-838
-851
-844
-847
-866
-877
-858
-813
-760
-693
-594
-472
-384
-396
-500
-601
-612
-549
-521
-598
-711
-722
-600
-459
-420
-489
-559
-564
-555
-610
-729
-854
-968
-1100
-1239
-1291
-1174
-944
-755
-696
-696
-614
-406
-163
-6
21
-28
-67
-52
10
79
110
72
-33
-174
-313
-426
-525
-650
-833
-1072
-1323
-1530
-1677
-1801
-1942
-2106
-2283
-2479
-2692
-2900
-3070
-3199
-3335
-3514
-3708
-3860
-3952
-4045
-4202
-4402
-4557
-4610
-4608
-4649
-4777
-4935
-5027
-5031
-5031
-5123
-5319
-5523
-5626
-5599
-5524
-5516
-5634
-5831
-5989
-6029
-5963
-5879
-5861
-5924
-6019
-6088
-6099
-6054
-5987
-5952
-5995
-6109
-6232
-6301
-6334
-6411
-6619
-7002
-7600
-8464
-9605
-10910
-12196
-13369
-14500
-15691
-16888
-17870
-18459
-18690
-18743
-18728
-18603
-18299
-17861
-17428
-17083
-16784
-16450
-16074
-15746
-15549
-15480
-15452
-15376
-15224
-15040
-14864
-14673
-14390
-13956
-13399
-12817
-12287
-11806
-11318
-10793
-10266
-9785
-9355
-8931
-8464
-7951
-7430
-6944
-6500
-6074
-5639
-5195
-4760
-4339
-3916
-3469
-3004
-2559
-2161
-1799
-1435
-1054
-681
-348
-58
212
482
757
1037
1331
1642
1955
2242
2487
2699
2903
3106
3307
3501
3684
3850
3994
4123
4266
4440
4630
4789
4886
4942
5008
5115
5250
5376
5478
5567
5666
5783
5919
6076
6253
6430
6572
6658
6702
6750
6833
6940
7025
7056
7056
7081
7165
7283
7381
7434
7463
7503
7553
7583
7577
7566
7586
7630
7643
7587
7491
7427
7422
7420
7354
7226
7110
7061
7055
7018
6919
6797
6704
6639
6560
6450
6334
6249
6191
6130
6047
5956
5878
5816
5755
5677
5566
5415
5240
5076
4959
4886
4822
4730
4615
4508
4424
4343
4239
4110
3979
3862
3753
3643
3541
3464
3414
3365
3296
3222
3173
3161
3149
3097
3010
2938
2916
2918
2884
2791
2687
2646
2691
2772
2819
2807
2767
2750
2777
2827
2865
2862
2827
2789
2784
2818
2870
2915
2945
2972
2999
3010
2992
2955
2926
2916
2910
2891
2858
2828
2812
2808
2813
2826
2840
2831
2779
2697
2630
2611
2628
2635
2595
2515
2439
2406
2422
2457
2479
2474
2461
2468
2504
2538
2533
2478
2401
2338
2298
2264
2222
2174
2130
2097
2072
2061
2061
2053
2018
1957
1890
1841
1809
1782
1751
1724
1703
1686
1677
1687
1717
1743
1739
1706
1670
1656
1657
1653
1634
1607
1582
1565
1554
1545
1525
1482
1421
1363
1333
1328
1327
1306
1269
1231
1210
1207
1214
1217
1202
1170
1143
1142
1164
1175
1146
1089
1049
1054
1082
1084
1047
1005
1012
1088
1217
1365
1517
1682
1883
2124
2379
2617
2843
3105
3434
3795
4100
4296
4390
4391
4231
3813
3125
2305
1517
802
82
-680
-1367
-1790
-1880
-1754
-1572
-1384
-1117
-713
-225
233
611
946
1289
1622
1869
1981
1984
1940
1879
1782
1620
1406
1189
1018
910
858
854
896
976
1065
1126
1142
1138
1158
1221
1295
1324
1283
1209
1156
1144
1148
1132
1094
1063
1071
1110
1149
1163
1159
1168
1207
1257
1281
1265
1234
1226
1255
1298
1331
1355
1387
1431
1476
1518
1578
1682
1821
1956
2054
2119
2185
2275
2376
2464
2537
2618
2726
2847
2948
3010
3047
3094
3167
3251
3316
3355
3388
3438
3506
3574
3625
3655
3672
3683
3694
3705
3712
3703
3676
3646
3640
3669
3709
3723
3702
3675
3674
3694
3698
3666
3617
3581
3562
3540
3495
3442
3399
3361
3297
3192
3069
2962
2875
2785
2673
2546
2422
2302
2181
2060
1953
1866
1787
1700
1604
1506
1413
1330
1263
1213
1162
1081
965
851
789
783
790
765
710
662
635
608
554
490
447
430
401
330
237
182
193
243
282
288
286
306
339
351
324
278
249
248
247
223
181
148
147
176
222
276
329
367
381
380
389
421
453
447
392
323
287
306
356
410
458
499
534
562
589
633
701
777
836
866
874
878
892
921
958
984
978
942
902
891
916
949
946
899
846
846
917
1014
1072
1080
1106
1232
1470
1745
1971
2142
2327
2584
2891
3170
3370
3520
3684
3896
4134
4366
4598
4870
5204
5560
5876
6131
6381
6692
7063
7432
7733
7967
8186
8422
8658
8861
9021
9135
9191
9183
9140
9118
9133
9147
9108
9019
8927
8860
8794
8696
8576
8467
8372
8250
8079
7885
7724
7613
7514
7389
7241
7095
6960
6816
6650
6474
6305
6137
5946
5720
5481
5260
5074
4919
4789
4686
4609
4543
4464
4362
4244
4119
3982
3812
3594
3349
3125
2971
2901
2885
2882
2873
2881
2938
3043
3158
3245
3314
3411
3560
3730
3848
3857
3740
3491
3093
2521
1800
1009
232
-502
-1215
-1899
-2476
-2846
-2985
-2980
-2948
-2926
-2864
-2714
-2502
-2306
-2167
-2062
-1957
-1856
-1794
-1796
-1851
-1942
-2073
-2246
-2440
-2612
-2734
-2807
-2841
-2841
-2812
-2776
-2763
-2784
-2819
-2845
-2855
-2853
-2845
-2829
-2805
-2772
-2735
-2697
-2665
-2646
-2641
-2643
-2639
-2628
-2611
-2583
-2541
-2485
-2426
-2378
-2342
-2310
-2272
-2228
-2183
-2138
-2094
-2049
-2009
-1984
-1980
-1995
-2024
-2060
-2096
-2128
-2157
-2182
-2201
-2206
-2189
-2160
-2135
-2122
-2116
-2102
-2081
-2062
-2058
-2063
-2053
-2013
-1950
-1886
-1845
-1820
-1790
-1740
-1683
-1646
-1641
-1650
-1648
-1630
-1616
-1620
-1633
-1637
-1629
-1626
-1643
-1667
-1675
-1659
-1635
-1631
-1651
-1682
-1706
-1715
-1718
-1727
-1750
-1781
-1809
-1824
-1828
-1835
-1859
-1904
-1961
-2011
-2045
-2069
-2099
-2147
-2205
-2253
-2286
-2316
-2352
-2382
-2394
-2404
-2441
-2511
-2574
-2587
-2547
-2495
-2475
-2493
-2521
-2535
-2530
-2511
-2491
-2489
-2516
-2557
-2581
-2566
-2523
-2481
-2451
-2421
-2384
-2353
-2341
-2335
-2305
-2243
-2177
-2141
-2136
-2137
-2130
-2124
-2131
-2135
-2112
-2069
-2045
-2061
-2088
-2066
-1983
-1884
-1831
-1836
-1856
-1850
-1829
-1832
-1860
-1863
-1795
-1684
-1604
-1588
-1576
-1491
-1340
-1220
-1202
-1240
-1230
-1131
-1002
-909
-842
-749
-631
-552
-541
-540
-473
-359
-300
-363
-502
-615
-657
-674
-724
-797
-835
-808
-747
-697
-675
-666
-650
-619
-583
-554
-539
-542
-553
-546
-500
-418
-332
-273
-236
-190
-118
-45
-13
-28
-52
-55
-63
-120
-228
-331
-376
-385
-429
-556
-728
-871
-942
-962
-980
-1024
-1090
-1156
-1204
-1230
-1247
-1261
-1270
-1264
-1244
-1233
-1268
-1352
-1456
-1551
-1648
-1782
-1965
-2166
-2335
-2455
-2548
-2644
-2744
-2827
-2871
-2875
-2857
-2845
-2851
-2874
-2905
-2949
-3017
-3108
-3188
-3212
-3178
-3152
-3205
-3335
-3449
-3466
-3419
-3416
-3511
-3629
-3647
-3543
-3433
-3448
-3621
-3906
-4288
-4817
-5524
-6335
-7116
-7789
-8378
-8915
-9344
-9552
-9481
-9194
-8818
-8431
-8032
-7589
-7105
-6617
-6159
-5741
-5353
-4993
-4661
-4366
-4112
-3909
-3758
-3646
-3544
-3417
-3245
-3032
-2788
-2522
-2244
-1974
-1734
-1528
-1337
-1136
-931
-749
-607
-489
-364
-219
-74
45
133
212
298
391
484
579
679
781
877
964
1049
1133
1202
1241
1254
1265
1297
1347
1396
1428
1449
1475
1513
1556
1590
1600
1589
1572
1568
1589
1627
1662
1679
1684
1697
1731
1782
1834
1880
1925
1972
2019
2064
2111
2169
2235
2296
2347
2396
2456
2526
2590
2633
2658
2678
2709
2752
2796
2830
2849
2860
2875
2898
2918
2918
2895
2864
2843
2832
2818
2790
2753
2713
2672
2625
2572
2517
2457
2383
2286
2174
2065
1968
1880
1797
1715
1634
1550
1455
1351
1247
1153
1066
976
880
785
700
635
589
562
545
522
486
442
407
387
369
334
283
241
226
231
225
189
139
110
124
167
205
213
200
192
208
238
253
239
203
163
122
71
10
-49
-93
-132
-176
-225
-258
-269
-277
-307
-357
-400
-418
-437
-491
-578
-656
-688
-688
-713
-791
-875
-905
-875
-853
-900
-998
-1073
-1072
-1016
-961
-928
-905
-889
-882
-874
-831
-738
-632
-574
-577
-587
-545
-445
-331
-251
-223
-231
-237
-210
-148
-83
-54
-49
-32
13
58
75
75
105
171
223
217
171
144
168
219
259
276
278
270
252
238
251
285
293
231
116
9
-54
-115
-249
-485
-768
-1015
-1212
-1420
-1705
-2054
-2388
-2651
-2857
-3059
-3281
-3507
-3722
-3946
-4206
-4476
-4706
-4879
-5047
-5274
-5553
-5805
-5953
-6010
-6058
-6165
-6321
-6467
-6557
-6597
-6624
-6668
-6726
-6778
-6804
-6804
-6801
-6817
-6858
-6901
-6920
-6922
-6938
-6987
-7043
-7068
-7047
-7000
-6949
-6919
-6946
-7058
-7227
-7355
-7360
-7299
-7345
-7624
-8089
-8601
-9124
-9782
-10707
-11859
-13034
-14060
-14915
-15662
-16310
-16778
-17000
-17003
-16874
-16662
-16364
-15987
-15586
-15215
-14853
-14426
-13898
-13339
-12859
-12496
-12190
-11869
-11543
-11283
-11118
-10983
-10783
-10491
-10149
-9793
-9399
-8926
-8388
-7864
-7422
-7060
-6726
-6381
-6030
-5692
-5373
-5056
-4721
-4363
-3996
-3637
-3302
-2992
-2695
-2395
-2080
-1755
-1434
-1132
-848
-562
-251
85
417
703
929
1125
1335
1576
1821
2029
2192
2359
2580
2853
3122
3330
3473
3597
3742
3902
4044
4160
4278
4419
4572
4704
4811
4928
5082
5240
5335
5347
5335
5384
5510
5649
5726
5742
5760
5831
5938
6034
6103
6178
6282
6385
6435
6428
6423
6475
6571
6640
6637
6588
6560
6587
6645
6685
6687
6662
6616
6552
6481
6431
6413
6393
6329
6223
6126
6081
6070
6024
5906
5761
5675
5668
5665
5584
5436
5326
5312
5327
5245
5038
4826
4743
4784
4821
4764
4665
4625
4655
4660
4572
4430
4315
4243
4165
4057
3963
3938
3973
4017
4030
4019
3997
3961
3906
3846
3795
3739
3655
3549
3455
3401
3377
3353
3322
3297
3290
3290
3280
3261
3255
3272
3292
3267
3175
3051
2963
2943
2950
2908
2795
2673
2623
2650
2681
2647
2557
2475
2432
2401
2349
2288
2259
2262
2261
2228
2182
2150
2132
2100
2051
2018
2027
2047
2026
1952
1875
1842
1847
1836
1779
1704
1656
1652
1665
1669
1657
1646
1642
1641
1631
1605
1561
1504
1449
1415
1405
1405
1396
1383
1386
1418
1460
1484
1480
1466
1462
1469
1468
1447
1423
1416
1432
1450
1449
1425
1399
1393
1404
1414
1412
1407
1417
1450
1495
1542
1587
1632
1681
1734
1791
1845
1884
1895
1883
1867
1864
1872
1875
1864
1845
1826
1816
1815
1821
1833
1841
1833
1804
1763
1722
1695
1695
1736
1823
1943
2074
2209
2360
2536
2728
2922
3126
3363
3637
3908
4120
4231
4224
4068
3714
3132
2368
1535
730
-26
-751
-1418
-1925
-2181
-2186
-2040
-1845
-1628
-1358
-1017
-637
-262
90
425
740
1011
1216
1358
1445
1474
1425
1303
1146
1013
943
935
974
1046
1147
1263
1371
1443
1468
1458
1434
1415
1413
1425
1442
1452
1452
1444
1440
1447
1464
1479
1483
1473
1458
1454
1473
1511
1550
1568
1560
1544
1553
1596
1655
1701
1733
1772
1840
1928
2011
2074
2127
2178
2222
2255
2292
2359
2456
2547
2606
2651
2722
2822
2909
2945
2953
2986
3061
3137
3170
3172
3191
3251
3321
3356
3353
3345
3363
3396
3410
3381
3326
3289
3298
3331
3333
3278
3198
3152
3163
3198
3212
3194
3161
3117
3046
2952
2878
2848
2833
2773
2662
2565
2542
2565
2552
2469
2363
2290
2232
2119
1923
1712
1583
1551
1524
1413
1228
1068
1009
1014
977
834
637
488
430
411
352
244
140
85
61
17
-68
-161
-220
-247
-284
-353
-428
-457
-428
-379
-359
-370
-375
-341
-278
-220
-179
-139
-95
-78
-119
-197
-256
-265
-263
-312
-410
-489
-495
-443
-396
-383
-375
-343
-311
-318
-354
-358
-294
-200
-142
-131
-110
-34
84
197
286
370
456
511
516
513
570
693
810
854
842
857
953
1096
1207
1250
1264
1306
1395
1512
1631
1738
1836
1928
2026
2143
2273
2387
2466
2528
2630
2800
3016
3233
3447
3693
3998
4334
4651
4937
5223
5538
5869
6189
6500
6843
7252
7729
8222
8678
9074
9443
9842
10275
10668
10912
10981
10972
11006
11099
11143
11047
10835
10622
10475
10361
10208
10001
9785
9602
9445
9288
9130
8985
8852
8712
8553
8386
8218
8036
7814
7560
7309
7080
6853
6598
6323
6084
5927
5832
5734
5588
5407
5239
5109
5006
4903
4789
4666
4549
4445
4355
4265
4151
3999
3818
3634
3451
3253
3021
2774
2554
2393
2287
2206
2124
2056
2034
2076
2152
2215
2248
2295
2416
2614
2811
2912
2873
2704
2423
2008
1435
725
-55
-836
-1587
-2294
-2908
-3350
-3573
-3618
-3581
-3532
-3462
-3312
-3066
-2784
-2546
-2384
-2268
-2157
-2050
-1983
-1990
-2060
-2166
-2292
-2443
-2624
-2809
-2947
-2999
-2967
-2901
-2857
-2859
-2887
-2906
-2897
-2876
-2863
-2861
-2853
-2823
-2774
-2722
-2680
-2650
-2622
-2592
-2567
-2555
-2556
-2556
-2539
-2499
-2453
-2423
-2419
-2434
-2442
-2429
-2402
-2390
-2414
-2461
-2493
-2487
-2454
-2428
-2425
-2434
-2432
-2414
-2391
-2371
-2346
-2310
-2273
-2247
-2225
-2189
-2134
-2079
-2043
-2024
-2001
-1964
-1926
-1902
-1878
-1836
-1786
-1755
-1749
-1733
-1670
-1581
-1531
-1558
-1617
-1626
-1559
-1479
-1455
-1484
-1501
-1461
-1392
-1353
-1360
-1368
-1344
-1314
-1332
-1407
-1490
-1521
-1503
-1487
-1517
-1583
-1640
-1658
-1650
-1650
-1679
-1736
-1799
-1853
-1899
-1950
-2014
-2083
-2139
-2178
-2213
-2262
-2319
-2359
-2370
-2373
-2387
-2404
-2396
-2362
-2339
-2360
-2413
-2445
-2429
-2395
-2389
-2418
-2449
-2451
-2431
-2418
-2414
-2402
-2382
-2369
-2377
-2395
-2396
-2373
-2340
-2311
-2288
-2273
-2268
-2264
-2231
-2146
-2032
-1948
-1923
-1921
-1873
-1756
-1622
-1542
-1544
-1586
-1609
-1584
-1529
-1478
-1454
-1448
-1431
-1387
-1332
-1300
-1303
-1325
-1338
-1340
-1351
-1372
-1375
-1335
-1264
-1201
-1173
-1166
-1155
-1128
-1091
-1052
-1009
-962
-911
-860
-807
-755
-710
-677
-643
-582
-489
-398
-339
-303
-243
-130
14
135
203
219
205
171
118
56
-10
-93
-212
-353
-466
-518
-539
-588
-687
-802
-887
-943
-1005
-1092
-1190
-1275
-1344
-1405
-1462
-1521
-1606
-1742
-1924
-2110
-2274
-2434
-2629
-2860
-3070
-3201
-3257
-3299
-3365
-3430
-3435
-3369
-3288
-3252
-3254
-3237
-3163
-3062
-2983
-2930
-2855
-2733
-2606
-2544
-2564
-2610
-2615
-2571
-2535
-2557
-2636
-2749
-2887
-3064
-3283
-3533
-3806
-4106
-4415
-4675
-4821
-4841
-4794
-4753
-4735
-4692
-4582
-4411
-4217
-4030
-3862
-3718
-3614
-3565
-3594
-3738
-4037
-4481
-4990
-5475
-5922
-6365
-6783
-7059
-7079
-6865
-6557
-6272
-5976
-5573
-5051
-4534
-4150
-3894
-3649
-3329
-2971
-2680
-2516
-2430
-2333
-2190
-2055
-1992
-1996
-1990
-1899
-1723
-1535
-1385
-1254
-1093
-898
-731
-642
-596
-518
-375
-212
-96
-30
36
134
243
323
361
390
438
503
562
602
638
694
776
873
964
1027
1063
1091
1132
1198
1264
1297
1288
1264
1272
1326
1403
1475
1537
1593
1637
1651
1643
1657
1718
1791
1814
1782
1767
1834
1954
2033
2034
2030
2103
2233
2321
2321
2306
2367
2490
2574
2575
2564
2633
2767
2862
2854
2796
2780
2825
2868
2862
2826
2802
2794
2779
2757
2755
2779
2790
2748
2665
2582
2521
2457
2373
2280
2202
2139
2059
1951
1845
1767
1695
1587
1427
1255
1116
1009
893
751
611
518
476
456
420
364
308
257
202
130
50
-19
-65
-99
-137
-181
-210
-193
-138
-92
-98
-148
-183
-159
-117
-127
-216
-326
-376
-359
-331
-341
-370
-367
-325
-283
-279
-299
-310
-309
-324
-377
-456
-532
-575
-585
-572
-558
-556
-570
-587
-597
-607
-630
-676
-735
-779
-785
-749
-681
-611
-568
-571
-605
-641
-667
-689
-725
-754
-738
-661
-573
-553
-610
-661
-600
-429
-288
-330
-538
-719
-692
-492
-324
-345
-484
-534
-402
-215
-159
-256
-369
-390
-365
-391
-463
-485
-407
-294
-236
-247
-298
-385
-530
-695
-785
-765
-741
-837
-1038
-1182
-1151
-1018
-957
-1074
-1309
-1549
-1753
-1947
-2135
-2278
-2345
-2366
-2413
-2513
-2634
-2735
-2829
-2977
-3220
-3538
-3851
-4075
-4169
-4165
-4143
-4181
-4287
-4390
-4429
-4426
-4471
-4621
-4824
-4965
-4988
-4952
-4936
-4944
-4929
-4873
-4796
-4714
-4611
-4480
-4346
-4233
-4118
-3960
-3774
-3609
-3463
-3255
-2937
-2609
-2461
-2606
-2980
-3455
-3988
-4653
-5513
-6514
-7513
-8400
-9142
-9732
-10152
-10400
-10524
-10597
-10662
-10704
-10706
-10692
-10717
-10791
-10871
-10921
-10951
-11004
-11098
-11213
-11331
-11463
-11631
-11829
-12016
-12149
-12207
-12178
-12065
-11884
-11671
-11453
-11227
-10980
-10712
-10433
-10140
-9812
-9453
-9098
-8772
-8456
-8103
-7715
-7347
-7031
-6725
-6352
-5903
-5451
-5073
-4765
-4452
-4088
-3698
-3345
-3051
-2783
-2497
-2172
-1822
-1474
-1154
-865
-591
-304
-1
294
547
755
952
1175
1431
1690
1917
2102
2262
2428
2621
2835
3043
3224
3377
3518
3659
3797
3927
4044
4154
4255
4354
4459
4570
4666
4726
4753
4778
4827
4884
4910
4890
4861
4868
4915
4963
4978
4972
4975
4991
4992
4954
4890
4828
4782
4743
4711
4696
4706
4714
4681
4594
4483
4391
4328
4265
4172
4054
3949
3898
3910
3956
3987
3976
3937
3914
3931
3969
3982
3949
3895
3866
3876
3897
3898
3881
3873
3896
3940
3972
3973
3947
3926
3937
3979
4026
4051
4053
4055
4072
4096
4095
4058
4003
3967
3960
3954
3914
3837
3759
3714
3705
3702
3680
3642
3604
3580
3570
3566
3558
3537
3499
3446
3387
3319
3230
3123
3021
2954
2920
2878
2798
2699
2637
2628
2624
2560
2429
2291
2201
2145
2064
1934
1808
1745
1737
1722
1664
1602
1594
1638
1667
1625
1542
1493
1505
1534
1519
1454
1391
1379
1416
1453
1451
1411
1368
1357
1386
1429
1449
1433
1408
1412
1450
1487
1486
1446
1405
1391
1400
1405
1392
1371
1357
1359
1381
1425
1486
1544
1583
1595
1598
1622
1675
1738
1769
1730
1628
1531
1524
1618
1733
1769
1720
1681
1750
1908
2041
2059
1983
1910
1892
1901
1879
1813
1743
1707
1704
1709
1705
1706
1738
1808
1892
1966
2029
2115
2255
2446
2649
2845
3058
3328
3648
3948
4139
4162
4012
3703
3249
2669
2001
1302
622
7
-494
-827
-955
-890
-687
-417
-130
157
440
707
942
1141
1307
1440
1527
1562
1560
1551
1541
1500
1394
1228
1061
949
896
863
820
778
762
771
777
761
732
709
690
657
608
564
542
530
506
475
468
497
537
554
549
553
587
636
665
658
635
627
656
720
797
859
900
939
1011
1124
1250
1353
1419
1474
1546
1640
1746
1849
1945
2031
2105
2173
2243
2320
2393
2450
2498
2549
2609
2668
2709
2735
2764
2806
2859
2910
2952
2976
2982
2972
2950
2919
2878
2834
2791
2749
2705
2658
2612
2571
2524
2455
2368
2281
2208
2134
2047
1960
1899
1873
1849
1793
1707
1623
1564
1518
1450
1345
1216
1093
1007
967
938
855
743
637
573
536
476
375
285
265
314
359
344
294
287
349
407
377
263
152
113
119
94
8
-94
-153
-147
-93
-22
34
43
-6
-78
-122
-118
-98
-101
-137
-199
-282
-372
-424
-394
-299
-229
-256
-337
-366
-294
-190
-174
-287
-455
-566
-578
-535
-515
-559
-634
-673
-642
-583
-582
-681
-821
-889
-838
-753
-758
-882
-1010
-997
-825
-620
-519
-537
-574
-541
-453
-382
-357
-329
-236
-95
22
85
130
214
334
427
449
433
452
531
613
631
597
595
681
810
878
843
762
722
749
785
776
729
690
683
705
755
840
942
1023
1065
1087
1121
1168
1212
1264
1360
1501
1639
1743
1857
2063
2371
2693
2939
3129
3363
3689
4044
4335
4570
4862
5306
5873
6451
6967
7456
8015
8689
9421
10096
10628
11007
11281
11508
11699
11826
11867
11853
11848
11906
12024
12169
12332
12539
12805
13084
13299
13429
13541
13721
13974
14210
14343
14362
14307
14169
13854
13279
12467
11550
10650
9786
8899
7972
7114
6490
6183
6107
6087
6007
5892
5846
5920
6052
6140
6144
6100
6056
6009
5918
5760
5553
5321
5060
4752
4419
4120
3898
3737
3582
3404
3224
3067
2919
2731
2474
2175
1890
1646
1422
1181
919
667
451
266
85
-99
-271
-403
-492
-553
-606
-652
-680
-689
-693
-716
-762
-818
-858
-869
-855
-836
-827
-830
-826
-800
-759
-732
-742
-780
-811
-815
-811
-835
-902
-987
-1060
-1121
-1198
-1308
-1436
-1556
-1658
-1760
-1872
-1987
-2094
-2192
-2285
-2366
-2428
-2476
-2531
-2604
-2673
-2713
-2723
-2734
-2767
-2811
-2837
-2836
-2830
-2838
-2851
-2840
-2793
-2733
-2691
-2669
-2643
-2593
-2534
-2500
-2509
-2538
-2554
-2549
-2545
-2564
-2598
-2623
-2630
-2631
-2636
-2635
-2621
-2607
-2623
-2674
-2728
-2746
-2731
-2727
-2761
-2812
-2837
-2827
-2815
-2828
-2846
-2830
-2775
-2731
-2743
-2802
-2854
-2858
-2829
-2808
-2819
-2852
-2881
-2889
-2874
-2840
-2799
-2770
-2765
-2783
-2813
-2842
-2859
-2858
-2848
-2854
-2890
-2931
-2928
-2861
-2767
-2707
-2692
-2682
-2640
-2585
-2558
-2556
-2530
-2455
-2372
-2339
-2358
-2361
-2304
-2221
-2189
-2235
-2298
-2308
-2260
-2209
-2194
-2202
-2196
-2176
-2169
-2186
-2194
-2162
-2108
-2085
-2122
-2186
-2215
-2184
-2126
-2093
-2097
-2111
-2103
-2066
-2019
-1980
-1948
-1914
-1880
-1858
-1857
-1863
-1861
-1841
-1813
-1781
-1734
-1654
-1547
-1445
-1370
-1311
-1241
-1151
-1063
-997
-946
-883
-801
-713
-635
-567
-500
-444
-408
-385
-350
-284
-201
-130
-76
-5
115
278
435
545
613
676
760
846
896
897
872
845
814
755
664
569
498
441
363
249
137
67
37
-5
-108
-267
-438
-593
-753
-957
-1214
-1477
-1689
-1822
-1895
-1932
-1946
-1929
-1865
-1751
-1599
-1433
-1275
-1122
-940
-692
-388
-93
133
266
305
210
-96
-640
-1335
-2036
-2670
-3282
-3921
-4525
-4943
-5098
-5071
-5018
-5014
-5015
-4954
-4850
-4779
-4780
-4818
-4847
-4875
-4947
-5084
-5255
-5410
-5538
-5665
-5814
-5970
-6083
-6101
-6004
-5813
-5580
-5359
-5174
-5015
-4856
-4683
-4513
-4372
-4272
-4200
-4134
-4055
-3964
-3872
-3792
-3727
-3674
-3621
-3555
-3468
-3361
-3241
-3118
-2998
-2879
-2758
-2628
-2485
-2330
-2167
-2004
-1841
-1672
-1491
-1305
-1132
-984
-858
-738
-615
-486
-358
-239
-127
-7
138
310
481
620
718
797
886
986
1074
1131
1169
1215
1284
1369
1458
1547
1631
1707
1769
1825
1887
1953
2005
2027
2024
2017
2022
2034
2035
2020
2001
1990
1979
1948
1893
1835
1808
1820
1841
1834
1788
1731
1694
1678
1658
1615
1552
1489
1438
1392
1332
1254
1174
1112
1073
1036
979
902
834
807
818
835
826
788
740
704
682
671
659
630
575
510
471
480
518
544
543
541
564
596
607
604
635
730
842
878
797
649
520
442
366
234
45
-133
-230
-234
-191
-152
-131
-111
-78
-57
-77
-140
-209
-243
-249
-276
-348
-434
-473
-450
-411
-409
-452
-500
-520
-521
-533
-566
-598
-611
-610
-621
-659
-719
-777
-813
-825
-822
-820
-826
-843
-869
-901
-928
-943
-951
-980
-1042
-1112
-1138
-1102
-1051
-1046
-1092
-1121
-1074
-983
-925
-937
-972
-975
-947
-933
-940
-925
-856
-768
-717
-696
-648
-550
-461
-462
-548
-631
-635
-570
-499
-462
-431
-370
-275
-176
-95
-36
-1
-13
-77
-152
-176
-122
-40
-6
-36
-70
-42
39
88
46
-48
-108
-98
-75
-93
-131
-117
-31
56
58
-28
-125
-176
-194
-228
-302
-390
-460
-502
-528
-552
-588
-651
-741
-822
-852
-836
-817
-835
-871
-866
-797
-695
-609
-537
-440
-309
-190
-137
-173
-312
-599
-1082
-1756
-2531
-3310
-4066
-4823
-5568
-6201
-6608
-6774
-6777
-6699
-6557
-6322
-6007
-5678
-5403
-5186
-4987
-4781
-4599
-4491
-4477
-4528
-4610
-4713
-4856
-5055
-5294
-5528
-5720
-5858
-5959
-6057
-6184
-6351
-6556
-6787
-7034
-7298
-7576
-7860
-8144
-8433
-8740
-9065
-9389
-9688
-9951
-10189
-10429
-10687
-10964
-11229
-11441
-11571
-11631
-11671
-11740
-11847
-11951
-12010
-12028
-12047
-12085
-12104
-12054
-11927
-11775
-11639
-11491
-11259
-10919
-10529
-10169
-9858
-9536
-9144
-8695
-8260
-7889
-7558
-7209
-6815
-6399
-5989
-5578
-5142
-4680
-4219
-3781
-3360
-2935
-2507
-2099
-1728
-1386
-1047
-703
-364
-39
274
591
914
1230
1527
1804
2064
2303
2511
2687
2845
3012
3202
3403
3590
3743
3868
3985
4100
4208
4306
4398
4483
4553
4597
4627
4669
4730
4792
4834
4866
4912
4979
5045
5091
5126
5174
5244
5313
5361
5387
5407
5433
5463
5482
5481
5462
5442
5439
5452
5458
5434
5392
5369
5388
5422
5417
5351
5263
5209
5203
5207
5185
5141
5104
5089
5071
5029
4975
4943
4938
4919
4847
4739
4658
4645
4665
4657
4599
4532
4506
4517
4515
4474
4418
4388
4384
4365
4300
4210
4152
4150
4161
4123
4025
3929
3903
3946
3979
3934
3829
3746
3732
3749
3721
3628
3526
3478
3477
3467
3418
3352
3307
3282
3247
3187
3114
3046
2980
2912
2857
2833
2836
2826
2774
2705
2667
2666
2656
2587
2472
2373
2327
2302
2246
2156
2080
2049
2036
1988
1899
1817
1774
1742
1673
1567
1472
1423
1397
1349
1272
1209
1187
1191
1183
1153
1127
1118
1108
1071
1005
929
867
819
783
754
733
714
698
689
689
684
647
573
495
477
548
674
773
806
823
917
1121
1371
1573
1712
1874
2151
2532
2911
3183
3304
3270
3066
2664
2078
1385
679
5
-650
-1279
-1801
-2106
-2155
-2037
-1893
-1794
-1693
-1502
-1213
-910
-678
-513
-340
-112
136
313
365
306
188
53
-83
-211
-319
-389
-405
-364
-280
-177
-77
8
60
68
35
-12
-41
-42
-34
-37
-52
-60
-55
-51
-59
-74
-88
-101
-125
-160
-185
-182
-152
-107
-52
16
84
136
169
207
277
373
455
492
502
533
613
717
796
836
865
916
987
1045
1073
1086
1109
1145
1169
1164
1149
1156
1191
1229
1240
1229
1228
1255
1300
1336
1354
1364
1377
1394
1404
1410
1423
1452
1483
1498
1496
1491
1495
1502
1498
1483
1476
1486
1503
1506
1493
1478
1474
1477
1468
1438
1401
1366
1333
1294
1246
1191
1136
1079
1017
949
882
828
798
787
780
761
737
728
741
757
742
688
617
564
533
506
468
429
414
424
437
423
385
347
333
338
340
323
303
302
332
379
419
437
449
473
515
551
561
553
565
622
717
815
888
936
980
1043
1126
1206
1253
1247
1200
1155
1148
1181
1218
1229
1214
1204
1221
1260
1290
1293
1276
1256
1247
1238
1223
1212
1217
1225
1205
1145
1081
1066
1105
1148
1145
1102
1069
1075
1101
1101
1066
1027
1018
1039
1064
1068
1052
1053
1095
1154
1163
1086
968
899
918
973
979
924
873
883
941
998
1032
1057
1068
1031
938
846
819
855
872
804
678
585
583
634
657
606
515
452
447
462
435
353
266
