3717
3662
3642
3685
3761
3812
3814
3801
3817
3867
3910
3914
3892
3894
3940
4000
4039
4070
4137
4260
4401
4506
4562
4606
4679
4785
4913
5044
5147
5171
5080
4895
4686
4492
4277
3967
3543
3081
2696
2459
2357
2335
2342
2365
2433
2583
2826
3106
3333
3460
3518
3583
3696
3820
3897
3919
3928
3964
4011
4017
3966
3904
3899
3971
4072
4134
4135
4108
4095
4106
4112
4092
4054
4021
4003
3991
3982
3991
4031
4102
4184
4251
4294
4313
4303
4257
4181
4105
4067
4075
4104
4125
4135
4162
4219
4280
4307
4288
4248
4217
4185
4130
4054
3993
3984
4017
4047
4044
4024
4023
4051
4093
4125
4141
4142
4131
4104
4063
4028
4010
4015
4046
4092
4124
4116
4079
4063
4112
4211
4296
4305
4254
4210
4222
4271
4298
4270
4209
4164
4157
4173
4183
4174
4148
4114
4077
4038
4011
4009
4024
4028
3997
3934
3877
3861
3883
3908
3892
3831
3754
3704
3701
3731
3762
3768
3742
3696
3655
3633
3626
3621
3607
3581
3548
3515
3491
3485
3499
3526
3546
3537
3501
3459
3439
3442
3451
3457
3467
3489
3524
3554
3562
3552
3546
3555
3571
3573
3549
3507
3476
3479
3511
3543
3549
3525
3498
3489
3490
3476
3439
3398
3375
3360
3320
3244
3176
3176
3254
3347
3384
3363
3352
3406
3498
3545
3496
3390
3306
3284
3291
3286
3274
3298
3371
3445
3467
3432
3392
3387
3397
3378
3321
3269
3264
3309
3370
3432
3513
3626
3748
3825
3824
3764
3701
3666
3646
3609
3547
3493
3475
3488
3493
3459
3399
3349
3329
3315
3274
3197
3116
3071
3083
3131
3181
3209
3218
3231
3260
3288
3287
3256
3227
3227
3247
3261
3263
3281
3336
3413
3483
3547
3620
3696
3740
3750
3777
3879
4040
4183
4271
4353
4489
4638
4671
4505
4208
3927
3715
3481
3108
2602
2099
1745
1581
1549
1579
1635
1712
1818
1979
2211
2487
2733
2887
2958
3024
3143
3292
3407
3469
3519
3599
3697
3763
3778
3779
3800
3829
3832
3810
3799
3820
3842
3819
3756
3705
3702
3723
3710
3644
3556
3500
3486
3489
3493
3509
3547
3590
3606
3592
3584
3614
3664
3684
3659
3627
3641
3706
3767
3773
3735
3713
3756
3861
3973
4028
4001
3933
3905
3974
4105
4187
4142
4009
3914
3933
4014
4043
3980
3895
3876
3930
3990
4001
3980
3979
4018
4068
4092
4092
4099
4133
4184
4223
4236
4243
4267
4308
4342
4355
4366
4399
4434
4431
4375
4316
4308
4345
4356
4284
4152
4038
3986
3976
3951
3888
3807
3732
3675
3636
3624
3646
3678
3683
3641
3574
3527
3522
3539
3532
3485
3425
3391
3399
3432
3463
3486
3509
3534
3556
3563
3551
3526
3490
3445
3399
3361
3333
3307
3276
3247
3228
3222
3219
3210
3199
3194
3197
3206
3230
3271
3311
3325
3305
3282
3294
3339
3374
3365
3334
3340
3402
3476
3512
3510
3517
3558
3596
3577
3491
3389
3325
3298
3273
3224
3168
3145
3177
3241
3284
3274
3226
3184
3171
3170
3147
3093
3040
3020
3038
3087
3173
3304
3449
3548
3568
3547
3540
3548
3503
3363
3180
3044
2992
2972
2932
2888
2903
2993
3106
3169
3164
3133
3127
3153
3180
3179
3143
3097
3079
3106
3159
3202
3220
3236
3272
3311
3307
3241
3158
3130
3172
3219
3187
3066
2926
2842
2837
2878
2924
2950
2939
2893
2850
2867
2968
3107
3198
3203
3164
3152
3201
3279
3335
3358
3383
3461
3603
3768
3900
3995
4113
4300
4495
4539
4326
3926
3531
3256
3018
2650
2115
1569
1212
1093
1111
1162
1232
1355
1529
1731
1959
2217
2458
2600
2636
2682
2853
3095
3227
3165
3042
3056
3222
3340
3244
3015
2882
2943
3077
3104
3007
2911
2908
2967
3007
3009
3005
3016
3031
3051
3094
3163
3234
3294
3367
3465
3542
3527
3414
3288
3239
3270
3319
3347
3398
3518
3675
3777
3790
3783
3853
3986
4063
3985
3800
3650
3625
3676
3681
3607
3535
3562
3676
3775
3785
3747
3755
3843
3951
3997
3977
3971
4046
4176
4271
4275
4215
4176
4210
4278
4298
4232
4136
4110
4196
4328
4412
4422
4414
4446
4500
4502
4402
4224
4029
3867
3749
3666
3611
3581
3608
3736
3953
4147
4160
3948
3646
3444
3368
3266
3013
2676
2450
2440
2564
2681
2758
2854
2992
3099
3096
2986
2854
2792
2846
3002
3182
3270
3205
3059
2978
3024
3083
2973
2654
2293
2127
2240
2512
2755
2891
2977
3088
3209
3259
3198
3074
2967
2902
2856
2825
2860
2994
3167
3286
3344
3429
3593
3741
3718
3491
3205
3041
3030
3052
2996
2862
2737
2699
2754
2862
2994
3143
3283
3335
3247
3102
3075
3232
3375
3207
2695
2221
2229
2741
3296
3415
3064
2590
2283
2104
1866
1508
1117
763
450
242
291
655
1145
1472
1539
1508
1573
1737
1843
1799
1681
1622
1666
1763
1854
1938
2047
2205
2383
2502
2487
2353
2217
2214
2355
2519
2571
2493
2369
2282
2238
2216
2226
2303
2434
2552
2611
2631
2647
2646
2587
2464
2327
2235
2206
2217
2248
2310
2431
2629
2869
3066
3143
3110
3104
3253
3506
3671
3650
3583
3690
3977
4207
4229
4226
4488
4954
5154
4709
3815
3076
2850
2864
2557
1737
785
217
176
406
609
717
830
1015
1249
1497
1788
2124
2474
2378
2284
2374
2623
2830
2844
2719
2645
2738
2943
3141
3281
3378
3440
3446
3404
3348
3270
3101
2814
2518
2382
2450
2593
2652
2619
2608
2687
2802
2861
2856
2843
2841
2803
2715
2658
2716
2857
2961
2950
2881
2875
2980
3116
3174
3128
3052
3054
3173
3341
3440
3401
3265
3140
3088
3061
2979
2856
2810
2922
3109
3197
3131
3064
3196
3529
3841
3906
3725
3501
3403
3393
3313
3087
2818
2659
2666
2758
2833
2873
2935
3075
3274
3451
3521
3476
3400
3392
3484
3605
3662
3645
3638
3701
3797
3843
3813
3758
3730
3700
3598
3408
3204
3083
3063
3054
2958
2776
2634
2680
2931
3246
3445
3468
3389
3294
3180
2991
2720
2452
2264
2135
1998
1853
1803
1941
2229
2502
2599
2494
2320
2247
2325
2456
2490
2375
2215
2163
2278
2477
2628
2668
2637
2589
2536
2470
2406
2370
2366
2363
2332
2299
2318
2415
2550
2640
2629
2547
2499
2564
2694
2746
2638
2478
2489
2760
3091
3172
2920
2574
2421
2478
2516
2398
2264
2321
2541
2686
2626
2527
2619
2873
2995
2780
2363
2073
2072
2223
2282
2156
1951
1832
1884
2059
2233
2309
2287
2271
2359
2528
2658
2678
2657
2713
2841
2877
2709
2471
2452
2792
3290
3574
3470
3143
2878
2788
2748
2611
2387
2192
2089
2047
2035
2097
2267
2470
2562
2485
2336
2274
2362
2515
2593
2534
2391
2285
2300
2414
2528
2563
2537
2520
2534
2534
2505
2547
2763
3088
3307
3286
3171
3244
3607
4051
4294
4294
4252
4324
4413
4287
3843
3219
2633
2185
1823
1447
1016
586
272
175
290
491
630
667
710
890
1208
1542
1777
1904
2004
2159
2383
2623
2799
2874
2880
2886
2943
3018
3038
2994
2956
3000
3107
3199
3255
3330
3449
3529
3455
3272
3193
3390
3763
4010
3932
3635
3402
3384
3451
3372
3064
2652
2312
2128
2090
2183
2393
2657
2865
2961
2987
3033
3148
3283
3357
3328
3235
3180
3239
3397
3556
3625
3623
3652
3769
3906
3947
3866
3764
3737
3769
3761
3685
3622
3626
3622
3503
3313
3234
3358
3527
3508
3298
3154
3275
3534
3642
3517
3382
3458
3676
3794
3731
3661
3743
3894
3913
3772
3657
3708
3836
3842
3671
3466
3383
3423
3479
3463
3391
3343
3381
3506
3639
3673
3565
3385
3240
3163
3101
3005
2906
2867
2896
2925
2889
2800
2713
2664
2638
2608
2559
2497
2434
2386
2366
2376
2402
2427
2447
2469
2494
2518
2538
2557
2576
2589
2602
2627
2675
2740
2799
2824
2800
2736
2670
2649
2683
2722
2711
2660
2653
2740
2855
2862
2719
2549
2499
2576
2633
2548
2373
2265
2317
2486
2682
2864
3021
3106
3074
2965
2895
2919
2944
2823
2543
2264
2153
2226
2354
2414
2385
2327
2292
2302
2351
2404
2413
2363
2305
2311
2382
2444
2441
2423
2476
2597
2673
2624
2510
2463
2530
2615
2605
2510
2437
2458
2543
2617
2655
2687
2738
2788
2814
2827
2854
2891
2888
2804
2665
2553
2537
2608
2689
2699
2632
2565
2579
2683
2793
2805
2695
2545
2466
2494
2569
2603
2562
2481
2424
2436
2515
2619
2687
2673
2617
2622
2750
2944
3080
3119
3153
3284
3470
3585
3600
3642
3816
4018
4005
3671
3172
2752
2476
2202
1784
1246
737
382
220
235
385
599
795
955
1130
1368
1632
1827
1910
1917
1919
1956
2043
2188
2367
2492
2498
2438
2455
2629
2852
2925
2786
2587
2522
2610
2685
2585
2348
2162
2165
2318
2470
2517
2482
2454
2490
2563
2624
2662
2694
2724
2736
2725
2715
2729
2773
2844
2933
3015
3044
2986
2889
2868
2974
3108
3098
2894
2655
2583
2699
2823
2792
2636
2524
2560
2688
2793
2825
2822
2821
2820
2820
2847
2906
2933
2880
2806
2843
3037
3260
3347
3295
3265
3393
3601
3694
3595
3441
3423
3559
3691
3676
3528
3374
3308
3326
3363
3358
3277
3128
2972
2899
2940
3031
3058
2983
2888
2870
3063
3013
3012
2938
2849
2789
2766
2750
2715
2664
2617
2615
2668
2740
2751
2644
2449
2272
2216
2285
2364
2308
2076
1794
1658
1749
1950
2049
1955
1799
1780
1942
2133
2180
2087
2004
2048
2172
2242
2200
2108
2054
2061
2109
2193
2315
2445
2540
2596
2656
2732
2757
2651
2429
2210
2086
2028
1944
1816
1740
1799
1953
2076
2101
2084
2115
2195
2235
2175
2048
1951
1940
1983
2004
1982
1958
1989
2077
2163
2198
2193
2205
2261
2323
2338
2308
2287
2296
2294
2239
2168
2173
2274
2372
2357
2257
2221
2336
2505
2552
2429
2275
2261
2393
2530
2552
2483
2432
2450
2484
2465
2381
2286
2225
2195
2168
2124
2074
2050
2080
2154
2227
2268
2282
2290
2291
2268
2230
2220
2260
2309
2309
2268
2256
2316
2401
2427
2377
2317
2311
2339
2330
2252
2144
2093
2158
2319
2489
2585
2597
2602
2702
2908
3133
3297
3405
3514
3624
3644
3497
3213
2911
2654
2387
2005
1479
910
468
283
359
574
764
844
872
975
1212
1504
1711
1763
1699
1619
1595
1653
1794
1983
2141
2188
2139
2093
2142
2270
2373
2397
2392
2440
2538
2592
2548
2475
2487
2593
2657
2549
2306
2122
2155
2361
2544
2568
2498
2506
2658
2829
2846
2696
2539
2516
2593
2625
2540
2426
2402
2488
2601
2679
2720
2732
2698
2626
2595
2679
2823
2865
2724
2519
2442
2543
2679
2695
2603
2552
2628
2753
2805
2777
2766
2830
2919
2933
2852
2764
2774
2890
3032
3112
3126
3140
3214
3329
3416
3451
3481
3543
3590
3548
3438
3400
3518
3678
3656
3389
3066
2942
3062
3214
3185
2990
2807
2764
2820
2860
2834
2782
2739
2686
2596
2484
2409
2412
2486
2568
2586
2519
2414
2342
2340
2385
2425
2417
2359
2280
2237
2281
2404
2539
2601
2562
2475
2403
2366
2340
2326
2339
2346
2283
2155
2066
2113
2231
2231
2028
1782
1729
1921
2145
2166
2000
1886
2003
2265
2430
2377
2216
2138
2203
2302
2300
2188
2081
2088
2198
2288
2266
2154
2064
2079
2165
2208
2139
2012
1947
1999
2106
2161
2112
2002
1929
1984
2193
2496
2739
2784
2642
2469
2424
2494
2525
2398
2165
1973
1907
1932
1997
2102
2246
2355
2343
2239
2183
2247
2356
2367
2245
2101
2049
2098
2163
2197
2223
2272
2324
2336
2298
2236
2191
2197
2259
2353
2422
2420
2359
2300
2283
2278
2243
2195
2191
2235
2252
2188
2101
2097
2196
2277
2230
2086
1990
2026
2123
2160
2109
2048
2069
2184
2330
2452
2538
2611
2698
2802
2924
3064
3219
3365
3436
3363
3148
2884
2673
2508
2291
1945
1516
1125
842
637
477
406
482
664
820
880
939
1144
1510
1867
2015
1931
1780
1744
1861
2022
2104
2087
2062
2115
2249
2397
2498
2549
2575
2585
2553
2462
2355
2311
2387
2561
2745
2852
2855
2796
2755
2766
2796
2784
2705
2593
2501
2441
2384
2334
2331
2413
2527
2570
2512
2450
2501
2651
2758
2721
2591
2510
2547
2639
2683
2653
2599
2588
2639
2729
2833
2940
3034
3096
3103
3054
2982
2937
2936
2923
2821
2630
2471
2478
2653
2851
2916
2841
2754
2780
2922
3087
3192
3225
3207
3147
3059
2999
3043
3202
3363
3375
3202
2986
2925
3055
3193
3138
2891
2655
2606
2710
2787
2723
2570
2466
2487
2593
2691
2705
2624
2516
2470
2525
2612
2615
2481
2285
2152
2131
2174
2194
2138
2017
1902
1876
1972
2111
2153
2026
1821
1713
1790
1971
2088
2059
1965
1941
2039
2174
2227
2159
2045
1984
2001
2016
1966
1887
1870
1945
2045
2089
2063
2031
2035
2072
2140
2236
2336
2375
2309
2189
2136
2192
2263
2228
2091
1979
1988
2066
2088
2014
1918
1895
1939
1964
1911
1812
1746
1758
1820
1883
1934
1998
2079
2141
2152
2127
2127
2189
2260
2261
2189
2138
2185
2292
2344
2302
2260
2316
2427
2452
2318
2132
2053
2105
2157
2101
1977
1903
1929
1988
2000
1964
1935
1930
1906
1835
1761
1765
1860
1975
2023
2010
2041
2196
2410
2512
2402
2175
2038
2084
2203
2215
2086
1965
1998
2169
2345
2434
2459
2496
2555
2596
2603
2613
2659
2717
2748
2777
2880
3075
3270
3332
3215
3001
2799
2622
2378
1998
1527
1091
776
578
454
384
379
437
553
726
949
1184
1376
1515
1661
1856
2059
2178
2191
2196
2279
2401
2450
2401
2347
2377
2433
2385
2225
2111
2173
2340
2412
2297
2127
2112
2299
2523
2591
2480
2334
2295
2373
2473
2509
2474
2412
2371
2353
2339
2325
2312
2301
2281
2242
2194
2175
2228
2346
2460
2497
2447
2371
2335
2338
2335
2312
2298
2335
2431
2571
2740
2912
3019
3006
2896
2776
2692
2585
2385
2141
2008
2072
2248
2369
2390
2414
2532
2698
2802
2816
2807
2819
2800
2698
2577
2568
2706
2877
2946
2899
2833
2825
2855
2870
2862
2848
2826
2772
2688
2624
2625
2662
2659
2579
2467
2404
2414
2437
2387
2246
2090
2015
2033
2060
2018
1912
1843
1883
1983
2029
1966
1859
1816
1860
1918
1906
1824
1744
1715
1730
1746
1746
1746
1772
1811
1831
1816
1776
1738
1721
1726
1741
1743
1707
1629
1551
1530
1585
1657
1664
1591
1508
1503
1576
1653
1674
1654
1654
1691
1716
1700
1678
1711
1799
1875
1871
1789
1696
1668
1730
1848
1944
1941
1834
1713
1698
1805
1930
1964
1917
1901
1980
2087
2121
2068
2012
2012
2028
1987
1879
1771
1724
1746
1803
1849
1857
1836
1830
1891
2015
2123
2129
2040
1951
1943
1998
2036
2013
1961
1934
1935
1932
1907
1882
1891
1931
1966
1968
1936
1890
1844
1815
1827
1879
1941
1964
1935
1884
1861
1876
1882
1842
1769
1719
1725
1760
1768
1735
1702
1717
1788
1886
1969
2020
2063
2143
2290
2476
2630
2707
2749
2842
2993
3088
2982
2669
2305
2040
1852
1589
1162
659
266
80
60
104
161
241
359
516
718
964
1215
1387
1439
1429
1457
1557
1666
1729
1769
1847
1952
1998
1933
1821
1784
1864
1978
2024
1997
1984
2050
2159
2228
2216
2161
2125
2126
2142
2135
2099
2061
2060
2111
2192
2262
2293
2305
2325
2357
2367
2326
2248
2179
2150
2157
2164
2141
2085
2030
2013
2044
2079
2066
2008
1971
2018
2121
2187
2171
2130
2158
2265
2356
2352
2278
2237
2285
2368
2397
2358
2323
2354
2432
2489
2501
2515
2566
2621
2608
2515
2421
2415
2493
2557
2531
2456
2440
2523
2626
2646
2571
2487
2475
2528
2579
2588
2577
2580
2586
2564
2514
2493
2544
2632
2670
2604
2475
2373
2353
2375
2362
2269
2117
1967
1863
1818
1809
1804
1781
1745
1732
1764
1819
1850
1824
1762
1712
1702
1710
1694
1638
1573
1545
1559
1582
1583
1558
1524
1499
1495
1525
1579
1615
1584
1497
1433
1467
1568
1626
1572
1477
1473
1595
1735
1776
1704
1619
1598
1632
1670
1682
1671
1645
1619
1615
1645
1680
1674
1620
1570
1564
1578
1552
1478
1424
1445
1511
1544
1510
1464
1472
1527
1566
1541
1473
1417
1411
1443
1481
1498
1483
1438
1398
1396
1440
1505
1557
1587
1611
1641
1661
1657
1649
1669
1718
1751
1721
1651
1618
1662
1742
1774
1724
1646
1610
1614
1599
1525
1423
1348
1318
1300
1269
1242
1254
1301
1346
1356
1343
1331
1326
1323
1318
1316
1311
1289
1270
1298
1391
1494
1532
1483
1415
1420
1507
1624
1707
1738
1743
1772
1863
2018
2183
2293
2336
2375
2473
2585
2580
2379
2052
1748
1525
1295
937
448
-49
-405
-563
-556
-455
-328
-207
-71
135
437
771
1022
1127
1142
1174
1265
1365
1415
1419
1439
1505
1596
1658
1673
1652
1621
1596
1580
1563
1527
1476
1441
1453
1502
1541
1551
1566
1638
1755
1833
1815
1741
1701
1727
1763
1757
1733
1744
1792
1825
1812
1803
1861
1973
2050
2043
1995
1988
2031
2058
2013
1938
1924
2002
2106
2142
2092
2020
2001
2045
2097
2105
2077
2057
2070
2099
2125
2155
2204
2260
2286
2256
2198
2166
2183
2230
2263
2269
2261
2270
2324
2424
2524
2561
2511
2429
2402
2456
2513
2488
2389
2311
2334
2425
2486
2451
2353
2276
2262
2287
2299
2266
2201
2138
2101
2087
2075
2041
1992
1949
1917
1878
1816
1741
1682
1646
1605
1534
1451
1406
1418
1459
1479
1464
1437
1419
1399
1363
1314
1269
1237
1215
1205
1217
1247
1267
1272
1289
1350
1444
1513
1509
1455
1415
1428
1469
1470
1402
1306
1257
1285
1336
1327
1254
1209
1291
1466
1582
1532
1383
1314
1408
1555
1577
1430
1250
1190
1261
1357
1388
1369
1362
1386
1409
1402
1382
1379
1393
1396
1370
1329
1373
1320
1354
1378
1366
1327
1300
1317
1368
1407
1400
1360
1339
1369
1426
1472
1490
1507
1544
1583
1586
1552
1522
1531
1568
1597
1603
1608
1624
1637
1631
1618
1633
1671
1683
1630
1541
1497
1532
1587
1576
1481
1363
1285
1246
1204
1144
1098
1100
1140
1188
1227
1262
1293
1309
1310
1318
1347
1374
1360
1312
1287
1333
1446
1556
1610
1609
1601
1622
1661
1693
1721
1761
1813
1860
1907
1992
2136
2282
2348
2330
2328
2431
2579
2588
2341
1931
1562
1330
1125
775
265
-231
-514
-537
-417
-295
-211
-96
131
458
791
1023
1136
1193
1265
1358
1435
1463
1466
1495
1566
1649
1696
1689
1658
1661
1723
1810
1839
1767
1657
1628
1727
1870
1936
1900
1855
1885
1967
2009
1972
1908
1879
1880
1876
1868
1886
1928
1936
1881
1820
1834
1926
1993
1949
1817
1695
1661
1706
1772
1815
1822
1796
1760
1756
1812
1904
1962
1942
1879
1853
1900
1977
2011
1995
1970
1981
2026
2069
2088
2083
2081
2100
2139
2176
2175
2126
2064
2037
2062
2108
2138
2156
2184
2219
2231
2217
2216
2257
2308
2307
2232
2148
2132
2192
2256
2254
2183
2101
2061
2068
2074
2045
1987
1928
1898
1900
1913
1908
1878
1839
1803
1772
1729
1656
1560
1466
1394
1349
1311
1259
1193
1131
1087
1068
1079
1118
1164
1182
1156
1111
1097
1135
1191
1212
1185
1141
1115
1116
1129
1148
1167
1180
1175
1154
1133
1126
1138
1168
1207
1236
1235
1209
1195
1233
1300
1328
1276
1183
1132
1163
1227
1235
1169
1089
1078
1159
1291
1412
1490
1531
1559
1591
1628
1658
1662
1620
1538
1445
1380
1358
1371
1397
1428
1461
1487
1489
1461
1420
1386
1369
1364
1366
1377
1386
1385
1381
1406
1476
1560
1587
1517
1393
1307
1318
1396
1458
1454
1410
1396
1453
1553
1621
1604
1526
1457
1452
1498
1536
1532
1507
1509
1555
1606
1622
1613
1618
1650
1680
1678
1645
1620
1633
1671
1699
1688
1636
1558
1470
1389
1328
1290
1271
1275
1310
1370
1429
1455
1451
1448
1469
1487
1462
1384
1286
1203
1140
1089
1062
1079
1134
1192
1226
1259
1325
1419
1489
1505
1504
1546
1639
1715
1718
1686
1717
1852
2029
2166
2264
2376
2486
2490
2299
1966
1629
1354
1060
634
95
-408
-719
-805
-753
-660
-563
-438
-247
15
306
561
745
881
991
1069
1102
1125
1210
1372
1528
1576
1535
1514
1583
1681
1720
1692
1673
1701
1724
1697
1650
1653
1711
1756
1743
1704
1710
1762
1792
1759
1694
1659
1683
1737
1771
1767
1748
1747
1770
1793
1791
1768
1750
1764
1801
1830
1838
1836
1843
1859
1882
1909
1941
1958
1940
1901
1885
1910
1945
1938
1894
1876
1924
2000
2023
1969
1888
1853
1881
1938
1980
1994
1981
1952
1937
1979
2094
2235
2317
2311
2279
2301
2399
2510
2559
2544
2523
2538
2569
2568
2525
2489
2501
2545
2555
2493
2396
2336
2356
2423
2466
3795
3828
3883
3823
3729
3828
4197
4605
4754
4649
4582
4740
4951
4922
4657
4487
4651
4985
5128
4975
4771
4744
4803
4701
4409
4152
4088
4089
3909
3508
3084
2820
2697
2610
2595
2790
3220
3711
4033
4090
3921
3591
3155
2724
2425
2265
2098
1835
1625
1756
2305
2959
3270
3074
2637
2352
2351
2426
2315
2008
1753
1792
2127
2526
2748
2749
2663
2604
2557
2429
2199
1979
1903
1994
2136
2194
2146
2094
2141
2287
2421
2457
2415
2369
2363
2357
2288
2149
2003
1917
1913
1975
2083
2193
2235
2177
2056
1944
1850
1695
1422
1094
842
730
708
679
594
473
371
355
484
762
1094
1342
1486
1679
2092
2707
3284
3591
3631
3597
3639
3708
3640
3363
2984
2670
2492
2384
2260
2106
1952
1815
1667
1490
1316
1202
1165
1157
1130
1079
1030
988
928
835
747
725
746
721
591
415
323
378
506
570
530
474
508
617
679
615
487
434
514
649
721
702
670
707
810
909
949
935
896
849
805
773
759
742
692
604
524
501
524
546
540
542
603
719
825
867
867
886
946
1011
1028
990
934
890
860
834
813
795
762
696
610
541
509
502
506
533
603
714
829
914
975
1042
1129
1199
1213
1172
1117
1098
1124
1173
1220
1264
1326
1424
1550
1672
1763
1826
1894
1991
2104
2190
2218
2211
2225
2290
2374
2422
2428
2453
2552
2704
2832
2896
2936
3009
3114
3191
3201
3187
3213
3274
3308
3280
3237
3251
3331
3412
3441
3427
3417
3430
3453
3464
3467
3476
3498
3531
3568
3594
3596
3581
3573
3587
3600
3573
3510
3459
3459
3486
3483
3445
3426
3467
3550
3612
3627
3630
3663
3721
3766
3775
3770
3773
3782
3773
3733
3687
3669
3682
3700
3694
3671
3659
3688
3752
3818
3851
3840
3801
3762
3740
3729
3709
3666
3603
3551
3544
3590
3664
3735
3779
3796
3806
3828
3875
3938
3996
4014
3981
3920
3877
3883
3926
3963
3962
3926
3886
3862
3860
3883
3928
3980
4013
4017
4015
4044
4114
4185
4204
4175
4150
4177
4244
4299
4307
4291
4291
4323
4356
4357
4323
4284
4261
4251
4243
4233
4234
4259
4300
4334
4341
4323
4300
4290
4279
4224
4096
3921
3767
3676
3618
3520
3352
3153
2978
2837
2702
2579
2539
2657
2923
3264
3629
4051
4590
5245
5909
6443
6765
6883
6863
6775
6644
6442
6136
5740
5346
5072
4961
4942
4894
4764
4605
4499
4462
4431
4352
4237
4143
4098
4074
4033
3984
3964
3992
4042
4064
4040
3991
3951
3938
3943
3946
3932
3906
3888
3889
3895
3881
3838
3798
3796
3841
3890
3901
3872
3845
3849
3870
3865
3822
3770
3742
3742
3738
3708
3659
3625
3628
3653
3670
3659
3621
3578
3553
3551
3561
3559
3530
3475
3417
3380
3369
3371
3365
3339
3295
3249
3221
3222
3241
3247
3220
3174
3150
3169
3204
3203
3148
3077
3041
3053
3076
3072
3040
3009
2999
3006
3016
3027
3051
3089
3125
3148
3159
3174
3199
3229
3257
3290
3336
3392
3434
3450
3459
3491
3548
3606
3645
3673
3709
3765
3834
3906
3981
4052
4101
4125
4149
4206
4292
4366
4399
4412
4459
4561
4675
4740
4740
4709
4687
4674
4644
4590
4539
4518
4517
4505
4472
4453
4481
4542
4585
4570
4513
4464
4450
4456
4451
4424
4379
4327
4284
4274
4300
4330
4319
4268
4234
4265
4341
4388
4365
4311
4296
4340
4399
4429
4432
4436
4454
4468
4471
4474
4485
4491
4473
4431
4390
4364
4347
4330
4320
4320
4324
4318
4295
4273
4262
4259
4251
4237
4222
4211
4198
4176
4146
4117
4104
4113
4140
4157
4143
4099
4050
4026
4028
4032
4021
4001
3989
3984
3971
3941
3905
3887
3897
3923
3946
3952
3948
3953
3979
4025
4071
4094
4092
4085
4094
4116
4136
4147
4155
4166
4176
4175
4162
4137
4099
4051
4003
3972
3960
3951
3930
3902
3884
3883
3886
3875
3845
3790
3701
3589
3488
3421
3365
3272
3135
2999
2903
2810
2656
2474
2406
2566
2895
3208
3402
3578
3919
4460
5029
5409
5544
5548
5547
5556
5514
5377
5162
4905
4638
4404
4255
4214
4222
4176
4043
3885
3794
3786
3797
3764
3695
3645
3628
3612
3568
3521
3514
3550
3583
3575
3543
3534
3556
3574
3558
3529
3529
3566
3596
3579
3528
3486
3484
3503
3505
3478
3444
3435
3451
3470
3471
3452
3432
3434
3461
3496
3524
3536
3534
3536
3562
3620
3696
3754
3760
3715
3665
3654
3681
3698
3657
3562
3465
3416
3415
3420
3395
3351
3324
3330
3347
3341
3301
3251
3217
3206
3206
3204
3191
3168
3143
3126
3128
3145
3152
3134
3093
3058
3050
3066
3080
3083
3079
3082
3098
3120
3145
3170
3195
3226
3269
3326
3385
3422
3428
3422
3434
3478
3536
3584
3610
3624
3644
3679
3731
3801
3877
3936
3966
3979
4004
4057
4109
4129
4115
4099
4109
4140
4169
4184
4189
4180
4153
4115
4101
4121
4146
4134
4076
4011
3978
3978
3983
3974
3962
3956
3955
3948
3936
3927
3925
3929
3942
3958
3962
3947
3926
3927
3959
3991
3991
3957
3920
3908
3912
3911
3892
3869
3859
3870
3901
3936
3956
3951
3934
3935
3971
4015
4028
4000
3963
3946
3948
3945
3926
3904
3893
3888
3872
3842
3809
3784
3770
3775
3801
3836
3854
3836
3796
3767
3771
3804
3846
3875
3877
3849
3817
3812
3844
3881
3876
3823
3773
3769
3807
3841
3848
3858
3910
3995
4063
4073
4039
4009
4011
4024
4012
3964
3912
3899
3931
3977
3993
3977
3969
4005
4066
4090
4045
3964
3915
3923
3950
3940
3881
3814
3770
3739
3694
3633
3572
3519
3463
3400
3346
3303
3234
3104
2963
2934
3098
3400
3697
3903
4079
4359
4786
5262
5636
5835
5874
5811
5693
5560
5434
5301
5118
4866
4609
4447
4420
4463
4461
4377
4263
4194
4176
4157
4103
4035
3986
3955
3916
3864
3827
3830
3857
3863
3830
3782
3754
3745
3730
3696
3668
3673
3707
3742
3749
3734
3723
3733
3754
3765
3758
3735
3711
3699
3701
3719
3743
3767
3784
3790
3787
3778
3776
3787
3805
3809
3778
3719
3660
3628
3622
3622
3612
3596
3582
3572
3556
3533
3515
3506
3488
3449
3394
3342
3300
3257
3210
3176
3182
3219
3245
3223
3168
3128
3131
3155
3160
3129
3091
3081
3100
3122
3127
3127
3145
3179
3206
3201
3173
3153
3156
3170
3169
3156
3159
3198
3253
3292
3304
3315
3352
3408
3451
3470
3491
3536
3600
3649
3669
3680
3708
3754
3796
3834
3881
3942
3988
3998
3994
4024
4103
4179
4192
4142
4092
4098
4141
4161
4136
4101
4103
4133
4146
4124
4099
4108
4140
4150
4114
4063
4039
4042
4037
4000
3953
3930
3936
3943
3925
3888
3852
3832
3825
3823
3823
3823
3818
3807
3796
3795
3807
3830
3857
3881
3887
3859
3808
3770
3777
3814
3837
3812
3763
3745
3780
3836
3857
3828
3781
3760
3770
3787
3794
3793
3797
3809
3835
3885
3959
4025
4038
3987
3916
3880
3892
3914
3897
3836
3769
3732
3733
3753
3774
3793
3815
3849
3893
3929
3941
3929
3924
3957
4017
4051
4022
3956
3918
3948
4017
4065
4064
4041
4032
4049
4083
4113
4117
4081
4014
3958
3951
3981
3994
3956
3900
3886
3936
3996
4008
3962
3892
3821
3749
3670
3583
3488
3381
3267
3171
3103
3033
2931
2833
2839
3020
3320
3613
3832
4042
4353
4792
5255
5593
5735
5720
5642
5571
5511
5408
5208
4926
4644
4454
4371
4322
4224
4074
3949
3911
3934
3935
3877
3804
3779
3805
3826
3795
3728
3673
3650
3635
3613
3602
3621
3643
3623
3562
3520
3544
3607
3635
3597
3539
3518
3537
3553
3547
3539
3547
3555
3534
3493
3475
3503
3547
3559
3522
3470
3441
3444
3462
3470
3455
3427
3401
3392
3392
3386
3371
3358
3360
3366
3356
3322
3279
3246
3223
3202
3183
3171
3162
3143
3109
3075
3056
3052
3050
3041
3021
2990
2951
2913
2886
2865
2829
2778
2732
2716
2722
2720
2703
2795
2724
2779
2829
2859
2878
2899
2917
2923
2927
2942
2965
2986
3004
3033
3076
3112
3126
3133
3168
3238
3311
3357
3382
3419
3482
3552
3607
3647
3684
3724
3758
3783
3809
3851
3910
3980
4053
4113
4139
4119
4074
4045
4048
4056
4026
3960
3907
3913
3963
4001
3992
3960
3949
3965
3973
3946
3896
3860
3849
3847
3840
3836
3847
3864
3860
3829
3787
3759
3746
3734
3721
3716
3719
3708
3673
3637
3643
3688
3725
3716
3677
3651
3654
3655
3631
3602
3597
3606
3590
3543
3512
3538
3599
3640
3640
3636
3665
3713
3732
3706
3665
3648
3650
3648
3632
3618
3617
3622
3613
3597
3597
3622
3650
3640
3587
3528
3501
3507
3507
3471
3417
3394
3410
3426
3398
3340
3316
3360
3431
3449
3387
3299
3262
3288
3329
3331
3292
3261
3276
3332
3391
3432
3459
3491
3540
3601
3656
3681
3667
3630
3600
3597
3610
3606
3575
3537
3522
3539
3563
3569
3558
3552
3567
3597
3617
3606
3563
3522
3519
3551
3581
3568
3511
3450
3406
3352
3260
3144
3047
2978
2899
2778
2650
2566
2523
2469
2395
2385
2539
2838
3159
3403
3611
3904
4332
4805
5174
5357
5381
5330
5265
5195
5092
4928
4699
4443
4225
4083
4003
3935
3839
3722
3617
3550
3507
3457
3382
3299
3249
3253
3286
3299
3259
3187
3136
3139
3179
3207
3192
3143
3092
3061
3051
3049
3050
3057
3071
3086
3101
3124
3168
3232
3295
3338
3356
3364
3373
3381
3374
3343
3293
3247
3219
3216
3229
3243
3246
3234
3213
3188
3159
3127
3098
3087
3094
3097
3073
3031
3008
3019
3043
3039
2997
2945
2908
2875
2827
2771
2731
2720
2720
2710
2697
2696
2702
2692
2660
2632
2629
2646
2649
2625
2592
2574
2575
2576
2568
2561
2569
2589
2604
2602
2599
2620
2674
2728
2745
2720
2698
2726
2799
2869
2897
2901
2924
2981
3049
3099
3127
3152
3187
3227
3264
3301
3341
3380
3408
3425
3435
3444
3457
3467
3471
3466
3455
3451
3461
3484
3514
3539
3550
3542
3513
3480
3461
3462
3479
3495
3511
3535
3563
3580
3574
3560
3555
3570
3586
3574
3523
3455
3407
3412
3459
3495
3482
3432
3396
3409
3451
3463
3421
3361
3337
3360
3393
3393
3363
3338
3342
3369
3392
3402
3408
3414
3412
3395
3378
3384
3417
3451
3459
3446
3434
3431
3424
3407
3395
3403
3417
3408
3379
3369
3403
3454
3471
3448
3427
3445
3482
3491
3462
3430
3426
3447
3471
3485
3490
3482
3462
3443
3445
3465
3477
3466
3454
3465
3494
3501
3465
3418
3406
3433
3455
3434
3373
3316
3297
3311
3331
3337
3334
3336
3349
3360
3350
3315
3279
3271
3295
3326
3340
3337
3348
3393
3465
3542
3607
3652
3670
3651
3603
3554
3529
3524
3515
3487
3454
3440
3457
3488
3506
3494
3460
3431
3432
3457
3468
3428
3360
3330
3377
3453
3477
3426
3361
3355
3400
3428
3395
3335
3313
3342
3378
3378
3354
3347
3377
3424
3455
3458
3444
3427
3416
3406
3390
3363
3340
3338
3363
3393
3396
3369
3337
3334
3363
3395
3394
3359
3317
3293
3291
3300
3312
3326
3340
3342
3324
3295
3280
3292
3320
3340
3339
3326
3316
3315
3316
3313
3304
3288
3264
3233
3202
3176
3159
3149
3146
3156
3178
3200
3210
3209
3210
3221
3229
3218
3190
3168
3174
3205
3233
3232
3207
3181
3175
3188
3194
3176
3134
3087
3053
3036
3030
3031
3043
3071
3097
3096
3052
2985
2944
2953
2984
2979
2919
2853
2849
2910
2969
2967
2923
2917
2990
3087
3123
3092
3071
3136
3267
3374
3401
3379
3373
3404
3434
3427
3397
3379
3383
3379
3350
3312
3304
3338
3376
3374
3329
3274
3245
3242
3220
3141
3018
2911
2849
2805
2719
2575
2416
2286
2166
2021
1877
1849
2020
2336
2643
2851
3036
3353
3856
4429
4880
5100
5124
5070
5034
5021
4962
4789
4514
4238
4060
3987
3940
3849
3718
3611
3560
3534
3481
3396
3312
3267
3276
3326
3386
3419
3405
3366
3344
3357
3377
3351
3271
3182
3134
3139
3167
3194
3226
3270
3315
3327
3290
3226
3177
3162
3166
3158
3135
3120
3129
3153
3161
3134
3085
3045
3032
3038
3039
3023
2997
2971
2952
2936
2921
2909
2901
2898
2899
2907
2920
2934
2940
2943
2960
2991
3009
2978
2895
2805
2758
2756
2759
2729
2680
2654
2663
2681
2672
2627
2573
2539
2526
2511
2477
2427
2384
2371
2387
2407
2410
2396
2386
2391
2394
2374
2338
2317
2329
2361
2381
2379
2374
2388
2418
2445
2460
2473
2496
2519
2532
2540
2560
2603
2658
2718
2786
2858
2917
2949
2963
2985
3025
3065
3084
3088
3104
3135
3160
3170
3184
3227
3288
3328
3330
3314
3310
3319
3320
3306
3300
3318
3343
3341
3304
3267
3267
3300
3326
3313
3276
3251
3252
3260
3247
3212
3184
3182
3192
3189
3164
3141
3141
3158
3168
3164
3159
3172
3209
3246
3260
3244
3217
3208
3222
3247
3261
3253
3231
3210
3203
3214
3240
3263
3265
3240
3207
3194
3206
3227
3238
3251
3287
3342
3387
3398
3384
3376
3391
3410
3396
3343
3278
3243
3250
3272
3276
3257
3246
3273
3333
3388
3406
3386
3355
3345
3372
3420
3455
3446
3403
3379
3425
3537
3648
3699
3694
3691
3722
3759
3754
3704
3650
3625
3623
3608
3575
3548
3554
3584
3613
3624
3617
3598
3571
3535
3502
3485
3493
3520
3546
3556
3557
3569
3605
3646
3658
3625
3562
3509
3492
3501
3507
3487
3452
3434
3457
3513
3563
3575
3551
3519
3506
3510
3516
3513
3513
3521
3527
3512
3473
3433
3422
3444
3478
3498
3496
3481
3475
3485
3506
3525
3530
3517
3494
3463
3425
3380
3339
3314
3308
3311
3303
3277
3241
3212
3195
3187
3180
3167
3149
3129
3109
3089
3074
3065
3059
3053
3049
3056
3078
3102
3114
3112
3112
3121
3132
3135
3135
3146
3170
3189
3196
3210
3261
3340
3403
3413
3381
3363
3389
3437
3457
3431
3387
3370
3388
3410
3406
3382
3369
3387
3424
3441
3417
3365
3323
3321
3349
3352
3287
3174
3071
3009
2948
2829
2650
2478
2353
2233
2064
1888
1845
2026
2354
2664
2880
3104
3478
4009
4544
4918
5081
5099
5067
5033
4999
4927
4768
4503
4197
3969
3892
3932
3962
3889
3736
3600
3543
3536
3503
3410
3296
3228
3222
3229
3199
3140
3110
3142
3200
3215
3160
3078
3026
3015
3012
2996
2986
3014
3080
3140
3148
3098
3024
2969
2955
2979
3015
3036
3034
3031
3064
3138
3224
3288
3321
3333
3325
3286
3218
3151
3126
3146
3169
3154
3100
3049
3038
3055
3063
3038
2995
2964
2956
2956
2944
2921
2907
2915
2930
2921
2875
2809
2753
2726
2714
2699
2669
2638
2621
2622
2627
2627
2624
2623
2619
2601
2563
2520
2492
2482
2480
2477
2476
2489
2513
2533
2542
2544
2545
2550
2557
2570
2593
2627
2663
2694
2716
2736
2759
2795
2850
2908
2947
2951
2936
2939
2991
3079
3164
3217
3244
3273
3316
3360
3380
3376
3364
3359
3360
3360
3363
3380
3413
3441
3443
3426
3420
3441
3474
3482
3445
3389
3357
3373
3421
3462
3476
3470
3467
3479
3492
3484
3454
3426
3421
3430
3428
3400
3365
3355
3379
3417
3436
3417
3366
3309
3280
3293
3324
3336
3311
3279
3279
3317
3349
3341
3303
3283
3304
3338
3339
3298
3244
3217
3227
3256
3274
3267
3240
3221
3226
3250
3268
3268
3266
3278
3305
3317
3297
3259
3237
3240
3251
3251
3245
3248
3271
3303
3328
3340
3342
3345
3364
3395
3413
3389
3327
3270
3260
3293
3322
3313
3280
3263
3280
3304
3302
3277
3253
3244
3234
3204
3154
3107
3086
3097
3130
3172
3211
3233
3231
3222
3231
3261
3281
3257
3196
3155
3186
3280
3372
3417
3433
3470
3547
3621
3635
3576
3482
3403
3357
3336
3328
3331
3341
3348
3344
3331
3322
3320
3318
3303
3264
3208
3146
3099
3090
3118
3159
3184
3183
3170
3164
3170
3178
3174
3159
3146
3141
3143
3150
3156
3151
3132
3106
3092
3098
3107
3097
3072
3060
3091
3161
3244
3320
3385
3435
3451
3434
3414
3422
3453
3471
3455
3428
3424
3443
3461
3461
3456
3454
3445
3411
3367
3346
3353
3358
3330
3271
3204
3144
3089
3030
2953
2837
2680
2523
2413
2340
2235
2064
1912
1923
2146
2462
2712
2879
3107
3518
4063
4561
4869
4988
5015
5027
5029
4985
4867
4672
4426
4179
3988
3887
3859
3840
3779
3668
3538
3428
3364
3337
3325
3305
3260
3195
3133
3098
3099
3121
3143
3141
3117
3080
3040
3003
2966
2937
2924
2931
2948
2961
2963
2957
2947
2930
2904
2884
2899
2948
2995
2999
2965
2939
2959
3011
3047
3034
2988
2943
2912
2895
2892
2900
2906
2894
2871
2860
2873
2885
2867
2828
2806
2817
2830
2805
2748
2699
2680
2675
2661
2643
2636
2630
2597
2535
2482
2472
2483
2461
2388
2304
2259
2254
2250
2223
2189
2177
2190
2214
2232
2237
2218
2176
2135
2137
2191
2264
2319
2348
2378
2432
2506
2592
2683
2763
2802
2785
2750
2761
2836
2922
2951
2929
2913
2945
3003
3038
3041
3048
3083
3134
3177
3214
3264
3338
3415
3471
3499
3507
3507
3516
3540
3578
3611
3613
3580
3541
3536
3580
3640
3659
3615
3544
3500
3505
3528
3530
3507
3489
3487
3486
3469
3447
3445
3463
3474
3458
3419
3379
3349
3335
3338
3352
3357
3338
3315
3323
3362
3391
3377
3344
3349
3402
3442
3405
3315
3256
3271
3320
3332
3297
3261
3260
3269
3251
3207
3177
3186
3211
3208
3173
3137
3133
3154
3171
3164
3150
3158
3188
3207
3183
3126
3090
3118
3199
3271
3287
3264
3255
3282
3324
3346
3342
3323
3302
3274
3240
3210
3188
3163
3134
3116
3128
3158
3175
3168
3163
3185
3220
3234
3213
3183
3175
3182
3175
3141
3105
3097
3121
3152
3162
3148
3130
3128
3137
3141
3132
3122
3127
3142
3145
3126
3106
3111
3136
3150
3135
3109
3096
3102
3100
3071
3026
2990
2972
2955
2929
2896
2872
2870
2891
2929
2968
2994
3005
3007
3006
2991
2954
2911
2886
2887
2887
2860
2821
2808
2837
2870
2859
2804
2748
2727
2731
2732
2718
2716
2750
2825
2923
3011
3066
3084
3088
3099
3115
3117
3095
3068
3065
3089
3116
3129
3150
3205
3286
3348
3349
3298
3240
3205
3185
3149
3087
3008
2927
2853
2792
2741
2680
2588
2466
2352
2274
2209
2097
1929
1797
1823
2037
2342
2614
2826
3062
3409
3852
4284
4597
4761
4809
4790
4742
4675
4575
4414
4185
3928
3711
3579
3516
3460
3369
3252
3152
3098
3079
3063
3032
2996
2967
2937
2886
2816
2761
2754
2792
2830
2829
2786
2736
2707
2702
2708
2709
2707
2702
2690
2669
2645
2634
2643
2659
2664
2652
2639
2633
2628
2613
2589
2571
2572
2582
2577
2556
2542
2557
2590
2607
2593
2561
2532
2514
2489
2451
2414
2400
2414
2437
2446
2430
2402
2388
2399
2415
2398
2335
2260
2216
2210
2208
2177
2126
2089
2083
2086
2068
2025
1980
1950
1934
1923
1913
1911
1918
1919
1901
1863
1826
1812
1830
1860
1871
1851
1825
1828
1874
1943
2004
2039
2055
2066
2086
2120
2165
2214
2253
2276
2295
2328
2382
2443
2493
2522
2544
2591
2679
2788
2867
2882
2855
2849
2902
2986
3036
3029
3008
3027
3081
3111
3090
3057
3065
3110
3129
3083
3010
2985
3026
3076
3072
3019
2971
2970
3000
3015
2992
2946
2912
2904
2919
2935
2935
2921
2912
2924
2959
3000
3032
3061
3102
3152
3184
3181
3161
3157
3179
3199
3182
3128
3069
3032
3019
3009
2987
2957
2940
2942
2952
2946
2924
2914
2941
2993
3019
2986
2926
2901
2937
2988
2994
2952
2921
2946
3003
3031
2998
2934
2890
2890
2915
2932
2924
2902
2887
2895
2922
2952
2969
2968
2965
2967
2969
2959
2933
2905
2886
2875
2866
2857
2850
2849
2852
2856
2859
2866
2884
2913
2939
2935
2891
2830
2800
2830
2900
2952
2949
2910
2887
2910
2951
2964
2931
2879
2842
2822
2804
2778
2760
2758
2766
2764
2744
2720
2712
2719
2732
2743
2740
2714
2662
2605
2571
2564
2554
2515
2466
2458
2515
2599
2653
2665
2665
2677
2687
2671
2635
2607
2587
2545
2470
2400
2386
2424
2463
2465
2442
2429
2433
2435
2432
2444
2485
2536
2570
2596
2638
2700
2747
2750
2725
2714
2726
2725
2684
2623
2593
2610
2642
2653
2652
2664
2694
2716
2705
2677
2663
2675
2686
2661
2602
2536
2480
2424
2347
2243
2123
2005
1899
1812
1735
1640
1507
1372
1328
1454
1730
2035
2270
2453
2698
3084
3565
4017
4330
4470
4470
4397
4313
4236
4123
3917
3622
3327
3127
3027
2957
2857
2748
2688
2681
2673
2617
2535
2475
2461
2463
2445
2410
2385
2387
2413
2451
2493
2531
2557
2557
2533
2496
2461
2431
2413
2418
2444
2460
2441
2401
2388
2421
2457
2434
2346
2263
2243
2270
2281
2248
2211
2216
2256
2287
2295
2302
2322
2333
2310
2266
2237
2232
2229
2206
2180
2177
2195
2200
2177
2148
2146
2176
2198
2178
2125
2072
2043
2026
2004
1980
1968
1970
1958
1909
1837
1782
1766
1766
1743
1694
1653
1654
1686
1706
1684
1627
1571
1548
1557
1577
1587
1579
1560
1548
1565
1615
1685
1742
1754
1719
1672
1655
1686
1743
1796
1833
1870
1917
1968
2014
2060
2114
2167
2205
2228
2262
2331
2420
2491
2537
2589
2669
2744
2757
2697
2624
2606
2650
2699
2706
2677
2658
2677
2725
2774
2809
2821
2806
2769
2727
2697
2676
2652
2619
2590
2585
2601
2624
2637
2645
2653
2652
2631
2598
2575
2571
2571
2553
2520
2490
2470
2458
2460
2484
2529
2563
2562
2533
2506
2493
2480
2467
2479
2533
2587
2581
2519
2472
2498
2567
2596
2550
2467
2407
2383
2379
2385
2414
2455
2480
2470
2444
2436
2447
2457
2453
2444
2439
2432
2417
2416
2450
2511
2559
2561
2520
2466
2426
2400
2381
2367
2360
2362
2379
2422
2483
2535
2549
2530
2521
2544
2571
2563
2531
2529
2592
2679
2724
2704
2661
2648
2667
2686
2678
2640
2579
2517
2484
2507
2572
2620
2606
2545
2503
2520
2563
2584
2586
2622
2709
2779
2761
2679
2642
2710
2803
2788
2637
2490
2490
2617
2709
2657
2530
2488
2573
2660
2613
2447
2307
2291
2356
2399
2376
2322
2289
2285
2317
2390
2479
2514
2443
2312
2235
2262
2320
2309
2222
2138
2120
2154
2205
2278
2374
2432
2388
2288
2260
2360
2493
2533
2476
2442
2504
2593
2586
2438
2225
2051
1987
2023
2071
1996
1786
1619
1717
2093
2495
2654
2587
2525
2590
2664
2581
2361
2117
1859
1492
1082
869
1033
1463
1893
2155
2242
2146
1831
1415
1206
1326
1457
1170
515
129
586
1754
2952
3671
3973
4233
4592
4903
5050
5078
5002
4702
4088
3347
2887
2931
3294
3529
3325
2798
2449
2625
3109
3247
2665
1876
1836
2729
3459
2724
657
-1063
-929
758
2293
2554
2098
2116
2843
3487
3560
3651
4541
5981
6892
6724
6152
6228
7113
7979
8021
7267
6331
5686
5372
5257
5256
5266
5105
4652
4055
3747
4117
5165
6422
7237
7245
6671
6199
6418
7307
8248
8566
8071
7141
6325
5855
5618
5452
5372
5520
5919
6325
6416
6047
5353
4582
3940
3548
3468
3654
3980
4355
4853
5577
6415
6996
7025
6644
6340
6372
6434
5992
4965
3917
3497
3779
4262
4505
4616
4956
5460
5505
4675
3436
2779
3143
3834
3841
3106
2617
3179
4329
4912
4536
4019
4256
5004
5199
4450
3691
4049
5409
6494
6377
5529
5121
5586
6199
6077
5234
4470
4382
4776
5088
5184
5440
6118
6910
7235
6903
6302
5913
5774
5599
5252
4895
4676
4476
4153
3878
3986
4475
4895
4908
4743
4909
5466
5899
5806
5467
5494
6011
6463
6320
5729
5293
5292
5355
4990
4165
3285
2713
2523
2625
2949
3451
4079
4830
5750
6737
7457
7539
6978
6206
5670
5409
5121
4642
4203
4222
4796
5570
6035
5965
5576
5250
5158
5142
4907
4394
3907
3859
4326
4944
5251
5111
4762
4480
4285
4039
3745
3586
3634
3692
3532
3250
3232
3705
4443
4970
5043
4859
4786
4957
5218
5385
5391
5239
4914
4468
4114
4076
4332
4595
4598
4383
4208
4246
4411
4534
4555
4533
4501
4429
4320
4270
4373
4599
4802
4863
4792
4679
4597
4576
4610
4662
4671
4594
4442
4268
4163
4193
4334
4456
4397
4135
3859
3818
4043
4286
4292
4115
4042
4214
4432
4436
4284
4264
4437
4491
4148
3609
3377
3637
4020
4075
3814
3607
3644
3708
3561
3348
3404
3757
4049
4019
3862
3967
4437
4975
5223
5099
4766
4436
4263
4366
4763
5289
5669
5797
5839
6033
6373
6551
6260
5517
4652
4015
3711
3600
3510
3441
3502
3729
4009
4179
4184
4084
3892
3508
2859
2057
1374
1023
1013
1210
1498
1888
2440
3148
3916
4616
5181
5658
6135
6602
6902
6891
6636
6400
6346
6319
5996
5289
4548
4236
4443
4789
4803
4398
3916
3744
3933
4190
4191
3863
3380
2936
2609
2394
2320
2431
2649
2808
2811
2767
2858
3045
3042
2664
2123
1883
2183
2777
3224
3343
3316
3370
3493
3535
3471
3403
3359
3216
2854
2377
2070
2096
2332
2524
2555
2538
2651
2908
3134
3146
2940
2710
2632
2660
2546
2139
1620
1378
1621
2142
2527
2579
2501
2600
2908
3158
3090
2722
2288
1985
1842
1820
1940
2228
2598
2871
2939
2837
2668
2458
2139
1708
1319
1152
1227
1360
1343
1153
983
1047
1348
1600
1437
761
-67
-474
-182
508
1023
1088
992
1232
1897
2544
2709
2452
2223
2273
2336
2028
1483
1268
1630
2028
1665
516
-457
-321
728
1540
1364
743
847
2040
3419
3872
3325
2712
2796
3329
3513
3034
2362
2088
2246
2421
2371
2236
2189
2146
1948
1640
1422
1358
1310
1217
1251
1545
1915
2034
1876
1818
2162
2688
2879
2543
2061
1936
2232
2545
2494
2101
1662
1401
1316
1297
1303
1358
1459
1563
1625
1647
1670
1744
1892
2089
2236
2223
2022
1724
1473
1349
1305
1245
1141
1050
1065
1212
1435
1661
1835
1910
1849
1662
1448
1339
1384
1501
1564
1551
1564
1705
1955
2175
2233
2129
1986
1926
1956
1992
1968
1927
1946
2038
2113
2093
2019
2006
2093
2196
2211
2144
2105
2172
2308
2412
2430
2386
2327
2266
2201
2153
2144
2159
2146
2080
2007
2002
2085
2190
2230
2201
2174
2219
2317
2398
2420
2410
2419
2450
2447
2383
2304
2288
2353
2436
2465
2435
2404
2428
2498
2556
2551
2491
2429
2422
2475
2544
2580
2575
2569
2591
2620
2602
2525
2448
2443
2509
2570
2556
2481
2427
2448
2513
2546
2501
2399
2306
2256
2222
2156
2053
1958
1910
1890
1838
1708
1513
1295
1078
880
755
783
984
1272
1536
1777
2111
2637
3295
3902
4301
4477
4521
4505
4436
4290
4071
3800
3486
3136
2795
2542
2432
2432
2442
2387
2275
2168
2107
2083
2058
2003
1909
1786
1656
1562
1518
1485
1415
1314
1243
1243
1275
1271
1226
1192
1200
1207
1182
1177
1271
1443
1567
1565
1512
1552
1717
1877
1889
1755
1600
1512
1470
1415
1346
1311
1324
1334
1297
1239
1229
1295
1379
1397
1323
1204
1108
1072
1085
1114
1117
1062
953
838
774
766
754
687
588
532
550
587
572
510
475
508
560
558
495
429
391
348
262
160
108
124
169
202
222
243
253
235
205
196
200
154
39
-59
-17
180
403
515
522
551
682
848
922
868
768
713
703
688
672
718
851
991
1035
980
939
1007
1146
1230
1193
1101
1076
1158
1269
1317
1296
1272
1297
1343
1355
1319
1286
1311
1386
1450
1451
1406
1382
1412
1457
1454
1402
1359
1364
1375
1318
1194
1103
1134
1243
1294
1208
1060
991
1046
1130
1135
1067
1013
1028
1071
1080
1060
1076
1147
1224
1250
1237
1236
1262
1278
1248
1202
1195
1233
1265
1246
1196
1183
1239
1329
1381
1357
1276
1191
1146
1150
1177
1069
1153
1171
1124
1059
1009
976
952
944
970
1023
1074
1098
1100
1108
1140
1188
1221
1207
1140
1051
987
960
931
843
713
629
662
767
831
809
790
867
999
1031
880
651
517
527
567
527
417
334
319
326
303
245
161
35
-118
-192
-56
311
782
1205
1573
2010
2616
3314
3890
4166
4137
3948
3749
3578
3363
3033
2610
2204
1910
1725
1578
1419
1264
1157
1098
1045
958
850
762
714
696
676
637
597
591
629
672
661
591
527
558
691
845
925
918
894
905
934
917
806
609
385
199
99
98
162
243
321
402
489
560
605
655
750
870
930
878
775
736
793
828
698
405
96
-86
-148
-200
-302
-397
-386
-259
-108
-29
-33
-63
-77
-85
-116
-175
-228
-251
-248
-242
-244
-248
-253
-265
-290
-329
-379
-436
-488
-508
-476
-409
-352
-345
-376
-400
-392
-372
-372
-389
-392
-360
-315
-290
-287
-274
-229
-175
-157
-188
-227
-216
-132
-4
120
227
352
529
748
950
1070
1099
1085
1088
1118
1144
1126
1068
1017
1019
1082
1168
1233
1258
1252
1232
1213
1202
1197
1178
1120
1026
933
889
900
924
912
861
813
803
817
824
812
802
809
812
787
747
729
760
819
873
904
921
931
932
928
941
987
1050
1082
1054
983
915
881
864
830
760
667
589
555
570
612
644
641
609
585
596
620
598
502
386
350
443
603
724
762
773
836
945
1004
942
796
672
631
636
616
567
561
653
807
918
922
856
806
810
821
774
672
580
548
559
573
588
649
763
861
856
742
609
554
584
616
573
478
428
489
628
729
717
638
611
710
873
973
957
903
916
994
1028
943
789
678
643
606
504
396
425
656
994
1262
1356
1319
1276
1308
1394
1442
1372
1192
997
899
951
1107
1256
1293
1183
972
745
564
425
285
141
63
151
441
864
1319
1757
2205
2705
3227
3680
3974
4084
4067
4000
3903
3718
3383
2927
2495
2230
2137
2087
1978
1846
1810
1907
2024
2015
1862
1670
1537
1454
1352
1220
1120
1100
1127
1142
1145
1193
1298
1384
1358
1215
1050
951
904
811
627
433
341
359
366
263
113
109
376
838
1286
1569
1698
1780
1883
1987
2039
2010
1904
1741
1567
1451
1440
1507
1575
1589
1552
1486
1383
1226
1039
885
808
788
767
725
701
750
870
998
1052
1003
897
801
720
589
383
183
101
112
55
-174
-444
-509
-316
-97
-99
-281
-369
-211
30
92
-59
-192
-106
148
371
471
525
653
865
1074
1206
1262
1281
1302
1327
1324
1264
1163
1079
1044
1001
858
621
412
360
461
601
708
830
1035
1290
1484
1562
1573
1581
1553
1414
1174
952
862
902
971
984
944
907
916
963
998
977
893
789
730
752
823
880
882
847
815
796
761
699
639
614
618
611
570
523
512
543
570
559
525
518
563
633
684
700
706
719
739
768
808
839
828
768
707
697
729
682
430
259
130
31
-25
25
214
474
700
875
1077
1353
1615
1723
1630
1436
1266
1138
992
807
654
613
681
771
811
810
828
886
942
936
853
747
699
732
798
828
801
753
727
725
712
668
616
598
623
661
679
678
679
680
656
590
509
449
410
360
291
248
269
319
316
218
69
-85
-272
-538
-839
-1016
-941
-669
-374
-143
132
634
1387
2194
2811
3143
3282
3371
3458
3480
3355
3069
2685
2288
1954
1713
1553
1431
1306
1171
1056
992
979
999
1020
1015
964
862
736
651
650
705
725
660
565
539
595
621
519
349
267
346
470
474
360
301
428
648
739
614
415
320
340
354
286
196
173
198
180
97
44
114
267
358
283
97
-39
4
203
392
393
192
-30
-86
18
94
-8
-205
-300
-238
-172
-252
-423
-505
-442
-371
-431
-574
-639
-580
-531
-593
-682
-655
-530
-479
-624
-882
-1057
-1049
-938
-865
-894
-979
-1027
-959
-777
-580
-514
-648
-874
-992
-914
-750
-692
-797
-919
-863
-610
-332
-224
-305
-414
-369
-148
88
167
85
12
113
377
625
695
613
555
646
825
923
857
724
697
829
1008
1092
1065
1029
1063
1121
1114
1039
984
996
1013
946
803
712
753
849
867
778
696
723
827
874
797
675
623
650
659
579
445
362
367
412
445
467
507
551
558
541
572
658
708
643
527
484
514
490
355
276
431
719
809
551
239
300
749
1132
1046
613
325
459
780
874
648
382
342
473
523
382
199
164
280
380
354
266
242
303
354
311
210
143
153
184
178
177
251
394
528
595
620
665
737
792
799
793
821
864
855
761
660
661
781
919
953
854
714
653
702
769
733
568
383
323
409
476
355
87
-85
12
235
256
-71
-527
-793
-849
-961
-1306
-1707
-1807
-1474
-908
-381
57
569
1273
2120
2943
3571
3905
3936
3778
3602
3481
3306
2924
2354
1825
1548
1515
1541
1460
1265
1042
873
792
778
774
701
534
361
311
410
535
542
441
360
383
458
472
383
241
114
26
-4
71
238
397
438
360
282
307
396
433
360
230
127
83
84
117
171
216
214
172
137
134
137
100
25
-39
-70
-82
-83
-47
54
190
291
320
308
302
313
303
242
144
49
-24
-70
-92
-99
-102
-112
-137
-172
-203
-221
-236
-270
-335
-414
-474
-503
-516
-544
-595
-640
-637
-566
-455
-363
-349
-417
-505
-527
-453
-350
-319
-378
-448
-416
-263
-80
23
32
17
54
140
219
248
249
276
347
432
497
547
622
734
842
903
919
939
1003
1093
1170
1223
1272
1328
1372
1377
1346
1321
1334
1383
1426
1431
1409
1394
1402
1411
1390
1325
1238
1156
1094
1043
1002
978
974
982
986
978
966
954
943
935
932
929
917
896
884
912
977
1037
1046
1009
972
972
998
1004
962
887
816
768
751
778
848
929
965
936
871
818
789
740
639
513
412
366
359
373
422
513
616
686
711
704
686
669
662
683
725
738
680
581
531
588
703
773
747
677
652
706
801
878
904
882
818
733
670
672
744
833
866
828
773
773
841
908
899
813
716
658
623
565
480
395
307
168
-55
-320
-564
-782
-1035
-1328
-1538
-1496
-1162
-700
-316
-43
287
833
1522
2088
2331
2315
2275
2351
2460
2444
2274
2077
1966
1922
1868
1796
1768
1777
1729
1541
1252
986
828
770
746
714
666
628
654
793
990
1065
828
291
-292
-628
-637
-478
-324
-188
26
367
774
1172
1550
1875
1985
1670
920
54
-493
-531
-262
-35
10
20
221
672
1224
1658
1814
1658
1286
894
669
644
674
586
354
94
-84
-196
-304
-393
-368
-201
2
86
1
-150
-220
-149
-10
80
58
-57
-176
-200
-75
164
411
567
618
625
632
590
404
39
-390
-683
-740
-648
-568
-548
-496
-333
-98
87
185
261
319
205
-260
-1028
-1770
-2119
-1979
-1587
-1294
-1242
-1261
-1018
-314
701
1593
1963
1786
1434
1331
1580
1917
2013
1786
1413
1116
985
987
1066
1159
1185
1087
903
762
749
838
937
979
969
943
900
815
695
602
605
698
771
683
400
45
-187
-188
-17
193
365
521
712
940
1161
1331
1426
1423
1305
1103
900
772
728
717
687
640
612
616
640
664
680
696
699
655
546
396
285
285
397
530
588
564
542
595
710
810
843
825
780
681
485
225
25
-8
97
201
200
139
159
347
638
874
946
876
782
754
785
800
743
633
548
537
574
601
597
597
636
694
717
684
632
597
577
550
513
483
453
375
228
68
-34
-82
-157
-314
-503
-628
-673
-722
-830
-916
-824
-496
-55
315
566
824
1249
1838
2418
2804
2948
2941
2894
2837
2737
2553
2272
1908
1506
1156
947
899
921
888
763
621
550
560
583
552
457
337
228
151
110
90
70
48
49
95
161
189
154
95
71
90
110
107
101
122
150
136
69
3
-8
37
79
73
38
35
90
164
196
159
88
42
37
49
44
19
-2
-17
-38
-70
-88
-70
-31
-17
-42
-70
-50
14
72
83
68
85
147
204
191
109
32
18
48
50
-1
-57
-59
-12
13
-27
-91
-113
-88
-73
-105
-155
-162
-120
-81
-90
-132
-159
-151
-139
-161
-222
-286
-307
-265
-180
-103
-73
-68
-33
61
175
244
243
214
207
243
314
417
542
651
694
665
626
652
749
841
861
818
786
821
923
1047
1147
1195
1172
1078
945
829
772
776
812
849
871
876
875
896
968
1082
1171
1161
1050
924
892
975
1090
1135
1085
1003
970
1014
1097
1161
1176
1146
1095
1040
984
930
904
937
1003
1006
863
614
432
486
767
1083
1246
1245
1225
1310
1476
1597
1594
1496
1384
1306
1265
1252
1262
1287
1322
1373
1455
1555
1632
1662
1672
1697
1719
1655
1454
1183
998
1006
1177
1400
1594
1753
1884
1958
1935
1835
1732
1664
1591
1460
1293
1193
1246
1442
1703
1954
2163
2297
2296
2141
1914
1738
1647
1553
1366
1121
966
963
1005
934
733
544
477
472
384
187
11
-34
-6
-42
-161
-206
-42
279
593
846
1166
1692
2378
3011
3409
3553
3548
3500
3439
3334
3132
2805
2386
1978
1697
1590
1603
1617
1551
1404
1235
1106
1034
987
903
762
598
476
431
441
467
502
562
652
760
866
956
1022
1055
1065
1077
1111
1151
1151
1086
978
872
780
694
618
598
663
767
834
826
804
858
985
1048
883
468
-28
-370
-455
-375
-276
-192
-23
327
809
1268
1581
1740
1797
1767
1612
1342
1059
886
850
853
797
698
654
711
785
748
555
298
101
-3
-63
-121
-155
-120
-28
48
43
-31
-111
-155
-171
-200
-243
-258
-222
-171
-178
-275
-414
-516
-550
-548
-552
-552
-507
-419
-341
-303
-256
-115
135
401
583
674
747
864
1014
1147
1220
1223
1167
1091
1043
1050
1094
1138
1171
1211
1276
1351
1419
1483
1549
1584
1539
1432
1347
1349
1413
1462
1465
1462
1480
1476
1411
1327
1315
1385
1431
1356
1206
1118
1148
1197
1133
959
809
786
852
893
852
776
739
755
777
775
760
748
734
697
626
530
424
328
265
224
150
-10
-242
-449
-535
-503
-450
-461
-512
-505
-384
-187
12
166
263
296
261
201
198
293
424
465
347
137
-29
-67
-8
55
76
65
51
30
2
14
117
288
407
359
180
40
88
298
501
567
523
484
511
576
628
644
626
573
471
310
108
-75
-182
-222
-301
-544
-941
-1308
-1456
-1411
-1386
-1506
-1615
-1441
-924
-301
175
526
986
1677
2454
3060
3390
3528
3597
3617
3542
3355
3077
2719
2293
1879
1613
1541
1532
1414
1172
967
936
1019
1020
837
582
431
413
376
206
-20
-120
-13
191
320
319
277
316
452
589
618
501
284
54
-109
-157
-92
13
53
-17
-125
-136
12
225
321
214
11
-101
-46
70
104
44
1
61
174
222
180
146
208
289
215
-45
-300
-328
-153
-23
-124
-378
-545
-516
-412
-402
-496
-600
-665
-724
-788
-780
-660
-524
-516
-656
-817
-882
-868
-867
-922
-991
-1051
-1112
-1150
-1091
-920
-745
-697
-779
-875
-903
-921
-1003
-1097
-1060
-862
-634
-523
-553
-611
-598
-507
-398
-326
-336
-427
-513
-480
-294
-62
75
97
112
192
288
305
246
196
222
282
296
249
206
225
308
421
522
560
522
450
411
429
475
504
494
464
415
352
311
351
492
662
740
670
521
407
373
372
342
285
245
222
175
84
28
114
328
487
421
177
-5
53
252
334
187
-46
-131
-10
150
169
60
-17
29
119
116
12
-60
-1
128
174
78
-47
-49
76
172
112
-54
-163
-107
53
159
123
6
-44
81
327
535
604
585
602
684
734
664
537
499
576
614
484
292
275
496
733
726
492
303
363
569
657
524
321
254
344
424
349
145
-41
-111
-101
-130
-261
-447
-626
-794
-1004
-1280
-1558
-1701
-1620
-1352
-1003
-626
-201
307
885
1471
2003
2427
2681
2708
2530
2272
2077
1969
1828
1543
1160
864
792
900
1006
964
805
669
655
721
746
653
482
332
267
270
282
278
269
287
350
430
450
333
96
-133
-219
-147
-42
-34
-97
-88
63
241
269
123
-42
-76
5
63
13
-85
-106
-3
156
274
300
249
172
109
73
45
-4
-78
-151
-177
-127
-19
76
90
38
13
82
185
163
-52
-315
-393
-250
-110
-199
-459
-611
-484
-212
-58
-104
-206
-221
-185
-211
-294
-314
-220
-129
-178
-345
-476
-463
-365
-304
-328
-378
-394
-380
-360
-333
-281
-235
-279
-439
-620
-674
-562
-403
-323
-324
-287
-140
49
150
127
73
80
142
186
192
219
342
558
789
963
1059
1100
1120
1123
1090
1005
889
796
782
840
908
954
998
1080
1184
1219
1134
979
857
813
785
692
542
423
415
504
614
684
715
740
777
820
852
848
803
742
713
736
777
775
714
661
681
752
768
671
529
471
529
605
588
485
413
456
562
613
570
511
523
585
594
496
355
280
296
319
260
118
-31
-122
-146
-116
-27
126
301
431
506
593
752
941
1037
974
822
709
680
670
600
492
442
495
596
658
658
660
711
754
681
477
278
247
386
527
541
501
586
816
942
702
140
-383
-562
-455
-382
-527
-723
-695
-418
-154
-120
-243
-262
-67
181
289
308
482
955
1603
2187
2613
2931
3145
3134
2821
2354
2022
1955
1995
1912
1704
1596
1774
2147
2442
2459
2208
1840
1509
1298
1210
1195
1168
1085
996
1005
1135
1289
1324
1193
983
796
633
430
171
-70
-207
-230
-199
-158
-109
-56
-49
-127
-240
-271
-151
47
176
160
66
15
60
138
158
86
-45
-186
-311
-404
-460
-482
-492
-510
-532
-543
-542
-550
-578
-611
-636
-650
-660
-665
-665
-680
-737
-841
-950
-1011
-1020
-1010
-985
-912
-773
-615
-507
-451
-380
-259
-164
-200
-360
-506
-510
-400
-326
-378
-490
-520
-408
-243
-162
-204
-300
-349
-323
-278
-291
-380
-484
-531
-516
-505
-545
-611
-623
-538
-402
-303
-269
-247
-171
-37
102
194
228
235
261
328
414
455
416
338
313
393
531
629
652
662
727
842
938
962
925
868
811
762
728
711
689
641
600
616
677
676
533
305
145
109
73
-118
-424
-602
-447
-30
369
558
609
737
1038
1386
1589
1575
1437
1307
1229
1174
1104
1020
944
894
869
868
884
915
954
985
994
973
936
913
913
907
857
771
694
658
637
579
453
260
15
-253
-479
-576
-492
-271
-7
258
575
994
1459
1831
2009
2014
1928
1799
1623
1422
1273
1234
1277
1315
1303
1277
1290
1331
1338
1275
1167
1057
957
864
797
795
848
888
835
671
458
280
169
85
-39
-221
-411
-548
-632
-727
-877
-1011
-977
-690
-240
182
479
746
1165
1794
2489
3023
3266
3277
3217
3191
3171
3037
2708
2233
1763
1436
1262
1157
1031
875
742
659
593
501
388
300
252
211
136
41
-14
-4
28
12
-64
-148
-184
-180
-184
-216
-244
-215
-123
-5
94
158
189
186
155
122
110
116
109
86
84
126
167
133
24
-66
-46
64
152
144
76
31
43
78
100
100
71
4
-89
-163
-179
-163
-170
-219
-265
-274
-263
-263
-255
-193
-80
4
-6
-86
-141
-125
-90
-112
-208
-314
-368
-370
-365
-379
-388
-361
-297
-246
-252
-307
-361
-370
-337
-302
-298
-318
-331
-320
-293
-272
-266
-275
-284
-282
-264
-235
-209
-191
-173
-135
-65
29
117
179
217
255
308
377
450
519
592
682
788
893
982
1053
1109
1148
1160
1137
1093
1048
1020
1013
1020
1037
1067
1117
1178
1230
1256
1253
1235
1202
1148
1070
994
953
954
968
968
961
981
1026
1050
1016
948
920
970
1062
1125
1128
1106
1109
1138
1145
1084
952
786
632
510
426
373
345
338
349
381
432
490
528
522
478
433
423
447
476
496
522
572
632
670
676
674
691
717
721
697
690
734
811
867
880
882
913
968
1005
1002
984
979
981
959
908
862
844
838
815
776
754
773
807
816
789
758
759
792
821
811
760
709
689
687
649
540
387
249
150
53
-83
-262
-463
-671
-870
-989
-930
-669
-314
-4
254
601
1163
1878
2526
2919
3048
3034
2977
2898
2764
2550
2254
1897
1547
1303
1224
1261
1284
1202
1047
921
873
853
786
661
544
488
484
487
469
442
416
389
362
361
404
460
465
398
321
314
383
441
407
300
218
214
252
265
253
273
351
426
421
336
247
218
234
239
211
183
200
269
356
425
450
432
389
334
270
198
138
122
153
176
134
49
7
39
55
-61
-286
-448
-402
-211
-62
-45
-47
91
362
589
619
479
314
225
202
184
145
101
87
126
226
363
464
465
376
273
215
191
170
160
193
244
228
101
-59
-112
-1
173
248
166
25
-18
124
413
723
930
987
945
909
950
1044
1102
1065
969
901
920
1013
1129
1231
1311
1363
1375
1340
1276
1217
1190
1191
1186
1140
1050
952
902
923
973
992
962
915
882
854
798
716
663
687
769
835
836
782
721
680
658
647
644
649
647
628
613
637
698
747
725
621
492
403
364
318
210
50
-90
-146
-125
-79
-53
-56
-79
-117
-161
-202
-233
-262
-313
-386
-440
-441
-394
-344
-318
-305
-287
-280
-324
-430
-561
-661
-695
-648
-523
-332
-106
108
284
432
574
694
731
643
442
205
15
-89
-113
-77
-1
92
186
266
313
317
279
188
19
-245
-585
-914
-1138
-1262
-1397
-1629
-1878
-1941
-1710
-1304
-933
-662
-351
144
784
1386
1824
2111
2312
2438
2453
2370
2238
2069
1839
1554
1287
1124
1084
1099
1094
1029
909
768
660
619
612
570
459
319
231
225
241
213
141
80
77
127
183
194
149
83
61
123
248
369
416
356
215
87
82
229
423
505
422
298
301
441
558
510
339
199
177
213
214
178
164
201
237
218
147
73
41
51
59
25
-47
-114
-131
-93
-43
-21
-19
-12
0
-18
-92
-193
-264
-286
-275
-255
-240
-246
-288
-348
-370
-340
-311
-366
-511
-653
-699
-645
-577
-562
-576
-561
-496
-414
-358
-341
-361
-417
-484
-517
-476
-375
-270
-218
-214
-195
-123
-26
20
-32
-137
-195
-120
78
278
351
284
207
274
488
687
702
540
385
407
606
835
956
956
909
876
874
897
929
935
875
760
662
654
724
780
755
678
642
678
717
670
555
479
503
569
562
435
261
148
126
148
159
147
129
116
133
204
320
400
359
202
46
4
49
62
-7
-80
-52
81
216
277
270
232
175
105
59
68
91
32
-135
-295
-302
-132
95
234
249
217
230
308
393
419
378
311
286
316
353
349
322
336
420
531
577
529
456
452
528
613
626
554
457
391
360
337
305
288
307
326
277
142
-3
-64
-39
-41
-192
-482
-780
-953
-995
-1032
-1171
-1375
-1457
-1253
-789
-275
99
360
737
1401
2249
2977
3368
3487
3531
3583
3550
3326
2951
2563
2226
1904
1576
1317
1204
1178
1088
871
630
507
512
523
451
341
302
359
442
487
501
505
479
395
283
223
241
258
182
31
-52
54
315
561
632
517
356
294
356
438
439
346
240
194
207
237
254
255
247
234
230
243
250
222
163
124
141
176
161
96
57
111
203
224
151
72
63
99
107
71
35
14
-38
-132
-198
-166
-78
-57
-145
-265
-308
-273
-262
-342
-461
-526
-507
-458
-434
-430
-403
-338
-274
-260
-300
-350
-365
-338
-319
-335
-358
-338
-254
-150
-93
-103
-133
-138
-118
-96
-76
-38
21
67
91
128
220
345
435
465
491
575
704
799
819
808
840
909
939
887
804
775
825
900
933
931
950
1019
1101
1131
1085
1008
973
1005
1051
1035
951
883
918
1043
1134
1081
910
746
683
693
687
623
542
505
514
534
545
556
573
577
550
507
483
475
449
382
300
247
230
206
141
63
27
32
27
-28
-91
-75
44
194
279
282
265
294
378
490
608
723
830
930
1036
1165
1295
1362
1338
1276
1253
1271
1263
1181
1076
1036
1085
1163
1193
1165
1128
1134
1178
1185
1046
695
214
-186
-324
-201
23
215
401
694
1132
1609
1961
2085
1976
1697
1347
1020
739
458
146
-128
-262
-263
-274
-414
-607
-663
-493
-220
-26
71
238
651
1337
2149
2860
3284
3351
3145
2850
2624
2486
2324
2043
1685
1414
1349
1473
1652
1762
1773
1707
1575
1369
1107
849
634
415
117
-243
-525
-579
-387
-78
204
404
560
702
822
905
951
963
910
772
584
427
345
307
239
114
-23
-105
-119
-108
-140
-247
-389
-498
-539
-536
-539
-577
-641
-705
-766
-838
-930
-1020
-1060
-1037
-977
-921
-886
-857
-819
-783
-775
-790
-796
-770
-735
-730
-763
-792
-782
-742
-720
-733
-731
-657
-519
-406
-395
-468
-524
-483
-385
-351
-437
-555
-564
-422
-246
-176
-215
-224
-111
27
-11
-292
-640
-801
-699
-505
-429
-497
-541
-395
-82
214
330
266
145
85
91
70
-44
-193
-246
-151
1
68
22
-10
70
189
180
7
-179
-216
-127
-70
-105
-113
37
297
484
502
455
501
651
764
724
578
465
462
520
555
549
561
638
756
850
875
839
783
747
745
754
732
642
500
377
341
373
369
250
63
-48
16
201
366
432
454
537
704
868
918
839
715
646
652
666
629
564
550
628
744
814
804
753
695
607
464
296
194
221
341
464
534
577
660
803
953
1033
1008
914
816
763
753
760
775
802
834
846
822
786
785
832
883
878
807
719
665
650
639
591
500
383
256
115
-45
-211
-358
-462
-538
-629
-762
-893
-913
-742
-416
-61
220
456
764
1223
1772
2249
2533
2620
2594
2536
2467
2360
2174
1887
1523
1151
858
698
645
616
543
420
285
183
130
110
91
47
-29
-124
-205
-250
-257
-235
-204
-179
-182
-215
-251
-268
-270
-279
-292
-285
-253
-235
-270
-324
-318
-239
-170
-191
-257
-237
-68
169
333
375
354
333
298
208
70
-68
-181
-287
-389
-454
-445
-383
-334
-329
-338
-311
-253
-222
-255
-314
-328
-271
-186
-145
-171
-220
-233
-198
-157
-167
-241
-330
-362
-306
-204
-126
-103
-106
-83
-29
8
-11
-66
-102
-101
-102
-144
-213
-250
-217
-146
-91
-62
-13
94
234
341
372
349
320
305
282
234
191
204
286
402
499
564
630
727
840
918
928
893
866
873
895
905
916
961
1027
1051
1003
942
964
1073
1161
1133
1024
951
963
987
942
855
819
862
912
901
860
864
930
989
976
902
822
762
714
663
621
604
605
606
609
630
669
697
675
605
529
498
520
552
555
542
571
671
794
855
822
744
687
656
602
491
360
277
266
286
287
267
265
306
369
409
406
369
331
324
361
426
479
489
464
456
514
624
718
742
703
669
699
784
864
887
852
800
772
769
762
731
692
674
680
677
646
614
625
672
693
630
503
403
378
380
317
173
23
-71
-133
-239
-403
-570
-695
-812
-958
-1073
-1018
-726
-297
85
355
633
1088
1735
2398
2852
3008
2963
2888
2872
2857
2717
2392
1966
1597
1385
1306
1254
1151
1006
881
814
791
759
694
616
565
553
544
496
416
361
375
434
476
471
446
430
431
435
444
467
493
487
441
379
325
264
180
115
115
170
211
208
205
273
393
459
388
223
88
63
105
101
-44
-308
-544
-560
-283
137
421
413
251
263
630
1173
1494
1344
877
538
648
1084
1391
1241
806
602
928
1515
1781
1441
796
403
487
780
883
688
421
364
595
960
1220
1212
941
568
290
187
184
173
141
159
271
449
638
814
969
1056
1021
858
625
383
179
55
50
147
266
346
413
531
690
806
822
788
786
811
790
691
590
577
649
718
713
655
614
624
650
649
609
543
457
350
239
163
169
256
368
429
426
426
503
642
739
718
617
540
539
568
568
535
502
479
457
454
514
621
681
612
470
399
458
532
448
177
-123
-255
-174
-11
65
15
-46
6
186
380
472
442
354
242
71
-189
-480
-686
-756
-758
-775
-797
-726
-499
-161
182
461
671
818
901
926
927
936
938
891
781
657
559
471
336
160
36
67
243
430
496
464
492
691
991
1196
1177
973
706
439
145
-206
-549
-784
-880
-928
-1028
-1177
-1271
-1227
-1104
-1086
-1297
-1642
-1846
-1690
-1213
-675
-281
28
485
1239
2170
3000
3530
3754
3804
3784
3700
3503
3165
2717
2249
1874
1659
1591
1591
1582
1538
1470
1396
1327
1267
1215
1155
1069
964
865
810
801
806
795
770
751
749
732
659
538
427
393
440
499
499
449
424
456
493
469
396
349
366
406
418
394
372
362
325
244
167
157
218
273
269
227
214
264
325
318
224
107
52
83
150
183
164
134
123
127
137
143
139
95
-7
-124
-179
-155
-121
-163
-285
-402
-434
-399
-373
-390
-427
-468
-528
-592
-597
-504
-379
-342
-420
-496
-444
-308
-267
-416
-638
-717
-588
-412
-377
-465
-487
-330
-99
13
-31
-77
1
119
105
-57
-166
-45
221
387
363
323
473
779
1009
1016
889
809
815
807
729
657
680
752
753
674
653
801
1041
1175
1100
918
811
853
937
913
743
537
448
531
707
832
826
729
650
663
733
756
666
524
443
468
539
559
497
439
458
527
555
493
393
353
406
492
521
470
394
364
392
407
336
191
70
63
177
319
389
375
363
431
566
668
647
526
417
411
467
470
371
248
229
338
456
473
400
357
430
576
672
657
591
582
654
730
721
625
540
553
644
710
697
654
671
779
908
946
849
670
490
358
268
176
37
-154
-368
-577
-772
-981
-1236
-1520
-1764
-1865
-1774
-1521
-1178
-801
-373
143
765
1451
2124
2711
3144
3378
3425
3372
3317
3257
3077
2692
2174
1717
1460
1358
1257
1085
907
808
771
715
611
514
496
511
457
308
154
117
210
342
419
426
408
374
288
157
58
48
94
98
27
-38
5
154
309
380
378
375
392
378
294
167
55
-22
-91
-164
-212
-209
-166
-118
-76
-23
38
69
38
-30
-78
-81
-71
-81
-109
-107
-60
-4
16
1
-8
6
-3
-85
-216
-303
-295
-248
-260
-351
-438
-442
-389
-369
-421
-497
-542
-565
-602
-653
-686
-688
-680
-680
-672
-629
-565
-512
-479
-461
-486
-576
-688
-714
-607
-457
-409
-475
-499
-349
-76
135
161
63
-20
-19
30
69
77
74
93
146
229
322
407
484
564
634
657
615
556
553
615
681
698
680
676
698
698
640
565
544
581
605
548
436
365
389
463
492
430
329
271
285
325
332
301
263
242
238
248
285
347
387
360
275
205
211
272
306
262
177
131
173
283
392
444
429
392
392
447
516
528
448
312
200
159
156
118
36
-13
41
155
193
71
-127
-248
-255
-277
-451
-727
-906
-839
-568
-243
30
244
435
628
854
1126
1378
1471
1318
1018
802
827
1030
1216
1254
1188
1146
1198
1292
1329
1240
996
615
179
-213
-506
-707
-842
-886
-782
-568
-399
-385
-425
-269
141
498
402
-147
-628
-478
315
1189
1601
1580
1627
2127
2943
3581
3696
3353
2876
2527
2363
2290
2195
2011
1735
1447
1259
1217
1262
1279
1203
1065
934
842
773
728
722
750
747
655
500
383
358
369
314
178
48
2
17
-8
-115
-240
-301
-306
-342
-456
-601
-694
-721
-733
-774
-843
-916
-997
-1099
-1210
-1287
-1302
-1272
-1242
-1240
-1263
-1290
-1301
-1289
-1262
-1246
-1269
-1331
-1391
-1404
-1366
-1314
-1280
-1271
-1267
-1247
-1196
-1112
-1018
-958
-965
-1025
-1069
-1029
-905
-765
-678
-647
-623
-562
-479
-426
-435
-487
-535
-564
-602
-682
-788
-859
-853
-803
-795
-866
-962
-987
-919
-834
-829
-905
-959
-905
-778
-685
-679
-697
-651
-539
-446
-438
-485
-499
-438
-349
-295
-282
-271
-237
-191
-152
-105
-30
54
91
54
-10
-13
79
208
290
303
305
356
441
492
479
435
395
352
278
188
145
184
258
289
255
213
220
262
273
216
115
24
-21
-9
52
140
218
261
277
294
323
340
326
296
280
279
265
226
193
196
215
197
115
13
-49
-50
-16
20
48
75
103
132
171
214
238
220
171
137
151
204
260
308
376
478
581
630
606
550
520
533
560
562
538
531
578
672
761
794
761
704
660
628
576
486
379
292
235
192
150
111
84
39
-67
-229
-377
-448
-473
-563
-771
-1005
-1128
-1119
-1115
-1218
-1320
-1187
-727
-140
277
453
607
998
1634
2262
2616
2640
2471
2274
2118
1967
1752
1425
988
519
146
-31
-27
22
-15
-152
-301
-386
-438
-531
-673
-770
-740
-615
-506
-477
-478
-425
-304
-181
-114
-111
-166
-302
-522
-748
-852
-789
-666
-657
-833
-1095
-1268
-1265
-1148
-1048
-1046
-1118
-1180
-1168
-1095
-1022
-995
-1008
-1029
-1046
-1067
-1078
-1037
-920
-773
-690
-712
-784
-813
-771
-712
-704
-735
-746
-714
-683
-700
-750
-775
-759
-748
-786
-856
-901
-904
-899
-919
-948
-946
-909
-898
-950
-1031
-1054
-979
-865
-800
-804
-821
-783
-704
-660
-692
-759
-786
-747
-688
-663
-670
-652
-581
-491
-430
-416
-420
-408
-381
-356
-325
-279
-241
-253
-308
-324
-224
-38
103
115
62
92
266
489
611
593
537
552
640
715
719
675
645
653
684
719
761
802
816
788
733
681
645
614
581
559
551
527
450
335
246
236
284
325
322
309
350
458
578
648
655
634
620
608
585
548
515
491
466
425
371
326
302
291
267
217
147
74
21
-2
-2
-9
-56
-147
-245
-298
-287
-252
-248
-286
-315
-285
-200
-116
-81
-92
-111
-116
-110
-100
-77
-34
19
67
109
149
172
155
109
77
91
106
45
-90
-187
-151
-53
-94
-383
-763
-930
-733
-326
-3
107
144
320
673
1035
1209
1128
858
510
177
-88
-285
-472
-704
-961
-1163
-1278
-1377
-1541
-1722
-1765
-1577
-1247
-952
-746
-493
-27
648
1345
1849
2064
2041
1901
1757
1661
1585
1445
1175
814
488
297
207
78
-185
-515
-751
-800
-727
-670
-694
-724
-663
-516
-404
-435
-599
-785
-899
-935
-946
-967
-983
-973
-930
-869
-799
-721
-659
-652
-716
-819
-901
-930
-914
-869
-795
-700
-620
-595
-625
-664
-690
-753
-923
-1185
-1420
-1509
-1450
-1339
-1263
-1215
-1128
-957
-718
-472
-295
-245
-321
-452
-547
-587
-641
-769
-935
-1043
-1056
-1027
-1002
-958
-865
-792
-864
-1089
-1290
-1295
-1147
-1077
-1226
-1451
-1472
-1223
-947
-935
-1199
-1465
-1471
-1226
-945
-808
-796
-768
-626
-383
-129
34
48
-62
-211
-312
-358
-405
-478
-538
-520
-429
-315
-203
-80
41
84
-4
-148
-215
-179
-177
-348
-623
-746
-566
-228
-35
-114
-267
-184
203
637
804
652
414
329
404
466
398
260
190
215
255
244
229
293
420
502
464
361
313
356
403
359
233
125
100
107
60
-47
-126
-110
-44
-27
-90
-152
-143
-92
-87
-147
-188
-134
-25
31
0
-44
-25
28
15
-98
-225
-255
-176
-77
-31
-23
12
93
165
177
137
104
115
143
147
127
126
172
249
308
316
281
232
187
144
99
61
31
-15
-105
-237
-365
-432
-433
-414
-409
-396
-326
-196
-61
22
59
108
183
229
187
65
-73
-191
-316
-491
-695
-876
-1038
-1240
-1488
-1657
-1574
-1213
-766
-449
-277
-47
409
1010
1486
1665
1636
1620
1713
1819
1824
1740
1663
1615
1498
1232
887
617
482
389
205
-68
-280
-288
-112
91
191
195
214
314
432
457
362
221
112
38
-43
-127
-160
-122
-68
-73
-140
-208
-241
-253
-272
-290
-299
-329
-406
-469
-412
-230
-66
-72
-227
-354
-331
-231
-206
-297
-402
-431
-404
-396
-399
-348
-260
-237
-334
-461
-476
-371
-268
-267
-330
-366
-351
-342
-376
-418
-429
-431
-469
-532
-565
-538
-486
-456
-448
-457
-504
-607
-733
-808
-807
-788
-825
-915
-973
-922
-773
-610
-514
-501
-540
-590
-627
-654
-673
-679
-649
-585
-519
-481
-452
-389
-285
-203
-195
-234
-262
-248
-213
-176
-113
-13
71
59
-35
-72
61
297
431
364
219
212
404
631
680
531
351
314
428
555
575
500
431
464
603
756
807
721
590
533
565
573
460
279
191
272
426
494
452
423
518
682
755
645
436
288
268
292
240
104
5
64
235
347
308
220
242
370
424
293
94
34
154
291
306
248
264
380
464
413
285
212
237
290
296
254
227
245
313
415
502
525
484
439
472
595
737
821
836
830
852
888
886
830
758
714
715
723
702
650
603
592
612
633
619
544
407
260
169
154
137
0
-267
-553
-742
-870
-1060
-1289
-1353
-1081
-555
-50
289
625
1214
2067
2872
3294
3296
3129
3026
2993
2879
2585
2170
1759
1439
1229
1111
1069
1064
1025
901
705
519
449
515
611
589
406
181
82
163
291
299
170
48
68
198
298
282
204
165
189
216
194
142
105
90
72
39
17
35
84
147
215
277
292
227
124
77
130
211
203
84
-40
-51
25
61
-24
-154
-200
-141
-88
-140
-252
-289
-197
-75
-53
-126
-161
-52
143
286
307
268
261
282
252
150
45
12
25
-12
-114
-190
-166
-81
-50
-117
-203
-215
-175
-183
-287
-403
-415
-315
-221
-259
-416
-553
-541
-379
-188
-86
-93
-127
-92
44
225
365
412
389
384
481
677
891
1023
1048
1032
1056
1126
1194
1202
1162
1137
1174
1259
1349
1422
1508
1628
1746
1782
1697
1556
1460
1440
1424
1336
1202
1127
1173
1282
1343
1311
1249
1236
1279
1323
1316
1259
1196
1172
1202
1262
1311
1317
1290
1267
1276
1307
1327
1303
1230
1129
1048
1027
1067
1113
1107
1051
1018
1084
1238
1382
1437
1421
1409
1431
1436
1365
1231
1108
1052
1046
1039
1006
972
990
1077
1196
1278
1284
1243
1224
1260
1306
1293
1227
1192
1253
1369
1427
1368
1243
1156
1155
1197
1209
1161
1091
1070
1138
1263
1362
1388
1366
1359
1382
1385
1327
1259
1268
1324
1297
1122
919
848
901
904
751
555
483
506
429
180
-47
-29
149
151
-176
-552
-478
271
1444
2583
3427
4034
4607
5232
5794
6076
5901
5280
4435
3686
3232
3036
2898
2671
2404
2250
2263
2326
2276
2053
1745
1502
1380
1307
1193
1033
906
885
947
997
953
811
622
442
315
272
317
390
387
244
-5
-255
-425
-519
-585
-646
-689
-714
-742
-792
-848
-875
-875
-891
-953
-1036
-1095
-1109
-1094
-1064
-1016
-950
-890
-870
-896
-933
-935
-892
-839
-818
-832
-843
-810
-749
-720
-756
-812
-806
-715
-617
-612
-699
-772
-730
-599
-514
-577
-758
-929
-1002
-1011
-1056
-1193
-1365
-1477
-1500
-1491
-1512
-1556
-1556
-1483
-1394
-1358
-1381
-1384
-1302
-1158
-1042
-1023
-1084
-1136
-1114
-1050
-1034
-1100
-1147
-1018
-674
-267
9
114
174
305
440
405
135
-236
-505
-595
-594
-615
-668
-662
-522
-261
23
212
270
254
259
318
382
390
357
340
367
390
364
317
319
377
417
396
357
391
512
630
666
641
624
623
586
505
457
506
579
550
411
325
426
628
707
585
454
547
837
1043
943
618
341
264
290
234
49
-147
-228
-178
-67
43
126
173
159
83
-13
-71
-70
-35
6
50
121
224
330
404
439
454
447
387
267
148
118
197
309
363
355
359
427
519
555
516
450
406
376
323
250
200
204
220
182
91
20
27
73
55
-95
-344
-599
-808
-973
-1079
-1062
-869
-537
-177
143
473
903
1432
1937
2274
2401
2385
2314
2229
2120
1966
1745
1448
1103
778
560
478
477
458
375
265
190
173
187
180
119
5
-138
-285
-398
-427
-349
-195
-57
-18
-78
-137
-90
71
230
270
181
68
39
107
190
189
63
-144
-331
-394
-315
-183
-117
-161
-237
-231
-126
-7
33
-21
-103
-142
-114
-50
5
19
-3
-8
47
146
206
159
33
-72
-98
-84
-121
-237
-366
-416
-366
-295
-288
-338
-335
-175
108
337
332
82
-226
-375
-311
-180
-173
-330
-511
-530
-334
-49
134
122
-13
-120
-118
-53
-30
-94
-193
-249
-244
-214
-196
-191
-176
-145
-108
-78
-50
-8
61
153
238
284
294
322
422
578
705
746
748
813
969
1141
1243
1290
1366
1499
1614
1629
1566
1521
1543
1579
1550
1455
1363
1328
1334
1343
1359
1410
1490
1538
1498
1381
1265
1210
1207
1194
1124
1013
924
906
945
988
984
929
849
762
663
550
469
474
561
654
674
628
595
632
695
702
625
515
428
368
310
253
234
268
320
346
335
317
322
353
386
397
374
335
321
368
470
579
651
684
709
744
774
780
761
735
711
692
690
722
788
863
924
969
1009
1045
1049
1004
923
832
745
658
566
473
383
288
186
89
2
-87
-200
-339
-476
-594
-723
-892
-1051
-1077
-873
-481
-64
256
519
870
1388
1987
2486
2758
2805
2720
2595
2478
2357
2185
1916
1571
1238
1015
919
880
818
715
603
493
368
225
104
44
39
45
34
17
12
22
45
95
184
278
319
273
177
104
103
160
219
211
92
-121
-327
-405
-312
-133
1
42
65
176
390
615
748
767
720
657
586
502
424
392
420
469
484
445
366
273
177
72
-45
-172
-291
-363
-350
-244
-96
40
158
289
417
456
349
175
113
252
478
585
501
363
358
513
694
757
673
510
347
239
215
258
295
254
135
16
-23
5
6
-81
-222
-314
-289
-166
-34
29
26
36
123
252
319
271
180
179
305
459
524
503
500
575
671
696
646
606
628
675
687
679
707
767
796
747
675
653
669
632
493
336
282
340
393
341
233
209
333
516
615
583
504
485
549
627
640
577
493
454
482
532
550
519
465
420
381
327
277
290
390
512
559
508
429
393
394
367
282
175
92
37
0
7
82
189
253
238
199
188
173
72
-105
-229
-193
-41
73
59
1
33
172
300
298
157
-45
-238
-380
-421
-313
-85
135
223
186
154
240
426
603
692
699
674
664
708
819
963
1054
1021
869
661
445
224
-11
-259
-544
-906
-1297
-1551
-1485
-1088
-559
-118
209
576
1110
1774
2406
2846
3011
2931
2745
2644
2706
2797
2702
2374
2022
1876
1927
1942
1743
1406
1155
1104
1178
1246
1269
1295
1362
1440
1469
1408
1251
1026
798
641
587
599
602
547
448
385
435
582
703
675
512
363
348
419
425
332
275
362
507
521
374
241
273
378
341
121
-81
-77
75
172
135
90
169
335
451
465
440
419
359
219
58
-19
-5
0
-60
-123
-103
-20
13
-66
-185
-221
-157
-97
-135
-245
-304
-252
-160
-152
-264
-406
-459
-403
-329
-337
-424
-507
-521
-488
-463
-453
-429
-402
-422
-517
-619
-614
-479
-343
-368
-554
-697
-593
-258
54
97
-99
-251
-117
237
517
525
355
273
412
651
802
823
815
859
932
970
968
963
951
893
789
704
700
748
769
733
700
728
802
861
891
916
944
942
887
826
820
863
860
739
553
449
522
714
863
862
760
696
759
890
947
854
683
561
545
566
525
407
286
219
198
172
130
109
118
108
50
-3
30
138
216
210
198
290
443
480
339
191
263
551
802
789
557
352
337
451
542
519
382
183
27
46
275
545
624
466
270
243
358
426
363
278
280
296
206
47
-27
27
48
-109
-379
-565
-602
-649
-876
-1258
-1623
-1847
-1937
-1944
-1850
-1613
-1237
-773
-236
429
1250
2124
2857
3298
3439
3384
3245
3068
2825
2486
2062
1625
1272
1063
993
990
971
905
805
689
549
385
243
188
226
260
182
4
-143
-140
-2
137
158
60
-83
-198
-264
-296
-293
-256
-205
-170
-172
-188
-168
-106
-61
-94
-186
-244
-211
-152
-182
-310
-407
-353
-196
-108
-172
-294
-315
-217
-117
-104
-144
-144
-92
-54
-74
-108
-82
-20
-23
-154
-352
-488
-500
-450
-450
-529
-624
-662
-652
-646
-654
-628
-559
-522
-595
-736
-810
-745
-631
-615
-724
-848
-884
-850
-832
-863
-896
-897
-908
-984
-1093
-1133
-1058
-950
-922
-979
-999
-868
-629
-455
-473
-609
-656
-503
-256
-123
-183
-291
-238
20
325
493
501
470
509
608
683
689
675
705
771
810
785
749
789
905
994
938
739
532
447
493
567
571
494
392
316
298
341
425
499
522
497
478
512
594
687
760
780
706
531
339
245
270
304
225
62
-27
62
256
399
423
387
363
356
345
344
368
367
279
145
96
203
360
395
287
203
294
503
637
620
565
614
742
813
771
715
758
863
901
826
725
700
737
743
679
597
558
555
534
484
451
475
536
578
564
496
412
347
293
213
92
-38
-136
-217
-352
-572
-810
-974
-1078
-1230
-1473
-1660
-1574
-1168
-639
-203
138
561
1176
1868
2421
2735
2882
2950
2938
2805
2585
2378
2232
2099
1925
1749
1674
1717
1769
1709
1540
1364
1261
1195
1086
919
773
712
713
696
625
538
489
492
510
513
496
454
389
318
276
286
317
307
238
153
102
88
71
24
-26
-36
1
45
45
-17
-107
-176
-212
-249
-319
-391
-391
-296
-185
-182
-303
-430
-450
-398
-438
-659
-963
-1169
-1214
-1203
-1267
-1409
-1527
-1549
-1508
-1470
-1454
-1434
-1405
-1403
-1443
-1487
-1493
-1458
-1425
-1429
-1457
-1473
-1454
-1398
-1324
-1259
-1235
-1258
-1288
-1265
-1161
-1017
-910
-866
-843
-780
-671
-575
-553
-613
-714
-804
-870
-936
-1027
-1133
-1213
-1238
-1218
-1202
-1214
-1221
-1170
-1039
-870
-725
-623
-536
-417
-253
-76
57
103
62
-34
-138
-216
-265
-298
-332
-377
-426
-451
-423
-334
-217
-126
-101
-129
-158
-142
-84
-24
0
-10
-34
-57
-71
-63
-21
44
93
98
82
112
223
374
488
526
517
511
526
543
537
500
449
410
411
444
462
426
360
338
400
485
493
404
318
334
435
521
526
487
478
517
575
638
711
787
827
823
819
861
925
935
858
750
687
674
666
637
612
618
648
674
703
756
826
870
867
845
832
814
753
635
497
390
323
261
163
15
-165
-343
-499
-658
-857
-1062
-1140
-960
-534
-35
370
690
1091
1686
2374
2918
3151
3099
2898
2658
2416
2158
1855
1481
1045
618
307
171
144
102
-13
-143
-216
-240
-298
-432
-588
-676
-683
-684
-745
-821
-807
-640
-376
-151
-70
-129
-245
-330
-352
-349
-374
-449
-543
-602
-610
-598
-607
-629
-597
-463
-259
-87
-26
-60
-112
-139
-178
-282
-447
-620
-759
-857
-905
-876
-760
-612
-519
-501
-493
-427
-326
-281
-346
-464
-537
-524
-462
-403
-368
-352
-362
-405
-470
-514
-517
-504
-517
-571
-654
-746
-837
-912
-959
-984
-1006
-1034
-1045
-1010
-936
-884
-906
-976
-1008
-946
-831
-753
-748
-767
-745
-693
-703
-837
-1051
-1230
-1300
-1279
-1220
-1141
-1021
-864
-722
-640
-595
-528
-429
-359
-378
-458
-498
-403
-181
69
250
341
393
467
586
732
873
990
1073
1107
1086
1037
1000
983
936
795
556
303
149
139
222
304
335
342
387
502
652
779
851
884
914
953
981
978
947
903
859
806
745
699
691
709
711
664
581
514
495
499
469
385
301
284
351
438
464
411
333
296
303
308
278
240
242
293
346
353
335
362
472
610
680
650
592
611
724
856
919
909
889
907
949
975
979
987
1015
1049
1059
1042
1027
1039
1077
1112
1094
1009
893
813
796
790
712
539
338
183
65
-68
-188
-158
134
623
1111
1483
1833
2345
3063
3810
4349
4579
4587
4519
4449
4354
4164
3830
3380
2922
2574
2372
2254
2122
1940
1767
1661
1603
1518
1373
1221
1139
1135
1130
1048
914
822
819
850
824
722
619
569
533
441
298
202
228
334
405
387
334
323
348
342
268
169
105
89
79
39
-23
-73
-92
-87
-82
-104
-156
-216
-253
-267
-272
-289
-321
-356
-387
-408
-413
-404
-400
-426
-474
-488
-437
-377
-409
-564
-750
-847
-844
-843
-920
-1010
-974
-762
-478
-273
-190
-166
-141
-123
-147
-210
-272
-311
-346
-395
-418
-352
-191
-2
108
93
-3
-78
-53
72
207
236
114
-83
-214
-202
-106
-52
-105
-192
-178
9
298
552
681
717
764
873
989
1017
926
797
749
818
932
994
979
950
972
1049
1126
1158
1156
1165
1203
1236
1223
1164
1108
1086
1064
980
840
715
678
706
702
611
482
404
403
423
400
339
300
317
381
453
496
473
367
217
105
74
63
-37
-226
-367
-338
-204
-180
-370
-622
-679
-477
-218
-138
-245
-333
-227
38
281
374
342
302
332
410
467
470
462
519
663
821
883
822
736
730
807
866
820
693
566
489
444
379
264
90
-116
-284
-325
-205
22
253
411
481
475
399
257
64
-183
-500
-857
-1119
-1104
-748
-206
281
624
959
1474
2172
2831
3209
3281
3209
3144
3098
2994
2807
2586
2365
2118
1817
1522
1347
1325
1343
1261
1065
871
794
802
752
563
321
180
197
298
378
405
419
453
494
508
492
452
361
183
-63
-274
-367
-384
-467
-697
-955
-1006
-732
-261
150
374
504
698
968
1168
1173
1010
816
668
542
411
297
247
251
264
277
316
377
395
324
229
229
330
390
295
118
54
183
359
361
143
-117
-226
-180
-132
-197
-337
-446
-487
-505
-547
-596
-619
-628
-673
-761
-833
-835
-786
-771
-841
-939
-948
-815
-626
-534
-606
-745
-797
-710
-581
-534
-578
-597
-498
-328
-210
-215
-286
-315
-253
-144
-58
-25
-8
49
184
387
597
736
766
737
742
820
913
931
868
808
834
928
995
988
961
980
1011
956
787
590
473
447
439
411
400
424
435
385
325
375
565
771
843
764
662
660
742
779
680
482
304
236
261
290
262
211
226
330
431
428
328
228
205
222
201
134
102
158
271
392
541
765
1043
1252
1271
1107
876
680
522
339
111
-110
-246
-259
-175
-54
67
190
329
466
541
523
454
421
444
457
395
290
259
329
382
291
74
-138
-263
-358
-517
-748
-970
-1136
-1264
-1357
-1378
-1294
-1124
-889
-539
-27
589
1160
1599
1972
2366
2714
2832
2650
2320
2066
1940
1793
1497
1119
828
697
637
516
320
138
23
-84
-257
-472
-620
-635
-575
-560
-624
-676
-632
-523
-469
-543
-684
-788
-814
-819
-878
-996
-1107
-1131
-1039
-863
-681
-573
-565
-603
-597
-531
-478
-530
-681
-824
-858
-784
-682
-621
-596
-570
-539
-522
-525
-546
-586
-659
-753
-817
-813
-759
-713
-705
-721
-734
-755
-805
-876
-910
-849
-714
-603
-591
-652
-678
-600
-479
-451
-599
-840
-1007
-1016
-948
-948
-1066
-1207
-1248
-1175
-1074
-1035
-1061
-1096
-1095
-1048
-969
-879
-806
-775
-787
-809
-808
-781
-760
-776
-828
-870
-850
-745
-586
-454
-407
-425
-424
-339
-191
-68
-31
-46
-31
53
161
222
227
217
234
278
321
347
357
355
341
326
340
408
523
641
726
769
778
767
741
701
653
602
551
496
440
391
357
340
335
330
314
289
266
267
292
328
356
369
370
347
282
184
98
61
56
34
-12
-28
46
200
345
399
369
337
355
398
403
355
308
321
397
480
522
528
539
568
592
590
570
552
555
569
571
557
529
494
482
519
601
670
671
624
614
688
804
885
909
926
954
935
816
650
527
441
269
-69
-472
-761
-899
-1032
-1264
-1467
-1390
-970
-427
-14
276
676
1359
2209
2927
3316
3431
3454
3496
3509
3373
3029
2557
2110
1807
1639
1519
1411
1363
1429
1556
1603
1475
1226
982
788
595
366
148
27
36
142
310
540
815
1067
1212
1221
1106
884
572
236
7
-10
153
351
466
520
627
838
1082
1224
1195
1010
727
410
141
15
69
223
347
373
358
380
412
345
129
-167
-418
-544
-539
-422
-225
-13
161
327
575
883
1016
718
-5
-784
-1158
-994
-574
-282
-229
-172
190
869
1549
1884
1784
1449
1108
817
493
112
-206
-333
-284
-186
-121
-55
83
308
558
772
916
947
841
648
490
461
521
558
490
346
212
139
153
262
438
598
649
577
475
454
532
640
713
747
774
790
751
651
542
492
503
517
487
438
432
483
538
520
408
248
110
25
-34
-119
-252
-403
-517
-582
-638
-731
-851
-954
-1015
-1068
-1153
-1256
-1325
-1327
-1284
-1226
-1144
-1023
-884
-776
-731
-721
-702
-672
-669
-719
-796
-842
-831
-783
-749
-754
-781
-785
-742
-692
-690
-746
-792
-730
-539
-302
-117
-8
96
250
428
534
508
379
226
101
0
-81
-106
-28
130
252
227
60
-108
-144
-59
-3
-101
-317
-490
-519
-459
-436
-494
-571
-624
-714
-915
-1175
-1355
-1413
-1470
-1649
-1856
-1835
-1456
-891
-419
-109
233
805
1557
2250
2701
2932
3062
3146
3146
3023
2789
2476
2113
1751
1473
1343
1340
1362
1336
1279
1252
1276
1309
1313
1292
1277
1272
1250
1182
1079
993
970
1008
1058
1071
1032
964
909
881
859
824
780
747
728
691
606
484
373
315
307
313
298
246
162
81
55
115
222
281
235
127
65
99
164
148
19
-139
-225
-223
-204
-225
-264
-264
-235
-267
-413
-610
-720
-679
-563
-508
-560
-624
-576
-408
-231
-154
-178
-207
-184
-148
-180
-280
-358
-340
-260
-231
-317
-485
-649
-771
-877
-994
-1116
-1220
-1300
-1356
-1368
-1306
-1170
-1003
-860
-756
-666
-566
-466
-398
-385
-423
-488
-554
-601
-621
-600
-505
-311
-37
232
400
439
414
410
443
448
373
248
155
134
161
199
246
322
418
475
457
395
353
362
401
430
433
422
405
378
346
321
307
298
284
267
264
302
391
505
585
579
481
343
238
195
191
193
192
189
171
126
70
51
88
126
94
-3
-63
9
202
404
522
568
611
673
705
665
594
576
627
679
677
654
705
859
1034
1122
1103
1045
1019
1019
1000
956
919
908
887
816
706
617
596
614
595
506
375
251
159
76
-37
-203
-440
-736
-1022
-1175
-1119
-924
-750
-677
-589
-287
291
978
1552
1962
2347
2818
3300
3607
3657
3548
3418
3284
3055
2690
2283
1982
1835
1743
1586
1346
1124
1019
1026
1036
951
786
643
598
615
588
475
361
358
463
529
428
200
39
100
332
519
502
333
207
246
368
398
251
22
-114
-69
101
269
349
337
266
159
11
-176
-375
-536
-609
-575
-458
-291
-103
100
318
525
666
676
541
312
85
-63
-120
-130
-136
-130
-69
54
180
238
206
126
42
-50
-169
-291
-355
-336
-290
-301
-385
-469
-477
-416
-366
-384
-438
-453
-398
-322
-285
-302
-354
-443
-588
-774
-928
-968
-897
-797
-740
-713
-639
-483
-296
-158
-98
-78
-49
-9
-2
-60
-149
-191
-138
-16
102
164
186
223
300
399
495
572
610
581
498
436
454
511
487
328
130
20
-5
-53
-162
-217
-97
136
279
237
142
177
327
396
257
18
-116
-80
14
41
1
-32
-38
-66
-154
-273
-368
-405
-372
-258
-80
83
165
184
236
386
572
672
646
575
563
627
711
779
854
963
1068
1105
1065
1019
1026
1055
1019
900
780
753
809
835
741
586
513
574
661
628
486
382
421
536
566
431
182
-110
-413
-660
-732
-577
-329
-227
-351
-518
-505
-329
-217
-306
-467
-477
-302
-101
33
230
668
1320
1938
2303
2429
2493
2595
2662
2560
2260
1873
1528
1283
1111
981
907
891
875
757
490
158
-83
-155
-156
-260
-525
-832
-995
-950
-814
-750
-820
-968
-1110
-1208
-1248
-1190
-1007
-757
-563
-490
-439
-241
149
531
619
311
-212
-644
-830
-845
-858
-935
-1000
-950
-764
-503
-245
-37
81
67
-84
-306
-493
-574
-559
-504
-457
-424
-406
-400
-384
-341
-294
-302
-395
-513
-562
-539
-556
-695
-880
-943
-851
-783
-947
-1304
-1562
-1464
-1051
-618
-402
-372
-325
-132
123
259
188
-26
-260
-431
-520
-544
-522
-487
-481
-524
-590
-639
-643
-614
-596
-613
-646
-654
-621
-563
-499
-423
-320
-220
-194
-268
-362
-343
-160
87
265
342
402
526
680
765
743
668
621
630
670
709
736
749
766
813
885
929
907
850
850
959
1115
1198
1170
1107
1092
1112
1085
973
826
711
643
592
556
575
672
786
837
817
790
805
825
773
655
573
586
636
618
516
432
449
512
510
421
343
373
479
560
587
632
755
898
949
877
767
725
760
811
822
805
812
870
971
1075
1140
1150
1123
1113
1146
1188
1180
1106
1013
950
908
871
847
828
745
523
211
3
35
185
166
-162
-624
-918
-934
-802
-669
-517
-256
115
513
945
1531
2310
3098
3612
3742
3635
3517
3485
3453
3292
2950
2473
1971
1574
1361
1310
1302
1240
1127
1034
1011
1028
1032
1003
967
939
877
731
506
281
143
98
67
-25
-138
-148
9
226
311
184
-21
-100
1
128
97
-114
-338
-414
-334
-224
-195
-248
-311
-339
-355
-400
-474
-538
-550
-519
-480
-458
-455
-448
-403
-289
-124
3
-10
-170
-332
-335
-201
-133
-286
-591
-816
-844
-788
-831
-1001
-1161
-1190
-1122
-1066
-1078
-1150
-1246
-1348
-1437
-1499
-1532
-1562
-1617
-1684
-1743
-1764
-1724
-1606
-1462
-1393
-1452
-1571
-1618
-1546
-1478
-1555
-1739
-1861
-1815
-1681
-1642
-1741
-1834
-1756
-1493
-1190
-1007
-967
-962
-877
-691
-488
-371
-383
-471
-537
-508
-402
-288
-221
-210
-212
-199
-177
-182
-196
-164
-86
-47
-125
-288
-377
-276
-79
10
-96
-264
-293
-143
36
89
19
-54
-56
-20
-14
-55
-122
-188
-221
-171
-18
179
317
350
324
302
288
238
136
26
-59
-133
-216
-284
-284
-212
-115
-56
-79
-182
-326
-421
-393
-250
-105
-69
-114
-96
83
364
585
641
576
496
443
396
326
265
254
289
318
313
329
456
702
954
1076
1064
1051
1133
1225
1135
789
352
47
-91
-234
-531
-907
-1157
-1213
-1225
-1373
-1651
-1919
-2103
-2258
-2393
-2404
-2189
-1755
-1208
-621
2
661
1352
2103
2901
3549
3744
3487
3314
3840
4975
5831
5626
4633
3941
4222
4941
4934
3668
1744
154
-667
-1020
-1382
-1891
-2372
-2609
-2515
-2118
-1548
-999
-637
-464
-370
-308
-310
-382
-440
-384
-235
-126
-145
-250
-317
-270
-141
-17
29
-19
-118
-191
-172
-61
82
194
248
230
128
-35
-171
-184
-81
23
18
-72
-120
-49
75
127
62
-55
-143
-189
-222
-259
-292
-320
-347
-358
-332
-285
-265
-291
-324
-335
-365
-470
-604
-633
-495
-317
-303
-471
-575
-341
215
754
928
699
329
97
35
-58
-362
-849
-1312
-1551
-1526
-1353
-1202
-1156
-1177
-1157
-1047
-894
-787
-749
-711
-593
-406
-242
-143
-38
149
378
523
509
410
356
398
474
516
594
835
1242
1641
1872
1955
2034
2149
2149
1888
1450
1115
1074
1269
1540
1852
2261
2681
2856
2626
2145
1714
1404
955
133
-890
-1651
-1848
-1588
-1204
-900
-651
-393
-151
11
102
195
267
219
23
-198
-277
-148
94
298
362
276
106
-50
-86
40
275
490
586
580
565
599
657
678
650
624
651
730
812
853
848
826
813
817
835
851
831
748
638
600
715
943
1128
1147
1048
998
1075
1162
1072
744
307
-65
-314
-503
-708
-934
-1135
-1288
-1410
-1542
-1695
-1810
-1784
-1543
-1134
-701
-345
-11
448
1092
1784
2300
2523
2526
2467
2430
2392
2290
2096
1835
1561
1334
1189
1118
1063
975
852
732
640
563
483
411
371
363
360
350
363
427
508
522
421
266
177
212
302
320
212
48
-43
10
164
299
319
229
112
56
88
162
216
219
173
103
22
-58
-120
-155
-178
-210
-264
-320
-348
-336
-296
-253
-232
-239
-254
-243
-183
-82
33
152
292
459
597
620
509
353
270
273
258
129
-77
-235
-273
-242
-233
-261
-274
-242
-205
-222
-292
-361
-390
-397
-417
-466
-523
-554
-534
-456
-355
-286
-277
-299
-287
-217
-138
-116
-160
-201
-168
-68
28
67
63
81
155
256
326
340
332
353
430
541
645
717
756
771
773
777
786
787
763
718
682
673
675
659
632
625
647
658
617
534
467
444
440
412
358
315
299
289
266
245
250
265
243
170
92
66
93
116
90
34
-5
-7
1
-16
-60
-108
-140
-155
-169
-193
-226
-256
-270
-260
-239
-230
-247
-287
-323
-334
-317
-296
-296
-319
-338
-328
-289
-254
-250
-275
-298
-292
-259
-225
-207
-195
-172
-138
-115
-114
-118
-105
-79
-69
-88
-120
-159
-223
-329
-459
-573
-660
-772
-965
-1222
-1455
-1589
-1633
-1626
-1552
-1338
-947
-438
75
547
1027
1566
2115
2539
2744
2770
2733
2710
2666
2514
2225
1860
1527
1290
1139
1031
920
790
654
541
468
415
344
236
120
45
23
13
-22
-75
-109
-108
-86
-67
-67
-94
-157
-241
-303
-309
-268
-230
-214
-183
-94
42
155
201
211
248
341
452
515
510
468
431
410
378
308
211
134
119
156
204
223
217
202
183
140
64
-23
-102
-170
-240
-309
-357
-371
-368
-373
-386
-390
-373
-341
-304
-266
-237
-235
-269
-324
-366
-380
-384
-401
-426
-450
-470
-492
-511
-511
-495
-496
-540
-611
-657
-657
-642
-653
-685
-685
-626
-546
-496
-483
-469
-427
-372
-338
-322
-291
-222
-126
-22
84
200
315
403
453
491
550
624
673
668
634
624
665
726
754
740
719
732
773
802
791
756
727
717
713
707
708
725
741
727
682
636
620
627
632
628
632
655
687
710
722
730
722
687
635
601
603
612
585
526
485
505
557
575
533
470
442
460
484
472
428
387
374
389
413
429
432
434
452
492
544
590
615
625
635
652
668
664
630
578
538
534
562
578
546
487
457
490
543
542
469
389
372
400
392
310
195
95
11
-96
-234
-379
-516
-665
-842
-1021
-1180
-1341
-1518
-1627
-1518
-1127
-585
-103
253
635
1237
2044
2812
3272
3371
3280
3197
3166
3084
2840
2437
1985
1613
1383
1271
1202
1091
924
764
676
658
632
539
420
362
389
417
360
247
187
231
308
323
274
243
281
348
366
321
266
256
284
311
302
255
181
104
56
67
123
179
192
154
101
78
102
166
239
280
271
240
245
307
366
340
229
126
116
172
189
117
26
5
44
55
-7
-87
-108
-78
-68
-115
-182
-213
-208
-209
-232
-253
-251
-242
-257
-308
-375
-428
-452
-457
-464
-494
-550
-610
-643
-639
-620
-612
-619
-626
-625
-633
-662
-700
-715
-696
-677
-706
-782
-846
-833
-748
-660
-618
-609
-575
-488
-379
-286
-218
-156
-93
-38
5
50
114
200
297
392
476
536
574
609
667
744
804
819
807
805
819
818
778
723
698
703
691
629
552
534
595
669
680
618
543
501
463
370
216
61
-33
-69
-92
-122
-134
-99
-33
28
78
143
238
338
403
427
434
444
448
424
375
331
322
341
354
347
351
412
529
643
683
645
601
619
684
720
680
599
553
583
649
687
674
643
627
619
590
534
481
458
452
431
387
352
338
309
221
80
-56
-161
-281
-470
-711
-941
-1145
-1369
-1602
-1710
-1546
-1127
-648
-274
53
555
1351
2291
3070
3489
3594
3570
3541
3486
3305
2951
2485
2035
1700
1505
1413
1372
1330
1265
1180
1090
1003
900
753
568
391
256
162
86
24
-15
-37
-80
-154
-204
-170
-82
-68
-202
-377
-398
-189
102
251
191
48
-28
-11
31
56
73
83
47
-30
-53
60
253
354
258
47
-107
-123
-81
-95
-199
-324
-387
-353
-240
-106
-30
-62
-176
-280
-305
-277
-289
-389
-517
-563
-489
-377
-341
-412
-508
-531
-484
-475
-584
-755
-857
-832
-767
-772
-842
-875
-811
-728
-739
-855
-974
-1007
-987
-995
-1050
-1092
-1070
-1002
-941
-895
-844
-796
-802
-887
-991
-1021
-953
-854
-800
-785
-734
-598
-416
-271
-202
-183
-172
-166
-191
-249
-300
-298
-243
-171
-115
-76
-33
20
64
90
108
136
165
162
119
86
118
205
268
240
146
77
82
121
121
65
1
-33
-47
-71
-110
-143
-156
-159
-168
-183
-189
-181
-168
-164
-185
-223
-258
-273
-265
-231
-175
-119
-102
-146
-214
-218
-118
29
116
99
39
27
79
139
161
147
125
120
147
219
313
374
362
308
284
301
297
221
126
114
204
303
314
253
224
283
371
392
321
196
56
-97
-258
-384
-428
-417
-439
-560
-783
-1056
-1310
-1462
-1424
-1173
-814
-495
-242
106
726
1583
2402
2911
3073
3055
3010
2948
2798
2530
2180
1794
1402
1055
835
781
831
862
809
697
583
484
384
273
181
132
94
19
-94
-178
-155
-22
121
155
63
-56
-95
-50
-22
-90
-220
-304
-277
-188
-147
-209
-320
-379
-346
-265
-215
-221
-239
-215
-147
-87
-83
-125
-176
-221
-287
-388
-492
-530
-470
-353
-261
-229
-220
-171
-74
5
-12
-133
-290
-400
-433
-420
-401
-387
-365
-323
-267
-212
-178
-176
-215
-276
-328
-354
-373
-419
-493
-551
-557
-532
-534
-598
-684
-713
-649
-547
-493
-517
-571
-593
-563
-518
-514
-571
-650
-690
-675
-642
-627
-624
-602
-589
-662
-838
-996
-1000
-921
-1039
-1520
-2109
-2265
-1687
-648
254
704
926
1362
2150
2988
3451
3361
2864
2258
1792
1570
1536
1527
1413
1218
1106
1178
1336
1366
1179
882
642
519
455
389
361
463
703
961
1087
1030
857
675
535
425
316
220
140
22
-194
-463
-607
-484
-160
134
262
324
497
763
915
829
653
652
876
1112
1177
1147
1254
1587
1980
2201
2185
2030
1839
1645
1450
1274
1135
1024
906
800
782
912
1120
1217
1039
606
126
-170
-226
-176
-148
-113
47
347
655
838
924
1041
1212
1313
1220
982
776
713
722
641
398
107
-22
135
518
935
1246
1479
1778
2264
2899
3541
4047
4339
4402
4281
4077
3886
3714
3464
3070
2604
2245
2094
2061
1954
1700
1392
1155
1013
901
799
742
735
724
677
665
775
910
816
369
-209
-499
-311
93
261
38
-280
-283
126
671
1001
1004
828
673
629
680
768
838
837
749
605
470
370
273
150
1
-144
-283
-428
-570
-667
-669
-595
-554
-639
-836
-1040
-1153
-1174
-1181
-1226
-1287
-1316
-1319
-1343
-1410
-1497
-1557
-1565
-1520
-1426
-1308
-1241
-1288
-1408
-1449
-1307
-1080
-1001
-1173
-1418
-1454
-1207
-886
-748
-816
-893
-810
-606
-437
-383
-395
-399
-402
-447
-515
-516
-392
-202
-99
-167
-315
-351
-180
69
146
-50
-360
-514
-420
-236
-176
-255
-283
-93
268
601
761
779
786
861
956
974
868
690
534
458
437
419
378
339
331
347
350
319
271
242
247
253
226
181
176
253
377
451
397
237
81
20
52
120
189
274
377
442
418
348
364
542
789
921
865
747
763
976
1239
1350
1244
1039
901
899
975
1018
971
866
785
795
895
1017
1086
1086
1058
1049
1049
1017
944
888
917
1015
1083
1052
964
916
918
870
699
473
347
396
528
596
553
471
434
463
538
611
588
368
-35
-431
-591
-479
-297
-262
-375
-462
-400
-241
-80
91
358
719
1064
1332
1639
2164
2921
3688
4192
4341
4259
4130
4026
3889
3612
3161
2608
2088
1708
1489
1377
1285
1160
996
810
627
470
351
256
149
4
-155
-265
-300
-301
-326
-377
-407
-397
-385
-421
-488
-533
-553
-609
-740
-883
-920
-814
-658
-571
-578
-595
-540
-418
-301
-241
-235
-262
-324
-426
-544
-637
-699
-772
-900
-1048
-1113
-1017
-785
-527
-333
-216
-116
12
135
181
116
-10
-115
-162
-182
-234
-323
-402
-426
-394
-346
-322
-335
-385
-449
-479
-442
-364
-329
-400
-538
-641
-655
-642
-715
-909
-1144
-1293
-1278
-1107
-855
-627
-488
-427
-357
-198
15
151
102
-106
-337
-478
-513
-506
-516
-541
-540
-473
-339
-182
-63
-14
-17
-30
-46
-88
-155
-195
-147
-16
128
222
270
309
356
398
421
428
425
401
358
324
327
361
398
418
424
421
404
372
349
366
418
466
476
452
416
390
378
377
372
341
272
194
158
179
219
233
216
205
226
261
282
292
312
345
369
363
343
346
389
452
497
498
469
456
495
575
639
648
622
612
642
683
687
654
622
620
637
642
632
623
616
586
518
450
447
524
629
690
681
641
613
586
521
398
230
38
-169
-391
-593
-739
-848
-987
-1177
-1315
-1232
-861
-334
128
446
756
1245
1935
2640
3123
3294
3252
3149
3055
2930
2705
2369
1986
1644
1397
1245
1162
1109
1047
927
725
486
305
234
204
95
-117
-307
-317
-146
32
76
34
70
246
443
520
477
429
426
407
322
236
245
333
368
269
127
107
249
435
532
536
541
602
672
673
573
412
248
126
70
72
102
122
135
180
274
359
355
270
219
293
428
446
271
45
-17
133
315
338
223
153
250
436
545
535
494
515
581
608
551
437
320
226
135
24
-109
-236
-318
-346
-341
-319
-256
-125
40
159
202
256
420
639
735
602
354
211
250
326
255
18
-229
-318
-209
23
265
455
605
785
1054
1371
1603
1638
1488
1276
1094
933
757
600
538
586
664
697
716
812
991
1136
1121
953
769
686
700
730
718
678
656
662
670
664
634
567
455
330
274
343
480
541
439
253
158
236
382
419
291
117
52
128
244
295
281
281
338
417
454
437
403
380
355
319
297
323
387
432
421
385
386
448
526
539
464
356
298
332
416
472
463
429
440
529
648
727
736
706
688
697
704
666
568
447
344
270
192
67
-107
-285
-435
-581
-762
-941
-998
-851
-556
-266
-63
133
464
962
1505
1935
2187
2295
2325
2318
2287
2230
2127
1943
1669
1362
1108
959
897
859
793
685
555
446
403
431
476
460
342
168
33
-1
37
65
35
-32
-73
-67
-45
-58
-118
-188
-215
-191
-161
-168
-204
-208
-144
-47
5
-30
-113
-158
-136
-104
-136
-234
-328
-347
-299
-252
-237
-229
-200
-190
-251
-357
-404
-355
-300
-353
-482
-524
-375
-156
-92
-236
-407
-407
-253
-148
-221
-374
-425
-337
-248
-270
-322
-246
-31
137
82
-150
-336
-327
-199
-148
-262
-467
-625
-682
-642
-523
-362
-237
-239
-369
-508
-514
-382
-250
-248
-374
-516
-563
-488
-350
-207
-93
-22
-13
-81
-196
-268
-227
-98
4
-4
-73
-68
77
283
411
419
394
419
482
507
469
430
460
545
618
631
601
580
600
651
694
678
559
357
186
169
314
477
485
326
173
194
366
514
498
359
243
229
277
308
301
281
267
258
255
245
220
204
225
294
353
330
260
261
399
585
661
579
436
342
297
253
237
326
494
595
534
420
452
665
860
835
614
415
404
531
643
662
635
621
623
626
646
696
726
665
495
278
82
-91
-265
-448
-629
-817
-1060
-1365
-1635
-1709
-1517
-1140
-733
-388
-65
338
864
1474
2087
2619
2989
3155
3160
3130
3176
3265
3213
2867
2296
1764
1496
1471
1451
1227
836
486
334
348
370
286
121
-19
-74
-72
-81
-147
-266
-376
-411
-361
-277
-234
-270
-350
-403
-383
-298
-193
-133
-157
-231
-272
-218
-93
11
37
7
-23
-42
-82
-150
-208
-220
-211
-235
-287
-320
-307
-273
-237
-182
-110
-75
-133
-244
-289
-208
-83
-44
-114
-206
-235
-216
-213
-245
-272
-263
-247
-267
-317
-352
-340
-315
-327
-387
-453
-484
-489
-520
-592
-658
-677
-674
-700
-761
-806
-797
-767
-765
-778
-752
-684
-660
-739
-864
-919
-868
-786
-757
-775
-770
-720
-668
-651
-637
-582
-507
-464
-476
-493
-459
-355
-206
-50
78
154
181
209
290
404
461
408
305
265
331
426
450
480
412
501
609
624
535
443
436
484
497
436
353
325
376
473
562
598
568
499
438
409
390
341
263
197
178
200
232
261
308
392
489
540
500
385
265
203
203
202
156
97
107
218
362
443
446
445
499
570
575
487
378
331
361
419
469
507
528
512
458
422
461
552
607
569
485
465
551
675
732
680
566
449
345
236
127
40
-39
-163
-364
-577
-699
-734
-821
-1084
-1438
-1610
-1396
-888
-383
-59
213
693
1465
2326
2984
3317
3399
3356
3252
3098
2898
2654
2352
2001
1670
1448
1368
1358
1323
1233
1111
974
820
654
509
430
419
438
441
413
366
336
359
424
471
430
293
137
68
115
209
264
264
268
321
389
402
336
236
155
97
41
-21
-69
-94
-107
-121
-137
-162
-226
-332
-419
-423
-360
-329
-401
-524
-567
-484
-361
-313
-370
-460
-517
-536
-542
-549
-550
-548
-550
-546
-511
-447
-398
-389
-395
-391
-397
-454
-541
-583
-553
-528
-605
-738
-774
-635
-444
-407
-572
-764
-785
-647
-553
-660
-908
-1091
-1073
-912
-785
-808
-924
-980
-889
-710
-587
-593
-657
-654
-553
-428
-368
-358
-300
-127
164
545
960
1290
1392
1224
900
598
372
137
-192
-567
-865
-1011
-1017
-909
-698
-424
-196
-110
-152
-211
-206
-174
-211
-359
-570
-758
-863
-887
-873
-871
-915
-995
-1075
-1123
-1111
-1036
-907
-761
-648
-612
-655
-736
-817
-890
-968
-1054
-1132
-1193
-1251
-1326
-1417
-1493
-1515
-1468
-1380
-1296
-1235
-1189
-1136
-1074
-1013
-958
-896
-816
-727
-654
-612
-597
-589
-574
-558
-558
-582
-619
-644
-643
-611
-552
-485
-444
-454
-494
-501
-429
-304
-227
-277
-424
-549
-583
-573
-621
-766
-945
-1086
-1199
-1331
-1455
-1455
-1240
-866
-493
-223
11
355
875
1472
1970
2268
2385
2406
2395
2358
2261
2070
1792
1475
1188
981
868
839
866
907
920
888
851
863
919
936
835
635
441
334
296
259
193
137
141
220
341
457
531
552
547
567
628
690
693
628
556
532
548
553
536
534
564
598
594
547
488
439
391
350
342
372
401
382
326
298
344
437
502
499
448
397
373
377
401
426
422
368
279
207
196
235
272
262
205
143
124
155
198
201
145
54
-16
-32
-11
5
1
-5
12
45
63
53
28
10
-1
-26
-77
-137
-180
-193
-176
-143
-98
-42
23
79
102
91
78
99
148
165
107
10
-20
80
253
389
442
471
559
717
885
998
1030
988
897
794
720
686
667
638
615
632
691
751
777
779
789
816
846
872
917
998
1110
1235
1349
1407
1343
1127
800
469
223
73
-36
-157
-291
-394
-418
-344
-220
-133
-153
-271
-417
-526
-585
-608
-599
-551
-488
-452
-444
-402
-270
-76
74
106
45
-10
15
96
152
113
-22
-185
-292
-306
-261
-222
-213
-202
-151
-74
-18
-14
-51
-97
-140
-181
-221
-272
-354
-477
-621
-754
-868
-987
-1105
-1177
-1185
-1183
-1226
-1264
-1142
-753
-188
332
682
949
1333
1923
2596
3128
3383
3391
3287
3185
3111
3002
2779
2426
2019
1680
1490
1428
1402
1334
1220
1108
1030
978
925
857
786
729
686
652
626
607
604
618
650
698
752
788
783
734
672
641
664
726
787
811
789
741
706
706
736
769
776
752
713
679
645
596
522
441
378
333
280
200
104
28
-13
-39
-75
-129
-179
-209
-218
-213
-197
-176
-161
-168
-197
-232
-253
-256
-255
-257
-264
-269
-266
-259
-249
-239
-235
-248
-284
-341
-399
-439
-458
-466
-475
-482
-471
-433
-385
-360
-377
-413
-427
-405
-375
-376
-410
-433
-418
-375
-340
-330
-327
-316
-300
-290
-279
-241
-171
-102
-69
-68
-54
7
103
185
230
256
294
345
386
403
412
430
451
449
424
408
424
445
416
332
270
307
420
501
474
394
389
488
578
527
347
180
133
173
203
202
240
375
571
747
867
935
938
830
610
370
219
184
208
236
303
465
712
963
1134
1221
1261
1271
1225
1110
971
888
895
944
961
933
919
963
1022
994
846
681
640
761
930
1014
1008
1016
1111
1243
1301
1237
1101
969
889
877
949
1083
1192
1172
1000
772
609
530
446
270
1
-290
-523
-650
-638
-474
-185
167
532
916
1374
1947
2618
3313
3924
4354
4564
4599
4554
4480
4322
3993
3494
2957
2552
2328
2196
2043
1845
1666
1549
1462
1351
1211
1080
993
939
899
873
875
898
915
912
899
888
874
852
837
839
830
754
613
494
484
558
582
457
248
118
154
286
369
344
288
312
444
617
752
813
823
814
801
780
736
661
567
486
442
429
416
387
357
360
392
406
362
271
179
121
84
39
-20
-82
-142
-206
-259
-271
-237
-215
-272
-408
-531
-557
-510
-510
-632
-827
-974
-1012
-981
-966
-996
-1035
-1036
-985
-907
-842
-825
-856
-910
-943
-933
-891
-839
-785
-726
-654
-565
-462
-369
-332
-369
-436
-458
-413
-372
-407
-489
-496
-351
-127
42
102
136
242
418
561
572
438
222
9
-135
-199
-219
-231
-226
-147
33
265
452
544
561
545
502
426
328
235
140
22
-80
-76
68
258
353
320
261
273
324
318
254
227
284
340
289
173
144
240
305
178
-85
-243
-151
75
198
129
20
84
365
691
856
798
647
582
668
807
840
709
506
384
410
525
629
665
630
564
515
508
527
503
383
200
55
-8
-63
-194
-366
-457
-438
-449
-641
-967
-1204
-1200
-1016
-813
-636
-381
38
575
1130
1674
2232
2755
3082
3098
2878
2623
2457
2303
2019
1602
1208
983
916
869
766
660
642
695
711
623
503
462
520
585
548
402
242
149
131
140
130
82
-5
-105
-178
-202
-190
-172
-155
-118
-59
-5
28
64
123
166
123
-4
-105
-83
20
42
-103
-284
-281
-28
308
487
440
313
272
335
365
226
-68
-370
-551
-587
-530
-425
-271
-75
94
150
83
-10
-22
47
79
-9
-153
-204
-95
86
166
24
-313
-733
-1146
-1538
-1954
-2398
-2747
-2797
-2429
-1723
-900
-122
596
1286
1876
2211
2218
1997
1706
1384
969
471
53
-114
-54
43
32
-30
13
201
406
481
403
248
56
-159
-340
-396
-310
-195
-185
-284
-353
-278
-102
38
62
-4
-98
-178
-224
-208
-116
20
160
295
455
653
841
950
952
849
654
418
213
82
9
-62
-121
-95
40
201
276
257
222
192
92
-107
-287
-316
-234
-214
-326
-395
-202
229
617
722
598
486
531
654
703
628
500
397
353
388
504
652
729
677
569
528
593
666
637
526
448
466
514
484
384
330
398
518
554
464
355
365
467
501
365
150
32
50
60
-91
-380
-645
-793
-898
-1051
-1173
-1063
-651
-108
319
592
902
1417
2079
2654
2960
3007
2926
2826
2735
2627
2453
2180
1828
1484
1236
1103
1018
897
731
575
470
406
346
273
202
146
96
23
-92
-223
-300
-277
-189
-129
-171
-286
-367
-360
-321
-348
-453
-540
-513
-382
-230
-138
-136
-220
-363
-506
-573
-554
-533
-595
-710
-748
-637
-462
-374
-415
-472
-432
-315
-252
-320
-455
-537
-522
-468
-455
-504
-581
-645
-673
-661
-622
-589
-589
-622
-654
-651
-619
-593
-607
-659
-718
-751
-738
-669
-546
-398
-277
-229
-272
-380
-505
-607
-685
-764
-866
-967
-1007
-960
-861
-786
-776
-807
-829
-820
-800
-791
-790
-780
-765
-752
-723
-646
-532
-433
-390
-381
-347
-274
-207
-183
-179
-145
-80
-40
-70
-145
-199
-206
-200
-214
-231
-205
-132
-57
-18
-4
15
39
40
1
-50
-80
-88
-103
-135
-161
-165
-165
-170
-158
-98
-4
49
7
-102
-193
-216
-212
-261
-394
-557
-664
-666
-580
-453
-329
-236
-187
-178
-197
-239
-291
-348
-415
-488
-536
-510
-388
-220
-88
-27
8
52
45
-109
-402
-655
-668
-435
-151
9
90
279
620
885
810
392
-77
-337
-403
-471
-608
-642
-383
112
572
795
805
726
588
321
-101
-579
-992
-1332
-1670
-1988
-2118
-1903
-1395
-840
-453
-221
59
538
1156
1713
2050
2141
2058
1882
1657
1404
1145
904
703
566
500
500
563
685
806
760
349
-427
-1248
-1672
-1531
-1095
-799
-785
-778
-429
268
953
1251
1113
788
525
370
236
73
-52
-72
-12
48
77
112
165
136
-103
-528
-917
-1038
-864
-590
-426
-389
-327
-121
173
374
360
177
-11
-64
16
73
-64
-414
-807
-1027
-1019
-931
-938
-1034
-1050
-876
-609
-464
-529
-662
-633
-373
-30
185
196
111
89
197
357
436
349
121
-144
-336
-409
-409
-423
-508
-641
-729
-715
-630
-561
-570
-646
-715
-730
-705
-684
-678
-650
-577
-510
-546
-720
-944
-1084
-1110
-1133
-1272
-1500
-1632
-1519
-1192
-825
-547
-348
-142
112
373
579
685
680
570
412
297
288
380
499
584
629
670
725
787
835
838
772
621
402
183
49
44
137
239
273
232
174
171
235
332
404
417
350
184
-76
-366
-568
-605
-514
-425
-418
-438
-344
-64
313
609
717
664
575
557
632
741
809
801
750
732
790
894
979
1003
984
958
937
900
839
775
732
706
672
620
558
497
436
376
327
302
304
317
328
329
321
301
252
154
11
-161
-339
-524
-725
-940
-1142
-1306
-1444
-1565
-1631
-1553
-1274
-847
-398
1
403
918
1559
2208
2692
2925
2948
2865
2755
2620
2410
2076
1628
1155
784
580
502
437
311
149
23
-36
-64
-111
-193
-282
-356
-416
-473
-524
-562
-583
-588
-575
-540
-503
-498
-533
-572
-566
-518
-464
-439
-431
-421
-412
-422
-446
-454
-433
-414
-434
-473
-469
-395
-305
-276
-330
-407
-443
-435
-430
-461
-522
-581
-615
-618
-597
-563
-546
-565
-607
-630
-606
-564
-546
-560
-567
-534
-476
-443
-459
-503
-540
-565
-593
-633
-680
-724
-761
-784
-777
-743
-714
-729
-784
-833
-838
-808
-790
-816
-869
-901
-889
-841
-793
-764
-756
-757
-752
-736
-707
-674
-646
-633
-632
-623
-589
-528
-462
-414
-386
-366
-336
-289
-216
-125
-37
24
58
102
182
279
336
323
272
239
246
273
290
291
281
261
244
254
296
343
351
317
283
291
332
354
339
313
311
317
294
237
189
181
191
172
122
92
119
175
189
139
65
19
4
-17
-67
-123
-146
-136
-117
-113
-122
-126
-104
-53
8
42
23
-23
-32
38
157
243
253
228
251
350
475
552
551
504
466
468
505
553
586
597
590
575
569
585
621
644
619
544
475
447
427
342
175
-6
-126
-213
-356
-579
-807
-964
-1068
-1170
-1223
-1094
-717
-201
281
682
1116
1694
2373
2982
3383
3550
3548
3449
3298
3112
2876
2557
2147
1719
1379
1183
1088
999
868
724
614
548
498
434
357
288
236
185
123
64
35
43
68
68
34
-1
-5
13
15
-26
-80
-90
-29
59
99
60
-8
-37
-6
43
52
14
-27
-31
-10
-4
-41
-103
-153
-173
-179
-188
-204
-216
-215
-195
-156
-98
-28
33
79
112
128
108
38
-58
-137
-184
-245
-368
-529
-630
-602
-509
-488
-595
-734
-758
-651
-552
-594
-747
-869
-874
-829
-849
-961
-1084
-1126
-1070
-964
-849
-738
-625
-520
-451
-461
-579
-788
-1012
-1162
-1193
-1131
-1027
-916
-799
-667
-507
-300
-57
154
242
183
78
65
181
341
454
521
593
659
647
533
405
364
392
371
237
69
16
134
338
493
535
487
403
338
328
385
461
472
375
221
111
94
129
138
93
17
-56
-115
-170
-228
-294
-356
-386
-362
-280
-178
-105
-83
-88
-85
-56
-16
10
-4
-53
-102
-108
-61
3
36
32
31
72
152
233
280
291
289
297
325
370
417
450
470
501
570
668
761
823
862
895
913
889
819
735
668
604
512
376
222
93
-1
-95
-232
-420
-632
-833
-1024
-1244
-1511
-1758
-1853
-1709
-1381
-1018
-708
-375
122
824
1596
2235
2633
2819
2883
2889
2844
2725
2491
2131
1694
1296
1036
919
856
753
605
474
398
362
324
273
217
160
83
-21
-119
-169
-168
-161
-186
-232
-252
-221
-179
-193
-272
-350
-358
-305
-268
-300
-368
-404
-387
-369
-400
-458
-482
-454
-425
-445
-498
-532
-528
-526
-562
-616
-629
-587
-535
-525
-552
-576
-577
-574
-580
-584
-567
-544
-546
-581
-611
-594
-531
-455
-402
-388
-410
-452
-478
-459
-412
-399
-478
-632
-783
-858
-852
-822
-827
-880
-941
-968
-966
-955
-932
-862
-755
-694
-763
-910
-956
-803
-588
-570
-819
-1098
-1106
-828
-548
-507
-642
-698
-543
-287
-112
-78
-111
-121
-91
-44
-3
34
80
153
247
328
356
348
381
475
542
498
386
349
441
548
538
437
395
476
562
517
379
322
418
543
534
392
287
330
435
441
323
220
242
318
287
103
-84
-104
25
106
6
-177
-243
-130
19
38
-72
-168
-145
-56
-11
-34
-52
-14
61
124
197
319
464
543
493
368
295
322
361
313
183
80
93
180
233
216
194
233
304
311
213
82
35
105
194
175
29
-141
-209
-177
-167
-281
-478
-639
-732
-870
-1142
-1467
-1628
-1504
-1220
-975
-797
-508
25
695
1264
1639
1959
2362
2766
2933
2764
2440
2223
2169
2079
1756
1239
771
570
621
716
666
473
289
237
289
298
164
-75
-286
-384
-397
-413
-473
-540
-517
-364
-161
-54
-106
-236
-295
-236
-170
-242
-436
-566
-486
-275
-153
-234
-396
-439
-311
-155
-116
-198
-297
-339
-337
-329
-312
-261
-183
-123
-110
-119
-90
-12
59
32
-118
-309
-417
-415
-395
-457
-568
-606
-530
-450
-505
-692
-856
-872
-783
-736
-812
-942
-997
-921
-759
-610
-556
-624
-760
-851
-823
-718
-651
-679
-724
-673
-532
-418
-412
-465
-482
-453
-469
-601
-782
-885
-850
-734
-647
-618
-610
-577
-517
-457
-406
-363
-344
-367
-409
-396
-288
-142
-56
-47
-28
70
192
208
83
-62
-89
1
78
49
-39
-71
-5
98
173
205
229
258
285
284
239
160
83
54
79
109
93
35
1
54
171
271
294
256
221
228
255
256
208
139
107
133
175
172
118
78
112
195
227
149
25
-12
84
214
240
136
19
33
191
362
431
404
382
435
528
590
621
698
844
958
922
782
766
1039
1469
1703
1532
1162
1009
1253
1617
1637
1154
456
-49
-218
-242
-391
-754
-1194
-1508
-1564
-1376
-1100
-951
-1023
-1169
-1136
-815
-362
-39
85
206
567
1215
1964
2576
2931
3064
3069
3021
2936
2748
2379
1826
1223
746
461
289
125
-30
-92
-38
33
19
-40
-3
213
507
676
614
387
144
-7
-70
-128
-262
-476
-687
-776
-688
-476
-257
-112
-54
-59
-101
-146
-135
-36
95
164
149
141
232
402
521
489
324
125
-22
-92
-83
6
148
299
426
530
623
697
707
617
438
215
-7
-200
-367
-514
-636
-691
-651
-533
-415
-365
-375
-381
-348
-320
-367
-480
-579
-575
-428
-166
121
338
442
484
546
593
454
28
-510
-787
-591
-137
118
-45
-394
-535
-372
-213
-418
-999
-1627
-1975
-1996
-1847
-1645
-1370
-988
-597
-373
-368
-420
-329
-90
105
88
-86
-176
6
407
800
991
944
742
482
228
13
-128
-172
-123
-20
80
156
241
372
521
600
549
420
331
334
370
369
340
342
395
462
515
583
706
855
944
904
740
523
348
301
402
566
636
521
298
131
99
118
36
-187
-438
-551
-458
-233
-21
86
107
126
193
270
291
245
180
135
102
56
12
11
43
67
73
117
234
359
389
321
283
409
698
1004
1174
1153
1004
822
656
501
328
130
-71
-248
-399
-548
-711
-881
-1036
-1142
-1152
-1015
-703
-268
185
588
975
1453
2058
2679
3117
3255
3161
3011
2914
2823
2609
2224
1769
1390
1159
1054
1018
1000
962
870
729
604
561
588
600
535
432
382
426
527
606
623
574
469
317
129
-91
-332
-567
-752
-852
-883
-884
-873
-826
-730
-642
-644
-741
-846
-864
-800
-751
-784
-860
-882
-813
-706
-634
-608
-580
-517
-437
-379
-339
-274
-163
-41
40
62
58
69
111
164
208
240
267
295
329
371
418
454
459
430
388
355
334
312
278
225
153
69
-3
-35
-15
20
18
-40
-105
-114
-60
-10
-32
-116
-184
-178
-124
-88
-97
-112
-85
-20
36
50
42
50
88
143
198
246
288
328
378
448
539
630
693
722
740
766
801
827
845
860
872
864
835
808
812
840
844
794
727
709
764
843
875
845
801
780
757
668
498
297
127
5
-90
-173
-232
-254
-243
-215
-164
-82
-10
-13
-94
-171
-156
-65
-1
-25
-69
-23
124
246
237
136
87
171
323
417
405
352
342
375
372
266
75
-114
-211
-202
-146
-118
-131
-125
-30
142
285
291
149
-35
-127
-95
-18
-10
-100
-204
-230
-175
-125
-164
-291
-439
-545
-601
-631
-660
-708
-759
-754
-617
-334
1
265
441
653
1028
1540
2032
2368
2546
2646
2688
2621
2417
2144
1907
1729
1545
1301
1037
853
820
915
1047
1111
1040
856
656
538
506
479
362
157
-39
-140
-135
-70
13
97
160
165
101
17
-6
57
151
183
111
-26
-158
-233
-247
-230
-224
-258
-323
-370
-342
-234
-114
-70
-121
-200
-216
-152
-81
-75
-133
-184
-176
-133
-108
-114
-106
-52
16
24
-54
-165
-226
-202
-140
-122
-183
-287
-362
-356
-286
-225
-231
-299
-370
-405
-423
-453
-473
-429
-331
-278
-330
-384
-248
118
480
521
176
-301
-595
-649
-672
-859
-1164
-1375
-1354
-1153
-912
-705
-528
-375
-287
-294
-358
-403
-392
-360
-354
-370
-355
-274
-153
-46
22
77
150
235
292
289
244
218
255
343
409
376
232
50
-59
-44
42
103
101
78
96
161
226
255
251
229
192
143
102
93
108
107
64
3
-26
-12
17
33
41
54
68
68
63
77
112
132
109
62
47
89
160
208
218
210
216
253
309
366
393
384
372
396
453
492
474
426
414
463
522
537
517
511
541
568
552
501
469
479
503
499
467
446
461
486
476
414
327
251
191
119
12
-126
-287
-467
-648
-753
-676
-395
-13
328
595
901
1362
1945
2477
2803
2906
2869
2772
2647
2487
2270
1978
1629
1299
1077
973
905
786
639
543
506
445
308
167
115
125
81
-49
-149
-119
-48
-129
-380
-581
-535
-319
-192
-278
-423
-413
-255
-142
-184
-259
-206
-60
-4
-102
-205
-132
84
215
106
-147
-325
-353
-362
-527
-886
-1319
-1663
-1798
-1669
-1303
-823
-386
-66
202
537
947
1270
1328
1089
693
333
113
19
-27
-91
-182
-260
-274
-214
-131
-85
-101
-180
-312
-482
-623
-648
-524
-334
-222
-265
-406
-530
-581
-598
-646
-737
-836
-904
-935
-948
-967
-1007
-1058
-1096
-1098
-1068
-1029
-995
-968
-953
-958
-976
-950
-824
-627
-473
-441
-457
-371
-142
88
141
15
-115
-105
3
60
5
-80
-88
-7
106
208
290
341
341
316
325
378
396
296
108
-27
-5
142
294
367
377
410
527
707
865
913
827
674
567
562
609
599
469
265
96
41
75
115
121
138
235
386
459
359
164
64
145
266
217
-13
-184
-46
376
813
1025
1021
988
1060
1180
1204
1077
878
714
622
575
547
557
616
674
649
522
371
296
314
351
346
340
408
527
560
410
157
-9
-13
7
-136
-452
-746
-846
-812
-852
-1048
-1224
-1132
-725
-199
244
598
1019
1615
2332
3007
3499
3748
3760
3603
3377
3156
2911
2557
2089
1651
1409
1353
1309
1138
913
813
882
947
807
466
153
89
250
410
391
226
104
172
408
661
783
734
588
445
360
318
280
236
185
130
74
50
95
201
295
304
240
186
190
190
108
-26
-105
-81
-33
-42
-57
30
200
302
233
90
57
179
311
319
251
238
295
328
282
219
218
231
138
-74
-266
-305
-211
-129
-145
-200
-198
-135
-111
-195
-309
-332
-254
-189
-247
-389
-469
-411
-279
-188
-182
-224
-294
-403
-520
-537
-392
-207
-198
-387
-540
-388
29
373
377
161
79
293
560
534
234
63
325
826
1077
903
676
833
1273
1412
885
31
-480
-415
-197
-338
-793
-1061
-824
-306
63
148
169
332
571
695
641
544
526
584
617
553
389
178
5
-54
-1
30
-98
-354
-537
-488
-261
-73
-85
-246
-393
-445
-464
-512
-552
-489
-314
-151
-106
-135
-80
137
397
502
398
249
274
501
725
727
503
285
295
507
677
596
316
98
136
357
496
385
136
4
97
274
312
174
19
-2
78
123
73
-10
-36
-20
-36
-137
-316
-538
-768
-984
-1199
-1444
-1728
-1954
-1952
-1643
-1148
-668
-260
209
887
1731
2541
3149
3524
3702
3704
3563
3364
3170
2934
2537
1978
1436
1103
986
912
736
489
300
228
221
211
176
129
57
-49
-150
-186
-158
-130
-158
-209
-201
-120
-58
-94
-193
-254
-240
-226
-298
-424
-487
-442
-368
-363
-404
-386
-278
-172
-163
-214
-203
-108
-58
-161
-334
-392
-292
-187
-237
-397
-491
-438
-347
-361
-469
-532
-472
-362
-331
-401
-476
-452
-332
-219
-207
-297
-407
-460
-451
-432
-441
-481
-523
-554
-586
-618
-624
-609
-603
-643
-725
-803
-838
-830
-813
-813
-831
-831
-787
-716
-667
-665
-675
-628
-528
-484
-596
-803
-906
-786
-564
-482
-622
-802
-782
-539
-287
-229
-333
-398
-307
-155
-115
-232
-374
-395
-286
-162
-110
-109
-87
-24
31
42
36
54
87
89
52
47
142
316
457
480
404
329
337
415
487
502
481
461
451
449
470
542
634
670
601
473
387
390
430
422
348
262
224
238
265
257
198
131
136
253
417
517
529
552
680
874
981
916
769
703
780
910
954
850
655
493
480
640
864
984
932
830
869
1091
1329
1397
1279
1127
1064
1075
1068
997
897
798
680
517
329
170
53
-95
-353
-694
-979
-1044
-837
-473
-131
123
378
779
1363
1990
2449
2613
2542
2411
2339
2293
2139
1784
1276
743
299
-22
-236
-356
-398
-384
-316
-150
171
633
1121
1496
1713
1825
1886
1866
1704
1434
1189
1064
1026
979
898
857
919
1026
1060
980
850
742
639
504
368
312
355
421
430
390
385
456
542
569
513
351
-17
-690
-1577
-2343
-2612
-2304
-1713
-1207
-854
-375
495
1659
2685
3167
3044
2578
2077
1677
1357
1062
771
505
309
245
330
498
628
633
515
333
143
-24
-129
-122
-2
140
192
107
-58
-211
-305
-360
-419
-479
-496
-449
-383
-381
-481
-630
-731
-735
-679
-629
-604
-581
-546
-503
-467
-452
-477
-550
-637
-663
-594
-490
-452
-496
-526
-448
-301
-216
-274
-418
-519
-500
-378
-213
-46
110
251
381
518
656
731
656
398
39
-256
-345
-219
3
185
290
387
565
825
1058
1143
1037
791
510
284
155
113
125
176
286
472
711
939
1100
1178
1188
1128
987
779
561
391
289
237
219
229
267
340
440
542
611
628
599
542
450
311
140
-13
-99
-113
-85
-33
50
164
268
323
354
432
580
716
720
583
433
410
491
490
263
-120
-430
-512
-430
-376
-450
-593
-698
-707
-591
-304
154
628
888
876
831
1073
1672
2359
2802
2936
2957
3058
3237
3358
3308
3073
2681
2182
1671
1275
1067
995
937
833
725
670
655
627
575
542
545
522
399
200
24
-56
-82
-138
-233
-287
-243
-154
-112
-135
-136
-34
145
298
349
304
213
123
62
60
126
213
248
206
147
155
237
305
269
131
-11
-56
9
102
126
55
-46
-94
-75
-70
-162
-337
-486
-531
-503
-509
-591
-691
-734
-725
-734
-790
-840
-832
-784
-765
-800
-848
-859
-842
-846
-889
-944
-981
-1018
-1079
-1138
-1147
-1103
-1067
-1083
-1124
-1122
-1076
-1057
-1111
-1181
-1165
-1055
-960
-964
-1011
-970
-818
-683
-693
-811
-878
-805
-669
-599
-617
-617
-502
-299
-106
25
132
257
378
431
394
324
289
299
301
254
178
142
196
322
446
504
492
461
461
492
503
451
350
256
209
194
173
133
87
44
4
-25
-21
15
49
51
38
49
94
136
145
137
140
154
155
152
190
291
410
476
464
417
399
433
498
549
548
491
424
413
490
612
698
700
651
620
648
718
782
804
784
742
692
643
592
538
481
426
377
327
279
237
188
107
-13
-147
-258
-349
-474
-673
-912
-1103
-1191
-1206
-1175
-1045
-718
-192
384
849
1209
1639
2243
2883
3257
3201
2862
2546
2437
2452
2373
2090
1698
1390
1281
1316
1345
1248
1013
730
492
323
184
51
-60
-133
-175
-203
-229
-259
-290
-310
-286
-201
-114
-147
-366
-699
-1001
-1210
-1380
-1561
-1670
-1573
-1261
-887
-579
-274
182
801
1363
1602
1482
1226
1076
1063
1021
796
411
36
-183
-241
-244
-317
-500
-742
-957
-1077
-1072
-943
-710
-417
-109
178
419
605
734
810
823
743
549
279
33
-104
-147
-185
-285
-414
-476
-440
-389
-425
-552
-671
-699
-657
-629
-661
-701
-675
-581
-516
-573
-726
-853
-849
-711
-552
-478
-500
-539
-505
-367
-165
22
114
87
-5
-56
17
191
351
377
252
76
-20
27
163
271
264
148
19
-22
40
133
166
120
44
1
13
66
157
292
441
525
480
328
156
26
-98
-294
-560
-770
-785
-589
-298
-30
202
431
618
659
525
336
260
324
400
378
315
377
634
969
1193
1201
1031
793
581
438
364
323
269
201
173
234
355
440
407
259
89
-10
-13
34
82
150
306
568
842
983
931
765
623
548
482
374
248
151
66
-76
-279
-442
-462
-365
-290
-330
-427
-462
-406
-356
-420
-611
-871
-1149
-1414
-1592
-1566
-1286
-846
-403
4
487
1161
1977
2729
3218
3391
3338
3190
3033
2881
2682
2355
1896
1431
1122
1009
957
792
490
187
11
-49
-101
-205
-320
-383
-391
-384
-378
-351
-283
-203
-162
-186
-260
-349
-425
-457
-429
-355
-281
-255
-267
-257
-177
-64
-41
-189
-445
-620
-570
-336
-116
-74
-177
-242
-139
59
161
63
-163
-355
-422
-388
-330
-286
-253
-223
-192
-167
-164
-221
-362
-552
-732
-867
-963
-1017
-980
-816
-575
-368
-247
-152
1
200
335
330
225
111
18
-94
-247
-388
-456
-469
-492
-543
-574
-542
-478
-445
-457
-454
-398
-342
-375
-515
-677
-755
-718
-635
-618
-708
-830
-848
-700
-481
-359
-401
-492
-481
-383
-355
-484
-646
-644
-461
-298
-319
-440
-432
-200
105
272
256
187
188
260
340
389
413
418
387
329
291
312
369
406
393
350
327
351
399
422
401
351
314
319
362
400
389
318
229
183
215
297
346
303
192
99
98
179
259
269
216
163
167
227
295
350
414
521
671
805
857
835
821
877
961
962
826
628
510
540
664
783
849
870
866
849
842
869
911
905
809
660
536
477
461
428
362
271
157
2
-199
-429
-672
-918
-1125
-1213
-1101
-775
-330
88
422
774
1300
2010
2672
2991
2918
2718
2670
2752
2674
2268
1712
1333
1223
1181
1021
800
701
756
804
709
533
416
395
377
291
167
71
13
-30
-74
-36
33
104
140
147
134
85
-5
-89
-114
-77
-45
-86
-183
-255
-247
-197
-173
-201
-249
-284
-287
-249
-175
-108
-125
-260
-424
-465
-328
-146
-104
-254
-468
-583
-561
-474
-398
-347
-312
-294
-297
-290
-241
-171
-145
-191
-286
-393
-484
-524
-470
-349
-280
-367
-544
-595
-409
-154
-102
-303
-524
-542
-425
-425
-627
-838
-844
-699
-634
-752
-896
-871
-709
-627
-738
-909
-938
-813
-713
-777
-917
-928
-738
-496
-383
-414
-433
-316
-123
-32
-121
-267
-292
-178
-70
-75
-136
-121
-8
99
128
128
197
329
403
332
178
85
113
169
133
5
-79
2
211
396
451
416
390
400
366
221
28
-87
-81
-32
-42
-104
-131
-64
79
212
253
178
31
-97
-134
-120
-173
-353
-533
-498
-221
59
101
-43
-75
167
495
597
419
219
221
350
368
215
84
155
343
404
257
87
109
303
453
398
211
91
138
275
349
290
160
69
65
93
86
28
-45
-83
-79
-72
-99
-177
-301
-462
-649
-854
-1074
-1274
-1369
-1265
-946
-518
-126
200
573
1114
1776
2335
2584
2523
2340
2216
2153
2014
1706
1279
878
585
355
108
-156
-358
-445
-436
-388
-307
-151
91
354
560
690
761
768
682
507
314
181
117
71
12
-33
-34
-13
-15
-32
-5
86
168
136
-16
-170
-206
-127
-52
-74
-168
-240
-231
-164
-90
-45
-45
-94
-178
-263
-331
-409
-532
-677
-758
-707
-551
-385
-268
-185
-102
-28
-14
-89
-237
-418
-594
-715
-727
-616
-447
-327
-303
-310
-258
-142
-67
-129
-305
-477
-551
-539
-524
-549
-587
-599
-601
-630
-681
-702
-665
-605
-579
-599
-614
-587
-528
-483
-476
-489
-495
-495
-499
-500
-471
-386
-257
-136
-60
-13
58
182
307
347
264
126
35
30
61
66
42
32
68
135
209
294
381
423
369
220
53
-52
-77
-68
-50
5
137
337
539
673
711
671
582
459
307
149
27
-13
62
244
464
628
695
720
785
865
800
473
-2
-305
-200
212
598
741
764
939
1372
1875
2183
2207
2056
1871
1718
1634
1654
1773
1882
1846
1644
1410
1291
1315
1387
1400
1325
1195
1073
1028
1089
1208
1282
1235
1093
953
886
887
918
942
907
724
358
-71
-343
-351
-250
-316
-638
-1013
-1189
-1162
-1162
-1349
-1584
-1561
-1145
-492
162
770
1475
2359
3271
3946
4236
4204
4003
3711
3317
2817
2280
1812
1468
1236
1079
969
876
752
566
321
60
-160
-299
-340
-293
-203
-134
-130
-179
-242
-297
-371
-509
-715
-933
-1093
-1156
-1122
-1008
-823
-586
-319
-35
254
527
727
794
715
553
397
294
227
145
30
-82
-142
-132
-80
-31
-18
-41
-84
-136
-204
-291
-395
-497
-578
-620
-626
-605
-573
-528
-454
-330
-165
3
116
138
78
-13
-87
-128
-169
-250
-384
-534
-632
-636
-577
-534
-564
-641
-674
-613
-515
-487
-565
-671
-706
-670
-660
-738
-841
-854
-758
-660
-674
-782
-859
-820
-707
-633
-658
-730
-753
-685
-557
-431
-350
-316
-312
-316
-305
-260
-185
-112
-73
-63
-43
9
69
92
74
62
96
156
190
182
178
